
70012,7.999,-5.169,2.006,0.039933,0.001750,0.044792,100334.37
70023,7.983,-5.234,1.918,0.041530,0.001218,0.041067,100333.43
70033,7.980,-5.259,1.860,0.036741,0.008136,0.036810,100333.63
70043,7.969,-5.192,1.896,0.029823,0.013457,0.034149,100333.12
70052,7.990,-5.136,1.942,0.028759,0.017182,0.033617,100332.91
70063,8.028,-5.096,1.999,0.033016,0.017182,0.034682,100334.68
70073,8.001,-5.050,2.087,0.038869,0.014521,0.037874,100334.90
70082,7.958,-5.101,2.109,0.042062,0.012393,0.042663,100334.90
70092,7.974,-5.105,2.100,0.036741,0.009732,0.043195,100334.16
70103,8.016,-5.057,2.136,0.028759,0.012393,0.047984,100334.16
70113,8.053,-5.040,2.136,0.021842,0.011328,0.052241,100331.77
70118,8.060,-5.047,2.171,0.019713,0.010796,0.054902,100333.71
70127,8.060,-5.100,2.106,0.023438,0.009732,0.054902,100334.54
70137,7.992,-5.235,2.001,0.028227,0.010264,0.053838,100332.45
70148,7.898,-5.345,1.867,0.022906,0.018246,0.046920,100332.45
70158,7.856,-5.391,1.831,0.005346,0.035273,0.038406,100334.92
70168,7.929,-5.381,1.867,-0.014342,0.053897,0.028828,100330.28
70177,7.962,-5.259,1.958,-0.024984,0.065604,0.022443,100333.09
70188,7.935,-5.159,2.015,-0.024452,0.069860,0.019250,100334.88
70198,7.995,-5.162,2.040,-0.016470,0.068796,0.019250,100334.88
70208,8.138,-5.036,2.166,-0.018067,0.070925,0.021379,100335.82
70217,8.189,-5.048,2.238,-0.013810,0.069328,0.020847,100334.26
70227,8.060,-5.159,2.128,0.002153,0.057090,0.021911,100334.21
70238,7.926,-5.229,2.048,0.017053,0.046980,0.020847,100331.96
70248,7.870,-5.277,2.021,0.023970,0.043255,0.016058,100331.96
70258,7.885,-5.277,2.048,0.026098,0.040594,0.011801,100337.74
70267,7.893,-5.287,2.049,0.033548,0.035805,0.008076,100336.23
70278,7.871,-5.297,2.073,0.035676,0.032081,0.007012,100333.41
70288,7.895,-5.277,2.088,0.025566,0.031016,0.004883,100333.10
70297,7.940,-5.241,2.101,0.017585,0.036338,0.003819,100333.10
70307,7.916,-5.227,2.057,0.014392,0.037402,0.004883,100334.45
70318,7.861,-5.169,2.092,0.017585,0.034209,0.006480,100333.20
70328,7.787,-5.191,2.122,0.025034,0.029420,0.009672,100334.91
70338,7.764,-5.190,2.124,0.031420,0.026760,0.012333,100333.24
70347,7.797,-5.171,2.188,0.033016,0.024099,0.013929,100333.24
70353,7.852,-5.174,2.236,0.033548,0.019310,0.015526,100334.63
70363,7.902,-5.190,2.269,0.030355,0.018778,0.016590,100334.63
70373,7.925,-5.206,2.200,0.024502,0.014521,0.019250,100333.96
70383,7.943,-5.166,2.176,0.019181,0.011328,0.022975,100333.85
70393,7.977,-5.172,2.173,0.020777,0.006539,0.027764,100333.96
70403,7.910,-5.209,2.106,0.029823,0.000154,0.029360,100335.05
70413,7.814,-5.251,2.068,0.037273,-0.004635,0.032553,100333.76
70423,7.774,-5.297,2.084,0.043126,-0.004635,0.033085,100334.38
70432,7.753,-5.319,2.024,0.047383,-0.005699,0.034149,100334.38
70443,7.764,-5.326,2.031,0.048447,-0.008892,0.038406,100333.34
70453,7.813,-5.272,2.087,0.045254,-0.012084,0.044792,100333.34
70463,7.896,-5.139,2.206,0.039401,-0.013149,0.056498,100336.12
70473,7.995,-5.059,2.303,0.035144,-0.015809,0.070333,100336.18
70482,8.037,-5.114,2.246,0.034612,-0.022195,0.085764,100332.63
70493,8.056,-5.095,2.201,0.023970,-0.025919,0.102792,100333.73
70503,7.977,-5.040,2.261,0.014924,-0.025387,0.112370,100333.73
70513,7.996,-5.109,2.167,0.022374,-0.023791,0.120883,100335.47
70523,7.945,-5.172,2.112,0.042062,-0.031240,0.132058,100332.25
70533,7.820,-5.299,2.078,0.072392,-0.044543,0.137911,100333.14
70543,7.786,-5.432,1.961,0.095273,-0.047736,0.136847,100333.14
70553,7.813,-5.473,2.021,0.097401,-0.042415,0.136315,100333.14
70562,7.820,-5.452,2.067,0.090484,-0.034433,0.134186,100335.06
70573,7.856,-5.412,2.052,0.080374,-0.026984,0.133654,100333.86
70583,7.907,-5.215,2.170,0.064410,-0.020598,0.137379,100330.42
70593,8.019,-5.053,2.328,0.055897,-0.019534,0.143764,100333.91
70602,7.976,-5.168,2.243,0.060153,-0.019534,0.149617,100333.91
70612,7.861,-5.439,2.054,0.064942,-0.022195,0.150682,100336.84
70623,7.765,-5.445,2.069,0.078245,-0.025919,0.141104,100332.45
70633,7.689,-5.497,1.988,0.108575,-0.029644,0.136315,100332.36
70643,7.708,-5.519,1.888,0.126135,-0.033901,0.132058,100332.36
70653,7.746,-5.518,2.050,0.141034,-0.035497,0.134186,100336.28
70663,7.811,-5.521,2.146,0.135181,-0.024855,0.137379,100331.47
70673,7.861,-5.466,2.329,0.090484,-0.008892,0.137911,100331.47
70683,7.735,-5.551,2.347,0.044190,0.008668,0.140571,100334.92
70692,7.617,-5.544,2.158,-0.001039,0.024099,0.142700,100332.83
70703,7.610,-5.252,2.073,-0.033498,0.037934,0.147489,100332.83
70713,7.739,-5.114,2.170,-0.020195,0.036338,0.160259,100331.56
70723,7.779,-5.223,2.208,0.019181,0.018246,0.178883,100334.59
70733,7.670,-5.446,2.298,0.050043,0.000154,0.192186,100333.77
70743,7.544,-5.755,2.335,0.055364,-0.006231,0.197507,100332.61
70753,7.445,-5.895,2.294,0.021842,0.003879,0.192718,100335.30
70763,7.494,-5.815,2.347,-0.017535,0.019842,0.181012,100335.34
70773,7.610,-5.736,2.288,-0.035626,0.024099,0.174094,100333.36
70782,7.613,-5.691,2.157,-0.032434,0.018778,0.168773,100333.36
70793,7.579,-5.599,2.028,-0.026580,0.016117,0.172498,100334.63
70803,7.513,-5.551,1.996,-0.017002,0.011860,0.181544,100334.63
70813,7.543,-5.570,2.040,-0.006892,0.009200,0.192186,100337.01
70822,7.563,-5.575,2.210,-0.005296,0.006539,0.203892,100333.15
70833,7.520,-5.634,2.348,-0.010617,0.005475,0.212938,100333.82
70843,7.427,-5.811,2.402,-0.019131,0.003879,0.216131,100334.20
70853,7.363,-5.821,2.310,-0.032966,0.000686,0.212938,100334.20
70863,7.392,-5.755,2.173,-0.039883,0.000686,0.212406,100334.68
70873,7.504,-5.661,1.958,-0.031902,0.000154,0.214003,100335.48
70883,7.538,-5.641,1.841,-0.009553,-0.006231,0.220920,100334.46
70893,7.460,-5.654,1.918,0.017053,-0.007828,0.229434,100334.46
70903,7.455,-5.828,2.163,0.042594,-0.008892,0.232626,100334.46
70913,7.372,-6.131,2.245,0.046319,-0.008360,0.224645,100336.59
70923,7.203,-6.290,2.225,0.021842,0.001218,0.204957,100337.28
70933,7.247,-6.175,2.060,-0.008489,0.013989,0.186333,100333.25
70943,7.410,-5.919,2.050,-0.011681,0.017714,0.173562,100333.56
70952,7.539,-5.815,2.106,0.010667,0.009732,0.173030,100333.56
70963,7.579,-5.840,2.214,0.043126,-0.005699,0.177819,100336.05
70973,7.458,-6.010,2.346,0.060153,-0.018470,0.181012,100331.05
70983,7.386,-6.163,2.401,0.044190,-0.017938,0.176755,100334.28
70993,7.369,-6.238,2.291,0.003218,-0.002506,0.169837,100334.28
71003,7.506,-6.174,2.182,-0.040947,0.010796,0.166113,100334.63
71013,7.653,-6.046,2.254,-0.071810,0.020906,0.162920,100335.10
71023,7.599,-6.061,2.271,-0.084580,0.022503,0.163452,100335.10
71033,7.406,-6.195,2.173,-0.103736,0.029420,0.163452,100333.63
71043,7.316,-6.182,2.209,-0.137259,0.037934,0.157599,100335.26
71053,7.239,-5.943,2.420,-0.154819,0.038466,0.155471,100335.26
71059,7.181,-5.895,2.485,-0.145241,0.026760,0.158131,100335.95
71068,7.127,-5.929,2.486,-0.122360,0.006539,0.161856,100333.86
71078,7.063,-6.082,2.373,-0.103204,-0.015277,0.165048,100332.34
71088,7.070,-6.103,2.261,-0.108525,-0.024855,0.167709,100330.42
71098,7.119,-6.060,2.352,-0.119700,-0.027516,0.171434,100330.42
71108,7.096,-6.072,2.353,-0.124489,-0.031240,0.179415,100333.32
71118,6.987,-6.180,2.209,-0.137259,-0.030708,0.185801,100333.05
71128,6.994,-6.157,2.177,-0.164397,-0.020066,0.193250,100331.13
71138,7.097,-6.109,2.252,-0.189938,-0.010488,0.199636,100330.98
71148,7.203,-6.035,2.293,-0.200580,-0.009424,0.209214,100330.98
71158,7.276,-6.035,2.250,-0.198984,-0.012617,0.217195,100335.48
71169,7.269,-6.144,2.192,-0.186213,-0.019534,0.225709,100332.71
71179,7.176,-6.313,2.073,-0.178232,-0.020066,0.228370,100333.82
71188,7.105,-6.429,1.916,-0.187810,-0.012084,0.226773,100333.98
71198,7.094,-6.395,1.860,-0.201645,-0.003571,0.224113,100333.98
71208,7.136,-6.260,1.715,-0.198984,-0.001974,0.226773,100335.34
71218,7.313,-6.309,1.633,-0.172379,-0.016341,0.238480,100335.30
71228,7.439,-6.591,1.686,-0.154287,-0.030176,0.250718,100333.63
71238,7.470,-6.905,1.783,-0.178764,-0.015809,0.254443,100331.69
71248,7.532,-7.010,1.891,-0.246874,0.023567,0.245397,100331.69
71258,7.554,-6.858,2.013,-0.320305,0.057622,0.239012,100334.69
71268,7.472,-6.694,2.122,-0.356488,0.066668,0.240608,100334.84
71278,7.279,-6.669,2.118,-0.371388,0.065604,0.249122,100333.70
71288,7.145,-6.832,1.917,-0.394268,0.071457,0.261360,100334.06
71298,7.047,-7.062,1.783,-0.449076,0.091677,0.277856,100334.06
71308,7.145,-7.040,1.754,-0.535277,0.127860,0.290094,100336.88
71318,7.474,-6.490,2.469,-0.624140,0.151273,0.300204,100335.63
71328,7.613,-6.159,2.805,-0.610305,0.126796,0.327342,100333.27
71339,7.495,-6.430,2.590,-0.535810,0.065604,0.361929,100332.13
71348,7.412,-6.776,2.352,-0.515589,0.014521,0.389599,100332.13
71358,7.521,-6.872,2.024,-0.541131,-0.005167,0.403434,100336.25
71368,7.856,-6.785,1.685,-0.565076,-0.022727,0.436424,100337.03
71378,8.150,-6.666,1.366,-0.567736,-0.055717,0.472608,100332.66
71388,8.249,-6.650,1.328,-0.541663,-0.101479,0.523158,100333.44
71398,8.201,-6.777,1.205,-0.506011,-0.151497,0.576369,100333.44
71408,8.069,-6.902,1.190,-0.491112,-0.190873,0.629048,100334.93
71418,7.933,-6.953,1.435,-0.499626,-0.224928,0.675342,100334.20
71429,7.844,-7.037,1.851,-0.522507,-0.253662,0.717910,100331.74
71438,7.870,-7.171,2.208,-0.548580,-0.276543,0.753030,100332.41
71448,7.994,-7.352,2.444,-0.581571,-0.296231,0.782828,100332.41
71458,8.201,-7.433,2.455,-0.626268,-0.307937,0.807305,100335.76
71469,8.475,-7.469,2.373,-0.678415,-0.315919,0.831782,100335.07
71478,8.710,-7.402,2.081,-0.719387,-0.325497,0.864241,100336.12
71488,8.957,-7.271,1.687,-0.753442,-0.341992,0.902020,100331.63
71498,9.216,-7.098,1.393,-0.769406,-0.376580,0.950442,100331.63
71508,9.507,-7.027,1.269,-0.766745,-0.434580,1.008975,100336.72
71518,9.706,-7.194,1.381,-0.764085,-0.488855,1.070167,100334.89
71528,9.820,-7.404,1.534,-0.785369,-0.516524,1.129231,100334.42
71538,9.830,-7.625,1.756,-0.861993,-0.513332,1.177121,100333.95
71548,9.790,-7.906,1.893,-1.001938,-0.466506,1.215965,100333.95
71559,9.854,-8.054,1.995,-1.200415,-0.365937,1.242039,100334.42
71568,9.986,-7.701,2.242,-1.469130,-0.211093,1.268112,100332.81
71578,10.009,-7.155,2.414,-1.732524,-0.049864,1.327708,100335.73
71588,9.999,-6.662,2.615,-1.874598,0.051769,1.438919,100332.39
71599,9.863,-6.505,2.917,-1.855442,0.080503,1.595892,100332.39
71608,9.797,-6.730,3.364,-1.718689,0.060282,1.773084,100333.58
71618,10.263,-6.809,3.349,-1.579277,0.018246,1.923671,100335.56
71628,10.399,-6.773,3.095,-1.502653,-0.021662,1.981671,100332.33
71639,9.982,-6.861,2.777,-1.513827,-0.022727,1.966240,100333.06
71649,9.141,-7.070,2.543,-1.565974,-0.010133,1.916222,100333.06
71658,8.687,-7.219,2.297,-1.604286,-0.005699,1.870460,100334.39
71668,8.091,-7.601,2.064,-1.608543,-0.015277,1.816717,100332.72
71678,7.633,-7.896,1.746,-1.581937,-0.018470,1.780002,100333.77
71689,7.176,-8.100,1.602,-1.468598,-0.051461,1.756589,100332.72
71698,6.348,-8.598,1.542,-1.252561,-0.141387,1.773616,100332.72
71708,5.815,-8.613,1.627,-0.957773,-0.237167,1.776277,100333.41
71718,5.322,-8.471,1.566,-0.657663,-0.279204,1.717213,100334.50
71729,5.028,-7.649,1.070,-0.463443,-0.238231,1.554387,100333.25
71738,5.292,-5.886,-0.605,-0.463975,-0.170653,1.227139,100331.89
71748,4.121,-4.922,-1.095,-0.568800,-0.168525,0.847745,100331.89
71758,3.938,-3.334,-0.855,-0.554433,-0.176506,0.602975,100333.79
71763,4.718,-1.655,-0.671,-0.435773,-0.202048,0.436957,100332.05
71774,5.141,-0.578,-0.317,-0.211223,-0.266965,0.229434,100332.05
71784,5.174,-0.010,0.023,0.201695,-0.383497,-0.051520,100331.23
71793,4.958,0.011,0.121,0.693364,-0.515992,-0.283520,100328.93
71803,4.686,-0.356,0.380,1.204189,-0.630928,-0.487318,100328.93
71814,4.445,-1.298,0.294,1.638391,-0.692121,-0.697501,100332.86
71824,4.227,-2.427,-0.032,1.881565,-0.688928,-0.939611,100329.47
71833,3.962,-3.351,-0.123,1.907639,-0.620818,-1.224822,100327.86
71843,3.795,-3.981,-0.131,1.771950,-0.493644,-1.530785,100327.86
71854,3.846,-4.266,-0.141,1.555382,-0.330286,-1.828235,100327.86
71864,4.172,-4.331,-0.116,1.328703,-0.172249,-2.107592,100331.55
71873,4.642,-4.289,-0.207,1.139804,-0.047204,-2.368858,100329.95
71884,5.123,-4.290,-0.342,1.005180,0.044497,-2.623029,100329.71
71894,5.425,-4.397,-0.399,0.945584,0.103383,-2.828069,100329.71
71904,5.639,-4.568,-0.406,0.920043,0.163512,-3.041977,100329.71
71914,5.915,-4.746,-0.274,0.922171,0.230026,-3.238858,100330.66
71923,6.241,-4.937,-0.147,0.953034,0.299200,-3.415518,100330.65
71933,6.538,-5.118,0.047,1.025401,0.359860,-3.570362,100330.51
71944,6.929,-5.229,0.179,1.156299,0.402429,-3.698601,100330.51
71954,7.313,-5.455,0.246,1.353180,0.422117,-3.793316,100332.83
71963,7.761,-5.882,0.345,1.597419,0.409346,-3.848123,100332.83
71973,8.208,-6.504,0.526,1.849106,0.373695,-3.870472,100330.63
71984,8.631,-7.300,0.744,2.060886,0.319952,-3.880050,100330.38
71994,8.995,-8.234,1.049,2.196042,0.264080,-3.900802,100327.70
72003,9.307,-9.114,1.278,2.239143,0.220448,-3.939114,100327.70
72013,9.470,-9.843,1.426,2.192849,0.217255,-3.993389,100330.36
72024,9.385,-10.481,1.511,2.051840,0.275787,-4.050325,100331.97
72034,9.149,-10.937,1.619,1.816116,0.396044,-4.090233,100329.83
72044,8.971,-11.045,1.671,1.535694,0.553016,-4.092361,100329.29
72053,9.298,-11.333,1.839,1.284006,0.709989,-4.053517,100334.62
72064,9.640,-11.437,1.893,1.096703,0.834502,-3.982215,100333.41
72074,9.923,-11.454,1.831,0.973786,0.934539,-3.876325,100330.70
72083,9.865,-11.491,1.795,0.879070,1.019676,-3.735316,100330.70
72093,9.578,-11.464,1.764,0.763603,1.087786,-3.566105,100334.20
72103,9.366,-11.306,1.745,0.607162,1.145786,-3.371353,100334.20
72114,9.125,-10.941,1.824,0.439548,1.196337,-3.147335,100334.69
72119,8.900,-10.595,1.764,0.325144,1.233584,-2.961096,100334.69
72128,8.612,-10.355,1.612,0.224043,1.271896,-2.770601,100334.64
72138,8.290,-10.125,0.987,0.098997,1.327768,-2.534876,100333.95
72148,7.977,-10.319,0.771,0.003218,1.372997,-2.347042,100333.95
72159,7.434,-10.658,0.637,-0.104268,1.384704,-2.128877,100339.07
72169,7.217,-10.790,0.625,-0.241553,1.354373,-1.833556,100337.55
72178,7.253,-10.421,0.586,-0.401718,1.259658,-1.525996,100334.16
72188,7.261,-9.552,0.499,-0.524103,1.117584,-1.210987,100336.04
72199,7.180,-8.894,0.573,-0.517718,0.944649,-0.895446,100336.04
72209,6.984,-8.816,0.417,-0.417149,0.762135,-0.576713,100340.02
72218,6.643,-9.169,0.095,-0.318709,0.595585,-0.224456,100338.62
72228,6.394,-9.375,-0.193,-0.239424,0.438613,0.142168,100332.91
72239,6.762,-8.898,-0.102,-0.138856,0.326869,0.436957,100336.52
72249,7.629,-9.672,-1.929,-0.024984,0.141163,0.726956,100336.52
72258,7.206,-9.963,-2.535,0.160190,-0.210561,1.111672,100338.13
72268,7.915,-8.651,-1.900,0.447529,-0.503222,1.492130,100337.87
72279,12.251,-0.827,2.022,0.697621,-0.533020,1.446901,100337.55
72289,15.608,4.273,5.440,0.607694,-0.175974,0.875415,100337.34
72298,17.601,-0.787,2.659,0.246392,0.058154,0.787085,100337.34
72308,15.514,-7.518,-0.083,-0.044672,-0.178103,1.286736,100337.75
72318,10.479,-8.786,0.775,-0.270819,-0.328690,1.633671,100336.56
72329,9.063,-7.536,3.063,-0.402250,-0.087644,1.743818,100339.22
72339,10.915,-6.062,3.441,-0.334140,0.000686,1.750736,100335.98
72348,9.860,-4.115,4.109,-0.165993,-0.213754,1.705506,100335.98
72354,7.619,-2.926,4.678,-0.085645,-0.310598,1.638460,100338.11
72364,5.669,-2.394,5.392,-0.017535,-0.330818,1.596956,100338.11
72374,4.858,-3.084,4.816,0.083034,-0.374451,1.567158,100335.33
72384,6.091,-4.841,3.105,0.074520,-0.389350,1.476699,100337.89
72393,7.667,-6.256,1.918,-0.054782,-0.318048,1.328772,100335.86
72403,8.602,-6.291,1.548,-0.159608,-0.211093,1.212240,100339.59
72414,9.118,-5.224,1.278,-0.147369,-0.136598,1.151048,100339.17
72424,9.415,-4.151,1.000,-0.044672,-0.123827,1.120718,100334.89
72433,9.405,-3.948,1.077,0.069731,-0.131809,1.096773,100334.89
72443,9.092,-4.445,1.354,0.133052,-0.120103,1.099433,100338.19
72454,8.490,-4.686,2.113,0.123475,-0.079130,1.095176,100338.19
72464,7.768,-4.881,2.947,0.068667,-0.032305,1.043562,100339.45
72473,7.324,-5.307,3.132,0.006942,-0.001974,0.960553,100334.55
72483,7.442,-5.698,2.838,-0.053718,0.009732,0.864241,100334.64
72494,7.950,-5.633,2.704,-0.130342,0.036870,0.768993,100336.73
72504,8.442,-5.137,2.795,-0.226122,0.083163,0.694498,100336.73
72514,8.591,-4.844,2.722,-0.311791,0.123604,0.655654,100338.33
72524,8.603,-4.512,2.699,-0.375644,0.160319,0.635433,100336.39
72534,8.582,-4.401,2.963,-0.413956,0.195970,0.606700,100336.19
72544,8.538,-5.135,2.892,-0.446415,0.200227,0.590736,100336.19
72554,8.508,-5.406,2.840,-0.502819,0.194906,0.572112,100336.19
72563,8.419,-4.900,3.047,-0.540066,0.200227,0.550296,100338.24
72573,8.178,-4.456,3.220,-0.503351,0.167237,0.539122,100336.73
72584,7.969,-4.463,3.071,-0.412360,0.115090,0.533268,100335.54
72589,7.928,-4.698,2.942,-0.353828,0.082099,0.528479,100337.88
72599,7.909,-4.895,2.923,-0.327755,0.068264,0.522626,100337.88
72608,7.922,-5.100,2.944,-0.341057,0.075714,0.507727,100337.08
72619,7.946,-5.309,2.941,-0.387351,0.095934,0.489103,100338.95
72629,7.902,-5.327,2.907,-0.434177,0.103383,0.473140,100335.97
72639,7.819,-5.086,3.028,-0.458654,0.097530,0.464626,100335.50
72648,7.625,-4.835,3.119,-0.457589,0.082631,0.465690,100335.50
72658,7.500,-4.772,3.149,-0.433112,0.058154,0.475268,100339.46
72669,7.471,-4.974,3.069,-0.411296,0.036338,0.483782,100336.12
72679,7.461,-5.191,2.889,-0.414488,0.023567,0.493892,100335.85
72689,7.436,-5.145,2.781,-0.434709,0.017182,0.502938,100334.98
72698,7.439,-5.013,2.890,-0.441094,0.010264,0.512516,100334.98
72709,7.531,-5.113,2.859,-0.429920,0.001218,0.523158,100335.48
72719,7.631,-5.208,2.792,-0.413956,-0.016873,0.533268,100337.42
72729,7.714,-5.188,2.815,-0.392140,-0.033369,0.539122,100335.33
72738,7.664,-5.253,2.741,-0.355956,-0.051461,0.544975,100337.73
72749,7.527,-5.591,2.497,-0.320837,-0.071681,0.544975,100337.73
72759,7.506,-6.009,2.291,-0.309131,-0.077002,0.535929,100338.16
72769,7.516,-6.094,2.167,-0.328287,-0.069020,0.523158,100336.22
72778,7.440,-5.889,2.082,-0.348507,-0.060506,0.516773,100336.75
72788,7.412,-5.597,2.197,-0.336800,-0.064231,0.514645,100334.08
72799,7.453,-5.366,2.435,-0.288378,-0.085516,0.523158,100334.08
72809,7.515,-5.472,2.634,-0.226122,-0.114250,0.536993,100335.76
72819,7.488,-5.932,2.578,-0.192599,-0.124892,0.544443,100336.85
72828,7.333,-6.074,2.497,-0.212287,-0.116378,0.546571,100334.13
72839,7.137,-5.843,2.519,-0.249534,-0.106268,0.556681,100333.30
72849,7.070,-5.596,2.601,-0.274011,-0.102543,0.575305,100333.30
72859,7.198,-5.299,2.803,-0.278800,-0.102011,0.602443,100337.35
72868,7.247,-5.245,2.807,-0.241021,-0.135534,0.647140,100335.90
72879,7.105,-6.116,2.485,-0.190470,-0.194598,0.700883,100336.05
72889,7.156,-6.987,2.133,-0.241021,-0.199919,0.722167,100334.23
72899,7.373,-6.988,2.184,-0.386287,-0.151497,0.721103,100334.23
72909,7.556,-6.435,2.276,-0.485259,-0.123295,0.724828,100340.13
72919,7.781,-6.120,2.349,-0.499094,-0.139791,0.746644,100334.28
72929,8.012,-6.248,2.432,-0.467167,-0.185020,0.775910,100338.25
72939,8.162,-6.501,2.216,-0.442158,-0.227057,0.812094,100336.42
72948,8.122,-6.817,1.935,-0.449608,-0.264837,0.849874,100336.42
72958,8.150,-7.097,1.818,-0.491112,-0.295167,0.885525,100336.01
72969,8.269,-7.215,1.807,-0.556562,-0.313791,0.920112,100333.49
72979,8.459,-7.141,1.710,-0.627864,-0.332947,0.960553,100334.12
72989,8.578,-7.134,1.637,-0.687993,-0.352103,1.007378,100333.76
72998,8.793,-7.291,1.426,-0.731626,-0.376048,1.063782,100333.76
73009,8.973,-7.474,1.277,-0.779516,-0.399992,1.116461,100335.45
73019,9.125,-7.409,1.241,-0.835387,-0.416488,1.175525,100333.88
73029,9.232,-7.435,1.228,-0.879020,-0.432451,1.230864,100337.06
73038,9.285,-7.440,1.283,-0.917332,-0.455864,1.289928,100336.48
73049,9.404,-7.499,1.413,-0.960965,-0.482469,1.347396,100336.48
73059,9.787,-7.774,1.521,-1.020384,-0.509607,1.405396,100333.03
73069,10.394,-8.179,1.600,-1.094525,-0.522910,1.449561,100334.81
73079,11.243,-8.604,1.583,-1.227552,-0.517589,1.486809,100336.06
73089,12.302,-8.624,1.497,-1.429754,-0.496836,1.512350,100332.98
73099,13.471,-7.785,1.657,-1.684634,-0.471295,1.540020,100332.98
73109,14.693,-6.049,2.252,-1.884176,-0.475552,1.596956,100334.73
73119,15.318,-4.406,2.864,-1.892689,-0.560690,1.700717,100333.79
73128,15.272,-3.442,3.126,-1.739442,-0.688396,1.825763,100331.87
73139,14.616,-3.839,3.034,-1.526066,-0.816634,1.972625,100332.90
73149,13.543,-5.355,2.847,-1.297791,-0.932634,2.138644,100332.90
73159,12.235,-7.419,3.308,-1.058873,-1.030543,2.358405,100336.67
73169,11.810,-8.744,4.056,-0.818360,-1.093331,2.552093,100332.13
73179,12.031,-8.654,4.455,-0.690121,-1.114084,2.594661,100333.75
73189,11.105,-7.853,4.769,-0.708745,-1.063001,2.485579,100330.30
73199,9.368,-6.908,4.492,-0.741736,-0.958176,2.348827,100330.30
73209,7.412,-6.350,3.953,-0.736947,-0.827809,2.240808,100335.65
73219,5.585,-7.599,2.911,-0.722048,-0.716598,2.207286,100334.70
73229,4.514,-9.344,1.767,-0.673094,-0.740543,2.298809,100331.05
73239,4.732,-9.281,1.127,-0.545387,-0.809717,2.325414,100330.79
73249,4.514,-9.772,0.910,-0.404910,-0.802800,2.126937,100330.79
73259,3.840,-9.694,1.516,-0.388415,-0.634653,1.869928,100337.55
73269,4.265,-6.943,1.862,-0.523571,-0.320176,1.455947,100331.29
73279,3.566,-5.355,1.632,-0.777387,0.008136,0.872222,100332.96
73289,3.421,-4.157,1.435,-0.982250,0.251310,0.405562,100333.27
73294,4.236,-2.366,1.223,-1.047699,0.357732,0.141104,100333.27
73304,5.132,-0.673,1.105,-1.012048,0.393915,-0.098346,100333.27
73314,5.837,0.728,1.077,-0.833259,0.376356,-0.408566,100333.15
73324,6.071,1.355,0.876,-0.513461,0.291750,-0.681006,100333.24
73334,5.790,1.397,0.561,-0.072874,0.160319,-0.883740,100333.20
73345,5.333,0.622,0.274,0.423052,0.042191,-1.040180,100330.21
73354,4.904,-0.818,-0.016,0.868428,-0.026451,-1.185978,100330.52
73364,4.746,-2.165,-0.107,1.203125,-0.043479,-1.367428,100333.07
73374,4.914,-3.033,0.025,1.429272,-0.015809,-1.616987,100333.07
73384,5.188,-3.414,0.251,1.573474,0.041127,-1.918693,100328.54
73394,5.442,-3.528,0.410,1.663932,0.113493,-2.234766,100331.55
73404,5.579,-3.486,0.548,1.722996,0.180539,-2.533812,100331.55
73414,5.515,-3.584,0.544,1.767161,0.233750,-2.808913,100330.87
73424,5.234,-3.818,0.497,1.801749,0.286429,-3.060069,100328.73
73435,5.044,-4.189,0.470,1.817180,0.364649,-3.291537,100330.40
73444,5.121,-4.616,0.558,1.800152,0.477457,-3.509701,100328.21
73454,5.462,-5.038,0.720,1.749602,0.613677,-3.712967,100332.16
73464,6.021,-5.537,0.878,1.675639,0.750429,-3.908252,100329.98
73475,6.535,-6.060,0.841,1.570813,0.866429,-4.089169,100329.35
73484,6.897,-6.441,0.721,1.442042,0.966465,-4.254655,100327.95
73494,7.236,-6.765,0.501,1.314868,1.060649,-4.411627,100327.95
73504,7.706,-6.933,0.333,1.232923,1.146318,-4.563279,100327.95
73515,8.314,-7.012,0.368,1.242501,1.206447,-4.696306,100332.50
73524,9.075,-7.305,0.568,1.354777,1.218685,-4.794214,100331.50
73534,9.854,-8.045,0.739,1.521859,1.171860,-4.856471,100330.61
73544,10.331,-8.976,0.961,1.671382,1.068098,-4.885205,100330.67
73554,10.660,-10.178,0.903,1.757051,0.929218,-4.884673,100330.67
73565,10.780,-11.495,0.782,1.775675,0.788209,-4.852746,100330.23
73574,10.715,-12.524,0.519,1.760776,0.679126,-4.776655,100332.11
73584,10.540,-13.399,0.324,1.736831,0.614209,-4.654801,100331.13
73594,10.507,-14.158,0.279,1.690538,0.581750,-4.509004,100331.13
73605,10.266,-14.762,0.351,1.588373,0.567383,-4.369591,100334.54
73614,9.629,-15.104,0.665,1.412244,0.564190,-4.197719,100334.54
73624,8.712,-14.941,1.147,1.180777,0.561530,-3.943371,100335.52
73634,7.898,-13.944,1.741,0.999859,0.567383,-3.605481,100334.70
73645,7.495,-12.816,1.863,0.954630,0.616337,-3.216509,100334.32
73650,7.701,-12.876,1.548,1.009437,0.669548,-2.960032,100334.32
73659,7.012,-13.658,1.260,1.139804,0.659438,-2.775922,100337.32
73669,5.607,-15.256,0.278,1.112666,0.712649,-2.457721,100337.88
73679,4.406,-17.371,-0.148,0.766263,0.805768,-2.025115,100337.26
73690,3.525,-17.963,-0.745,0.179878,0.883456,-1.543024,100335.74
73699,4.131,-17.310,-1.268,-0.337865,0.920172,-1.054015,100335.74
73709,6.046,-15.734,-0.691,-0.612433,0.846741,-0.562878,100337.52
73719,7.263,-14.723,-1.489,-0.676819,0.591860,0.076186,100337.09
73730,7.014,-13.232,-0.125,-0.461314,0.118815,0.854131,100336.94
73739,10.387,-5.459,3.583,-0.005296,-0.215350,1.444240,100337.30
73749,16.335,7.207,7.545,0.218190,-0.030708,1.027066,100337.30
73759,19.368,5.016,3.785,0.052172,0.188521,0.554021,100339.13
73769,20.023,-4.073,0.203,0.073456,-0.210561,1.217562,100338.30
73779,16.149,-6.587,0.593,0.324612,-0.620818,1.850772,100335.53
73789,11.996,-5.935,0.138,0.448594,-0.580378,1.994974,100337.41
73799,10.186,-6.540,-0.384,0.613548,-0.444158,2.031689,100337.41
73809,7.818,-7.989,2.203,0.681658,-0.404781,2.037011,100338.95
73820,7.023,-8.008,5.591,0.508722,-0.223332,2.053506,100338.73
73829,8.510,-6.358,6.582,0.245860,-0.150965,2.016790,100336.18
73839,8.020,-4.973,5.866,-0.089369,-0.292506,1.845983,100333.26
73849,6.031,-4.372,5.240,-0.443754,-0.348378,1.673580,100333.26
73860,5.426,-3.213,4.940,-0.626268,-0.297295,1.554387,100337.08
73869,6.724,-1.266,4.072,-0.522507,-0.289846,1.452754,100337.55
73879,8.629,-0.545,2.394,-0.113846,-0.407974,1.368149,100336.97
73889,10.060,-1.811,0.783,0.473603,-0.601130,1.353782,100334.72
73900,10.723,-3.991,-0.507,0.985492,-0.734689,1.372938,100334.72
73909,10.048,-6.348,-1.351,1.181309,-0.729368,1.388901,100338.67
73919,8.886,-7.811,-1.495,1.000391,-0.576121,1.391561,100336.84
73929,7.792,-7.559,-0.203,0.611951,-0.319112,1.328772,100334.50
73939,7.249,-6.084,1.554,0.217126,-0.060506,1.195213,100335.59
73949,7.188,-4.766,2.985,-0.030305,0.073585,1.054204,100335.59
73959,7.655,-4.403,3.493,-0.110654,0.081035,0.940332,100337.61
73969,8.387,-4.382,3.475,-0.111186,0.023567,0.851470,100336.25
73979,8.791,-4.177,3.385,-0.092562,-0.024855,0.791342,100337.67
73990,8.856,-3.799,3.192,-0.063296,-0.044543,0.765268,100336.20
74000,8.539,-3.657,2.744,-0.025339,-0.060506,0.757287,100336.20
74009,8.469,-3.930,2.121,0.009603,-0.077002,0.773250,100336.23
74019,8.708,-4.337,1.825,0.023970,-0.087644,0.802516,100336.55
74030,8.713,-4.510,1.978,-0.022856,-0.058378,0.818479,100336.66
74039,8.346,-4.719,2.121,-0.113314,-0.005699,0.825397,100333.98
74049,8.121,-5.038,1.863,-0.201112,0.036338,0.823800,100333.98
74059,8.093,-5.188,1.759,-0.266030,0.074117,0.801452,100339.94
74070,8.214,-5.017,2.010,-0.320837,0.115622,0.777507,100335.45
74080,8.231,-4.644,2.641,-0.360213,0.135310,0.765800,100333.31
74089,8.218,-4.313,3.062,-0.375644,0.134778,0.762608,100335.41
74099,8.235,-4.352,3.153,-0.378305,0.118282,0.766865,100335.41
74109,8.206,-4.737,2.881,-0.385222,0.093805,0.771654,100335.34
74120,8.069,-4.819,2.791,-0.407571,0.077310,0.774846,100337.84
74129,7.975,-4.521,2.787,-0.423002,0.066668,0.782828,100335.70
74139,7.965,-4.398,2.665,-0.393736,0.042191,0.801452,100334.25
74149,7.877,-4.532,2.550,-0.329351,-0.003039,0.827525,100334.25
74160,7.818,-4.843,2.476,-0.260177,-0.049864,0.852002,100339.49
74169,7.811,-5.056,2.444,-0.217608,-0.089240,0.870626,100335.79
74179,7.834,-5.216,2.501,-0.207498,-0.110525,0.882865,100332.98
74189,7.907,-5.485,2.410,-0.218672,-0.111589,0.885525,100333.54
74200,7.901,-5.803,2.172,-0.239956,-0.101479,0.878076,100333.54
74210,7.777,-5.906,1.987,-0.270287,-0.080727,0.864241,100336.09
74219,7.585,-5.819,1.984,-0.297424,-0.057846,0.842424,100333.55
74229,7.434,-5.743,2.054,-0.295828,-0.051993,0.826461,100335.69
74240,7.267,-5.812,2.010,-0.266030,-0.056250,0.815287,100334.53
74250,7.214,-6.077,1.868,-0.243681,-0.061039,0.806773,100334.53
74259,7.281,-6.307,1.820,-0.252195,-0.054121,0.794002,100337.94
74269,7.453,-6.329,1.875,-0.289443,-0.029112,0.786553,100336.00
74279,7.668,-6.249,1.909,-0.329351,-0.004635,0.781232,100336.22
74290,7.731,-6.311,1.943,-0.358617,0.012925,0.787085,100333.55
74299,7.714,-6.398,1.940,-0.381498,0.023567,0.794002,100333.55
74309,7.700,-6.472,1.904,-0.406507,0.035805,0.799855,100334.30
74319,7.682,-6.433,1.964,-0.435241,0.046980,0.811562,100334.73
74330,7.518,-6.447,2.190,-0.459718,0.048044,0.828589,100334.93
74340,7.380,-6.632,2.438,-0.490580,0.047512,0.845617,100334.99
74349,7.387,-6.899,2.723,-0.544855,0.055493,0.865837,100334.99
74355,7.440,-7.056,3.026,-0.589020,0.065071,0.884993,100336.54
74364,7.992,-7.003,2.774,-0.649149,0.067732,0.895635,100336.54
74375,8.503,-7.168,2.271,-0.747589,0.048044,0.916920,100335.09
74385,8.851,-6.930,2.090,-0.818360,0.023567,0.955231,100331.48
74394,9.085,-6.637,1.911,-0.837516,-0.013681,1.012167,100333.62
74404,9.240,-6.705,1.674,-0.820488,-0.077002,1.088259,100337.41
74415,9.253,-6.969,1.691,-0.808250,-0.138194,1.167011,100336.31
74425,9.191,-7.245,1.759,-0.832195,-0.181827,1.246828,100335.47
74434,9.207,-7.330,1.936,-0.889663,-0.211626,1.322387,100335.47
74444,9.377,-7.372,2.279,-0.967883,-0.235571,1.400607,100334.06
74455,9.779,-7.493,2.536,-1.057277,-0.249938,1.484149,100334.06
74465,10.400,-7.683,2.546,-1.163699,-0.253130,1.573011,100335.70
74474,11.364,-7.963,2.297,-1.285552,-0.251534,1.662405,100337.37
74484,12.594,-8.169,2.032,-1.431350,-0.249405,1.745414,100332.20
74494,13.853,-8.005,1.993,-1.595772,-0.237167,1.815653,100335.43
74505,15.037,-7.378,2.085,-1.773497,-0.206837,1.903983,100335.43
74515,16.055,-6.536,2.215,-1.928873,-0.179167,1.994442,100335.48
74524,16.790,-5.681,2.280,-2.025717,-0.185552,2.079047,100335.56
74534,17.002,-4.965,2.479,-2.077331,-0.207901,2.145029,100331.44
74545,16.303,-4.746,2.960,-2.063497,-0.245681,2.225377,100331.44
74555,14.438,-5.675,3.707,-1.902267,-0.333479,2.345102,100331.44
74564,12.306,-7.368,4.487,-1.603222,-0.439901,2.504735,100336.80
74574,11.419,-8.106,4.806,-1.333974,-0.492047,2.603175,100334.73
74585,10.919,-7.432,4.463,-1.200947,-0.470763,2.504735,100334.73
74590,9.978,-6.697,4.081,-1.177534,-0.413827,2.347231,100330.65
74599,8.802,-6.028,3.579,-1.182855,-0.329754,2.179616,100330.65
74609,7.118,-5.721,3.218,-1.212121,-0.206305,1.968368,100334.98
74619,5.322,-7.105,2.848,-1.211589,-0.155754,1.859286,100332.80
74630,4.267,-8.662,1.921,-1.122727,-0.292506,1.959855,100331.22
74640,4.409,-9.431,1.164,-0.827938,-0.496304,2.061488,100334.00
74649,3.756,-10.046,1.302,-0.438433,-0.638378,2.026901,100334.00
74659,3.012,-9.432,1.996,-0.129278,-0.605387,1.840130,100336.48
74670,2.677,-7.177,1.873,-0.021791,-0.434580,1.444240,100333.56
74680,1.722,-6.121,0.903,-0.154819,-0.179699,0.898296,100335.03
74690,1.746,-4.475,0.447,-0.428855,0.101255,0.393324,100332.20
74699,2.456,-1.888,-0.125,-0.666176,0.320484,-0.031832,100332.20
74710,3.506,-0.051,-0.701,-0.776855,0.429035,-0.351098,100334.27
74720,4.087,1.169,-0.788,-0.693314,0.385402,-0.609703,100333.44
74730,4.173,1.702,-0.779,-0.412892,0.272062,-0.831061,100332.08
74739,4.220,1.811,-0.599,0.003750,0.145952,-1.017832,100331.81
74749,4.184,1.159,-0.404,0.496483,0.026760,-1.195556,100331.81
74760,3.874,-0.077,-0.264,0.989217,-0.076470,-1.368492,100333.63
74770,3.558,-1.225,-0.197,1.411712,-0.149369,-1.545152,100331.64
74779,3.445,-2.068,-0.256,1.735767,-0.180763,-1.747354,100330.33
74789,3.475,-2.722,-0.220,1.947015,-0.174910,-1.986803,100329.66
74800,3.498,-3.418,-0.250,2.032152,-0.123295,-2.255519,100329.66
74810,3.607,-3.991,-0.181,1.994905,-0.024855,-2.523170,100334.15
74820,3.902,-4.400,-0.041,1.869327,0.104980,-2.779647,100334.57
74825,4.236,-4.597,0.064,1.742684,0.211934,-2.962161,100331.27
74834,4.719,-4.810,0.259,1.612850,0.317291,-3.138821,100331.27
74845,5.437,-5.154,0.451,1.460666,0.431695,-3.356986,100329.35
74855,6.085,-5.642,0.629,1.316997,0.510447,-3.548013,100329.35
74865,6.461,-6.213,0.658,1.151511,0.576429,-3.718821,100330.01
74874,6.635,-6.662,0.675,0.966868,0.665291,-3.875793,100330.49
74885,6.874,-6.897,0.697,0.784887,0.787144,-4.046068,100329.74
74895,7.237,-6.824,0.819,0.654520,0.923365,-4.228049,100329.74
74905,7.786,-6.765,0.855,0.637493,1.035107,-4.391407,100329.74
74914,8.482,-6.835,0.855,0.765199,1.089915,-4.500490,100331.02
74925,9.275,-7.220,0.890,1.012630,1.076612,-4.526031,100330.70
74935,9.863,-7.965,0.970,1.313804,0.998924,-4.488251,100332.64
74945,10.097,-8.947,1.140,1.563896,0.886649,-4.439297,100331.75
74954,10.105,-9.923,1.323,1.693198,0.786612,-4.412159,100331.75
74964,10.325,-10.908,1.570,1.710758,0.731805,-4.399921,100334.93
74975,10.326,-11.513,1.791,1.646373,0.730209,-4.387150,100332.74
74985,10.212,-11.847,1.791,1.553253,0.770649,-4.333407,100333.41
74995,10.151,-12.133,1.673,1.452685,0.838227,-4.231774,100333.41
75004,10.087,-12.368,1.711,1.326575,0.923897,-4.106729,100335.00
75015,10.113,-12.669,1.838,1.158428,1.012227,-3.959866,100333.91
75025,9.903,-12.838,2.007,0.926428,1.093640,-3.783738,100333.91
75035,9.498,-12.715,2.145,0.651859,1.181438,-3.566637,100336.16
75044,8.875,-12.397,1.969,0.402300,1.283071,-3.323463,100335.69
75055,8.651,-12.114,1.228,0.234685,1.398006,-3.106362,100335.69
75060,8.177,-11.986,0.902,0.175089,1.447493,-2.979188,100340.05
75070,7.684,-12.102,0.467,0.088887,1.480483,-2.781243,100338.02
75080,7.247,-12.537,0.279,-0.068085,1.481548,-2.435904,100335.62
75089,6.802,-12.845,-0.077,-0.310727,1.428869,-2.067684,100334.05
75100,6.512,-12.377,-0.711,-0.551241,1.327236,-1.674987,100334.05
75110,6.304,-12.169,-1.317,-0.637975,1.163346,-1.261006,100337.46
75120,5.973,-12.509,-1.750,-0.625204,0.941456,-0.795410,100338.87
75129,6.226,-11.867,-1.066,-0.597534,0.698814,-0.266493,100339.34
75140,7.397,-10.909,-1.327,-0.476745,0.440209,0.250186,100334.01
75150,8.025,-10.022,-1.655,-0.131406,-0.023791,0.827525,100334.01
75160,8.119,-9.363,-1.422,0.455511,-0.537809,1.397415,100340.49
75169,11.870,-1.503,1.799,1.037107,-0.850689,1.656552,100338.51
75180,15.879,7.041,5.817,1.215364,-0.659130,1.149451,100333.87
75190,18.096,3.022,4.259,1.142997,-0.411699,0.900956,100331.99
75200,17.686,-6.307,0.102,1.156832,-0.658066,1.507561,100331.99
75210,12.784,-10.419,-1.039,1.060520,-0.966689,2.016258,100340.23
75219,9.654,-8.979,-0.331,0.754557,-0.716066,2.112038,100338.35
75230,9.237,-8.065,1.478,0.585878,-0.336671,2.060956,100337.66
75240,8.347,-7.932,3.661,0.477860,-0.236635,2.038075,100336.46
75250,7.393,-6.933,4.915,0.246924,-0.195130,2.014662,100336.46
75259,6.383,-4.974,5.812,-0.060635,-0.196727,1.872589,100339.19
75270,5.314,-4.149,5.812,-0.326158,-0.215350,1.668791,100337.11
75280,5.894,-5.166,4.101,-0.524635,-0.197791,1.500644,100336.89
75290,7.637,-5.988,2.022,-0.725773,-0.163204,1.377727,100335.86
75295,9.061,-5.648,0.878,-0.839112,-0.109461,1.310681,100335.86
75304,10.236,-4.639,0.194,-0.840176,-0.041883,1.276094,100335.86
75315,10.624,-3.487,-0.175,-0.651277,-0.009956,1.256406,100338.62
75325,10.002,-3.011,0.084,-0.327222,-0.031240,1.267580,100336.70
75335,9.186,-3.334,1.177,-0.008489,-0.078598,1.284075,100336.74
75345,8.154,-4.234,2.619,0.182539,-0.133938,1.264919,100336.35
75355,7.460,-5.151,3.619,0.201695,-0.147772,1.202130,100338.85
75365,7.235,-5.775,4.010,0.074520,-0.138194,1.097305,100338.01
75375,7.441,-5.834,3.878,-0.133002,-0.111057,0.977048,100338.01
75385,7.893,-5.188,3.531,-0.314452,-0.065295,0.861048,100336.82
75395,8.339,-4.364,3.050,-0.373516,-0.039754,0.785488,100336.55
75405,8.611,-4.033,2.561,-0.314984,-0.050396,0.748773,100336.55
75415,8.723,-4.300,2.221,-0.225057,-0.071681,0.735470,100339.48
75425,8.624,-4.668,2.263,-0.184085,-0.081791,0.734406,100336.63
75436,8.366,-4.638,2.668,-0.202709,-0.074873,0.732277,100336.94
75445,8.083,-4.639,2.985,-0.249002,-0.059974,0.721103,100334.48
75455,7.907,-4.798,2.910,-0.291039,-0.059974,0.710461,100336.04
75465,7.887,-4.690,2.773,-0.324030,-0.063167,0.702479,100336.84
75475,7.968,-4.358,2.874,-0.337865,-0.057314,0.696094,100335.48
75485,8.174,-4.364,2.889,-0.313388,-0.068488,0.697158,100335.05
75495,8.157,-4.384,2.993,-0.270287,-0.099883,0.698222,100335.05
75505,7.822,-4.444,3.029,-0.215479,-0.124360,0.692369,100335.05
75515,7.466,-4.590,2.971,-0.161204,-0.148837,0.686516,100338.87
75525,7.266,-4.767,2.816,-0.105333,-0.172249,0.675874,100337.66
75535,7.291,-4.941,2.625,-0.048397,-0.197791,0.663103,100339.70
75545,7.412,-5.106,2.409,-0.004232,-0.215350,0.656718,100334.43
75555,7.502,-5.406,2.143,0.008007,-0.216947,0.650865,100334.43
75566,7.745,-5.816,1.747,-0.021259,-0.203644,0.647140,100337.90
75575,8.008,-5.872,1.699,-0.083516,-0.172782,0.640755,100337.77
75585,8.062,-5.429,1.935,-0.139920,-0.137662,0.640222,100335.24
75595,7.941,-4.957,2.169,-0.140452,-0.130745,0.656718,100335.24
75606,7.849,-4.876,2.322,-0.089369,-0.159479,0.687048,100335.70
75615,7.866,-5.257,2.461,-0.030305,-0.202580,0.720039,100335.70
75625,7.987,-5.913,2.439,-0.020195,-0.222268,0.737066,100334.76
75635,7.903,-6.412,2.230,-0.087773,-0.203644,0.729617,100335.34
75645,7.668,-6.328,2.080,-0.188874,-0.174378,0.717910,100334.34
75655,7.492,-5.986,2.192,-0.279865,-0.138727,0.712057,100334.34
75665,7.591,-5.768,2.358,-0.341589,-0.106268,0.717910,100338.34
75675,7.847,-5.660,2.441,-0.375644,-0.094561,0.740259,100334.21
75685,7.977,-5.698,2.566,-0.396397,-0.093497,0.771121,100335.04
75696,7.963,-5.902,2.555,-0.428323,-0.087112,0.806241,100334.58
75705,7.958,-6.096,2.495,-0.488452,-0.070617,0.839764,100336.83
75715,8.026,-6.220,2.370,-0.564543,-0.056782,0.872222,100334.42
75725,8.008,-6.165,2.452,-0.633718,-0.051461,0.905745,100334.42
75735,7.864,-6.076,2.576,-0.674158,-0.055185,0.945653,100336.52
75745,7.832,-6.237,2.568,-0.683736,-0.068488,0.988754,100336.67
75755,7.879,-6.763,2.469,-0.690121,-0.086580,1.034516,100336.67
75765,8.441,-6.963,2.263,-0.720984,-0.091901,1.070699,100335.94
75776,8.901,-7.151,1.827,-0.791754,-0.103075,1.087727,100335.42
75785,9.162,-6.959,1.745,-0.840176,-0.126488,1.128699,100334.53
75795,9.360,-6.692,1.732,-0.843369,-0.163736,1.178717,100332.55
75805,9.356,-6.685,1.582,-0.817296,-0.216947,1.247360,100332.55
75815,9.352,-6.866,1.431,-0.796011,-0.279204,1.319727,100335.45
75826,9.399,-6.916,1.442,-0.802396,-0.333479,1.391029,100334.45
75835,9.506,-6.973,1.589,-0.820488,-0.389882,1.467121,100334.14
75845,9.726,-7.142,1.817,-0.843901,-0.444158,1.541084,100334.14
75855,10.035,-7.423,2.002,-0.885938,-0.485662,1.612387,100334.14
75866,10.448,-7.840,2.015,-0.963094,-0.510139,1.679965,100339.20
75875,11.108,-8.227,1.867,-1.089204,-0.518121,1.734240,100337.17
75885,12.019,-8.270,1.833,-1.260543,-0.508543,1.761910,100332.63
75895,13.252,-7.828,2.177,-1.434011,-0.504286,1.802350,100331.64
75906,14.608,-7.094,2.859,-1.586194,-0.501093,1.851304,100331.64
75915,15.629,-6.509,3.568,-1.704323,-0.481405,1.921543,100338.29
75925,15.942,-5.907,3.957,-1.843203,-0.411167,1.994442,100334.51
75935,15.298,-5.338,3.980,-1.986873,-0.303148,2.069469,100335.68
75945,13.752,-5.290,3.852,-2.016139,-0.241956,2.168974,100335.68
75956,11.919,-6.178,4.182,-1.859699,-0.252066,2.317432,100333.89
75965,11.051,-7.677,4.953,-1.606414,-0.304745,2.487175,100333.89
75975,11.624,-8.318,5.259,-1.422836,-0.363809,2.568056,100330.56
75985,11.906,-7.616,4.809,-1.382396,-0.380304,2.501010,100333.02
75995,10.811,-6.574,3.759,-1.413791,-0.334543,2.353084,100335.63
76005,9.076,-5.702,2.811,-1.444653,-0.257919,2.154075,100335.63
76015,7.058,-6.146,2.176,-1.419112,-0.208433,1.943891,100334.78
76025,4.902,-7.634,2.024,-1.266928,-0.255791,1.895469,100335.72
76036,4.485,-7.839,1.608,-1.051424,-0.302616,1.944956,100332.89
76046,4.263,-7.902,1.842,-0.833259,-0.282396,1.873653,100334.57
76055,3.629,-7.914,2.282,-0.606048,-0.182892,1.741158,100333.46
76065,3.924,-6.435,1.321,-0.480470,-0.033369,1.429873,100335.24
76076,3.122,-6.102,-0.208,-0.529424,0.077310,0.964809,100333.73
76085,3.011,-4.787,-0.493,-0.642764,0.167237,0.581690,100333.73
76095,3.529,-1.981,-0.185,-0.692782,0.280044,0.215067,100334.04
76105,3.961,0.104,0.048,-0.591681,0.385934,-0.138254,100334.04
76115,4.558,1.404,0.117,-0.308066,0.395512,-0.414419,100336.40
76125,4.720,1.991,0.275,0.134117,0.290154,-0.630988,100334.52
76135,4.624,1.955,0.392,0.665694,0.143292,-0.806052,100334.48
76145,4.485,1.099,0.265,1.196740,0.013457,-0.980584,100330.71
76155,4.267,-0.265,0.305,1.643712,-0.077002,-1.177997,100330.71
76166,4.078,-1.651,0.418,1.966703,-0.113717,-1.409996,100330.73
76175,4.100,-2.849,0.305,2.159327,-0.110525,-1.668070,100327.46
76185,4.148,-3.835,0.124,2.224776,-0.075406,-1.950088,100329.40
76195,4.167,-4.625,-0.077,2.163584,0.000686,-2.249134,100329.40
76206,4.326,-5.038,-0.233,1.990116,0.116154,-2.557757,100329.40
76215,4.714,-5.039,-0.213,1.749070,0.256631,-2.858931,100330.32
76225,5.205,-4.928,0.045,1.503235,0.410411,-3.138821,100330.26
76236,5.915,-4.767,0.286,1.299614,0.547518,-3.407359,100328.43
76246,6.395,-4.832,0.442,1.182905,0.625383,-3.608142,100328.43
76255,6.664,-5.221,0.442,1.080208,0.694025,-3.801298,100328.43
76265,6.712,-5.745,0.455,0.976446,0.780227,-3.960931,100331.23
76275,6.858,-6.116,0.536,0.876942,0.902612,-4.099811,100330.96
76285,7.251,-6.162,0.731,0.828520,1.034575,-4.241884,100329.71
76296,7.899,-6.073,0.971,0.890777,1.140465,-4.393536,100329.71
76306,8.661,-6.275,1.003,1.089786,1.201658,-4.544123,100332.23
76315,9.565,-6.940,0.859,1.375529,1.204318,-4.653205,100332.23
76325,10.245,-7.954,0.667,1.650097,1.162282,-4.693645,100330.63
76336,10.630,-9.150,0.636,1.794299,1.103750,-4.681407,100330.94
76345,10.729,-10.299,0.836,1.747473,1.039364,-4.667040,100330.05
76355,10.746,-11.139,0.950,1.559639,0.991475,-4.669701,100330.05
76365,10.901,-11.621,0.935,1.349988,0.982429,-4.671829,100332.22
76376,11.042,-11.834,0.915,1.205254,1.013291,-4.640966,100330.86
76386,11.193,-12.043,0.975,1.171731,1.056924,-4.537737,100331.13
76395,11.236,-12.559,1.105,1.222281,1.068630,-4.360013,100331.69
76405,10.929,-13.264,1.125,1.265382,1.034575,-4.124288,100335.34
76416,10.140,-13.571,1.122,1.211107,0.978172,-3.835353,100336.32
76426,9.129,-13.519,1.284,1.083400,0.931878,-3.495867,100335.38
76435,8.174,-13.402,1.305,0.969529,0.921236,-3.130307,100335.38
76445,7.956,-13.861,0.592,0.917914,0.939860,-2.824876,100333.04
76455,7.106,-14.553,0.039,0.931217,0.898355,-2.624271,100333.04
76466,5.954,-15.141,-0.122,0.860979,0.836631,-2.286913,100335.65
76475,4.856,-15.978,0.098,0.708795,0.740851,-1.867611,100335.65
76485,4.017,-16.450,-0.161,0.464557,0.679126,-1.408932,100337.01
76495,4.045,-16.802,-0.858,0.259163,0.689768,-0.933758,100334.96
76506,4.740,-17.040,-2.770,0.142098,0.566319,-0.339924,100334.96
76516,5.183,-16.112,-3.839,0.149016,0.224704,0.380553,100337.11
76525,5.831,-15.072,-4.175,0.365052,-0.302616,1.156901,100336.36
76535,10.719,-6.025,-0.147,0.746043,-0.714469,1.664002,100334.31
76546,17.343,9.809,7.696,0.800318,-0.395203,0.996204,100334.31
76556,20.779,3.261,4.087,0.503401,0.167237,0.472076,100334.31
76565,19.906,-9.997,-0.351,0.473071,-0.219075,1.412314,100339.72
76575,12.814,-11.753,0.020,0.357603,-0.612304,1.981671,100339.00
76585,8.705,-7.518,2.010,0.033016,-0.185552,1.910368,100336.44
76591,7.794,-6.943,3.447,0.131456,0.103383,1.815121,100335.81
76600,7.871,-7.713,4.193,0.476263,-0.008360,1.892809,100335.81
76610,8.772,-7.244,4.323,0.708795,-0.239295,1.983800,100337.15
76620,8.485,-5.266,4.890,0.530006,-0.332415,1.853965,100336.46
76631,6.739,-4.954,5.071,0.152741,-0.342525,1.671451,100335.57
76641,5.857,-6.210,3.815,-0.284654,-0.263240,1.519800,100333.65
76650,6.974,-5.866,2.298,-0.710342,-0.101479,1.397415,100333.65
76660,8.773,-3.386,1.728,-0.877424,0.011328,1.304828,100334.95
76670,9.839,-1.795,1.699,-0.652342,-0.018470,1.273433,100338.38
76681,10.042,-2.359,1.326,-0.206966,-0.152029,1.300039,100337.87
76690,9.633,-3.814,1.176,0.174025,-0.254726,1.323984,100336.40
76700,9.008,-4.966,1.577,0.310777,-0.251534,1.302699,100336.40
76710,8.266,-5.302,2.390,0.181474,-0.183424,1.239378,100337.51
76721,7.582,-5.196,3.118,-0.060635,-0.090305,1.147855,100337.15
76731,7.428,-4.869,3.445,-0.254323,-0.021662,1.052608,100334.43
76740,7.776,-4.543,3.409,-0.338397,0.000686,0.967470,100335.37
76750,8.253,-4.336,3.103,-0.354360,-0.009424,0.906277,100335.37
76761,8.497,-4.306,2.821,-0.344250,-0.022727,0.863176,100335.91
76771,8.522,-4.325,2.668,-0.346911,-0.013681,0.837103,100337.16
76780,8.480,-4.210,2.711,-0.371388,0.011860,0.819543,100335.45
76790,8.468,-4.099,2.805,-0.400654,0.033145,0.804644,100336.96
76801,8.408,-3.857,3.087,-0.408635,0.028888,0.803048,100336.96
76811,8.345,-3.789,3.276,-0.386287,0.010264,0.809965,100336.68
76821,8.198,-4.149,3.143,-0.345846,-0.016873,0.821672,100337.46
76830,8.038,-4.525,2.908,-0.307534,-0.048800,0.825397,100337.62
76840,7.832,-4.590,2.858,-0.281461,-0.065828,0.817947,100336.63
76851,7.683,-4.422,2.863,-0.255920,-0.073809,0.804112,100336.63
76861,7.678,-4.237,2.943,-0.220800,-0.083387,0.795066,100338.24
76870,7.764,-4.061,3.269,-0.165461,-0.109993,0.793470,100335.74
76880,7.731,-4.202,3.443,-0.087241,-0.146176,0.797727,100332.82
76891,7.624,-4.669,3.017,-0.009553,-0.184488,0.801984,100336.21
76901,7.554,-5.408,2.397,0.019181,-0.207369,0.801984,100336.21
76910,7.788,-5.824,2.036,-0.019663,-0.195662,0.789745,100335.36
76920,7.968,-5.558,2.101,-0.099479,-0.154158,0.774846,100336.30
76931,8.036,-5.200,2.131,-0.138323,-0.129681,0.779635,100336.77
76941,8.028,-5.108,2.103,-0.124489,-0.132341,0.797727,100337.70
76950,7.934,-5.312,2.145,-0.102140,-0.140323,0.819011,100337.70
76960,7.826,-5.895,2.140,-0.105865,-0.137662,0.834442,100336.21
76971,7.780,-6.584,1.915,-0.174507,-0.113717,0.826993,100336.68
76981,7.807,-6.657,1.999,-0.316580,-0.037626,0.790277,100333.55
76991,7.808,-6.079,2.298,-0.433644,0.025163,0.758883,100336.88
77000,7.725,-5.574,2.439,-0.448011,0.033145,0.746644,100336.88
77010,7.648,-5.605,2.452,-0.399057,0.011328,0.748773,100334.80
77021,7.545,-5.967,2.532,-0.362874,-0.007295,0.754626,100335.58
77031,7.447,-6.405,2.437,-0.390543,0.007604,0.755158,100334.27
77040,7.461,-6.591,2.329,-0.488984,0.051237,0.753030,100335.67
77050,7.591,-6.389,2.382,-0.612965,0.099659,0.754626,100335.67
77061,7.932,-5.868,2.550,-0.711760,0.125732,0.771831,100336.73
77071,8.132,-5.512,2.784,-0.727901,0.105512,0.809433,100333.96
77081,8.123,-5.550,2.942,-0.691186,0.056026,0.869030,100334.23
77090,7.940,-6.108,2.890,-0.650213,0.002815,0.925965,100333.07
77101,7.879,-6.763,2.702,-0.667773,-0.028580,0.966406,100333.07
77111,8.279,-7.016,2.561,-0.756635,-0.044011,0.986626,100335.83
77121,8.504,-7.026,2.489,-0.854011,-0.061039,1.009507,100334.69
77130,8.746,-6.732,2.318,-0.913607,-0.079130,1.044094,100334.47
77140,9.040,-6.534,2.058,-0.940745,-0.113717,1.095708,100333.89
77151,9.305,-6.522,1.788,-0.939681,-0.170653,1.164883,100333.89
77161,9.331,-6.614,1.544,-0.925846,-0.233442,1.243103,100337.21
77170,9.257,-6.754,1.437,-0.926910,-0.292506,1.327176,100332.04
77180,9.334,-7.019,1.447,-0.955112,-0.340928,1.404332,100333.65
77191,9.495,-7.236,1.617,-1.006727,-0.380304,1.479360,100334.34
77201,9.693,-7.414,1.867,-1.080690,-0.403185,1.551194,100334.34
77211,10.023,-7.498,2.036,-1.184983,-0.416488,1.621965,100337.87
77220,10.579,-7.787,2.058,-1.302047,-0.431387,1.692203,100334.43
77231,11.470,-8.279,1.965,-1.432947,-0.431387,1.736901,100333.45
77241,12.824,-8.550,1.969,-1.615992,-0.405846,1.759781,100334.90
77251,14.486,-7.883,2.359,-1.883644,-0.347846,1.808203,100334.90
77260,16.221,-6.542,3.020,-2.136928,-0.312726,1.874717,100334.71
77271,17.802,-4.749,3.898,-2.262506,-0.338268,1.961983,100333.41
77281,18.406,-3.256,4.455,-2.210359,-0.432983,2.070001,100332.21
77291,17.020,-2.471,4.336,-1.958139,-0.608579,2.196644,100332.68
77296,14.970,-2.902,4.005,-1.656433,-0.756506,2.302533,100332.68
77305,12.463,-4.489,3.953,-1.272249,-0.903368,2.435561,100332.68
77316,10.057,-7.353,4.494,-0.768341,-1.039588,2.637230,100337.49
77326,9.818,-9.222,4.443,-0.421938,-1.091735,2.760148,100333.99
77336,9.803,-9.486,4.004,-0.345846,-1.044909,2.685652,100333.52
77346,9.237,-8.509,3.544,-0.514525,-0.852286,2.481322,100331.89
77356,8.371,-6.603,2.947,-0.803461,-0.589956,2.204625,100333.56
77366,6.194,-6.693,2.684,-1.064194,-0.417552,1.928992,100334.19
77376,4.267,-7.990,2.376,-1.193497,-0.382433,1.857157,100334.19
77385,4.437,-7.993,1.879,-1.175405,-0.374451,1.884295,100335.03
77395,4.938,-8.230,1.544,-1.036525,-0.352103,1.793304,100333.56
77406,4.046,-8.564,1.821,-0.870507,-0.284525,1.633139,100333.56
77416,3.307,-7.201,1.803,-0.765681,-0.128616,1.377195,100335.42
77426,2.338,-5.683,1.012,-0.769938,0.085292,0.962149,100333.59
77436,1.955,-5.086,0.517,-0.843369,0.298668,0.536993,100336.61
77446,2.714,-3.298,0.754,-0.907754,0.491823,0.161324,100334.63
77456,3.620,-1.141,0.616,-0.897644,0.630172,-0.189869,100333.45
77466,4.250,0.603,0.465,-0.743332,0.661566,-0.510731,100334.19
77476,4.652,2.194,0.354,-0.426195,0.584943,-0.762951,100331.98
77486,4.713,2.948,0.283,0.061218,0.441273,-0.965685,100331.52
77496,4.686,2.441,0.129,0.668887,0.273126,-1.130107,100331.52
77506,4.793,1.077,-0.021,1.274428,0.106576,-1.282822,100331.52
77516,4.816,-0.689,-0.145,1.756519,-0.036561,-1.456822,100333.34
77526,4.637,-2.398,-0.264,2.063547,-0.127020,-1.662216,100330.68
77532,4.471,-3.429,-0.276,2.181143,-0.150965,-1.839409,100327.87
77541,4.429,-4.231,-0.256,2.191785,-0.130745,-2.053317,100328.07
77551,4.478,-4.948,-0.196,2.092813,-0.059442,-2.362473,100328.07
77561,4.671,-5.270,-0.075,1.903382,0.053365,-2.671097,100330.99
77571,5.036,-5.236,0.121,1.679896,0.173090,-2.954711,100330.46
77581,5.472,-5.131,0.326,1.475033,0.278980,-3.208527,100328.48
77591,5.839,-5.199,0.665,1.320189,0.350814,-3.429353,100331.62
77600,6.060,-5.509,0.883,1.214299,0.397108,-3.612399,100331.62
77611,6.311,-5.877,0.979,1.141400,0.448190,-3.776289,100327.75
77621,6.581,-6.182,1.017,1.077547,0.530668,-3.941242,100329.83
77631,7.012,-6.196,1.133,1.037107,0.639218,-4.106196,100329.58
77641,7.636,-6.070,1.286,1.072758,0.738190,-4.262105,100325.34
77650,8.334,-6.161,1.248,1.215364,0.794594,-4.389811,100325.34
77661,9.025,-6.691,1.128,1.443107,0.795658,-4.467499,100329.65
77671,9.666,-7.797,0.997,1.682024,0.753089,-4.499425,100328.07
77681,10.103,-9.249,0.913,1.832079,0.690300,-4.506343,100328.91
77690,10.333,-10.646,0.994,1.828354,0.644539,-4.514325,100328.18
77701,10.284,-11.632,1.260,1.707565,0.641878,-4.530288,100328.18
77711,9.951,-12.049,1.436,1.569749,0.686044,-4.537205,100333.32
77721,9.882,-12.379,1.536,1.495786,0.757878,-4.483994,100331.34
77731,9.894,-12.678,1.589,1.492593,0.804172,-4.360013,100331.12
77741,9.862,-13.146,1.572,1.494721,0.816943,-4.190802,100331.23
77751,9.614,-13.663,1.447,1.431400,0.830245,-4.009353,100331.23
77761,9.215,-14.017,1.395,1.257933,0.878135,-3.830032,100334.08
77771,8.649,-13.815,1.554,0.988685,0.951566,-3.623041,100331.20
77780,8.158,-13.132,1.833,0.727419,1.039896,-3.371353,100333.70
77791,7.988,-12.306,1.948,0.569915,1.119713,-3.093592,100334.70
77801,7.931,-12.165,1.486,0.558740,1.175584,-2.834454,100334.70
77811,7.361,-12.664,0.939,0.660905,1.155896,-2.629060,100339.16
77820,6.705,-13.488,0.320,0.655052,1.119181,-2.332143,100334.88
77831,6.214,-14.350,0.092,0.457107,1.086190,-1.998510,100336.40
77841,5.837,-14.593,-0.670,0.137309,1.023933,-1.621244,100335.77
77851,5.653,-14.336,-1.460,-0.054250,0.897823,-1.207795,100335.77
77861,5.669,-14.312,-2.287,0.002686,0.647200,-0.718786,100337.51
77871,5.807,-14.230,-2.704,0.226704,0.283769,-0.092493,100339.23
77881,6.034,-14.521,-2.853,0.535860,-0.163736,0.647672,100338.60
77891,7.042,-13.824,-2.048,0.943456,-0.660726,1.429873,100336.26
77901,13.527,-1.698,2.416,1.229731,-0.847497,1.655488,100336.26
77911,17.419,6.951,6.030,0.930153,-0.373387,0.829654,100336.20
77921,18.797,-2.852,1.733,0.551823,-0.030176,0.870094,100334.21
77931,16.258,-10.184,-0.869,0.426245,-0.398396,1.673580,100335.77
77941,10.192,-8.217,0.363,0.104851,-0.459057,1.857157,100336.51
77950,7.577,-5.478,3.118,-0.044140,0.000154,1.736901,100336.51
77961,7.862,-6.591,5.213,0.347493,0.074649,1.740093,100336.63
77971,8.875,-7.104,5.967,0.712520,-0.180231,1.886956,100336.95
77981,9.523,-5.437,5.452,0.704538,-0.388286,1.880570,100336.41
77991,7.582,-4.631,5.111,0.427309,-0.520249,1.716681,100335.43
78001,5.743,-5.649,3.806,0.033548,-0.477148,1.562369,100335.43
78011,6.398,-6.125,1.533,-0.436305,-0.266433,1.457543,100336.77
78021,8.436,-4.878,0.027,-0.776323,-0.066892,1.368681,100337.98
78031,10.005,-3.276,-0.216,-0.771002,0.019842,1.337818,100336.88
78041,10.528,-2.716,0.098,-0.484727,-0.000378,1.377195,100335.68
78051,9.988,-2.904,0.860,-0.133534,-0.053057,1.438387,100335.68
78061,8.916,-3.408,1.830,0.128264,-0.084451,1.458075,100334.81
78071,7.914,-4.378,2.822,0.229364,-0.104139,1.407525,100339.14
78082,7.352,-5.597,3.441,0.117089,-0.088176,1.311745,100337.33
78091,7.355,-6.371,3.320,-0.177167,-0.014213,1.179250,100337.22
78101,7.862,-5.910,2.828,-0.485259,0.089549,1.047819,100337.22
78111,8.605,-4.283,2.813,-0.632653,0.146484,0.971727,100339.21
78121,9.097,-2.813,3.220,-0.540066,0.093805,0.954167,100338.95
78131,9.122,-2.667,3.391,-0.281993,-0.040818,0.977048,100333.93
78141,8.783,-3.508,3.320,-0.052122,-0.167993,0.998864,100334.73
78151,8.311,-4.774,2.929,0.022906,-0.211093,0.986626,100334.73
78161,7.950,-5.762,2.292,-0.063828,-0.181827,0.949378,100336.09
78171,7.795,-5.744,2.153,-0.248470,-0.102011,0.900956,100337.67
78181,7.949,-5.038,2.322,-0.415553,-0.014745,0.862644,100338.61
78191,8.224,-4.297,2.614,-0.471956,0.021971,0.854663,100335.27
78201,8.345,-3.952,2.943,-0.412360,-0.000378,0.865837,100335.27
78212,8.163,-4.100,3.210,-0.284122,-0.065295,0.878076,100339.67
78221,7.792,-4.583,3.193,-0.156947,-0.128084,0.871690,100336.91
78231,7.398,-5.076,3.123,-0.097883,-0.162672,0.845085,100335.45
78237,7.188,-5.256,2.983,-0.095223,-0.167993,0.816883,100335.23
78246,7.156,-5.266,2.821,-0.109590,-0.163204,0.795599,100335.23
78256,7.276,-5.300,2.491,-0.121296,-0.153626,0.769525,100335.23
78266,7.419,-5.539,2.104,-0.137259,-0.140323,0.756222,100335.73
78276,7.703,-5.816,1.685,-0.166525,-0.119038,0.746112,100338.77
78286,8.036,-5.756,1.556,-0.210158,-0.092965,0.743452,100334.80
78297,8.154,-5.522,1.767,-0.239956,-0.072213,0.748241,100334.80
78307,8.055,-5.364,2.050,-0.238892,-0.063699,0.760479,100336.36
78316,7.964,-5.360,2.271,-0.220800,-0.069552,0.774846,100336.36
78326,7.885,-5.463,2.477,-0.208030,-0.081259,0.787085,100339.14
78337,7.659,-5.701,2.586,-0.206434,-0.091369,0.791874,100336.94
78346,7.437,-6.013,2.456,-0.221865,-0.089772,0.789213,100334.17
78356,7.425,-6.224,2.258,-0.254323,-0.076470,0.776443,100334.17
78366,7.495,-6.296,2.127,-0.299553,-0.058378,0.763672,100335.94
78376,7.600,-6.291,2.094,-0.347443,-0.035497,0.756222,100337.61
78387,7.780,-6.246,2.146,-0.397461,-0.012617,0.757819,100336.05
78396,7.984,-6.256,2.106,-0.448011,0.006539,0.768461,100333.53
78406,8.042,-6.254,2.288,-0.500158,0.016649,0.790810,100336.19
78416,7.937,-6.231,2.432,-0.545387,0.022503,0.826993,100334.31
78427,8.061,-6.194,2.464,-0.582635,0.021438,0.865305,100335.72
78436,8.374,-6.362,2.149,-0.628397,0.006539,0.904681,100335.72
78446,8.600,-6.479,1.864,-0.672030,-0.016873,0.950975,100334.88
78456,8.686,-6.477,1.682,-0.702892,-0.041350,1.002057,100334.88
78467,8.771,-6.565,1.436,-0.721516,-0.072745,1.054736,100338.13
78476,8.879,-6.751,1.254,-0.736415,-0.113717,1.108479,100336.19
78486,8.957,-6.864,1.297,-0.753974,-0.162672,1.156369,100334.31
78496,9.172,-6.846,1.545,-0.768874,-0.215350,1.208516,100333.02
78507,9.286,-6.904,1.821,-0.777387,-0.269626,1.261195,100333.02
78517,9.356,-6.975,1.880,-0.793883,-0.324965,1.316534,100336.64
78526,9.364,-7.196,1.784,-0.821020,-0.372323,1.368149,100336.31
78536,9.419,-7.477,1.448,-0.878488,-0.410635,1.421892,100333.59
78546,9.420,-7.813,1.214,-0.980121,-0.432983,1.463396,100333.59
78556,9.484,-8.208,0.982,-1.146672,-0.418084,1.495855,100333.59
78566,9.818,-8.543,0.807,-1.386653,-0.358488,1.516607,100335.98
78576,10.479,-8.591,0.536,-1.676653,-0.276011,1.526185,100337.76
78586,11.479,-8.113,0.364,-2.001772,-0.195130,1.525121,100336.55
78597,12.946,-7.446,0.532,-2.290175,-0.169057,1.516075,100334.04
78606,14.801,-6.390,1.422,-2.460450,-0.228653,1.510222,100334.04
78616,16.557,-4.594,3.327,-2.534946,-0.325497,1.546937,100339.87
78626,17.608,-2.037,5.324,-2.500359,-0.431919,1.658148,100334.60
78637,18.033,0.222,6.644,-2.194396,-0.692121,1.877378,100333.27
78647,17.762,-0.306,6.785,-1.548414,-1.139093,2.191854,100333.27
78656,16.091,-3.338,6.409,-0.688525,-1.684505,2.552625,100338.05
78666,13.546,-7.437,6.261,0.138906,-2.141587,2.926166,100338.05
78676,12.174,-8.992,5.830,0.733272,-2.406046,3.161359,100336.27
78687,10.194,-9.168,5.990,0.990813,-2.370927,3.110808,100333.82
78696,8.605,-8.961,5.234,0.958355,-2.120303,2.952239,100333.41
78706,7.176,-8.761,3.520,0.734336,-1.877129,2.780900,100333.41
78716,5.365,-10.638,1.076,0.388465,-1.722817,2.629781,100334.36
78727,4.107,-12.086,0.019,0.000025,-1.664817,2.543579,100337.13
78737,4.475,-10.544,-0.473,-0.276140,-1.533386,2.323818,100337.08
78746,3.996,-10.010,0.368,-0.504415,-1.296065,1.961983,100331.69
78756,3.251,-8.297,1.887,-0.736415,-0.906561,1.638460,100335.64
78767,2.576,-5.629,2.426,-1.030139,-0.397864,1.165947,100336.53
78777,1.761,-4.537,2.350,-1.339295,0.060282,0.684920,100333.34
78786,2.489,-2.536,1.961,-1.540433,0.344961,0.336920,100333.34
78796,3.462,-0.108,1.832,-1.607478,0.489695,0.016590,100334.61
78807,3.917,1.333,1.735,-1.510635,0.556741,-0.312786,100334.61
78817,4.172,1.755,1.331,-1.243515,0.544502,-0.602786,100334.59
78826,4.230,1.609,0.956,-0.824213,0.483842,-0.818290,100334.03
78836,4.188,0.900,0.560,-0.319241,0.433291,-0.994951,100330.80
78846,4.149,-0.221,0.119,0.189988,0.408814,-1.174804,100330.80
78857,4.011,-1.313,-0.335,0.632171,0.408814,-1.387116,100330.80
78867,3.838,-2.183,-0.773,0.955162,0.436484,-1.634547,100332.82
78876,3.771,-2.807,-1.068,1.144593,0.495548,-1.903794,100331.26
78886,3.876,-3.321,-1.131,1.220153,0.587071,-2.185280,100329.70
78897,4.284,-3.417,-0.982,1.218556,0.695622,-2.455592,100329.70
78906,4.894,-3.353,-0.610,1.200997,0.804704,-2.711537,100329.70
78916,5.402,-3.459,-0.189,1.230795,0.876007,-2.937684,100332.13
78926,5.717,-3.896,0.187,1.318061,0.889842,-3.122326,100330.82
78937,5.832,-4.669,0.459,1.414905,0.881328,-3.292601,100331.55
78942,5.749,-5.428,0.540,1.460666,0.890906,-3.427224,100332.80
78951,5.730,-6.105,0.592,1.460134,0.945181,-3.567702,100332.80
78961,5.936,-6.729,0.566,1.404795,1.067566,-3.759261,100332.24
78971,6.397,-6.931,0.534,1.315933,1.215493,-3.958802,100330.62
78982,6.921,-6.969,0.430,1.249951,1.347988,-4.156215,100330.51
78992,7.471,-7.152,0.349,1.241969,1.441107,-4.321701,100329.84
79001,8.080,-7.482,0.372,1.286134,1.495915,-4.440361,100329.84
79011,8.752,-7.996,0.417,1.344666,1.516135,-4.529223,100332.30
79022,9.349,-8.673,0.490,1.371272,1.507621,-4.591480,100332.66
79032,9.927,-9.411,0.491,1.346263,1.483144,-4.639370,100330.31
79041,10.368,-10.062,0.454,1.294648,1.452282,-4.669701,100332.34
79051,10.649,-10.610,0.309,1.246758,1.436850,-4.677150,100332.34
79062,10.618,-10.951,0.245,1.210043,1.445896,-4.670233,100336.00
79072,10.818,-11.512,0.203,1.175455,1.467181,-4.630324,100332.81
79081,10.849,-12.231,0.300,1.108410,1.484208,-4.553700,100334.08
79091,10.831,-12.941,0.309,0.982300,1.478887,-4.443022,100334.13
79101,10.764,-13.460,0.131,0.812557,1.457603,-4.306802,100334.13
79112,10.387,-13.586,-0.003,0.619401,1.430997,-4.138123,100338.98
79122,9.756,-13.010,0.193,0.429970,1.413438,-3.928472,100336.79
79131,9.146,-11.750,0.669,0.307052,1.407052,-3.648582,100337.51
79141,8.874,-10.592,0.733,0.296942,1.404392,-3.313885,100337.30
79152,8.893,-10.604,0.077,0.437951,1.384704,-3.031867,100337.30
79162,8.329,-11.887,-1.052,0.660905,1.301162,-2.812638,100340.76
79171,7.395,-13.721,-1.947,0.710392,1.191016,-2.472088,100339.66
79177,6.693,-14.825,-2.598,0.595456,1.080337,-2.163996,100337.48
79186,6.165,-14.868,-3.354,0.384208,0.930282,-1.831959,100337.48
79197,6.001,-13.693,-4.279,0.253309,0.638686,-1.333373,100338.10
79207,6.070,-12.782,-4.495,0.479456,0.204484,-0.746988,100338.10
79217,5.426,-12.701,-4.279,0.938135,-0.319644,-0.029172,100340.23
79226,4.720,-12.540,-2.926,1.421290,-0.816634,0.762076,100339.34
79237,3.224,-13.195,-0.436,1.838996,-1.072047,1.386240,100339.23
79247,2.548,-13.002,3.977,1.997565,-1.052891,1.892809,100339.23
79256,7.804,-3.390,9.137,1.419162,-0.337736,1.532570,100339.23
79266,14.375,0.444,8.446,-0.202709,0.701475,0.428975,100336.23
79277,19.685,-6.547,3.095,-1.866084,0.975511,0.295947,100338.59
79287,20.182,-7.530,2.986,-2.529093,0.725952,0.854663,100339.47
79297,16.634,-1.968,6.236,-2.082120,0.541310,1.264387,100337.23
79306,12.991,-1.558,6.330,-0.887534,0.212466,1.748075,100337.23
79316,11.271,-4.422,3.271,0.801382,-0.497369,2.320093,100337.98
79327,10.112,-6.363,1.856,1.968831,-1.059809,2.546772,100336.95
79337,8.020,-8.051,1.951,1.999161,-1.183790,2.411084,100336.27
79347,5.242,-10.186,2.449,1.168538,-0.935827,2.185469,100336.27
79356,4.030,-10.866,2.155,-0.115975,-0.404249,1.933249,100340.61
79367,5.447,-7.828,2.137,-1.254158,0.103915,1.649103,100338.27
79377,7.621,-3.091,3.048,-1.720818,0.283236,1.454350,100338.27
79386,9.644,0.974,3.787,-1.375479,0.154466,1.383048,100340.66
79396,10.526,2.089,3.713,-0.455993,-0.176506,1.412846,100337.16
79407,9.705,-1.114,2.865,0.556612,-0.567075,1.496387,100337.16
79417,8.676,-5.162,1.757,1.107877,-0.795350,1.516075,100338.80
79427,7.959,-7.489,1.128,1.034446,-0.748524,1.423488,100337.33
79436,7.320,-8.363,1.054,0.557144,-0.504286,1.276626,100336.61
79447,7.125,-7.771,1.216,-0.005828,-0.207901,1.116993,100335.88
79457,7.522,-5.895,1.773,-0.380433,0.005475,0.974387,100338.60
79467,8.151,-4.140,2.208,-0.441094,0.078374,0.874351,100342.46
79477,8.587,-3.349,2.401,-0.256452,0.035805,0.832846,100338.91
79486,8.498,-3.612,2.391,-0.000507,-0.033901,0.820076,100338.07
79497,8.257,-4.519,2.396,0.145291,-0.055717,0.805176,100338.07
79507,8.000,-5.568,2.423,0.102722,-0.022727,0.775910,100338.07
79516,7.838,-6.066,2.565,-0.093626,0.062943,0.721635,100341.09
79526,7.799,-5.737,2.865,-0.341057,0.164044,0.659378,100340.05
79533,7.876,-5.112,3.102,-0.481534,0.218319,0.621067,100338.73
79542,8.016,-4.432,3.151,-0.535277,0.238007,0.600314,100336.03
79552,8.247,-4.058,3.096,-0.491644,0.208741,0.594993,100336.03
79561,8.382,-4.166,3.105,-0.373516,0.152337,0.601378,100341.25
79571,8.366,-4.619,2.908,-0.262305,0.113493,0.601378,100338.91
79582,8.183,-5.185,2.495,-0.228782,0.099659,0.591800,100336.81
79592,7.914,-5.227,2.546,-0.265498,0.097530,0.590204,100337.39
79601,7.834,-4.896,2.869,-0.299021,0.092209,0.590736,100337.39
79611,7.836,-4.694,3.220,-0.289975,0.073585,0.596589,100337.59
79622,7.811,-5.039,3.188,-0.277736,0.054429,0.601378,100339.27
79632,7.773,-5.470,3.004,-0.304342,0.051237,0.595525,100336.92
79642,7.825,-5.355,2.949,-0.363406,0.059218,0.589140,100336.25
79651,7.876,-5.127,2.955,-0.411296,0.058686,0.592865,100336.25
79662,7.914,-4.983,2.939,-0.424599,0.046448,0.607764,100338.48
79672,7.914,-5.040,2.953,-0.419810,0.028356,0.629580,100334.77
79682,7.850,-5.278,2.907,-0.419277,0.016649,0.650865,100339.52
79691,7.810,-5.471,2.920,-0.448011,0.019842,0.662039,100335.20
79702,7.793,-5.501,2.957,-0.490048,0.029420,0.667892,100335.20
79712,7.804,-5.511,2.907,-0.518782,0.030484,0.673213,100338.64
79722,7.831,-5.440,2.870,-0.531553,0.025163,0.683855,100342.66
79732,7.859,-5.423,2.848,-0.528892,0.013989,0.700883,100338.22
79741,7.786,-5.434,2.785,-0.516654,-0.003039,0.720039,100337.13
79752,7.635,-5.482,2.701,-0.511332,-0.015809,0.743984,100337.13
79762,7.501,-5.428,2.610,-0.512929,-0.026984,0.773782,100337.09
79772,7.394,-5.351,2.632,-0.506011,-0.041350,0.809433,100336.27
79781,7.370,-5.299,2.708,-0.484727,-0.062635,0.852534,100338.20
79792,7.310,-5.396,2.786,-0.452800,-0.091369,0.898828,100334.48
79802,7.196,-5.639,2.815,-0.434177,-0.121699,0.947250,100334.48
79812,7.188,-6.408,2.641,-0.449076,-0.149901,0.990351,100336.25
79821,7.463,-7.079,2.298,-0.528892,-0.152561,1.013231,100340.17
79832,7.898,-7.355,2.219,-0.672562,-0.123295,1.016424,100337.25
79842,8.364,-7.253,2.054,-0.800800,-0.105736,1.026002,100335.94
79852,8.735,-6.994,1.760,-0.880085,-0.114782,1.045158,100335.94
79862,9.057,-6.714,1.581,-0.917332,-0.147240,1.079745,100339.37
79872,9.277,-6.418,1.661,-0.915204,-0.213222,1.138809,100339.52
79882,9.390,-6.299,1.851,-0.871571,-0.294103,1.218626,100339.30
79892,9.358,-6.444,2.049,-0.806653,-0.372323,1.305892,100335.91
79902,9.250,-6.965,2.121,-0.776323,-0.427130,1.396883,100335.91
79911,9.180,-7.433,2.040,-0.820488,-0.451607,1.470314,100340.14
79922,9.287,-7.738,1.875,-0.931167,-0.448947,1.534167,100340.05
79932,9.535,-7.868,1.844,-1.084415,-0.429791,1.594827,100335.45
79942,9.970,-7.962,1.789,-1.252561,-0.399460,1.652827,100333.05
79951,10.728,-7.968,1.724,-1.417515,-0.369662,1.713488,100333.05
79962,11.876,-8.006,1.917,-1.575552,-0.345717,1.763506,100335.69
79972,13.527,-8.010,2.179,-1.716561,-0.326029,1.811396,100336.98
79982,15.155,-8.017,2.311,-1.890029,-0.310598,1.854497,100339.39
79992,16.407,-7.111,2.395,-2.094359,-0.285589,1.885891,100335.31
80003,17.326,-5.192,3.053,-2.258071,-0.302084,1.919060,100335.31
80012,17.838,-3.436,3.923,-2.275276,-0.367002,1.965176,100336.56
80022,17.031,-2.763,4.534,-2.140652,-0.479277,2.068937,100334.38
80032,14.857,-3.485,4.840,-1.767111,-0.661790,2.260497,100335.16
80041,12.305,-5.684,5.309,-1.171149,-0.896983,2.510588,100332.03
80052,11.147,-7.423,5.156,-0.599663,-1.099717,2.713322,100332.03
80062,10.441,-8.114,4.303,-0.317644,-1.171020,2.701084,100334.66
80072,9.113,-8.415,3.309,-0.338397,-1.072047,2.499414,100337.85
80081,7.893,-7.666,2.622,-0.566672,-0.833662,2.232295,100334.13
80092,6.411,-7.959,1.902,-0.921057,-0.555368,1.951341,100332.62
80102,5.071,-9.279,1.557,-1.231809,-0.447350,1.846515,100332.62
80112,5.014,-9.166,1.864,-1.332910,-0.470231,1.913029,100333.08
80122,5.766,-8.175,2.214,-1.199883,-0.470231,1.887488,100336.31
80132,5.272,-8.083,2.238,-0.983846,-0.437772,1.702314,100336.00
80142,3.835,-7.452,2.051,-0.801332,-0.370194,1.447433,100332.88
80152,2.559,-5.798,1.237,-0.733222,-0.239827,1.099433,100332.88
80162,1.578,-5.554,0.376,-0.748653,-0.075406,0.692901,100335.68
80172,2.225,-4.252,0.505,-0.776323,0.083163,0.331599,100335.15
80182,3.062,-2.173,0.880,-0.752910,0.206081,-0.040346,100334.52
80192,3.373,-0.599,0.900,-0.642231,0.299200,-0.386749,100335.21
80202,3.675,0.662,0.607,-0.426727,0.327934,-0.698566,100335.21
80212,3.752,1.799,0.171,-0.085645,0.254503,-0.948125,100335.15
80222,3.554,2.262,0.020,0.399639,0.129457,-1.128510,100333.32
80232,3.549,1.556,-0.044,0.964208,0.037934,-1.291336,100333.99
80237,3.803,0.500,-0.080,1.364887,-0.016873,-1.423299,100330.29
80247,4.048,-0.714,-0.084,1.684152,-0.079662,-1.568033,100330.29
80258,4.133,-2.195,-0.046,1.981602,-0.165332,-1.775024,100330.29
80267,4.070,-3.584,0.011,2.135382,-0.218011,-2.001702,100331.92
80277,4.063,-4.516,0.009,2.155602,-0.224396,-2.262436,100332.91
80287,4.172,-5.109,-0.075,2.084299,-0.196727,-2.546583,100331.11
80297,4.349,-5.313,0.003,1.959785,-0.140323,-2.834454,100331.11
80307,4.546,-5.373,0.235,1.819308,-0.065295,-3.117005,100331.88
80317,4.745,-5.313,0.593,1.690538,0.012925,-3.369757,100331.88
80327,4.987,-5.330,1.019,1.590501,0.086888,-3.587389,100331.09
80337,5.340,-5.515,1.402,1.523455,0.161383,-3.773096,100332.97
80347,5.820,-5.927,1.777,1.472905,0.239603,-3.933793,100330.16
80357,6.396,-6.400,2.112,1.435125,0.318888,-4.077994,100330.16
80367,7.021,-6.882,2.347,1.419162,0.396576,-4.204637,100334.48
80377,7.668,-7.245,2.474,1.456409,0.464686,-4.306802,100329.53
80388,8.219,-7.508,2.476,1.573474,0.505126,-4.377040,100330.05
80397,8.633,-7.881,2.500,1.750666,0.516301,-4.424398,100330.38
80407,8.824,-8.471,2.520,1.906042,0.521090,-4.462178,100335.23
80417,9.059,-9.447,2.689,1.953400,0.546099,-4.506875,100332.94
80428,9.300,-10.362,2.895,1.862409,0.609420,-4.565939,100329.64
80437,9.524,-10.986,2.992,1.666593,0.725952,-4.622875,100329.64
80447,9.748,-11.425,3.091,1.432997,0.891438,-4.651609,100333.20
80457,9.859,-11.507,3.143,1.234520,1.089383,-4.627132,100333.20
80467,9.974,-11.466,3.163,1.113731,1.273493,-4.537205,100336.30
80477,10.169,-11.933,3.142,1.051474,1.412373,-4.398324,100333.43
80487,10.132,-13.061,2.995,0.952501,1.519327,-4.223793,100336.20
80497,9.701,-14.127,2.653,0.724759,1.628410,-4.021059,100335.05
80507,9.050,-14.211,2.313,0.367713,1.773676,-3.796509,100335.05
80518,8.424,-13.103,2.124,-0.019131,1.945015,-3.543224,100337.88
80527,8.390,-12.259,1.222,-0.324562,2.113162,-3.303243,100335.51
80537,8.368,-12.451,0.659,-0.484727,2.181272,-3.164894,100334.57
80547,7.835,-12.953,-0.005,-0.665644,2.192978,-2.938748,100334.57
80557,7.200,-13.887,-0.234,-0.894451,2.134446,-2.578510,100334.57
80567,6.720,-13.909,-1.204,-1.145607,1.972685,-2.128345,100338.17
80577,6.711,-13.172,-2.493,-1.203075,1.672575,-1.540895,100338.23
80587,6.948,-12.789,-3.246,-0.995552,1.222410,-0.853410,100339.22
80598,7.027,-12.160,-3.682,-0.702892,0.700411,-0.090364,100337.45
80607,7.349,-10.639,-3.288,-0.317644,0.184264,0.650865,100337.45
80617,7.920,-9.132,-3.580,0.291621,-0.255791,1.198938,100339.04
80627,7.562,-8.740,-3.087,1.034979,-0.863460,1.710295,100339.71
80637,9.144,-2.294,1.667,1.702244,-1.165698,1.900258,100335.16
80648,13.577,6.235,6.221,1.826226,-0.804928,1.264387,100335.16
80657,18.502,3.555,4.048,1.465987,-0.419148,0.723232,100340.46
80667,20.716,-7.157,-0.895,0.999859,-0.609644,1.123910,100340.46
80677,15.642,-11.112,-0.463,0.674740,-0.828341,1.690075,100338.41
80688,11.133,-9.334,1.202,0.373566,-0.534084,1.881102,100338.41
80697,9.623,-8.439,2.748,0.443805,-0.258451,2.004552,100339.99
80708,9.702,-9.317,2.461,0.865768,-0.461362,2.220234,100338.99
80717,8.663,-7.777,3.228,0.949841,-0.642635,2.193983,100338.99
80728,6.613,-5.688,5.003,0.651327,-0.577185,1.968901,100337.80
80738,5.032,-5.776,5.358,0.191585,-0.463314,1.747543,100336.76
80747,5.161,-6.868,3.801,-0.352764,-0.320708,1.570350,100337.12
80757,7.097,-6.271,2.486,-0.834323,-0.140323,1.403800,100339.49
80768,8.957,-4.459,2.130,-1.037589,-0.041883,1.284075,100336.95
80778,9.806,-2.776,2.040,-0.951387,-0.049864,1.252681,100336.84
80787,9.616,-2.015,1.836,-0.650213,-0.113717,1.278754,100336.84
80797,8.970,-2.889,1.830,-0.291571,-0.195662,1.310149,100336.26
80807,8.364,-4.171,2.384,-0.045736,-0.256323,1.285139,100336.26
80818,7.978,-5.120,3.050,0.029823,-0.261112,1.196809,100339.78
80827,7.759,-5.430,3.317,-0.046269,-0.232378,1.089323,100340.56
80837,7.707,-5.119,3.151,-0.193663,-0.185020,0.998332,100335.23
80847,7.971,-4.664,2.936,-0.292103,-0.145112,0.933947,100334.83
80858,8.402,-4.378,2.613,-0.307534,-0.139259,0.906809,100334.83
80868,8.432,-4.306,2.475,-0.286250,-0.136066,0.892442,100337.86
80877,8.206,-4.299,2.683,-0.277204,-0.112653,0.880204,100335.88
80887,8.103,-4.620,2.935,-0.282525,-0.089772,0.856259,100335.30
80898,8.047,-5.098,3.102,-0.318177,-0.077534,0.816883,100335.30
80907,7.946,-5.323,2.984,-0.406507,-0.053057,0.769525,100335.30
80917,7.934,-5.171,2.701,-0.518782,-0.007295,0.725360,100337.21
80927,8.089,-4.735,2.434,-0.606048,0.034209,0.702479,100337.68
80937,8.193,-4.185,2.576,-0.628397,0.048576,0.709397,100339.30
80943,8.216,-3.965,2.825,-0.591149,0.033145,0.725360,100337.79
80952,8.123,-4.011,3.003,-0.499626,-0.006763,0.746112,100337.79
80962,7.978,-4.440,3.125,-0.357553,-0.074341,0.764204,100338.16
80972,7.703,-4.992,3.121,-0.264434,-0.125956,0.761544,100336.13
80983,7.540,-5.283,3.085,-0.259112,-0.137130,0.742920,100335.66
80993,7.557,-5.290,2.948,-0.302745,-0.122763,0.720571,100338.99
81002,7.621,-5.120,2.752,-0.345314,-0.108396,0.712057,100338.99
81012,7.679,-4.942,2.609,-0.351700,-0.107332,0.716314,100337.96
81022,7.793,-4.942,2.532,-0.319773,-0.125956,0.731745,100338.74
81033,7.872,-5.123,2.487,-0.272415,-0.155222,0.749837,100336.82
81042,7.879,-5.306,2.508,-0.248470,-0.174378,0.765800,100334.41
81052,7.818,-5.496,2.494,-0.254856,-0.174378,0.779103,100334.41
81062,7.773,-5.590,2.443,-0.284654,-0.161607,0.790277,100338.95
81073,7.823,-5.629,2.398,-0.325094,-0.140855,0.803048,100334.67
81082,7.931,-5.712,2.412,-0.362342,-0.123295,0.817415,100336.23
81092,8.012,-5.757,2.489,-0.396397,-0.107864,0.834442,100335.14
81102,7.977,-5.817,2.561,-0.430984,-0.098286,0.859452,100335.14
81113,7.925,-5.837,2.596,-0.481002,-0.088176,0.893507,100337.39
81123,7.891,-5.865,2.659,-0.550176,-0.072745,0.935011,100336.92
81132,7.944,-5.786,2.857,-0.623075,-0.061571,0.983965,100334.31
81142,7.975,-5.860,3.024,-0.682672,-0.062103,1.045158,100336.97
81153,7.903,-6.228,3.169,-0.726305,-0.073809,1.109011,100336.97
81163,8.175,-6.544,3.203,-0.774727,-0.075938,1.170736,100338.70
81172,8.721,-7.079,2.616,-0.866250,-0.087112,1.203195,100336.67
81178,9.144,-7.245,2.116,-0.946598,-0.099883,1.227672,100338.66
81187,9.380,-7.112,1.866,-1.001405,-0.112121,1.251617,100338.66
81198,9.668,-6.706,1.720,-1.031204,-0.141387,1.303231,100334.64
81208,9.784,-6.632,1.469,-1.004066,-0.198855,1.371341,100334.64
81218,9.938,-6.767,1.284,-0.958837,-0.272818,1.447965,100338.67
81227,9.902,-6.918,1.345,-0.935956,-0.347314,1.525653,100337.08
81238,9.905,-6.975,1.600,-0.932231,-0.413827,1.603341,100336.17
81248,10.039,-7.081,1.910,-0.940213,-0.469699,1.678901,100336.17
81257,10.263,-7.240,2.192,-0.981185,-0.514928,1.749139,100336.17
81267,10.552,-7.343,2.450,-1.059405,-0.548451,1.823635,100337.95
81277,11.008,-7.471,2.746,-1.165827,-0.573460,1.898130,100337.06
81288,11.865,-7.910,2.989,-1.291937,-0.591552,1.964644,100336.59
81298,13.327,-8.453,3.303,-1.478176,-0.586763,2.009873,100333.52
81307,15.269,-8.678,3.738,-1.775093,-0.528231,2.029029,100333.52
81317,17.251,-7.826,4.442,-2.188010,-0.381369,2.052974,100337.35
81328,18.187,-5.977,5.310,-2.576450,-0.203644,2.107781,100336.88
81338,17.778,-4.408,5.890,-2.754707,-0.080194,2.204093,100335.21
81347,16.097,-4.568,6.208,-2.642964,-0.049864,2.347763,100335.21
81357,13.918,-6.439,6.548,-2.296028,-0.120635,2.564331,100336.29
81368,13.022,-8.135,7.079,-1.853845,-0.267497,2.765469,100338.16
81378,13.176,-7.874,6.787,-1.539369,-0.380304,2.793671,100338.16
81387,12.714,-7.146,5.062,-1.400488,-0.403717,2.666497,100334.66
81397,11.335,-6.354,3.695,-1.363772,-0.376580,2.489836,100335.45
81408,9.630,-6.381,2.901,-1.316947,-0.334011,2.335524,100335.45
81418,8.304,-6.435,2.341,-1.233938,-0.336671,2.259433,100336.31
81428,7.241,-5.823,1.961,-1.151461,-0.289314,2.158332,100337.00
81437,6.100,-5.081,2.192,-1.080690,-0.141387,1.916222,100335.80
81447,4.299,-4.849,2.121,-1.080158,0.085824,1.590038,100334.75
81458,2.502,-5.770,0.884,-1.131240,0.311438,1.235121,100335.32
81468,1.724,-6.134,0.100,-1.148800,0.450851,0.910534,100336.48
81478,2.653,-4.078,0.066,-1.057277,0.522686,0.563067,100335.54
81487,3.329,-1.865,0.005,-0.953516,0.586539,0.141636,100333.87
81498,3.676,-0.021,-0.256,-0.798672,0.640814,-0.306933,100333.87
81508,3.814,1.742,-0.576,-0.489516,0.624319,-0.686859,100333.87
81518,3.935,2.959,-0.566,0.018117,0.512576,-0.950254,100336.84
81527,4.072,3.411,-0.274,0.675272,0.367310,-1.155648,100334.65
81538,4.221,2.783,0.111,1.384043,0.217255,-1.343483,100331.46
81548,4.216,1.533,0.309,2.055033,0.055493,-1.527593,100330.95
81558,4.218,0.119,0.392,2.625455,-0.106268,-1.730859,100330.95
81567,4.252,-1.298,0.294,3.033051,-0.240892,-1.976161,100333.78
81577,4.487,-2.756,0.114,3.239509,-0.333479,-2.264033,100334.02
81588,4.799,-3.906,-0.105,3.227803,-0.369662,-2.590748,100332.06
81598,5.013,-4.732,-0.138,3.028262,-0.341460,-2.935023,100332.06
81607,5.184,-5.212,0.053,2.720702,-0.252598,-3.262270,100332.06
81617,5.483,-5.470,0.269,2.379620,-0.128616,-3.562380,100332.64
81628,5.817,-5.476,0.560,2.048115,-0.003039,-3.830564,100331.97
81638,6.171,-5.488,0.792,1.773547,0.108172,-4.071077,100330.81
81647,6.660,-5.691,1.035,1.566024,0.191714,-4.292967,100333.58
81657,7.072,-6.193,1.182,1.387767,0.264613,-4.507407,100333.58
81668,7.458,-6.852,1.298,1.192483,0.373695,-4.721315,100335.59
81678,7.807,-7.283,1.293,0.986557,0.541310,-4.945866,100331.63
81688,8.310,-7.074,1.528,0.867896,0.758411,-5.145939,100332.36
81698,9.222,-6.546,1.753,0.973254,0.935603,-5.271517,100331.06
81708,10.387,-6.401,1.803,1.345199,0.995199,-5.298654,100333.41
81718,11.535,-7.298,1.705,1.864538,0.922300,-5.224159,100330.22
81728,12.265,-9.351,1.739,2.318959,0.742447,-5.108159,100330.22
81737,12.464,-11.847,1.638,2.552556,0.538117,-5.041645,100331.69
81747,12.402,-14.310,1.323,2.513712,0.431695,-5.046967,100332.98
81758,12.217,-16.471,1.071,2.210409,0.495548,-5.054416,100332.98
81768,11.810,-17.655,1.187,1.751198,0.688172,-5.003334,100340.39
81777,11.121,-17.271,1.765,1.284538,0.878667,-4.857535,100334.64
81787,10.075,-15.740,2.532,0.934942,1.000520,-4.575517,100337.78
81798,9.292,-14.011,3.446,0.820538,1.084594,-4.140783,100336.27
81808,9.308,-13.481,3.453,0.940263,1.162814,-3.643261,100340.11
81818,9.381,-16.154,2.003,1.104153,1.200062,-3.273977,100340.06
81827,6.944,-19.475,-0.145,0.922171,1.230392,-2.977060,100342.14
81838,4.333,-21.883,-0.951,0.198502,1.384171,-2.518913,100338.02
81848,2.596,-22.531,-1.214,-0.811974,1.488997,-1.947427,100338.02
81858,2.636,-21.318,-1.240,-1.651112,1.508685,-1.222694,100338.02
81867,4.261,-17.991,-0.748,-2.060304,1.335217,-0.385153,100340.60
81878,6.010,-13.527,0.009,-1.949093,0.941456,0.448663,100339.46
81884,7.191,-9.737,0.916,-1.529791,0.596117,0.956296,100339.30
81893,8.280,-7.955,-1.285,-0.863589,0.153934,1.360167,100338.95
81903,9.429,-2.250,-0.881,0.171364,-0.583570,1.834809,100338.95
81912,12.533,7.504,2.506,0.904612,-0.723515,1.534167,100342.32
81923,16.090,9.780,3.783,1.039768,-0.374983,0.841360,100337.73
81933,20.323,0.476,1.949,1.060520,-0.256855,0.978112,100338.66
81943,19.329,-8.366,2.141,1.198868,-0.575589,1.649635,100336.85
81952,13.222,-9.864,3.148,1.234520,-0.718194,1.991249,100336.85
81963,8.772,-9.496,4.275,1.178116,-0.476084,2.122148,100339.09
81973,8.218,-11.071,4.510,1.361162,-0.435112,2.317432,100341.06
81983,9.332,-10.597,2.907,1.256336,-0.643699,2.394056,100341.13
81993,7.786,-8.143,3.096,0.727951,-0.647956,2.167910,100338.25
82002,6.013,-6.584,3.818,0.120814,-0.450543,1.915157,100338.25
82013,5.945,-5.870,3.091,-0.392672,-0.288782,1.752332,100338.30
82023,7.333,-4.797,1.795,-0.784837,-0.162672,1.627818,100337.36
82033,9.045,-2.952,1.414,-0.860929,-0.096690,1.552791,100339.19
82042,9.791,-2.053,1.726,-0.578378,-0.149901,1.543745,100336.16
82053,9.458,-2.588,2.007,-0.176103,-0.270690,1.569286,100336.16
82063,8.722,-3.856,2.094,0.117089,-0.340928,1.570882,100341.04
82073,8.178,-5.062,2.373,0.206484,-0.336139,1.517671,100340.05
82082,7.877,-5.823,2.726,0.077181,-0.274415,1.407525,100338.54
82093,7.837,-5.969,2.747,-0.202177,-0.179167,1.282479,100337.96
82103,7.980,-5.230,2.869,-0.482598,-0.081791,1.168607,100337.96
82113,8.293,-4.240,2.816,-0.610837,-0.021130,1.078681,100341.73
82118,8.584,-3.627,2.743,-0.580507,-0.027516,1.042497,100341.37
82127,8.670,-3.199,2.696,-0.452800,-0.076470,1.028130,100341.37
82138,8.419,-3.017,2.710,-0.211755,-0.158947,1.028130,100339.07
82148,8.053,-3.760,2.553,0.023970,-0.228653,1.028130,100339.59
82158,7.956,-5.077,2.243,0.116557,-0.258451,1.014296,100339.59
82168,8.006,-6.077,1.984,0.003218,-0.204176,0.968002,100341.09
82178,8.092,-6.042,2.244,-0.267094,-0.062635,0.902020,100339.09
82188,8.277,-5.303,2.535,-0.540066,0.077310,0.848809,100338.20
82198,8.484,-4.426,2.664,-0.678415,0.135842,0.826993,100338.20
82208,8.579,-3.752,2.895,-0.641699,0.110833,0.842424,100338.20
82217,8.281,-3.789,3.048,-0.478342,0.028888,0.873287,100341.98
82228,7.830,-4.573,3.027,-0.294764,-0.065828,0.886057,100338.70
82238,7.474,-5.409,2.910,-0.201112,-0.116910,0.869030,100341.31
82248,7.295,-5.715,2.792,-0.232507,-0.106800,0.829654,100340.64
82258,7.386,-5.633,2.672,-0.332011,-0.054121,0.792406,100340.64
82268,7.753,-5.336,2.546,-0.420342,-0.006763,0.767929,100339.54
82278,8.132,-5.095,2.464,-0.438433,0.003347,0.764736,100338.46
82288,8.271,-5.064,2.295,-0.386287,-0.022195,0.775910,100338.76
82298,8.150,-5.410,2.026,-0.312855,-0.050928,0.787085,100338.76
82308,7.896,-5.805,1.910,-0.285186,-0.059974,0.785488,100339.26
82318,7.654,-5.983,1.969,-0.307002,-0.043479,0.773250,100339.26
82328,7.484,-6.058,2.142,-0.347975,-0.014213,0.759415,100339.79
82338,7.512,-6.117,2.285,-0.392672,0.013989,0.743984,100339.57
82348,7.661,-6.067,2.425,-0.440562,0.035805,0.737599,100338.85
82354,7.792,-5.955,2.530,-0.475149,0.049108,0.739195,100338.85
82363,7.884,-5.885,2.653,-0.504415,0.059750,0.748241,100338.23
82373,7.995,-5.774,2.731,-0.545387,0.065071,0.774314,100340.99
82383,8.052,-5.726,2.772,-0.587956,0.064539,0.815819,100338.01
82393,8.069,-5.686,2.752,-0.639571,0.061347,0.872754,100337.65
82403,8.200,-5.618,2.869,-0.699699,0.055493,0.943525,100337.65
82413,8.673,-5.627,2.831,-0.752378,0.034209,1.024406,100339.10
82423,9.012,-5.898,2.623,-0.783773,-0.021662,1.103690,100338.52
82433,9.118,-6.149,2.395,-0.793883,-0.088176,1.183506,100336.65
82443,9.071,-6.387,2.234,-0.794415,-0.145112,1.252149,100337.01
82453,9.111,-6.625,1.978,-0.792818,-0.197259,1.309617,100337.01
82463,9.192,-7.045,1.761,-0.799204,-0.240892,1.357506,100338.73
82473,9.517,-7.185,1.617,-0.834855,-0.282219,1.408234,100335.65
82483,9.742,-7.058,1.629,-0.867846,-0.324433,1.453286,100335.55
82493,9.912,-7.036,1.756,-0.885406,-0.381369,1.509690,100339.15
82503,10.137,-6.994,1.997,-0.904562,-0.434580,1.574075,100339.15
82513,10.234,-7.072,2.182,-0.943406,-0.480873,1.643249,100339.36
82523,10.382,-7.119,2.201,-1.021626,-0.502158,1.716148,100338.84
82533,10.734,-7.239,2.090,-1.144011,-0.507479,1.788515,100338.48
82543,11.196,-7.493,2.019,-1.305772,-0.510139,1.868332,100339.83
82553,12.025,-7.898,2.010,-1.522873,-0.488855,1.933249,100339.83
82563,13.619,-7.956,2.556,-1.836286,-0.406378,1.982735,100338.70
82573,15.932,-7.122,3.354,-2.252395,-0.264304,2.034350,100337.60
82583,17.868,-5.570,4.102,-2.633918,-0.147240,2.111506,100336.87
82593,19.004,-3.835,4.783,-2.827606,-0.129149,2.197176,100337.82
82603,18.956,-2.752,5.634,-2.791423,-0.188213,2.294552,100337.82
82613,17.197,-2.986,6.145,-2.469496,-0.355827,2.444607,100337.17
82623,14.246,-5.522,6.279,-1.857570,-0.641570,2.702680,100337.53
82633,12.867,-8.084,6.284,-1.170616,-0.920396,2.967139,100335.45
82643,12.754,-8.475,6.455,-0.711938,-1.069919,3.028863,100335.61
82653,12.547,-7.815,5.645,-0.556030,-1.044909,2.908606,100335.61
82663,11.601,-6.729,4.603,-0.624140,-0.939020,2.687249,100337.20
82673,9.229,-7.365,3.824,-0.670965,-0.912946,2.520698,100336.32
82683,7.412,-7.984,2.807,-0.680543,-0.929442,2.479194,100338.82
82693,6.182,-7.346,2.005,-0.565608,-0.893790,2.352552,100335.21
82703,5.311,-6.908,1.265,-0.543791,-0.709148,1.985396,100335.21
82713,2.951,-6.951,1.468,-0.658727,-0.442029,1.529378,100336.75
82723,1.476,-6.659,0.958,-0.847094,-0.131809,1.084534,100336.11
82734,1.353,-5.862,0.744,-1.060470,0.124136,0.648736,100334.61
82743,2.353,-3.449,0.856,-1.190837,0.312503,0.216131,100337.11
82753,3.133,-1.248,0.688,-1.219571,0.438613,-0.209557,100337.11
82763,3.669,0.451,0.168,-1.113149,0.481181,-0.593208,100337.65
82774,4.044,2.129,-0.238,-0.826874,0.390723,-0.902896,100336.24
82783,4.065,3.425,-0.203,-0.330947,0.230558,-1.150859,100335.55
82793,4.160,3.726,-0.046,0.316630,0.091677,-1.361574,100332.12
82803,4.345,2.834,0.194,1.009969,-0.017406,-1.564308,100332.12
82813,4.418,1.221,0.393,1.639455,-0.113717,-1.761721,100335.13
82823,4.324,-0.470,0.446,2.131125,-0.182892,-1.977225,100336.53
82833,4.105,-2.081,0.311,2.461033,-0.218011,-2.220932,100333.83
82843,3.901,-3.395,0.124,2.623326,-0.214818,-2.486454,100331.16
82853,3.906,-4.311,0.041,2.639290,-0.167460,-2.774326,100331.16
82864,4.211,-4.847,0.052,2.534464,-0.081259,-3.086674,100332.21
82873,4.610,-5.153,0.239,2.345033,0.029420,-3.405408,100334.82
82883,4.993,-5.205,0.533,2.121015,0.150209,-3.699665,100333.98
82893,5.500,-5.114,0.809,1.904978,0.269402,-3.950288,100330.43
82904,6.052,-5.008,1.088,1.722996,0.371567,-4.172178,100330.43
82913,6.540,-5.252,1.401,1.592630,0.454044,-4.371719,100334.69
82923,6.913,-5.824,1.667,1.483547,0.514172,-4.546783,100334.33
82933,7.352,-6.548,1.838,1.368611,0.581750,-4.711205,100331.03
82944,7.931,-7.435,1.866,1.236471,0.688704,-4.908263,100332.23
82953,8.557,-8.090,1.897,1.160024,0.819603,-5.073040,100332.23
82963,9.482,-8.464,2.107,1.191951,0.964337,-5.211920,100333.23
82973,10.717,-8.589,2.248,1.419694,1.035107,-5.279499,100329.48
82983,11.815,-9.224,2.467,1.807070,0.984557,-5.244379,100334.17
82994,12.368,-10.665,2.839,2.186996,0.822264,-5.124122,100331.56
83003,12.347,-12.585,2.932,2.381748,0.625383,-4.988434,100331.56
83013,12.032,-14.522,2.572,2.332262,0.532796,-4.875095,100339.30
83023,11.555,-15.826,2.131,2.103455,0.613677,-4.764416,100336.02
83034,10.951,-16.423,2.001,1.778336,0.807897,-4.642031,100335.44
83043,10.332,-16.591,2.125,1.387767,1.015952,-4.474416,100337.11
83053,9.830,-16.405,2.462,0.978575,1.180906,-4.231774,100337.11
83059,9.293,-15.785,2.896,0.708263,1.274025,-3.994453,100339.96
83068,8.614,-14.981,3.113,0.522025,1.357566,-3.706050,100339.96
83079,8.245,-14.461,2.148,0.374098,1.490593,-3.326124,100340.85
83089,7.716,-15.294,1.235,0.319823,1.560300,-3.057940,100338.87
83098,6.382,-15.983,0.248,0.111768,1.618300,-2.723775,100337.40
83108,5.302,-16.817,-0.137,-0.272947,1.621493,-2.263500,100342.82
83119,4.516,-16.735,-0.882,-0.713002,1.531566,-1.742565,100341.68
83129,4.533,-16.093,-1.587,-0.959901,1.374061,-1.168419,100340.59
83138,4.829,-15.353,-2.218,-1.009387,1.102153,-0.529355,100340.59
83148,5.016,-13.866,-2.786,-0.925846,0.739787,0.185269,100339.90
83159,5.916,-11.366,-2.428,-0.604452,0.309310,0.870626,100339.90
83169,7.035,-9.534,-3.408,-0.042012,-0.116378,1.363360,100343.39
83178,7.999,-6.869,-2.722,0.567786,-0.668708,1.798093,100342.61
83188,11.849,3.915,3.302,0.995070,-0.703827,1.629947,100341.45
83198,17.290,11.083,7.300,0.990813,-0.177038,0.794002,100339.58
83209,23.482,1.780,2.779,0.894502,-0.026451,0.759415,100339.58
83219,21.436,-8.230,1.311,0.979639,-0.631992,1.676240,100340.53
83228,12.676,-9.467,2.574,0.965272,-0.834726,2.104589,100338.88
83238,7.538,-8.507,3.397,0.860979,-0.403185,2.179616,100340.63
83249,6.846,-10.036,4.377,1.178648,-0.270158,2.347763,100340.63
83258,8.663,-10.336,3.506,1.312208,-0.492047,2.446203,100340.63
83268,8.512,-8.628,3.969,0.925364,-0.597937,2.271139,100338.63
83278,7.017,-7.529,5.045,0.311841,-0.519717,2.049249,100342.40
83289,6.064,-7.519,4.006,-0.352764,-0.411167,1.867800,100340.84
83298,6.468,-6.155,2.153,-0.997149,-0.239295,1.712956,100339.79
83308,7.964,-3.065,1.564,-1.277570,-0.087112,1.583653,100339.79
83318,9.614,-0.874,2.078,-1.024286,-0.107864,1.556515,100341.84
83329,10.357,-1.184,2.112,-0.450140,-0.297827,1.598552,100337.31
83339,9.777,-3.096,1.843,0.121878,-0.488323,1.630479,100336.81
83348,8.694,-5.020,1.795,0.432098,-0.560690,1.593763,100336.81
83358,7.611,-5.941,2.159,0.412410,-0.520249,1.488937,100341.63
83368,7.088,-5.979,2.535,0.178282,-0.402121,1.363360,100340.47
83379,7.382,-5.590,2.656,-0.077131,-0.277075,1.238314,100340.47
83388,8.004,-4.922,2.641,-0.222929,-0.209497,1.142534,100338.59
83398,8.376,-3.915,2.719,-0.206966,-0.211093,1.091452,100338.75
83408,8.230,-3.466,2.792,-0.053718,-0.257387,1.068039,100338.75
83414,8.000,-3.726,2.755,0.087823,-0.302084,1.060589,100339.03
83424,7.841,-4.492,2.519,0.184135,-0.324433,1.041965,100340.77
83433,7.793,-5.442,2.248,0.180942,-0.302616,1.005250,100339.45
83443,7.823,-5.912,2.148,0.032484,-0.218543,0.950975,100337.16
83453,7.965,-5.691,2.128,-0.183553,-0.105736,0.898828,100337.16
83464,8.187,-4.917,2.214,-0.358085,-0.013681,0.866369,100336.72
83473,8.478,-4.208,2.440,-0.401718,0.013989,0.869562,100336.77
83483,8.508,-4.119,2.707,-0.324030,-0.027516,0.887121,100341.78
83493,8.180,-4.509,2.902,-0.203773,-0.095094,0.905213,100338.33
83504,7.666,-5.002,2.977,-0.129810,-0.146176,0.911066,100338.33
83514,7.334,-5.435,2.792,-0.140452,-0.151497,0.896167,100340.38
83523,7.441,-5.691,2.544,-0.221865,-0.118506,0.873819,100339.44
83533,7.726,-5.702,2.287,-0.313920,-0.079662,0.853066,100337.45
83544,7.896,-5.484,2.082,-0.365534,-0.046139,0.841892,100338.97
83554,7.817,-5.415,1.982,-0.371388,-0.029644,0.837635,100338.97
83563,7.817,-5.554,1.977,-0.354360,-0.020066,0.835507,100336.09
83573,7.849,-5.819,1.941,-0.341057,-0.006231,0.826461,100338.85
83584,7.832,-6.089,1.963,-0.346911,0.010264,0.811562,100337.96
83594,7.628,-6.242,2.014,-0.374580,0.039530,0.790810,100338.85
83603,7.498,-6.307,2.070,-0.425663,0.081035,0.770589,100338.85
83613,7.555,-6.238,2.105,-0.488452,0.122007,0.750901,100337.13
83623,7.683,-5.987,2.202,-0.546452,0.154998,0.748241,100340.89
83634,7.791,-5.788,2.341,-0.577846,0.161383,0.763672,100336.77
83644,7.862,-5.586,2.470,-0.585296,0.149145,0.798791,100337.23
83649,7.871,-5.437,2.597,-0.579443,0.129989,0.836039,100337.23
83658,7.830,-5.500,2.702,-0.569865,0.102319,0.880204,100337.23
83668,7.862,-5.673,2.863,-0.569332,0.066136,0.941397,100340.16
83679,7.944,-6.062,3.167,-0.586360,0.036870,1.004186,100337.66
83689,8.383,-6.393,2.901,-0.629993,0.017714,1.054736,100337.34
83698,8.571,-6.672,2.584,-0.702892,-0.001442,1.097305,100337.96
83708,8.606,-6.706,2.251,-0.764085,-0.018470,1.138277,100336.34
83719,8.776,-6.760,1.912,-0.804525,-0.035497,1.183506,100337.59
83729,8.934,-6.955,1.653,-0.834323,-0.057846,1.228736,100337.59
83738,9.147,-7.002,1.517,-0.866782,-0.086048,1.279286,100336.54
83748,9.414,-6.861,1.588,-0.872103,-0.135534,1.339947,100336.02
83759,9.575,-6.858,1.698,-0.854011,-0.200983,1.403800,100336.02
83769,9.592,-6.909,1.977,-0.833259,-0.266433,1.472974,100339.20
83778,9.635,-6.838,2.403,-0.835387,-0.318580,1.549066,100336.86
83788,9.544,-6.887,2.667,-0.858800,-0.356359,1.632075,100334.72
83799,9.530,-7.060,2.755,-0.918929,-0.377112,1.716148,100336.70
83809,9.798,-7.370,2.772,-1.021626,-0.380837,1.793836,100336.61
83819,10.419,-7.912,2.723,-1.161039,-0.367534,1.872589,100338.86
83828,11.619,-8.521,2.741,-1.357919,-0.332415,1.931121,100336.03
83838,13.294,-8.937,2.765,-1.652176,-0.257387,1.973690,100335.09
83849,14.782,-9.160,2.344,-2.040084,-0.130745,2.014130,100335.09
83859,15.992,-8.543,2.045,-2.478542,0.040062,2.046057,100335.09
83868,16.928,-7.054,2.613,-2.907955,0.233218,2.084368,100338.83
83878,17.157,-5.418,3.853,-3.164432,0.372631,2.154607,100337.83
83884,16.418,-4.621,4.948,-3.136762,0.384337,2.222717,100337.05
83894,14.997,-4.983,5.652,-2.851019,0.291218,2.339781,100335.75
83903,13.913,-6.180,5.920,-2.292836,0.068264,2.543579,100335.75
83913,13.719,-6.851,5.833,-1.805956,-0.178103,2.652662,100337.41
83923,13.212,-6.262,5.298,-1.517552,-0.314323,2.615946,100333.91
83934,11.874,-5.311,4.338,-1.303112,-0.356892,2.505267,100335.54
83944,10.005,-4.680,3.718,-1.119534,-0.357956,2.345102,100334.96
83953,7.593,-5.854,3.051,-0.943406,-0.361681,2.176955,100334.96
83963,5.293,-7.514,2.658,-0.706085,-0.458525,2.132258,100335.35
83974,4.058,-8.112,2.087,-0.498562,-0.484598,2.102992,100335.57
83984,3.625,-8.016,1.202,-0.342122,-0.400525,1.904515,100334.57
83994,2.556,-8.619,0.495,-0.349571,-0.223864,1.591635,100334.30
83999,1.885,-8.543,-0.168,-0.494305,-0.025387,1.318130,100334.30
84008,1.283,-8.117,-0.803,-0.763552,0.203952,0.971195,100334.30
84019,1.441,-6.013,-1.137,-1.146672,0.521090,0.481122,100337.33
84029,2.747,-2.271,-1.034,-1.391442,0.775438,0.006480,100337.06
84039,3.814,0.870,-0.563,-1.372286,0.899420,-0.421869,100335.45
84048,4.502,2.643,-0.423,-1.031736,0.824924,-0.712401,100333.17
84059,4.762,3.595,-0.355,-0.413424,0.546099,-0.867244,100334.59
84069,4.720,3.465,-0.256,0.378887,0.199163,-0.958767,100333.86
84079,4.354,2.217,-0.236,1.210043,-0.111589,-1.059336,100333.86
84088,3.851,0.397,-0.343,1.932648,-0.330286,-1.199813,100332.92
84099,3.493,-1.302,-0.388,2.449326,-0.437772,-1.415318,100332.81
84109,3.379,-2.685,-0.335,2.730812,-0.455864,-1.696272,100332.81
84119,3.467,-3.817,-0.447,2.790231,-0.409216,-2.028131,100334.28
84128,3.586,-4.491,-0.475,2.655785,-0.331350,-2.325757,100334.28
84139,3.614,-4.959,-0.265,2.372703,-0.213754,-2.654601,100330.22
84149,3.969,-5.070,-0.002,2.039602,-0.073809,-2.949922,100331.94
84159,4.555,-4.993,0.268,1.719804,0.059750,-3.214381,100331.94
84169,5.211,-5.192,0.561,1.463327,0.165108,-3.454362,100332.40
84178,5.886,-5.779,0.763,1.274960,0.236411,-3.677848,100331.04
84189,6.344,-6.502,0.872,1.108410,0.299732,-3.888564,100329.52
84199,6.569,-7.081,0.851,0.913657,0.406154,-4.089701,100329.52
84208,6.789,-7.139,0.934,0.705070,0.562062,-4.287646,100329.52
84218,7.097,-6.644,1.088,0.582153,0.728612,-4.490379,100333.75
84229,7.683,-6.174,1.173,0.636428,0.863236,-4.660655,100331.97
84239,8.548,-6.243,1.090,0.899823,0.924429,-4.755370,100329.67
84249,9.548,-6.954,0.995,1.301566,0.894098,-4.744196,100331.77
84259,10.130,-8.356,1.004,1.676171,0.777034,-4.663847,100331.77
84269,10.119,-10.100,1.060,1.898593,0.626979,-4.586691,100334.70
84279,9.859,-11.565,1.024,1.957657,0.530135,-4.554765,100332.95
84289,9.772,-12.421,1.042,1.910831,0.510979,-4.544655,100330.73
84299,9.866,-12.752,1.127,1.837932,0.543438,-4.511664,100330.73
84308,10.216,-12.854,1.291,1.784189,0.589200,-4.439829,100335.59
84319,10.294,-12.919,1.447,1.725657,0.625383,-4.338728,100335.59
84329,10.127,-13.268,1.611,1.612850,0.659970,-4.206765,100333.67
84339,9.765,-13.597,1.697,1.412776,0.715842,-4.038619,100336.02
84348,9.399,-13.585,1.843,1.154171,0.803640,-3.813004,100334.61
84359,8.918,-13.237,2.142,0.930685,0.887181,-3.535775,100334.61
84369,8.302,-12.881,2.231,0.794997,0.957952,-3.218105,100335.54
84379,7.751,-12.924,1.455,0.705070,1.039896,-2.871170,100337.30
84389,7.399,-13.974,0.373,0.621529,1.119713,-2.573720,100337.62
84399,6.370,-15.007,-0.639,0.425181,1.172924,-2.302345,100333.91
84409,5.760,-15.341,-0.919,0.037805,1.224007,-1.922950,100338.72
84419,5.625,-14.559,-1.015,-0.394268,1.178777,-1.510033,100337.09
84429,6.042,-12.936,-0.949,-0.624140,1.026594,-1.075299,100340.17
84439,6.789,-11.812,-0.426,-0.518250,0.773842,-0.630988,100340.17
84449,6.866,-12.062,-0.843,-0.215479,0.382209,-0.060034,100336.89
84459,5.776,-12.603,-0.731,0.145823,-0.040286,0.594461,100336.89
84469,5.716,-13.256,-0.878,0.506061,-0.386690,1.254809,100339.20
84478,10.831,-6.504,0.248,0.704006,-0.574524,1.600681,100339.11
84489,15.254,3.793,3.637,0.379419,-0.283993,0.994075,100336.17
84499,16.231,1.252,2.991,-0.162801,0.208741,0.561470,100335.39
84509,16.745,-6.484,-0.149,-0.353296,0.200759,1.056864,100335.39
84519,13.364,-8.803,-0.353,-0.368727,-0.109993,1.538956,100337.14
84529,10.849,-6.489,1.113,-0.400121,-0.028048,1.647506,100334.03
84539,10.240,-5.591,3.428,-0.152690,0.153934,1.635800,100336.84
84549,9.305,-6.473,5.541,0.320887,-0.003039,1.743818,100336.84
84558,9.149,-5.856,5.538,0.618869,-0.245681,1.860350,100336.84
84569,8.079,-4.420,4.846,0.584814,-0.416488,1.763506,100335.34
84579,5.983,-4.547,4.357,0.341640,-0.469167,1.567690,100334.91
84589,5.441,-5.907,3.216,-0.049816,-0.330818,1.398301,100335.07
84598,6.948,-6.366,1.779,-0.474617,-0.119038,1.288332,100335.07
84609,8.906,-5.028,0.781,-0.850818,0.088484,1.193084,100335.07
84619,10.140,-2.793,0.889,-0.921057,0.192246,1.163818,100338.31
84629,10.261,-1.307,1.489,-0.656066,0.161915,1.192552,100338.02
84639,9.829,-1.293,1.971,-0.197920,0.042723,1.245231,100333.56
84649,9.092,-2.883,2.720,0.236814,-0.105736,1.271305,100333.56
84659,8.136,-5.118,3.190,0.417199,-0.200983,1.226075,100337.93
84669,7.447,-6.606,3.179,0.294814,-0.179699,1.124442,100337.93
84679,7.374,-6.631,3.046,-0.036158,-0.062103,0.990883,100337.20
84689,7.788,-5.396,3.072,-0.386819,0.073585,0.867433,100336.62
84699,8.546,-3.655,3.275,-0.560287,0.145952,0.798259,100334.48
84709,9.177,-2.493,3.542,-0.481002,0.103915,0.793470,100334.48
84719,9.209,-2.703,3.649,-0.237828,-0.023791,0.825929,100335.61
84729,8.788,-3.920,3.482,-0.046269,-0.139259,0.848809,100338.48
84740,8.273,-5.066,3.091,-0.037755,-0.166396,0.829654,100337.59
84749,8.060,-5.442,2.869,-0.185681,-0.122231,0.794534,100336.09
84759,8.134,-5.051,2.631,-0.372452,-0.054121,0.762076,100336.72
84769,8.249,-4.418,2.639,-0.495901,-0.013681,0.758351,100338.28
84780,8.322,-3.824,2.848,-0.514525,-0.017938,0.784424,100338.13
84789,8.340,-3.653,3.072,-0.444819,-0.050396,0.815287,100338.13
84799,8.260,-4.051,3.309,-0.346378,-0.098818,0.837635,100336.63
84809,7.988,-4.646,3.386,-0.288911,-0.132341,0.837103,100336.63
84819,7.640,-4.997,3.295,-0.292635,-0.137662,0.815287,100336.96
84825,7.457,-4.877,3.215,-0.322966,-0.127552,0.789213,100339.57
84834,7.344,-4.442,3.435,-0.344250,-0.121699,0.767397,100335.85
84844,7.205,-3.867,3.739,-0.316580,-0.129681,0.755158,100335.91
84854,7.090,-3.857,3.563,-0.204837,-0.167460,0.767397,100335.91
84865,7.166,-4.574,2.973,-0.076599,-0.236635,0.799323,100337.20
84874,7.395,-5.543,2.368,-0.031369,-0.282928,0.821672,100337.52
84884,7.606,-5.974,2.058,-0.103204,-0.261644,0.815819,100334.91
84894,7.726,-5.843,1.746,-0.212287,-0.214286,0.811030,100335.53
84904,7.953,-5.464,1.563,-0.261773,-0.188745,0.819011,100335.53
84914,8.192,-5.244,1.570,-0.243149,-0.193002,0.839764,100337.16
84924,8.314,-5.412,1.787,-0.191534,-0.210029,0.862112,100336.59
84934,8.265,-5.884,1.858,-0.139388,-0.222800,0.873287,100334.14
84944,8.052,-6.501,1.761,-0.142048,-0.212690,0.866901,100334.70
84954,7.774,-6.814,1.818,-0.219736,-0.170653,0.845617,100334.70
84964,7.732,-6.758,2.067,-0.332544,-0.109461,0.817947,100339.02
84974,7.911,-6.466,2.251,-0.439498,-0.055185,0.798791,100336.14
84984,8.067,-6.181,2.392,-0.517718,-0.020598,0.801984,100336.98
84994,8.105,-5.975,2.633,-0.570397,-0.007295,0.833378,100334.69
85004,8.163,-5.874,2.821,-0.620947,-0.001442,0.888186,100334.69
85014,8.521,-5.695,2.851,-0.685864,-0.001442,0.957892,100335.34
85024,8.925,-5.757,2.592,-0.755571,-0.033901,1.033984,100334.45
85035,9.231,-5.866,2.408,-0.782708,-0.097222,1.117525,100335.59
85044,9.403,-6.016,2.251,-0.766213,-0.173314,1.200002,100335.50
85054,9.484,-6.477,2.112,-0.747589,-0.238231,1.272901,100335.50
85060,9.554,-6.814,1.987,-0.759296,-0.269093,1.325580,100335.23
85069,9.646,-6.961,1.794,-0.798140,-0.286121,1.374002,100335.23
85080,9.821,-6.921,1.680,-0.857736,-0.313259,1.437323,100335.90
85089,10.011,-6.711,1.614,-0.894451,-0.355295,1.507561,100331.88
85099,10.217,-6.595,1.614,-0.896580,-0.422873,1.586314,100333.02
85109,10.369,-6.681,1.690,-0.882213,-0.497369,1.671451,100333.84
85120,10.489,-6.849,1.714,-0.887534,-0.563882,1.753396,100337.19
85130,10.556,-7.032,1.839,-0.937020,-0.610708,1.825231,100332.66
85139,10.713,-7.133,2.039,-1.037057,-0.629332,1.897066,100332.66
85149,11.035,-7.307,2.176,-1.176470,-0.629332,1.963579,100332.75
85159,11.802,-7.901,2.293,-1.349405,-0.619222,2.010937,100332.75
85169,13.476,-8.303,2.826,-1.604818,-0.578249,2.022644,100335.95
85179,15.958,-7.726,4.115,-1.979423,-0.478213,2.023708,100333.55
85189,17.990,-5.982,5.599,-2.373184,-0.339864,2.068937,100331.94
85199,17.901,-4.582,6.265,-2.598267,-0.230782,2.168442,100331.63
85210,16.624,-4.254,6.046,-2.566872,-0.188745,2.298276,100331.63
85220,14.473,-5.542,6.078,-2.333276,-0.215882,2.491432,100333.19
85229,13.053,-7.317,6.615,-1.921955,-0.334543,2.721836,100332.67
85239,13.102,-7.854,6.674,-1.485093,-0.486726,2.858588,100331.31
85250,12.737,-7.616,5.971,-1.219038,-0.567607,2.793671,100331.31
85259,11.563,-7.346,4.378,-1.148268,-0.555901,2.625524,100331.31
85269,9.847,-7.417,3.148,-1.215314,-0.482469,2.473341,100331.98
85279,8.060,-8.144,2.566,-1.214249,-0.466506,2.424387,100334.23
85289,7.065,-7.969,1.976,-1.135497,-0.440433,2.389267,100333.19
85295,6.480,-7.130,1.663,-1.041314,-0.378708,2.263157,100331.09
85304,5.939,-6.386,1.621,-0.983846,-0.244084,1.998167,100331.09
85314,4.045,-5.771,1.857,-0.984910,-0.010488,1.596424,100334.06
85324,2.231,-5.672,1.163,-1.075369,0.265145,1.186699,100334.91
85335,1.172,-5.664,0.696,-1.181791,0.484374,0.805709,100332.56
85344,1.963,-3.625,0.525,-1.221699,0.641878,0.441213,100331.05
85354,2.917,-1.082,0.215,-1.190837,0.735530,0.023507,100331.05
85364,3.329,0.931,-0.055,-1.023222,0.779695,-0.389410,100333.27
85374,3.647,2.357,-0.420,-0.669369,0.730209,-0.725703,100333.16
85385,3.750,3.241,-0.477,-0.129278,0.583346,-0.967281,100331.87
85394,3.833,3.270,-0.263,0.527346,0.424246,-1.151923,100330.71
85404,3.943,2.350,-0.045,1.192483,0.285897,-1.324859,100330.71
85414,3.791,1.023,0.139,1.792171,0.163512,-1.501519,100330.05
85425,3.488,-0.485,0.319,2.282244,0.072521,-1.698932,100330.20
85434,3.414,-1.762,0.215,2.644078,0.012925,-1.930400,100328.91
85444,3.593,-2.788,0.044,2.862243,-0.016341,-2.208693,100326.97
85454,4.041,-3.645,-0.104,2.923968,-0.004635,-2.531152,100326.97
85465,4.594,-4.251,-0.262,2.831381,0.040594,-2.873830,100328.24
85474,4.992,-4.706,-0.139,2.624390,0.119347,-3.210656,100327.10
85484,5.360,-4.766,0.057,2.355675,0.236411,-3.507041,100326.63
85494,5.818,-4.559,0.336,2.075253,0.367310,-3.764050,100325.32
85505,6.222,-4.501,0.573,1.846446,0.477989,-3.993922,100325.32
85515,6.602,-4.724,0.792,1.688941,0.550356,-4.198783,100329.13
85524,6.948,-5.370,0.951,1.574006,0.593989,-4.393003,100327.30
85530,7.253,-6.036,1.007,1.488336,0.635493,-4.541462,100326.68
85539,7.580,-6.751,0.964,1.384043,0.704135,-4.693113,100326.68
85550,8.168,-7.507,0.833,1.235052,0.836631,-4.918196,100327.73
85560,8.968,-7.804,0.744,1.145657,0.999988,-5.130507,100327.73
85569,10.032,-7.868,0.657,1.218024,1.122906,-5.289608,100329.91
85579,11.220,-8.410,0.501,1.500575,1.148979,-5.349737,100327.34
85590,12.220,-9.806,0.572,1.917749,1.056924,-5.272049,100328.03
85600,12.736,-12.200,0.861,2.279051,0.844612,-5.108691,100328.03
85609,12.577,-14.771,0.795,2.402501,0.598778,-4.944801,100328.03
85619,12.174,-16.732,0.349,2.243932,0.478521,-4.803792,100330.85
85629,11.774,-17.711,0.199,1.897528,0.543438,-4.667572,100331.32
85640,11.154,-17.454,0.609,1.523455,0.698814,-4.512728,100332.88
85649,10.328,-16.302,1.389,1.257933,0.818539,-4.257316,100331.79
85659,9.162,-15.330,2.238,1.162153,0.861108,-3.842802,100331.79
85669,8.047,-14.916,2.634,1.179180,0.849401,-3.280894,100333.89
85680,7.619,-15.189,1.880,1.188226,0.835566,-2.670564,100333.42
85690,7.550,-16.502,-0.433,1.080208,0.844080,-2.173042,100333.91
85699,6.116,-18.516,-1.915,0.833841,0.836099,-1.879317,100333.91
85709,4.680,-18.507,-1.841,0.318759,0.839291,-1.529189,100338.02
85720,4.764,-17.642,-1.132,-0.240489,0.772245,-1.010382,100336.66
85730,5.310,-15.437,-0.885,-0.482598,0.562594,-0.392070,100336.66
85739,5.839,-13.684,-0.915,-0.278268,0.263548,0.239544,100334.20
85749,5.664,-13.669,-1.347,0.154337,-0.129681,0.858920,100331.50
85760,6.067,-13.541,-1.608,0.501805,-0.472359,1.451158,100331.50
85770,11.573,-4.104,0.921,0.460300,-0.480341,1.555451,100334.78
85780,14.988,4.576,4.946,-0.165461,0.068264,0.781764,100333.31
85789,16.776,0.192,3.075,-0.657131,0.534392,0.575305,100330.61
85799,16.707,-5.415,1.194,-0.537406,0.275787,1.165415,100334.78
85810,11.988,-6.042,2.793,-0.211755,-0.102011,1.532570,100335.55
85820,9.094,-5.323,5.131,0.193713,-0.029112,1.666130,100335.13
85829,10.647,-7.530,4.285,0.942923,-0.200983,1.873121,100332.94
85839,10.594,-8.058,3.236,1.414373,-0.702231,2.043928,100334.28
85850,8.180,-6.372,3.010,1.186098,-0.757038,1.951873,100334.28
85860,6.115,-5.542,3.272,0.641217,-0.528231,1.759781,100334.28
85869,5.072,-6.230,2.847,0.045254,-0.320176,1.580460,100331.74
85879,6.109,-6.072,1.906,-0.540066,-0.066892,1.432002,100331.38
85890,8.334,-4.335,1.607,-0.858800,0.132649,1.308552,100333.73
85900,9.803,-2.503,1.916,-0.790158,0.141695,1.255873,100332.05
85910,10.051,-1.568,2.099,-0.418745,0.017714,1.276626,100332.05
85919,9.700,-1.926,2.113,0.059089,-0.139259,1.339415,100331.81
85929,9.089,-3.041,2.453,0.425713,-0.259515,1.376662,100333.33
85940,8.389,-4.383,2.936,0.561933,-0.307405,1.345268,100333.91
85950,7.735,-5.757,3.069,0.456043,-0.278139,1.251084,100333.91
85959,7.478,-6.357,2.969,0.168704,-0.186616,1.134020,100333.91
85969,7.665,-5.998,2.935,-0.163333,-0.064231,1.010039,100334.77
85980,8.074,-4.790,3.059,-0.390011,0.021971,0.913727,100333.21
85990,8.496,-3.450,3.202,-0.415021,0.025163,0.870094,100332.59
85999,8.723,-2.755,3.397,-0.250067,-0.050928,0.873819,100333.52
86009,8.664,-2.971,3.518,-0.031369,-0.152029,0.900424,100333.52
86020,8.390,-3.932,3.216,0.093676,-0.216947,0.920644,100334.37
86030,8.154,-4.987,2.752,0.048979,-0.220671,0.932883,100332.12
86040,8.032,-5.446,2.416,-0.137791,-0.157350,0.928094,100332.38
86049,8.046,-5.289,2.359,-0.362342,-0.053057,0.913195,100331.53
86060,8.231,-4.742,2.479,-0.502287,0.017182,0.905745,100334.98
86070,8.263,-4.451,2.567,-0.500158,0.007604,0.911066,100333.58
86079,8.183,-4.548,2.576,-0.409167,-0.034433,0.914259,100333.58
86089,7.989,-4.779,2.646,-0.314984,-0.073809,0.908406,100330.97
86099,7.750,-5.011,2.680,-0.259645,-0.098818,0.897764,100331.75
86110,7.589,-5.181,2.656,-0.256984,-0.097222,0.878076,100331.75
86120,7.548,-5.283,2.687,-0.288378,-0.074341,0.854663,100335.33
86129,7.627,-5.439,2.619,-0.318177,-0.051993,0.828057,100333.45
86139,7.640,-5.593,2.382,-0.329883,-0.039754,0.799855,100331.53
86150,7.692,-5.649,2.195,-0.327222,-0.036029,0.776443,100330.17
86160,7.765,-5.718,2.097,-0.319241,-0.033369,0.755158,100330.17
86170,7.885,-5.703,2.019,-0.308066,-0.032305,0.740791,100332.72
86179,7.884,-5.813,2.082,-0.303810,-0.023791,0.731745,100332.84
86190,7.849,-5.866,2.110,-0.316048,-0.006231,0.722699,100332.80
86200,7.808,-5.949,2.188,-0.336800,0.013457,0.711525,100332.80
86209,7.844,-6.037,2.282,-0.361810,0.023567,0.706736,100332.80
86219,7.887,-5.989,2.402,-0.394800,0.035273,0.706736,100334.83
86230,7.886,-5.965,2.576,-0.445351,0.051769,0.715250,100330.92
86240,7.923,-5.961,2.729,-0.512397,0.068796,0.736002,100330.75
86250,8.090,-5.816,2.766,-0.591149,0.090613,0.775378,100333.27
86259,8.214,-5.552,2.804,-0.673626,0.099659,0.834975,100333.27
86269,8.339,-5.440,2.871,-0.733754,0.081567,0.915855,100334.38
86280,8.530,-5.554,3.003,-0.768341,0.037402,1.009507,100333.10
86290,8.883,-5.843,3.035,-0.788030,-0.011020,1.103690,100332.13
86300,9.228,-6.246,2.603,-0.822617,-0.064763,1.181378,100332.13
86309,9.361,-6.552,2.214,-0.866250,-0.111589,1.257470,100332.88
86320,9.523,-6.564,1.914,-0.901369,-0.149369,1.324516,100332.88
86330,9.709,-6.449,1.750,-0.916268,-0.208433,1.401139,100331.58
86340,9.771,-6.475,1.812,-0.889663,-0.289846,1.480424,100330.58
86349,9.970,-6.740,1.850,-0.855075,-0.369662,1.561304,100332.09
86355,10.090,-7.044,1.785,-0.850818,-0.418084,1.616112,100332.09
86365,10.140,-7.224,1.704,-0.877956,-0.454268,1.671451,100333.58
86375,10.254,-7.186,1.772,-0.947662,-0.493644,1.743286,100333.27
86384,10.559,-6.978,2.052,-1.032268,-0.531956,1.811396,100330.13
86394,10.975,-6.960,2.414,-1.107828,-0.575057,1.901323,100330.75
86405,11.370,-7.305,2.613,-1.191369,-0.607515,1.991781,100330.75
86415,12.055,-8.076,2.623,-1.344084,-0.603258,2.063084,100331.30
86425,13.622,-8.619,2.860,-1.652176,-0.523442,2.105653,100331.30
86434,16.066,-7.914,3.537,-2.138524,-0.345717,2.138644,100332.55
86445,18.165,-6.009,4.418,-2.628065,-0.171717,2.208350,100330.52
86455,18.878,-4.202,4.758,-2.837184,-0.134470,2.307322,100330.52
86465,18.572,-3.302,5.292,-2.774395,-0.154158,2.415341,100332.17
86470,17.656,-3.472,5.722,-2.614230,-0.197791,2.512185,100329.45
86479,15.814,-4.728,6.260,-2.301882,-0.328158,2.643616,100329.45
86490,13.587,-7.110,7.075,-1.705919,-0.576653,2.888386,100328.63
86500,13.092,-8.379,6.813,-1.124323,-0.802800,3.060790,100328.89
86510,12.609,-8.355,6.300,-0.782708,-0.879423,3.005982,100328.89
86520,11.928,-7.498,5.099,-0.699699,-0.804396,2.830918,100331.63
86530,10.600,-7.166,3.612,-0.779516,-0.719790,2.612221,100330.77
86540,7.915,-8.137,2.732,-0.832195,-0.766084,2.510056,100328.00
86550,6.034,-8.107,1.704,-0.808782,-0.754910,2.440882,100328.00
86559,5.459,-6.685,1.128,-0.739075,-0.610708,2.168974,100328.00
86569,3.889,-6.485,1.188,-0.806653,-0.361681,1.702846,100333.24
86580,1.962,-6.176,1.357,-0.922121,-0.072745,1.260130,100332.93
86590,0.736,-5.908,0.945,-1.105522,0.222221,0.787794,100330.23
86599,1.022,-4.315,0.949,-1.190305,0.409879,0.406626,100330.23
86609,2.146,-1.585,0.639,-1.179662,0.544502,-0.028107,100330.23
86620,2.736,0.513,0.199,-1.061534,0.606759,-0.473483,100333.25
86630,3.119,2.049,-0.229,-0.790158,0.574833,-0.852345,100329.50
86640,3.346,3.054,-0.418,-0.327755,0.429567,-1.135960,100330.13
86650,3.483,3.382,-0.294,0.286300,0.252374,-1.341886,100330.13
86660,3.772,2.773,-0.086,0.968997,0.110301,-1.536638,100330.16
86670,3.950,1.470,0.008,1.622428,-0.017406,-1.734051,100330.16
86680,3.854,-0.021,0.102,2.165180,-0.125956,-1.944235,100328.53
86689,3.693,-1.493,-0.041,2.537124,-0.197259,-2.185280,100329.48
86700,3.516,-2.742,-0.238,2.723363,-0.226525,-2.441225,100326.34
86710,3.503,-3.862,-0.427,2.740922,-0.216947,-2.695574,100326.34
86720,3.750,-4.607,-0.465,2.625455,-0.168525,-2.969610,100329.37
86730,4.187,-5.005,-0.368,2.417932,-0.088176,-3.263335,100328.63
86739,4.592,-5.168,-0.038,2.167308,0.019310,-3.560252,100327.16
86750,5.093,-5.153,0.256,1.924134,0.140631,-3.834289,100325.68
86760,5.669,-4.866,0.538,1.717675,0.251310,-4.073738,100328.65
86770,6.188,-4.771,0.822,1.570281,0.346558,-4.291903,100322.80
86780,6.610,-5.211,1.146,1.471308,0.410943,-4.488783,100325.77
86790,6.868,-6.249,1.387,1.384575,0.463622,-4.667040,100325.77
86800,7.190,-7.471,1.451,1.285602,0.546099,-4.837315,100326.46
86810,7.627,-8.357,1.339,1.187162,0.671144,-5.006526,100326.46
86820,8.342,-8.506,1.351,1.164813,0.818539,-5.138489,100329.48
86830,9.457,-8.413,1.527,1.313804,0.923897,-5.215645,100326.97
86840,10.680,-8.835,1.740,1.627217,0.931878,-5.236929,100328.53
86850,11.836,-10.257,1.994,1.986923,0.842484,-5.190104,100329.69
86860,12.147,-12.402,2.227,2.205088,0.697750,-5.091132,100329.69
86871,11.815,-14.761,1.979,2.136446,0.609420,-4.992159,100330.68
86880,11.395,-16.579,1.447,1.811859,0.684979,-4.893187,100330.76
86890,11.145,-17.455,1.279,1.411180,0.901548,-4.767076,100333.79
86900,10.659,-17.622,1.764,1.029657,1.133016,-4.594673,100333.79
86909,9.763,-17.177,2.294,0.668887,1.308612,-4.295628,100333.79
86920,8.643,-16.076,2.571,0.370906,1.428337,-3.832160,100333.88
86930,7.648,-14.984,2.647,0.219254,1.503896,-3.284619,100333.10
86940,7.021,-14.832,1.910,0.129328,1.559768,-2.749849,100333.99
86949,6.789,-16.490,0.016,-0.072874,1.612447,-2.363537,100331.54
86960,5.146,-17.631,-1.153,-0.466635,1.642777,-2.123556,100331.54
86970,4.182,-16.621,-0.845,-1.063662,1.677896,-1.752675,100335.49
86980,4.211,-14.790,-0.216,-1.509570,1.547529,-1.250363,100333.88
86990,5.155,-12.426,0.348,-1.515424,1.319786,-0.710272,100333.34
87000,6.492,-11.774,-1.359,-1.127516,0.977108,-0.144639,100333.34
87010,6.653,-11.796,-3.007,-0.598066,0.426906,0.493892,100335.22
87020,7.005,-11.131,-4.139,-0.069681,-0.165864,1.141470,100335.22
87030,11.899,-2.436,-0.909,0.504465,-0.614965,1.524057,100333.91
87040,17.912,10.951,5.844,0.816814,-0.473956,0.901488,100335.47
87050,20.428,6.056,4.833,0.916318,-0.104139,0.513048,100332.81
87061,20.091,-7.834,0.664,1.378012,-0.596164,1.549775,100336.41
87070,13.177,-11.861,0.270,1.494189,-1.060341,2.093414,100336.41
87080,7.829,-10.943,1.326,1.168538,-0.703295,2.093414,100335.67
87090,8.401,-12.248,1.317,0.999327,-0.281864,2.049249,100331.56
87100,8.372,-11.217,2.358,0.673676,-0.302616,2.062020,100333.49
87110,7.161,-7.022,4.279,0.029823,-0.123295,1.913029,100335.10
87120,6.751,-3.784,5.792,-0.492176,0.038998,1.709763,100334.79
87131,6.407,-3.861,5.516,-0.718323,-0.062103,1.559708,100334.48
87140,7.364,-4.601,3.727,-0.834855,-0.148305,1.476167,100334.48
87150,9.076,-3.832,2.348,-0.839644,-0.161075,1.397415,100332.76
87160,10.012,-2.611,1.752,-0.651809,-0.204708,1.358571,100332.76
87170,9.669,-2.138,1.516,-0.324030,-0.287717,1.388901,100333.64
87180,8.872,-2.894,1.580,-0.006892,-0.338268,1.429341,100333.38
87190,8.356,-4.418,1.978,0.145823,-0.339864,1.413378,100333.70
87200,7.934,-5.554,2.761,0.089952,-0.299424,1.331433,100335.94
87211,7.775,-5.652,3.305,-0.089901,-0.233974,1.217029,100335.94
87220,7.777,-5.013,3.319,-0.259112,-0.183956,1.105819,100336.24
87230,8.115,-4.123,3.018,-0.326690,-0.171185,1.038241,100333.84
87240,8.577,-3.285,2.840,-0.250067,-0.203644,1.015892,100334.84
87250,8.640,-3.011,2.911,-0.069149,-0.267497,1.031323,100334.84
87260,8.247,-3.566,2.921,0.111236,-0.336139,1.050479,100334.84
87270,7.793,-4.582,2.793,0.193713,-0.367002,1.049947,100333.83
87280,7.621,-5.355,2.644,0.152208,-0.344121,1.013231,100333.94
87290,7.595,-5.758,2.384,0.015456,-0.278139,0.966938,100334.30
87296,7.775,-5.612,2.279,-0.113314,-0.212690,0.931819,100332.31
87305,8.072,-5.283,2.172,-0.220268,-0.154690,0.902553,100332.31
87315,8.514,-4.657,2.137,-0.313388,-0.100947,0.886057,100336.38
87325,8.607,-4.238,2.225,-0.329883,-0.080194,0.897764,100335.13
87335,8.269,-4.279,2.461,-0.287314,-0.086580,0.926498,100334.45
87345,7.840,-4.821,2.595,-0.239956,-0.101479,0.939268,100331.89
87355,7.503,-5.503,2.614,-0.232507,-0.105736,0.922241,100331.89
87365,7.336,-5.767,2.587,-0.260709,-0.097222,0.890314,100332.31
87375,7.352,-5.664,2.592,-0.301681,-0.080727,0.855195,100333.05
87385,7.477,-5.503,2.488,-0.338929,-0.062635,0.826993,100332.31
87395,7.564,-5.522,2.303,-0.367663,-0.047736,0.813690,100332.38
87405,7.605,-5.500,2.026,-0.393736,-0.032837,0.814754,100332.38
87415,7.654,-5.279,2.037,-0.407571,-0.018470,0.822736,100334.35
87426,7.759,-5.171,2.242,-0.385755,-0.018470,0.838167,100333.15
87435,7.834,-5.287,2.304,-0.347975,-0.027516,0.854663,100332.46
87445,7.853,-5.612,2.322,-0.326158,-0.030708,0.868498,100330.48
87455,7.838,-5.861,2.257,-0.331479,-0.027516,0.875415,100330.48
87465,7.850,-5.834,2.298,-0.357553,-0.011552,0.881268,100333.95
87475,7.829,-5.938,2.336,-0.379369,0.000686,0.886589,100332.12
87485,7.776,-6.147,2.208,-0.393204,0.008136,0.896167,100332.65
87495,7.767,-6.200,2.134,-0.418745,0.016649,0.904681,100333.85
87505,7.746,-6.234,2.163,-0.447479,0.022503,0.915323,100333.85
87516,7.684,-6.298,2.172,-0.476213,0.020374,0.933947,100333.38
87525,7.680,-6.225,2.281,-0.519846,0.021438,0.958424,100333.45
87531,7.722,-6.175,2.406,-0.544323,0.010796,0.981837,100331.82
87540,7.735,-6.297,2.560,-0.551241,-0.014213,1.012699,100331.82
87550,7.738,-6.624,2.729,-0.563479,-0.046672,1.051011,100333.29
87561,7.761,-7.055,2.883,-0.597534,-0.060506,1.082938,100333.29
87570,8.220,-7.255,2.547,-0.665644,-0.057846,1.104222,100335.47
87580,8.575,-7.416,2.185,-0.758231,-0.062635,1.120185,100331.61
87590,8.961,-7.171,2.042,-0.822085,-0.075406,1.160094,100332.50
87601,9.171,-6.836,1.961,-0.841241,-0.112653,1.215433,100332.50
87610,9.231,-6.824,1.930,-0.829534,-0.171717,1.285672,100332.50
87620,9.399,-7.196,1.967,-0.814635,-0.232910,1.361763,100335.24
87630,9.513,-7.462,2.074,-0.839112,-0.273882,1.432002,100332.85
87641,9.495,-7.576,2.182,-0.902965,-0.299956,1.499580,100333.37
87650,9.676,-7.584,2.262,-0.981717,-0.314855,1.568222,100331.85
87660,9.958,-7.734,2.294,-1.068451,-0.329754,1.640057,100331.85
87670,10.410,-7.890,2.475,-1.181259,-0.339864,1.713488,100331.70
87681,11.229,-7.825,2.870,-1.361112,-0.324433,1.787983,100333.88
87691,12.379,-7.713,3.149,-1.585662,-0.293571,1.892277,100331.32
87700,13.728,-7.832,3.089,-1.791056,-0.266965,2.000295,100331.32
87710,15.345,-7.948,2.813,-2.027845,-0.225993,2.085433,100331.93
87720,16.817,-7.737,2.605,-2.301882,-0.161075,2.143433,100331.62
87730,17.390,-7.018,2.734,-2.581239,-0.062103,2.165781,100331.62
87740,16.724,-6.214,3.053,-2.765349,0.049108,2.182276,100330.73
87750,15.199,-5.728,3.961,-2.717459,0.082099,2.237616,100331.35
87760,13.444,-6.352,5.253,-2.382762,-0.017938,2.373836,100331.35
87766,13.061,-7.089,5.676,-2.014010,-0.163736,2.495157,100330.63
87775,13.193,-7.095,5.844,-1.664414,-0.326029,2.545175,100332.14
87785,12.682,-6.569,5.590,-1.304176,-0.475020,2.480258,100330.67
87795,11.322,-5.513,4.924,-1.050360,-0.544194,2.360533,100330.20
87805,9.174,-4.773,4.310,-0.850818,-0.556433,2.221653,100330.20
87816,6.468,-6.230,3.181,-0.658195,-0.595809,2.146093,100331.20
87825,4.087,-8.151,2.018,-0.427259,-0.716066,2.228038,100331.24
87835,4.053,-8.382,0.404,-0.186745,-0.778322,2.187066,100333.34
87845,2.825,-8.995,0.283,-0.112782,-0.700102,1.913561,100331.55
87856,1.952,-8.118,1.171,-0.257516,-0.363277,1.538424,100331.55
87865,1.619,-6.518,1.317,-0.624140,0.100723,0.981305,100333.01
87875,1.306,-5.345,0.599,-1.029075,0.481181,0.402369,100330.20
87885,2.174,-2.855,-0.044,-1.310029,0.729144,-0.043539,100332.07
87896,3.346,0.087,-0.652,-1.414855,0.831842,-0.409098,100330.30
87905,4.001,2.334,-0.647,-1.266928,0.777034,-0.729960,100330.30
87915,4.211,3.501,-0.587,-0.824745,0.604631,-0.982712,100332.16
87925,4.320,3.858,-0.487,-0.157479,0.369438,-1.162033,100330.28
87936,4.515,3.172,-0.271,0.621529,0.139567,-1.323263,100327.67
87946,4.532,1.531,-0.196,1.371804,-0.052525,-1.494070,100330.13
87955,4.391,-0.376,-0.195,1.974152,-0.197791,-1.684033,100330.13
87965,4.220,-1.942,-0.347,2.370042,-0.274947,-1.911776,100329.20
87975,4.086,-3.194,-0.708,2.548831,-0.286121,-2.173574,100329.20
87986,4.093,-4.075,-0.969,2.529675,-0.236103,-2.460381,100329.51
87995,4.295,-4.580,-0.986,2.350886,-0.131277,-2.756766,100327.01
88001,4.603,-4.698,-0.752,2.158794,-0.032837,-2.975996,100327.01
88010,5.004,-4.705,-0.375,1.964574,0.058154,-3.187243,100327.01
88020,5.566,-4.906,0.161,1.728317,0.139567,-3.447445,100329.31
88031,5.896,-5.560,0.392,1.525052,0.176815,-3.682105,100326.50
88041,6.013,-6.316,0.347,1.323914,0.236943,-3.897077,100328.64
88050,6.204,-6.864,0.336,1.121180,0.371567,-4.101408,100324.59
88060,6.586,-7.177,0.574,0.926428,0.548759,-4.327554,100328.51
88071,6.935,-7.295,0.813,0.778502,0.730741,-4.580838,100327.46
88080,7.366,-7.261,0.973,0.717309,0.912722,-4.810709,100327.46
88090,8.159,-7.225,0.891,0.767859,1.069695,-4.953847,100328.77
88100,9.223,-7.251,0.828,0.945584,1.154832,-4.985774,100327.30
88111,10.181,-7.827,0.897,1.211639,1.135144,-4.942141,100327.30
88121,10.767,-9.065,0.950,1.473969,1.029786,-4.875095,100330.45
88130,11.023,-10.591,0.908,1.665529,0.913787,-4.825077,100329.66
88140,11.203,-11.937,0.999,1.785253,0.839823,-4.790490,100330.91
88151,11.384,-12.861,0.959,1.857088,0.814282,-4.747388,100329.09
88161,11.790,-13.559,0.897,1.877840,0.829181,-4.692049,100334.47
88171,12.014,-14.316,0.919,1.827822,0.862172,-4.611168,100332.23
88180,11.542,-15.124,1.207,1.668721,0.881860,-4.457921,100329.98
88190,10.515,-15.256,1.631,1.382978,0.888777,-4.201976,100329.63
88201,9.514,-14.218,2.190,1.084465,0.916447,-3.850252,100329.63
88210,9.077,-12.844,2.686,0.938135,0.968062,-3.450105,100329.63
88220,9.109,-12.533,2.250,0.985492,1.006374,-3.057408,100332.86
88230,8.824,-14.012,0.872,1.065841,1.000520,-2.728032,100334.47
88236,7.761,-15.364,-0.142,1.016887,0.966465,-2.527959,100331.39
88246,6.325,-16.150,-0.900,0.731144,0.964337,-2.271482,100332.23
88255,5.055,-16.446,-1.115,0.160190,0.992007,-1.860693,100332.23
88265,4.743,-15.344,-0.919,-0.390011,0.976043,-1.422767,100333.14
88275,5.313,-13.687,-0.620,-0.626268,0.866429,-0.927905,100335.86
88286,5.824,-12.473,-0.299,-0.507076,0.608356,-0.362272,100335.13
88296,5.848,-11.291,-0.063,-0.206966,0.264613,0.236883,100330.84
88305,5.759,-10.238,0.378,0.170300,-0.087644,0.786021,100330.84
88315,5.958,-9.339,1.053,0.564061,-0.350506,1.181378,100335.96
88326,6.137,-9.597,0.256,0.862043,-0.568671,1.501176,100333.98
88336,7.526,-4.283,2.330,0.953566,-0.601130,1.577268,100334.54
88345,10.324,1.834,3.599,0.647603,-0.192470,1.078681,100330.59
88355,13.826,3.352,2.695,0.176685,0.157659,0.650865,100330.59
88366,16.763,0.980,1.429,-0.101608,0.186925,0.654589,100333.92
88376,16.523,-2.665,0.621,-0.075535,-0.010488,0.950442,100336.42
88385,14.130,-4.526,0.964,0.167640,-0.140323,1.260662,100332.20
88395,12.481,-4.795,1.162,0.402832,-0.125424,1.457543,100333.45
88406,9.742,-5.297,3.254,0.600777,-0.064763,1.560772,100333.45
88416,8.174,-6.167,5.475,0.855125,-0.052525,1.712956,100335.23
88426,8.751,-6.084,5.866,1.045089,-0.210029,1.809268,100334.83
88435,8.069,-5.939,5.297,0.999327,-0.445754,1.744882,100335.19
88445,6.786,-6.377,4.283,0.673676,-0.502158,1.603341,100333.41
88456,6.282,-6.720,3.094,0.129328,-0.341992,1.461800,100333.41
88466,6.827,-5.731,1.700,-0.496965,-0.069020,1.344204,100334.51
88471,7.859,-4.125,0.880,-0.828470,0.102319,1.279818,100332.90
88480,9.099,-2.812,0.815,-0.884874,0.164044,1.259598,100332.90
88491,10.406,-1.996,1.301,-0.615626,0.089016,1.309084,100331.27
88501,10.743,-2.323,1.943,-0.108525,-0.111057,1.387837,100331.80
88511,9.847,-3.310,2.444,0.346961,-0.294103,1.422424,100331.80
88521,8.444,-4.428,2.793,0.550759,-0.379240,1.388901,100334.12
88530,7.466,-5.568,2.799,0.448061,-0.356892,1.300571,100332.24
88541,7.246,-6.201,2.582,0.139438,-0.260048,1.184039,100333.45
88551,7.677,-5.569,2.711,-0.183021,-0.127552,1.067507,100333.45
88560,8.283,-4.100,3.178,-0.339993,-0.040818,0.973855,100333.45
88570,8.587,-2.859,3.412,-0.271883,-0.066360,0.937672,100330.71
