5,-9.715671,0.207098,0.633266,-0.001814,-0.002867,-0.003762,100326.710938
15,-9.738416,0.118513,0.603339,0.000846,-0.003399,-0.002698,100326.820312
25,-9.715671,0.150835,0.645237,-0.001814,-0.001803,-0.002166,100326.820312
35,-9.728839,0.167594,0.639252,-0.002347,-0.000206,-0.001634,100326.820312
45,-9.771935,0.150835,0.622492,-0.002879,-0.000206,-0.000037,100326.820312
55,-9.753978,0.135272,0.605733,-0.003943,-0.000206,0.001027,100326.820312
65,-9.746795,0.154426,0.616507,-0.007136,-0.000206,0.001559,100326.843750
75,-9.736021,0.181959,0.612916,-0.006603,-0.001270,0.000495,100326.843750
90,-9.727641,0.203507,0.651223,-0.006071,-0.001803,0.000495,100326.843750
100,-9.732430,0.187945,0.620098,-0.002347,-0.000206,-0.000037,100326.843750
110,-9.773131,0.172383,0.623690,-0.000218,-0.000206,0.000495,100326.843750
120,-9.704897,0.196325,0.647632,-0.001282,0.000326,-0.000569,100326.773438
130,-9.751583,0.158017,0.602142,0.000846,0.000858,-0.001101,100326.773438
145,-9.732430,0.146046,0.651223,0.001378,-0.000206,-0.000037,100326.773438
155,-9.726444,0.178368,0.630872,0.001378,0.000326,-0.000037,100326.773438
170,-9.764751,0.155623,0.599748,0.000846,-0.000206,0.001559,100326.773438
180,-9.715671,0.190339,0.608127,-0.003943,-0.000738,0.000495,100326.703125
190,-9.736021,0.207098,0.587777,-0.002879,-0.002335,-0.000569,100326.703125
200,-9.728839,0.175974,0.614113,0.000314,-0.002335,-0.001634,100326.703125
210,-9.731233,0.185551,0.646434,-0.000218,-0.001270,-0.003230,100326.703125
220,-9.742006,0.173580,0.622492,0.003507,-0.001270,-0.004294,100326.703125
230,-9.774328,0.148441,0.573411,0.001378,-0.002867,-0.003762,100326.632812
240,-9.738416,0.162806,0.609324,0.000314,-0.002335,-0.002698,100326.632812
250,-9.714474,0.149638,0.597353,0.000846,-0.001270,-0.004294,100326.632812
260,-9.691729,0.166397,0.588974,0.000846,-0.002335,-0.002166,100326.632812
270,-9.726444,0.174777,0.634463,0.000846,-0.002335,-0.003762,100326.632812
280,-9.743204,0.199916,0.579397,0.001378,-0.002335,-0.002166,100326.632812
290,-9.730036,0.136469,0.609324,0.002974,-0.001803,-0.002166,100326.757812
300,-9.756371,0.134075,0.673968,0.001378,-0.001803,-0.001634,100326.757812
310,-9.739613,0.171185,0.657208,0.002442,-0.001803,-0.000569,100326.757812
320,-9.773131,0.146046,0.621295,0.001378,-0.000738,-0.001101,100326.757812
330,-9.727641,0.171185,0.620098,-0.000218,-0.001270,-0.000569,100326.757812
340,-9.746795,0.178368,0.641646,-0.003411,-0.002335,-0.001634,100326.625000
350,-9.724051,0.177171,0.598550,-0.002347,-0.002867,-0.001634,100326.625000
365,-9.714474,0.178368,0.623690,-0.000218,-0.002867,-0.003762,100326.625000
375,-9.789890,0.185551,0.633266,0.000846,-0.000738,-0.004294,100326.625000
385,-9.758766,0.147243,0.635661,-0.000750,-0.000738,-0.003762,100326.625000
395,-9.709685,0.150835,0.591368,-0.002347,-0.001270,-0.003762,100326.601562
405,-9.752781,0.137667,0.644040,-0.000218,0.000326,-0.003230,100326.601562
415,-9.739613,0.185551,0.647632,-0.000218,0.000326,-0.002166,100326.601562
425,-9.744401,0.135272,0.629675,0.002974,0.000858,-0.001634,100326.601562
435,-9.739613,0.158017,0.623690,0.000314,0.001390,0.000495,100326.601562
445,-9.747993,0.158017,0.652420,0.000846,0.001922,0.000495,100326.601562
454,-9.743204,0.153229,0.606930,0.000314,0.001922,0.000495,100326.585938
465,-9.745598,0.173580,0.654814,0.000314,0.001922,-0.000569,100326.585938
475,-9.724051,0.173580,0.614113,-0.000218,0.001922,-0.001101,100326.585938
485,-9.714474,0.153229,0.603339,0.002442,0.001390,-0.000569,100326.585938
495,-9.727641,0.149638,0.629675,0.001910,0.003519,-0.001101,100326.585938
505,-9.752781,0.143652,0.588974,-0.000218,0.002986,-0.000037,100326.750000
515,-9.751583,0.150835,0.623690,-0.001814,0.000858,0.002623,100326.750000
525,-9.728839,0.161609,0.616507,-0.001814,0.001922,0.001027,100326.750000
535,-9.753978,0.169988,0.620098,-0.000750,0.000858,0.001559,100326.750000
549,-9.738416,0.171185,0.606930,-0.001814,0.000326,-0.000037,100326.750000
560,-9.744401,0.162806,0.592565,-0.002879,0.000858,0.003155,100326.820312
570,-9.724051,0.152032,0.641646,-0.003411,0.001922,0.003688,100326.820312
580,-9.755175,0.141258,0.682347,-0.002879,0.001390,0.002623,100326.820312
590,-9.740809,0.179565,0.660800,-0.001282,0.002454,0.002623,100326.820312
599,-9.732430,0.191536,0.618901,0.000314,0.001390,0.001559,100326.820312
609,-9.744401,0.159214,0.633266,0.001378,0.002454,0.001559,100326.820312
620,-9.755175,0.174777,0.620098,-0.000750,0.002454,0.001027,100326.726562
630,-9.743204,0.180762,0.641646,0.001910,0.001922,0.000495,100326.726562
640,-9.756371,0.161609,0.635661,0.004039,0.000858,-0.000569,100326.726562
650,-9.745598,0.156820,0.615310,0.001910,0.001922,-0.001101,100326.726562
660,-9.715671,0.147243,0.609324,0.000314,0.000326,-0.000037,100326.726562
670,-9.751583,0.148441,0.603339,-0.000750,0.000858,0.000495,100326.617188
685,-9.742006,0.185551,0.696713,0.000314,-0.000206,0.001027,100326.617188
695,-9.720459,0.164003,0.628478,0.001910,0.000326,0.000495,100326.617188
705,-9.750386,0.168791,0.634463,0.002974,-0.000206,0.000495,100326.617188
715,-9.728839,0.158017,0.628478,0.002442,0.001390,-0.000037,100326.617188
725,-9.736021,0.161609,0.622492,0.001910,0.001390,0.000495,100326.507812
744,-9.751583,0.159214,0.681150,0.003507,0.000326,0.000495,100326.507812
754,-9.744401,0.143652,0.650026,0.006699,0.000858,-0.000037,100326.507812
764,-9.746795,0.123301,0.592565,0.008296,0.000858,0.001027,100326.507812
780,-9.737218,0.131681,0.623690,0.004571,0.000326,0.002623,100326.632812
794,-9.730036,0.144849,0.615310,-0.000750,-0.001270,0.002091,100326.632812
804,-9.733627,0.130484,0.555455,-0.002347,-0.001270,0.001559,100326.632812
814,-9.740809,0.149638,0.617704,-0.001282,-0.002867,0.002091,100326.632812
824,-9.725247,0.179565,0.636858,-0.002347,-0.004463,0.001027,100326.632812
835,-9.738416,0.168791,0.603339,-0.002347,-0.003399,0.001559,100326.585938
844,-9.751583,0.147243,0.657208,0.000314,-0.003399,-0.000569,100326.585938
854,-9.733627,0.161609,0.605733,0.000846,-0.002335,-0.002166,100326.585938
864,-9.750386,0.144849,0.628478,0.000314,-0.002867,-0.001101,100326.585938
874,-9.739613,0.155623,0.596156,-0.000750,-0.001803,-0.000569,100326.585938
885,-9.734824,0.143652,0.568623,-0.000218,-0.000738,-0.002698,100326.585938
894,-9.744401,0.158017,0.640449,0.000314,-0.001803,-0.002166,100326.507812
904,-9.743204,0.172383,0.669179,0.002442,-0.001803,-0.001101,100326.507812
914,-9.745598,0.185551,0.606930,0.004039,-0.001270,-0.000569,100326.507812
924,-9.731233,0.141258,0.638055,0.004039,0.000326,0.001559,100326.507812
935,-9.753978,0.140061,0.598550,0.001910,-0.000206,0.002623,100326.507812
944,-9.732430,0.174777,0.628478,0.000846,0.000326,0.004752,100326.507812
964,-9.710882,0.183156,0.650026,0.001910,0.001390,0.003155,100326.437500
974,-9.756371,0.150835,0.605733,0.002974,0.002454,0.001559,100326.437500
985,-9.765948,0.171185,0.588974,0.002442,0.000858,0.001559,100326.437500
994,-9.742006,0.155623,0.659603,0.002442,0.002986,0.001027,100326.437500
1004,-9.743204,0.167594,0.593762,0.001910,0.003519,0.002091,100326.585938
1014,-9.749189,0.152032,0.588974,0.001378,0.002986,0.002623,100326.585938
1024,-9.734824,0.155623,0.634463,0.001910,0.003519,0.004220,100326.585938
1035,-9.740809,0.162806,0.581791,-0.002347,0.004051,0.004220,100326.585938
1044,-9.739613,0.166397,0.629675,-0.004475,0.003519,0.004220,100326.585938
1054,-9.751583,0.154426,0.630872,-0.005539,0.003519,0.003155,100326.585938
1064,-9.728839,0.119710,0.652420,-0.003943,0.002986,0.003155,100326.632812
1074,-9.746795,0.158017,0.606930,-0.006603,0.002986,0.004752,100326.632812
1085,-9.737218,0.166397,0.587777,-0.007668,0.004583,0.004220,100326.632812
1094,-9.731233,0.175974,0.640449,-0.007136,0.002454,0.003688,100326.632812
1104,-9.726444,0.137667,0.642843,-0.007668,0.002986,0.003688,100326.632812
1114,-9.751583,0.192733,0.612916,-0.005007,0.003519,0.003688,100326.578125
1124,-9.709685,0.179565,0.597353,-0.003943,0.001922,0.003155,100326.578125
1135,-9.734824,0.183156,0.673968,-0.004475,0.001922,0.002091,100326.578125
1144,-9.738416,0.173580,0.653617,-0.001282,0.003519,0.000495,100326.578125
1154,-9.728839,0.159214,0.609324,-0.000218,0.002986,0.001027,100326.578125
1169,-9.762358,0.141258,0.599748,-0.001814,0.003519,-0.000569,100326.445312
1179,-9.714474,0.180762,0.652420,-0.001814,0.000326,-0.002698,100326.445312
1189,-9.732430,0.156820,0.647632,-0.002347,0.000858,-0.003762,100326.445312
1199,-9.761160,0.150835,0.591368,0.001378,0.000858,-0.002698,100326.445312
1209,-9.725247,0.125696,0.663194,0.001378,0.001922,-0.002166,100326.445312
1219,-9.758766,0.179565,0.604536,0.001378,0.001922,-0.000569,100326.445312
1229,-9.768343,0.148441,0.612916,-0.001814,0.003519,0.002091,100326.335938
1239,-9.756371,0.164003,0.587777,-0.001814,0.003519,0.002623,100326.335938
1249,-9.719262,0.142455,0.646434,-0.001282,0.004583,0.003155,100326.335938
1259,-9.737218,0.154426,0.617704,-0.000218,0.002986,0.002623,100326.335938
1269,-9.727641,0.167594,0.663194,0.000314,0.004051,0.001559,100326.335938
1279,-9.736021,0.141258,0.612916,-0.000750,0.002986,0.004220,100326.390625
1289,-9.761160,0.148441,0.639252,-0.000218,0.004051,0.004752,100326.390625
1299,-9.695320,0.169988,0.667982,-0.001814,0.004051,0.004752,100326.390625
1309,-9.739613,0.167594,0.626084,-0.002879,0.002454,0.004752,100326.390625
1319,-9.745598,0.142455,0.598550,-0.002879,0.001390,0.004752,100326.390625
1329,-9.712079,0.197522,0.592565,-0.003411,0.001390,0.004220,100326.390625
1339,-9.727641,0.141258,0.594959,-0.002347,-0.000206,0.001559,100326.390625
1349,-9.721656,0.173580,0.645237,-0.000750,-0.000738,0.000495,100326.390625
1359,-9.728839,0.209493,0.604536,0.000846,-0.000738,-0.001101,100326.390625
1369,-9.750386,0.155623,0.636858,0.003507,-0.000738,-0.003230,100326.390625
1379,-9.752781,0.154426,0.594959,0.005635,0.000858,-0.003230,100326.390625
1389,-9.724051,0.154426,0.597353,0.005103,-0.000206,-0.002166,100326.273438
1404,-9.756371,0.125696,0.627281,0.003507,0.000858,-0.000037,100326.273438
1454,-9.747993,0.144849,0.611719,0.006699,0.004051,0.004752,100326.156250
1469,-9.750386,0.141258,0.582988,0.005635,0.002986,0.003155,100326.156250
1479,-9.736021,0.160412,0.605733,0.002974,0.002454,0.004220,100326.156250
1499,-9.742006,0.156820,0.599748,0.002442,0.002986,0.006348,100326.054688
1509,-9.728839,0.161609,0.629675,0.003507,0.002454,0.002623,100326.054688
1519,-9.755175,0.195127,0.628478,0.002442,0.002454,-0.000037,100326.054688
1529,-9.744401,0.152032,0.612916,0.001378,0.001922,0.000495,100326.054688
1549,-9.727641,0.152032,0.639252,0.002974,0.003519,0.001559,100326.054688
1564,-9.739613,0.134075,0.650026,0.000846,0.003519,0.003688,100326.187500
1574,-9.734824,0.152032,0.592565,0.000314,0.002986,0.004220,100326.187500
1584,-9.744401,0.138864,0.644040,-0.000218,0.003519,0.005816,100326.187500
1604,-9.738416,0.152032,0.618901,0.001378,0.005647,0.006348,100326.187500
1619,-9.750386,0.155623,0.600945,-0.002347,0.002986,0.007412,100326.171875
1629,-9.742006,0.174777,0.663194,-0.002879,0.001922,0.006880,100326.171875
1639,-9.737218,0.173580,0.582988,-0.002347,0.003519,0.006880,100326.171875
1649,-9.701305,0.183156,0.659603,-0.002347,0.005115,0.005816,100326.171875
1659,-9.739613,0.161609,0.633266,-0.001282,0.002986,0.004752,100326.171875
1674,-9.733627,0.179565,0.602142,-0.002347,0.001922,0.004220,100326.093750
1684,-9.715671,0.162806,0.621295,-0.003943,0.001922,0.004220,100326.093750
1694,-9.740809,0.168791,0.565032,-0.002879,-0.000738,0.002091,100326.093750
1704,-9.742006,0.181959,0.605733,-0.003943,0.000326,0.001027,100326.093750
1714,-9.737218,0.120907,0.621295,-0.001282,-0.000206,0.001027,100326.093750
1724,-9.738416,0.155623,0.579397,0.000314,0.000326,0.001559,100326.031250
1734,-9.740809,0.161609,0.596156,-0.000750,0.000326,0.002091,100326.031250
1744,-9.733627,0.152032,0.608127,-0.002347,-0.001803,0.000495,100326.031250
1755,-9.761160,0.164003,0.591368,-0.004475,-0.000738,0.002091,100326.031250
1779,-9.742006,0.189142,0.598550,-0.002879,-0.000738,0.003155,100326.226562
1804,-9.734824,0.184354,0.630872,-0.001814,-0.001803,0.003155,100326.226562
1815,-9.710882,0.164003,0.611719,-0.001282,-0.003399,0.000495,100326.226562
1825,-9.725247,0.159214,0.592565,-0.001814,-0.002335,0.001559,100326.226562
1835,-9.751583,0.169988,0.584185,-0.002879,-0.002867,0.002091,100326.382812
1845,-9.747993,0.124498,0.609324,-0.003411,-0.003399,0.003688,100326.382812
1859,-9.725247,0.178368,0.605733,-0.004475,-0.003399,0.004752,100326.382812
1869,-9.752781,0.153229,0.604536,-0.003411,-0.002335,0.006348,100326.382812
1879,-9.745598,0.150835,0.599748,-0.002347,-0.002867,0.004752,100326.382812
1899,-9.713276,0.154426,0.658405,0.000314,-0.002867,0.004220,100326.367188
1909,-9.749189,0.161609,0.663194,0.001910,-0.003399,0.002623,100326.367188
1919,-9.730036,0.152032,0.633266,0.002442,-0.003399,0.003155,100326.367188
1929,-9.742006,0.186748,0.597353,-0.000218,-0.002867,0.002623,100326.367188
1944,-9.737218,0.166397,0.659603,0.002442,-0.001270,0.002091,100326.351562
1959,-9.744401,0.164003,0.614113,0.003507,-0.003931,0.002091,100326.351562
1969,-9.744401,0.178368,0.632069,0.001378,-0.003399,0.003155,100326.351562
1979,-9.756371,0.137667,0.670376,0.001910,-0.003931,0.001559,100326.351562
1989,-9.746795,0.156820,0.621295,0.000846,-0.003931,0.002623,100326.351562
2004,-9.737218,0.161609,0.612916,-0.000218,-0.002335,0.004752,100326.343750
2014,-9.756371,0.146046,0.620098,0.000846,-0.001803,0.005816,100326.343750
2024,-9.742006,0.184354,0.623690,-0.000750,-0.001803,0.006880,100326.343750
2034,-9.725247,0.183156,0.620098,-0.002347,-0.000206,0.007412,100326.343750
2049,-9.736021,0.175974,0.621295,0.000314,-0.001270,0.005284,100326.562500
2059,-9.750386,0.191536,0.620098,0.001378,-0.000738,0.004220,100326.562500
2069,-9.733627,0.189142,0.640449,0.000846,0.000858,0.004220,100326.562500
2079,-9.747993,0.155623,0.599748,0.000314,-0.000206,0.002623,100326.562500
2089,-9.725247,0.150835,0.579397,-0.000750,0.000858,0.004220,100326.562500
2099,-9.739613,0.197522,0.626084,-0.002879,0.000326,0.004752,100326.562500
2109,-9.755175,0.162806,0.604536,-0.001814,0.000326,0.004220,100326.578125
2119,-9.733627,0.166397,0.609324,-0.002347,0.000326,0.004752,100326.578125
2129,-9.775525,0.202310,0.620098,-0.004475,-0.001270,0.005284,100326.578125
2144,-9.751583,0.190339,0.650026,-0.005007,0.000326,0.002623,100326.578125
2159,-9.752781,0.184354,0.582988,-0.002347,-0.001803,0.003155,100326.492188
2169,-9.725247,0.172383,0.624887,-0.002347,-0.001270,0.003155,100326.492188
2184,-9.747993,0.161609,0.578200,-0.003411,-0.000738,0.005284,100326.492188
2194,-9.733627,0.184354,0.617704,-0.004475,-0.000738,0.004752,100326.492188
2204,-9.722853,0.189142,0.638055,-0.003411,-0.003399,0.004220,100326.492188
2219,-9.767146,0.195127,0.605733,0.000846,-0.001803,0.002623,100326.421875
2234,-9.739613,0.135272,0.590171,0.001378,-0.001803,0.003688,100326.421875
2244,-9.734824,0.178368,0.656011,-0.002347,-0.002335,0.003688,100326.421875
2254,-9.737218,0.192733,0.635661,-0.003943,-0.001270,0.004752,100326.421875
2264,-9.777920,0.164003,0.612916,-0.003411,-0.003399,0.005284,100326.421875
2274,-9.740809,0.192733,0.633266,-0.003411,-0.003931,0.005816,100326.632812
2284,-9.758766,0.185551,0.596156,-0.004475,-0.002867,0.004220,100326.632812
2299,-9.732430,0.177171,0.611719,-0.001282,-0.001270,0.003688,100326.632812
2309,-9.727641,0.198719,0.627281,-0.000218,-0.000206,0.005284,100326.632812
2319,-9.749189,0.178368,0.638055,-0.001282,-0.000206,0.005284,100326.632812
2329,-9.750386,0.164003,0.586579,0.000314,-0.001270,0.004752,100326.632812
2344,-9.739613,0.192733,0.629675,-0.001282,-0.001270,0.005816,100326.632812
2354,-9.719262,0.161609,0.656011,-0.000750,-0.000738,0.005284,100326.632812
2364,-9.737218,0.181959,0.587777,-0.000218,-0.000738,0.005284,100326.632812
2374,-9.780313,0.195127,0.629675,-0.002347,0.000326,0.003155,100326.632812
2384,-9.764751,0.177171,0.624887,-0.002347,0.000326,0.003688,100326.585938
2399,-9.734824,0.208296,0.644040,0.001378,-0.000206,0.000495,100326.585938
2409,-9.701305,0.205901,0.600945,0.001378,-0.000206,-0.000569,100326.585938
2419,-9.738416,0.180762,0.611719,0.000846,-0.000738,-0.001101,100326.585938
2429,-9.726444,0.174777,0.617704,0.000314,-0.001270,-0.001101,100326.585938
2439,-9.740809,0.165200,0.633266,-0.000218,-0.000738,-0.001634,100326.539062
2449,-9.734824,0.174777,0.645237,-0.002347,0.001390,-0.002166,100326.539062
2459,-9.739613,0.207098,0.615310,-0.001282,0.000326,-0.001634,100326.539062
2469,-9.743204,0.197522,0.644040,0.001378,0.000326,-0.002698,100326.539062
2484,-9.716867,0.168791,0.599748,0.000846,-0.000206,-0.002698,100326.539062
2494,-9.752781,0.159214,0.598550,-0.002347,-0.000206,-0.000569,100326.500000
2504,-9.737218,0.169988,0.647632,-0.004475,-0.001270,-0.000037,100326.500000
2514,-9.742006,0.185551,0.660800,-0.002879,-0.000738,-0.001101,100326.500000
2524,-9.750386,0.158017,0.641646,0.000314,-0.000738,-0.002698,100326.500000
2539,-9.742006,0.154426,0.634463,0.000846,-0.000206,-0.001101,100326.500000
2549,-9.744401,0.181959,0.632069,-0.000750,0.000858,-0.001634,100326.546875
2559,-9.750386,0.210690,0.626084,0.000314,0.000858,-0.000569,100326.546875
2569,-9.751583,0.154426,0.647632,0.000846,0.001390,-0.001101,100326.546875
2589,-9.739613,0.178368,0.627281,0.000846,0.001390,0.002091,100326.546875
2599,-9.730036,0.198719,0.610521,0.000846,0.001922,0.001027,100326.539062
2609,-9.731233,0.187945,0.590171,0.000314,0.001922,0.001027,100326.539062
2619,-9.713276,0.202310,0.633266,-0.000218,0.000326,-0.000569,100326.539062
2629,-9.724051,0.156820,0.647632,0.000314,0.000326,0.001027,100326.539062
2639,-9.749189,0.156820,0.620098,0.001378,0.000858,0.000495,100326.539062
2649,-9.718064,0.165200,0.622492,0.002442,0.000858,-0.000569,100326.539062
2659,-9.728839,0.181959,0.630872,0.002442,0.000858,-0.001634,100326.460938
2679,-9.752781,0.196325,0.614113,0.003507,0.000858,0.000495,100326.460938
2689,-9.742006,0.181959,0.669179,0.001910,-0.000206,0.001559,100326.460938
2699,-9.746795,0.190339,0.612916,0.005635,0.000858,0.000495,100326.460938
2709,-9.746795,0.175974,0.634463,0.004039,0.001390,0.001027,100326.398438
2719,-9.726444,0.185551,0.646434,0.001378,0.000858,0.000495,100326.398438
2729,-9.752781,0.181959,0.611719,0.003507,-0.000206,-0.000037,100326.398438
2739,-9.726444,0.164003,0.618901,0.004571,-0.000206,-0.001634,100326.398438
2749,-9.733627,0.173580,0.654814,0.002442,-0.000206,-0.002166,100326.398438
2759,-9.713276,0.203507,0.633266,0.002974,-0.001270,-0.002166,100326.398438
2769,-9.737218,0.180762,0.681150,0.002974,-0.000206,-0.003230,100326.546875
2779,-9.716867,0.172383,0.652420,0.002442,0.000326,-0.003762,100326.546875
2789,-9.780313,0.150835,0.614113,0.002442,0.001390,-0.002166,100326.546875
2799,-9.758766,0.164003,0.642843,0.002974,0.001922,-0.001634,100326.546875
2809,-9.775525,0.153229,0.629675,0.001910,0.001390,-0.000569,100326.546875
2819,-9.752781,0.161609,0.620098,0.000314,0.002454,-0.000569,100326.523438
2839,-9.750386,0.172383,0.614113,-0.000750,0.000858,0.001027,100326.523438
2849,-9.726444,0.153229,0.597353,0.000846,0.002986,0.001559,100326.523438
2859,-9.740809,0.175974,0.626084,-0.001814,0.001390,-0.000569,100326.523438
2869,-9.747993,0.207098,0.626084,-0.002879,0.001390,-0.000569,100326.523438
2879,-9.726444,0.165200,0.605733,-0.000218,0.001390,-0.002166,100326.515625
2889,-9.758766,0.154426,0.618901,0.000846,0.001922,0.000495,100326.515625
2899,-9.743204,0.183156,0.676362,0.000314,0.002986,-0.000569,100326.515625
2909,-9.744401,0.168791,0.614113,0.000314,0.001390,0.001559,100326.515625
2919,-9.757569,0.172383,0.603339,-0.001282,0.002454,0.000495,100326.515625
2929,-9.703699,0.195127,0.599748,-0.002347,0.001922,0.000495,100326.515625
2939,-9.738416,0.187945,0.659603,-0.001282,0.000858,-0.000569,100326.437500
2949,-9.742006,0.199916,0.638055,-0.000218,0.000858,-0.001634,100326.437500
2959,-9.714474,0.177171,0.630872,-0.000750,0.001390,-0.003762,100326.437500
2969,-9.747993,0.165200,0.584185,-0.000750,-0.000206,-0.002698,100326.437500
2994,-9.749189,0.167594,0.623690,-0.002879,0.000858,-0.003762,100326.375000
3018,-9.745598,0.180762,0.652420,0.002442,0.001922,-0.003230,100326.375000
3029,-9.726444,0.154426,0.624887,0.005635,0.002986,-0.003230,100326.375000
3041,-9.702502,0.158017,0.592565,0.004571,0.003519,-0.000037,100326.671875
3049,-9.734824,0.154426,0.596156,0.002442,0.002454,-0.000569,100326.671875
3068,-9.740809,0.196325,0.644040,0.000314,0.003519,0.000495,100326.671875
3079,-9.745598,0.178368,0.632069,-0.001814,0.003519,0.000495,100326.671875
3096,-9.730036,0.196325,0.615310,-0.000218,0.004583,0.001559,100326.671875
3109,-9.744401,0.131681,0.645237,-0.000750,0.004051,0.000495,100326.671875
3128,-9.701305,0.135272,0.609324,-0.002879,0.001922,0.002091,100326.671875
3139,-9.716867,0.184354,0.645237,-0.001814,0.001922,0.002091,100326.671875
3154,-9.720459,0.174777,0.635661,-0.002347,0.002454,0.001027,100326.656250
3179,-9.737218,0.165200,0.593762,-0.005007,0.000858,-0.001634,100326.656250
3204,-9.738416,0.161609,0.658405,-0.001814,0.000326,-0.001634,100326.656250
3228,-9.725247,0.161609,0.590171,0.002442,0.001390,-0.002166,100326.648438
3234,-9.747993,0.142455,0.605733,0.003507,0.002986,-0.001634,100326.648438
3259,-9.761160,0.167594,0.584185,-0.002347,0.000326,-0.000037,100326.648438
3274,-9.756371,0.160412,0.591368,-0.006603,-0.000738,0.001559,100326.781250
3294,-9.730036,0.190339,0.621295,-0.005007,-0.000738,-0.000037,100326.781250
3304,-9.764751,0.158017,0.605733,-0.001814,-0.000206,-0.000037,100326.781250
3319,-9.756371,0.158017,0.640449,-0.001282,0.001390,-0.000037,100326.898438
3329,-9.745598,0.162806,0.621295,-0.001814,0.002986,0.000495,100326.898438
3339,-9.755175,0.146046,0.665588,-0.002347,0.004051,0.001027,100326.898438
3354,-9.731233,0.143652,0.605733,-0.002879,0.003519,0.001027,100326.898438
3364,-9.750386,0.171185,0.635661,0.000314,0.002986,0.000495,100326.898438
3379,-9.773131,0.153229,0.640449,0.001378,0.002454,0.002623,100326.953125
3394,-9.747993,0.161609,0.621295,0.000314,0.001922,0.002623,100326.953125
3404,-9.733627,0.208296,0.634463,-0.001814,0.002454,0.002623,100326.953125
3414,-9.745598,0.179565,0.653617,0.000314,0.001922,0.002623,100326.953125
3424,-9.734824,0.183156,0.660800,0.002442,0.001390,0.002623,100326.953125
3434,-9.716867,0.149638,0.656011,0.003507,0.002454,0.001559,100326.859375
3444,-9.742006,0.164003,0.618901,0.003507,0.002454,0.001559,100326.859375
3454,-9.738416,0.186748,0.640449,-0.000218,0.002986,0.001559,100326.859375
3469,-9.764751,0.168791,0.645237,0.000314,0.001922,-0.000037,100326.859375
3484,-9.750386,0.169988,0.633266,-0.000750,0.000326,-0.000569,100326.765625
3494,-9.739613,0.184354,0.635661,0.002442,0.000858,-0.002698,100326.765625
3504,-9.738416,0.177171,0.600945,0.002442,0.001922,-0.002166,100326.765625
3514,-9.739613,0.184354,0.644040,0.005635,0.001922,-0.002698,100326.765625
3524,-9.732430,0.178368,0.646434,0.006699,0.001390,-0.002698,100326.765625
3539,-9.725247,0.148441,0.618901,0.004571,0.001390,-0.001634,100326.851562
3549,-9.751583,0.153229,0.566229,0.004571,0.001922,-0.001101,100326.851562
3559,-9.724051,0.129287,0.620098,0.004039,0.001922,-0.000569,100326.851562
3569,-9.758766,0.153229,0.575805,0.002974,0.001390,0.000495,100326.851562
3584,-9.740809,0.172383,0.624887,-0.001814,0.001390,0.001027,100326.851562
3594,-9.745598,0.173580,0.626084,-0.000218,0.001390,-0.000569,100326.742188
3604,-9.742006,0.156820,0.599748,0.000846,0.001922,-0.000037,100326.742188
3614,-9.738416,0.161609,0.657208,-0.000218,0.002986,-0.001101,100326.742188
3624,-9.731233,0.108936,0.602142,-0.001282,0.001922,-0.000037,100326.742188
3639,-9.737218,0.160412,0.574608,-0.002347,0.000858,0.000495,100326.742188
3649,-9.732430,0.159214,0.608127,-0.002347,0.000858,0.000495,100326.781250
3659,-9.742006,0.155623,0.615310,0.000314,0.001922,0.000495,100326.781250
3669,-9.721656,0.148441,0.597353,-0.000750,0.000326,-0.000569,100326.781250
3679,-9.763555,0.174777,0.585382,-0.000750,0.000858,-0.000037,100326.781250
3694,-9.739613,0.159214,0.609324,-0.002879,0.001390,-0.000569,100326.781250
3709,-9.737218,0.167594,0.626084,-0.001814,0.002986,-0.001634,100326.710938
3719,-9.746795,0.189142,0.640449,0.000846,0.001390,-0.001101,100326.710938
3729,-9.724051,0.172383,0.590171,0.001910,0.000858,-0.000569,100326.710938
3739,-9.752781,0.162806,0.597353,0.002442,0.001922,-0.001634,100326.710938
3749,-9.750386,0.136469,0.572214,0.001378,0.002986,-0.001101,100326.710938
3759,-9.730036,0.161609,0.652420,0.000846,0.004051,-0.001101,100326.828125
3769,-9.722853,0.156820,0.591368,0.000314,0.001390,-0.001101,100326.828125
3779,-9.736021,0.165200,0.610521,-0.001814,0.000858,-0.000037,100326.828125
3789,-9.739613,0.172383,0.612916,-0.003411,-0.000738,-0.000569,100326.828125
3799,-9.740809,0.153229,0.599748,-0.002347,-0.000206,-0.002166,100326.828125
3809,-9.739613,0.171185,0.626084,0.000314,-0.000738,-0.002698,100326.828125
3819,-9.720459,0.155623,0.627281,0.001378,0.000858,-0.002166,100326.929688
3839,-9.726444,0.160412,0.598550,0.001378,0.000858,-0.002166,100326.929688
3849,-9.728839,0.144849,0.560243,-0.000218,0.002454,0.000495,100326.929688
3859,-9.734824,0.152032,0.611719,0.000846,0.001390,-0.000037,100326.929688
3869,-9.738416,0.134075,0.617704,0.001910,-0.000206,0.002091,100326.765625
3884,-9.739613,0.174777,0.660800,-0.001814,0.000326,0.002091,100326.765625
3899,-9.780313,0.172383,0.591368,0.001910,0.000326,0.001559,100326.765625
3909,-9.758766,0.171185,0.636858,0.001378,0.000858,-0.000569,100326.765625
3919,-9.731233,0.101754,0.612916,0.000846,-0.000738,-0.000569,100326.765625
3929,-9.737218,0.143652,0.611719,-0.000218,-0.002335,0.000495,100326.609375
3939,-9.737218,0.155623,0.630872,-0.000750,-0.000206,0.001027,100326.609375
3949,-9.715671,0.172383,0.587777,-0.000750,-0.000738,0.000495,100326.609375
3959,-9.750386,0.164003,0.635661,-0.000218,-0.000738,-0.000569,100326.609375
3969,-9.716867,0.159214,0.609324,0.000314,-0.000738,-0.002166,100326.609375
3979,-9.750386,0.154426,0.599748,0.001910,-0.001270,-0.002698,100326.476562
3994,-9.780313,0.140061,0.642843,0.001378,-0.000738,-0.002166,100326.476562
4004,-9.725247,0.167594,0.634463,0.001378,-0.001270,-0.001634,100326.476562
4014,-9.732430,0.152032,0.608127,0.002442,-0.002335,-0.001634,100326.476562
4024,-9.747993,0.140061,0.615310,0.001910,-0.001803,-0.001101,100326.476562
4034,-9.720459,0.169988,0.617704,0.001910,-0.001803,-0.000569,100326.640625
4049,-9.738416,0.129287,0.573411,0.001378,-0.001803,0.001027,100326.640625
4059,-9.727641,0.146046,0.611719,-0.000218,-0.000738,-0.000037,100326.640625
4069,-9.773131,0.154426,0.636858,-0.000218,-0.001270,0.001027,100326.640625
4079,-9.724051,0.129287,0.603339,0.001910,-0.000738,-0.000037,100326.640625
4089,-9.720459,0.142455,0.585382,0.002974,-0.000206,-0.001634,100326.671875
4103,-9.759963,0.142455,0.598550,-0.002879,-0.001270,0.001559,100326.671875
4114,-9.733627,0.156820,0.600945,-0.005007,-0.002335,0.000495,100326.671875
4124,-9.725247,0.196325,0.629675,-0.006071,-0.002335,-0.001101,100326.671875
4134,-9.745598,0.204704,0.636858,-0.002879,-0.002335,-0.003762,100326.671875
4149,-9.728839,0.149638,0.635661,0.000846,-0.003931,-0.004294,100326.578125
4159,-9.755175,0.113725,0.621295,0.002442,-0.001270,-0.003762,100326.578125
4169,-9.749189,0.143652,0.616507,0.002974,-0.001803,-0.002166,100326.578125
4179,-9.759963,0.130484,0.660800,0.002442,-0.000206,-0.000569,100326.578125
4189,-9.732430,0.129287,0.586579,0.000846,-0.000738,0.001559,100326.578125
4204,-9.732430,0.165200,0.596156,-0.002879,-0.001270,0.001027,100326.562500
4214,-9.757569,0.171185,0.629675,-0.002347,-0.002335,0.001027,100326.562500
4224,-9.759963,0.158017,0.629675,-0.002347,-0.002335,0.001027,100326.562500
4234,-9.737218,0.165200,0.656011,-0.001282,-0.003399,-0.000569,100326.562500
4244,-9.727641,0.165200,0.660800,-0.001282,-0.002335,0.000495,100326.562500
4254,-9.713276,0.180762,0.609324,-0.001282,-0.002335,-0.000037,100326.656250
4264,-9.733627,0.144849,0.633266,-0.001282,0.000326,-0.000569,100326.656250
4274,-9.739613,0.160412,0.703895,0.002442,-0.000738,-0.000037,100326.656250
4283,-9.731233,0.147243,0.585382,0.005103,0.000326,-0.000569,100326.656250
4293,-9.755175,0.164003,0.605733,0.003507,-0.000206,-0.000037,100326.656250
4303,-9.728839,0.149638,0.596156,-0.000218,0.000326,0.001027,100326.656250
4313,-9.742006,0.136469,0.608127,-0.002347,-0.001270,0.002091,100326.828125
4323,-9.752781,0.172383,0.572214,-0.003411,-0.002335,0.001027,100326.828125
4333,-9.734824,0.159214,0.596156,-0.005007,-0.003931,-0.000037,100326.828125
4343,-9.751583,0.175974,0.671574,-0.002879,-0.003399,-0.000037,100326.828125
4353,-9.733627,0.155623,0.572214,-0.000218,-0.002867,-0.001101,100326.828125
4364,-9.745598,0.147243,0.590171,-0.001282,-0.002867,-0.000569,100326.750000
4374,-9.749189,0.149638,0.639252,-0.001814,-0.001803,0.000495,100326.750000
4383,-9.728839,0.149638,0.622492,-0.000218,-0.002335,-0.000037,100326.750000
4393,-9.737218,0.154426,0.616507,-0.001814,-0.001270,-0.000037,100326.750000
4403,-9.718064,0.131681,0.626084,-0.000750,-0.000738,0.000495,100326.750000
4413,-9.759963,0.158017,0.609324,0.000846,0.000326,0.001027,100326.750000
4423,-9.747993,0.155623,0.612916,-0.001282,-0.000738,0.002091,100326.835938
4433,-9.730036,0.150835,0.639252,-0.000750,-0.001270,0.001559,100326.835938
4443,-9.713276,0.167594,0.672771,-0.001282,-0.001803,-0.000037,100326.835938
4453,-9.724051,0.134075,0.626084,-0.001814,-0.001803,-0.000569,100326.835938
4463,-9.734824,0.148441,0.617704,-0.002347,-0.002335,0.001027,100326.835938
4473,-9.736021,0.152032,0.645237,-0.002347,-0.002867,0.000495,100326.921875
4483,-9.731233,0.132878,0.633266,-0.002347,-0.002335,0.000495,100326.921875
4493,-9.749189,0.162806,0.621295,-0.002879,-0.002335,0.001027,100326.921875
4503,-9.725247,0.173580,0.630872,-0.002347,-0.002335,-0.000569,100326.921875
4513,-9.733627,0.177171,0.657208,-0.002879,-0.001803,-0.001101,100326.921875
4523,-9.750386,0.134075,0.682347,-0.001814,-0.000206,-0.001101,100326.921875
4533,-9.757569,0.126893,0.621295,-0.000750,-0.001803,-0.002166,100327.070312
4554,-9.755175,0.156820,0.630872,0.000846,-0.001803,-0.002698,100327.070312
4564,-9.728839,0.158017,0.647632,-0.000750,-0.001270,-0.002166,100327.070312
4589,-9.736021,0.152032,0.629675,0.000314,-0.002867,-0.000569,100327.101562
4609,-9.745598,0.180762,0.633266,0.000846,-0.002335,-0.002698,100327.101562
4638,-9.770737,0.120907,0.615310,0.002974,-0.001803,-0.003762,100327.101562
4654,-9.737218,0.136469,0.608127,-0.000750,-0.001803,-0.001101,100327.023438
4674,-9.761160,0.141258,0.642843,-0.002879,-0.002867,-0.001634,100327.023438
4699,-9.739613,0.123301,0.642843,-0.000750,-0.002867,-0.003762,100326.890625
4728,-9.750386,0.158017,0.633266,0.001378,-0.002335,-0.006423,100326.890625
4744,-9.742006,0.135272,0.660800,0.005103,-0.000738,-0.003230,100326.890625
4758,-9.755175,0.150835,0.657208,0.004571,0.000326,-0.003230,100327.156250
4773,-9.761160,0.122104,0.586579,0.007231,0.001922,-0.001634,100327.156250
4793,-9.747993,0.129287,0.638055,0.002442,-0.000206,-0.001101,100327.156250
4803,-9.738416,0.119710,0.634463,-0.000750,0.000326,-0.000037,100327.156250
4813,-9.762358,0.100556,0.598550,-0.001282,0.000326,-0.000569,100327.234375
4823,-9.740809,0.117316,0.632069,-0.002347,-0.000738,0.001027,100327.234375
4838,-9.765948,0.149638,0.626084,-0.003411,-0.001270,0.002091,100327.234375
4849,-9.752781,0.131681,0.620098,-0.001282,0.000326,0.000495,100327.234375
4858,-9.738416,0.143652,0.639252,0.000846,0.002986,0.002091,100327.234375
4878,-9.730036,0.096965,0.590171,0.000314,0.003519,0.002623,100327.226562
4888,-9.753978,0.142455,0.640449,0.001378,0.003519,0.002623,100327.226562
4899,-9.722853,0.123301,0.606930,-0.000750,0.000858,0.003155,100327.226562
4908,-9.738416,0.138864,0.660800,-0.001814,-0.000206,0.002623,100327.226562
4918,-9.722853,0.169988,0.696713,-0.002347,-0.000738,0.002091,100327.117188
4928,-9.738416,0.148441,0.652420,-0.002347,0.000326,-0.000569,100327.117188
4938,-9.709685,0.146046,0.677559,0.000314,0.000326,0.001027,100327.117188
4949,-9.744401,0.134075,0.675165,0.001378,0.000326,-0.000037,100327.117188
4958,-9.715671,0.119710,0.620098,0.001910,0.000326,-0.000569,100327.117188
4968,-9.733627,0.141258,0.622492,0.002442,0.001390,0.000495,100327.117188
4978,-9.732430,0.099359,0.623690,0.001378,0.001922,0.001559,100327.023438
4988,-9.715671,0.146046,0.600945,0.001910,0.001922,0.000495,100327.023438
4999,-9.731233,0.129287,0.603339,0.000846,0.001922,0.001027,100327.023438
5008,-9.740809,0.124498,0.626084,0.002442,0.000326,0.000495,100327.023438
5018,-9.728839,0.131681,0.604536,-0.000750,-0.000206,-0.000037,100327.023438
5033,-9.752781,0.171185,0.633266,0.000314,-0.000738,-0.000569,100327.117188
5043,-9.716867,0.120907,0.617704,0.000314,-0.000206,-0.003230,100327.117188
5053,-9.733627,0.185551,0.611719,0.001378,-0.000738,-0.002698,100327.117188
5063,-9.708488,0.164003,0.594959,0.002974,-0.000738,-0.002698,100327.117188
5073,-9.761160,0.125696,0.650026,0.002974,-0.000206,-0.004294,100327.117188
5083,-9.743204,0.120907,0.633266,0.003507,-0.001270,-0.003230,100327.164062
5093,-9.764751,0.134075,0.604536,0.003507,-0.001270,-0.004294,100327.164062
5103,-9.749189,0.096965,0.653617,0.000314,-0.001270,-0.001634,100327.164062
5113,-9.739613,0.136469,0.605733,-0.001282,-0.001803,-0.001101,100327.164062
5123,-9.762358,0.132878,0.623690,-0.001282,-0.001803,-0.001101,100327.164062
5133,-9.755175,0.152032,0.624887,-0.001814,-0.000738,-0.002698,100327.164062
5143,-9.743204,0.105345,0.644040,0.000314,-0.001270,-0.004294,100327.109375
5153,-9.739613,0.129287,0.599748,0.002442,-0.000206,-0.003230,100327.109375
5168,-9.755175,0.106542,0.602142,-0.002879,0.000326,-0.003230,100327.109375
5178,-9.744401,0.119710,0.621295,-0.003411,0.001922,-0.001101,100327.109375
5188,-9.724051,0.114922,0.623690,-0.005007,0.002454,-0.000569,100327.109375
5199,-9.746795,0.135272,0.658405,-0.006071,0.001922,-0.002166,100326.921875
5208,-9.730036,0.107739,0.630872,-0.005007,0.002454,-0.001634,100326.921875
5218,-9.758766,0.104148,0.575805,-0.005539,0.002986,-0.000037,100326.921875
5228,-9.764751,0.112527,0.627281,-0.008732,0.004051,0.001027,100326.921875
5238,-9.733627,0.137667,0.654814,-0.010860,0.002986,0.003155,100326.921875
5249,-9.753978,0.126893,0.632069,-0.007668,0.005115,0.002623,100326.750000
5258,-9.756371,0.134075,0.622492,-0.006603,0.004051,0.002623,100326.750000
5268,-9.742006,0.134075,0.654814,-0.006071,0.004051,0.002623,100326.750000
5278,-9.762358,0.104148,0.641646,-0.006071,0.005115,0.003688,100326.750000
5288,-9.689334,0.098162,0.647632,-0.006603,0.006179,0.004752,100326.750000
5299,-9.737218,0.122104,0.675165,-0.005539,0.006711,0.004752,100326.750000
5308,-9.756371,0.162806,0.660800,-0.004475,0.006179,0.004220,100326.789062
5318,-9.747993,0.158017,0.656011,-0.003411,0.006711,0.003155,100326.789062
5328,-9.732430,0.149638,0.622492,-0.004475,0.007775,0.002091,100326.789062
5338,-9.709685,0.152032,0.627281,-0.002347,0.007243,0.001027,100326.789062
5349,-9.724051,0.140061,0.636858,-0.001814,0.007243,-0.001101,100326.789062
5358,-9.749189,0.135272,0.626084,-0.000750,0.006179,-0.002698,100326.726562
5368,-9.732430,0.124498,0.556652,0.000846,0.004583,-0.004294,100326.726562
5378,-9.745598,0.147243,0.618901,0.002442,0.004051,-0.005890,100326.726562
5388,-9.734824,0.140061,0.622492,0.002442,0.002986,-0.008019,100326.726562
5399,-9.750386,0.146046,0.618901,0.001378,0.000858,-0.010679,100326.726562
5408,-9.724051,0.136469,0.623690,-0.000750,-0.000206,-0.012808,100326.726562
5418,-9.752781,0.130484,0.627281,0.004039,-0.001803,-0.014404,100326.679688
5428,-9.727641,0.089783,0.636858,0.004039,-0.001270,-0.016533,100326.679688
5438,-9.714474,0.111330,0.677559,0.004571,-0.001803,-0.015468,100326.679688
5449,-9.722853,0.038307,0.664391,0.004039,-0.002335,-0.016533,100326.679688
5458,-9.805453,0.186748,0.535104,-0.001814,-0.001270,-0.014936,100326.679688
5468,-9.649830,0.132878,0.664391,-0.002879,0.001922,-0.013340,100326.648438
5478,-9.769540,0.070629,0.608127,0.007231,0.001390,-0.014936,100326.648438
5488,-9.724051,0.049081,0.620098,0.007763,0.000858,-0.012276,100326.648438
5499,-9.764751,0.086191,0.659603,0.002974,0.000326,-0.008551,100326.648438
5508,-9.761160,0.118513,0.636858,0.000846,0.003519,-0.004826,100326.648438
5518,-9.745598,0.117316,0.644040,-0.000218,0.004583,-0.003230,100326.648438
5528,-9.745598,0.136469,0.671574,0.001378,0.006179,-0.002698,100326.695312
5538,-9.758766,0.119710,0.666785,0.006699,0.005115,-0.003230,100326.695312
5549,-9.713276,0.084994,0.604536,0.007763,0.005115,-0.003230,100326.695312
5558,-9.733627,0.100556,0.646434,0.007763,0.007243,-0.003230,100326.695312
5568,-9.757569,0.088585,0.598550,0.006167,0.008308,-0.002698,100326.695312
5578,-9.752781,0.100556,0.603339,0.005635,0.008308,-0.002166,100326.812500
5588,-9.732430,0.104148,0.610521,0.003507,0.008308,-0.000569,100326.812500
5599,-9.737218,0.089783,0.593762,0.005635,0.008308,-0.000037,100326.812500
5618,-9.764751,0.108936,0.634463,0.006167,0.009372,0.000495,100326.812500
5628,-9.727641,0.126893,0.610521,0.003507,0.010436,0.002623,100326.812500
5638,-9.755175,0.123301,0.603339,0.001378,0.009904,0.002091,100326.718750
5649,-9.718064,0.140061,0.618901,-0.000750,0.008840,0.001559,100326.718750
5658,-9.713276,0.124498,0.616507,-0.000218,0.008840,0.001027,100326.718750
5668,-9.745598,0.156820,0.624887,0.000314,0.007775,-0.003762,100326.718750
5678,-9.746795,0.083797,0.644040,0.000314,0.008308,-0.002698,100326.718750
5688,-9.765948,0.108936,0.620098,0.001378,0.008308,-0.002698,100326.656250
5699,-9.732430,0.122104,0.611719,-0.001282,0.007775,-0.001101,100326.656250
5708,-9.709685,0.099359,0.598550,-0.001814,0.007243,-0.002698,100326.656250
5718,-9.739613,0.117316,0.579397,-0.006071,0.008308,-0.002166,100326.656250
5733,-9.716867,0.099359,0.577003,-0.005007,0.007775,-0.004826,100326.656250
5743,-9.727641,0.033519,0.574608,-0.005007,0.006711,-0.006955,100326.609375
5753,-9.757569,0.098162,0.577003,-0.007668,0.007243,-0.006955,100326.609375
5763,-9.755175,0.117316,0.567426,-0.011925,0.007775,-0.006955,100326.609375
5773,-9.749189,0.107739,0.571017,-0.012989,0.005115,-0.007487,100326.609375
5783,-9.674969,0.096965,0.697910,-0.015117,0.004051,-0.008551,100326.609375
5799,-9.801862,0.239420,0.513556,-0.016714,0.001922,-0.016001,100326.882812
5808,-9.593566,0.110133,0.739808,-0.014585,0.006711,-0.017597,100326.882812
5818,-9.817424,0.112527,0.517148,-0.000218,0.002986,-0.027175,100326.882812
5828,-9.672575,0.102951,0.885855,0.000314,0.006179,-0.022918,100326.882812
5838,-9.811439,0.023942,0.114922,0.012020,-0.000738,-0.023982,100326.882812
5849,-9.672575,0.130484,0.554258,0.004571,0.004583,-0.022386,100326.882812
5858,-9.816227,0.025139,0.575805,-0.006071,-0.004463,-0.025579,100326.906250
5878,-9.759963,0.123301,0.537498,-0.024163,0.002986,-0.021322,100326.906250
5888,-9.749189,0.198719,0.864307,-0.018842,0.004583,-0.018661,100326.906250
5899,-9.789890,0.032322,0.568623,0.001378,0.006179,-0.028239,100326.906250
5908,-9.683349,0.092177,0.642843,0.001910,0.005647,-0.029303,100326.898438
5918,-9.757569,0.056264,0.527921,0.000846,0.005647,-0.030368,100326.898438
5928,-9.775525,0.011971,0.536301,-0.008200,0.006179,-0.031964,100326.898438
5938,-9.758766,0.093374,0.739808,-0.011925,0.008308,-0.027707,100326.898438
5949,-9.706094,0.004788,0.556652,-0.009264,0.010968,-0.024514,100326.898438
5958,-9.789890,0.045490,0.682347,-0.008732,0.011500,-0.021854,100326.898438
5968,-9.781511,0.014365,0.512359,-0.007668,0.014693,-0.020257,100326.898438
5978,-9.764751,0.084994,0.702698,-0.012457,0.017886,-0.018129,100326.898438
5988,-9.758766,-0.025139,0.450110,-0.007668,0.023207,-0.016001,100326.898438
5999,-9.720459,0.034716,0.735020,-0.012457,0.023739,-0.013340,100326.898438
6008,-9.751583,-0.004788,0.438139,-0.010328,0.024271,-0.012276,100326.898438
6018,-9.706094,0.056264,0.644040,-0.013521,0.025867,-0.009615,100326.976562
6028,-9.789890,-0.014365,0.559046,-0.011392,0.021610,-0.007487,100326.976562
6038,-9.736021,0.057461,0.538695,-0.015117,0.027996,-0.006423,100326.976562
6049,-9.715671,0.071826,0.678756,-0.021503,0.023739,-0.006423,100326.976562
6068,-9.765948,0.095768,0.490811,-0.012457,0.026931,-0.011212,100326.976562
6098,-9.743204,-0.043096,0.526724,-0.006071,0.026931,-0.009615,100327.093750
6113,-9.701305,0.074220,0.645237,-0.011925,0.025335,-0.007487,100327.093750
6133,-9.730036,0.027533,0.524330,-0.000750,0.025335,-0.008551,100327.156250
6143,-9.753978,0.051475,0.569820,0.004571,0.025867,-0.009083,100327.156250
6168,-9.739613,-0.013168,0.549469,0.004039,0.025867,-0.008019,100327.156250
6178,-9.749189,0.057461,0.590171,0.005635,0.023207,-0.004294,100327.156250
6208,-9.738416,0.008380,0.527921,0.016809,0.017353,-0.007487,100327.140625
6228,-9.749189,0.014365,0.525527,0.015213,0.013097,-0.009615,100327.140625
6238,-9.728839,0.015562,0.529119,0.015213,0.012032,-0.010679,100327.132812
6253,-9.725247,-0.003591,0.512359,0.020534,0.009904,-0.011212,100327.132812
6268,-9.745598,-0.008380,0.476446,0.018938,0.008840,-0.009615,100327.132812
6288,-9.751583,0.011971,0.533907,0.014149,0.007243,-0.008551,100327.132812
6298,-9.767146,0.037110,0.566229,0.015213,0.002986,-0.008551,100327.156250
6313,-9.698911,0.000000,0.530316,0.017874,0.001390,-0.012808,100327.156250
6323,-9.758766,0.020351,0.470461,0.018406,-0.000206,-0.014936,100327.156250
6333,-9.758766,-0.029928,0.568623,0.016809,-0.000206,-0.014936,100327.156250
6343,-9.783905,-0.015562,0.463278,0.015213,-0.000738,-0.012808,100327.156250
6358,-9.757569,-0.023942,0.518345,0.014149,-0.000738,-0.008551,100327.078125
6368,-9.743204,0.000000,0.465672,0.012552,-0.002867,-0.006955,100327.078125
6378,-9.753978,-0.023942,0.628478,0.006699,-0.003931,-0.003762,100327.078125
6388,-9.791088,-0.010774,0.494403,0.010424,-0.003399,-0.002698,100327.078125
6403,-9.709685,-0.004788,0.438139,0.009892,-0.004463,0.001559,100327.023438
6413,-9.751583,0.023942,0.718261,0.006699,-0.007656,-0.001101,100327.023438
6423,-9.798270,-0.023942,0.424971,0.010956,-0.006059,-0.003230,100327.023438
6433,-9.731233,0.033519,0.501585,0.004571,-0.006059,-0.000569,100327.023438
6448,-9.774328,-0.076614,0.494403,0.008828,-0.013509,-0.002166,100327.023438
6458,-9.762358,0.023942,0.545878,0.004039,-0.012977,-0.001101,100326.921875
6468,-9.737218,0.034716,0.555455,0.000846,-0.015105,-0.001101,100326.921875
6483,-9.747993,0.023942,0.578200,0.002974,-0.014041,-0.003230,100326.921875
6493,-9.733627,0.031125,0.577003,0.006167,-0.011913,-0.001634,100326.921875
6508,-9.719262,0.015562,0.544681,0.011488,-0.011380,-0.000037,100326.921875
6518,-9.744401,-0.047884,0.475249,0.008296,-0.009252,0.000495,100327.031250
6528,-9.744401,0.013168,0.561440,0.005103,-0.008720,0.003155,100327.031250
6543,-9.726444,-0.017957,0.549469,0.006167,-0.008720,0.002091,100327.031250
6553,-9.746795,0.025139,0.550666,0.005635,-0.007656,0.002091,100327.031250
6563,-9.769540,0.019154,0.567426,0.002442,-0.006059,0.001559,100327.031250
6573,-9.758766,0.025139,0.580594,0.003507,-0.007124,0.001559,100326.992188
6583,-9.732430,0.023942,0.548272,0.005635,-0.005527,0.003155,100326.992188
6593,-9.726444,0.004788,0.500388,0.007231,-0.003931,0.002623,100326.992188
6608,-9.738416,-0.008380,0.563834,0.004571,-0.002867,0.003155,100326.992188
6618,-9.730036,-0.008380,0.557849,0.003507,-0.003931,0.005284,100326.992188
6628,-9.750386,-0.019154,0.556652,0.001378,-0.001803,0.004220,100326.906250
6643,-9.720459,-0.010774,0.551863,-0.003943,-0.001270,0.006348,100326.906250
6653,-9.765948,0.001197,0.563834,-0.008200,-0.001270,0.006348,100326.906250
6663,-9.744401,0.000000,0.544681,-0.011392,0.000326,0.007412,100326.906250
6678,-9.722853,0.009577,0.574608,-0.012457,-0.001270,0.007944,100326.906250
6688,-9.722853,-0.044293,0.535104,-0.015649,-0.001803,0.010073,100326.765625
6698,-9.783905,-0.009577,0.538695,-0.016714,-0.002867,0.010073,100326.765625
6708,-9.731233,-0.019154,0.559046,-0.018842,-0.004463,0.011137,100326.765625
6718,-9.749189,0.044293,0.530316,-0.018310,-0.007124,0.010073,100326.765625
6733,-9.710882,0.057461,0.584185,-0.015117,-0.010848,0.007944,100326.765625
6743,-9.756371,0.028730,0.586579,-0.010328,-0.012445,0.004220,100326.625000
6753,-9.734824,0.045490,0.548272,-0.008732,-0.013509,0.000495,100326.625000
6763,-9.722853,0.043096,0.563834,-0.006071,-0.014041,-0.001101,100326.625000
6773,-9.704897,0.040701,0.548272,-0.001282,-0.014041,-0.002698,100326.625000
6783,-9.730036,0.011971,0.561440,-0.001814,-0.015105,-0.003762,100326.625000
6793,-9.753978,0.025139,0.602142,-0.002347,-0.015637,-0.003230,100326.796875
6803,-9.721656,0.017957,0.609324,-0.000750,-0.014041,-0.002698,100326.796875
6823,-9.771935,0.020351,0.579397,-0.001282,-0.015105,-0.000569,100326.796875
6833,-9.691729,0.029928,0.559046,-0.000750,-0.015637,-0.000037,100326.796875
6843,-9.749189,0.028730,0.542287,0.001910,-0.016702,-0.000569,100326.796875
6863,-9.721656,0.022745,0.597353,0.003507,-0.015637,-0.004294,100326.906250
6873,-9.725247,0.008380,0.557849,0.004571,-0.014573,-0.004294,100326.906250
6883,-9.746795,0.007183,0.617704,0.002974,-0.016169,-0.004294,100326.906250
6893,-9.763555,0.001197,0.573411,0.001910,-0.016169,-0.002166,100326.906250
6908,-9.736021,0.004788,0.586579,-0.001282,-0.015637,-0.000569,100326.859375
6918,-9.707291,0.028730,0.630872,-0.000750,-0.014573,-0.000037,100326.859375
6928,-9.758766,0.035913,0.604536,-0.000218,-0.015105,-0.001634,100326.859375
6938,-9.758766,-0.009577,0.606930,0.001910,-0.014041,0.001027,100326.859375
6948,-9.739613,0.010774,0.585382,-0.000218,-0.015105,0.002091,100326.859375
6963,-9.745598,0.003591,0.562637,-0.003943,-0.014041,0.002623,100326.820312
6973,-9.745598,0.037110,0.638055,-0.005539,-0.014041,0.002091,100326.820312
6983,-9.730036,0.004788,0.621295,-0.003411,-0.012977,0.003155,100326.820312
6993,-9.743204,-0.003591,0.653617,0.000314,-0.013509,0.005284,100326.820312
7003,-9.770737,-0.026336,0.622492,0.000846,-0.011913,0.005816,100326.820312
7013,-9.753978,0.001197,0.596156,-0.002347,-0.012445,0.006880,100326.906250
7028,-9.769540,-0.013168,0.663194,-0.006603,-0.010316,0.006880,100326.906250
7038,-9.733627,0.049081,0.639252,-0.005007,-0.009784,0.010605,100326.906250
7048,-9.745598,0.062249,0.628478,-0.000750,-0.008720,0.007944,100326.906250
7068,-9.753978,0.014365,0.630872,0.006699,-0.009784,0.005284,100326.945312
7078,-9.732430,0.052672,0.616507,0.002974,-0.009252,0.006880,100326.945312
7088,-9.744401,0.010774,0.603339,-0.002347,-0.009252,0.005816,100326.945312
7098,-9.712079,-0.016759,0.604536,-0.002347,-0.009784,0.005284,100326.945312
7118,-9.720459,0.035913,0.604536,-0.001282,-0.011380,0.006880,100326.945312
7128,-9.757569,0.008380,0.599748,-0.001282,-0.011380,0.005816,100326.898438
7138,-9.781511,0.005986,0.635661,-0.002347,-0.011913,0.005816,100326.898438
7148,-9.743204,0.015562,0.586579,-0.005007,-0.009252,0.007944,100326.898438
7158,-9.747993,-0.015562,0.610521,-0.006603,-0.008720,0.007944,100326.898438
7168,-9.728839,0.019154,0.629675,-0.008732,-0.008720,0.008477,100326.898438
7178,-9.731233,0.031125,0.661997,-0.008732,-0.008188,0.010605,100326.820312
7188,-9.753978,0.034716,0.610521,-0.009264,-0.008188,0.012201,100326.820312
7203,-9.742006,-0.050278,0.604536,-0.010860,-0.008188,0.016458,100326.820312
7218,-9.721656,0.021548,0.605733,-0.017246,-0.009252,0.019651,100326.820312
7228,-9.761160,0.041899,0.630872,-0.019374,-0.009252,0.021247,100326.820312
7238,-9.761160,0.052672,0.660800,-0.017246,-0.011913,0.022843,100326.742188
7248,-9.727641,0.014365,0.409408,-0.010328,-0.010848,0.023376,100326.742188
7258,-9.695320,0.090980,0.705092,-0.017246,-0.012445,0.022843,100326.742188
7273,-9.710882,-0.053870,0.466869,-0.016181,-0.015637,0.018587,100326.742188
7283,-9.721656,0.090980,0.586579,-0.017246,-0.012977,0.023376,100326.742188
7293,-9.742006,0.086191,0.800860,-0.023099,-0.018830,0.022843,100326.820312
7308,-9.733627,0.022745,0.526724,-0.018842,-0.015637,0.023908,100326.820312
7318,-9.728839,0.122104,0.841562,-0.027356,-0.021491,0.023376,100326.820312
7328,-9.765948,-0.029928,0.445322,-0.019906,-0.020958,0.020715,100326.820312
7343,-9.720459,0.125696,0.835576,-0.019906,-0.023087,0.023376,100326.890625
7353,-9.752781,-0.003591,0.496797,-0.011392,-0.022023,0.019119,100326.890625
7363,-9.724051,0.084994,0.664391,-0.014053,-0.022023,0.020183,100326.890625
7373,-9.751583,0.079009,0.746991,-0.015117,-0.025747,0.021779,100326.890625
7383,-9.764751,-0.002394,0.560243,-0.010328,-0.022023,0.020183,100326.890625
7393,-9.732430,0.101754,0.715866,-0.012457,-0.025747,0.024440,100326.890625
7403,-9.775525,0.026336,0.723049,-0.011925,-0.027876,0.023908,100326.890625
7413,-9.737218,0.050278,0.506374,-0.013521,-0.024683,0.023376,100326.890625
7423,-9.704897,0.096965,0.735020,-0.021503,-0.025215,0.027632,100326.890625
7433,-9.739613,0.045490,0.645237,-0.020970,-0.024683,0.023376,100326.890625
7443,-9.704897,0.100556,0.736217,-0.016181,-0.022023,0.023908,100326.890625
7458,-9.730036,0.099359,0.659603,-0.008732,-0.021491,0.026568,100326.921875
7468,-9.734824,0.089783,0.702698,-0.006071,-0.022023,0.026036,100326.921875
7478,-9.781511,0.005986,0.634463,-0.011392,-0.021491,0.028165,100326.921875
7488,-9.727641,0.086191,0.653617,-0.018310,-0.019894,0.030293,100326.921875
7498,-9.695320,0.125696,0.711078,-0.019906,-0.020426,0.031357,100326.921875
7508,-9.746795,0.098162,0.669179,-0.012989,-0.019362,0.026568,100327.070312
7518,-9.726444,0.093374,0.730232,-0.007136,-0.018830,0.025504,100327.070312
7528,-9.763555,0.136469,0.656011,-0.009264,-0.018298,0.023908,100327.070312
7538,-9.712079,0.119710,0.656011,-0.012457,-0.017766,0.020715,100327.070312
7548,-9.685743,0.130484,0.718261,-0.008200,-0.020426,0.018587,100327.070312
7558,-9.721656,0.118513,0.590171,-0.002879,-0.016169,0.015394,100327.070312
7568,-9.731233,0.101754,0.772130,-0.005007,-0.017234,0.015926,100327.046875
7583,-9.736021,0.037110,0.735020,-0.007668,-0.014041,0.016458,100327.046875
7593,-9.758766,0.100556,0.587777,-0.008200,-0.012445,0.021779,100327.046875
7613,-9.720459,0.099359,0.769736,-0.014585,-0.011913,0.020715,100327.046875
7623,-9.702502,0.108936,0.711078,-0.011925,-0.008720,0.018587,100326.992188
7633,-9.725247,0.122104,0.689530,-0.009796,-0.009784,0.018587,100326.992188
7658,-9.701305,0.104148,0.705092,-0.008200,-0.004463,0.018054,100326.992188
7673,-9.749189,0.116119,0.715866,-0.003411,-0.004995,0.016458,100326.945312
7683,-9.756371,0.134075,0.708684,-0.005007,-0.002867,0.020183,100326.945312
7693,-9.732430,0.132878,0.721852,-0.007668,-0.000206,0.019651,100326.945312
7708,-9.744401,0.118513,0.702698,-0.003411,0.000326,0.015926,100326.945312
7718,-9.728839,0.154426,0.703895,-0.005539,-0.000738,0.014862,100326.945312
7728,-9.722853,0.137667,0.706290,-0.004475,-0.001270,0.012733,100326.906250
7743,-9.745598,0.123301,0.658405,-0.003943,-0.001803,0.010605,100326.906250
7753,-9.739613,0.136469,0.724246,-0.006603,-0.001803,0.010605,100326.906250
7763,-9.721656,0.136469,0.726640,-0.005539,-0.001270,0.010073,100326.906250
7773,-9.728839,0.156820,0.701501,-0.001282,-0.001270,0.006880,100326.906250
7783,-9.722853,0.113725,0.684742,0.000846,-0.000206,0.005816,100326.906250
7793,-9.719262,0.113725,0.727837,0.001910,0.001390,0.005284,100327.007812
7808,-9.736021,0.112527,0.713472,0.000846,0.002986,0.006880,100327.007812
7818,-9.740809,0.098162,0.687136,-0.001282,0.002986,0.007944,100327.007812
7828,-9.740809,0.149638,0.729034,-0.002347,0.002986,0.007412,100327.007812
7843,-9.731233,0.123301,0.726640,-0.000750,0.001390,0.005284,100327.007812
7853,-9.718064,0.124498,0.694318,-0.000218,0.002454,0.006348,100327.171875
7873,-9.714474,0.135272,0.730232,-0.001814,0.002454,0.007412,100327.171875
7883,-9.733627,0.150835,0.697910,0.000846,0.002986,0.005816,100327.171875
7893,-9.680955,0.158017,0.709881,0.002974,0.003519,0.004220,100327.171875
7903,-9.745598,0.132878,0.679953,0.005103,0.003519,0.002623,100327.171875
7913,-9.744401,0.126893,0.705092,0.005635,0.004051,0.002091,100327.203125
7923,-9.680955,0.154426,0.719458,0.005103,0.002454,0.001027,100327.203125
7933,-9.720459,0.146046,0.706290,0.005103,0.004583,0.001027,100327.203125
7948,-9.721656,0.166397,0.717063,0.002974,0.003519,-0.001634,100327.203125
7958,-9.721656,0.149638,0.725443,0.007231,0.002986,-0.004826,100327.203125
7968,-9.750386,0.136469,0.735020,0.009360,0.004051,-0.006423,100327.085938
7983,-9.757569,0.150835,0.715866,0.005103,0.003519,-0.005358,100327.085938
7993,-9.733627,0.130484,0.705092,0.008828,0.003519,-0.005890,100327.085938
8003,-9.742006,0.142455,0.664391,0.008296,0.004583,-0.005890,100327.085938
8013,-9.756371,0.184354,0.696713,0.010424,0.005115,-0.005358,100327.085938
8028,-9.722853,0.136469,0.725443,0.015745,0.002986,-0.007487,100326.984375
8038,-9.750386,0.096965,0.695516,0.014149,0.004583,-0.007487,100326.984375
8048,-9.721656,0.138864,0.699107,0.012020,0.005647,-0.007487,100326.984375
8058,-9.714474,0.123301,0.696713,0.008296,0.005647,-0.005890,100326.984375
8073,-9.745598,0.125696,0.708684,0.011488,0.004051,-0.003762,100327.031250
8083,-9.752781,0.108936,0.742203,0.009360,0.004583,-0.003230,100327.031250
8093,-9.771935,0.114922,0.700304,0.010956,0.005115,-0.001634,100327.031250
8103,-9.738416,0.118513,0.688333,0.009360,0.005647,-0.001101,100327.031250
8117,-9.745598,0.132878,0.702698,0.006167,0.005647,-0.000569,100327.031250
8128,-9.753978,0.146046,0.654814,0.003507,0.004583,0.001027,100326.992188
8138,-9.761160,0.111330,0.652420,-0.001282,0.002986,0.002623,100326.992188
8152,-9.731233,0.113725,0.684742,-0.005539,0.003519,0.004220,100326.992188
8163,-9.745598,0.104148,0.711078,-0.007668,0.004051,0.004220,100326.992188
8173,-9.739613,0.123301,0.679953,-0.006071,0.004583,0.004752,100326.992188
8183,-9.746795,0.108936,0.696713,-0.009264,0.004583,0.007412,100326.843750
8197,-9.716867,0.117316,0.689530,-0.010328,0.005115,0.010605,100326.843750
8207,-9.725247,0.135272,0.731429,-0.010860,0.005647,0.009541,100326.843750
8218,-9.757569,0.148441,0.666785,-0.008732,0.004051,0.007944,100326.843750
8228,-9.761160,0.143652,0.706290,-0.007136,0.004051,0.008477,100326.843750
8238,-9.747993,0.090980,0.725443,-0.007668,0.004051,0.009541,100326.453125
8252,-9.722853,0.137667,0.724246,-0.009264,0.004583,0.011137,100326.453125
8262,-9.736021,0.168791,0.724246,-0.010328,0.005647,0.010073,100326.453125
8272,-9.736021,0.141258,0.723049,-0.005539,0.004583,0.007944,100326.453125
8282,-9.744401,0.146046,0.708684,-0.003943,0.005115,0.009541,100326.453125
8293,-9.725247,0.137667,0.725443,-0.002347,0.006711,0.007412,100326.679688
8303,-9.737218,0.124498,0.696713,-0.001282,0.005115,0.007944,100326.679688
8313,-9.752781,0.134075,0.647632,-0.005007,0.005115,0.008477,100326.679688
8323,-9.753978,0.166397,0.719458,-0.006071,0.004583,0.009541,100326.679688
8333,-9.719262,0.183156,0.670376,-0.003411,0.005115,0.006880,100326.679688
8342,-9.721656,0.150835,0.663194,-0.001814,0.005115,0.004220,100326.679688
8353,-9.736021,0.129287,0.691924,-0.002879,0.005115,0.003688,100326.656250
8367,-9.767146,0.123301,0.703895,-0.003943,0.007243,0.004220,100326.656250
8377,-9.755175,0.094571,0.682347,-0.003943,0.005647,0.005816,100326.656250
8387,-9.744401,0.155623,0.646434,-0.006071,0.004051,0.007944,100326.656250
8397,-9.739613,0.185551,0.701501,-0.007668,0.002986,0.005284,100326.656250
8407,-9.706094,0.142455,0.661997,-0.005539,0.003519,0.006348,100326.531250
8417,-9.734824,0.154426,0.696713,-0.003943,0.002986,0.004220,100326.531250
8428,-9.740809,0.138864,0.707487,-0.002879,0.004051,0.004220,100326.531250
8438,-9.712079,0.130484,0.694318,-0.001282,0.003519,0.003688,100326.531250
8448,-9.725247,0.130484,0.658405,-0.002347,0.003519,0.005284,100326.531250
8462,-9.793482,0.148441,0.685939,-0.005007,0.001390,0.006348,100326.312500
8472,-9.710882,0.147243,0.656011,-0.004475,0.001390,0.007412,100326.312500
8482,-9.781511,0.124498,0.718261,-0.002879,0.000858,0.008477,100326.312500
8493,-9.753978,0.137667,0.712275,-0.003943,-0.000206,0.009541,100326.312500
8502,-9.737218,0.171185,0.654814,-0.004475,0.001922,0.010605,100326.312500
8512,-9.762358,0.130484,0.648829,-0.005539,0.001922,0.009541,100326.312500
8522,-9.746795,0.160412,0.685939,-0.006071,0.001922,0.012733,100326.101562
8532,-9.721656,0.142455,0.691924,-0.004475,0.000858,0.012733,100326.101562
8542,-9.742006,0.147243,0.683545,-0.002879,0.000858,0.012201,100326.101562
8552,-9.712079,0.167594,0.683545,-0.000750,0.000858,0.011137,100326.101562
8562,-9.715671,0.167594,0.688333,0.002974,0.002454,0.012201,100326.101562
8573,-9.713276,0.173580,0.703895,0.006699,0.002454,0.010605,100326.140625
8587,-9.713276,0.161609,0.667982,0.004571,0.001390,0.009009,100326.140625
8597,-9.751583,0.141258,0.657208,0.006167,0.000858,0.007412,100326.140625
8612,-9.731233,0.167594,0.688333,0.006699,0.000326,0.006880,100326.140625
8622,-9.736021,0.189142,0.675165,0.007763,-0.000206,0.004220,100326.140625
8632,-9.722853,0.174777,0.666785,0.010956,0.000326,0.001559,100326.085938
8643,-9.737218,0.148441,0.689530,0.010424,0.000858,-0.000037,100326.085938
8652,-9.678560,0.166397,0.732626,0.011488,0.000858,0.000495,100326.085938
8662,-9.719262,0.181959,0.711078,0.012552,0.002986,0.001027,100326.085938
8672,-9.702502,0.164003,0.636858,0.015213,0.004051,-0.001101,100326.085938
8682,-9.719262,0.156820,0.661997,0.013617,0.004583,-0.001101,100326.101562
8692,-9.719262,0.203507,0.656011,0.013617,0.005647,-0.002698,100326.101562
8702,-9.727641,0.169988,0.691924,0.012552,0.006711,-0.004294,100326.101562
8712,-9.718064,0.150835,0.729034,0.015745,0.006179,-0.005890,100326.101562
8727,-9.714474,0.155623,0.694318,0.016809,0.006711,-0.007487,100326.101562
8737,-9.757569,0.152032,0.630872,0.019470,0.009372,-0.007487,100326.015625
8747,-9.749189,0.153229,0.617704,0.014681,0.010436,-0.006423,100326.015625
8762,-9.720459,0.131681,0.634463,0.007763,0.009904,-0.006955,100326.015625
8772,-9.703699,0.152032,0.670376,0.005103,0.008308,-0.004826,100326.015625
8782,-9.734824,0.148441,0.648829,0.001910,0.007243,-0.004826,100326.015625
8793,-9.722853,0.178368,0.612916,-0.002879,0.005115,-0.006423,100325.945312
8807,-9.725247,0.108936,0.707487,-0.005007,0.002454,-0.005890,100325.945312
8817,-9.769540,0.144849,0.610521,-0.006071,0.000858,-0.006423,100325.945312
8827,-9.738416,0.141258,0.708684,-0.007668,0.002986,-0.006955,100325.945312
8843,-9.736021,0.116119,0.630872,-0.001814,0.002986,-0.005890,100325.945312
8857,-9.722853,0.124498,0.641646,-0.005007,0.001922,-0.002698,100325.992188
8867,-9.738416,0.130484,0.629675,-0.007668,0.000858,-0.001634,100325.992188
8877,-9.730036,0.119710,0.646434,-0.009264,-0.001270,-0.001101,100325.992188
8893,-9.753978,0.190339,0.672771,-0.010860,-0.003399,-0.001101,100325.992188
8902,-9.737218,0.152032,0.703895,-0.005539,-0.001803,-0.002698,100326.015625
8912,-9.719262,0.189142,0.658405,-0.001814,-0.003399,-0.006423,100326.015625
8927,-9.730036,0.130484,0.669179,0.000846,-0.003399,-0.007487,100326.015625
8937,-9.718064,0.150835,0.641646,0.002974,-0.003399,-0.009083,100326.015625
8952,-9.752781,0.159214,0.640449,0.000846,-0.004463,-0.009615,100326.015625
8962,-9.727641,0.134075,0.667982,-0.003411,-0.006059,-0.005890,100325.867188
8972,-9.730036,0.146046,0.699107,-0.001814,-0.004463,-0.008551,100325.867188
8987,-9.743204,0.124498,0.706290,0.002442,-0.002867,-0.008019,100325.867188
8997,-9.733627,0.131681,0.683545,0.006699,0.000326,-0.006955,100325.867188
9007,-9.752781,0.112527,0.658405,0.007231,-0.000738,-0.003230,100325.867188
9022,-9.745598,0.118513,0.627281,0.001378,0.000326,0.001027,100325.726562
9032,-9.758766,0.152032,0.687136,-0.001282,0.001390,0.003155,100325.726562
9043,-9.737218,0.117316,0.702698,0.001910,0.000858,0.004220,100325.726562
9057,-9.737218,0.122104,0.664391,0.003507,0.000326,0.006880,100325.726562
9067,-9.725247,0.159214,0.701501,0.000846,0.001390,0.009541,100325.781250
9077,-9.759963,0.140061,0.706290,0.004571,0.001922,0.007944,100325.781250
9092,-9.721656,0.146046,0.711078,0.009892,0.003519,0.008477,100325.781250
9102,-9.695320,0.129287,0.666785,0.012552,0.005115,0.007412,100325.781250
9112,-9.716867,0.046687,0.468066,0.012020,0.006711,0.005816,100325.781250
9127,-9.780313,0.171185,0.845153,0.004039,0.007775,0.006880,100325.710938
9137,-9.774328,0.132878,0.493206,0.008828,0.010968,0.010605,100325.710938
9147,-9.673772,0.278924,0.853533,0.008828,0.008840,0.011137,100325.710938
9168,-9.709685,0.067038,0.495600,0.016277,0.005647,0.005284,100325.710938
9182,-9.731233,0.130484,0.821211,0.008828,0.003519,0.006348,100325.578125
9197,-9.685743,0.190339,0.574608,0.007763,0.003519,0.004752,100325.578125
9207,-9.747993,0.181959,0.790087,0.007231,-0.000738,0.002623,100325.578125
9222,-9.737218,0.111330,0.594959,0.012552,-0.002335,-0.001634,100325.578125
9237,-9.732430,0.171185,0.673968,0.007763,-0.001803,0.001559,100325.351562
9247,-9.777920,0.093374,0.623690,0.012020,-0.001803,-0.002166,100325.351562
9268,-9.736021,0.149638,0.788889,0.005103,-0.002335,-0.000037,100325.351562
9282,-9.788693,0.075417,0.602142,0.009360,-0.004463,-0.000037,100325.351562
9297,-9.698911,0.210690,0.667982,-0.001814,-0.000738,0.004220,100325.140625
9318,-9.728839,0.152032,0.687136,-0.001814,-0.001270,-0.000037,100325.140625
9332,-9.737218,0.116119,0.606930,0.004039,-0.001803,-0.001101,100325.140625
9347,-9.749189,0.106542,0.630872,-0.000218,-0.001270,0.001027,100325.296875
9368,-9.739613,0.136469,0.703895,-0.008200,-0.001803,0.002091,100325.296875
9377,-9.725247,0.119710,0.652420,-0.005007,-0.000206,-0.000037,100325.296875
9397,-9.727641,0.146046,0.694318,-0.003943,0.000858,-0.000569,100325.296875
9412,-9.758766,0.130484,0.688333,-0.005007,0.001390,-0.002698,100325.273438
9442,-9.743204,0.149638,0.682347,-0.002879,-0.001270,-0.004294,100325.273438
9462,-9.732430,0.166397,0.715866,-0.002347,-0.000738,-0.005358,100325.273438
9472,-9.733627,0.167594,0.633266,-0.006071,0.000326,-0.004294,100325.273438
9482,-9.740809,0.131681,0.652420,-0.006603,0.001390,-0.004826,100325.273438
9492,-9.715671,0.154426,0.665588,-0.006071,0.000326,-0.003230,100325.273438
9502,-9.721656,0.119710,0.628478,-0.005539,0.000326,-0.003230,100325.273438
9512,-9.737218,0.149638,0.703895,-0.005007,0.000326,-0.003230,100325.273438
9522,-9.757569,0.125696,0.671574,-0.001282,-0.000206,-0.003230,100325.273438
9532,-9.742006,0.114922,0.665588,-0.002879,0.000858,-0.002166,100325.273438
9547,-9.722853,0.138864,0.667982,-0.005539,0.001390,-0.002698,100325.273438
9557,-9.738416,0.117316,0.677559,-0.003943,0.000326,-0.002698,100325.273438
9567,-9.742006,0.125696,0.676362,-0.001814,-0.000206,-0.002166,100325.539062
9577,-9.704897,0.136469,0.646434,-0.000750,-0.000206,-0.002698,100325.539062
9593,-9.740809,0.147243,0.635661,-0.000750,-0.000738,-0.005890,100325.539062
9602,-9.732430,0.136469,0.703895,0.001378,-0.002335,-0.005890,100325.539062
9617,-9.757569,0.111330,0.676362,0.002974,0.000858,-0.002166,100325.539062
9627,-9.706094,0.099359,0.636858,0.002974,0.001922,-0.001634,100325.640625
9637,-9.744401,0.119710,0.694318,0.001378,0.000858,0.000495,100325.640625
9647,-9.781511,0.119710,0.669179,0.000314,0.000326,0.002091,100325.640625
9657,-9.722853,0.124498,0.652420,0.000314,-0.000206,0.002623,100325.640625
9667,-9.738416,0.108936,0.663194,-0.002347,0.000326,0.004220,100325.640625
9682,-9.738416,0.174777,0.667982,-0.005007,0.000326,0.004752,100325.679688
9693,-9.726444,0.124498,0.645237,-0.004475,-0.000206,0.003688,100325.679688
9702,-9.722853,0.136469,0.652420,-0.003943,0.000326,0.001559,100325.679688
9712,-9.716867,0.120907,0.670376,-0.002879,-0.000738,0.001027,100325.679688
9722,-9.706094,0.117316,0.675165,-0.001282,-0.001803,0.001559,100325.679688
9737,-9.734824,0.116119,0.672771,-0.004475,-0.001270,0.003688,100325.609375
9747,-9.714474,0.106542,0.688333,-0.006071,-0.000738,0.005816,100325.609375
9757,-9.713276,0.107739,0.645237,-0.003943,-0.000206,0.004220,100325.609375
9772,-9.728839,0.165200,0.653617,-0.005007,-0.000206,0.002091,100325.609375
9782,-9.733627,0.100556,0.633266,-0.002347,-0.001270,0.002623,100325.609375
9797,-9.713276,0.150835,0.651223,-0.002879,-0.003399,0.001027,100325.546875
9807,-9.718064,0.118513,0.675165,-0.002879,-0.004463,-0.000569,100325.546875
9822,-9.713276,0.162806,0.708684,-0.006071,-0.002335,-0.000037,100325.546875
9832,-9.725247,0.150835,0.684742,-0.003943,-0.001803,-0.000037,100325.546875
9843,-9.752781,0.134075,0.629675,-0.000218,-0.001803,-0.001101,100325.648438
9852,-9.733627,0.104148,0.621295,-0.002347,-0.002335,0.001027,100325.648438
9862,-9.731233,0.142455,0.675165,-0.004475,-0.001803,-0.000037,100325.648438
9872,-9.750386,0.087388,0.663194,-0.005539,-0.003931,0.000495,100325.648438
9887,-9.757569,0.101754,0.648829,-0.006071,-0.004463,0.000495,100325.648438
9897,-9.715671,0.146046,0.675165,-0.006071,-0.004463,0.001559,100325.609375
9912,-9.725247,0.136469,0.673968,-0.002347,-0.004995,-0.001101,100325.609375
9922,-9.726444,0.137667,0.691924,-0.005007,-0.002867,-0.001101,100325.609375
9937,-9.746795,0.135272,0.715866,-0.002347,-0.003399,-0.000569,100325.609375
9947,-9.724051,0.114922,0.679953,-0.002347,-0.001803,-0.000037,100325.609375
9962,-9.747993,0.138864,0.671574,-0.001814,-0.002335,0.002623,100325.570312
9972,-9.743204,0.132878,0.679953,-0.001814,-0.002335,0.001559,100325.570312
9982,-9.720459,0.136469,0.694318,-0.003943,-0.003399,0.000495,100325.570312
9997,-9.730036,0.155623,0.685939,-0.000750,-0.003931,0.002091,100325.570312
10007,-9.749189,0.112527,0.706290,-0.001282,-0.004463,0.001559,100325.492188
10022,-9.768343,0.153229,0.697910,-0.003411,-0.003399,0.003688,100325.492188
10032,-9.743204,0.147243,0.709881,-0.002879,-0.002867,0.003155,100325.492188
10042,-9.755175,0.141258,0.709881,0.000314,-0.002867,0.002091,100325.492188
10057,-9.752781,0.141258,0.717063,0.002442,-0.000738,0.001027,100325.492188
10067,-9.758766,0.146046,0.737414,0.005635,0.000858,0.001027,100325.664062
10082,-9.762358,0.118513,0.689530,0.009360,0.001922,0.001559,100325.664062
10093,-9.756371,0.146046,0.679953,0.009360,0.004051,0.003688,100325.664062
10107,-9.751583,0.153229,0.712275,0.009892,0.005115,0.004752,100325.664062
10117,-9.724051,0.142455,0.679953,0.009360,0.005115,0.004752,100325.648438
10132,-9.710882,0.096965,0.665588,0.007231,0.002986,0.005284,100325.648438
10143,-9.745598,0.138864,0.659603,0.004039,0.002454,0.003688,100325.648438
10152,-9.731233,0.131681,0.633266,0.002974,0.001390,0.004752,100325.648438
10167,-9.732430,0.141258,0.701501,0.002442,0.004051,0.005284,100325.648438
10177,-9.712079,0.124498,0.693121,0.003507,0.004051,0.004220,100325.632812
10187,-9.718064,0.123301,0.702698,0.002974,0.005115,0.003155,100325.632812
10197,-9.736021,0.124498,0.664391,0.003507,0.006179,0.005284,100325.632812
10207,-9.740809,0.135272,0.701501,0.003507,0.006711,0.005284,100325.632812
10217,-9.719262,0.116119,0.611719,0.003507,0.006711,0.005816,100325.632812
10227,-9.777920,0.102951,0.688333,0.001910,0.006711,0.009541,100325.640625
10242,-9.743204,0.131681,0.652420,-0.001814,0.006711,0.009541,100325.640625
10252,-9.751583,0.135272,0.695516,-0.001814,0.005647,0.010605,100325.640625
10262,-9.732430,0.156820,0.666785,-0.004475,0.004051,0.009541,100325.640625
10272,-9.752781,0.198719,0.691924,-0.004475,0.004051,0.009541,100325.640625
10282,-9.708488,0.196325,0.701501,0.001910,0.004583,0.006880,100325.648438
10293,-9.742006,0.143652,0.661997,0.005103,0.005115,0.003688,100325.648438
10302,-9.715671,0.171185,0.733823,0.007231,0.004051,0.003155,100325.648438
10312,-9.710882,0.129287,0.663194,0.007763,0.005647,0.001559,100325.648438
10332,-9.731233,0.148441,0.672771,0.002974,0.006179,0.002091,100325.648438
10342,-9.706094,0.119710,0.648829,0.005103,0.007243,0.003688,100325.828125
10352,-9.707291,0.152032,0.635661,0.005635,0.007243,0.001559,100325.828125
10362,-9.714474,0.190339,0.676362,0.005103,0.007243,-0.000037,100325.828125
10372,-9.726444,0.167594,0.688333,0.008296,0.007243,-0.002166,100325.828125
10382,-9.716867,0.108936,0.663194,0.008828,0.006179,-0.001634,100325.828125
10397,-9.713276,0.129287,0.673968,0.008828,0.005647,-0.002166,100325.789062
10407,-9.736021,0.161609,0.645237,0.009360,0.005647,-0.002698,100325.789062
10417,-9.740809,0.118513,0.679953,0.010424,0.005115,-0.003762,100325.789062
10427,-9.731233,0.134075,0.687136,0.008296,0.006711,-0.003230,100325.789062
10442,-9.734824,0.105345,0.657208,0.006167,0.006711,-0.000569,100325.789062
10452,-9.747993,0.093374,0.620098,0.004039,0.005647,0.000495,100325.726562
10462,-9.745598,0.161609,0.614113,0.000314,0.004583,0.001027,100325.726562
10472,-9.719262,0.140061,0.677559,-0.001282,0.004583,0.001559,100325.726562
10482,-9.739613,0.120907,0.676362,0.000846,0.002454,0.002091,100325.726562
10502,-9.721656,0.128090,0.679953,-0.005007,0.002454,0.003155,100325.671875
10512,-9.725247,0.129287,0.624887,-0.007136,0.002454,0.003688,100325.671875
10522,-9.726444,0.153229,0.690727,-0.008732,0.003519,0.003155,100325.671875
10542,-9.730036,0.122104,0.707487,-0.003943,0.001922,0.003155,100325.671875
10552,-9.737218,0.130484,0.671574,0.002974,0.002454,0.001559,100325.671875
10562,-9.738416,0.130484,0.646434,0.001378,0.004051,0.003688,100325.765625
10577,-9.739613,0.106542,0.642843,-0.000750,0.004051,0.006880,100325.765625
10587,-9.730036,0.119710,0.664391,-0.002347,0.002986,0.008477,100325.765625
10597,-9.726444,0.110133,0.597353,-0.007668,0.000858,0.010073,100325.765625
10612,-9.715671,0.143652,0.664391,-0.015117,-0.002335,0.011137,100325.773438
10622,-9.710882,0.158017,0.661997,-0.012457,-0.004463,0.007944,100325.773438
10632,-9.744401,0.150835,0.679953,-0.009264,-0.004995,0.004752,100325.773438
10643,-9.734824,0.164003,0.714669,-0.005007,-0.004463,0.004220,100325.773438
10662,-9.727641,0.140061,0.708684,0.000314,-0.003931,0.001559,100325.773438
10672,-9.736021,0.116119,0.670376,-0.002879,-0.002867,0.003688,100325.804688
10682,-9.742006,0.150835,0.708684,-0.002347,-0.001270,0.005816,100325.804688
10697,-9.734824,0.125696,0.603339,-0.002879,-0.003931,0.003688,100325.804688
10707,-9.731233,0.191536,0.687136,-0.003943,-0.003399,0.003688,100325.804688
10717,-9.744401,0.166397,0.628478,-0.003943,-0.003399,0.001559,100325.804688
10727,-9.777920,0.125696,0.645237,-0.004475,-0.003931,-0.001101,100325.703125
10742,-9.722853,0.155623,0.675165,-0.006603,-0.006592,-0.004826,100325.703125
10757,-9.743204,0.141258,0.660800,-0.005539,-0.008188,-0.007487,100325.703125
10776,-9.716867,0.132878,0.679953,-0.005007,-0.008720,-0.009615,100325.601562
10798,-9.708488,0.146046,0.642843,-0.008732,-0.009252,-0.012808,100325.601562
10812,-9.747993,0.136469,0.719458,-0.008732,-0.009784,-0.012808,100325.601562
10832,-9.737218,0.178368,0.769736,-0.003411,-0.010316,-0.010679,100325.726562
10842,-9.738416,0.059855,0.426168,0.005103,-0.010848,-0.008551,100325.726562
10862,-9.720459,0.117316,0.732626,-0.006071,-0.011380,-0.008019,100325.726562
10872,-9.700109,0.147243,0.702698,-0.010328,-0.010316,-0.005358,100325.726562
10897,-9.759963,-0.015562,0.672771,0.004039,-0.006592,-0.002698,100325.851562
10907,-9.758766,0.063446,0.676362,-0.005007,-0.003399,0.002623,100325.851562
10932,-9.783905,0.108936,0.683545,-0.005539,-0.000206,0.010073,100325.851562
10952,-9.730036,0.126893,0.715866,-0.005539,-0.000738,0.014330,100325.812500
10962,-9.737218,0.118513,0.726640,-0.009796,-0.000206,0.014862,100325.812500
10982,-9.712079,0.183156,0.712275,-0.002347,0.004051,0.015926,100325.812500
11007,-9.718064,0.122104,0.677559,0.000846,0.002986,0.012733,100325.773438
11022,-9.728839,0.152032,0.687136,0.001910,0.000858,0.010073,100325.773438
11042,-9.708488,0.140061,0.660800,0.000314,-0.000738,0.006880,100325.773438
11052,-9.722853,0.128090,0.681150,0.001910,-0.001270,0.005284,100325.773438
11072,-9.742006,0.148441,0.705092,0.002974,-0.001270,0.004220,100325.937500
11082,-9.743204,0.117316,0.675165,0.003507,0.000326,0.004220,100325.937500
11092,-9.751583,0.136469,0.651223,0.002974,0.000326,0.005816,100325.937500
11107,-9.779117,0.132878,0.738611,-0.000218,0.001390,0.008477,100325.937500
11117,-9.758766,0.159214,0.644040,-0.000750,0.002986,0.008477,100325.914062
11127,-9.730036,0.134075,0.705092,-0.002879,0.005115,0.010605,100325.914062
11137,-9.736021,0.132878,0.695516,-0.005007,0.004583,0.011669,100325.914062
11152,-9.770737,0.142455,0.610521,-0.006071,0.002986,0.011669,100325.914062
11162,-9.740809,0.126893,0.640449,-0.007136,0.004051,0.012733,100325.914062
11172,-9.708488,0.147243,0.666785,-0.009796,0.002454,0.012201,100325.742188
11187,-9.715671,0.175974,0.696713,-0.008732,0.004583,0.009009,100325.742188
11197,-9.706094,0.114922,0.652420,-0.003943,0.005647,0.007412,100325.742188
11207,-9.708488,0.131681,0.666785,-0.001814,0.006711,0.007412,100325.742188
11222,-9.725247,0.154426,0.666785,-0.007136,0.005647,0.007412,100325.742188
11232,-9.752781,0.156820,0.663194,-0.009264,0.005115,0.007944,100325.617188
11242,-9.738416,0.142455,0.697910,-0.007136,0.001922,0.006348,100325.617188
11252,-9.728839,0.143652,0.688333,-0.007136,0.002454,0.006880,100325.617188
11267,-9.722853,0.172383,0.688333,-0.005007,0.001390,0.005816,100325.617188
11277,-9.757569,0.186748,0.693121,-0.006071,-0.000738,0.004752,100325.617188
11287,-9.713276,0.210690,0.687136,-0.003411,0.000326,0.005284,100325.507812
11297,-9.744401,0.167594,0.767342,0.000314,-0.000738,0.001027,100325.507812
11307,-9.747993,0.166397,0.726640,0.003507,-0.001270,0.000495,100325.507812
11317,-9.730036,0.195127,0.699107,0.005635,0.001922,0.001027,100325.507812
11327,-9.724051,0.149638,0.715866,0.009892,0.002454,0.002091,100325.507812
11337,-9.756371,0.129287,0.667982,0.010424,0.000326,-0.000037,100325.609375
11347,-9.752781,0.143652,0.659603,0.007763,0.001390,0.001559,100325.609375
11357,-9.750386,0.179565,0.687136,0.008828,-0.000738,0.003155,100325.609375
11367,-9.732430,0.156820,0.720655,0.009360,-0.000738,0.002623,100325.609375
11377,-9.737218,0.173580,0.725443,0.010424,-0.001803,0.002623,100325.609375
11387,-9.701305,0.193930,0.735020,0.010956,0.000858,0.001027,100325.609375
11397,-9.743204,0.167594,0.681150,0.014681,0.000858,-0.000569,100325.617188
11417,-9.753978,0.153229,0.676362,0.016277,-0.000206,0.000495,100325.617188
11427,-9.753978,0.132878,0.663194,0.014149,0.000858,0.002091,100325.617188
11437,-9.751583,0.143652,0.678756,0.012552,0.000858,0.003688,100325.617188
11452,-9.702502,0.150835,0.694318,0.008296,-0.000206,0.005284,100325.585938
11462,-9.751583,0.144849,0.652420,0.005103,0.001390,0.005816,100325.585938
11472,-9.738416,0.155623,0.688333,0.002442,0.001390,0.006880,100325.585938
11482,-9.737218,0.130484,0.653617,0.002974,0.001390,0.006348,100325.585938
11492,-9.713276,0.149638,0.651223,0.001378,0.001390,0.006880,100325.585938
11512,-9.724051,0.184354,0.622492,-0.003943,-0.001803,0.007944,100325.554688
11522,-9.753978,0.185551,0.693121,-0.005007,-0.001803,0.005816,100325.554688
11532,-9.762358,0.156820,0.714669,-0.005539,-0.002335,0.004752,100325.554688
11542,-9.728839,0.156820,0.711078,-0.001282,-0.002867,0.004220,100325.554688
11562,-9.737218,0.155623,0.682347,-0.002879,-0.000738,0.006348,100325.703125
11572,-9.751583,0.172383,0.707487,-0.005539,0.000326,0.007412,100325.703125
11582,-9.721656,0.193930,0.697910,-0.003411,0.000858,0.006880,100325.703125
11592,-9.727641,0.191536,0.681150,-0.002879,0.000326,0.004752,100325.703125
11602,-9.734824,0.169988,0.705092,-0.000218,0.001390,0.002623,100325.703125
11612,-9.736021,0.161609,0.672771,0.002442,-0.000206,0.001027,100325.710938
11622,-9.716867,0.162806,0.685939,0.000846,-0.000206,0.001027,100325.710938
11632,-9.747993,0.172383,0.699107,0.000314,0.000858,0.001559,100325.710938
11642,-9.720459,0.158017,0.640449,-0.000750,0.000858,0.002091,100325.710938
11652,-9.726444,0.183156,0.688333,-0.001282,0.000326,0.000495,100325.710938
11661,-9.757569,0.183156,0.691924,-0.000750,-0.000738,-0.000569,100325.710938
11671,-9.731233,0.161609,0.665588,0.000314,-0.000206,-0.000037,100325.703125
11681,-9.734824,0.202310,0.690727,0.000314,0.000858,-0.000037,100325.703125
11692,-9.732430,0.153229,0.673968,0.000314,0.002454,0.000495,100325.703125
11702,-9.736021,0.148441,0.687136,0.000314,0.002986,0.001027,100325.703125
11717,-9.730036,0.149638,0.626084,-0.001282,0.003519,0.002623,100325.703125
11726,-9.710882,0.164003,0.703895,-0.000750,0.001922,0.002623,100325.625000
11736,-9.750386,0.167594,0.660800,0.000846,0.002986,0.004752,100325.625000
11751,-9.708488,0.158017,0.646434,-0.001282,0.002454,0.003155,100325.625000
11762,-9.718064,0.189142,0.673968,0.000314,0.000858,0.001027,100325.625000
11772,-9.750386,0.192733,0.684742,-0.001282,-0.001270,-0.000037,100325.625000
11782,-9.721656,0.210690,0.676362,-0.000750,-0.000738,-0.000037,100325.484375
11792,-9.745598,0.174777,0.693121,-0.000750,-0.000206,-0.002166,100325.484375
11806,-9.722853,0.177171,0.656011,-0.000218,-0.001270,-0.001634,100325.484375
11817,-9.736021,0.171185,0.699107,-0.001814,-0.002335,-0.001634,100325.484375
11827,-9.703699,0.183156,0.679953,0.000846,-0.002867,-0.001101,100325.484375
11837,-9.684546,0.203507,0.693121,0.000314,-0.002867,-0.003762,100325.679688
11846,-9.698911,0.166397,0.695516,0.002974,-0.002335,-0.003762,100325.679688
11857,-9.744401,0.120907,0.697910,0.003507,-0.001270,-0.003230,100325.679688
11867,-9.709685,0.146046,0.683545,0.005103,-0.000738,-0.003762,100325.679688
11877,-9.745598,0.175974,0.671574,0.003507,-0.001270,-0.003762,100325.679688
11887,-9.764751,0.146046,0.644040,0.000846,-0.001270,-0.002698,100325.726562
11897,-9.751583,0.167594,0.635661,0.000314,-0.002867,-0.001634,100325.726562
11907,-9.740809,0.146046,0.691924,-0.000750,-0.003399,-0.001101,100325.726562
11917,-9.738416,0.156820,0.678756,-0.001282,-0.005527,-0.002166,100325.726562
11927,-9.713276,0.164003,0.627281,-0.002347,-0.005527,-0.001101,100325.726562
11942,-9.706094,0.183156,0.712275,-0.002879,-0.002335,-0.001634,100325.609375
11951,-9.716867,0.141258,0.714669,-0.002879,-0.003931,-0.002166,100325.609375
11962,-9.742006,0.174777,0.688333,-0.002879,-0.001270,-0.001634,100325.609375
11976,-9.733627,0.178368,0.696713,-0.000218,-0.002867,-0.002166,100325.609375
11986,-9.750386,0.129287,0.714669,-0.000218,-0.002335,0.001027,100325.609375
12001,-9.731233,0.177171,0.671574,-0.003943,-0.002335,0.002091,100325.664062
12012,-9.728839,0.153229,0.688333,-0.003943,-0.001270,0.002091,100325.664062
12022,-9.747993,0.159214,0.702698,-0.003943,-0.002867,0.003155,100325.664062
12036,-9.738416,0.196325,0.690727,-0.003411,-0.002335,0.002623,100325.664062
12047,-9.737218,0.165200,0.687136,0.000314,-0.003399,0.000495,100325.664062
12061,-9.755175,0.144849,0.646434,0.000314,-0.002867,-0.000569,100325.851562
12071,-9.716867,0.179565,0.730232,-0.001282,-0.002867,0.000495,100325.851562
12082,-9.745598,0.184354,0.701501,0.000846,-0.002867,-0.002166,100325.851562
12096,-9.740809,0.167594,0.738611,0.001910,-0.002335,-0.001634,100325.851562
12106,-9.722853,0.140061,0.702698,0.002974,-0.002335,-0.001634,100325.828125
12116,-9.740809,0.166397,0.725443,0.005103,-0.001803,-0.001634,100325.828125
12126,-9.740809,0.169988,0.642843,0.004571,-0.001803,-0.002166,100325.828125
12137,-9.710882,0.191536,0.711078,0.002974,-0.000206,-0.001634,100325.828125
12151,-9.731233,0.192733,0.690727,0.000846,-0.000206,-0.002166,100325.828125
12162,-9.724051,0.155623,0.701501,0.002442,-0.002335,-0.004294,100325.726562
12176,-9.739613,0.148441,0.702698,0.002974,-0.001803,-0.005358,100325.726562
12186,-9.762358,0.142455,0.673968,0.000846,-0.002335,-0.004826,100325.726562
12201,-9.718064,0.152032,0.712275,-0.001814,-0.002335,-0.001634,100325.726562
12211,-9.704897,0.160412,0.684742,-0.001282,-0.001270,-0.001634,100325.726562
12226,-9.771935,0.178368,0.709881,0.001378,-0.000206,-0.003762,100325.703125
12236,-9.752781,0.132878,0.694318,0.001378,0.001390,-0.002166,100325.703125
12246,-9.719262,0.183156,0.621295,-0.000218,0.000326,-0.002166,100325.703125
12256,-9.742006,0.159214,0.675165,-0.002879,-0.000738,-0.002166,100325.703125
12266,-9.768343,0.204704,0.685939,-0.005007,-0.000206,0.000495,100325.703125
12276,-9.706094,0.181959,0.723049,-0.003411,-0.001803,-0.000037,100325.671875
12286,-9.746795,0.148441,0.748188,-0.003943,-0.001270,-0.001101,100325.671875
12306,-9.713276,0.126893,0.673968,-0.001814,-0.000738,-0.001101,100325.671875
12316,-9.725247,0.160412,0.677559,-0.002879,-0.001803,-0.002166,100325.671875
12331,-9.749189,0.142455,0.679953,-0.002879,-0.002335,-0.003230,100325.781250
12342,-9.715671,0.172383,0.694318,-0.002879,-0.000206,-0.004294,100325.781250
12356,-9.739613,0.148441,0.666785,-0.000218,-0.001803,-0.003230,100325.781250
12371,-9.719262,0.172383,0.671574,0.000314,-0.000738,-0.001101,100325.781250
12386,-9.739613,0.162806,0.733823,-0.000750,-0.000738,-0.002166,100325.734375
12402,-9.727641,0.138864,0.670376,0.000846,-0.000206,-0.003230,100325.734375
12422,-9.745598,0.144849,0.681150,0.002974,-0.000206,-0.002166,100325.734375
12447,-9.753978,0.130484,0.708684,0.000314,0.000326,-0.002698,100325.695312
12477,-9.722853,0.144849,0.709881,-0.000218,0.000326,-0.000569,100325.695312
12497,-9.731233,0.140061,0.693121,-0.000750,0.002454,0.002623,100325.695312
12506,-9.757569,0.171185,0.682347,-0.003411,0.000858,0.002623,100325.718750
12527,-9.745598,0.144849,0.694318,-0.001814,0.001390,0.001559,100325.718750
12542,-9.751583,0.168791,0.669179,0.001910,0.002986,0.002091,100325.718750
12558,-9.758766,0.124498,0.646434,-0.000218,0.002454,0.002091,100325.890625
12567,-9.747993,0.154426,0.707487,-0.004475,0.001390,0.005284,100325.890625
12597,-9.715671,0.169988,0.666785,-0.002879,0.001390,0.002623,100325.890625
12607,-9.738416,0.119710,0.687136,-0.000750,0.001390,0.000495,100325.890625
12622,-9.738416,0.152032,0.679953,-0.001814,0.000858,-0.000569,100325.851562
12631,-9.727641,0.155623,0.682347,-0.003411,0.001390,-0.000037,100325.851562
12662,-9.742006,0.116119,0.738611,0.000314,0.002986,-0.001634,100325.851562
12671,-9.743204,0.154426,0.703895,-0.000750,0.003519,-0.001634,100325.890625
12681,-9.738416,0.149638,0.640449,-0.001282,0.005115,0.000495,100325.890625
12691,-9.732430,0.138864,0.687136,-0.002347,0.004051,0.000495,100325.890625
12701,-9.734824,0.117316,0.690727,-0.000750,0.003519,0.001027,100325.890625
12716,-9.738416,0.154426,0.656011,-0.001282,0.003519,0.001559,100325.890625
12726,-9.758766,0.149638,0.742203,0.000846,0.005647,-0.001634,100325.750000
12741,-9.719262,0.144849,0.693121,0.005103,0.006711,-0.000037,100325.750000
12751,-9.769540,0.107739,0.685939,0.002974,0.007243,0.001027,100325.750000
12761,-9.756371,0.149638,0.694318,0.001378,0.006179,0.000495,100325.750000
12771,-9.750386,0.166397,0.683545,-0.001282,0.007243,0.001027,100325.750000
12781,-9.715671,0.158017,0.683545,0.000314,0.007243,0.000495,100325.625000
12792,-9.749189,0.144849,0.658405,0.000846,0.005115,-0.000569,100325.625000
12806,-9.732430,0.172383,0.691924,-0.001282,0.002986,-0.000569,100325.625000
12816,-9.740809,0.132878,0.693121,-0.000218,0.005115,-0.000037,100325.625000
12826,-9.721656,0.132878,0.645237,-0.000218,0.005115,-0.002166,100325.625000
12841,-9.712079,0.158017,0.681150,-0.000750,0.005647,-0.000569,100325.679688
12851,-9.727641,0.132878,0.669179,0.000314,0.006711,-0.001101,100325.679688
12861,-9.720459,0.125696,0.703895,-0.000218,0.006711,0.002091,100325.679688
12871,-9.742006,0.136469,0.651223,0.001910,0.007775,0.001559,100325.679688
12881,-9.731233,0.177171,0.726640,0.000846,0.006711,0.002091,100325.679688
12892,-9.713276,0.158017,0.700304,0.000846,0.006179,0.001559,100325.710938
12901,-9.714474,0.172383,0.679953,0.001378,0.005647,-0.000037,100325.710938
12911,-9.744401,0.129287,0.697910,0.004039,0.006179,-0.001101,100325.710938
12921,-9.739613,0.118513,0.658405,0.007763,0.006711,-0.002166,100325.710938
12931,-9.744401,0.122104,0.663194,0.006167,0.006711,-0.001634,100325.710938
12942,-9.743204,0.159214,0.675165,0.007763,0.007243,-0.001634,100325.718750
12956,-9.734824,0.128090,0.678756,0.006699,0.005647,-0.001101,100325.718750
12966,-9.719262,0.118513,0.714669,0.005103,0.006179,-0.001634,100325.718750
12976,-9.736021,0.122104,0.684742,0.006167,0.007243,-0.000569,100325.718750
12986,-9.745598,0.112527,0.719458,0.007763,0.007775,-0.000569,100325.718750
13001,-9.712079,0.137667,0.647632,0.005103,0.008308,0.002091,100325.695312
13011,-9.731233,0.107739,0.642843,0.006699,0.008308,0.002091,100325.695312
13021,-9.739613,0.156820,0.650026,0.002974,0.008308,0.002091,100325.695312
13031,-9.721656,0.152032,0.694318,-0.000750,0.007243,0.002091,100325.695312
13042,-9.726444,0.180762,0.677559,0.000314,0.008840,0.002091,100325.695312
13051,-9.725247,0.120907,0.672771,0.002974,0.008308,0.002091,100325.789062
13061,-9.716867,0.140061,0.632069,0.001910,0.009372,0.001027,100325.789062
13071,-9.751583,0.130484,0.641646,-0.001814,0.008308,-0.000037,100325.789062
13081,-9.752781,0.141258,0.624887,-0.001282,0.008308,-0.000569,100325.789062
13092,-9.694122,0.131681,0.673968,-0.002879,0.006179,-0.000569,100325.789062
13106,-9.728839,0.125696,0.644040,-0.005007,0.005647,-0.002698,100325.820312
13116,-9.750386,0.120907,0.585382,-0.006071,0.004051,-0.003230,100325.820312
13126,-9.695320,0.142455,0.603339,-0.007668,0.002986,-0.004294,100325.820312
13146,-9.709685,0.155623,0.657208,-0.014585,-0.002335,-0.005890,100325.820312
13156,-9.734824,0.144849,0.671574,-0.016181,-0.003931,-0.008019,100325.820312
13166,-9.685743,0.180762,0.670376,-0.015649,-0.007656,-0.008551,100325.835938
13176,-9.731233,0.152032,0.679953,-0.014053,-0.007656,-0.010679,100325.835938
13187,-9.737218,0.166397,0.699107,-0.009796,-0.009252,-0.012276,100325.835938
13201,-9.746795,0.146046,0.690727,-0.005539,-0.008720,-0.012276,100325.835938
13211,-9.714474,0.123301,0.656011,-0.000750,-0.009784,-0.012808,100325.835938
13221,-9.733627,0.104148,0.685939,-0.001282,-0.009784,-0.011212,100325.718750
13231,-9.721656,0.113725,0.684742,0.000314,-0.009784,-0.009083,100325.718750
13241,-9.719262,0.128090,0.685939,0.000314,-0.009784,-0.007487,100325.718750
13256,-9.771935,0.142455,0.687136,0.001910,-0.009784,-0.005358,100325.718750
13266,-9.751583,0.132878,0.700304,0.005103,-0.010848,-0.004826,100325.718750
13276,-9.751583,0.124498,0.745794,0.007231,-0.008720,-0.003230,100325.617188
13286,-9.755175,0.120907,0.669179,0.012020,-0.009252,-0.002166,100325.617188
13296,-9.764751,0.081403,0.718261,0.013085,-0.009252,-0.001101,100325.617188
13306,-9.714474,0.155623,0.685939,0.012552,-0.006592,0.000495,100325.617188
13316,-9.736021,0.178368,0.717063,0.012020,-0.005527,-0.000037,100325.617188
13326,-9.703699,0.117316,0.697910,0.016277,-0.006592,-0.000569,100325.773438
13336,-9.738416,0.124498,0.675165,0.016277,-0.008188,-0.002166,100325.773438
13351,-9.730036,0.138864,0.718261,0.014149,-0.008720,-0.002698,100325.773438
13361,-9.743204,0.137667,0.706290,0.013085,-0.007656,-0.002166,100325.773438
13371,-9.747993,0.084994,0.653617,0.012020,-0.006592,-0.002698,100325.773438
13386,-9.755175,0.120907,0.709881,0.007763,-0.005527,-0.000037,100325.781250
13401,-9.755175,0.152032,0.741005,0.005103,-0.003399,0.002091,100325.781250
13411,-9.720459,0.100556,0.652420,0.008296,-0.002335,0.004752,100325.781250
13421,-9.758766,0.144849,0.763750,0.010956,-0.001270,0.004752,100325.781250
13431,-9.761160,0.118513,0.697910,0.015745,-0.000738,0.004752,100325.781250
13441,-9.720459,0.077812,0.673968,0.020534,0.000858,0.006348,100325.773438
13456,-9.725247,0.051475,0.639252,0.010424,0.000858,0.009009,100325.773438
13466,-9.759963,0.079009,0.708684,0.008296,0.003519,0.011137,100325.773438
13476,-9.734824,0.180762,0.633266,0.010424,0.005647,0.011669,100325.773438
13486,-9.737218,0.124498,0.659603,0.011488,0.002986,0.008477,100325.773438
13506,-9.742006,0.101754,0.677559,0.004039,0.002454,0.008477,100325.718750
13516,-9.730036,0.177171,0.634463,-0.002879,0.001922,0.010073,100325.718750
13531,-9.718064,0.140061,0.665588,0.000846,0.001390,0.009009,100325.718750
13541,-9.716867,0.116119,0.627281,-0.001814,-0.000206,0.004752,100325.718750
13556,-9.738416,0.141258,0.661997,-0.007136,-0.000738,0.004752,100325.875000
13566,-9.734824,0.144849,0.688333,-0.011392,0.000858,0.006348,100325.875000
13576,-9.726444,0.141258,0.719458,-0.010328,0.001390,0.005284,100325.875000
13586,-9.724051,0.106542,0.691924,-0.009264,0.000858,0.006880,100325.875000
13596,-9.747993,0.102951,0.689530,-0.009264,0.001390,0.007412,100325.875000
13616,-9.750386,0.126893,0.691924,-0.016714,0.001922,0.009541,100325.968750
13636,-9.746795,0.164003,0.699107,-0.014585,0.001922,0.009541,100325.968750
13646,-9.706094,0.153229,0.681150,-0.008200,0.000858,0.007944,100325.968750
13656,-9.743204,0.124498,0.685939,-0.008200,0.001922,0.006880,100325.890625
13676,-9.715671,0.130484,0.651223,-0.007668,0.004051,0.009541,100325.890625
13691,-9.738416,0.137667,0.656011,-0.009796,0.002454,0.011137,100325.890625
13701,-9.722853,0.187945,0.724246,-0.007136,0.000858,0.011137,100325.890625
13711,-9.733627,0.172383,0.737414,-0.005007,0.001922,0.008477,100325.859375
13721,-9.733627,0.158017,0.684742,-0.001814,0.002454,0.007412,100325.859375
13731,-9.726444,0.141258,0.694318,0.000314,0.002454,0.005284,100325.859375
13741,-9.724051,0.166397,0.671574,-0.000750,0.000858,0.004752,100325.859375
13756,-9.709685,0.152032,0.681150,-0.001282,-0.000206,0.001559,100325.859375
13766,-9.739613,0.190339,0.672771,0.003507,0.000858,0.001559,100325.859375
13776,-9.742006,0.137667,0.712275,0.005103,0.000858,0.002623,100325.820312
13786,-9.737218,0.155623,0.666785,0.008296,0.001922,0.002623,100325.820312
13796,-9.739613,0.132878,0.690727,0.008296,0.002454,0.002623,100325.820312
13806,-9.765948,0.148441,0.646434,0.005103,0.001922,0.004220,100325.820312
13816,-9.756371,0.120907,0.654814,0.000846,0.001922,0.005284,100325.820312
13826,-9.736021,0.144849,0.673968,-0.000750,0.000858,0.003688,100326.070312
13841,-9.745598,0.131681,0.682347,-0.001814,-0.001270,0.001027,100326.070312
13856,-9.742006,0.174777,0.699107,-0.003411,-0.000738,0.003688,100326.070312
13866,-9.730036,0.141258,0.690727,-0.001814,0.001390,0.001559,100326.070312
13876,-9.742006,0.149638,0.695516,-0.002347,0.000858,0.000495,100326.070312
13886,-9.720459,0.177171,0.703895,-0.003943,0.000858,0.000495,100326.187500
13896,-9.757569,0.159214,0.720655,-0.001282,0.000858,0.000495,100326.187500
13906,-9.744401,0.130484,0.696713,-0.003411,0.000858,0.001027,100326.187500
13916,-9.743204,0.141258,0.634463,-0.007136,0.001390,0.000495,100326.187500
13926,-9.733627,0.167594,0.647632,-0.008732,0.001922,-0.000569,100326.187500
13936,-9.722853,0.141258,0.658405,-0.008200,0.001390,0.000495,100326.218750
13946,-9.732430,0.159214,0.682347,-0.008732,-0.000206,-0.001101,100326.218750
13956,-9.751583,0.158017,0.742203,-0.009796,0.001922,-0.002698,100326.218750
13978,-9.725247,0.123301,0.684742,-0.008200,0.001390,-0.002698,100326.218750
13996,-9.733627,0.125696,0.599748,-0.006071,0.002454,-0.003230,100326.179688
14011,-9.767146,0.159214,0.853533,-0.011392,0.004051,-0.005890,100326.179688
14021,-9.745598,0.119710,0.523133,-0.007136,0.004583,-0.002698,100326.179688
14031,-9.661801,0.185551,0.744597,-0.009796,0.004583,-0.003762,100326.179688
14041,-9.763555,0.104148,0.757765,-0.008200,0.001922,-0.005890,100326.179688
14056,-9.755175,0.175974,0.538695,-0.008732,0.005115,-0.001634,100326.375000
14078,-9.690532,0.061052,0.584185,-0.015649,0.002986,-0.001634,100326.375000
14091,-9.713276,0.197522,0.713472,-0.016714,0.005115,-0.002166,100326.375000
14101,-9.777920,0.150835,0.779313,-0.016714,0.000858,-0.006955,100326.398438
14126,-9.733627,0.138864,0.756568,-0.009796,0.002454,-0.005358,100326.398438
14149,-9.763555,0.146046,0.684742,-0.008732,0.002986,-0.005358,100326.398438
14161,-9.751583,0.152032,0.726640,-0.008200,0.000858,-0.005890,100326.390625
14186,-9.740809,0.207098,0.724246,-0.007136,0.004583,-0.003230,100326.390625
14196,-9.755175,0.118513,0.675165,0.000846,0.003519,-0.008551,100326.390625
14221,-9.739613,0.128090,0.652420,0.001378,0.005115,-0.005890,100326.296875
14241,-9.736021,0.114922,0.727837,0.001910,0.007243,-0.007487,100326.296875
14251,-9.734824,0.234632,0.666785,0.002974,0.008840,-0.008551,100326.296875
14271,-9.713276,0.106542,0.661997,0.006167,0.014693,-0.008019,100326.203125
14296,-9.759963,0.096965,0.714669,0.002974,0.021610,0.001559,100326.203125
14306,-9.752781,0.141258,0.749385,0.001378,0.025867,0.005816,100326.203125
14316,-9.724051,0.160412,0.706290,0.001378,0.029060,0.007944,100326.203125
14326,-9.731233,0.166397,0.720655,0.008828,0.029060,0.005816,100326.335938
14336,-9.744401,0.136469,0.703895,0.012552,0.030656,0.004752,100326.335938
14346,-9.736021,0.114922,0.654814,0.012020,0.033317,0.004220,100326.335938
14356,-9.732430,0.128090,0.640449,0.011488,0.034381,0.003688,100326.335938
14366,-9.749189,0.117316,0.672771,0.009360,0.037041,0.003688,100326.335938
14381,-9.733627,0.129287,0.672771,0.010956,0.037041,0.003688,100326.351562
14391,-9.734824,0.135272,0.624887,0.012020,0.038106,0.003688,100326.351562
14411,-9.771935,0.138864,0.667982,0.010956,0.038106,0.001027,100326.351562
14421,-9.713276,0.144849,0.624887,0.012020,0.039170,-0.001101,100326.351562
14431,-9.762358,0.164003,0.584185,0.015745,0.042363,-0.004294,100326.343750
14441,-9.700109,0.187945,0.720655,0.015213,0.038106,-0.006423,100326.343750
14456,-9.730036,0.209493,0.769736,0.021598,0.041298,-0.010679,100326.343750
14466,-9.718064,0.088585,0.465672,0.027984,0.039170,-0.010147,100326.343750
14476,-9.710882,0.204704,0.743400,0.029048,0.038638,-0.013872,100326.343750
14486,-9.732430,0.131681,0.502782,0.037030,0.037041,-0.014936,100326.242188
14501,-9.707291,0.090980,0.538695,0.037030,0.034913,-0.019193,100326.242188
14511,-9.697714,0.095768,0.683545,0.029580,0.032785,-0.021322,100326.242188
14521,-9.786300,0.107739,0.469264,0.032773,0.033849,-0.019193,100326.242188
14531,-9.720459,0.071826,0.646434,0.025323,0.030656,-0.017065,100326.242188
14541,-9.712079,0.162806,0.587777,0.028516,0.031188,-0.018661,100326.148438
14556,-9.767146,0.112527,0.523133,0.030644,0.030124,-0.018661,100326.148438
14566,-9.745598,0.044293,0.477643,0.029048,0.026399,-0.018661,100326.148438
14576,-9.782708,0.125696,0.645237,0.024259,0.027996,-0.017597,100326.148438
14586,-9.730036,0.126893,0.472855,0.022663,0.022675,-0.018129,100326.148438
14601,-9.753978,0.113725,0.411803,0.022130,0.021610,-0.019725,100326.218750
14611,-9.708488,0.120907,0.665588,0.021598,0.019482,-0.020257,100326.218750
14621,-9.716867,0.086191,0.549469,0.023727,0.013097,-0.021322,100326.218750
14641,-9.696517,0.063446,0.581791,0.014681,0.013629,-0.020257,100326.218750
14656,-9.745598,0.088585,0.507571,0.012020,0.010968,-0.021854,100326.203125
14671,-9.749189,0.101754,0.592565,0.010956,0.007243,-0.019725,100326.203125
14686,-9.749189,0.049081,0.604536,0.010956,0.007243,-0.019193,100326.203125
14696,-9.763555,-0.009577,0.562637,0.006699,0.006179,-0.016001,100326.203125
14706,-9.733627,0.059855,0.550666,0.007231,0.007243,-0.014936,100326.218750
14716,-9.774328,0.041899,0.480037,0.004039,0.006179,-0.012276,100326.218750
14726,-9.751583,0.084994,0.667982,0.002442,0.007775,-0.011212,100326.218750
14736,-9.720459,0.068235,0.610521,0.001378,0.005647,-0.007487,100326.218750
14751,-9.689334,0.107739,0.469264,0.010956,0.006711,-0.006955,100326.218750
14761,-9.703699,0.074220,0.568623,0.012552,0.005115,-0.005358,100326.226562
14771,-9.758766,-0.016759,0.515950,0.013085,0.003519,-0.006955,100326.226562
14781,-9.744401,0.043096,0.519542,0.002974,0.002986,-0.004294,100326.226562
14791,-9.764751,0.100556,0.562637,-0.004475,0.000858,-0.001101,100326.226562
14801,-9.736021,0.101754,0.602142,-0.004475,0.002454,-0.001634,100326.226562
14811,-9.746795,0.088585,0.554258,-0.000218,-0.000206,-0.003762,100326.226562
14821,-9.742006,0.089783,0.542287,0.003507,-0.000738,-0.005358,100326.273438
14831,-9.739613,0.052672,0.575805,0.005103,0.000326,-0.008551,100326.273438
14841,-9.771935,0.022745,0.560243,0.002442,0.000858,-0.005890,100326.273438
14851,-9.777920,0.073023,0.592565,-0.001282,0.002454,-0.005358,100326.273438
14861,-9.740809,0.092177,0.609324,0.000846,0.001922,-0.001101,100326.273438
14871,-9.767146,0.076614,0.599748,0.006699,0.004583,0.001559,100326.343750
14881,-9.769540,0.037110,0.538695,0.006699,0.005115,0.002091,100326.343750
14891,-9.777920,0.033519,0.492008,0.001910,0.005115,0.005284,100326.343750
14906,-9.724051,0.067038,0.495600,-0.003411,0.006711,0.009541,100326.343750
14921,-9.713276,0.071826,0.536301,-0.005539,0.005115,0.008477,100326.343750
14931,-9.747993,0.073023,0.598550,-0.002879,0.002986,0.006348,100326.296875
14941,-9.714474,0.092177,0.533907,-0.001814,0.002986,0.004752,100326.296875
14956,-9.746795,0.049081,0.543484,-0.003411,0.003519,0.002091,100326.296875
14966,-9.719262,0.114922,0.549469,-0.005007,0.004051,0.003155,100326.296875
14976,-9.732430,0.119710,0.578200,-0.002879,0.002986,-0.002698,100326.296875
14986,-9.737218,0.093374,0.600945,0.001910,0.000858,-0.006423,100326.156250
14996,-9.771935,0.095768,0.529119,0.002442,0.001922,-0.008019,100326.156250
15006,-9.755175,0.093374,0.537498,0.003507,0.003519,-0.008551,100326.156250
15016,-9.720459,0.070629,0.559046,0.007763,0.003519,-0.010679,100326.156250
15031,-9.771935,0.094571,0.531513,0.010956,0.001922,-0.012276,100326.156250
15041,-9.728839,0.064643,0.506374,0.010424,0.000326,-0.012808,100326.023438
15051,-9.763555,0.062249,0.537498,0.006699,-0.000738,-0.013340,100326.023438
15061,-9.780313,0.073023,0.535104,0.004571,-0.002867,-0.014404,100326.023438
15071,-9.746795,0.070629,0.560243,0.004571,-0.003931,-0.018661,100326.023438
15081,-9.712079,0.076614,0.557849,0.003507,-0.004463,-0.021854,100326.023438
15091,-9.732430,0.056264,0.563834,0.006699,-0.005527,-0.023450,100326.226562
15101,-9.742006,0.037110,0.512359,0.007231,-0.005527,-0.023450,100326.226562
15111,-9.725247,-0.013168,0.500388,0.004039,-0.004463,-0.023982,100326.226562
15121,-9.759963,0.064643,0.586579,0.001378,-0.003931,-0.025046,100326.226562
15131,-9.732430,0.005986,0.567426,0.000846,-0.002867,-0.020257,100326.226562
15141,-9.792285,0.009577,0.559046,0.005635,-0.003399,-0.019725,100326.226562
15151,-9.770737,0.007183,0.563834,0.004039,-0.002867,-0.016533,100326.328125
15161,-9.763555,-0.001197,0.529119,0.000314,-0.001803,-0.012808,100326.328125
15171,-9.750386,-0.001197,0.519542,-0.006603,-0.000738,-0.010679,100326.328125
15181,-9.755175,0.017957,0.526724,-0.010328,-0.001803,-0.007487,100326.328125
15191,-9.758766,0.021548,0.512359,-0.008732,-0.002335,-0.004294,100326.328125
15201,-9.781511,-0.001197,0.556652,-0.011925,-0.002335,-0.000569,100326.273438
15216,-9.767146,-0.001197,0.505177,-0.012457,-0.001803,0.003155,100326.273438
15226,-9.764751,0.046687,0.560243,-0.018310,-0.001270,0.006880,100326.273438
15236,-9.740809,0.025139,0.593762,-0.022035,-0.000206,0.006880,100326.273438
15246,-9.744401,0.064643,0.560243,-0.020438,-0.000738,0.007944,100326.273438
15256,-9.733627,0.043096,0.584185,-0.019374,-0.000206,0.009009,100326.226562
15266,-9.744401,0.061052,0.596156,-0.017246,0.000858,0.009541,100326.226562
15275,-9.715671,0.044293,0.557849,-0.015117,-0.000206,0.008477,100326.226562
15286,-9.736021,0.038307,0.556652,-0.014053,-0.001803,0.007944,100326.226562
15296,-9.695320,0.067038,0.584185,-0.014585,-0.000738,0.006348,100326.226562
15305,-9.759963,0.008380,0.532710,-0.012989,-0.002867,0.006348,100326.226562
15316,-9.776723,0.057461,0.527921,-0.011925,-0.004463,0.005816,100326.484375
15325,-9.720459,0.047884,0.561440,-0.010328,-0.003931,0.004752,100326.484375
15335,-9.750386,0.055067,0.569820,-0.009264,-0.004463,0.002623,100326.484375
15346,-9.703699,0.069432,0.584185,-0.007136,-0.004463,0.004220,100326.484375
15356,-9.751583,0.077812,0.590171,-0.004475,-0.004463,0.001559,100326.484375
15366,-9.768343,0.056264,0.597353,0.001378,-0.003399,0.000495,100326.468750
15376,-9.734824,0.029928,0.605733,0.004571,-0.002867,0.001027,100326.468750
15386,-9.737218,0.035913,0.548272,0.006167,-0.003931,0.002091,100326.468750
15396,-9.746795,0.059855,0.566229,0.007763,-0.002335,0.000495,100326.468750
15405,-9.749189,0.076614,0.565032,0.006167,-0.001803,0.001559,100326.468750
15415,-9.714474,0.046687,0.555455,0.006699,-0.001803,-0.000569,100326.468750
15426,-9.739613,0.037110,0.549469,0.007763,-0.003399,-0.000569,100326.562500
15435,-9.749189,0.041899,0.515950,0.006167,-0.002867,-0.000037,100326.562500
15446,-9.777920,-0.014365,0.542287,0.004571,-0.006059,0.001027,100326.562500
15456,-9.752781,0.032322,0.514753,0.000314,-0.005527,0.001559,100326.562500
15465,-9.742006,0.089783,0.545878,-0.003411,-0.006059,0.000495,100326.562500
15476,-9.759963,0.035913,0.569820,-0.000750,-0.006592,-0.001634,100326.632812
15485,-9.725247,0.065841,0.551863,0.002974,-0.004463,-0.001634,100326.632812
15496,-9.733627,0.092177,0.537498,0.004039,-0.003931,-0.000569,100326.632812
15510,-9.761160,-0.009577,0.567426,0.005635,-0.002867,-0.003230,100326.632812
15520,-9.728839,-0.009577,0.531513,0.002442,-0.001803,-0.001634,100326.632812
15531,-9.740809,0.025139,0.561440,-0.002879,-0.002867,0.002091,100326.703125
15545,-9.755175,0.037110,0.550666,-0.008200,-0.003399,0.002091,100326.703125
15555,-9.792285,0.074220,0.597353,-0.007668,-0.002867,0.003688,100326.703125
15570,-9.733627,0.065841,0.596156,-0.000218,0.000326,0.004752,100326.703125
15587,-9.734824,0.052672,0.559046,0.002442,0.000858,0.003688,100326.796875
15604,-9.714474,0.044293,0.513556,-0.001814,0.001922,0.004752,100326.796875
15611,-9.703699,0.009577,0.481235,-0.003943,0.002986,0.003155,100326.796875
15620,-9.732430,0.118513,0.661997,-0.012457,0.000326,0.001559,100326.796875
15630,-9.742006,0.041899,0.543484,-0.005007,0.000858,-0.001634,100326.796875
15658,-9.714474,0.023942,0.496797,0.001378,-0.000738,-0.003762,100326.851562
15666,-9.747993,0.017957,0.542287,-0.001282,-0.002335,-0.005358,100326.851562
15691,-9.771935,0.033519,0.537498,-0.012457,-0.003931,-0.001101,100326.851562
15706,-9.727641,0.057461,0.548272,-0.011925,-0.001803,-0.001101,100326.867188
15726,-9.740809,0.028730,0.565032,-0.005007,-0.000738,-0.005890,100326.867188
15741,-9.719262,0.013168,0.593762,-0.002347,0.001390,-0.006423,100326.867188
15756,-9.747993,0.046687,0.581791,-0.004475,0.002454,-0.004826,100326.882812
15781,-9.740809,0.031125,0.572214,-0.002879,0.001922,-0.004294,100326.882812
15801,-9.733627,0.020351,0.592565,0.000314,0.001922,-0.003762,100326.882812
15828,-9.751583,0.051475,0.531513,0.000846,-0.000206,-0.003230,100327.054688
15857,-9.721656,0.028730,0.550666,0.002442,-0.000738,-0.004294,100327.054688
15865,-9.731233,0.057461,0.580594,-0.002879,-0.000738,-0.005358,100327.085938
15875,-9.759963,0.069432,0.610521,0.001378,-0.000206,-0.006955,100327.085938
15885,-9.734824,0.039504,0.591368,0.005103,0.000858,-0.009083,100327.085938
15895,-9.734824,0.001197,0.533907,0.007763,0.001390,-0.007487,100327.085938
15905,-9.777920,-0.003591,0.565032,0.008828,0.002454,-0.004294,100327.085938
15915,-9.777920,-0.017957,0.575805,0.006167,0.002454,-0.002698,100327.085938
15925,-9.758766,0.031125,0.563834,0.001378,0.001922,-0.000037,100327.007812
15940,-9.744401,0.071826,0.582988,-0.002347,0.001390,-0.000569,100327.007812
15955,-9.758766,0.029928,0.557849,-0.000750,0.001390,-0.002166,100327.007812
15965,-9.759963,0.023942,0.562637,-0.000218,0.004051,-0.000569,100327.007812
15975,-9.742006,0.039504,0.554258,0.000846,0.002986,-0.002698,100326.914062
15985,-9.743204,0.022745,0.593762,0.000846,0.003519,-0.000569,100326.914062
16005,-9.740809,0.010774,0.527921,-0.002347,0.001390,0.001027,100326.914062
16015,-9.750386,0.049081,0.571017,-0.000750,0.001922,0.000495,100326.914062
16025,-9.752781,0.022745,0.592565,0.000314,0.001922,-0.000569,100326.914062
16035,-9.724051,0.051475,0.560243,-0.001814,0.002454,-0.000569,100326.820312
16045,-9.726444,0.005986,0.627281,0.000846,0.002986,-0.000569,100326.820312
16060,-9.750386,0.022745,0.561440,0.000846,0.002454,0.001027,100326.820312
16070,-9.702502,0.035913,0.580594,0.000846,0.003519,0.001559,100326.820312
16080,-9.743204,0.033519,0.556652,0.005103,0.002986,0.001027,100326.820312
16090,-9.736021,0.035913,0.581791,0.002974,0.004051,0.002091,100326.835938
16100,-9.744401,0.031125,0.526724,0.001910,0.004583,0.001027,100326.835938
16110,-9.747993,0.000000,0.548272,0.005103,0.004583,-0.000569,100326.835938
16120,-9.714474,0.019154,0.531513,0.006699,0.005647,0.000495,100326.835938
16130,-9.745598,0.029928,0.555455,0.004039,0.005647,-0.000037,100326.835938
16140,-9.708488,0.019154,0.585382,0.004039,0.002986,0.001027,100326.796875
16150,-9.773131,-0.005986,0.526724,0.001910,0.002454,0.000495,100326.796875
16160,-9.727641,0.035913,0.549469,-0.001814,0.001390,0.001559,100326.796875
16170,-9.744401,0.035913,0.581791,-0.003411,0.002454,0.001559,100326.796875
16180,-9.762358,0.027533,0.557849,-0.001282,0.002986,0.001559,100326.796875
16190,-9.780313,0.022745,0.587777,-0.000218,0.004051,0.002091,100326.796875
16200,-9.759963,0.013168,0.577003,0.001910,0.003519,0.002091,100326.687500
16210,-9.737218,0.009577,0.560243,0.000846,0.004583,0.001027,100326.687500
16220,-9.739613,0.037110,0.550666,-0.001814,0.005115,0.003155,100326.687500
16235,-9.761160,0.027533,0.549469,-0.000218,0.004583,0.005284,100326.687500
16250,-9.752781,0.047884,0.493206,0.000314,0.003519,0.004220,100326.585938
16260,-9.710882,0.020351,0.565032,0.000846,0.001922,0.005816,100326.585938
16270,-9.740809,0.007183,0.561440,0.001910,0.001390,0.005284,100326.585938
16280,-9.731233,0.052672,0.555455,0.001378,0.001390,0.005816,100326.585938
16290,-9.727641,0.017957,0.569820,0.000846,-0.000206,0.003155,100326.585938
16300,-9.734824,0.022745,0.569820,0.000846,0.000858,0.004752,100326.585938
16310,-9.724051,0.027533,0.573411,-0.000750,-0.000206,0.003688,100326.773438
16320,-9.742006,0.010774,0.566229,-0.000218,-0.000738,0.003688,100326.773438
16330,-9.725247,0.023942,0.513556,-0.000750,-0.001270,0.003688,100326.773438
16340,-9.743204,0.016759,0.580594,-0.001282,-0.000206,0.002623,100326.773438
16350,-9.759963,0.016759,0.582988,-0.002347,0.000326,0.004752,100326.773438
16360,-9.759963,0.026336,0.531513,0.000846,0.000858,0.004220,100326.914062
16370,-9.743204,0.019154,0.565032,0.001378,0.000326,0.004220,100326.914062
16380,-9.721656,0.038307,0.497994,-0.000218,0.000326,0.006880,100326.914062
16390,-9.746795,0.052672,0.519542,-0.003411,-0.000738,0.007412,100326.914062
16400,-9.751583,0.040701,0.565032,-0.001814,-0.001803,0.006348,100326.914062
16410,-9.736021,0.034716,0.537498,-0.001282,-0.000738,0.006880,100326.914062
16420,-9.715671,0.045490,0.568623,-0.000218,-0.000738,0.005816,100326.929688
16430,-9.752781,-0.005986,0.554258,0.001910,-0.000738,0.005284,100326.929688
16440,-9.757569,-0.007183,0.526724,0.001378,-0.002335,0.004220,100326.929688
16450,-9.732430,0.065841,0.562637,-0.000218,-0.000738,0.004752,100326.929688
16460,-9.769540,0.071826,0.593762,-0.000218,-0.000738,0.005284,100326.929688
16470,-9.734824,0.010774,0.543484,-0.000218,-0.001803,0.005816,100326.804688
16485,-9.708488,0.057461,0.539892,-0.001282,-0.001803,0.004752,100326.804688
16495,-9.736021,0.033519,0.530316,-0.000750,-0.003931,0.005284,100326.804688
16505,-9.751583,0.015562,0.543484,-0.000750,-0.004463,0.003688,100326.804688
16515,-9.721656,0.062249,0.521936,-0.002347,-0.004463,0.002623,100326.804688
16525,-9.752781,0.011971,0.565032,-0.003943,-0.005527,0.002623,100326.695312
16535,-9.737218,0.070629,0.548272,-0.003943,-0.006059,0.003155,100326.695312
16545,-9.744401,0.050278,0.582988,-0.002879,-0.004995,0.001027,100326.695312
16555,-9.753978,0.017957,0.582988,-0.002347,-0.005527,0.001027,100326.695312
16565,-9.750386,0.039504,0.563834,-0.001282,-0.005527,0.001559,100326.695312
16575,-9.761160,-0.001197,0.548272,-0.001814,-0.005527,0.001559,100326.695312
16585,-9.755175,0.029928,0.520739,-0.005539,-0.006592,0.003155,100326.695312
16600,-9.722853,0.041899,0.525527,-0.004475,-0.006592,0.003155,100326.695312
16610,-9.739613,0.040701,0.563834,-0.004475,-0.007656,0.003155,100326.695312
16620,-9.756371,0.031125,0.569820,-0.005007,-0.006592,0.002091,100326.695312
16635,-9.727641,0.041899,0.575805,-0.005539,-0.006592,0.002091,100326.703125
16645,-9.758766,0.046687,0.590171,-0.004475,-0.006592,0.002623,100326.703125
16655,-9.730036,0.046687,0.614113,-0.006071,-0.005527,0.005816,100326.703125
16665,-9.777920,0.071826,0.563834,-0.003943,-0.005527,0.006880,100326.703125
16675,-9.749189,0.052672,0.593762,-0.001814,-0.005527,0.006348,100326.703125
16685,-9.740809,0.025139,0.575805,-0.001282,-0.003931,0.005816,100326.703125
16700,-9.758766,0.025139,0.565032,0.000314,-0.002335,0.006348,100326.640625
16710,-9.752781,0.032322,0.555455,-0.002347,-0.003399,0.008477,100326.640625
16720,-9.736021,0.067038,0.549469,-0.001282,-0.001803,0.007412,100326.640625
16730,-9.740809,0.068235,0.553061,-0.000218,-0.002335,0.006348,100326.640625
16740,-9.732430,0.020351,0.602142,-0.000218,-0.002335,0.006348,100326.640625
16750,-9.746795,0.049081,0.563834,-0.001814,-0.001803,0.006880,100326.515625
16760,-9.753978,0.052672,0.536301,-0.001282,-0.003931,0.005816,100326.515625
16770,-9.757569,0.049081,0.548272,-0.000750,-0.003399,0.005284,100326.515625
16780,-9.738416,0.026336,0.548272,-0.001814,-0.003931,0.006880,100326.515625
16790,-9.761160,0.065841,0.548272,-0.001282,-0.002867,0.005816,100326.515625
16800,-9.745598,0.063446,0.584185,-0.001814,-0.000738,0.007944,100326.648438
16810,-9.757569,0.077812,0.554258,-0.002879,-0.000206,0.007412,100326.648438
16820,-9.725247,0.008380,0.618901,-0.003411,0.000858,0.006880,100326.648438
16830,-9.747993,0.040701,0.571017,-0.004475,0.000858,0.008477,100326.648438
16840,-9.762358,0.035913,0.587777,-0.003943,0.001390,0.010073,100326.648438
16850,-9.773131,0.061052,0.549469,-0.005539,0.000858,0.010605,100326.648438
16870,-9.758766,0.052672,0.590171,-0.006603,0.001390,0.011137,100326.679688
16880,-9.726444,0.079009,0.591368,-0.005007,0.000326,0.009009,100326.679688
16890,-9.725247,0.058658,0.563834,-0.003411,-0.000738,0.008477,100326.679688
16900,-9.736021,0.076614,0.560243,-0.003411,-0.001803,0.007412,100326.679688
16910,-9.743204,0.053870,0.553061,-0.002347,-0.001270,0.007412,100326.656250
16920,-9.738416,0.056264,0.597353,-0.001282,0.000326,0.007412,100326.656250
16930,-9.708488,0.046687,0.549469,-0.001282,0.001390,0.005284,100326.656250
16940,-9.738416,0.063446,0.554258,-0.001282,0.000326,0.005284,100326.656250
16950,-9.722853,0.047884,0.573411,-0.003411,0.000326,0.004220,100326.656250
16960,-9.746795,0.058658,0.555455,-0.003943,-0.000206,0.005284,100326.656250
16970,-9.742006,0.057461,0.545878,-0.002879,-0.000738,0.003688,100326.601562
16980,-9.731233,0.058658,0.594959,-0.002347,-0.001270,0.002091,100326.601562
16990,-9.746795,0.051475,0.567426,-0.002879,0.000858,0.001559,100326.601562
17000,-9.749189,0.058658,0.574608,-0.001814,-0.001803,0.002091,100326.601562
17010,-9.747993,0.053870,0.573411,-0.002879,-0.000206,0.002091,100326.601562
17028,-9.734824,0.041899,0.591368,-0.000750,-0.000206,0.002091,100326.554688
17035,-9.755175,0.040701,0.542287,-0.001282,-0.000738,0.002623,100326.554688
17045,-9.740809,0.026336,0.578200,-0.001282,-0.000738,0.003688,100326.554688
17060,-9.736021,0.074220,0.597353,-0.000750,0.000858,0.003688,100326.554688
17075,-9.740809,0.074220,0.578200,-0.003411,0.003519,0.003688,100326.710938
17090,-9.751583,0.059855,0.629675,0.001378,0.000858,0.002623,100326.710938
17105,-9.776723,0.053870,0.573411,0.000846,0.000326,0.005284,100326.710938
17120,-9.746795,0.050278,0.606930,-0.003411,0.000326,0.005284,100326.710938
17143,-9.774328,0.080206,0.653617,0.000314,0.003519,0.004752,100326.726562
17150,-9.737218,0.025139,0.598550,0.004039,0.001390,0.006348,100326.726562
17170,-9.775525,0.055067,0.531513,0.001910,0.002454,0.006880,100326.726562
17193,-9.743204,0.081403,0.559046,-0.000218,0.001390,0.004752,100326.593750
17205,-9.739613,0.055067,0.567426,-0.001282,0.000326,0.005816,100326.593750
17230,-9.743204,0.087388,0.578200,-0.005539,0.001390,0.010073,100326.593750
17250,-9.745598,0.094571,0.535104,-0.002879,0.000326,0.007944,100326.546875
17275,-9.746795,0.070629,0.548272,-0.003411,-0.000738,0.007944,100326.546875
17291,-9.718064,0.107739,0.584185,-0.005539,-0.001270,0.006880,100326.546875
17295,-9.706094,0.065841,0.617704,-0.003411,-0.000206,0.006348,100326.703125
17317,-9.776723,0.055067,0.565032,-0.001814,-0.000206,0.005816,100326.703125
17325,-9.750386,0.100556,0.582988,-0.002347,0.001922,0.006880,100326.703125
17335,-9.745598,0.063446,0.584185,-0.000750,0.002454,0.007412,100326.703125
17345,-9.746795,0.056264,0.599748,-0.000750,-0.000738,0.006880,100326.703125
17355,-9.749189,0.093374,0.604536,-0.001814,-0.001803,0.006348,100326.648438
17365,-9.752781,0.088585,0.586579,-0.000750,-0.001803,0.005284,100326.648438
17375,-9.744401,0.075417,0.554258,-0.000750,0.000326,0.004752,100326.648438
17385,-9.744401,0.081403,0.577003,0.000846,0.000326,0.002623,100326.648438
17395,-9.745598,0.098162,0.519542,0.004039,-0.000738,0.002091,100326.648438
17405,-9.752781,0.120907,0.562637,0.005103,-0.000206,0.002091,100326.648438
17415,-9.736021,0.068235,0.565032,0.004039,0.000858,0.002623,100326.562500
17425,-9.738416,0.087388,0.553061,0.005103,0.001390,0.001027,100326.562500
17435,-9.769540,0.108936,0.568623,0.004571,0.000326,0.001027,100326.562500
17445,-9.755175,0.084994,0.568623,0.002442,0.001390,-0.000569,100326.562500
17455,-9.724051,0.047884,0.557849,0.003507,0.000858,-0.000037,100326.562500
17465,-9.744401,0.067038,0.567426,0.001378,0.000858,-0.000037,100326.429688
17475,-9.765948,0.077812,0.556652,-0.000750,0.000326,-0.000037,100326.429688
17485,-9.742006,0.044293,0.579397,-0.000218,-0.002335,-0.001101,100326.429688
17495,-9.757569,0.075417,0.526724,-0.001282,-0.001803,-0.000037,100326.429688
17505,-9.730036,0.094571,0.591368,-0.001814,-0.000206,0.000495,100326.429688
17515,-9.719262,0.083797,0.569820,0.000314,-0.000738,0.001027,100326.429688
17525,-9.708488,0.031125,0.557849,0.000846,-0.000738,-0.000037,100326.296875
17535,-9.736021,0.071826,0.544681,0.000314,-0.000206,0.001027,100326.296875
17545,-9.752781,0.084994,0.560243,-0.001814,-0.002335,0.001559,100326.296875
17555,-9.779117,0.057461,0.565032,-0.003411,-0.001270,0.001027,100326.296875
17565,-9.739613,0.116119,0.610521,-0.002347,-0.000206,0.002623,100326.296875
17575,-9.737218,0.089783,0.622492,0.000846,0.000858,0.003155,100326.484375
17590,-9.742006,0.046687,0.566229,0.006167,-0.001270,0.000495,100326.484375
17600,-9.725247,0.069432,0.581791,0.004039,-0.000206,0.000495,100326.484375
17620,-9.751583,0.041899,0.543484,-0.000218,0.002454,0.001027,100326.484375
17630,-9.751583,0.035913,0.533907,-0.002879,-0.000206,0.003688,100326.515625
17640,-9.752781,0.111330,0.577003,-0.001282,-0.000738,0.003155,100326.515625
17650,-9.750386,0.100556,0.581791,0.000846,-0.000738,0.001559,100326.515625
17660,-9.747993,0.050278,0.571017,0.001910,0.000858,0.001027,100326.515625
17670,-9.733627,0.071826,0.549469,0.001378,0.000326,0.002623,100326.515625
17680,-9.700109,0.080206,0.627281,-0.000218,-0.000206,0.002091,100326.515625
17690,-9.722853,0.083797,0.588974,0.001378,-0.000738,0.001559,100326.445312
17700,-9.757569,0.100556,0.580594,0.001910,-0.000738,0.002091,100326.445312
17710,-9.743204,0.067038,0.626084,0.002974,-0.000206,0.001027,100326.445312
17720,-9.740809,0.073023,0.611719,0.003507,-0.000738,-0.000569,100326.445312
17730,-9.720459,0.064643,0.603339,0.003507,-0.000738,-0.000569,100326.445312
17740,-9.755175,0.069432,0.580594,0.001378,-0.001270,-0.001101,100326.382812
17750,-9.744401,0.088585,0.579397,0.001378,-0.000738,-0.000569,100326.382812
17760,-9.759963,0.094571,0.569820,0.000846,-0.001803,-0.000569,100326.382812
17770,-9.715671,0.050278,0.579397,0.001378,-0.002335,-0.001634,100326.382812
17780,-9.727641,0.063446,0.582988,0.000314,-0.003399,-0.003230,100326.382812
17790,-9.755175,0.058658,0.592565,0.002974,-0.001803,-0.002166,100326.382812
17800,-9.758766,0.061052,0.597353,0.002974,-0.003399,-0.001634,100326.320312
17810,-9.744401,0.025139,0.597353,0.001378,-0.002867,-0.001634,100326.320312
17825,-9.755175,0.053870,0.559046,-0.000218,-0.001803,-0.001101,100326.320312
17835,-9.730036,0.063446,0.596156,-0.000750,-0.003399,-0.001634,100326.320312
17850,-9.746795,0.061052,0.614113,-0.001814,-0.003931,-0.004294,100326.390625
17860,-9.740809,0.075417,0.594959,-0.000750,-0.004463,-0.004826,100326.390625
17870,-9.716867,0.065841,0.647632,-0.000750,-0.003399,-0.003762,100326.390625
17880,-9.738416,0.065841,0.591368,0.000846,-0.001803,-0.002166,100326.390625
17890,-9.752781,0.029928,0.512359,0.000314,-0.002335,-0.001101,100326.390625
17900,-9.750386,0.061052,0.591368,-0.000750,-0.001803,0.002623,100326.390625
17910,-9.742006,0.077812,0.547075,-0.001282,-0.002867,0.001559,100326.421875
17920,-9.721656,0.045490,0.614113,-0.001814,-0.002335,0.002623,100326.421875
17930,-9.743204,0.079009,0.602142,-0.002347,-0.002867,0.001559,100326.421875
17940,-9.750386,0.059855,0.590171,-0.003411,-0.004463,0.001027,100326.421875
17950,-9.716867,0.076614,0.577003,-0.004475,-0.003931,0.001027,100326.421875
17960,-9.720459,0.071826,0.574608,-0.002879,-0.003931,-0.001634,100326.421875
17970,-9.752781,0.080206,0.556652,-0.003411,-0.002867,-0.002166,100326.421875
17980,-9.739613,0.087388,0.584185,-0.001282,-0.002335,-0.002166,100326.421875
17995,-9.738416,0.043096,0.577003,0.000846,-0.002867,-0.002698,100326.421875
18005,-9.739613,0.064643,0.579397,0.002442,-0.004995,-0.002698,100326.421875
18035,-9.747993,0.068235,0.559046,-0.000218,-0.004995,-0.002698,100326.414062
18045,-9.743204,0.083797,0.588974,-0.001814,-0.004995,-0.005890,100326.414062
18055,-9.716867,0.083797,0.569820,-0.000218,-0.003399,-0.004294,100326.414062
18065,-9.763555,0.029928,0.624887,0.002974,-0.003931,-0.005890,100326.414062
18080,-9.749189,0.043096,0.596156,0.001378,-0.003931,-0.005890,100326.601562
18090,-9.756371,0.077812,0.599748,-0.000750,-0.003399,-0.002698,100326.601562
18100,-9.757569,0.040701,0.562637,-0.000218,-0.003399,-0.002698,100326.601562
18120,-9.763555,0.049081,0.553061,0.002442,-0.004463,-0.003230,100326.601562
18130,-9.756371,0.044293,0.611719,0.001378,-0.004995,-0.002698,100326.664062
18140,-9.726444,0.015562,0.565032,-0.000218,-0.004463,-0.001634,100326.664062
18155,-9.747993,0.065841,0.598550,-0.003943,-0.002335,-0.000037,100326.664062
18165,-9.740809,0.059855,0.577003,-0.001282,-0.003399,0.001027,100326.664062
18175,-9.762358,0.053870,0.603339,-0.000218,-0.002867,0.000495,100326.664062
18195,-9.781511,0.037110,0.605733,-0.003411,-0.001803,0.002623,100326.593750
18205,-9.739613,0.044293,0.590171,-0.004475,-0.001270,0.003155,100326.593750
18220,-9.742006,0.046687,0.590171,-0.008200,-0.002867,0.002623,100326.593750
18235,-9.744401,0.065841,0.609324,-0.005007,-0.003931,0.001559,100326.554688
18245,-9.742006,0.051475,0.608127,-0.001814,-0.003399,0.000495,100326.554688
18255,-9.767146,0.056264,0.596156,-0.000750,-0.001803,-0.000569,100326.554688
18265,-9.739613,0.040701,0.612916,-0.002347,-0.000206,0.001027,100326.554688
18275,-9.740809,0.070629,0.597353,-0.000750,-0.001270,-0.000037,100326.554688
18285,-9.740809,0.056264,0.587777,-0.001814,-0.000738,-0.000569,100326.554688
18295,-9.734824,0.040701,0.541090,-0.003943,-0.002867,0.001559,100326.523438
18305,-9.749189,0.055067,0.549469,-0.005007,-0.004463,-0.002166,100326.523438
18315,-9.733627,0.057461,0.591368,-0.006603,-0.007656,-0.002166,100326.523438
18325,-9.719262,0.041899,0.603339,-0.005007,-0.007656,-0.004826,100326.523438
18335,-9.701305,0.096965,0.645237,-0.002347,-0.008188,-0.007487,100326.523438
18345,-9.738416,0.067038,0.671574,-0.002347,-0.007124,-0.009615,100326.648438
18355,-9.714474,0.067038,0.630872,-0.000750,-0.004995,-0.010679,100326.648438
18365,-9.746795,0.052672,0.567426,0.000314,-0.002867,-0.010147,100326.648438
18380,-9.733627,0.032322,0.581791,-0.002347,-0.001803,-0.008551,100326.648438
18390,-9.761160,0.020351,0.624887,-0.002879,-0.001270,-0.006423,100326.648438
18400,-9.764751,0.040701,0.578200,-0.002347,-0.000738,-0.003762,100326.648438
18410,-9.749189,0.063446,0.618901,-0.005539,0.000858,-0.004294,100326.648438
18420,-9.762358,0.053870,0.624887,-0.003943,0.001390,-0.003230,100326.648438
18430,-9.726444,0.084994,0.623690,-0.001814,0.000326,-0.003230,100326.648438
18440,-9.727641,0.063446,0.586579,0.004039,0.000326,-0.002698,100326.648438
18455,-9.737218,0.021548,0.575805,0.006699,0.001390,-0.004294,100326.609375
18465,-9.744401,0.031125,0.584185,0.003507,0.002986,-0.002166,100326.609375
18475,-9.731233,0.050278,0.591368,0.002442,0.002986,-0.000037,100326.609375
