52708,-0.149638,-4.824317,-8.537724,0.001829,-0.001583,0.002059,100650.804688
52718,-0.222661,-4.806360,-8.570045,0.003425,-0.004244,0.000995,100650.804688
52728,-0.235829,-4.837484,-8.584411,0.007150,0.004270,-0.001666,100650.804688
52738,-0.147243,-4.778827,-8.592790,0.006086,0.009591,-0.003794,100650.804688
52754,-0.122104,-4.791995,-8.562862,0.007682,0.010123,-0.005390,100651.054688
52763,-0.146046,-4.811148,-8.571242,0.007150,0.009591,-0.004326,100651.054688
52783,-0.143652,-4.776433,-8.591593,0.006086,0.005867,-0.003794,100651.054688
52793,-0.149638,-4.774038,-8.566454,0.006086,0.005867,-0.004858,100651.054688
52803,-0.086191,-4.759673,-8.564059,0.005022,0.005867,-0.003262,100651.218750
52828,-0.120907,-4.821922,-8.585608,0.005554,0.002142,-0.001133,100651.218750
52838,-0.177171,-4.795586,-8.572439,0.006086,0.000013,-0.000601,100651.218750
52853,-0.156820,-4.807557,-8.538920,0.006086,0.005334,-0.003262,100651.218750
52863,-0.152032,-4.825513,-8.542512,0.003958,0.004270,-0.004858,100651.210938
52878,-0.136469,-4.833893,-8.535329,0.001297,0.003206,-0.002730,100651.210938
52888,-0.144849,-4.808754,-8.549694,-0.005088,-0.001051,-0.001133,100651.210938
52898,-0.132878,-4.786009,-8.528147,-0.008281,-0.002647,0.000995,100651.210938
52908,-0.156820,-4.797980,-8.554482,-0.009345,-0.003179,0.000995,100651.210938
52923,-0.196325,-4.801571,-8.576031,-0.006153,-0.003711,0.002591,100651.203125
52938,-0.149638,-4.839879,-8.595184,-0.002960,0.005334,-0.004326,100651.203125
52948,-0.083797,-4.800375,-8.534132,-0.001364,0.008527,-0.005922,100651.203125
52958,-0.102951,-4.772841,-8.597578,-0.004024,0.005334,-0.003794,100651.203125
52968,-0.132878,-4.788404,-8.622718,-0.001896,0.001610,-0.003262,100651.195312
52988,-0.174777,-4.823119,-8.543709,-0.000831,-0.002115,-0.001666,100651.195312
52998,-0.138864,-4.806360,-8.560468,0.000233,-0.000519,-0.000069,100651.195312
53008,-0.106542,-4.818331,-8.529344,-0.002428,-0.000519,0.000463,100651.195312
53018,-0.162806,-4.848258,-8.577228,-0.001896,-0.005308,-0.000601,100651.195312
53028,-0.136469,-4.750096,-8.522161,-0.003492,-0.004776,-0.001133,100651.195312
53038,-0.119710,-4.759673,-8.531737,-0.004024,-0.003711,0.000463,100651.281250
53048,-0.198719,-4.836287,-8.540117,-0.004024,-0.007968,0.001527,100651.281250
53058,-0.167594,-4.811148,-8.616732,-0.004556,-0.005840,-0.000069,100651.281250
53073,-0.159214,-4.808754,-8.541314,-0.004024,-0.000519,-0.000069,100651.281250
53083,-0.122104,-4.799177,-8.555679,-0.005088,0.001610,0.000463,100651.281250
53093,-0.124498,-4.815937,-8.585608,-0.004024,0.001610,-0.001133,100651.250000
53103,-0.158017,-4.794389,-8.577228,-0.005088,-0.001583,0.000463,100651.250000
53118,-0.113725,-4.744111,-8.525752,-0.006153,0.003206,-0.002730,100651.250000
53128,-0.102951,-4.768053,-8.525752,-0.005088,0.004802,-0.001666,100651.250000
53138,-0.166397,-4.811148,-8.540117,-0.005088,0.002142,-0.001133,100651.250000
53148,-0.198719,-4.763264,-8.541314,-0.006153,0.006931,-0.002198,100651.132812
53163,-0.114922,-4.782418,-8.602366,-0.004556,0.009059,-0.003794,100651.132812
53173,-0.124498,-4.787206,-8.531737,-0.002428,0.007463,-0.002730,100651.132812
53189,-0.118513,-4.799177,-8.576031,-0.002428,0.004802,-0.000601,100651.132812
53199,-0.125696,-4.801571,-8.558074,-0.003492,0.000545,0.000463,100651.031250
53214,-0.159214,-4.797980,-8.541314,-0.004556,0.001078,0.002059,100651.031250
53233,-0.178368,-4.794389,-8.554482,-0.001364,0.001078,-0.002198,100651.031250
53253,-0.112527,-4.753687,-8.582016,0.001829,0.005867,-0.002198,100651.132812
53263,-0.141258,-4.780024,-8.589199,0.001829,0.007463,-0.004858,100651.132812
53273,-0.137667,-4.782418,-8.571242,0.003958,0.009591,-0.005922,100651.132812
53283,-0.105345,-4.759673,-8.546103,0.007150,0.011188,-0.006454,100651.132812
53298,-0.168791,-4.821922,-8.582016,0.006086,0.006399,-0.003262,100651.132812
53308,-0.137667,-4.800375,-8.548497,0.005022,0.005334,-0.002198,100651.140625
53318,-0.096965,-4.787206,-8.526949,0.004490,0.007463,-0.003262,100651.140625
53329,-0.101754,-4.778827,-8.538920,0.002361,0.001610,-0.001133,100651.140625
53338,-0.101754,-4.787206,-8.560468,0.002361,0.000545,-0.000069,100651.140625
53348,-0.116119,-4.758476,-8.552089,0.004490,0.000013,0.000463,100651.140625
53358,-0.152032,-4.784812,-8.538920,0.001829,-0.000519,-0.000069,100651.140625
53368,-0.137667,-4.780024,-8.555679,0.000765,0.001610,-0.000601,100651.117188
53379,-0.119710,-4.771644,-8.560468,0.001829,0.002674,-0.000069,100651.117188
53388,-0.106542,-4.797980,-8.535329,0.001829,0.002142,-0.001133,100651.117188
53398,-0.126893,-4.758476,-8.559271,0.003425,0.003738,-0.001666,100651.117188
53408,-0.131681,-4.774038,-8.574833,0.004490,0.003738,-0.004326,100651.117188
53418,-0.132878,-4.802769,-8.560468,0.007682,0.004802,-0.003794,100651.070312
53438,-0.120907,-4.809951,-8.582016,0.006618,0.005867,-0.004858,100651.070312
53448,-0.096965,-4.844667,-8.568848,0.002361,0.000013,-0.001133,100651.070312
53458,-0.164003,-4.794389,-8.560468,-0.002428,-0.002115,-0.000069,100651.070312
53468,-0.132878,-4.808754,-8.554482,-0.001364,0.000013,-0.000601,100651.070312
53479,-0.125696,-4.818331,-8.540117,-0.002428,-0.000519,0.000463,100651.031250
53488,-0.138864,-4.799177,-8.560468,-0.002960,0.000545,0.000995,100651.031250
53498,-0.089783,-4.766856,-8.565256,-0.005088,0.001078,0.000463,100651.031250
53508,-0.110133,-4.777629,-8.560468,-0.002428,-0.002115,0.001527,100651.031250
53518,-0.162806,-4.762067,-8.574833,-0.001364,-0.004776,0.001527,100651.031250
53529,-0.160412,-4.780024,-8.516175,-0.000299,-0.003179,0.002059,100651.101562
53538,-0.138864,-4.771644,-8.582016,0.000233,-0.001583,0.000995,100651.101562
53548,-0.134075,-4.808754,-8.573636,-0.000299,0.001610,0.000995,100651.101562
53558,-0.111330,-4.791995,-8.561666,-0.001896,0.001610,0.000995,100651.101562
53568,-0.081403,-4.780024,-8.584411,-0.002428,0.001610,0.001527,100651.101562
53579,-0.117316,-4.806360,-8.598776,-0.006685,-0.004244,0.003123,100651.101562
53588,-0.108936,-4.784812,-8.572439,-0.007749,-0.005840,0.004720,100650.960938
53598,-0.158017,-4.836287,-8.603564,-0.008813,-0.004776,0.004720,100650.960938
53608,-0.153229,-4.808754,-8.601170,-0.009345,-0.004776,0.004720,100650.960938
53618,-0.132878,-4.805163,-8.564059,-0.009345,-0.003179,0.005252,100650.960938
53638,-0.140061,-4.794389,-8.589199,-0.009877,-0.002647,0.002059,100650.960938
53648,-0.134075,-4.786009,-8.596381,-0.008281,0.000013,-0.000601,100650.789062
53658,-0.093374,-4.783615,-8.498219,-0.007749,0.002674,-0.000601,100650.789062
53668,-0.122104,-4.811148,-8.538920,-0.009877,0.000545,-0.000601,100650.789062
53679,-0.148441,-4.831499,-8.549694,-0.012538,-0.001051,-0.000069,100650.789062
53688,-0.190339,-4.823119,-8.602366,-0.016263,-0.002115,0.001527,100650.789062
53698,-0.177171,-4.841076,-8.565256,-0.018923,0.001078,-0.001133,100650.640625
53708,-0.114922,-4.775235,-8.560468,-0.022648,0.005867,-0.004858,100650.640625
53718,-0.071826,-4.747702,-8.568848,-0.024244,0.002674,-0.004326,100650.640625
53729,-0.035913,-4.790798,-8.556877,-0.024244,-0.002115,-0.000069,100650.640625
53748,-0.107739,-4.727351,-8.566454,-0.023180,-0.008500,0.003656,100650.640625
53758,-0.080206,-4.778827,-8.572439,-0.021584,-0.012757,0.003123,100650.703125
53768,-0.166397,-4.762067,-8.555679,-0.021584,-0.015418,0.006316,100650.703125
53779,-0.132878,-4.747702,-8.570045,-0.019455,-0.013822,0.005784,100650.703125
53788,-0.138864,-4.777629,-8.603564,-0.018923,-0.011693,0.005252,100650.703125
53798,-0.153229,-4.733337,-8.558074,-0.018923,-0.010097,0.005252,100650.703125
53808,-0.104148,-4.770447,-8.584411,-0.017327,-0.008500,0.004720,100650.742188
53818,-0.134075,-4.772841,-8.548497,-0.018391,-0.011693,0.006848,100650.742188
53829,-0.195127,-4.775235,-8.608353,-0.016263,-0.011693,0.005784,100650.742188
53838,-0.191536,-4.769250,-8.596381,-0.016795,-0.008500,0.004188,100650.742188
53848,-0.148441,-4.729745,-8.573636,-0.017327,-0.004244,0.002591,100650.742188
53858,-0.128090,-4.711789,-8.568848,-0.013070,0.000545,-0.000069,100650.742188
53868,-0.138864,-4.712986,-8.577228,-0.008813,0.003738,-0.002730,100650.671875
53879,-0.119710,-4.756082,-8.543709,-0.003492,0.003206,-0.003262,100650.671875
53888,-0.101754,-4.710592,-8.632295,-0.001896,0.004270,-0.004326,100650.671875
53898,-0.084994,-4.760870,-8.577228,0.000233,0.004270,-0.003262,100650.671875
53908,-0.162806,-4.748899,-8.564059,-0.001364,0.003738,-0.002730,100650.671875
53918,-0.161609,-4.759673,-8.577228,-0.001364,0.003738,-0.002730,100650.460938
53929,-0.105345,-4.753687,-8.538920,-0.002960,0.003206,-0.003262,100650.460938
53938,-0.148441,-4.747702,-8.595184,-0.003492,0.003206,-0.003262,100650.460938
53948,-0.143652,-4.739322,-8.566454,-0.002428,0.004270,-0.004326,100650.460938
53963,-0.165200,-4.715380,-8.602366,-0.004024,0.007463,-0.003794,100650.460938
53973,-0.161609,-4.757279,-8.616732,-0.000831,0.010123,-0.006454,100650.257812
53988,-0.125696,-4.747702,-8.554482,0.002361,0.010123,-0.007519,100650.257812
53998,-0.088585,-4.741716,-8.559271,0.000233,0.007995,-0.004858,100650.257812
54008,-0.123301,-4.740520,-8.530540,-0.002428,0.001610,-0.001666,100650.257812
54018,-0.112527,-4.758476,-8.620323,-0.002960,-0.002115,-0.001133,100650.257812
54033,-0.155623,-4.758476,-8.561666,-0.003492,-0.004776,-0.003262,100650.367188
54043,-0.119710,-4.764462,-8.580819,-0.003492,-0.004244,-0.007519,100650.367188
54053,-0.107739,-4.730943,-8.627506,-0.002428,-0.000519,-0.007519,100650.367188
54068,-0.241814,-4.742914,-8.544906,-0.005620,-0.002647,-0.011243,100650.367188
54078,-0.185551,-4.752491,-8.622718,-0.005088,0.004802,-0.014968,100650.367188
54093,-0.150835,-4.715380,-8.579621,-0.000299,0.011720,-0.021886,100650.312500
54103,-0.080206,-4.726154,-8.566454,-0.000299,0.014380,-0.020821,100650.312500
54113,-0.088585,-4.724957,-8.601170,-0.000831,0.012252,-0.021354,100650.312500
54128,-0.095768,-4.716578,-8.583213,0.000765,0.014912,-0.019225,100650.312500
54138,-0.083797,-4.733337,-8.589199,-0.001364,0.012784,-0.015500,100650.250000
54153,-0.087388,-4.742914,-8.535329,-0.001896,0.004802,-0.010711,100650.250000
54163,-0.120907,-4.716578,-8.565256,-0.001896,0.003738,-0.006987,100650.250000
54173,-0.138864,-4.732140,-8.623915,-0.001896,0.003738,-0.002730,100650.250000
54193,-0.114922,-4.720169,-8.610746,-0.000831,0.005334,-0.001133,100650.187500
54203,-0.120907,-4.783615,-8.573636,-0.000299,0.006931,-0.001666,100650.187500
54213,-0.123301,-4.727351,-8.577228,0.000233,0.005867,-0.001133,100650.187500
54228,-0.075417,-4.728549,-8.561666,0.000233,0.006931,-0.001666,100650.187500
54238,-0.149638,-4.770447,-8.538920,-0.000299,0.005334,-0.000601,100650.187500
54263,-0.114922,-4.745308,-8.589199,0.000233,0.005334,0.000995,100650.320312
54279,-0.134075,-4.744111,-8.576031,-0.001896,0.003206,0.002591,100650.320312
54288,-0.113725,-4.738125,-8.558074,-0.001896,0.006931,0.000995,100650.320312
54301,-0.117316,-4.740520,-8.586804,0.001829,0.009059,0.000463,100650.328125
54308,-0.143652,-4.742914,-8.560468,0.000233,0.009059,0.002591,100650.328125
54329,-0.094571,-4.728549,-8.621520,0.001829,0.010655,0.000995,100650.328125
54343,-0.092177,-4.738125,-8.550891,0.004490,0.009059,0.002591,100650.328125
54358,-0.046687,-4.742914,-8.568848,0.004490,0.003738,0.006316,100650.296875
54379,-0.113725,-4.712986,-8.605958,0.002893,-0.003179,0.008977,100650.296875
54388,-0.114922,-4.771644,-8.582016,0.000765,-0.006372,0.011105,100650.296875
54408,-0.117316,-4.747702,-8.585608,0.000765,-0.004776,0.007912,100650.296875
54429,-0.112527,-4.769250,-8.546103,0.001829,-0.004776,0.006316,100650.000000
54443,-0.130484,-4.763264,-8.573636,0.002361,-0.002647,0.004188,100650.000000
54458,-0.130484,-4.760870,-8.576031,0.001297,0.002142,-0.000601,100650.000000
54479,-0.132878,-4.764462,-8.538920,-0.000831,0.002674,-0.001133,100649.734375
54488,-0.090980,-4.756082,-8.603564,-0.000831,0.005334,-0.001666,100649.734375
54508,-0.120907,-4.780024,-8.542512,0.000765,0.001078,0.001527,100649.734375
54518,-0.101754,-4.750096,-8.531737,-0.001364,-0.002647,0.003656,100649.734375
54533,-0.112527,-4.757279,-8.584411,-0.002428,-0.004776,0.004188,100649.781250
54553,-0.150835,-4.748899,-8.592790,-0.003492,-0.004244,0.005252,100649.781250
54577,-0.096965,-4.739322,-8.566454,-0.002960,-0.000519,0.002591,100649.898438
54588,-0.104148,-4.760870,-8.556877,-0.002428,0.000013,0.000995,100649.898438
54608,-0.112527,-4.740520,-8.601170,-0.000299,0.001610,-0.000601,100649.898438
54633,-0.101754,-4.730943,-8.573636,0.000233,0.002674,-0.002198,100649.898438
54643,-0.125696,-4.715380,-8.579621,0.001297,0.000545,-0.000069,100649.859375
54653,-0.108936,-4.717774,-8.564059,0.002361,0.001078,-0.002730,100649.859375
54663,-0.070629,-4.742914,-8.544906,0.001829,0.000013,-0.000601,100649.859375
54678,-0.086191,-4.718972,-8.588001,0.000765,-0.002647,0.000463,100649.859375
54693,-0.107739,-4.746505,-8.579621,0.001829,-0.005308,0.003656,100649.820312
54703,-0.137667,-4.782418,-8.574833,0.001297,-0.005840,0.004720,100649.820312
54713,-0.130484,-4.728549,-8.578424,0.000233,-0.005308,0.004188,100649.820312
54723,-0.132878,-4.728549,-8.560468,-0.000299,-0.004244,0.004188,100649.820312
54733,-0.094571,-4.759673,-8.554482,0.001829,-0.001051,0.002059,100649.820312
54743,-0.128090,-4.744111,-8.597578,0.002361,-0.000519,0.000995,100649.820312
54758,-0.093374,-4.784812,-8.568848,0.001297,0.000013,0.002059,100649.773438
54768,-0.071826,-4.764462,-8.591593,0.000233,-0.000519,0.002591,100649.773438
54778,-0.122104,-4.720169,-8.602366,0.000765,-0.004776,0.004188,100649.773438
54788,-0.094571,-4.714183,-8.620323,0.001829,-0.004776,0.004188,100649.773438
54798,-0.116119,-4.701015,-8.595184,0.003958,-0.006372,0.006316,100649.773438
54808,-0.166397,-4.711789,-8.566454,0.004490,-0.007968,0.007380,100649.750000
54818,-0.090980,-4.756082,-8.619126,0.007150,-0.006372,0.006316,100649.750000
54833,-0.180762,-4.760870,-8.607155,0.006086,-0.002647,0.003123,100649.750000
54848,-0.140061,-4.814740,-8.622718,0.003958,0.002142,0.000995,100649.750000
54858,-0.106542,-4.741716,-8.596381,0.002361,0.003206,-0.000601,100649.750000
54873,-0.120907,-4.763264,-8.562862,0.003958,0.004270,-0.001133,100649.750000
54883,-0.077812,-4.736928,-8.548497,0.001829,0.004802,-0.000069,100649.750000
54893,-0.129287,-4.770447,-8.640674,0.001829,0.001078,0.001527,100649.750000
54903,-0.141258,-4.763264,-8.580819,-0.000299,-0.001051,0.000995,100649.750000
54918,-0.113725,-4.765658,-8.597578,0.002361,0.002142,-0.000601,100649.656250
54933,-0.114922,-4.739322,-8.549694,0.000233,0.000545,-0.000601,100649.656250
54943,-0.104148,-4.704607,-8.580819,-0.000831,0.002142,-0.001133,100649.656250
54953,-0.050278,-4.763264,-8.567651,0.001297,0.003738,-0.001666,100649.656250
54968,-0.152032,-4.736928,-8.572439,-0.001896,0.000545,-0.001133,100649.562500
54978,-0.116119,-4.722563,-8.619126,0.000765,0.003206,-0.002198,100649.562500
54993,-0.153229,-4.733337,-8.591593,0.004490,0.001078,-0.001133,100649.562500
55003,-0.155623,-4.771644,-8.585608,0.001829,-0.000519,-0.001666,100649.562500
55013,-0.093374,-4.738125,-8.593987,0.001297,0.001610,-0.001666,100649.562500
55028,-0.093374,-4.741716,-8.561666,0.000233,-0.001051,-0.000069,100649.710938
55038,-0.063446,-4.758476,-8.548497,-0.001896,-0.004776,0.001527,100649.710938
55053,-0.096965,-4.745308,-8.531737,-0.002960,-0.007968,0.005252,100649.710938
55063,-0.128090,-4.758476,-8.593987,-0.002428,-0.012757,0.007912,100649.710938
55073,-0.150835,-4.788404,-8.554482,-0.002428,-0.013289,0.007912,100649.710938
55083,-0.177171,-4.775235,-8.633492,-0.002428,-0.011693,0.005784,100649.750000
55098,-0.156820,-4.739322,-8.620323,-0.001896,-0.004776,0.003123,100649.750000
55108,-0.164003,-4.799177,-8.616732,-0.001896,-0.004244,0.000463,100649.750000
55118,-0.172383,-4.738125,-8.559271,-0.000831,0.001078,-0.001133,100649.750000
55133,-0.070629,-4.741716,-8.586804,0.000233,0.001078,-0.001666,100649.726562
55143,-0.159214,-4.714183,-8.576031,0.001829,-0.001583,0.000463,100649.726562
55153,-0.172383,-4.776433,-8.599973,0.003425,0.002142,-0.000069,100649.726562
55163,-0.083797,-4.774038,-8.584411,0.006618,0.005867,-0.001666,100649.726562
55178,-0.126893,-4.778827,-8.607155,0.003425,0.002674,-0.003794,100649.726562
55188,-0.108936,-4.774038,-8.592790,0.002893,0.005334,-0.004326,100649.703125
55198,-0.105345,-4.734534,-8.567651,0.004490,0.005867,-0.005390,100649.703125
55218,-0.095768,-4.752491,-8.562862,0.003425,0.002674,-0.002730,100649.703125
55228,-0.108936,-4.734534,-8.589199,0.005022,0.002142,-0.002730,100649.703125
55238,-0.140061,-4.756082,-8.604761,0.004490,0.003206,-0.001666,100649.703125
55248,-0.118513,-4.735731,-8.617929,0.005022,0.004270,-0.002198,100649.773438
55263,-0.092177,-4.759673,-8.580819,0.005022,0.002674,-0.000601,100649.773438
55273,-0.087388,-4.770447,-8.597578,0.005022,-0.004244,-0.000069,100649.773438
55283,-0.125696,-4.775235,-8.553286,0.002361,-0.005840,0.001527,100649.773438
55293,-0.167594,-4.786009,-8.584411,0.001829,-0.005840,0.000995,100649.773438
55303,-0.123301,-4.722563,-8.568848,-0.001364,-0.002115,0.001527,100649.812500
55313,-0.124498,-4.745308,-8.610746,-0.000831,-0.001583,0.001527,100649.812500
55328,-0.155623,-4.733337,-8.584411,-0.000831,0.000013,0.000995,100649.812500
55343,-0.131681,-4.739322,-8.610746,0.000233,0.003738,-0.001666,100649.812500
55353,-0.114922,-4.744111,-8.577228,0.003958,0.006931,-0.002730,100649.843750
55363,-0.096965,-4.775235,-8.602366,0.005022,0.006931,-0.003794,100649.843750
55378,-0.094571,-4.772841,-8.546103,0.002893,0.005867,-0.002198,100649.843750
55388,-0.081403,-4.753687,-8.549694,-0.000831,0.003738,-0.003262,100649.843750
55403,-0.086191,-4.739322,-8.548497,-0.000831,0.000545,-0.001666,100649.843750
55413,-0.164003,-4.765658,-8.585608,-0.001896,-0.000519,-0.001133,100649.726562
55428,-0.096965,-4.729745,-8.565256,-0.000831,0.000013,-0.001133,100649.726562
55442,-0.099359,-4.752491,-8.602366,-0.000299,-0.001051,-0.000601,100649.726562
55453,-0.166397,-4.788404,-8.530540,-0.001364,-0.002647,-0.001133,100649.726562
55463,-0.138864,-4.709395,-8.595184,-0.002428,-0.001583,-0.002198,100649.632812
55478,-0.116119,-4.774038,-8.550891,-0.002428,-0.000519,-0.001666,100649.632812
55493,-0.118513,-4.756082,-8.529344,-0.005088,0.001078,-0.001666,100649.632812
55503,-0.098162,-4.742914,-8.588001,-0.004024,0.002142,-0.002198,100649.632812
55513,-0.106542,-4.769250,-8.576031,-0.004024,-0.001051,-0.000069,100649.632812
55522,-0.124498,-4.771644,-8.608353,-0.005620,-0.002115,-0.000069,100649.796875
55533,-0.087388,-4.759673,-8.614338,-0.003492,-0.000519,-0.000069,100649.796875
55547,-0.131681,-4.760870,-8.585608,-0.004024,-0.003179,-0.001133,100649.796875
55558,-0.105345,-4.716578,-8.562862,-0.002428,0.000545,-0.001133,100649.796875
55568,-0.131681,-4.728549,-8.571242,-0.001896,-0.002115,-0.000601,100649.796875
55583,-0.111330,-4.752491,-8.604761,-0.003492,-0.002647,0.001527,100649.820312
55593,-0.116119,-4.780024,-8.574833,-0.002960,-0.001051,0.000995,100649.820312
55607,-0.107739,-4.718972,-8.608353,-0.003492,-0.001051,-0.000069,100649.820312
55618,-0.108936,-4.753687,-8.571242,-0.003492,-0.002115,0.002591,100649.820312
55628,-0.101754,-4.746505,-8.616732,-0.002960,-0.001583,0.003123,100649.859375
55638,-0.155623,-4.777629,-8.574833,-0.002960,-0.005308,0.003656,100649.859375
55648,-0.138864,-4.766856,-8.561666,-0.002428,-0.005308,0.004188,100649.859375
55662,-0.132878,-4.723760,-8.590396,-0.004024,-0.002647,0.002591,100649.859375
55673,-0.113725,-4.722563,-8.570045,-0.003492,-0.005308,0.002591,100649.859375
55683,-0.120907,-4.768053,-8.538920,-0.001896,-0.008500,0.002591,100649.820312
55693,-0.132878,-4.734534,-8.584411,-0.002960,-0.007968,0.003656,100649.820312
55702,-0.152032,-4.710592,-8.605958,-0.000831,-0.008500,0.003123,100649.820312
55723,-0.148441,-4.772841,-8.602366,-0.000299,-0.003711,0.002591,100649.820312
55737,-0.125696,-4.742914,-8.609550,0.001829,-0.004776,0.002591,100649.859375
55748,-0.123301,-4.750096,-8.603564,0.002893,-0.006372,0.002591,100649.859375
55762,-0.119710,-4.747702,-8.582016,0.000765,-0.004244,0.002591,100649.859375
55773,-0.089783,-4.741716,-8.589199,0.001297,-0.004244,0.003123,100649.859375
55783,-0.136469,-4.752491,-8.554482,0.000765,-0.006372,0.003656,100649.859375
55802,-0.112527,-4.744111,-8.590396,-0.000299,-0.002647,0.002059,100649.929688
55812,-0.138864,-4.745308,-8.556877,0.001829,-0.001051,-0.000069,100649.929688
55822,-0.146046,-4.758476,-8.573636,0.003425,0.000545,0.000463,100649.929688
55833,-0.129287,-4.726154,-8.595184,0.001829,0.001078,0.001527,100649.929688
55852,-0.143652,-4.758476,-8.558074,0.002893,0.001610,-0.000069,100649.898438
55863,-0.107739,-4.741716,-8.608353,0.000765,0.004270,-0.001133,100649.898438
55879,-0.124498,-4.742914,-8.609550,0.000765,0.001078,-0.000069,100649.898438
55887,-0.135272,-4.730943,-8.560468,0.000233,0.000545,0.000995,100649.898438
55897,-0.114922,-4.772841,-8.599973,-0.000299,-0.000519,-0.000069,100649.898438
55913,-0.130484,-4.745308,-8.597578,-0.000831,-0.001051,-0.001133,100649.875000
55922,-0.119710,-4.732140,-8.611943,0.000765,-0.000519,-0.000601,100649.875000
55943,-0.136469,-4.716578,-8.586804,0.000233,-0.000519,0.002059,100649.875000
55953,-0.138864,-4.738125,-8.583213,-0.000299,-0.000519,0.000463,100649.875000
55978,-0.149638,-4.762067,-8.603564,-0.000831,0.000013,0.000995,100649.851562
56008,-0.124498,-4.772841,-8.562862,-0.000299,0.000013,-0.001133,100649.851562
56018,-0.140061,-4.736928,-8.582016,-0.001896,-0.001051,-0.001133,100649.968750
56043,-0.108936,-4.764462,-8.566454,0.000233,0.002142,-0.001666,100649.968750
56063,-0.096965,-4.753687,-8.562862,-0.000299,0.002674,-0.000601,100649.968750
56078,-0.134075,-4.718972,-8.546103,-0.001896,0.000013,-0.002730,100650.023438
56098,-0.129287,-4.748899,-8.584411,-0.001896,-0.001051,-0.000601,100650.023438
56123,-0.124498,-4.726154,-8.591593,-0.003492,-0.002115,0.001527,100650.031250
56138,-0.136469,-4.781221,-8.607155,-0.001364,-0.001583,0.001527,100650.031250
56163,-0.149638,-4.765658,-8.601170,0.000765,0.000545,-0.000069,100650.031250
56183,-0.134075,-4.780024,-8.554482,-0.000831,0.001078,-0.000069,100650.031250
56198,-0.140061,-4.739322,-8.568848,-0.001896,-0.001583,0.000995,100650.015625
56223,-0.119710,-4.752491,-8.603564,-0.002428,-0.001051,0.000995,100650.015625
56233,-0.114922,-4.750096,-8.574833,-0.001896,-0.002115,0.002059,100650.015625
56248,-0.120907,-4.750096,-8.582016,-0.002960,-0.002115,0.001527,100650.398438
56258,-0.130484,-4.758476,-8.583213,-0.004556,-0.002647,0.000995,100650.398438
56273,-0.132878,-4.752491,-8.578424,-0.002960,-0.000519,-0.001133,100650.398438
56287,-0.131681,-4.752491,-8.588001,-0.002960,0.001610,-0.003262,100650.398438
56297,-0.116119,-4.752491,-8.613141,-0.003492,0.001078,-0.001133,100650.453125
56317,-0.140061,-4.738125,-8.596381,-0.004556,0.001610,-0.001133,100650.453125
56328,-0.134075,-4.714183,-8.614338,-0.005620,0.001610,-0.002730,100650.453125
56337,-0.134075,-4.712986,-8.556877,-0.008281,-0.000519,-0.001666,100650.453125
56352,-0.159214,-4.721366,-8.607155,-0.008281,-0.004244,0.000463,100650.296875
56362,-0.124498,-4.728549,-8.580819,-0.009345,-0.002647,-0.000069,100650.296875
56372,-0.088585,-4.718972,-8.577228,-0.007749,0.000013,-0.000601,100650.296875
56382,-0.108936,-4.705803,-8.584411,-0.004556,0.000545,-0.000069,100650.296875
56392,-0.123301,-4.711789,-8.543709,-0.001896,-0.002115,0.000995,100650.296875
56402,-0.130484,-4.721366,-8.583213,0.000765,-0.000519,-0.000069,100650.296875
56412,-0.126893,-4.752491,-8.564059,0.002893,0.000545,0.000463,100650.265625
56422,-0.159214,-4.732140,-8.643068,0.001829,-0.002647,0.001527,100650.265625
56442,-0.101754,-4.763264,-8.595184,-0.000831,-0.001051,-0.000601,100650.265625
56452,-0.123301,-4.765658,-8.603564,-0.000831,-0.001583,0.000463,100650.265625
56462,-0.129287,-4.739322,-8.614338,-0.004556,-0.002115,0.002591,100650.242188
56472,-0.149638,-4.745308,-8.616732,-0.003492,-0.004244,0.000995,100650.242188
56482,-0.138864,-4.759673,-8.588001,-0.002960,-0.001051,0.001527,100650.242188
56492,-0.130484,-4.744111,-8.544906,-0.001896,-0.001051,0.000995,100650.242188
56502,-0.099359,-4.751293,-8.573636,-0.001896,0.000013,0.000463,100650.242188
56512,-0.147243,-4.733337,-8.572439,-0.004024,-0.000519,0.000463,100650.242188
56532,-0.120907,-4.726154,-8.620323,-0.004024,-0.002115,0.001527,100650.382812
56542,-0.180762,-4.771644,-8.583213,-0.004556,-0.002115,0.002059,100650.382812
56552,-0.144849,-4.765658,-8.593987,-0.005088,-0.001051,0.001527,100650.382812
56562,-0.119710,-4.764462,-8.583213,-0.005088,0.001078,0.001527,100650.382812
56572,-0.138864,-4.748899,-8.622718,-0.005620,-0.000519,0.000463,100650.476562
56587,-0.114922,-4.738125,-8.558074,-0.007749,-0.001583,0.000995,100650.476562
56597,-0.144849,-4.699818,-8.596381,-0.007749,-0.001583,0.002059,100650.476562
56607,-0.112527,-4.687847,-8.568848,-0.006153,0.000545,0.001527,100650.476562
56617,-0.095768,-4.716578,-8.589199,-0.004556,0.000013,0.003656,100650.476562
56627,-0.119710,-4.708198,-8.556877,-0.004024,-0.003711,0.004188,100650.437500
56637,-0.095768,-4.659117,-8.542512,0.000233,-0.003179,0.003123,100650.437500
56647,-0.148441,-4.770447,-8.596381,0.003425,-0.006904,0.005252,100650.437500
56657,-0.189142,-4.745308,-8.592790,0.002361,-0.005840,0.004188,100650.437500
56667,-0.177171,-4.742914,-8.559271,0.005022,-0.001051,0.001527,100650.437500
56682,-0.154426,-4.742914,-8.576031,0.003958,0.003206,-0.002198,100650.414062
56692,-0.141258,-4.707001,-8.593987,0.003425,0.005334,-0.002730,100650.414062
56707,-0.128090,-4.735731,-8.588001,0.002361,0.003738,-0.001666,100650.414062
56717,-0.123301,-4.729745,-8.584411,0.001297,0.001610,-0.002730,100650.414062
56727,-0.158017,-4.722563,-8.611943,0.000765,0.002142,-0.001666,100650.414062
56742,-0.149638,-4.733337,-8.613141,0.001829,0.002674,-0.001666,100650.515625
56752,-0.112527,-4.748899,-8.622718,0.000233,-0.000519,0.000463,100650.515625
56762,-0.106542,-4.709395,-8.589199,0.000233,-0.001051,0.002059,100650.515625
56777,-0.173580,-4.752491,-8.558074,0.002361,-0.004776,0.002591,100650.515625
56787,-0.108936,-4.707001,-8.583213,0.000765,-0.004244,0.003123,100650.515625
56797,-0.132878,-4.722563,-8.562862,0.002893,-0.005308,0.004188,100650.492188
56812,-0.152032,-4.741716,-8.605958,0.003425,-0.005308,0.004720,100650.492188
56822,-0.166397,-4.740520,-8.590396,0.003425,-0.002647,0.002591,100650.492188
56832,-0.147243,-4.772841,-8.597578,0.001829,-0.000519,0.001527,100650.492188
56842,-0.154426,-4.750096,-8.592790,0.002361,-0.000519,0.002059,100650.492188
56857,-0.144849,-4.746505,-8.607155,0.002361,0.000545,0.001527,100650.406250
56867,-0.128090,-4.730943,-8.577228,0.000233,0.000545,-0.000069,100650.406250
56882,-0.095768,-4.728549,-8.609550,0.003425,-0.000519,-0.000601,100650.406250
56892,-0.135272,-4.732140,-8.546103,0.001297,-0.001051,0.000995,100650.406250
56902,-0.108936,-4.742914,-8.596381,0.001829,-0.002647,0.001527,100650.328125
56917,-0.160412,-4.729745,-8.599973,0.001829,-0.007968,0.003656,100650.328125
56932,-0.166397,-4.746505,-8.588001,0.001297,-0.003711,0.003123,100650.328125
56942,-0.158017,-4.726154,-8.574833,0.001297,-0.002115,0.000995,100650.328125
56952,-0.100556,-4.733337,-8.605958,0.002361,-0.000519,0.002059,100650.328125
56962,-0.150835,-4.774038,-8.613141,0.002361,-0.001051,0.000463,100650.250000
56972,-0.144849,-4.763264,-8.578424,0.001297,-0.001583,-0.000069,100650.250000
56987,-0.113725,-4.724957,-8.596381,-0.000299,-0.000519,0.001527,100650.250000
56997,-0.169988,-4.771644,-8.597578,-0.000831,-0.003711,0.002059,100650.250000
57007,-0.132878,-4.739322,-8.629900,-0.000831,-0.003179,0.002591,100650.250000
57017,-0.125696,-4.715380,-8.571242,-0.000299,-0.002647,0.000463,100650.335938
57027,-0.141258,-4.739322,-8.577228,-0.000299,-0.002647,0.000463,100650.335938
57042,-0.143652,-4.742914,-8.597578,0.001829,-0.001583,0.000463,100650.335938
57052,-0.159214,-4.734534,-8.577228,0.001829,-0.000519,-0.001133,100650.335938
57062,-0.130484,-4.762067,-8.614338,0.002893,-0.001051,0.000463,100650.335938
57072,-0.143652,-4.742914,-8.584411,0.001829,-0.001051,0.000463,100650.281250
57087,-0.161609,-4.759673,-8.596381,0.002893,0.002674,-0.000069,100650.281250
57097,-0.130484,-4.720169,-8.602366,0.002893,0.002674,0.001527,100650.281250
57107,-0.110133,-4.726154,-8.634688,0.002361,0.003738,-0.001666,100650.281250
57117,-0.116119,-4.669890,-8.481460,0.002893,0.002142,-0.001133,100650.281250
57127,-0.146046,-4.729745,-8.567651,0.004490,0.002142,0.000463,100650.210938
57142,-0.168791,-4.740520,-8.580819,0.005554,0.003206,-0.001133,100650.210938
57152,-0.168791,-4.747702,-8.605958,0.006618,0.003738,-0.001666,100650.210938
57162,-0.131681,-4.746505,-8.578424,0.006086,0.006931,-0.002198,100650.210938
57172,-0.138864,-4.764462,-8.591593,0.006086,0.007463,-0.002730,100650.210938
57182,-0.166397,-4.774038,-8.602366,0.005022,0.006931,-0.004326,100650.085938
57202,-0.101754,-4.762067,-8.588001,0.006618,0.007463,-0.005922,100650.085938
57212,-0.120907,-4.759673,-8.574833,0.003425,0.008527,-0.005390,100650.085938
57222,-0.130484,-4.726154,-8.564059,0.003958,0.009059,-0.004858,100650.085938
57232,-0.096965,-4.772841,-8.556877,0.005022,0.007463,-0.003262,100650.117188
57242,-0.125696,-4.769250,-8.589199,0.002893,0.006399,-0.003262,100650.117188
57252,-0.146046,-4.734534,-8.591593,0.002361,0.005867,-0.002730,100650.117188
57262,-0.156820,-4.726154,-8.604761,0.003958,0.006399,-0.003262,100650.117188
57282,-0.156820,-4.762067,-8.592790,0.003425,0.004802,-0.002730,100650.117188
57297,-0.123301,-4.758476,-8.609550,-0.001896,0.002674,-0.001666,100650.265625
57307,-0.077812,-4.753687,-8.573636,-0.000299,0.002142,-0.001133,100650.265625
57317,-0.124498,-4.768053,-8.583213,-0.001896,-0.001051,-0.001133,100650.265625
57327,-0.118513,-4.756082,-8.635885,-0.003492,-0.002647,-0.000069,100650.265625
57337,-0.118513,-4.738125,-8.566454,-0.002960,0.001610,-0.000069,100650.265625
57347,-0.116119,-4.729745,-8.595184,-0.002428,-0.000519,-0.000069,100650.296875
57357,-0.131681,-4.760870,-8.554482,-0.001896,-0.003711,0.002059,100650.296875
57367,-0.100556,-4.735731,-8.586804,-0.001896,-0.003179,0.002059,100650.296875
57377,-0.125696,-4.750096,-8.582016,-0.001364,-0.003179,0.002591,100650.296875
57387,-0.150835,-4.748899,-8.627506,-0.000299,-0.005308,0.002591,100650.296875
57397,-0.132878,-4.783615,-8.577228,-0.000299,-0.003179,0.002059,100650.250000
57412,-0.160412,-4.754885,-8.570045,-0.003492,-0.005840,0.002591,100650.250000
57422,-0.122104,-4.782418,-8.593987,-0.004024,-0.005308,0.000995,100650.250000
57432,-0.104148,-4.740520,-8.564059,-0.004556,-0.005308,0.002059,100650.250000
57447,-0.105345,-4.730943,-8.564059,-0.002428,-0.007968,0.003656,100650.250000
57457,-0.124498,-4.751293,-8.579621,-0.002960,-0.007968,0.006316,100650.210938
57482,-0.164003,-4.747702,-8.598776,0.000233,-0.005308,0.002591,100650.210938
57492,-0.116119,-4.734534,-8.583213,-0.000299,0.000013,0.001527,100650.210938
57507,-0.117316,-4.709395,-8.570045,0.001829,-0.002115,0.002059,100650.359375
57517,-0.095768,-4.698621,-8.650250,0.004490,-0.000519,0.002591,100650.359375
57527,-0.158017,-4.756082,-8.586804,0.006086,-0.002115,0.003123,100650.359375
57537,-0.166397,-4.754885,-8.571242,0.006618,-0.002115,0.001527,100650.359375
57562,-0.135272,-4.744111,-8.590396,0.006086,-0.001051,0.002059,100650.359375
57584,-0.116119,-4.752491,-8.560468,0.002893,-0.003179,0.001527,100650.359375
57592,-0.117316,-4.739322,-8.603564,0.004490,-0.002115,0.000995,100650.359375
57607,-0.178368,-4.774038,-8.580819,0.007150,-0.002115,-0.000601,100650.359375
57617,-0.128090,-4.757279,-8.577228,0.006618,0.004270,-0.000601,100650.359375
57627,-0.166397,-4.742914,-8.552089,0.005554,-0.000519,0.000463,100650.265625
57637,-0.204704,-4.744111,-8.583213,0.005022,-0.000519,-0.000601,100650.265625
57657,-0.193930,-4.741716,-8.619126,0.007150,0.005867,-0.003262,100650.265625
57677,-0.107739,-4.776433,-8.601170,0.003425,0.003738,-0.002730,100650.265625
57687,-0.098162,-4.776433,-8.586804,0.002361,0.001610,-0.001666,100650.171875
57697,-0.106542,-4.780024,-8.548497,0.002361,-0.001583,0.000995,100650.171875
57707,-0.102951,-4.766856,-8.560468,-0.000831,-0.006372,0.003123,100650.171875
57717,-0.137667,-4.708198,-8.571242,-0.002960,-0.009033,0.006316,100650.171875
57727,-0.187945,-4.753687,-8.617929,-0.000831,-0.013822,0.007380,100650.171875
57737,-0.140061,-4.723760,-8.582016,0.000233,-0.008500,0.004188,100650.171875
57757,-0.099359,-4.770447,-8.576031,0.005022,-0.005840,0.003656,100650.078125
57767,-0.116119,-4.780024,-8.577228,0.003958,-0.009565,0.005252,100650.078125
57777,-0.175974,-4.752491,-8.579621,0.002893,-0.010629,0.006316,100650.078125
57787,-0.138864,-4.763264,-8.605958,0.001297,-0.009565,0.004188,100650.078125
57817,-0.147243,-4.750096,-8.567651,-0.002428,-0.012225,0.008977,100650.179688
57827,-0.162806,-4.733337,-8.584411,-0.000831,-0.012757,0.010041,100650.179688
57837,-0.185551,-4.772841,-8.576031,0.000233,-0.012757,0.007912,100650.179688
57852,-0.162806,-4.776433,-8.574833,0.002361,-0.007436,0.005252,100650.179688
57862,-0.147243,-4.782418,-8.554482,0.002893,-0.004776,0.004188,100650.179688
57872,-0.181959,-4.771644,-8.584411,0.000233,-0.005308,0.004720,100650.117188
57882,-0.126893,-4.751293,-8.522161,0.000233,-0.006904,0.004188,100650.117188
57892,-0.140061,-4.769250,-8.548497,0.000765,-0.006372,0.005252,100650.117188
57907,-0.147243,-4.724957,-8.578424,-0.002428,-0.008500,0.007380,100650.117188
57917,-0.124498,-4.744111,-8.614338,-0.001364,-0.007968,0.006848,100650.117188
57927,-0.162806,-4.756082,-8.564059,-0.000831,-0.008500,0.006848,100650.148438
57937,-0.228646,-4.750096,-8.613141,0.000765,-0.006904,0.004720,100650.148438
57947,-0.183156,-4.774038,-8.567651,0.002361,-0.002647,0.002591,100650.148438
57962,-0.154426,-4.780024,-8.627506,0.002361,-0.001583,0.002591,100650.148438
57972,-0.125696,-4.758476,-8.610746,0.002893,-0.000519,0.000995,100650.148438
57982,-0.144849,-4.769250,-8.561666,0.001829,-0.002647,0.002059,100650.195312
57997,-0.166397,-4.751293,-8.615535,0.003425,-0.003179,0.002059,100650.195312
58007,-0.187945,-4.807557,-8.593987,0.003958,-0.003711,0.002591,100650.195312
58017,-0.169988,-4.766856,-8.605958,0.003958,-0.003711,0.002591,100650.195312
58032,-0.174777,-4.752491,-8.599973,0.001829,-0.001051,-0.001133,100650.195312
58042,-0.187945,-4.762067,-8.592790,0.002893,-0.002647,0.001527,100650.351562
58052,-0.137667,-4.764462,-8.554482,0.005554,-0.000519,0.000995,100650.351562
58067,-0.167594,-4.733337,-8.567651,0.003958,0.000013,-0.000601,100650.351562
58077,-0.166397,-4.777629,-8.604761,0.001829,0.000545,0.000463,100650.351562
58087,-0.154426,-4.729745,-8.599973,0.000233,-0.001583,0.001527,100650.351562
58102,-0.156820,-4.795586,-8.520964,0.002361,-0.002647,0.001527,100650.351562
58112,-0.173580,-4.759673,-8.584411,0.001829,-0.003179,0.002059,100650.351562
58127,-0.159214,-4.789600,-8.566454,0.002361,-0.002115,0.003123,100650.351562
58137,-0.209493,-4.741716,-8.546103,0.000233,-0.003711,0.000463,100650.351562
58147,-0.184354,-4.734534,-8.605958,0.002893,0.000545,-0.000601,100650.421875
58157,-0.147243,-4.759673,-8.583213,0.004490,0.002142,-0.001133,100650.421875
58167,-0.158017,-4.748899,-8.564059,0.006618,0.002674,-0.002198,100650.421875
58182,-0.171185,-4.768053,-8.601170,0.007150,0.003738,-0.002198,100650.421875
58192,-0.174777,-4.760870,-8.567651,0.005554,0.003738,-0.002730,100650.421875
58202,-0.123301,-4.742914,-8.535329,0.005554,0.004802,-0.002198,100650.476562
58212,-0.147243,-4.766856,-8.566454,0.005554,0.003738,-0.002198,100650.476562
58222,-0.153229,-4.747702,-8.525752,0.003958,0.002142,-0.001133,100650.476562
58232,-0.168791,-4.734534,-8.578424,0.003958,0.001610,-0.001133,100650.476562
58247,-0.146046,-4.748899,-8.554482,0.006086,-0.000519,-0.001133,100650.476562
58262,-0.147243,-4.745308,-8.561666,0.004490,-0.001583,0.000995,100650.492188
58272,-0.167594,-4.745308,-8.555679,0.003958,-0.003179,0.002059,100650.492188
58282,-0.179565,-4.752491,-8.592790,0.002361,-0.002647,0.003656,100650.492188
58297,-0.190339,-4.788404,-8.576031,0.002893,-0.003711,0.002059,100650.492188
58307,-0.168791,-4.733337,-8.573636,0.003425,-0.001583,0.001527,100650.492188
58322,-0.199916,-4.788404,-8.511387,0.003425,-0.001051,0.001527,100650.398438
58332,-0.201113,-4.771644,-8.536526,0.003425,0.001610,0.000463,100650.398438
58352,-0.148441,-4.778827,-8.540117,0.000765,-0.000519,-0.000601,100650.398438
58362,-0.116119,-4.751293,-8.567651,-0.000299,-0.002115,-0.000601,100650.398438
58377,-0.169988,-4.776433,-8.573636,-0.001896,-0.004776,0.000995,100650.437500
58387,-0.169988,-4.751293,-8.579621,-0.001364,-0.004776,0.003123,100650.437500
58397,-0.179565,-4.744111,-8.552089,-0.000831,-0.006904,0.004720,100650.437500
58407,-0.171185,-4.783615,-8.571242,-0.000831,-0.005308,0.003123,100650.437500
58417,-0.199916,-4.786009,-8.580819,-0.000831,-0.003179,0.002591,100650.437500
58437,-0.184354,-4.777629,-8.572439,-0.002960,-0.002647,0.003123,100650.351562
58447,-0.168791,-4.803966,-8.584411,-0.002428,-0.003179,0.002059,100650.351562
58457,-0.193930,-4.777629,-8.602366,-0.002960,-0.001583,0.000463,100650.351562
58467,-0.175974,-4.764462,-8.560468,-0.001364,-0.000519,-0.000069,100650.351562
58482,-0.179565,-4.752491,-8.567651,-0.001364,0.000013,-0.000601,100650.265625
58492,-0.149638,-4.768053,-8.585608,-0.002960,0.000545,0.000463,100650.265625
58502,-0.178368,-4.784812,-8.542512,-0.001896,0.000013,-0.000069,100650.265625
58512,-0.146046,-4.757279,-8.553286,-0.003492,-0.000519,0.000463,100650.265625
58527,-0.144849,-4.775235,-8.586804,-0.002428,-0.003179,0.002059,100650.265625
58537,-0.197522,-4.717774,-8.599973,-0.001364,-0.002647,0.001527,100650.320312
58547,-0.148441,-4.754885,-8.598776,0.000233,-0.002647,-0.000601,100650.320312
58557,-0.186748,-4.780024,-8.530540,-0.000299,-0.002647,0.000995,100650.320312
58567,-0.156820,-4.780024,-8.596381,-0.000299,-0.000519,0.002591,100650.320312
58582,-0.155623,-4.770447,-8.567651,-0.001364,-0.001583,0.003123,100650.320312
58592,-0.168791,-4.763264,-8.523358,-0.003492,-0.002647,0.002059,100650.445312
58607,-0.181959,-4.762067,-8.574833,-0.001896,-0.003711,0.000463,100650.445312
58617,-0.164003,-4.744111,-8.571242,-0.001896,-0.001051,0.000463,100650.445312
58627,-0.159214,-4.784812,-8.579621,0.001297,-0.000519,0.000995,100650.445312
58642,-0.193930,-4.778827,-8.548497,0.000765,-0.001051,0.000463,100650.304688
58652,-0.152032,-4.736928,-8.567651,0.000765,0.002674,-0.000601,100650.304688
58662,-0.171185,-4.753687,-8.591593,0.001297,0.001078,-0.000069,100650.304688
58672,-0.173580,-4.757279,-8.558074,-0.000831,0.001078,-0.000601,100650.304688
58687,-0.169988,-4.762067,-8.584411,-0.000831,0.002142,-0.000601,100650.304688
58697,-0.178368,-4.752491,-8.559271,-0.001364,0.000545,-0.000069,100650.164062
58707,-0.153229,-4.777629,-8.559271,0.000233,0.000545,-0.000601,100650.164062
58716,-0.149638,-4.764462,-8.550891,0.000765,0.000545,-0.000069,100650.164062
58727,-0.167594,-4.778827,-8.577228,0.003425,-0.001051,-0.001666,100650.164062
58737,-0.160412,-4.776433,-8.603564,0.002361,0.000013,-0.000601,100650.164062
58747,-0.162806,-4.750096,-8.583213,0.001829,0.000013,-0.000601,100650.164062
58761,-0.183156,-4.787206,-8.562862,0.003425,-0.000519,0.000995,100650.250000
58772,-0.187945,-4.736928,-8.550891,0.001297,-0.000519,-0.000601,100650.250000
58782,-0.171185,-4.787206,-8.568848,0.001829,0.002142,-0.000069,100650.250000
58792,-0.185551,-4.793192,-8.573636,0.002893,0.001610,-0.002730,100650.250000
58802,-0.125696,-4.744111,-8.583213,0.001297,0.002674,-0.001666,100650.250000
58817,-0.190339,-4.797980,-8.558074,0.000233,0.001078,-0.001133,100650.296875
58827,-0.173580,-4.790798,-8.589199,0.001297,0.001610,-0.002730,100650.296875
58837,-0.174777,-4.765658,-8.561666,0.002893,0.002142,-0.001666,100650.296875
58847,-0.165200,-4.800375,-8.578424,0.003958,0.001078,-0.001666,100650.296875
58857,-0.164003,-4.751293,-8.564059,0.003425,0.001078,-0.001666,100650.296875
58871,-0.166397,-4.770447,-8.561666,0.002893,0.002142,-0.001666,100650.156250
58882,-0.168791,-4.762067,-8.579621,0.001829,0.001078,-0.000069,100650.156250
58892,-0.183156,-4.769250,-8.585608,0.000233,0.001078,0.000463,100650.156250
58902,-0.137667,-4.720169,-8.552089,0.001829,0.001078,-0.000601,100650.156250
58912,-0.173580,-4.759673,-8.555679,0.002361,-0.001583,-0.000601,100650.156250
58926,-0.190339,-4.750096,-8.535329,0.003958,0.001078,-0.002198,100649.976562
58937,-0.166397,-4.762067,-8.655039,0.003958,0.001078,-0.002730,100649.976562
58947,-0.174777,-4.782418,-8.555679,0.002893,0.003206,-0.001666,100649.976562
58957,-0.166397,-4.784812,-8.546103,-0.000299,0.002674,-0.003262,100649.976562
58967,-0.123301,-4.765658,-8.590396,-0.000299,0.003738,-0.003262,100649.976562
58977,-0.165200,-4.742914,-8.552089,-0.001364,0.002142,-0.002198,100649.820312
58992,-0.150835,-4.795586,-8.568848,-0.000299,0.002142,-0.001666,100649.820312
59006,-0.158017,-4.786009,-8.585608,-0.004024,0.001610,-0.001666,100649.820312
59026,-0.159214,-4.763264,-8.531737,-0.001896,0.001610,0.000463,100649.921875
59053,-0.174777,-4.784812,-8.588001,-0.001364,0.003738,-0.001666,100649.921875
59062,-0.153229,-4.783615,-8.568848,-0.000831,0.004270,-0.003262,100649.921875
59082,-0.180762,-4.787206,-8.601170,-0.002428,0.004802,-0.004858,100649.953125
59092,-0.186748,-4.723760,-8.550891,-0.001364,0.005334,-0.005922,100649.953125
59112,-0.146046,-4.760870,-8.554482,0.001829,0.009591,-0.006987,100649.953125
59122,-0.165200,-4.766856,-8.589199,0.005554,0.011720,-0.006987,100649.953125
59142,-0.138864,-4.780024,-8.610746,0.006618,0.013316,-0.009115,100649.851562
59157,-0.161609,-4.765658,-8.601170,0.007150,0.012784,-0.009115,100649.851562
59177,-0.155623,-4.764462,-8.504205,0.006086,0.013316,-0.008583,100649.851562
59203,-0.134075,-4.791995,-8.583213,0.003425,0.014380,-0.007519,100649.781250
59221,-0.095768,-4.777629,-8.541314,0.006086,0.013316,-0.006987,100649.781250
59246,-0.154426,-4.776433,-8.559271,0.007682,0.014912,-0.008583,100649.781250
59264,-0.159214,-4.776433,-8.541314,0.009811,0.019701,-0.011776,100649.882812
59276,-0.140061,-4.788404,-8.561666,0.013003,0.029811,-0.018693,100649.882812
59289,-0.113725,-4.730943,-8.577228,0.013003,0.033004,-0.016565,100649.882812
59297,-0.123301,-4.754885,-8.564059,0.015132,0.029279,-0.013372,100649.882812
59311,-0.087388,-4.774038,-8.571242,0.015132,0.023958,-0.009647,100649.929688
59321,-0.125696,-4.751293,-8.576031,0.014068,0.021298,-0.006987,100649.929688
59332,-0.095768,-4.790798,-8.611943,0.013536,0.017573,-0.004326,100649.929688
59346,-0.140061,-4.723760,-8.555679,0.016196,0.020233,-0.002198,100649.929688
59356,-0.108936,-4.746505,-8.548497,0.017792,0.021298,-0.000069,100649.929688
59371,-0.122104,-4.696227,-8.554482,0.020453,0.018637,0.000995,100649.781250
59381,-0.076614,-4.639963,-8.585608,0.024178,0.026619,-0.002730,100649.781250
59396,-0.101754,-4.757279,-8.552089,0.035352,0.034600,-0.009115,100649.781250
59406,-0.058658,-4.733337,-8.511387,0.039077,0.034600,-0.012308,100649.781250
59416,-0.068235,-4.665102,-8.601170,0.042269,0.035133,-0.012308,100649.648438
59426,-0.073023,-4.806360,-8.493430,0.051847,0.037261,-0.014436,100649.648438
59436,-0.244209,-4.952406,-8.538920,0.052912,0.031940,-0.021886,100649.648438
59451,-0.150835,-4.836287,-8.508993,0.050251,0.046307,-0.031464,100649.648438
59461,-0.058658,-4.639963,-8.400057,0.050251,0.056417,-0.035721,100649.648438
59471,-0.134075,-4.553771,-8.595184,0.057169,0.058545,-0.034656,100649.523438
59486,0.175974,-4.333505,-8.592790,0.079517,0.063334,-0.016032,100649.523438
59496,0.175974,-4.584896,-8.668207,0.102398,0.061738,-0.008583,100649.523438
59506,-0.149638,-4.936844,-8.529344,0.120490,0.043114,-0.006987,100649.523438
59516,-0.147243,-5.163096,-8.510190,0.116233,0.025022,-0.001666,100649.523438
59531,-0.260968,-5.103241,-8.419210,0.087499,0.043114,-0.011776,100649.617188
59541,-0.226252,-5.221754,-8.412027,0.061958,0.079298,-0.035721,100649.617188
59551,-0.227449,-5.075707,-8.427590,0.036948,0.094197,-0.054876,100649.617188
59566,-0.039504,-5.136760,-8.544906,0.015132,0.116013,-0.074565,100649.617188
59576,0.164003,-4.932055,-8.541314,0.003958,0.117610,-0.078821,100649.617188
59586,0.177171,-5.017050,-8.488642,0.000233,0.110160,-0.072968,100649.664062
59596,0.110133,-4.947618,-8.556877,-0.007217,0.079830,-0.061794,100649.664062
59611,0.232238,-4.886566,-8.540117,-0.014666,0.052692,-0.042638,100649.664062
59621,0.014365,-4.911705,-8.568848,-0.013070,0.037261,-0.034656,100649.664062
59631,0.015562,-4.918888,-8.562862,-0.009345,0.035665,-0.035188,100649.664062
59646,0.050278,-4.865018,-8.538920,-0.001896,0.041518,-0.034656,100649.601562
59656,0.110133,-4.835090,-8.559271,0.006086,0.035665,-0.033060,100649.601562
59666,0.144849,-4.914099,-8.585608,0.014068,0.028747,-0.028271,100649.601562
59676,0.126893,-4.847061,-8.507795,0.023114,0.020233,-0.026143,100649.601562
59686,0.099359,-4.830302,-8.567651,0.029499,0.014380,-0.026143,100649.601562
59696,0.068235,-4.940435,-8.516175,0.035352,0.007995,-0.024014,100649.554688
59706,0.010774,-4.948815,-8.503007,0.036416,0.003206,-0.025610,100649.554688
59716,0.003591,-4.945224,-8.518570,0.031095,0.008527,-0.027207,100649.554688
59726,0.035913,-5.009867,-8.550891,0.027370,0.007463,-0.029867,100649.554688
59741,0.074220,-4.933253,-8.495825,0.012471,0.000545,-0.029335,100649.554688
59751,0.238223,-4.932055,-8.501810,0.000233,-0.007436,-0.021354,100649.609375
59761,0.196325,-4.845864,-8.439561,-0.008813,-0.029253,-0.010179,100649.609375
59771,0.049081,-4.886566,-8.462306,-0.009345,-0.039895,-0.005922,100649.609375
59781,-0.219069,-4.851850,-8.534132,-0.008813,-0.043620,-0.003262,100649.609375
59791,-0.038307,-4.918888,-8.567651,-0.005620,-0.031913,-0.007519,100649.609375
59801,0.002394,-4.916493,-8.470686,-0.000831,-0.019675,-0.013904,100649.664062
59811,0.065841,-4.904522,-8.506598,0.001829,-0.013822,-0.016565,100649.664062
59821,0.084994,-4.854244,-8.443152,0.000233,-0.007436,-0.014968,100649.664062
59841,0.108936,-4.896142,-8.498219,0.001297,-0.004776,-0.011243,100649.664062
59851,0.028730,-4.886566,-8.474277,0.000765,-0.007968,-0.010711,100649.664062
59861,0.101754,-4.947618,-8.476671,0.002361,0.000013,-0.012840,100649.593750
59871,0.153229,-4.940435,-8.485051,0.001829,0.004270,-0.013372,100649.593750
59881,0.034716,-4.955997,-8.470686,-0.004556,-0.001051,-0.010179,100649.593750
59891,-0.038307,-4.946421,-8.453926,-0.008813,0.001078,-0.010179,100649.593750
59901,0.025139,-4.920084,-8.480263,-0.012006,0.013316,-0.014436,100649.593750
59911,0.099359,-4.952406,-8.494628,-0.013070,0.020233,-0.014436,100649.500000
59926,0.107739,-4.902128,-8.480263,-0.018391,0.017041,-0.014968,100649.500000
59936,0.137667,-4.894945,-8.495825,-0.023180,0.013316,-0.010711,100649.500000
59946,0.096965,-4.894945,-8.511387,-0.024776,0.006399,-0.004858,100649.500000
59956,0.073023,-4.903325,-8.522161,-0.025841,0.001610,-0.003262,100649.500000
59966,0.093374,-4.897339,-8.462306,-0.025841,0.000545,-0.000601,100649.414062
59976,0.162806,-4.930859,-8.503007,-0.026373,0.002142,-0.000069,100649.414062
59986,0.191536,-4.965574,-8.500613,-0.030097,-0.005840,0.004188,100649.414062
59996,0.174777,-5.062540,-8.474277,-0.040740,-0.019143,0.011105,100649.414062
60011,-0.134075,-5.340267,-8.508993,-0.072134,-0.040427,0.018023,100649.414062
60021,-0.092177,-4.921282,-8.522161,-0.100336,-0.051069,0.016426,100649.328125
60031,0.166397,-5.020641,-8.504205,-0.090758,-0.010097,0.003123,100649.328125
60041,-0.011971,-4.728549,-8.580819,-0.079584,0.002674,-0.002730,100649.328125
60051,0.150835,-4.504691,-8.495825,-0.077455,-0.007436,-0.003794,100649.328125
60061,0.356736,-4.726154,-8.549694,-0.049253,0.006399,-0.006987,100649.328125
60071,0.264559,-4.535815,-8.626308,-0.044997,-0.030849,0.010573,100649.328125
60081,0.122104,-4.671088,-8.552089,-0.020519,-0.050005,0.011105,100649.390625
60091,0.104148,-4.930859,-8.576031,0.011407,-0.026060,0.003123,100649.390625
60101,-0.081403,-4.833893,-8.534132,0.047591,-0.006904,-0.014968,100649.390625
60111,0.116119,-4.831499,-8.659827,0.097609,0.040986,-0.036785,100649.390625
60121,0.293290,-4.790798,-8.696938,0.125811,0.040986,-0.039445,100649.390625
60131,-0.025139,-4.921282,-8.605958,0.139113,0.008527,-0.035188,100649.320312
60141,-0.190339,-5.002685,-8.519767,0.133792,-0.001583,-0.030932,100649.320312
60156,-0.226252,-4.990714,-8.501810,0.116765,0.013316,-0.035188,100649.320312
60166,-0.064643,-5.055357,-8.579621,0.108783,0.038857,-0.042638,100649.320312
60176,-0.015562,-4.894945,-8.577228,0.100802,0.042582,-0.043702,100649.320312
60186,0.009577,-4.753687,-8.605958,0.110380,0.053224,-0.051684,100649.132812
60196,0.160412,-4.736928,-8.550891,0.137517,0.068655,-0.067115,100649.132812
60206,0.307655,-4.618415,-8.582016,0.185939,0.086747,-0.100106,100649.132812
60221,0.427365,-4.061763,-8.610746,0.308324,0.121334,-0.130436,100649.132812
60231,0.503979,-3.457227,-8.565256,0.432306,0.131977,-0.105959,100649.132812
60241,0.330400,-4.070143,-8.831013,0.605774,0.151665,-0.091592,100649.289062
60251,0.530316,-4.035427,-8.798691,0.784563,0.215518,-0.062858,100649.289062
60261,-0.299275,-4.984728,-9.522937,1.008049,0.244252,-0.072436,100649.289062
60271,-0.389058,-6.819883,-10.049662,1.138416,0.247976,-0.089996,100649.289062
60281,0.049081,-6.629545,-10.210073,1.138948,0.297463,-0.077757,100649.289062
60291,-0.207098,-7.448361,-10.732009,1.127241,0.330986,-0.071372,100649.289062
60311,-0.234632,-10.144233,-9.589975,0.955902,0.518820,-0.034124,100649.367188
60321,3.584120,-11.779472,-12.498930,0.837241,0.686435,0.031857,100649.367188
60331,1.900996,-8.991425,-11.021708,0.398251,0.173481,0.129766,100649.367188
60341,-0.766145,-5.433641,-6.830657,0.129003,-0.357564,0.201600,100649.367188
60351,-1.951274,-4.188656,-5.777209,0.221058,-0.336812,0.226610,100649.234375
60371,-0.963666,-5.677849,-7.554904,0.491902,-0.011161,0.330371,100649.234375
60381,-0.475249,-5.418078,-7.714118,0.447737,-0.011693,0.445307,100649.234375
60391,-0.089783,-4.769250,-6.913258,0.348233,-0.089913,0.518738,100649.234375
60401,0.251391,-4.235343,-5.987898,0.304600,-0.119179,0.528848,100649.234375
60411,1.007959,-3.936068,-5.718551,0.316838,-0.101088,0.485215,100649.164062
60421,1.373075,-4.092888,-5.986701,0.332269,-0.093638,0.400609,100649.164062
60446,1.545457,-3.738546,-5.923255,0.286508,-0.153234,0.182444,100649.164062
60456,1.370680,-3.320758,-5.841852,0.217866,-0.186225,0.024408,100649.164062
60466,1.228225,-3.071761,-5.833472,0.173168,-0.200060,-0.053280,100649.101562
60481,0.954089,-2.977190,-6.080075,0.112508,-0.184629,-0.138418,100649.101562
60496,0.826000,-3.543418,-7.034164,0.042802,-0.117051,-0.202803,100649.101562
60506,0.594959,-3.989937,-7.710526,-0.092886,-0.066500,-0.236858,100649.101562
60516,0.237026,-3.769670,-7.582437,-0.240813,-0.048409,-0.223555,100649.109375
60526,-0.237026,-3.744531,-7.630321,-0.361070,0.003738,-0.180986,100649.109375
60541,-0.556652,-3.944447,-7.772776,-0.506336,0.144747,-0.076693,100649.109375
60554,-0.417788,-4.334702,-8.084022,-0.592537,0.255958,0.010573,100649.109375
60561,-0.353145,-4.631583,-8.270770,-0.685657,0.335242,0.095711,100649.109375
60571,-0.250194,-4.707001,-8.159439,-0.773987,0.382068,0.185105,100649.101562
60586,-0.276530,-4.847061,-8.171411,-0.869767,0.428894,0.312811,100649.101562
60596,-0.448913,-4.633977,-7.915231,-0.908611,0.444857,0.395288,100649.101562
60606,-0.561440,-4.525041,-7.802703,-0.906482,0.471463,0.474573,100649.101562
60616,-0.505177,-4.442441,-7.631518,-0.869235,0.512967,0.544279,100649.101562
60631,0.083797,-4.483143,-7.462727,-0.754299,0.551279,0.633141,100649.101562
60654,-1.600524,-15.079880,-8.123527,-0.559015,0.555536,0.693802,100648.898438
60661,4.147954,-20.531477,-18.011580,-0.437694,0.711976,1.009343,100648.898438
60673,3.055001,-15.653291,-2.542642,-1.232133,-0.392152,1.275398,100648.898438
60683,4.218584,-7.663840,-5.303157,-1.193289,-0.794427,0.968903,100648.898438
60701,-8.293514,-0.841562,-11.499351,-0.923510,-0.452280,0.222353,100648.687500
60716,3.827132,-0.751779,-8.079233,-0.341914,0.600765,0.009509,100648.687500
60726,4.182671,-4.037821,-9.856929,-0.023712,0.555536,-0.027207,100648.687500
60741,-2.377442,-5.731719,-8.371326,0.085902,-0.196335,0.022279,100648.687500
60751,-0.223858,-5.924452,-8.330625,0.119425,0.129316,-0.085207,100648.851562
60771,0.596156,-5.376180,-8.562862,0.060893,0.299059,-0.188436,100648.851562
60781,0.839168,-4.692636,-8.519767,-0.030630,0.156454,-0.136289,100648.851562
60791,0.969652,-4.724957,-8.573636,-0.081180,0.075573,-0.069243,100648.851562
60806,0.758962,-5.009867,-8.386889,-0.129602,-0.042555,-0.005390,100648.859375
60816,0.699107,-5.109226,-8.336611,-0.162061,-0.121308,0.021747,100648.859375
60831,-0.823605,-4.945224,-8.595184,-0.182281,-0.130886,0.008977,100648.859375
60846,-0.773327,-4.648343,-8.627506,-0.146097,-0.000519,-0.043702,100648.859375
60856,-0.027533,-4.758476,-8.645462,-0.084905,0.180399,-0.105427,100648.703125
60866,0.306458,-4.863821,-8.560468,-0.055107,0.224564,-0.129372,100648.703125
60876,0.745794,-4.679467,-8.447941,-0.033822,0.223499,-0.136289,100648.703125
60886,0.871489,-4.564546,-8.514978,-0.014666,0.212857,-0.126711,100648.703125
60896,0.641646,-4.953603,-8.519767,-0.008813,0.146876,-0.093720,100648.703125
60911,0.068235,-4.791995,-8.541314,-0.009345,0.059077,-0.058069,100648.703125
60921,-0.264559,-4.739322,-8.475474,0.020453,0.068123,-0.066051,100648.703125
60931,0.192733,-4.975151,-8.686164,0.050783,0.126655,-0.087867,100648.703125
60946,0.233435,-4.671088,-8.498219,0.056636,0.119738,-0.087867,100648.703125
60956,0.100556,-4.950012,-8.646660,0.092820,0.150600,-0.105427,100648.703125
60966,0.465672,-4.756082,-8.530540,0.086435,0.143683,-0.111280,100648.703125
60976,0.462081,-4.745308,-8.458714,0.096013,0.142619,-0.112344,100648.703125
60986,0.687136,-4.927267,-8.584411,0.098673,0.119738,-0.097977,100648.703125
60996,0.325611,-4.760870,-8.440758,0.091224,0.071848,-0.076693,100648.703125
61006,0.420182,-4.571728,-8.438364,0.075792,0.041518,-0.055409,100648.703125
61016,0.175974,-4.613626,-8.339005,0.116765,0.067059,-0.067647,100648.703125
61026,0.549469,-5.011064,-8.637083,0.135921,0.108564,-0.077757,100648.898438
61036,0.366313,-4.946421,-8.463503,0.129003,0.066527,-0.066051,100648.898438
61046,0.567426,-4.873397,-8.374918,0.119957,0.052692,-0.059133,100648.898438
61056,0.542287,-5.049371,-8.439561,0.109847,0.026619,-0.047959,100648.898438
61066,0.187945,-4.853047,-8.438364,0.098141,0.000013,-0.038381,100648.898438
61076,0.180762,-4.035427,-7.650671,0.140178,0.063334,-0.080418,100648.890625
61086,0.804452,-5.026627,-8.403648,0.195517,0.185187,-0.090528,100648.890625
61096,1.385046,-5.735310,-8.796297,0.072068,-0.018078,-0.009115,100648.890625
61106,-0.113725,-4.722563,-8.407239,-0.045529,-0.245821,0.046224,100648.890625
61116,-0.003591,-4.498705,-8.107965,0.049187,-0.066500,-0.008051,100648.890625
61126,0.632069,-5.249287,-8.726865,0.111976,0.069720,-0.028271,100648.890625
61136,0.328006,-4.884171,-8.336611,0.088563,-0.016482,-0.014968,100648.789062
61146,0.274136,-4.891354,-8.315063,0.094416,-0.010097,-0.014436,100648.789062
61156,0.518345,-5.036203,-8.453926,0.112508,0.021298,-0.012840,100648.789062
61166,0.610521,-4.935647,-8.328231,0.100269,0.005334,-0.000069,100648.789062
61176,0.482432,-4.853047,-8.395268,0.085902,-0.030317,0.024940,100648.789062
61186,0.592565,-4.849455,-8.449138,0.085370,-0.047344,0.042500,100648.703125
61206,0.348356,-5.019444,-8.556877,0.077389,-0.096299,0.074958,100648.703125
61216,0.294487,-4.941632,-8.452729,0.077921,-0.101620,0.078683,100648.703125
61226,0.385466,-4.892551,-8.435969,0.089627,-0.080335,0.073362,100648.703125
61236,0.319626,-4.831499,-8.468291,0.111976,-0.075546,0.070701,100648.703125
61246,0.168791,-4.954801,-8.315063,0.143370,-0.076078,0.068041,100648.773438
61256,-0.013168,-4.902128,-8.306683,0.179022,-0.055858,0.052078,100648.773438
61266,0.090980,-4.831499,-8.394072,0.224251,-0.007436,0.036114,100648.773438
61276,0.405817,-4.873397,-8.321048,0.273737,0.018637,0.033986,100648.773438
61291,0.068235,-5.020641,-8.322245,0.329077,0.002674,0.029729,100648.773438
61301,0.131681,-4.999093,-8.355764,0.366324,0.040986,0.035582,100648.820312
61316,0.160412,-5.037400,-8.283937,0.419003,0.071316,0.019087,100648.820312
61326,0.268151,-5.015852,-8.273164,0.474343,0.080894,0.017490,100648.820312
61336,0.204704,-5.255273,-8.391677,0.520104,0.087811,0.012701,100648.820312
61346,0.046687,-5.164293,-8.280347,0.565865,0.103243,0.004188,100648.820312
61356,0.114922,-5.141548,-8.281544,0.629719,0.145811,-0.016565,100648.820312
61366,0.159214,-5.134366,-8.147469,0.710599,0.170821,-0.036785,100648.820312
61376,0.456095,-5.003881,-8.046912,0.803719,0.195298,-0.049555,100648.820312
61386,0.354342,-5.216966,-8.141483,0.923443,0.210197,-0.062326,100648.820312
61396,0.292093,-5.257667,-7.988254,1.036783,0.211261,-0.071372,100648.820312
61406,0.361524,-5.467160,-7.899669,1.151718,0.239995,-0.096381,100648.765625
61421,0.496797,-5.386954,-7.876924,1.339553,0.266600,-0.144803,100648.765625
61431,0.306458,-5.510255,-7.764396,1.481094,0.274582,-0.162363,100648.765625
61441,0.671574,-5.565322,-7.566875,1.634342,0.311830,-0.177262,100648.765625
61451,0.950498,-5.653907,-7.758410,1.793975,0.325664,-0.206528,100648.765625
61461,1.078588,-5.768829,-7.495049,1.946158,0.279903,-0.208656,100648.718750
61471,0.597353,-6.111200,-7.414843,2.098341,0.215518,-0.207060,100648.718750
61481,0.506374,-6.345831,-7.304709,2.257442,0.211261,-0.223555,100648.718750
61491,0.405817,-6.124368,-7.592013,2.457516,0.274050,-0.281555,100648.718750
61501,0.822408,-5.790377,-7.469909,2.697497,0.342692,-0.341684,100648.718750
61511,0.632069,-5.886145,-7.459136,2.924708,0.393242,-0.333702,100648.718750
61521,0.444124,-6.533776,-6.580463,3.124781,0.416123,-0.293794,100648.875000
61541,-0.283713,-4.948815,-7.524976,3.600487,0.601297,-0.354986,100648.875000
61551,1.204283,-6.351817,-5.256470,4.073001,0.739114,-0.279427,100648.875000
61561,1.091756,-5.884948,-6.880936,4.567331,0.764123,-0.265592,100648.875000
61571,2.258929,-5.538986,-6.979098,5.132432,0.845004,-0.213977,100648.867188
61591,3.315969,-8.912416,-8.179790,5.996046,0.701334,0.452224,100648.867188
61601,1.962048,-15.248671,-7.674613,6.387679,0.248509,1.147691,100648.867188
61611,3.478775,-21.922508,-4.724957,6.750045,0.073444,1.310517,100648.867188
61621,0.875081,-23.065739,-10.272323,6.897439,0.270857,1.150352,100648.867188
61636,3.734955,-21.965603,-11.481394,6.655862,0.262876,1.148756,100648.898438
61646,5.080496,-18.879478,-17.555485,6.222724,0.071848,1.058829,100648.898438
61656,6.338649,-15.923836,-15.148114,5.250028,-0.435252,1.133857,100648.898438
61666,5.601235,-13.081918,-15.836447,4.373643,-1.024298,1.242939,100648.898438
61681,3.360262,-7.050924,-16.798916,3.537166,-1.257362,1.150884,100648.859375
61691,-0.375890,-15.843630,-17.438168,2.388341,-1.123270,0.884297,100648.859375
61706,1.920150,-12.099098,-24.921246,-0.159400,-0.667252,0.839068,100648.859375
61726,1.855506,-0.763750,-7.228095,-1.958995,-0.282005,0.565563,100648.859375
61736,0.205901,0.082600,-7.078457,-2.029234,-0.125565,0.465527,100648.820312
61746,2.153584,-2.215834,-7.248446,-2.163858,-0.188886,0.654426,100648.820312
61756,3.086126,-3.676297,-8.275558,-2.358078,-0.330427,0.695930,100648.820312
61766,3.227384,-4.762067,-8.382100,-2.670426,-0.460262,0.604940,100648.820312
61776,3.065775,-5.039794,-7.930793,-3.048756,-0.592757,0.466591,100648.820312
61791,2.614468,-4.064157,-6.795941,-3.543086,-0.709821,0.276628,100648.820312
61801,2.655170,-4.847061,-6.579266,-3.764444,-0.751326,0.163821,100648.992188
61816,2.387019,-5.046977,-6.119579,-3.994315,-0.804537,0.019619,100648.992188
61826,2.015918,-5.189432,-5.572505,-4.197049,-0.821564,-0.102766,100648.992188
61841,2.224213,-6.214150,-6.250063,-4.319966,-0.804537,-0.246968,100648.992188
61851,1.930924,-6.888118,-6.853402,-4.407764,-0.798683,-0.379463,100649.203125
61866,1.619677,-7.928399,-7.648277,-4.542920,-0.772610,-0.535372,100649.203125
61876,1.413776,-9.015367,-8.046912,-4.714260,-0.719931,-0.655628,100649.203125
61886,1.482011,-9.439140,-7.960721,-4.864315,-0.661399,-0.697133,100649.203125
61896,1.883040,-9.434352,-7.649475,-4.977122,-0.598078,-0.716289,100649.203125
61906,2.124854,-9.606734,-7.557298,-5.019158,-0.552849,-0.726931,100649.320312
61916,2.329558,-10.471041,-8.674192,-5.014902,-0.516665,-0.733316,100649.320312
61926,2.097321,-10.499771,-8.167819,-5.001067,-0.420886,-0.758858,100649.320312
61936,2.371457,-10.375273,-7.981071,-4.904755,-0.280409,-0.800362,100649.320312
61946,1.886631,-10.730812,-8.279149,-4.707342,-0.133014,-0.866344,100649.320312
61956,1.816002,-12.255919,-9.947908,-4.485452,0.101114,-0.961059,100649.320312
61966,2.035071,-14.682442,-12.440272,-4.367856,0.303848,-1.061628,100649.429688
61976,2.053028,-16.293739,-14.008474,-4.461507,0.403352,-1.135059,100649.429688
61986,1.655591,-16.389507,-13.517663,-4.709470,0.379408,-1.169114,100649.429688
62006,-0.509965,-16.196775,-11.884817,-5.058002,0.354398,-1.098876,100649.429688
62021,-1.558625,-15.702372,-9.963470,-5.038846,0.570967,-1.014803,100649.507812
62036,-1.197101,-16.213533,-8.523358,-4.837177,0.789132,-0.793977,100649.507812
62051,-0.675165,-16.323668,-7.173028,-4.594003,0.826912,-0.464069,100649.507812
62071,-1.300052,-16.140511,-4.435259,-4.034755,0.851921,0.119656,100649.539062
62093,-2.413355,-16.101006,-2.151190,-3.592040,1.106802,0.298444,100649.539062
62111,-0.790087,-19.019539,5.798757,-2.503876,1.911884,0.078683,100649.539062
62136,-1.993173,-17.741035,14.654908,-1.293858,0.568839,0.313876,100649.437500
62156,-2.262521,-15.635334,14.427460,0.822342,-0.021271,0.706041,100649.437500
62181,0.638055,1.696292,-18.531120,3.463203,-1.595784,1.839434,100649.406250
62191,13.178884,1.080982,-26.859352,4.129937,-0.243693,1.767067,100649.406250
62206,2.369063,-15.340847,-1.478420,3.425955,-1.914518,1.325416,100649.406250
62216,-4.473566,-9.771935,-3.438074,3.632946,-2.879765,1.210480,100649.406250
62236,-4.126407,-16.474503,-20.551826,3.107222,-0.436849,0.264921,100649.375000
62246,3.087323,-16.754623,-14.304158,1.942433,0.282564,0.192555,100649.375000
62266,-1.527501,-6.296751,-10.971429,0.972929,-0.375124,0.079215,100649.375000
62296,0.639252,-5.166687,-9.956287,0.639829,0.149004,-0.021886,100649.320312
62313,1.103727,-5.057751,-9.169792,0.470618,0.059610,-0.022418,100649.320312
62321,0.677559,-4.933253,-8.910022,0.370581,-0.063308,0.034518,100649.320312
62346,-0.149638,-4.642357,-9.132683,0.341315,-0.004244,0.014298,100649.281250
62356,-0.505177,-4.775235,-9.100361,0.322691,0.034068,0.008977,100649.281250
62366,0.563834,-5.324705,-9.714474,0.317370,0.124527,-0.020289,100649.281250
62376,0.339977,-4.929661,-9.329007,0.305664,0.178270,-0.050620,100649.281250
62386,0.634463,-4.552575,-8.766370,0.282251,0.185720,-0.052748,100649.281250
62396,1.376666,-4.323928,-8.423999,0.267352,0.185187,-0.037849,100649.281250
62406,1.483208,-4.365827,-8.481460,0.260434,0.137298,-0.002198,100649.195312
62416,1.515530,-4.520253,-8.438364,0.247132,0.046307,0.054206,100649.195312
62436,1.344344,-4.460398,-8.401254,0.239150,-0.072354,0.115399,100649.195312
62450,0.405817,-4.685453,-8.695741,0.239682,-0.180904,0.157435,100649.195312
62461,0.235829,-4.635174,-8.790312,0.240746,-0.172922,0.146793,100649.125000
62471,0.459687,-4.904522,-8.767567,0.234361,-0.139399,0.132958,100649.125000
62481,0.858321,-4.786009,-8.544906,0.219462,-0.124500,0.133490,100649.125000
62491,0.873884,-4.679467,-8.574833,0.208820,-0.144188,0.142004,100649.125000
62501,0.817620,-4.881777,-8.597578,0.193389,-0.186757,0.164885,100649.125000
62515,0.632069,-5.023035,-8.404845,0.151352,-0.241565,0.197344,100649.265625
62526,0.641646,-5.081693,-8.625112,0.122086,-0.236776,0.198940,100649.265625
62536,0.507571,-5.091270,-8.832211,0.108783,-0.231987,0.195215,100649.265625
62546,0.440533,-4.650737,-8.571242,0.094948,-0.236243,0.200536,100649.265625
62556,0.616507,-4.661511,-8.639477,0.101866,-0.229858,0.206922,100649.265625
62570,0.563834,-4.947618,-8.584411,0.112508,-0.259656,0.223949,100649.273438
62580,0.237026,-4.973954,-8.529344,0.108251,-0.277748,0.228738,100649.273438
62591,0.226252,-4.999093,-8.570045,0.118361,-0.255399,0.219160,100649.273438
62601,0.118513,-4.709395,-8.431181,0.121022,-0.236243,0.215435,100649.273438
62620,0.118513,-4.797980,-8.531737,0.172636,-0.189950,0.213307,100649.289062
62630,0.074220,-4.795586,-8.568848,0.224251,-0.163877,0.208518,100649.289062
62641,-0.265756,-5.050569,-8.383297,0.272141,-0.159088,0.203729,100649.289062
62650,0.211887,-4.952406,-8.432379,0.330141,-0.094702,0.187766,100649.289062
62665,-0.168791,-4.801571,-8.328231,0.429645,-0.048409,0.169142,100649.289062
62676,-0.119710,-5.256470,-8.412027,0.492434,-0.033510,0.153711,100649.132812
62695,-0.189142,-4.860229,-8.382100,0.587150,0.004802,0.127637,100649.132812
62706,-0.168791,-5.086482,-8.372523,0.715388,0.061738,0.088793,100649.132812
62716,-0.221464,-5.322310,-8.288726,0.812232,0.128252,0.048885,100649.132812
62735,-0.174777,-5.242105,-8.170214,0.995810,0.216582,-0.031996,100649.000000
62750,-0.293290,-4.969166,-8.147469,1.230471,0.242123,-0.133629,100649.000000
62760,-0.338780,-5.408502,-8.010999,1.410856,0.259151,-0.196418,100649.000000
62770,-0.389058,-5.436035,-8.031349,1.590177,0.346949,-0.281023,100649.000000
62781,-0.119710,-5.355829,-7.752425,1.789718,0.452839,-0.373078,100649.000000
62790,-0.171185,-5.503073,-7.920019,2.016397,0.521481,-0.483225,100649.007812
62800,-0.092177,-5.612009,-7.837419,2.257442,0.598637,-0.579005,100649.007812
62810,0.056264,-5.547365,-7.715315,2.520305,0.708784,-0.676381,100649.007812
62820,0.496797,-5.621585,-7.672219,2.810837,0.825316,-0.753004,100649.007812
62831,0.446519,-5.379771,-7.793127,3.137552,0.919499,-0.800894,100649.007812
62845,0.719458,-5.020641,-7.365762,3.677111,1.022196,-0.767371,100648.953125
62855,-0.628478,-4.145560,-8.142680,4.096414,1.039756,-0.666271,100648.953125
62865,2.657564,-4.201824,-5.989096,4.643423,1.084985,-0.489610,100648.953125
62875,2.110489,-4.432865,-6.770802,5.387312,1.240361,-0.448106,100648.953125
62885,1.474828,-4.209007,-9.003395,6.116835,1.351040,-0.336895,100648.953125
62895,0.359130,-2.292448,-10.623073,6.860192,1.290379,-0.018693,100648.890625
62905,2.871845,-3.859453,-6.888118,7.335366,1.137132,0.712958,100648.890625
62920,4.832696,-18.893843,-4.572925,8.350631,0.696013,1.382884,100648.890625
62930,-0.713472,-29.641415,-15.871163,9.231273,0.304380,1.077985,100648.890625
62940,0.081403,-29.011740,-10.036493,8.719383,0.438472,1.034884,100648.890625
62950,7.564480,-29.161377,-16.236279,8.345842,0.401224,1.261563,100648.843750
62960,11.252748,-23.275232,-24.088064,7.508834,-0.312867,1.530811,100648.843750
62970,10.333375,-17.433380,-23.080105,6.095550,-1.305252,1.678205,100648.843750
62985,2.319981,-5.841852,-19.549854,4.513588,-1.866096,1.421728,100648.843750
62995,-3.886986,-19.196709,-21.334732,3.171607,-1.932077,1.406297,100648.843750
63005,-2.797625,-19.039888,-41.303570,1.431076,-1.399968,1.354150,100648.960938
63020,0.554258,-5.292383,-15.099033,-1.279491,-0.177179,1.096609,100648.960938
63030,0.793678,2.275689,-8.186973,-2.222390,0.538508,0.707105,100648.960938
63040,0.726640,2.348712,-6.007052,-2.394793,0.835426,0.686352,100648.960938
63050,2.360683,-0.125696,-5.780800,-2.465564,0.733261,0.865141,100648.960938
63060,3.809175,-2.845509,-8.227674,-2.564536,0.403885,0.974224,100649.046875
63080,4.765658,-5.682638,-9.050082,-3.420169,-0.260720,0.886426,100649.046875
63095,4.507085,-5.112818,-7.138312,-4.255581,-0.758243,0.676242,100649.046875
63105,3.937265,-4.425682,-5.431247,-4.691911,-1.073252,0.459674,100649.046875
63115,3.066972,-4.134786,-4.769250,-4.840901,-1.228096,0.279288,100649.093750
63125,1.976413,-4.453215,-4.578911,-4.884002,-1.258958,0.116995,100649.093750
63135,1.301249,-6.460753,-5.908890,-4.907415,-1.125399,-0.009115,100649.093750
63145,1.149217,-7.030573,-6.084864,-5.002131,-0.860940,-0.125115,100649.093750
63155,1.148020,-7.669825,-6.458359,-5.090993,-0.576794,-0.252821,100649.093750
63175,0.858321,-9.095572,-7.338228,-5.232534,-0.286794,-0.406069,100649.093750
63185,1.770512,-10.287885,-7.224504,-5.378333,-0.145785,-0.447573,100649.093750
63195,2.340332,-11.380837,-8.423999,-5.472516,-0.098959,-0.479500,100649.093750
63205,2.676718,-11.687296,-7.866150,-5.612993,-0.092574,-0.523133,100649.093750
63215,2.853889,-11.411963,-7.357382,-5.670461,-0.141528,-0.595500,100649.093750
63225,2.212242,-11.111490,-7.317877,-5.598626,-0.151638,-0.726399,100649.101562
63240,1.885434,-11.131841,-7.253234,-5.347470,-0.027124,-0.853573,100649.101562
63250,1.583764,-11.892000,-7.999028,-4.963819,0.154325,-0.961591,100649.101562
63260,1.781286,-15.036784,-11.760319,-4.609434,0.347481,-1.029169,100649.101562
63270,2.238579,-19.764135,-15.283386,-4.551434,0.414527,-1.017463,100649.101562
63280,1.594538,-20.385431,-15.151706,-4.849947,0.324068,-0.950417,100649.265625
63295,0.429759,-20.920534,-14.250289,-5.271379,0.357059,-0.800894,100649.265625
63305,-0.214281,-21.762096,-13.266272,-5.474644,0.558729,-0.720546,100649.265625
63315,-0.300472,-21.388601,-11.133038,-5.646516,0.843939,-0.634344,100649.265625
63325,-0.715866,-19.531897,-7.914034,-5.716754,1.040288,-0.494931,100649.265625
63335,-1.596933,-17.948133,-5.307945,-5.554993,1.148306,-0.259207,100649.609375
63350,-3.013103,-17.160440,-3.563769,-4.944663,1.471829,0.126573,100649.609375
63360,-3.421314,-17.864336,-2.746149,-4.465232,1.807058,0.293655,100649.609375
63370,-3.833117,-20.136433,-0.393846,-4.058168,2.094397,0.306958,100649.609375
63380,-1.746570,-20.925323,4.347870,-3.701655,2.279039,0.362298,100649.609375
63390,-0.032322,-20.695480,8.785523,-3.262664,1.975737,0.497986,100649.625000
63400,-0.274136,-21.570560,14.057555,-2.744921,1.330288,0.540554,100649.625000
63415,-5.154716,-22.426487,19.839552,-1.527986,0.890765,0.241509,100649.625000
63425,-7.672219,-17.815254,21.601685,-0.352024,0.908325,0.354848,100649.625000
63435,3.701436,-13.048399,13.436260,1.233131,0.400160,1.091820,100649.625000
63445,15.889119,-14.615404,7.799112,2.702286,-1.470206,1.188664,100649.640625
63460,0.071826,10.912771,-12.944251,3.686157,-3.693361,1.310517,100649.640625
63470,2.112883,12.956223,-34.652477,4.835515,-2.684480,0.786389,100649.640625
63480,-7.308300,-18.078617,5.941212,4.215075,-3.410810,-0.014436,100649.640625
63490,-11.724405,-21.199459,4.614824,4.606175,-3.299599,0.298444,100649.640625
63500,-25.324669,-7.139510,-16.614563,5.380395,-1.089215,-0.585390,100649.609375
63510,-10.682928,-21.940464,-28.671762,5.069643,1.208434,-0.499720,100649.609375
63520,7.949947,-30.073568,-25.710135,3.679240,1.501627,0.326646,100649.609375
63530,17.253815,-20.591331,-9.525331,2.064819,0.128784,0.942829,100649.609375
63540,8.391677,-6.359000,-11.297041,1.374140,-1.236610,0.976884,100649.609375
63550,-13.704411,-6.788759,-13.971364,1.020287,-1.104115,0.395820,100649.609375
63565,0.386664,-6.843825,-10.111911,0.612159,-0.312335,0.400077,100649.617188
63585,-1.036689,-5.546168,-8.742428,0.202434,-0.366078,0.316004,100649.617188
63600,0.995988,-4.993108,-9.016563,0.167847,-0.200592,0.268114,100649.617188
63620,-0.763750,-5.509058,-8.898050,0.055040,-0.296372,0.295784,100649.742188
63633,-1.320402,-5.442020,-8.889671,0.047591,-0.118647,0.196811,100649.742188
63640,-1.365892,-4.704607,-8.488642,0.068875,0.009591,0.104224,100649.742188
63663,-0.307655,-4.886566,-8.675390,0.100802,0.144747,0.031857,100649.742188
63670,0.645237,-4.799177,-8.565256,0.117829,0.217114,-0.022418,100649.726562
63694,0.946907,-4.550180,-8.536526,0.097609,0.176142,-0.011776,100649.726562
63700,0.998382,-4.454412,-8.429984,0.049719,-0.021271,0.080279,100649.726562
63710,0.357933,-4.592079,-8.589199,0.020985,-0.106941,0.131894,100649.726562
63720,-0.123301,-4.776433,-8.706514,-0.010942,-0.154299,0.161160,100649.726562
63730,-0.593762,-4.789600,-8.829816,-0.030630,-0.163344,0.143600,100649.718750
63740,-0.454898,-5.184644,-8.899248,-0.040208,-0.114922,0.093050,100649.718750
63750,-0.168791,-4.812346,-8.683769,-0.048721,-0.026592,0.029729,100649.718750
63765,-0.041899,-5.072116,-8.524555,-0.029033,0.050032,-0.046895,100649.718750
63775,0.111330,-4.850653,-8.185776,-0.017327,0.053756,-0.061262,100649.718750
63790,0.404620,-4.757279,-8.388085,0.010343,0.051628,-0.050087,100649.757812
63800,0.112527,-4.650737,-8.322245,0.045994,0.003738,-0.018161,100649.757812
63820,0.043096,-4.638766,-8.340201,0.114636,-0.025528,0.002591,100649.757812
63830,0.175974,-4.633977,-8.674192,0.134324,-0.036702,0.053142,100649.757812
63840,-0.138864,-4.578911,-8.544906,0.158269,-0.096831,0.085068,100649.757812
63850,-0.010774,-4.744111,-8.447941,0.165187,-0.105344,0.112738,100649.796875
63865,-0.270545,-4.850653,-8.416816,0.203499,-0.079271,0.127637,100649.796875
63875,-0.149638,-4.680665,-8.441956,0.241811,-0.072886,0.123380,100649.796875
63885,-0.204704,-4.650737,-8.276755,0.285444,-0.047877,0.120720,100649.796875
63895,-0.341174,-4.523844,-8.451532,0.348233,-0.020207,0.119123,100649.796875
63910,-0.229843,-4.802769,-8.389283,0.411022,-0.003711,0.126573,100649.734375
63920,-0.093374,-5.104438,-8.512584,0.472746,0.004270,0.135087,100649.734375
63930,-0.172383,-4.881777,-8.451532,0.515847,-0.007968,0.118059,100649.734375
63940,-0.541090,-5.039794,-8.469488,0.565865,0.007463,0.094646,100649.734375
63950,-0.356736,-5.098453,-8.455123,0.629719,0.053756,0.068573,100649.734375
63960,-0.280122,-4.862624,-8.414422,0.694104,0.106967,0.044096,100649.671875
63970,-0.240617,-5.160702,-8.197746,0.776049,0.157518,0.015362,100649.671875
63980,-0.161609,-4.987122,-8.347384,0.876085,0.194765,-0.019225,100649.671875
63990,-0.432153,-5.082890,-8.259995,1.008581,0.187848,-0.060198,100649.671875
64000,-0.594959,-5.300763,-8.188169,1.149590,0.198490,-0.118198,100649.671875
64015,-0.512359,-5.299565,-7.990648,1.400214,0.273518,-0.209188,100649.750000
64025,-0.457293,-5.159505,-8.177396,1.606672,0.338967,-0.307096,100649.750000
64035,-0.319626,-5.268441,-8.127118,1.839736,0.394307,-0.397023,100649.750000
64045,-0.354342,-5.115212,-7.914034,2.117497,0.462949,-0.502913,100649.750000
64055,-0.203507,-5.183447,-8.038532,2.427717,0.584802,-0.615188,100649.750000
64065,0.003591,-5.282806,-7.951144,2.765075,0.721554,-0.714693,100649.687500
64080,-0.027533,-5.196615,-7.709330,3.222689,0.823187,-0.793445,100649.687500
64090,-0.004788,-5.202600,-7.349002,3.769166,0.948765,-0.865812,100649.687500
64100,0.146046,-4.702212,-7.839813,4.312983,1.115847,-0.931261,100649.687500
64110,-1.482011,-4.240131,-8.396465,4.858395,1.293040,-0.878050,100649.687500
64120,-1.040281,-3.664326,-6.111200,5.394762,1.429260,-0.675849,100649.640625
64130,1.531092,-3.451242,-6.144719,6.194523,1.646893,-0.540693,100649.640625
64140,4.203021,-2.505532,-8.711303,7.210852,1.849627,-0.372546,100649.640625
64150,-3.220201,-3.632004,-13.709199,7.857898,1.696911,0.064316,100649.640625
64160,9.082404,-15.395914,2.985569,8.438961,1.591554,0.728921,100649.640625
64175,1.990779,-30.040049,-14.374787,9.889492,0.896086,0.426151,100649.468750
64185,0.696713,-32.392353,-14.425065,9.271713,0.440600,0.831618,100649.468750
64195,3.724181,-31.689653,-9.253590,8.499621,-0.048409,1.306260,100649.468750
64205,11.493365,-25.042152,-24.449587,7.876522,-0.760372,1.495159,100649.468750
64215,11.219229,-17.774553,-26.376921,6.317972,-1.759142,1.501544,100649.468750
64225,3.263297,-7.647080,-19.953278,4.715258,-2.525912,1.392462,100649.468750
64245,-15.290569,-14.840459,-26.922798,2.917791,-1.842151,1.555288,100649.320312
64255,-2.129642,-16.704346,-34.750641,0.598324,-0.172390,2.229471,100649.320312
64265,0.165200,-5.043386,-11.613075,-1.625363,1.047737,2.172003,100649.320312
64275,2.321178,-0.450110,-9.065644,-2.236224,1.507480,1.944792,100649.320312
64290,4.801571,0.011971,-5.839458,-2.595931,1.596875,1.781434,100649.523438
64300,6.305130,-0.622492,-3.323152,-2.750242,1.144049,1.582425,100649.523438
64310,7.370550,-0.934936,-4.881777,-2.693307,0.530527,1.358407,100649.523438
64320,7.914034,-2.315193,-5.905299,-2.818885,-0.159620,1.103526,100649.523438
64330,6.297947,-4.297592,-7.372944,-3.054077,-0.814115,0.782132,100649.523438
64340,4.745308,-6.279991,-9.780313,-3.402077,-1.266408,0.471380,100649.757812
64350,3.884592,-7.268796,-10.178948,-3.916627,-1.451050,0.173399,100649.757812
64365,2.647987,-7.029376,-8.887277,-4.712131,-1.403692,-0.243775,100649.757812
64375,1.667562,-6.496666,-7.199365,-5.104828,-1.268004,-0.471518,100649.757812
64385,0.175974,-5.810728,-6.074090,-5.343213,-1.086555,-0.653500,100649.757812
64395,-0.864307,-6.029797,-6.252458,-5.418773,-0.793894,-0.729060,100649.710938
64410,-1.593341,-7.516596,-7.389704,-5.475708,-0.319253,-0.669463,100649.710938
64420,-0.957681,-8.737639,-7.734468,-5.579470,-0.104280,-0.533243,100649.710938
64430,-0.781707,-8.996213,-8.155849,-5.738571,-0.048409,-0.344876,100649.710938
64440,-1.179144,-11.010934,-9.640253,-5.875323,0.071848,-0.147464,100649.710938
64450,-0.541090,-11.469423,-9.503783,-6.090827,0.257022,0.011105,100649.679688
64465,-0.757765,-10.903194,-7.806294,-6.242479,0.528398,0.038243,100649.679688
64475,-0.231040,-10.164583,-6.734890,-6.104662,0.852453,-0.047427,100649.679688
64485,1.292869,-11.281479,-6.362591,-5.760387,1.073811,-0.161298,100649.679688
64495,0.732626,-12.389994,-8.874108,-5.302773,1.199389,-0.419904,100649.679688
64505,0.459687,-15.033193,-13.354857,-4.994681,1.237168,-0.596564,100650.031250
64520,-0.451307,-21.369448,-18.819622,-5.164424,1.100416,-0.600821,100650.031250
64530,-1.165976,-22.425291,-17.353174,-5.627892,1.029646,-0.571023,100650.031250
64540,-2.175132,-22.770056,-14.773421,-6.017928,1.141921,-0.579005,100650.031250
64550,-2.315193,-22.669498,-11.334151,-6.199378,1.442031,-0.621041,100650.031250
64560,-1.837550,-22.709003,-8.261193,-6.144570,1.736820,-0.659885,100650.210938
64575,0.063446,-22.069752,-4.175488,-5.745488,1.850691,-0.581133,100650.210938
64585,1.254562,-22.558168,-1.787272,-5.338424,1.599535,-0.372546,100650.210938
64595,1.322796,-22.106861,0.588974,-4.835048,1.269627,-0.185775,100650.210938
64605,0.094571,-21.145590,3.298013,-4.261966,1.004637,-0.128840,100650.210938
64615,-0.981623,-21.301212,6.353014,-3.621306,0.935462,-0.240051,100650.156250
64630,-0.930147,-24.023420,11.615470,-2.605509,1.195664,-0.605610,100650.156250
64640,-0.532710,-25.155878,14.664485,-1.922280,1.222801,-0.770032,100650.156250
64650,-1.225831,-23.928848,17.905037,-1.215106,0.974306,-0.785995,100650.156250
64660,1.881842,-15.073894,16.536751,-0.009877,0.672068,-0.712564,100650.156250
64670,-0.565032,-21.981165,17.215508,1.246966,-0.556573,-0.636472,100650.085938
64680,-0.073023,-4.423288,18.418594,1.923810,-1.570775,0.090922,100650.085938
64690,-6.977901,24.395718,12.352883,4.621074,-1.533527,0.882169,100650.085938
64705,8.230068,-20.203470,-25.356991,5.727330,-1.415399,1.236022,100650.085938
64715,-4.180276,-22.565351,19.261353,4.070873,-2.960113,1.065747,100650.085938
64725,-7.776367,-9.349358,-21.207838,5.217037,-2.268371,0.688481,100650.015625
64740,-5.374983,-30.467413,-30.181307,4.000102,0.560857,0.128169,100650.015625
64755,8.514978,-11.335348,-8.783129,1.525791,-1.149876,1.247196,100650.015625
64765,1.760935,-5.673061,-12.652159,1.317737,-1.464885,0.775215,100650.015625
64775,-9.745598,-9.678560,-14.871584,1.074030,-0.487399,0.209050,100650.015625
64795,3.019088,-6.088455,-9.970653,0.591407,0.249573,0.076023,100650.484375
64805,1.254562,-5.474342,-9.551667,0.466893,0.232545,-0.042106,100650.484375
64815,0.896629,-4.790798,-8.895657,0.372177,0.066527,-0.017629,100650.484375
64830,1.309628,-4.278439,-8.425196,0.321095,0.064931,-0.002730,100650.484375
64850,0.171185,-4.669890,-8.722076,0.280655,-0.061179,0.084004,100650.453125
64860,-0.197522,-4.588488,-8.920795,0.274801,-0.038831,0.084004,100650.453125
64870,-0.873884,-4.747702,-9.151836,0.273737,0.043646,0.056334,100650.453125
64880,-0.075417,-4.485537,-8.792706,0.264159,0.111224,0.038775,100650.453125
64890,0.053870,-4.924873,-9.726444,0.273737,0.159114,0.023344,100650.492188
64900,1.771709,-3.799598,-7.879318,0.274269,0.122399,0.049417,100650.492188
64910,1.837550,-4.414908,-9.006987,0.268948,-0.037766,0.119656,100650.492188
64920,0.873884,-4.993108,-8.811859,0.250856,-0.161216,0.186169,100650.492188
64930,1.023521,-4.374207,-8.301894,0.235957,-0.253803,0.216499,100650.492188
64940,0.797269,-4.959589,-8.753201,0.223187,-0.274555,0.229270,100650.492188
64950,0.210690,-5.189432,-8.924387,0.188068,-0.293179,0.233527,100650.335938
64970,0.258574,-4.776433,-8.707711,0.133260,-0.230922,0.198940,100650.335938
64980,0.517148,-5.130774,-9.082404,0.101866,-0.173454,0.174995,100650.335938
64990,0.468066,-5.094861,-8.582016,0.071003,-0.199528,0.185637,100650.335938
65000,0.445322,-5.045780,-8.570045,0.042802,-0.226665,0.182444,100650.406250
65010,0.119710,-5.129577,-8.783129,0.028435,-0.229326,0.182444,100650.406250
65020,-0.010774,-5.021838,-8.772355,0.020985,-0.238372,0.180848,100650.406250
65030,0.067038,-4.815937,-8.656237,0.018325,-0.225601,0.184573,100650.406250
65040,0.245406,-4.976348,-8.550891,0.032159,-0.210702,0.190426,100650.406250
65050,0.203507,-4.885368,-8.441956,0.057701,-0.203785,0.177655,100650.406250
65060,-0.082600,-4.958392,-8.556877,0.080049,-0.204317,0.171802,100650.406250
65070,-0.164003,-4.456807,-8.389283,0.116765,-0.184629,0.164353,100650.546875
65090,0.003591,-4.882974,-8.542512,0.208288,-0.135143,0.169142,100650.546875
65100,-0.343568,-4.820725,-8.348581,0.266820,-0.125565,0.170206,100650.546875
65115,-0.226252,-4.855441,-8.494628,0.350893,-0.052666,0.137747,100650.546875
65125,-0.299275,-5.136760,-8.431181,0.432838,-0.017546,0.097307,100650.484375
65135,-0.393846,-4.875792,-8.391677,0.489774,0.024490,0.070169,100650.484375
65145,-0.134075,-4.871003,-8.352173,0.558416,0.101114,0.035582,100650.484375
65155,-0.227449,-4.782418,-8.483853,0.632911,0.128784,-0.000601,100650.484375
65170,-0.214281,-5.018247,-8.481460,0.740930,0.129848,-0.030399,100650.484375
65180,-0.187945,-5.103241,-8.370130,0.870764,0.190509,-0.052216,100650.484375
65190,-0.246603,-4.988319,-8.359355,0.983572,0.250637,-0.080950,100650.437500
65200,0.005986,-5.045780,-8.115147,1.107553,0.287885,-0.111812,100650.437500
65210,-0.245406,-5.171476,-8.401254,1.226214,0.259151,-0.139482,100650.437500
65230,-0.174777,-5.060145,-8.097190,1.458746,0.304380,-0.202803,100650.437500
65243,0.146046,-5.315128,-8.045714,1.740764,0.378875,-0.286876,100650.390625
65250,-0.016759,-5.257667,-7.888895,1.966910,0.386325,-0.354454,100650.390625
65265,0.020351,-5.418078,-7.782352,2.367057,0.481041,-0.475775,100650.390625
65285,-0.038307,-5.604826,-7.588422,2.806580,0.619921,-0.611463,100650.390625
65300,0.173580,-5.572505,-7.559692,3.399350,0.837022,-0.748215,100650.570312
65310,0.011971,-4.951209,-7.396886,3.934120,1.030178,-0.802491,100650.570312
65325,-0.033519,-3.816358,-8.054094,4.768468,1.238233,-0.769500,100650.570312
65335,1.353921,-4.083311,-6.685808,5.483092,1.378178,-0.678509,100650.570312
65345,2.294842,-4.238934,-7.060501,6.391403,1.619755,-0.618913,100650.570312
65355,-0.688333,-1.881842,-13.725958,7.300247,1.795884,-0.467262,100650.523438
65365,0.875081,-2.462436,-5.066131,7.688687,1.692654,0.559710,100650.523438
65375,15.078682,-20.095732,2.381034,8.613493,1.281334,1.438223,100650.523438
65385,0.532710,-25.550920,-16.045940,9.885236,0.918967,0.737967,100650.523438
65405,1.960851,-30.597898,-11.196485,9.129640,0.608747,1.090756,100650.398438
65415,10.475829,-27.346571,-16.436195,8.561878,-0.073950,1.689911,100650.398438
65425,13.985729,-22.851458,-30.467413,7.701990,-1.315894,1.970333,100650.398438
65435,9.382876,-14.308947,-23.066936,5.973697,-2.465251,1.894774,100650.398438
65455,-7.862558,-16.737864,-28.797459,3.996909,-2.713214,1.626058,100650.398438
65465,-2.576161,-21.691467,-44.857761,1.407131,-1.589399,1.627122,100650.179688
65480,0.509965,-5.372589,-13.961787,-1.532775,0.044178,1.106719,100650.179688
65490,1.333570,0.750582,-9.879673,-2.379362,0.873738,0.644316,100650.179688
65500,2.292448,1.486799,-5.560534,-2.740133,1.004637,0.654426,100650.179688
65510,3.160346,0.399832,-3.475184,-2.821545,0.751884,0.725196,100650.179688
65520,4.264073,-1.985990,-7.753622,-2.740664,0.378875,0.731050,100649.968750
65530,5.050569,-4.377798,-8.598776,-3.064719,0.061206,0.632609,100649.968750
65545,5.293580,-4.709395,-7.824251,-3.846921,-0.496445,0.409123,100649.968750
65555,4.805163,-4.282030,-7.098808,-4.297617,-0.882225,0.281949,100649.968750
65565,4.347870,-4.131195,-6.275203,-4.623269,-1.158390,0.146793,100649.968750
65575,3.706224,-4.997896,-6.415264,-4.826003,-1.298335,-0.047427,100650.132812
65585,2.834735,-6.508637,-6.726510,-5.015965,-1.321215,-0.268785,100650.132812
65595,1.288081,-6.792350,-6.968324,-5.246902,-1.282371,-0.457684,100650.132812
65605,0.090980,-6.849811,-6.792350,-5.456020,-1.121674,-0.536436,100650.132812
65615,-0.726640,-7.584831,-7.143101,-5.599690,-0.860408,-0.539096,100650.132812
65625,-1.185130,-8.416816,-7.495049,-5.718350,-0.556573,-0.501317,100650.265625
65640,-1.259350,-9.508572,-7.923611,-5.898736,-0.106941,-0.395959,100650.265625
65650,-0.775721,-11.042058,-8.845378,-6.004626,0.168692,-0.314546,100650.265625
65670,0.751779,-13.192051,-9.612720,-6.394662,0.372490,-0.154381,100650.265625
65680,0.592565,-14.082694,-11.019313,-6.524497,0.398031,-0.144271,100650.367188
65690,0.094571,-15.582662,-11.851298,-6.669230,0.451774,-0.169812,100650.367188
65700,-0.300472,-17.143681,-12.251130,-6.788955,0.605022,-0.244308,100650.367188
65720,0.476446,-19.625271,-12.374432,-6.875157,1.079132,-0.403940,100650.367188
65735,0.950498,-20.706253,-11.786655,-6.781506,1.239829,-0.544950,100650.453125
65745,0.310049,-21.667526,-11.799823,-6.619212,1.199921,-0.613060,100650.453125
65755,-0.579397,-22.999899,-11.093534,-6.438295,1.173847,-0.547610,100650.453125
65765,-1.604115,-24.095245,-10.144233,-6.201506,1.131811,-0.340619,100650.453125
65775,-1.467646,-23.586477,-7.196970,-5.964717,1.279737,-0.060198,100650.453125
65785,-0.754174,-23.654713,-3.258508,-5.666204,1.479810,0.259600,100650.453125
65795,-0.496797,-23.651121,0.055067,-5.221360,1.624012,0.542683,100650.664062
65810,-0.226252,-20.374657,4.759673,-4.291764,1.885278,0.755527,100650.664062
65825,-0.323217,-21.824347,10.193314,-3.428150,2.097058,0.372940,100650.664062
65835,1.120486,-24.471136,16.837223,-2.408628,2.130049,-0.193757,100650.664062
65845,0.878672,-25.600002,16.814478,-1.386445,1.446820,-0.273041,100650.640625
65859,-1.164779,-24.079683,14.914680,-0.378629,0.415591,0.110078,100650.640625
65869,-0.399832,-12.251130,12.416330,0.631847,0.144215,0.360169,100650.640625
65879,11.547235,-11.474212,14.422671,2.048855,-0.807729,0.353784,100650.640625
65889,0.524330,1.619677,3.782839,3.232800,-3.076645,0.355380,100650.640625
65900,-1.498770,29.386431,-44.455536,4.590744,-2.579123,1.206756,100650.507812
65910,1.895011,-6.364985,-9.526528,4.566799,-2.275288,0.927930,100650.507812
65920,-12.005724,-25.044546,14.651318,4.180487,-4.365947,0.863545,100650.507812
65939,-12.403162,-22.092497,-18.862719,5.297918,-0.464519,0.355912,100650.507812
65949,8.299500,-32.956188,-20.415358,3.949551,2.326397,-0.223555,100650.507812
65960,16.865953,-23.900118,-15.229517,2.543717,0.531591,0.514481,100650.109375
65970,5.702989,-8.196549,-13.177686,1.709369,-1.588866,0.786389,100650.109375
65980,-11.666945,-4.991910,-10.393229,1.284746,-1.562261,0.393160,100650.109375
65990,-5.521029,-6.799533,-12.218808,1.075094,-0.608188,0.389435,100650.109375
66000,2.758120,-6.736086,-11.032481,0.917590,0.149536,0.187233,100650.109375
66010,0.957681,-7.070077,-10.757148,0.728691,0.093665,0.051013,100649.757812
66029,-0.266953,-5.269638,-9.605537,0.477003,-0.040427,0.052078,100649.757812
66039,1.576582,-4.687847,-8.477868,0.413682,0.066527,0.023344,100649.757812
66049,1.004368,-4.763264,-8.845378,0.378031,0.043646,0.023876,100649.757812
66059,-0.274136,-5.045780,-9.606734,0.353022,0.018637,0.003656,100649.757812
66069,-0.754174,-5.336676,-9.385271,0.317370,0.081426,-0.033060,100649.976562
66079,-0.803255,-4.850653,-9.065644,0.293957,0.222967,-0.093720,100649.976562
66089,0.125696,-4.337096,-8.668207,0.299278,0.343224,-0.115537,100649.976562
66099,1.194707,-4.241328,-8.488642,0.305664,0.365573,-0.111280,100649.976562
66109,1.411382,-3.843891,-8.186973,0.300875,0.261811,-0.052748,100649.976562
66119,2.188300,-3.787627,-7.948750,0.306728,0.084619,0.073894,100649.976562
66129,1.868674,-3.963601,-7.966706,0.323756,-0.068097,0.159564,100650.109375
66139,1.821988,-4.461595,-8.256405,0.351957,-0.182500,0.206922,100650.109375
66149,0.361524,-4.689044,-8.603564,0.358343,-0.258592,0.219692,100650.109375
66159,-0.164003,-4.944026,-8.862138,0.349829,-0.276684,0.228206,100650.109375
66169,0.213084,-5.131971,-8.707711,0.335994,-0.194207,0.199472,100650.109375
66180,0.768539,-5.117606,-8.670602,0.317902,-0.141528,0.181912,100650.070312
66190,0.539892,-5.100847,-8.639477,0.297682,-0.160152,0.178720,100650.070312
66209,0.670376,-5.018247,-8.566454,0.270012,-0.177711,0.183509,100650.070312
66224,0.342371,-5.183447,-8.635885,0.246600,-0.202188,0.202133,100650.070312
66234,0.341174,-5.287594,-8.583213,0.219994,-0.209638,0.217032,100650.031250
66244,0.166397,-5.446809,-8.711303,0.198178,-0.211766,0.220756,100650.031250
66254,0.392649,-5.035006,-8.304289,0.184875,-0.181436,0.212243,100650.031250
66264,0.465672,-5.178658,-8.361750,0.183279,-0.173454,0.213839,100650.031250
66279,0.174777,-4.853047,-8.508993,0.203499,-0.160152,0.209582,100650.031250
66289,0.232238,-5.169082,-8.380903,0.237022,-0.160152,0.213839,100650.296875
66309,-0.178368,-5.033809,-8.433576,0.304600,-0.106941,0.197876,100650.296875
66324,0.017957,-5.305551,-8.398860,0.371645,-0.048409,0.171802,100650.296875
66334,0.003591,-5.293580,-8.337808,0.464765,0.033004,0.131894,100650.296875
66345,-0.153229,-5.067328,-8.287529,0.531278,0.057481,0.092518,100650.429688
66355,-0.234632,-5.398925,-8.254010,0.610031,0.084087,0.056867,100650.429688
66374,-0.155623,-5.378574,-8.194156,0.744122,0.196894,-0.014436,100650.429688
66384,0.237026,-5.517438,-8.177396,0.863315,0.252765,-0.076161,100650.429688
66394,0.355539,-5.301960,-8.100781,0.963351,0.257554,-0.127776,100650.429688
66404,0.095768,-5.140351,-8.067263,1.075627,0.228820,-0.176198,100650.320312
66414,-0.061052,-5.300763,-8.133103,1.228874,0.267664,-0.219831,100650.320312
66424,-0.079009,-5.289989,-8.036138,1.397021,0.349609,-0.262931,100650.320312
66434,0.181959,-5.202600,-7.862558,1.593902,0.413995,-0.314014,100650.320312
66444,0.403423,-5.185841,-7.882909,1.825901,0.468270,-0.377335,100650.320312
66454,0.403423,-5.513846,-7.647080,2.065351,0.499664,-0.427353,100650.328125
66464,0.355539,-5.455189,-7.765593,2.320763,0.522545,-0.464601,100650.328125
66479,0.435745,-5.493496,-7.808689,2.695901,0.615664,-0.518876,100650.328125
66489,0.423774,-5.704185,-7.517793,3.073699,0.670472,-0.552399,100650.328125
66499,-0.051475,-5.781997,-7.457938,3.402010,0.708251,-0.576876,100650.328125
66509,-1.351527,-4.905719,-7.657854,3.789386,0.873205,-0.599757,100650.335938
66519,-1.403002,-4.716578,-8.664616,4.281588,1.087113,-0.535904,100650.335938
66539,0.179565,-4.102465,-6.301539,5.416046,1.352636,-0.135225,100650.335938
66553,3.488352,-2.991555,-8.068460,6.550504,1.531425,0.194683,100650.335938
66564,6.648698,-6.186617,-3.728969,7.950485,1.542599,0.631013,100650.414062
66574,3.598485,-13.882778,-4.794389,9.063126,1.179168,0.843857,100650.414062
66584,3.876213,-26.218903,-10.761936,9.911841,0.659297,0.974224,100650.414062
66599,1.722628,-32.069134,-13.646950,9.703254,0.594912,1.043930,100650.414062
66609,4.214992,-33.880348,-11.687296,8.995016,0.285756,1.334462,100650.414062
66619,10.796653,-26.081236,-27.776331,8.647548,-0.297968,1.542517,100650.312500
66653,8.631097,-13.777433,-24.316710,5.778945,-1.505857,1.514315,100650.312500
66669,1.634043,-16.589424,-33.239899,-0.199308,-1.008335,1.052976,100650.312500
66694,1.119289,0.055067,-9.645041,-2.823142,-0.138867,0.694866,100650.343750
66714,0.203507,0.553061,-6.957550,-3.269050,-0.081399,0.927398,100650.343750
66724,1.669956,-2.140416,-7.788338,-3.553728,-0.359161,1.373838,100650.343750
66750,2.063802,-4.262876,-7.672219,-4.292829,-0.464519,1.522297,100650.312500
66759,2.803610,-4.933253,-7.444770,-4.841434,-0.354372,1.444077,100650.312500
66792,4.294001,-6.064513,-6.551733,-5.278828,-0.241565,1.105655,100650.562500
66809,4.642357,-9.258378,-7.061698,-5.743892,-0.428867,0.240977,100650.562500
66835,1.740585,-9.668983,-6.926425,-6.061029,-0.146849,-0.552399,100650.562500
66851,1.586159,-10.842142,-7.887698,-6.124350,0.030876,-0.740766,100650.882812
66860,1.696292,-12.750321,-8.639477,-6.211084,0.175077,-0.831225,100650.882812
66870,1.373075,-13.138182,-10.050858,-6.248332,0.293206,-0.985536,100650.882812
66884,1.229423,-12.763490,-9.482236,-6.344644,0.420380,-1.040344,100650.882812
66894,0.574608,-13.620613,-10.218452,-6.249396,0.523077,-1.077059,100651.093750
66904,0.216675,-15.168465,-11.452663,-6.079121,0.710912,-1.120160,100651.093750
66914,0.171185,-17.634493,-13.090298,-5.912570,0.926949,-1.190931,100651.093750
66924,0.235829,-21.215021,-16.421829,-5.832754,1.071682,-1.265426,100651.093750
66939,-1.740585,-24.978706,-16.432604,-6.142442,1.048270,-1.309591,100651.093750
66949,-2.600103,-25.066095,-13.578715,-6.329213,1.202049,-1.301078,100651.312500
66959,-2.318784,-25.019407,-10.060435,-6.307396,1.518122,-1.267555,100651.312500
66969,-1.900996,-25.759216,-7.334637,-6.104130,1.761297,-1.130803,100651.312500
66979,-1.022324,-26.008213,-3.806781,-5.835947,1.854416,-0.728527,100651.312500
66994,-3.657143,-24.583664,1.301249,-5.275635,1.683076,0.248426,100651.312500
67004,-5.264850,-22.319946,4.771644,-4.732351,1.961902,0.725729,100651.515625
67014,-5.990293,-24.402901,10.013748,-4.095416,2.741975,0.528316,100651.515625
67024,-5.163096,-26.339809,17.421410,-3.284481,3.703497,-0.025078,100651.515625
67034,-0.606930,-28.119900,21.425711,-2.277729,3.465644,-0.033592,100651.515625
67049,1.872266,-25.449167,23.758860,-0.908079,1.025389,0.844921,100651.515625
67059,3.675100,-16.182409,21.856667,0.356746,-0.007436,1.280719,100651.539062
67069,13.001713,-8.573636,11.829751,2.098341,-1.200958,1.090756,100651.539062
67079,7.863756,-1.713051,-4.662708,3.320065,-3.494884,0.751802,100651.539062
67089,2.303222,27.308264,-38.140831,4.055974,-3.345361,1.066811,100651.539062
67099,4.952406,1.429338,-10.411186,4.464634,-3.301728,0.625692,100651.539062
67119,-20.190304,-17.833212,6.691794,4.948322,-3.587471,0.033986,100651.507812
67129,-34.238281,-20.489578,-53.389500,5.607073,0.276178,-0.435335,100651.507812
67139,10.049662,-33.632549,-19.426552,3.781405,1.949663,0.381986,100651.507812
67159,11.395203,-13.666103,-12.319365,1.819516,-0.599142,0.653362,100651.507812
67169,-12.671312,-5.736507,-12.306197,1.205461,-1.307380,0.214903,100651.546875
67179,-4.329914,-6.264429,-10.784681,0.970269,-0.469840,0.296316,100651.546875
67189,4.328717,-5.966351,-9.915586,0.851608,0.250105,0.120188,100651.546875
67204,-0.871489,-5.652710,-10.231621,0.590343,-0.153234,0.152114,100651.546875
67214,0.624887,-5.135562,-8.959103,0.486581,-0.229326,0.219160,100651.546875
67224,1.225831,-4.073734,-8.414422,0.462104,-0.104812,0.188830,100651.468750
67234,1.097741,-4.507085,-8.434772,0.423792,-0.212831,0.244701,100651.468750
67249,-0.741005,-4.793192,-9.483433,0.376966,-0.272427,0.285142,100651.468750
67264,-0.250194,-4.821922,-9.212888,0.326416,-0.165473,0.262261,100651.468750
67274,0.232238,-4.610035,-9.230844,0.305132,-0.078739,0.242041,100651.468750
67290,0.689530,-4.340688,-8.676587,0.297682,-0.075546,0.248426,100651.546875
67304,1.881842,-4.717774,-8.549694,0.276930,-0.197932,0.292059,100651.546875
67314,1.935712,-5.316325,-8.829816,0.235957,-0.320317,0.336224,100651.546875
67324,1.228225,-4.583699,-8.574833,0.189132,-0.419821,0.371876,100651.546875
67334,0.532710,-4.770447,-8.753201,0.154545,-0.462390,0.393692,100651.531250
67349,-0.268151,-5.035006,-8.881291,0.104526,-0.463454,0.393692,100651.531250
67374,-0.019154,-5.074511,-8.884883,0.066214,-0.319785,0.315472,100651.531250
67389,0.403423,-4.830302,-8.877700,0.018325,-0.196867,0.229802,100651.562500
67399,0.486023,-5.015852,-8.846576,-0.004556,-0.213895,0.226610,100651.562500
67409,-0.158017,-5.143942,-8.656237,-0.030630,-0.265509,0.219692,100651.562500
67419,-0.233435,-4.952406,-8.566454,-0.033822,-0.259656,0.199472,100651.562500
67429,-0.062249,-4.734534,-8.315063,-0.018391,-0.216555,0.177123,100651.562500
67439,-0.189142,-4.583699,-8.390480,0.006086,-0.191014,0.161160,100651.562500
67449,-0.123301,-4.469975,-8.455123,0.052912,-0.170794,0.145197,100651.523438
67459,0.061052,-4.656722,-8.532935,0.099737,-0.144188,0.136151,100651.523438
67469,-0.075417,-4.762067,-8.591593,0.141242,-0.144188,0.136683,100651.523438
67479,-0.313640,-4.711789,-8.421604,0.169976,-0.167601,0.146793,100651.523438
67489,-0.243011,-4.478354,-8.530540,0.216269,-0.136207,0.139876,100651.523438
67499,-0.292093,-4.450821,-8.546103,0.260434,-0.112794,0.146793,100651.492188
67509,-0.328006,-4.675876,-8.535329,0.314710,-0.109601,0.148922,100651.492188
67519,-0.529119,-4.841076,-8.523358,0.366856,-0.093638,0.147325,100651.492188
67529,-0.389058,-4.367024,-8.568848,0.429645,-0.061711,0.134022,100651.492188
67539,-0.391452,-4.975151,-8.469488,0.511590,-0.051069,0.122316,100651.492188
67549,-0.714669,-4.947618,-8.467094,0.600453,-0.012225,0.069105,100651.492188
67559,-0.492008,-5.044583,-8.524555,0.676544,0.069188,0.017490,100651.539062
67569,-0.373495,-4.692636,-8.447941,0.750508,0.111756,-0.031996,100651.539062
67579,-0.560243,-4.648343,-8.445546,0.869168,0.087811,-0.049555,100651.539062
67589,-0.320823,-4.966772,-8.359355,0.991553,0.103243,-0.067115,100651.539062
67599,-0.392649,-4.648343,-8.343793,1.128838,0.170821,-0.093188,100651.539062
67609,-0.205901,-4.936844,-8.143877,1.307094,0.167628,-0.096381,100651.554688
67619,-0.355539,-4.842273,-8.165425,1.503443,0.143683,-0.104895,100651.554688
67629,-0.466869,-4.982334,-8.090008,1.723736,0.141022,-0.144803,100651.554688
67639,-0.342371,-5.349844,-7.791929,1.966910,0.156454,-0.207060,100651.554688
67649,-0.351948,-5.141548,-7.886500,2.218066,0.190509,-0.292730,100651.554688
67659,-0.323217,-5.276821,-7.758410,2.495296,0.228820,-0.385317,100651.554688
67669,-0.243011,-5.007473,-7.814674,2.813497,0.299059,-0.481629,100651.500000
67679,-0.300472,-5.219360,-7.791929,3.187570,0.399628,-0.546546,100651.500000
67689,-0.155623,-5.171476,-7.848193,3.601019,0.522545,-0.573684,100651.500000
67699,-0.168791,-4.981137,-8.018182,4.070873,0.651316,-0.573684,100651.500000
67709,-0.061052,-4.622006,-7.814674,4.645551,0.738582,-0.530050,100651.500000
67724,-1.679533,-3.857059,-7.211336,5.485753,0.901939,-0.315078,100651.320312
67734,-1.132457,-3.137601,-6.200983,6.541458,1.247279,0.000463,100651.320312
67744,2.463634,-1.159991,-10.382456,7.627494,1.593150,0.362298,100651.320312
67754,3.134010,-3.742137,-10.906786,8.288906,1.484067,1.042334,100651.320312
67764,4.110844,-10.193314,-4.531027,8.731090,0.835958,1.633508,100651.320312
67774,2.840720,-21.691467,-4.127604,9.590446,0.296931,1.587746,100651.320312
67784,-0.676362,-34.622551,-9.154230,10.040611,0.200087,1.378627,100651.328125
67794,-0.421380,-34.814087,-11.870452,9.668135,0.232013,1.258370,100651.328125
67804,5.313931,-30.910341,-15.830462,9.414850,0.529995,1.049783,100651.328125
67814,10.545261,-24.814703,-35.160049,8.394264,0.134105,1.119490,100651.328125
67824,10.703279,-14.895526,-23.699005,6.200908,-0.453876,1.328077,100651.328125
67834,6.461950,-8.125920,-20.869059,4.889790,-0.997160,1.448334,100651.398438
67844,2.691083,-22.776041,-24.352623,3.145001,-1.948573,1.480260,100651.398438
67854,1.669956,-19.898211,-42.340260,1.072434,-1.809160,0.883233,100651.398438
67864,1.309628,-8.799889,-19.112911,-1.464665,-0.711417,0.399013,100651.398438
67874,2.717419,-0.896629,-10.075998,-2.512922,-0.298500,0.100500,100651.398438
67884,1.635240,1.953669,-8.426393,-2.778444,0.016509,-0.152253,100651.398438
67899,0.581791,-0.653617,-6.800730,-3.004059,0.288417,-0.238986,100651.421875
67909,2.364274,-3.189077,-8.413225,-3.166884,0.394839,-0.262399,100651.421875
67919,3.380613,-4.995502,-8.595184,-3.548407,0.372490,-0.361372,100651.421875
67929,3.999514,-6.065710,-8.230068,-4.078388,0.101114,-0.439592,100651.421875
67939,4.104859,-5.695806,-7.054515,-4.633911,-0.352243,-0.460344,100651.421875
67949,3.708618,-4.327519,-5.002685,-5.058535,-0.878500,-0.432674,100651.289062
67959,2.571373,-3.894169,-3.785233,-5.251158,-1.346224,-0.419372,100651.289062
67969,0.776918,-4.684256,-4.733337,-5.257544,-1.628243,-0.444913,100651.289062
67979,-0.598550,-5.979519,-6.107608,-5.277232,-1.636756,-0.470454,100651.289062
67989,-1.401805,-6.986280,-6.868965,-5.389507,-1.401564,-0.489610,100651.289062
68004,-1.844732,-8.370130,-7.885303,-5.564571,-0.882757,-0.522601,100651.156250
68014,-1.429338,-9.673772,-8.376115,-5.791782,-0.317124,-0.551867,100651.156250
68024,-0.593762,-10.056845,-7.963115,-5.982277,0.020233,-0.540693,100651.156250
68034,0.770933,-10.967838,-8.058883,-6.103598,0.188912,-0.516748,100651.156250
68049,1.677138,-12.392388,-8.893262,-6.245671,0.169756,-0.485353,100651.156250
68069,1.406593,-13.000515,-9.334992,-6.393066,0.136233,-0.501317,100651.382812
68079,1.171962,-13.358448,-9.410410,-6.380295,0.245848,-0.530050,100651.382812
68104,2.018312,-18.122910,-13.160927,-6.011543,0.777426,-0.691812,100651.382812
68124,3.052607,-24.285585,-15.745467,-6.158405,0.975903,-0.945096,100651.429688
68134,1.714248,-26.198551,-14.251486,-6.513855,0.834361,-1.143041,100651.429688
68154,0.051475,-24.839842,-9.311050,-6.505341,0.793921,-1.154215,100651.429688
68164,-0.647632,-24.592043,-4.346673,-6.153616,0.873205,-0.913170,100651.398438
68204,-6.030994,-21.696257,6.554127,-4.339654,1.656471,0.411784,100651.398438
68214,-5.458780,-25.149891,14.413095,-3.250958,3.034635,0.343142,100651.398438
68229,-2.043451,-28.258762,19.414581,-2.134059,3.087846,0.410187,100651.460938
68244,0.858321,-24.032997,20.842724,-0.766537,1.808122,0.738499,100651.460938
68254,6.560112,-12.253524,13.172897,0.664838,0.516692,1.317967,100651.460938
68264,14.105439,-7.299921,11.766304,2.194654,-1.379215,1.467489,100651.460938
68279,8.252813,6.491878,-23.603237,3.323258,-3.648131,1.642022,100651.515625
68289,12.746730,11.850101,-27.362135,3.657423,-3.249049,1.549434,100651.515625
68299,-11.894394,-21.528662,7.935582,3.135956,-5.203488,0.212243,100651.515625
68319,-21.444864,-12.989741,-17.231070,4.144304,-1.496279,0.065380,100651.515625
68329,-9.294291,-19.426552,-18.383877,3.718616,1.449480,0.203729,100651.515625
68339,3.554192,-14.190434,-13.237541,3.087533,1.064765,0.750206,100651.390625
68349,17.901445,-18.830397,-17.357962,2.610231,0.753481,0.810334,100651.390625
68364,9.205706,-7.673417,-9.126697,1.671589,0.150600,-0.093188,100651.390625
68379,-5.063736,-4.049792,-11.696873,1.202269,-0.975344,0.265986,100651.390625
68394,-0.330400,-6.692991,-10.778696,0.987296,-0.406519,0.300041,100651.343750
68404,1.179144,-6.928820,-10.551247,0.830324,-0.307546,0.275564,100651.343750
68414,0.169988,-4.908113,-9.364920,0.679205,-0.415564,0.264921,100651.343750
68424,-0.814029,-4.473566,-9.799467,0.624930,-0.420886,0.263325,100651.343750
68434,0.579397,-4.741716,-9.118318,0.611627,-0.363418,0.288866,100651.343750
68449,-0.796072,-5.231331,-9.633071,0.581297,-0.335748,0.286206,100651.335938
68459,-1.473631,-5.285200,-10.138247,0.544581,-0.191546,0.222353,100651.335938
68469,-0.527921,-4.881777,-9.574412,0.508398,0.030876,0.123380,100651.335938
68479,0.731429,-4.857835,-9.186552,0.472746,0.153793,0.050481,100651.335938
68489,1.782483,-4.641160,-8.795100,0.425921,0.150068,0.035582,100651.335938
68499,1.508347,-4.600459,-8.640674,0.370049,0.037261,0.073894,100651.210938
68514,1.673547,-4.383783,-8.451532,0.308856,-0.150042,0.167545,100651.210938
68524,1.131260,-4.395754,-8.510190,0.266288,-0.309675,0.255876,100651.210938
68534,0.563834,-4.626795,-8.932767,0.241278,-0.406519,0.302169,100651.210938
68549,-0.366313,-4.698621,-9.097966,0.210948,-0.404390,0.296316,100651.210938
68559,-0.208296,-4.985925,-9.162610,0.187535,-0.300629,0.256940,100651.273438
68569,0.264559,-5.093664,-8.876503,0.149224,-0.231454,0.239380,100651.273438
68579,0.709881,-4.823119,-8.726865,0.109315,-0.221344,0.240977,100651.273438
68589,0.882263,-4.602853,-8.591593,0.066747,-0.263381,0.272903,100651.273438
68604,0.622492,-4.892551,-8.620323,0.021517,-0.359161,0.322389,100651.273438
68614,0.106542,-5.032612,-8.774749,-0.016263,-0.434720,0.346866,100651.312500
68624,-0.271742,-4.917690,-8.571242,-0.021584,-0.432592,0.330903,100651.312500
68634,-0.750582,-4.898537,-8.807071,0.006086,-0.353308,0.280353,100651.312500
68644,0.077812,-4.462792,-8.322245,0.041205,-0.266042,0.252151,100651.312500
68664,-0.374693,-4.619612,-8.698134,0.118361,-0.252739,0.222353,100651.351562
68674,-0.588974,-4.590882,-8.507795,0.173168,-0.214959,0.198408,100651.351562
68684,-0.441730,-4.556166,-8.428787,0.223719,-0.170262,0.187233,100651.351562
68694,0.021548,-4.633977,-8.435969,0.287572,-0.115987,0.168077,100651.351562
68714,-0.484826,-4.402937,-8.483853,0.389205,-0.123968,0.183509,100651.351562
68724,-0.608127,-5.270835,-8.596381,0.485517,-0.104812,0.157435,100651.101562
68734,-0.610521,-4.946421,-8.547300,0.542453,-0.063840,0.121252,100651.101562
68744,-0.500388,-5.046977,-8.432379,0.600453,-0.002115,0.072830,100651.101562
68754,-0.214281,-4.505888,-8.366538,0.672819,0.076105,0.020683,100651.101562
68764,-0.608127,-4.672285,-8.570045,0.784563,0.059610,-0.002730,100651.101562
68774,-0.775721,-4.950012,-8.403648,0.913333,0.050564,-0.022418,100650.882812
68784,-0.460884,-4.930859,-8.292317,1.044232,0.162839,-0.058069,100650.882812
68794,-0.489614,-4.874595,-8.348581,1.186305,0.201151,-0.090528,100650.882812
68814,-0.475249,-4.955997,-8.196549,1.491736,0.208068,-0.155977,100650.882812
68824,-0.503979,-5.160702,-8.180987,1.753002,0.245316,-0.224087,100650.882812
68834,-0.629675,-5.243302,-8.050503,1.983406,0.268197,-0.303372,100650.843750
68844,-0.392649,-5.257667,-8.056489,2.249993,0.361848,-0.411390,100650.843750
68859,-0.405817,-5.221754,-7.872135,2.632048,0.459756,-0.556124,100650.843750
68869,-0.459687,-5.200206,-8.084022,3.058800,0.583738,-0.679573,100650.843750
68879,-0.173580,-5.084087,-7.679402,3.445643,0.738050,-0.748748,100650.843750
68889,0.100556,-5.209783,-7.657854,3.896340,0.894490,-0.784399,100650.804688
68899,0.696713,-4.420894,-7.510611,4.433772,0.997719,-0.782270,100650.804688
68909,0.037110,-3.881001,-7.626729,5.064322,1.063169,-0.716289,100650.804688
68919,-0.141258,-4.169502,-5.635951,5.739037,1.133407,-0.493867,100650.804688
68929,0.574608,-3.144784,-6.810307,6.692045,1.368068,-0.360840,100650.804688
68939,3.477578,-1.600524,-9.440337,7.819054,1.711810,-0.079354,100650.617188
68949,-0.424971,-0.427365,-13.509283,8.375640,1.600599,0.695398,100650.617188
68974,1.071405,-28.723238,-13.101071,10.126813,0.438472,1.526554,100650.617188
68984,-1.210269,-32.587479,-8.998607,9.808612,0.360252,1.529746,100650.617188
68994,5.227739,-33.260250,-8.447941,9.534043,0.476252,1.429178,100650.492188
69004,8.742428,-28.354530,-35.347996,9.130704,0.350142,1.337655,100650.492188
69014,11.262324,-23.526623,-31.237150,6.912871,-0.018611,1.473343,100650.492188
69024,8.386889,-11.220427,-20.154390,5.072835,-0.526775,1.580297,100650.492188
69034,9.812635,-16.202761,-22.966379,3.675515,-1.312169,1.786755,100650.492188
69044,2.594118,-22.554577,-41.264065,1.482158,-2.508884,1.491434,100650.492188
69054,2.573767,-13.006501,-27.172993,-1.218299,-1.953894,1.072132,100650.640625
69064,2.554613,-2.079364,-12.197261,-2.841233,-1.563857,0.820976,100650.640625
69074,1.980005,2.711433,-8.856153,-3.172738,-1.158922,0.534169,100650.640625
69089,-0.859518,1.751359,-6.748057,-3.388242,-0.625216,0.371876,100650.640625
69099,1.170765,-1.289278,-7.665037,-3.447306,-0.311803,0.433600,100650.640625
69114,2.918532,-3.733757,-8.025364,-3.888958,-0.136207,0.327710,100650.734375
69124,3.402161,-3.900155,-7.329848,-4.322094,-0.253271,0.245233,100650.734375
69134,3.244143,-4.465186,-7.260417,-4.672755,-0.449619,0.179252,100650.734375
69144,3.369839,-5.063736,-6.640318,-4.962223,-0.626280,0.072830,100650.734375
69154,2.794033,-5.549759,-5.925649,-5.192094,-0.760372,-0.103298,100650.734375
69169,1.842338,-6.007052,-6.105214,-5.378333,-0.833803,-0.312418,100650.742188
69179,0.799663,-7.094019,-6.408081,-5.525195,-0.774206,-0.473115,100650.742188
69189,0.741005,-6.848614,-5.044583,-5.641726,-0.676298,-0.591775,100650.742188
69198,0.089783,-9.764751,-7.852982,-5.694406,-0.387363,-0.680638,100650.742188
69209,-0.713472,-9.982624,-8.583213,-5.873195,-0.178776,-0.726931,100650.742188
69219,-0.590171,-11.091140,-9.054871,-6.055708,0.004802,-0.677977,100650.812500
69229,-0.778116,-11.489774,-8.495825,-6.253653,0.124527,-0.559849,100650.812500
69244,-0.439336,-12.726379,-9.763555,-6.401047,0.382600,-0.451830,100650.812500
69254,-0.136469,-12.902353,-9.458294,-6.507469,0.578949,-0.370950,100650.812500
69269,0.265756,-13.320141,-9.221268,-6.437763,0.932270,-0.377335,100650.882812
69279,1.322796,-14.689625,-10.193314,-6.240882,1.167994,-0.444913,100650.882812
69299,2.984372,-20.238188,-15.042769,-5.998240,1.341994,-0.797170,100650.882812
69309,2.904167,-24.601620,-17.440563,-6.173837,1.183957,-1.080784,100650.882812
69319,1.228225,-26.277561,-16.656462,-6.479268,0.945572,-1.310656,100650.882812
69339,-2.013524,-25.277981,-10.070012,-6.712863,0.928013,-1.501151,100651.046875
69349,-2.825158,-24.126371,-4.812346,-6.445212,1.104673,-1.322894,100651.046875
69364,-2.183512,-23.244106,-0.293290,-5.685892,1.356893,-0.661482,100651.046875
69374,-2.747346,-21.981165,2.134431,-5.090461,1.385095,-0.015500,100651.046875
69384,-4.458004,-21.438879,4.282030,-4.420003,1.479810,0.508096,100651.093750
69394,-6.066907,-23.761255,9.303867,-3.774554,1.966691,0.503839,100651.093750
69408,-2.747346,-26.992229,19.044678,-2.426188,3.101149,0.169674,100651.093750
69418,0.624887,-26.892870,20.830751,-1.440720,2.649388,0.081876,100651.093750
69428,1.879448,-23.464375,22.935255,-0.455785,1.583572,0.243105,100651.093750
69439,4.620809,-15.652094,17.526754,0.880342,0.525738,0.658683,100651.023438
69449,13.575124,-13.378799,8.887277,2.301607,-0.622023,0.744352,100651.023438
69459,6.801927,-4.717774,-2.693477,3.140744,-2.849967,0.557582,100651.023438
69469,4.944026,22.531832,-33.320107,3.533974,-3.269269,1.217398,100651.023438
69479,11.259931,4.386178,-20.029892,4.005955,-3.214462,1.149820,100651.023438
69494,-18.085800,-19.035101,13.733141,3.880377,-4.874644,0.706041,100650.648438
69508,-23.042994,-17.417818,-33.718739,4.823808,-0.100023,0.229270,100650.648438
69519,-2.209848,-22.808363,-19.013554,3.864414,1.489388,0.368683,100650.648438
69529,14.523228,-21.902157,-17.757793,3.030066,0.819994,0.780004,100650.648438
69544,5.913678,-9.916783,-11.633426,1.837608,-0.517729,0.275564,100650.312500
69554,-6.257246,-6.101623,-11.066000,1.423094,-0.908830,0.179252,100650.312500
69568,-2.381034,-5.706580,-11.611878,1.137351,-0.455473,0.281417,100650.312500
69579,1.974019,-6.465542,-10.779893,0.936214,-0.046280,0.201600,100650.312500
69594,0.755371,-3.891775,-8.303091,0.686654,-0.288922,0.237252,100650.312500
69619,1.193510,-4.468778,-8.261193,0.561609,-0.235179,0.244169,100650.476562
69649,-0.333991,-4.718972,-9.399636,0.546177,-0.144721,0.169142,100650.476562
69659,-0.330400,-4.710592,-9.520543,0.475407,0.059077,0.064848,100650.484375
69674,1.881842,-4.551377,-8.692149,0.397187,0.103775,0.046756,100650.484375
69694,1.568202,-4.458004,-8.348581,0.315774,-0.126629,0.135619,100650.484375
69709,1.261744,-4.703409,-8.651448,0.287040,-0.302225,0.217564,100650.484375
69719,0.228646,-4.898537,-8.864532,0.253517,-0.359161,0.237252,100650.437500
69734,-0.456095,-4.902128,-9.047688,0.237022,-0.278812,0.197876,100650.437500
69744,0.202310,-5.006276,-8.953117,0.227976,-0.159088,0.143600,100650.437500
69769,0.622492,-4.950012,-8.740033,0.199774,-0.154831,0.138811,100650.398438
69779,0.684742,-5.001487,-8.681376,0.170508,-0.198996,0.161692,100650.398438
69799,0.207098,-5.147533,-8.720880,0.131132,-0.249014,0.189362,100650.398438
69809,0.136469,-4.740520,-8.550891,0.116233,-0.240500,0.197344,100650.398438
69829,0.492008,-4.948815,-8.576031,0.123150,-0.198464,0.196279,100650.601562
69839,0.246603,-5.096058,-8.719683,0.131664,-0.205913,0.212243,100650.601562
69864,-0.033519,-4.862624,-8.452729,0.201902,-0.180904,0.211178,100650.601562
69889,-0.216675,-4.633977,-8.358158,0.277994,-0.147913,0.190958,100650.585938
69899,-0.063446,-4.960786,-8.406042,0.347168,-0.106409,0.170206,100650.585938
69913,-0.152032,-4.967968,-8.415619,0.397719,-0.072354,0.143600,100650.585938
69923,-0.350751,-4.667496,-8.362947,0.470086,-0.053198,0.118059,100650.585938
69933,-0.430956,-5.082890,-8.431181,0.551498,-0.026060,0.094114,100650.531250
69944,-0.530316,-4.893748,-8.341399,0.635572,0.026619,0.063252,100650.531250
69953,-0.369904,-5.254076,-8.365341,0.726563,0.114417,0.020151,100650.531250
69963,-0.158017,-5.100847,-8.153454,0.832985,0.176674,-0.021886,100650.531250
69973,-0.294487,-5.252879,-8.224083,0.948984,0.186252,-0.080950,100650.531250
69983,-0.356736,-5.054160,-8.233660,1.080948,0.211261,-0.149060,100650.531250
70003,-0.560243,-5.178658,-8.106767,1.378929,0.296931,-0.252289,100650.484375
70013,-0.259771,-5.134366,-8.166622,1.639131,0.431554,-0.359775,100650.484375
70023,0.149638,-4.948815,-8.016984,1.890819,0.516692,-0.447041,100650.484375
70033,0.207098,-5.218163,-8.030152,2.161663,0.557664,-0.511959,100650.484375
70044,0.141258,-5.193024,-7.866150,2.443681,0.620453,-0.567830,100650.437500
70053,0.233435,-5.427655,-7.818265,2.753369,0.699738,-0.642326,100650.437500
70063,0.306458,-5.336676,-7.694964,3.082745,0.788600,-0.706711,100650.437500
70073,0.432153,-5.293580,-7.477092,3.460542,0.875334,-0.732784,100650.437500
70083,-0.708684,-4.853047,-7.856573,3.887295,0.955150,-0.746087,100650.437500
70094,-0.634463,-3.751714,-8.081628,4.400781,1.080728,-0.681170,100650.437500
70108,1.086968,-3.525462,-6.009446,5.405936,1.286655,-0.439060,100650.562500
70118,0.497994,-3.119645,-7.213730,6.174835,1.354765,-0.222491,100650.562500
70128,1.061828,-2.124854,-9.240421,7.134761,1.443095,0.047289,100650.562500
70138,6.579266,-6.100426,-6.864176,8.042007,1.530893,0.542151,100650.562500
70148,4.979939,-11.987768,-2.316390,8.968410,1.363811,0.842793,100650.562500
70158,1.052252,-23.488316,-9.155427,9.915565,0.715169,1.004022,100650.476562
70168,-1.827973,-30.059202,-15.683218,10.114574,0.506050,0.855031,100650.476562
70178,3.112462,-29.700071,-12.474988,9.464869,0.925884,0.823105,100650.476562
70188,9.312247,-30.243555,-10.843340,8.997677,0.489022,1.395655,100650.476562
70203,11.942278,-23.780409,-30.957027,7.666871,-1.179142,1.847948,100650.476562
70218,5.954380,-8.717288,-21.258118,4.936083,-1.622389,1.255710,100650.429688
70228,-0.423774,-13.712790,-15.241488,3.539827,-1.906536,1.086499,100650.429688
70238,-0.921768,-24.249672,-45.194149,2.040342,-1.891637,1.070004,100650.429688
70253,2.152387,-6.687006,-15.946581,-1.953142,-0.564023,0.769894,100650.429688
70268,1.820790,3.703830,-6.427235,-2.961490,-0.188886,0.476701,100650.398438
70278,-0.025139,3.102885,-4.918888,-2.901362,-0.111730,0.518738,100650.398438
70288,1.152808,-1.434127,-7.861362,-2.807178,-0.334152,0.850774,100650.398438
70298,2.800019,-4.807557,-11.050438,-3.095582,-0.553381,1.098205,100650.398438
70308,3.032256,-5.519832,-9.126697,-3.747416,-0.738023,1.187600,100650.398438
70323,3.191471,-6.465542,-9.309854,-4.659984,-0.944481,1.230701,100650.570312
70333,3.214216,-5.950788,-7.648277,-5.206993,-1.000885,1.222719,100650.570312
70344,3.053804,-5.538986,-6.370971,-5.565635,-0.991839,1.155141,100650.570312
70353,3.130419,-5.815516,-5.722142,-5.756662,-0.901913,1.028499,100650.570312
70373,3.181894,-7.545327,-6.124368,-5.901928,-0.620427,0.648573,100650.750000
70383,2.444480,-8.665813,-6.768408,-6.006754,-0.413436,0.327710,100650.750000
70394,1.885434,-9.701305,-7.600393,-6.119029,-0.221876,0.102096,100650.750000
70408,1.592144,-9.428367,-6.501455,-6.220130,0.052692,-0.113941,100650.750000
70418,0.960075,-10.204087,-7.392098,-6.187671,0.199554,-0.232069,100650.750000
70428,1.255759,-11.423933,-8.573636,-6.181818,0.428894,-0.327849,100650.789062
70443,1.725022,-12.349293,-8.754398,-6.252589,0.600765,-0.432142,100650.789062
70458,0.937330,-12.231977,-8.305486,-6.179690,0.783811,-0.610399,100650.789062
70468,0.774524,-12.598289,-8.347384,-5.953011,0.964728,-0.663610,100650.789062
70478,0.820014,-14.786590,-9.992201,-5.632149,1.164269,-0.731188,100650.789062
70498,1.695095,-22.413319,-17.523163,-5.469855,1.370728,-0.880711,100650.859375
70508,0.489614,-25.904066,-17.766174,-5.941305,1.266967,-0.975426,100650.859375
70518,-1.156399,-25.151089,-14.703990,-6.346772,1.244618,-1.091958,100650.859375
70533,-3.345897,-24.848223,-9.308656,-6.496827,1.457462,-1.251591,100650.859375
70543,-3.626019,-24.999058,-4.023456,-6.273873,1.849095,-1.289903,100650.921875
70553,-2.079364,-24.781185,-0.845153,-5.823176,2.047572,-1.127078,100650.921875
70563,-0.954089,-23.940821,1.788469,-5.282021,1.873572,-0.723206,100650.921875
70573,-1.310825,-22.380997,4.332308,-4.729691,1.530361,-0.159170,100650.921875
70588,-3.440468,-22.402546,8.027759,-3.759655,1.418086,0.270243,100650.921875
70598,-3.162740,-24.016237,12.631808,-3.048756,1.912416,0.039307,100651.062500
70608,-0.784101,-24.459164,17.119740,-2.190463,2.278507,-0.201739,100651.062500
70618,1.334767,-23.667881,19.007566,-1.208189,1.765553,-0.169812,100651.062500
70628,2.740164,-22.318748,16.858770,-0.195584,0.800839,0.062188,100651.062500
70643,8.352173,-15.155296,8.698134,1.185241,-0.037234,0.239912,100651.062500
70658,8.530540,-2.195483,1.403002,3.192359,-2.771746,-0.275702,100650.945312
70668,-0.023942,22.936453,-26.889278,3.966047,-3.476260,0.312811,100650.945312
70678,6.065710,5.993884,-25.917233,4.716322,-2.753123,0.388371,100650.945312
70693,-12.394782,-25.171440,14.176068,4.083643,-4.654882,-0.308161,100650.945312
70708,-34.065899,-8.634688,-24.346638,5.245771,-1.293546,-0.733316,100650.695312
70718,-1.914164,-32.682049,-23.738510,4.444414,1.659664,0.513949,100650.695312
70728,13.740324,-23.768436,-13.372813,3.007185,0.926949,1.204095,100650.695312
70743,16.554708,-12.190078,-11.459846,1.969571,-0.587436,1.141838,100650.695312
70753,-9.734824,-6.854599,-13.772645,1.381590,-1.427105,0.565563,100650.695312
70763,-7.205350,-8.361750,-14.067132,0.908544,-1.498408,0.910371,100650.468750
70778,1.740585,-6.212954,-10.213664,0.564269,-0.357032,0.508628,100650.468750
70788,-1.509544,-7.651869,-11.941081,0.411022,-0.378849,0.411784,100650.468750
70798,-1.042675,-5.661090,-9.356541,0.226912,-0.446427,0.334628,100650.468750
70808,0.375890,-4.509479,-8.923190,0.189132,-0.113326,0.170206,100650.468750
70823,-0.174777,-5.323507,-8.917204,0.152416,-0.101088,0.150518,100650.648438
70833,-0.791284,-5.123591,-9.026140,0.115168,-0.045216,0.105821,100650.648438
70843,-0.812831,-4.953603,-9.009381,0.092820,0.075573,0.040903,100650.648438
70853,-0.632069,-4.872200,-8.984241,0.097609,0.188912,-0.034656,100650.648438
70863,0.275333,-4.521450,-8.645462,0.115168,0.253298,-0.096381,100650.648438
70873,1.625663,-4.041412,-8.334216,0.132728,0.239463,-0.080418,100650.734375
70883,2.009932,-4.055778,-8.286332,0.131664,0.116545,0.001527,100650.734375
70893,1.448492,-4.453215,-8.479065,0.121554,-0.094702,0.119656,100650.734375
70903,1.009156,-4.635174,-8.655039,0.088031,-0.268170,0.212775,100650.734375
70913,0.495600,-4.420894,-8.687361,0.063022,-0.328298,0.262793,100650.734375
70923,-0.108936,-4.656722,-8.877700,0.057169,-0.337344,0.278224,100650.703125
70943,-0.793678,-4.884171,-8.886080,0.051847,-0.253803,0.228206,100650.703125
70958,0.008380,-4.632780,-8.602366,0.083242,-0.081399,0.118591,100650.703125
70968,0.120907,-4.632780,-8.626308,0.097609,-0.067033,0.092518,100650.703125
70978,0.264559,-4.510676,-8.580819,0.095480,-0.081399,0.098371,100650.648438
70998,0.063446,-4.627992,-8.514978,0.078453,-0.182500,0.164885,100650.648438
71008,-0.195127,-4.660314,-8.486248,0.077921,-0.226665,0.200004,100650.648438
71023,-0.311246,-4.521450,-8.439561,0.113572,-0.198464,0.189894,100650.648438
