45372,-0.487220,-9.691729,1.869871,-0.000511,0.000074,0.001316,100641.390625
45392,-0.457293,-9.691729,1.866280,0.001618,0.001139,-0.000281,100641.390625
45402,-0.466869,-9.686940,1.871069,0.001618,0.000074,0.001848,100641.390625
45412,-0.453701,-9.688137,1.857901,0.002150,-0.000990,0.003976,100641.453125
45432,-0.506374,-9.668983,1.874660,0.001086,0.001139,0.004508,100641.453125
45442,-0.505177,-9.684546,1.869871,0.002150,0.002203,0.002912,100641.453125
45452,-0.495600,-9.674969,1.847127,0.001086,0.001139,0.003444,100641.453125
45462,-0.470461,-9.661801,1.843535,0.002150,0.002203,0.003444,100641.453125
45477,-0.492008,-9.703699,1.845930,0.002682,0.000074,0.005040,100641.476562
45487,-0.430956,-9.692925,1.821988,0.004278,-0.000990,0.004508,100641.476562
45497,-0.488417,-9.672575,1.837550,0.005874,-0.004714,0.006637,100641.476562
45512,-0.494403,-9.657013,1.827973,0.006407,-0.004714,0.006105,100641.476562
45522,-0.457293,-9.671378,1.899799,0.006939,-0.005247,0.002912,100641.523438
45532,-0.494403,-9.661801,1.898602,0.006939,-0.005247,0.002912,100641.523438
45542,-0.501585,-9.688137,1.896208,0.004278,-0.004714,0.002912,100641.523438
45552,-0.494403,-9.673772,1.862689,0.005342,-0.003650,0.001316,100641.523438
45567,-0.459687,-9.672575,1.879448,0.005342,-0.002054,0.000251,100641.523438
45577,-0.481235,-9.700109,1.891419,0.006407,-0.002054,0.000784,100641.843750
45587,-0.483629,-9.722853,1.843535,0.007471,-0.003650,0.001848,100641.843750
45597,-0.535104,-9.647436,1.860295,0.006939,-0.005247,0.000784,100641.843750
45617,-0.506374,-9.654618,1.874660,0.005342,-0.004714,-0.006666,100641.843750
45627,-0.444124,-9.680955,1.855506,0.005874,-0.000990,-0.007730,100641.843750
45637,-0.464475,-9.703699,1.857901,0.006407,-0.001522,-0.008794,100641.882812
45647,-0.450110,-9.703699,1.890222,0.005342,-0.002054,-0.006666,100641.882812
45657,-0.452504,-9.662998,1.873463,0.006407,-0.000990,-0.004538,100641.882812
45667,-0.459687,-9.694122,1.877054,0.005874,-0.001522,-0.002941,100641.882812
45677,-0.495600,-9.694122,1.856703,0.003746,-0.003650,-0.002409,100641.882812
45687,-0.497994,-9.683349,1.865083,0.002682,-0.002054,-0.001345,100641.828125
45697,-0.497994,-9.691729,1.836353,0.001618,-0.002054,-0.003473,100641.828125
45712,-0.460884,-9.654618,1.859098,0.002682,-0.000458,-0.004005,100641.828125
45722,-0.482432,-9.685743,1.866280,0.000553,-0.003118,-0.002409,100641.828125
45732,-0.432153,-9.670180,1.902193,0.002150,-0.004182,-0.004005,100641.828125
45742,-0.475249,-9.683349,1.911770,0.001618,-0.004182,-0.002941,100641.617188
45752,-0.493206,-9.688137,1.897405,0.002150,-0.002586,-0.002409,100641.617188
45762,-0.442927,-9.641450,1.875857,0.000553,0.000074,-0.000281,100641.617188
45777,-0.471658,-9.683349,1.853112,0.001086,-0.003118,0.001848,100641.617188
45787,-0.448913,-9.664195,1.867477,0.001086,-0.005247,0.004508,100641.617188
45797,-0.440533,-9.701305,1.867477,0.001086,-0.007375,0.004508,100641.648438
45807,-0.468066,-9.680955,1.798046,0.001618,-0.006843,0.005040,100641.648438
45827,-0.497994,-9.703699,1.868674,0.001618,-0.004714,0.002380,100641.648438
45837,-0.470461,-9.662998,1.853112,0.002682,-0.004182,0.001848,100641.648438
45847,-0.497994,-9.670180,1.895011,0.002682,-0.004182,-0.000813,100641.648438
45857,-0.466869,-9.686940,1.895011,0.001086,-0.003118,-0.002941,100641.640625
45897,-0.446519,-9.685743,1.896208,0.000553,-0.003118,-0.001345,100641.640625
45907,-0.477643,-9.695320,1.867477,0.000021,-0.002586,-0.002409,100641.625000
45917,-0.477643,-9.674969,1.830367,-0.001043,-0.003650,-0.004005,100641.625000
45927,-0.474052,-9.665392,1.873463,0.002682,-0.003650,-0.004005,100641.625000
45937,-0.463278,-9.668983,1.889025,0.001618,-0.002586,-0.003473,100641.625000
45947,-0.451307,-9.689334,1.855506,0.002682,-0.001522,-0.001877,100641.625000
45957,-0.456095,-9.686940,1.908179,0.000021,-0.001522,0.001316,100641.625000
45967,-0.483629,-9.695320,1.895011,-0.001575,0.000074,0.001848,100641.562500
45977,-0.466869,-9.671378,1.883040,-0.001575,0.001671,0.000251,100641.562500
45987,-0.483629,-9.661801,1.892616,-0.000511,0.002203,0.000784,100641.562500
46007,-0.474052,-9.666590,1.818396,-0.000511,0.003267,-0.001345,100641.562500
46017,-0.450110,-9.685743,1.879448,-0.001043,0.001139,-0.000813,100641.500000
46027,-0.451307,-9.691729,1.819593,-0.001043,0.000074,0.001316,100641.500000
46042,-0.471658,-9.716867,1.857901,-0.001043,-0.000990,0.000784,100641.500000
46052,-0.501585,-9.674969,1.902193,-0.001575,-0.002054,0.000784,100641.500000
46062,-0.507571,-9.682152,1.855506,-0.001043,-0.000458,0.001316,100641.500000
46072,-0.532710,-9.652225,1.843535,-0.001575,-0.000458,-0.000813,100641.484375
46087,-0.468066,-9.685743,1.885434,0.000021,-0.000458,-0.002409,100641.484375
46097,-0.451307,-9.665392,1.853112,-0.000511,0.001139,-0.004005,100641.484375
46107,-0.422577,-9.701305,1.922544,-0.001575,-0.000458,-0.001345,100641.484375
46137,-0.505177,-9.678560,1.853112,-0.000511,0.001671,0.001316,100641.515625
46158,-0.495600,-9.676167,1.890222,0.000021,0.002203,-0.001345,100641.515625
46182,-0.474052,-9.697714,1.867477,-0.000511,-0.001522,-0.002941,100641.562500
46193,-0.463278,-9.689334,1.849521,-0.001575,-0.003118,-0.002409,100641.562500
46212,-0.501585,-9.674969,1.889025,-0.000511,0.000074,-0.001345,100641.562500
46222,-0.466869,-9.685743,1.873463,-0.001575,0.001671,-0.000281,100641.562500
46232,-0.478840,-9.686940,1.847127,-0.001043,0.001671,0.000784,100641.562500
46242,-0.478840,-9.701305,1.891419,-0.001043,0.002735,-0.000813,100641.468750
46257,-0.459687,-9.661801,1.855506,-0.000511,0.000074,-0.001345,100641.468750
46267,-0.476446,-9.668983,1.827973,0.000021,-0.002054,-0.001877,100641.468750
46277,-0.493206,-9.665392,1.871069,-0.001575,-0.000990,-0.002409,100641.468750
46287,-0.493206,-9.657013,1.880645,-0.001575,-0.000458,-0.004538,100641.468750
46302,-0.447716,-9.671378,1.879448,-0.001043,0.000607,-0.008262,100641.382812
46312,-0.469264,-9.679757,1.849521,-0.002107,0.001139,-0.009859,100641.382812
46322,-0.495600,-9.703699,1.819593,-0.001043,0.001671,-0.007730,100641.382812
46332,-0.435745,-9.660604,1.875857,-0.002639,0.003799,-0.005602,100641.382812
46347,-0.428562,-9.683349,1.857901,-0.002107,0.002735,-0.006666,100641.382812
46357,-0.453701,-9.659407,1.867477,-0.001043,0.002735,-0.005070,100641.500000
46367,-0.478840,-9.666590,1.860295,-0.002107,0.003267,-0.003473,100641.500000
46382,-0.451307,-9.692925,1.869871,-0.004236,0.004331,-0.005070,100641.500000
46392,-0.462081,-9.720459,1.861492,-0.004236,0.003799,-0.006666,100641.500000
46402,-0.460884,-9.698911,1.872266,-0.004768,0.003267,-0.005070,100641.500000
46425,-0.459687,-9.676167,1.893813,-0.005300,0.001671,-0.000813,100641.812500
46442,-0.483629,-9.698911,1.899799,-0.004236,0.000607,-0.001877,100641.812500
46457,-0.487220,-9.677363,1.860295,-0.004236,0.001139,-0.005602,100641.812500
46467,-0.453701,-9.686940,1.860295,-0.003703,0.002203,-0.006666,100641.867188
46492,-0.471658,-9.695320,1.835156,-0.003171,0.002735,-0.000813,100641.867188
46502,-0.470461,-9.684546,1.895011,-0.006364,0.000074,0.001316,100641.867188
46512,-0.486023,-9.712079,1.865083,-0.004236,0.002203,0.000251,100641.867188
46522,-0.463278,-9.677363,1.905785,-0.002639,0.000074,0.000251,100641.898438
46537,-0.471658,-9.659407,1.875857,-0.003703,0.001139,0.000251,100641.898438
46547,-0.470461,-9.672575,1.867477,-0.003171,0.001671,-0.000281,100641.898438
46562,-0.450110,-9.662998,1.883040,-0.005832,0.003267,0.001316,100641.898438
46572,-0.483629,-9.685743,1.883040,-0.005832,0.004863,0.001848,100641.898438
46587,-0.459687,-9.670180,1.856703,-0.005832,0.005928,0.006105,100641.929688
46597,-0.464475,-9.655815,1.832761,-0.005832,0.005928,0.007701,100641.929688
46612,-0.433351,-9.670180,1.887828,-0.003171,0.004331,0.007701,100641.929688
46622,-0.480037,-9.684546,1.878251,-0.003703,-0.000458,0.007169,100641.929688
46632,-0.503979,-9.674969,1.837550,-0.004236,-0.003118,0.007169,100641.726562
46647,-0.471658,-9.697714,1.892616,-0.003171,0.000074,0.006637,100641.726562
46657,-0.489614,-9.673772,1.831564,-0.003703,-0.000458,0.003976,100641.726562
46672,-0.500388,-9.679757,1.875857,-0.005832,0.001139,0.002912,100641.726562
46682,-0.486023,-9.666590,1.855506,-0.003703,0.001671,0.000251,100641.726562
46692,-0.463278,-9.698911,1.868674,-0.004768,0.004331,0.001316,100641.523438
46707,-0.466869,-9.703699,1.889025,-0.003171,0.001139,0.001316,100641.523438
46717,-0.487220,-9.661801,1.831564,-0.001575,0.001671,0.002912,100641.523438
46727,-0.475249,-9.642648,1.848324,-0.004236,0.003267,0.002912,100641.523438
46742,-0.445322,-9.664195,1.841141,-0.004768,0.002735,0.000784,100641.203125
46752,-0.421380,-9.713276,1.860295,-0.002639,0.002735,0.002380,100641.203125
46767,-0.483629,-9.683349,1.872266,-0.004236,0.000074,0.002380,100641.203125
46777,-0.456095,-9.668983,1.879448,-0.003171,0.001671,0.000251,100641.203125
46787,-0.445322,-9.674969,1.849521,-0.003703,0.001671,-0.001345,100641.203125
46802,-0.456095,-9.684546,1.831564,-0.003703,0.001139,-0.000281,100640.914062
46812,-0.448913,-9.684546,1.839944,-0.002107,0.002735,-0.001345,100640.914062
46827,-0.465672,-9.689334,1.877054,-0.002107,0.002203,-0.000813,100640.914062
46837,-0.464475,-9.680955,1.825579,-0.002107,0.001671,-0.000281,100640.914062
46852,-0.444124,-9.672575,1.881842,-0.002107,-0.000990,-0.000281,100641.031250
46862,-0.487220,-9.659407,1.860295,0.000021,-0.001522,0.000251,100641.031250
46872,-0.442927,-9.678560,1.884237,0.001618,-0.003650,0.000251,100641.031250
46887,-0.475249,-9.702502,1.883040,0.002150,-0.003118,-0.000281,100641.031250
46897,-0.456095,-9.674969,1.861492,0.000021,-0.003650,0.000784,100641.031250
46907,-0.475249,-9.691729,1.869871,0.000021,-0.004182,0.001316,100641.164062
46927,-0.477643,-9.695320,1.899799,0.000021,-0.000990,0.000784,100641.164062
46937,-0.471658,-9.657013,1.891419,-0.001575,0.001139,-0.000813,100641.164062
46952,-0.490811,-9.692925,1.827973,-0.001043,0.000607,-0.001345,100641.164062
46962,-0.435745,-9.695320,1.881842,0.000021,-0.002054,-0.002941,100641.203125
46982,-0.460884,-9.713276,1.875857,0.001618,-0.003118,-0.004538,100641.203125
46997,-0.494403,-9.653421,1.896208,0.001086,-0.003118,-0.002941,100641.203125
47007,-0.497994,-9.682152,1.826776,0.000553,-0.001522,-0.004005,100641.203125
47017,-0.435745,-9.689334,1.857901,-0.000511,0.001139,-0.006666,100641.203125
47027,-0.450110,-9.696517,1.869871,0.000021,0.003267,-0.006134,100641.203125
47037,-0.459687,-9.674969,1.818396,-0.000511,0.002203,-0.004005,100641.203125
47052,-0.474052,-9.673772,1.842338,-0.001043,0.001671,0.000784,100641.203125
47067,-0.478840,-9.674969,1.856703,-0.000511,0.001139,0.000251,100641.203125
47077,-0.488417,-9.688137,1.859098,-0.002107,0.002203,0.000251,100641.203125
47087,-0.472855,-9.659407,1.837550,-0.002639,0.003267,-0.002409,100641.203125
47107,-0.450110,-9.665392,1.866280,0.000553,0.001671,-0.003473,100641.203125
47117,-0.464475,-9.674969,1.865083,0.002150,0.002735,-0.001345,100641.203125
47127,-0.478840,-9.679757,1.839944,0.003214,0.001671,-0.002941,100641.265625
47137,-0.447716,-9.702502,1.845930,0.003746,0.000607,-0.003473,100641.265625
47147,-0.416591,-9.703699,1.879448,0.003746,-0.000458,-0.000813,100641.265625
47157,-0.458490,-9.707291,1.881842,0.002150,0.000607,0.000251,100641.265625
47167,-0.476446,-9.659407,1.854309,0.002150,0.001671,-0.000281,100641.265625
47177,-0.444124,-9.658210,1.885434,0.001618,0.003799,-0.000813,100641.265625
47187,-0.457293,-9.666590,1.902193,-0.000511,0.002735,-0.001345,100641.250000
47197,-0.446519,-9.683349,1.859098,-0.000511,0.001671,-0.000281,100641.250000
47207,-0.483629,-9.692925,1.830367,0.000021,0.001139,0.001848,100641.250000
47217,-0.435745,-9.665392,1.826776,0.001086,0.002203,0.002912,100641.250000
47227,-0.460884,-9.691729,1.881842,0.003746,0.001139,0.000784,100641.250000
47237,-0.483629,-9.662998,1.886631,0.002682,-0.001522,0.000784,100641.195312
47247,-0.456095,-9.682152,1.866280,0.002682,-0.002586,-0.000281,100641.195312
47257,-0.470461,-9.709685,1.857901,0.003746,-0.004182,-0.001345,100641.195312
47267,-0.476446,-9.708488,1.855506,0.002682,-0.003650,-0.002941,100641.195312
47277,-0.444124,-9.666590,1.861492,0.004278,0.000074,-0.003473,100641.195312
47287,-0.470461,-9.690532,1.906982,0.002682,0.001671,-0.002941,100641.195312
47297,-0.483629,-9.678560,1.885434,0.002682,0.000074,0.000784,100641.085938
47307,-0.442927,-9.685743,1.855506,0.001618,-0.002054,0.001316,100641.085938
47317,-0.477643,-9.702502,1.875857,0.002150,0.000074,0.001848,100641.085938
47327,-0.481235,-9.653421,1.823185,0.003214,-0.000458,0.000251,100641.085938
47337,-0.436942,-9.678560,1.831564,0.003746,0.001139,-0.001345,100641.085938
47347,-0.472855,-9.658210,1.855506,0.004278,0.001139,-0.001345,100641.179688
47362,-0.462081,-9.665392,1.851915,0.003746,0.000607,-0.002941,100641.179688
47372,-0.474052,-9.665392,1.871069,0.005342,0.000607,-0.001345,100641.179688
47382,-0.445322,-9.679757,1.862689,0.006939,-0.001522,-0.003473,100641.179688
47392,-0.451307,-9.694122,1.883040,0.008535,-0.003118,-0.003473,100641.179688
47402,-0.416591,-9.654618,1.896208,0.009067,-0.004182,-0.000813,100641.187500
47412,-0.447716,-9.715671,1.886631,0.009067,-0.005247,0.000784,100641.187500
47422,-0.462081,-9.673772,1.838747,0.008535,-0.007375,0.003976,100641.187500
47432,-0.457293,-9.667787,1.868674,0.009067,-0.006843,0.002912,100641.187500
47442,-0.459687,-9.671378,1.859098,0.008535,-0.003650,0.001316,100641.187500
47452,-0.424971,-9.661801,1.921347,0.009599,-0.003118,0.000784,100641.187500
47462,-0.463278,-9.673772,1.885434,0.006939,-0.002054,0.001848,100641.265625
47472,-0.475249,-9.658210,1.865083,0.005874,-0.002586,0.004508,100641.265625
47482,-0.468066,-9.679757,1.911770,0.006939,-0.003118,0.005040,100641.265625
47492,-0.481235,-9.704897,1.880645,0.007471,-0.002054,0.004508,100641.265625
47502,-0.440533,-9.672575,1.845930,0.008003,-0.001522,0.005040,100641.265625
47512,-0.469264,-9.682152,1.881842,0.006939,-0.002586,0.005040,100641.187500
47522,-0.500388,-9.668983,1.826776,0.009067,-0.005247,0.003976,100641.187500
47532,-0.495600,-9.655815,1.859098,0.009067,-0.006843,0.001848,100641.187500
47542,-0.456095,-9.666590,1.904588,0.008535,-0.005247,-0.000813,100641.187500
47552,-0.470461,-9.668983,1.904588,0.008003,-0.006311,-0.001877,100641.187500
47577,-0.462081,-9.682152,1.867477,0.008535,-0.003118,-0.001345,100641.125000
47587,-0.446519,-9.672575,1.883040,0.006407,0.000074,-0.001877,100641.125000
47602,-0.494403,-9.653421,1.845930,0.008003,-0.000990,0.002912,100641.125000
47617,-0.458490,-9.665392,1.857901,0.006407,-0.000458,0.002912,100641.125000
47627,-0.477643,-9.686940,1.879448,0.005874,0.001671,0.003444,100641.250000
47642,-0.474052,-9.695320,1.880645,0.007471,0.000607,0.000784,100641.250000
47657,-0.444124,-9.682152,1.887828,0.005874,-0.002586,0.002912,100641.250000
47667,-0.457293,-9.702502,1.915361,0.007471,-0.003650,0.001848,100641.250000
47677,-0.436942,-9.671378,1.908179,0.005342,-0.002586,0.001316,100641.289062
47687,-0.440533,-9.682152,1.892616,0.005342,-0.002054,0.004508,100641.289062
47702,-0.468066,-9.702502,1.935712,0.005874,-0.003118,0.002380,100641.289062
47712,-0.462081,-9.684546,1.890222,0.004810,-0.006311,0.002912,100641.289062
47722,-0.470461,-9.660604,1.877054,0.005874,-0.003650,0.002380,100641.289062
47732,-0.469264,-9.640253,1.879448,0.007471,-0.003650,-0.001877,100641.328125
47742,-0.442927,-9.646238,1.909376,0.008003,-0.003118,-0.002941,100641.328125
47752,-0.442927,-9.666590,1.872266,0.007471,-0.005779,0.000251,100641.328125
47762,-0.436942,-9.679757,1.935712,0.006407,-0.004714,-0.000281,100641.328125
47772,-0.440533,-9.695320,1.921347,0.006939,-0.005247,-0.000813,100641.328125
47782,-0.439336,-9.688137,1.879448,0.006407,-0.004714,-0.000813,100641.328125
47792,-0.477643,-9.662998,1.891419,0.005342,-0.003650,0.001316,100641.328125
47812,-0.495600,-9.657013,1.874660,0.005342,-0.003650,0.001848,100641.234375
47822,-0.445322,-9.672575,1.886631,0.005874,-0.003650,0.002380,100641.234375
47832,-0.446519,-9.685743,1.893813,0.006407,-0.004714,0.002380,100641.234375
47842,-0.469264,-9.712079,1.883040,0.007471,-0.005779,0.001848,100641.234375
47852,-0.475249,-9.691729,1.889025,0.006407,-0.005779,0.003976,100641.140625
47867,-0.442927,-9.686940,1.903390,0.008535,-0.006843,0.003976,100641.140625
47877,-0.466869,-9.677363,1.938106,0.008535,-0.007907,0.006637,100641.140625
47892,-0.486023,-9.635465,1.934515,0.005874,-0.006843,0.003444,100641.140625
47902,-0.490811,-9.645041,1.915361,0.006939,-0.006311,0.000784,100641.140625
47912,-0.454898,-9.698911,1.906982,0.008535,-0.005779,-0.001345,100641.140625
47932,-0.523133,-9.674969,1.859098,0.009067,-0.007375,-0.004005,100641.289062
47942,-0.462081,-9.652225,1.883040,0.010663,-0.007907,-0.007198,100641.289062
47952,-0.501585,-9.655815,1.916559,0.011196,-0.006843,-0.010923,100641.289062
47972,-0.464475,-9.659407,1.915361,0.011196,-0.004714,-0.013583,100641.421875
47982,-0.497994,-9.661801,1.880645,0.012792,-0.004714,-0.012519,100641.421875
48002,-0.457293,-9.692925,1.918953,0.013856,-0.008439,-0.010923,100641.421875
48016,-0.472855,-9.701305,1.938106,0.012792,-0.005247,-0.010391,100641.421875
48027,-0.466869,-9.640253,1.926135,0.011196,-0.002054,-0.010923,100641.421875
48037,-0.478840,-9.643845,1.902193,0.012260,-0.000458,-0.014116,100641.484375
48051,-0.469264,-9.653421,1.910573,0.012260,0.003799,-0.016776,100641.484375
48061,-0.440533,-9.643845,1.948880,0.012260,0.003267,-0.017308,100641.484375
48071,-0.405817,-9.668983,1.924938,0.014388,0.003267,-0.016776,100641.484375
48082,-0.452504,-9.647436,1.945289,0.015985,0.000607,-0.014648,100641.484375
48091,-0.416591,-9.664195,1.932121,0.017581,-0.004182,-0.011455,100641.539062
48101,-0.427365,-9.630676,1.939303,0.020241,-0.006843,-0.012519,100641.539062
48111,-0.486023,-9.651027,1.909376,0.019177,-0.011100,-0.013583,100641.539062
48121,-0.430956,-9.636662,1.972822,0.022370,-0.009503,-0.017840,100641.539062
48132,-0.380678,-9.689334,1.914164,0.025030,-0.012696,-0.021033,100641.539062
48142,-0.444124,-9.679757,1.887828,0.026095,-0.016953,-0.022629,100641.539062
48151,-0.424971,-9.704897,1.923741,0.027691,-0.016953,-0.026886,100641.601562
48161,-0.430956,-9.700109,1.909376,0.027159,-0.015889,-0.027418,100641.601562
48171,-0.433351,-9.649830,1.954866,0.031416,-0.012696,-0.030611,100641.601562
48181,-0.435745,-9.646238,1.893813,0.033012,-0.012696,-0.033271,100641.601562
48192,-0.392649,-9.654618,2.002750,0.034608,-0.011632,-0.033271,100641.601562
48202,-0.391452,-9.655815,1.958457,0.035673,-0.011100,-0.035400,100641.468750
48216,-0.367510,-9.658210,2.043451,0.039397,-0.014292,-0.035932,100641.468750
48226,-0.342371,-9.668983,1.966837,0.042058,-0.019614,-0.037528,100641.468750
48236,-0.408211,-9.674969,1.966837,0.043122,-0.024935,-0.035932,100641.468750
48247,-0.392649,-9.660604,1.923741,0.046315,-0.028127,-0.035932,100641.468750
48256,-0.439336,-9.648633,1.978808,0.044186,-0.029724,-0.039657,100641.156250
48266,-0.375890,-9.645041,1.981202,0.045783,-0.032916,-0.040721,100641.156250
48276,-0.410606,-9.643845,1.970428,0.046847,-0.031320,-0.043382,100641.156250
48287,-0.384269,-9.641450,2.026692,0.047379,-0.028659,-0.048703,100641.156250
48306,-0.380678,-9.671378,1.981202,0.048975,-0.023338,-0.053492,100641.156250
48317,-0.409408,-9.640253,1.993173,0.051104,-0.022274,-0.051363,100640.812500
48331,-0.378284,-9.630676,1.997961,0.052700,-0.022806,-0.049767,100640.812500
48341,-0.333991,-9.631873,2.053028,0.051636,-0.025467,-0.043914,100640.812500
48351,-0.342371,-9.629479,2.015918,0.051104,-0.030256,-0.037528,100640.812500
48361,-0.311246,-9.668983,2.074576,0.052168,-0.030256,-0.033804,100640.812500
48371,-0.294487,-9.689334,2.091335,0.051104,-0.029724,-0.030611,100640.515625
48382,-0.355539,-9.673772,2.009932,0.048443,-0.029192,-0.026354,100640.515625
48396,-0.335188,-9.673772,2.081758,0.048975,-0.021210,-0.028483,100640.515625
48406,-0.349553,-9.660604,2.066196,0.050040,-0.019614,-0.031143,100640.515625
48416,-0.383072,-9.635465,2.053028,0.051104,-0.017485,-0.032739,100640.515625
48427,-0.356736,-9.625888,2.072181,0.052700,-0.016953,-0.035400,100640.609375
48446,-0.310049,-9.618706,2.047042,0.055893,-0.027063,-0.035932,100640.609375
48456,-0.332794,-9.643845,2.005144,0.054296,-0.032916,-0.035400,100640.609375
48466,-0.310049,-9.616311,2.079364,0.057489,-0.036641,-0.035932,100640.609375
48477,-0.313640,-9.631873,2.006341,0.060150,-0.039834,-0.040189,100640.578125
48491,-0.280122,-9.652225,2.120066,0.063342,-0.038237,-0.047638,100640.578125
48501,-0.246603,-9.640253,2.149993,0.067599,-0.043026,-0.051895,100640.578125
48511,-0.301669,-9.599552,2.096124,0.068131,-0.049412,-0.051363,100640.578125
48521,-0.306458,-9.616311,2.070984,0.069728,-0.054201,-0.055088,100640.578125
48531,-0.282516,-9.607931,2.087744,0.069196,-0.054201,-0.060941,100640.546875
48546,-0.295684,-9.617508,2.015918,0.073985,-0.050476,-0.066262,100640.546875
48556,-0.196325,-9.534908,2.026692,0.078241,-0.054201,-0.066262,100640.546875
48566,-0.082600,-9.508572,2.014721,0.087819,-0.072292,-0.058813,100640.546875
48576,-0.132878,-9.652225,1.976413,0.096333,-0.101558,-0.044446,100640.546875
48591,-0.217872,-9.622296,2.055422,0.102718,-0.136678,-0.027418,100640.500000
48601,-0.286107,-9.551667,2.183512,0.107507,-0.145724,-0.026354,100640.500000
48611,-0.384269,-9.423578,2.139219,0.111764,-0.129228,-0.040721,100640.500000
48621,-0.389058,-9.394848,2.063802,0.122407,-0.097834,-0.061473,100640.500000
48632,-0.361524,-9.352949,2.175132,0.134645,-0.069100,-0.090739,100640.500000
48646,-0.265756,-9.593566,2.165555,0.145287,-0.063779,-0.127987,100640.679688
48656,-0.357933,-9.621099,2.333150,0.149012,-0.080274,-0.148739,100640.679688
48666,-0.272939,-9.485827,2.378639,0.151140,-0.083999,-0.175345,100640.679688
48676,-0.198719,-9.495404,2.573767,0.153269,-0.075485,-0.216849,100640.679688
48691,0.007183,-9.533711,2.504335,0.150608,-0.075485,-0.254629,100640.679688
48701,-0.038307,-9.667787,2.410961,0.146351,-0.088256,-0.273785,100640.796875
48711,-0.083797,-9.798270,2.426523,0.138370,-0.105815,-0.284427,100640.796875
48721,-0.067038,-9.840169,2.424129,0.130388,-0.106347,-0.299326,100640.796875
48731,-0.026336,-9.721656,2.464831,0.124535,-0.087724,-0.316354,100640.796875
48746,0.076614,-9.690532,2.594118,0.106975,-0.058990,-0.344024,100640.796875
48756,0.119710,-9.746795,2.615665,0.089948,-0.042494,-0.349877,100640.882812
48766,0.028730,-9.777920,2.536657,0.069196,-0.036109,-0.345620,100640.882812
48776,0.041899,-9.828198,2.553416,0.047911,-0.020678,-0.340299,100640.882812
48791,0.197522,-9.785102,2.427721,0.019177,0.009652,-0.330189,100640.882812
48801,0.369904,-9.792285,2.401384,-0.007960,0.039451,-0.304115,100640.882812
48811,0.313640,-9.850943,2.483984,-0.029777,0.055946,-0.271125,100640.773438
48821,0.264559,-9.773131,2.488773,-0.049465,0.066588,-0.234941,100640.773438
48841,0.421380,-9.557653,2.598906,-0.086180,0.086808,-0.185987,100640.773438
48851,0.299275,-9.606734,2.539051,-0.112254,0.105964,-0.164170,100640.773438
48861,0.424971,-9.578004,2.568978,-0.126621,0.120863,-0.142886,100640.679688
48876,0.349553,-9.540894,2.371457,-0.143116,0.132570,-0.125859,100640.679688
48886,0.232238,-9.605537,2.245761,-0.151098,0.136827,-0.120005,100640.679688
48896,0.373495,-9.539697,2.206257,-0.151630,0.141084,-0.111492,100640.679688
48906,0.457293,-9.482236,2.242170,-0.149502,0.141616,-0.107235,100640.679688
48921,0.606930,-9.534908,2.239776,-0.139391,0.119799,-0.094996,100640.781250
48931,0.575805,-9.560047,2.151190,-0.125557,0.090533,-0.081693,100640.781250
48946,0.369904,-9.574412,2.090138,-0.111190,0.054350,-0.071051,100640.781250
48956,0.460884,-9.509769,2.149993,-0.100015,0.043707,-0.072648,100640.781250
48966,0.566229,-9.435549,2.126051,-0.089373,0.038919,-0.075308,100640.781250
48981,0.640449,-9.501390,2.187103,-0.074474,0.014974,-0.065730,100640.906250
48991,0.539892,-9.549273,2.135628,-0.060639,-0.015357,-0.050831,100640.906250
49006,0.367510,-9.629479,2.181118,-0.047336,-0.028127,-0.040189,100640.906250
49016,0.432153,-9.570822,2.254141,-0.045208,-0.016953,-0.040721,100640.906250
49026,0.581791,-9.549273,2.303222,-0.046804,-0.004182,-0.034336,100640.820312
49041,0.661997,-9.678560,2.322376,-0.054786,-0.001522,-0.014648,100640.820312
49051,0.543484,-9.648633,2.312799,-0.062236,-0.016421,0.009829,100640.820312
49061,0.509965,-9.615114,2.246958,-0.068621,-0.020146,0.025261,100640.820312
49081,0.532710,-9.641450,2.251747,-0.077667,-0.021742,0.041756,100640.867188
49101,0.744597,-9.679757,2.367866,-0.098419,-0.060054,0.086985,100640.867188
49111,0.877475,-9.775525,2.349909,-0.122364,-0.135081,0.141793,100640.867188
49121,0.725443,-9.876082,2.291251,-0.138859,-0.182971,0.184361,100640.867188
49136,0.372298,-9.852140,2.114080,-0.169722,-0.210109,0.241829,100641.000000
49146,0.225055,-9.856929,2.092532,-0.194199,-0.180843,0.264178,100641.000000
49161,0.102951,-9.934740,2.081758,-0.238364,-0.112733,0.275352,100641.000000
49181,0.140061,-10.575189,1.833959,-0.351703,0.023487,0.312600,100641.000000
49196,0.150835,-11.073183,2.384625,-0.474621,0.048496,0.363682,100641.117188
49211,-0.039504,-10.460267,1.679533,-0.540602,0.173542,0.469572,100641.117188
49221,-0.347159,-9.967062,1.399411,-0.528364,0.310827,0.552581,100641.117188
49231,-0.617704,-9.800665,1.369483,-0.510804,0.441726,0.634526,100641.117188
49251,0.064643,-10.267534,2.102109,-0.535281,0.498661,0.834599,100641.117188
49261,0.810437,-10.758346,2.624045,-0.536877,0.383726,0.992104,100641.101562
49271,2.021903,-11.638214,2.946065,-0.515061,0.248038,1.075113,100641.101562
49281,0.864307,-12.023681,2.311602,-0.481006,0.117139,1.065003,100641.101562
49296,-2.385822,-11.994950,3.177106,-0.353832,0.075102,1.165572,100641.101562
49306,-3.658340,-12.369643,3.014300,-0.251667,0.200680,1.281572,100641.101562
49316,-4.930859,-12.209231,2.173935,-0.204841,0.424166,1.303920,100641.101562
49326,-4.474763,-12.719196,1.631648,-0.185153,0.721083,1.322544,100641.093750
49341,-2.055422,-12.008119,1.641225,-0.143648,1.082386,1.231553,100641.093750
49351,-0.896629,-11.337742,1.622072,-0.121300,1.288312,1.119810,100641.093750
49366,-1.260547,-10.905589,1.618480,-0.123428,1.310661,1.105443,100641.093750
49376,-1.638831,-10.709264,1.780089,-0.114382,1.268092,1.103315,100641.093750
49386,-1.461660,-10.451887,1.535880,-0.079795,1.203707,1.070856,100641.093750
49401,-1.240196,-9.847352,1.540669,-0.029777,1.092496,1.024031,100641.093750
49411,-1.121683,-9.255983,1.289278,0.008535,0.952019,0.992104,100641.093750
49426,-1.236605,-8.783129,1.057040,0.036205,0.786533,0.950599,100641.093750
49436,-1.455675,-8.385692,0.741005,0.049507,0.670001,0.924526,100641.007812
49461,-1.662773,-7.673417,0.396240,0.074517,0.450239,0.818104,100641.007812
49471,-1.616086,-7.433996,0.260968,0.077709,0.380001,0.770214,100641.007812
49486,-1.628057,-7.180211,0.269348,0.071324,0.295395,0.698379,100641.007812
49496,-1.686715,-7.143101,0.319626,0.065471,0.233139,0.640379,100640.914062
49516,-1.895011,-7.138312,0.426168,0.063874,0.130441,0.550985,100640.914062
49536,-1.975216,-7.220912,0.428562,0.062278,0.010717,0.409444,100640.914062
49546,-1.985990,-7.346608,0.497994,0.056957,-0.044091,0.339205,100640.671875
49556,-2.223016,-7.401675,0.565032,0.045251,-0.091980,0.285462,100640.671875
49566,-2.359486,-7.466318,0.702698,0.037801,-0.138806,0.238104,100640.671875
49576,-2.322376,-7.465121,0.767342,0.029819,-0.181907,0.196068,100640.671875
49586,-2.282871,-7.350199,0.853533,0.026627,-0.217558,0.151371,100640.671875
49596,-2.267309,-7.247249,0.905008,0.026627,-0.243632,0.099224,100640.671875
49606,-2.181118,-7.194576,1.059434,0.022370,-0.268109,0.041224,100640.507812
49616,-2.236184,-7.176620,1.113304,0.017581,-0.297907,-0.015712,100640.507812
49626,-2.355895,-7.173028,1.154005,0.013324,-0.327705,-0.065730,100640.507812
49636,-2.430115,-7.137115,1.201889,0.013324,-0.357503,-0.124262,100640.507812
49646,-2.568978,-7.196970,1.303643,0.018113,-0.387834,-0.188648,100640.507812
49656,-2.419341,-7.266402,1.395820,0.036205,-0.428806,-0.252501,100640.359375
49666,-2.264915,-7.235278,1.371878,0.055893,-0.480953,-0.316354,100640.359375
49676,-2.073379,-7.254431,1.345541,0.069196,-0.521925,-0.372225,100640.359375
49686,-1.954866,-7.349002,1.370680,0.080370,-0.558109,-0.421180,100640.359375
49696,-2.033874,-7.405266,1.314417,0.086755,-0.596421,-0.465345,100640.359375
49706,-2.002750,-7.404069,1.321599,0.096333,-0.627283,-0.506849,100640.359375
49716,-1.916559,-7.386112,1.276109,0.103251,-0.636861,-0.560592,100640.460938
49726,-1.893813,-7.487866,1.276109,0.108040,-0.628347,-0.623381,100640.460938
49736,-1.905785,-7.589619,1.279701,0.114425,-0.609191,-0.687234,100640.460938
49746,-1.957260,-7.623138,1.203086,0.122939,-0.576200,-0.755877,100640.460938
49756,-1.958457,-7.722497,1.234211,0.133049,-0.529375,-0.824519,100640.460938
49766,-1.951274,-8.010999,1.355118,0.143691,-0.489999,-0.906464,100640.421875
49776,-1.905785,-8.342596,1.499967,0.159654,-0.447962,-0.991069,100640.421875
49786,-1.867477,-8.657434,1.489193,0.170296,-0.403797,-1.076207,100640.421875
49796,-1.765724,-8.951921,1.562217,0.166572,-0.365485,-1.168262,100640.421875
49806,-1.635240,-9.390059,1.643619,0.160186,-0.353246,-1.266170,100640.421875
49816,-1.697489,-9.992201,1.736993,0.156462,-0.370806,-1.357161,100640.421875
49826,-1.728614,-10.560823,1.826776,0.155397,-0.402200,-1.428463,100640.382812
49836,-1.890222,-11.164163,1.982399,0.153269,-0.443173,-1.492316,100640.382812
49846,-2.085350,-11.271901,3.422511,0.155397,-0.478292,-1.539674,100640.382812
49856,-6.275203,-14.265851,8.309077,0.321948,-0.581522,-1.501362,100640.382812
49866,-16.681601,-18.443733,0.087388,0.384205,-0.812457,-1.371528,100640.382812
49876,-1.502362,-19.485210,-2.768894,0.082498,-0.274494,-1.291179,100640.343750
49886,6.591237,-15.829265,2.817975,-0.180364,0.404478,-1.727509,100640.343750
49896,12.253524,-15.679626,4.739322,0.030352,0.412460,-1.628537,100640.343750
49906,3.886986,-12.401965,1.329979,0.226168,0.067120,-1.227858,100640.343750
49916,-2.868254,-10.348937,-0.276530,0.297471,-0.209577,-0.403620,100640.343750
49926,-3.774459,-9.759963,-0.995988,0.342168,-0.440512,-0.132776,100640.343750
49936,-3.903746,-8.797494,-1.711854,0.344296,-0.366549,-0.469069,100640.437500
49946,-1.825579,-9.606734,-0.706290,0.386333,-0.080806,-0.641473,100640.437500
49956,1.164779,-9.289502,1.546654,0.409214,0.081487,-0.474391,100640.437500
49966,2.179921,-8.292317,3.044227,0.387929,0.144808,-0.279106,100640.437500
49976,1.112107,-8.054094,3.699042,0.347489,0.245909,-0.176941,100640.437500
49986,0.047884,-8.149862,3.903746,0.259691,0.268258,-0.083290,100640.617188
49996,0.120907,-8.696938,3.958812,0.194773,0.121928,0.041224,100640.617188
50006,0.430956,-9.354146,3.252523,0.171893,-0.083999,0.139664,100640.617188
50016,0.256180,-9.806650,2.870648,0.156462,-0.138806,0.197664,100640.617188
50026,-0.262165,-10.159795,2.432509,0.144755,-0.059522,0.227994,100640.617188
50036,-0.924162,-10.188525,1.893813,0.127728,0.045836,0.231187,100640.617188
50046,-0.787692,-9.982624,1.748964,0.116553,0.158643,0.231719,100640.632812
50056,0.025139,-9.910798,2.056619,0.117618,0.242184,0.217884,100640.632812
50066,0.023942,-9.793482,1.999158,0.112296,0.234735,0.214160,100640.632812
50076,-0.286107,-9.980229,1.787272,0.104847,0.149065,0.245022,100640.632812
50086,-0.050278,-9.889250,1.781286,0.107507,0.068717,0.274820,100640.632812
50096,-0.092177,-9.757569,1.970428,0.125599,0.020295,0.287059,100640.523438
50106,-0.457293,-9.634268,1.873463,0.129856,-0.035045,0.300361,100640.523438
50116,-0.676362,-9.606734,1.705869,0.141030,-0.078678,0.296637,100640.523438
50126,-0.612916,-9.440337,1.868674,0.154333,-0.096237,0.268435,100640.523438
50136,-0.677559,-9.448717,2.020706,0.168700,-0.114861,0.238637,100640.523438
50146,-0.587777,-9.404425,2.190695,0.180939,-0.138806,0.210967,100640.523438
50156,-0.785298,-9.449914,2.153584,0.192645,-0.152641,0.167334,100640.421875
50176,-0.933739,-9.345766,2.185906,0.224040,-0.120182,0.093371,100640.421875
50186,-0.526724,-9.202114,2.217031,0.246388,-0.090916,0.049738,100640.421875
50196,-0.319626,-9.261970,2.298434,0.257562,-0.102623,0.046013,100640.421875
50206,-0.235829,-9.463082,2.546233,0.260755,-0.144127,0.066233,100640.609375
50216,-0.148441,-9.724051,2.758120,0.255966,-0.187228,0.104545,100640.609375
50226,-0.415394,-9.805453,2.615665,0.245324,-0.204256,0.145517,100640.609375
50236,-0.519542,-9.775525,2.558204,0.228828,-0.175522,0.168930,100640.609375
50246,-0.736217,-9.732430,2.639607,0.208076,-0.126036,0.164141,100640.609375
50256,-0.694318,-9.744401,2.627636,0.187856,-0.094641,0.167334,100640.609375
50266,-0.647632,-9.666590,2.488773,0.178278,-0.069632,0.179040,100640.632812
50276,-0.542287,-9.586384,2.670732,0.169764,-0.051008,0.188086,100640.632812
50286,-0.417788,-9.422380,2.645593,0.166040,-0.040898,0.204582,100640.632812
50296,-0.561440,-9.560047,2.573767,0.159654,-0.045687,0.229059,100640.632812
50306,-0.597353,-9.707291,2.762909,0.149012,-0.056861,0.258857,100640.632812
50316,-0.599748,-9.832987,2.806004,0.131452,-0.058990,0.289187,100640.601562
50326,-0.780510,-9.696517,2.883816,0.105379,-0.039302,0.327499,100640.601562
50336,-0.891840,-9.658210,2.785654,0.080902,-0.001522,0.356765,100640.601562
50356,-0.865504,-9.472659,2.673126,0.036737,0.105964,0.378581,100640.601562
50366,-0.854730,-9.603143,2.619257,0.012792,0.176735,0.394013,100640.601562
50376,-0.931344,-9.736021,2.559402,-0.002107,0.203873,0.414765,100640.562500
50386,-1.034295,-9.673772,2.497152,-0.012217,0.223028,0.433389,100640.562500
50396,-0.885855,-9.466674,2.659958,-0.012217,0.235267,0.441370,100640.562500
50406,-0.451307,-9.390059,2.803610,-0.001575,0.228882,0.439242,100640.562500
50416,-1.169568,-9.579201,2.522291,-0.003171,0.200148,0.440306,100640.562500
50426,-1.509544,-9.557653,2.287660,-0.002107,0.173542,0.433921,100640.742188
50436,-1.422156,-9.494206,2.448071,0.014388,0.180460,0.381774,100640.742188
50446,-1.395820,-9.464279,2.519897,0.023966,0.192698,0.326967,100640.742188
50456,-1.338359,-9.333796,2.628834,0.028755,0.193230,0.298765,100640.742188
50466,-1.295263,-9.346964,2.630031,0.030884,0.187909,0.290251,100640.742188
50476,-1.333570,-9.428367,2.559402,0.027691,0.194295,0.288123,100640.742188
50486,-1.209072,-9.475053,2.644396,0.026627,0.216643,0.291315,100640.828125
50496,-1.218649,-9.593566,2.619257,0.026627,0.244313,0.300893,100640.828125
50506,-1.250970,-9.524135,2.681506,0.021306,0.250698,0.327499,100640.828125
50516,-1.240196,-9.493010,2.692280,0.017581,0.249102,0.363150,100640.828125
50526,-1.291672,-9.572019,2.649184,0.009067,0.241652,0.396673,100640.828125
50536,-1.404199,-9.574412,2.595315,0.001086,0.250166,0.429664,100640.828125
50546,-1.529895,-9.587581,2.571373,-0.002107,0.274643,0.448820,100640.968750
50556,-1.495179,-9.560047,2.725799,-0.010621,0.294331,0.467976,100640.968750
50581,-1.533486,-9.576807,2.841918,-0.027648,0.292203,0.532361,100640.968750
50601,-1.757344,-9.789890,2.718616,-0.065428,0.334239,0.609517,100640.945312
50616,-1.693898,-9.750386,2.710236,-0.081924,0.365102,0.645168,100640.945312
50626,-1.735796,-9.843760,2.740164,-0.098419,0.378937,0.703168,100640.945312
50641,-1.739388,-10.104729,2.625242,-0.121300,0.382661,0.763297,100640.945312
50651,-2.096124,-10.202890,2.389413,-0.149502,0.390643,0.819168,100640.921875
50661,-2.054225,-10.224439,2.343924,-0.172382,0.406074,0.863866,100640.921875
50676,-2.148796,-10.315418,2.325967,-0.198988,0.426827,0.927719,100640.921875
50686,-2.218228,-10.402806,2.466028,-0.236768,0.451836,1.006471,100640.921875
50701,-2.285265,-10.685322,2.446874,-0.279336,0.459817,1.092673,100640.921875
50711,-2.450465,-10.740389,2.365471,-0.313391,0.465671,1.182067,100640.921875
50721,-2.558204,-10.660183,2.236184,-0.332547,0.464074,1.247517,100641.078125
50731,-2.317587,-10.739192,2.317587,-0.358089,0.473652,1.315627,100641.078125
50746,-2.284068,-11.253945,2.286463,-0.402786,0.455560,1.393315,100641.078125
50761,-2.305616,-12.198458,1.826776,-0.490584,0.369359,1.514104,100641.078125
50771,-1.930924,-12.768278,2.486378,-0.585832,0.257084,1.642342,100641.078125
50781,-1.885434,-12.676101,2.072181,-0.608712,0.196423,1.759406,100641.164062
50791,-2.200271,-12.986150,1.383849,-0.632657,0.194827,1.874874,100641.164062
50826,-1.057040,-14.261063,1.959654,-0.752914,0.248038,2.168067,100641.164062
50836,-0.102951,-15.586253,2.628834,-0.827409,0.289010,2.396874,100641.296875
50851,1.021127,-17.064672,3.827132,-0.860400,0.388515,2.504360,100641.296875
50861,2.426523,-17.076643,6.509834,-0.820492,0.590716,2.538947,100641.296875
50871,3.945644,-15.800534,7.024588,-0.669373,0.823780,2.613975,100641.296875
50886,0.946907,-15.022419,5.063736,-0.521978,0.981285,2.805534,100641.296875
50901,-4.728549,-14.951790,3.938462,-0.436309,0.700331,3.137571,100641.390625
50916,-4.120421,-14.918271,3.222595,-0.397465,0.415120,3.443002,100641.390625
50931,-2.703054,-13.755886,3.787627,-0.258584,0.342753,3.298268,100641.390625
50946,-1.283292,-12.512098,2.838326,-0.040951,0.322001,3.265277,100641.468750
50956,1.364695,-8.647857,0.219069,0.003746,0.193762,3.193974,100641.468750
50966,-1.732205,-6.101623,-0.203507,-0.147905,0.232074,2.665057,100641.468750
50976,-2.215834,-8.115147,1.529895,-0.234107,0.386386,2.091975,100641.468750
50986,2.001553,-9.248801,1.823185,-0.178768,0.537505,1.555076,100641.468750
50996,4.426879,-7.740454,1.370680,-0.144713,0.723744,0.879829,100641.468750
51006,4.972757,-5.857414,0.949301,-0.123428,0.890826,0.336545,100641.367188
51016,4.606444,-4.922479,0.338780,-0.084052,0.869542,0.001316,100641.367188
51036,3.421314,-4.256891,0.131681,-0.068621,0.623175,-0.427033,100641.367188
51046,2.979584,-4.054581,0.228646,-0.109593,0.237395,-0.857509,100641.367188
51056,2.687491,-4.361038,0.525527,-0.152162,-0.089852,-1.180500,100641.242188
51066,2.177526,-5.043386,0.913388,-0.185685,-0.427210,-1.527436,100641.242188
51076,1.644817,-5.643134,0.961272,-0.201648,-0.720402,-1.874371,100641.242188
51086,1.114501,-5.651513,1.051055,-0.200584,-0.906108,-2.207472,100641.242188
51096,0.888249,-5.844246,0.739808,-0.175575,-0.983796,-2.523545,100641.242188
51106,0.324414,-6.295553,0.839168,-0.159612,-0.990714,-2.814077,100641.242188
51116,0.005986,-6.976704,1.070208,-0.167593,-0.984329,-3.071618,100640.953125
51126,-0.067038,-7.587225,1.474828,-0.187281,-0.977943,-3.323306,100640.953125
51136,-0.359130,-8.482656,1.759738,-0.175043,-0.989118,-3.573398,100640.953125
51146,-0.995988,-9.082404,1.604115,-0.137795,-0.994971,-3.826150,100640.953125
51156,-1.669956,-9.358934,1.304840,-0.085116,-0.958255,-4.072516,100640.953125
51166,-1.964442,-9.674969,1.353921,-0.051061,-0.831613,-4.307709,100640.601562
51176,-1.669956,-10.012551,1.540669,-0.020731,-0.661870,-4.540241,100640.601562
51186,-0.986411,-10.506954,1.861492,0.022370,-0.575668,-4.753085,100640.601562
51196,-1.059434,-11.207258,2.349909,0.063342,-0.607063,-4.911654,100640.601562
51211,-1.241394,-12.728773,2.844312,0.122939,-0.812989,-5.051066,100640.601562
51226,-1.537078,-13.787010,3.239355,0.208076,-1.033283,-5.160681,100640.468750
51236,-2.224213,-14.765042,3.479972,0.314498,-1.247191,-5.267103,100640.468750
51246,-3.143587,-15.682021,3.758897,0.392186,-1.391392,-5.341066,100640.468750
51256,-4.200627,-16.254236,3.736152,0.454975,-1.528145,-5.390553,100640.468750
51266,-4.657919,-16.733076,3.751714,0.502333,-1.613814,-5.404387,100640.468750
51276,-5.291186,-17.187975,3.141193,0.519893,-1.678200,-5.412901,100640.375000
51296,-6.266823,-17.988834,2.124854,0.423581,-1.478126,-5.374057,100640.375000
51306,-6.896498,-18.335993,2.571373,0.295874,-1.157264,-5.258589,100640.375000
51316,-7.497443,-18.229452,3.776853,0.220315,-0.891209,-5.100553,100640.375000
51326,-8.481460,-17.612946,5.003881,0.212865,-0.686879,-4.889305,100640.375000
51346,-11.343728,-15.334862,5.541380,0.368241,-0.312274,-4.374755,100640.250000
51356,-13.718776,-13.773843,4.534618,0.551287,0.042111,-3.922462,100640.250000
51366,-16.103401,-12.731168,3.299210,0.679525,0.403414,-3.506352,100640.250000
51376,-17.870321,-11.373655,1.887828,0.755617,0.774826,-2.974774,100640.250000
51391,-18.656816,-10.186131,0.275333,0.686975,1.109523,-2.066995,100640.125000
51401,-17.964893,-9.290700,0.320823,0.467214,1.217010,-1.008629,100640.125000
51411,-16.754623,-9.065644,1.571793,0.277783,1.114312,-0.161510,100640.125000
51421,-16.332047,-8.912416,2.597709,0.155929,0.912643,0.626013,100640.125000
51431,-15.246277,-8.898050,3.110068,0.108040,0.675854,1.385865,100640.125000
51441,-10.700885,-10.500969,3.721786,0.108040,0.435872,2.049938,100640.007812
51456,8.323442,-14.844050,0.620098,-0.009557,0.085212,2.201057,100640.007812
51466,38.777687,-17.378313,-3.351882,-0.195795,0.205469,1.443865,100640.007812
51476,30.499735,-13.006501,-2.518700,-0.177171,1.767743,-0.000281,100640.007812
51491,-8.374918,-11.336545,2.371457,-0.158547,0.566239,1.154397,100640.007812
51501,-15.526398,-15.625757,-1.228225,0.355471,-2.560970,3.424378,100640.148438
51511,-8.661025,-14.267048,-5.941212,0.172425,-2.567355,3.299332,100640.148438
51521,-5.596447,-13.783420,1.060631,0.127196,-0.330366,2.221810,100640.148438
51531,-3.250129,-13.497313,7.806294,0.450718,0.465671,1.861039,100640.148438
51541,-1.436521,-13.013683,6.627151,0.587470,-0.189889,2.097828,100640.148438
51551,-0.912191,-12.520478,2.201468,0.375691,-0.734769,2.002581,100640.156250
51561,-0.900220,-9.951499,1.835156,0.308113,-0.775742,1.804103,100640.156250
51576,0.070629,-9.488221,2.297236,0.374627,-0.623026,1.796654,100640.156250
51586,-1.929727,-10.150218,1.673547,0.189452,-0.355375,1.574232,100640.156250
51596,-2.754529,-11.218032,0.975637,0.047911,0.109689,1.298067,100640.156250
51606,-1.420959,-10.819398,0.967257,-0.028181,0.659891,1.056489,100640.093750
51616,-0.453701,-9.803059,0.875081,-0.039887,1.004166,0.802673,100640.093750
51626,0.517148,-9.774328,1.699883,-0.000511,1.068551,0.654746,100640.093750
51636,1.672350,-9.709685,2.329558,0.092076,0.884441,0.619627,100640.093750
51646,2.537854,-9.836577,2.758120,0.180939,0.540698,0.658471,100640.093750
51656,1.584962,-9.710882,2.595315,0.267140,0.109157,0.723389,100640.093750
51666,0.858321,-9.589975,2.310405,0.331526,-0.194678,0.788306,100639.992188
51686,0.385466,-9.591172,2.643199,0.326205,-0.179779,0.737756,100639.992188
51696,0.167594,-9.520543,3.083732,0.266608,0.056478,0.632398,100639.992188
51706,0.002394,-9.375694,3.283648,0.208076,0.348606,0.547260,100639.992188
51721,0.292093,-9.202114,3.355474,0.130388,0.712037,0.464783,100639.898438
51731,0.815226,-8.916007,2.967613,0.088352,0.920624,0.427003,100639.898438
51741,1.204283,-9.149442,2.662352,0.093140,0.905193,0.498838,100639.898438
51756,1.401805,-9.783905,2.466028,0.138902,0.632753,0.654746,100639.898438
51776,0.499191,-9.740809,2.691083,0.194241,0.259212,0.851095,100640.085938
51786,-0.351948,-9.433155,3.087323,0.195306,0.223561,0.943150,100640.085938
51796,-0.483629,-9.290700,3.256114,0.168700,0.383726,0.901645,100640.085938
51806,-0.069432,-9.325416,3.351882,0.135177,0.523670,0.845774,100640.085938
51816,-0.055067,-9.479841,3.119645,0.097929,0.549744,0.830343,100640.085938
51826,0.090980,-9.678560,2.827552,0.076113,0.499726,0.873444,100639.914062
51841,-0.083797,-9.746795,2.700660,0.102186,0.365102,0.936232,100639.914062
51856,-0.657208,-9.739613,2.598906,0.113361,0.289542,0.964966,100639.914062
51865,-0.871489,-9.878476,2.577358,0.116553,0.292735,0.958049,100639.914062
51881,-0.900220,-9.771935,2.657564,0.113893,0.321469,0.943682,100639.851562
51891,-0.896629,-9.718064,2.766500,0.114957,0.348074,0.955388,100639.851562
51901,-0.973243,-9.686940,2.767697,0.114957,0.364570,0.990508,100639.851562
51915,-0.802058,-9.676167,2.894590,0.103783,0.386918,1.074581,100639.851562
51936,-1.049857,-10.030508,2.894590,0.079838,0.414056,1.173021,100639.789062
51951,-1.552640,-10.121488,2.875436,0.057489,0.446515,1.285296,100639.789062
51961,-1.606509,-10.135853,2.910152,0.040994,0.481102,1.364049,100639.789062
51975,-1.726219,-10.308235,2.665944,0.020774,0.510368,1.413535,100639.789062
51986,-2.105700,-10.471041,2.524686,-0.011685,0.536441,1.454507,100639.789062
52000,-2.031480,-10.702082,2.584541,-0.039887,0.573689,1.547627,100639.984375
52010,-1.879448,-11.046846,2.296039,-0.077135,0.590184,1.614672,100639.984375
52020,-2.025495,-11.049241,2.088941,-0.114914,0.575285,1.686507,100639.984375
52035,-2.062605,-11.621455,2.019509,-0.173979,0.526331,1.807828,100639.984375
52046,-2.112883,-12.364855,1.808819,-0.229850,0.479505,1.922764,100640.125000
52056,-2.273294,-12.685678,1.669956,-0.265501,0.440129,2.004177,100640.125000
52065,-2.273294,-12.513295,2.242170,-0.299556,0.405542,2.091443,100640.125000
52075,-2.176329,-12.644977,2.590526,-0.325098,0.391707,2.185094,100640.125000
52085,-2.749741,-12.933477,2.722207,-0.345318,0.402349,2.273957,100640.125000
52095,-2.390610,-13.066356,2.916138,-0.374584,0.440129,2.394745,100640.125000
52105,-1.900996,-13.346478,2.286463,-0.413960,0.509836,2.516598,100640.148438
52115,-1.431733,-14.614207,2.048239,-0.491116,0.596037,2.626213,100640.148438
52131,-0.092177,-16.180016,3.155558,-0.631061,0.688625,2.747534,100640.148438
52155,2.870648,-19.733011,4.129998,-0.748657,1.301615,2.851828,100640.148438
52166,6.223727,-20.017920,5.449203,-0.758767,1.691651,2.876305,100640.156250
52185,11.696873,-18.314445,6.588843,-0.723648,2.092862,2.915149,100640.156250
52195,4.939238,-16.279375,5.878962,-0.722584,1.497431,2.985387,100640.156250
52205,-4.515464,-14.847642,4.315548,-0.668841,0.358184,3.406818,100640.156250
52215,-10.958261,-15.647305,3.314772,-0.594877,-0.590035,4.161882,100640.156250
52225,-8.161834,-14.659697,5.221754,-0.377245,-0.894402,4.680689,100640.273438
52235,-7.831434,-13.547590,2.524686,-0.115979,-0.840659,4.227332,100640.273438
52245,-3.697845,-13.339294,0.857124,-0.166529,-0.561833,3.538781,100640.273438
52255,3.063381,-9.083601,2.622848,-0.410235,-0.229265,2.930580,100640.273438
52265,2.017115,-6.773197,3.392584,-0.622015,-0.039834,1.997791,100640.273438
52275,1.686715,-9.388862,4.191050,-0.583703,0.003267,1.248049,100640.375000
52285,5.566519,-8.402451,1.563414,-0.370327,-0.006311,0.811719,100640.375000
52295,5.619191,-5.764040,-0.208296,-0.374584,0.312423,0.276949,100640.375000
52305,4.170700,-4.388572,-0.128090,-0.383630,0.799303,-0.199290,100640.375000
52315,3.647566,-3.362656,0.027533,-0.360749,0.949890,-0.554739,100640.375000
52325,3.703830,-2.755726,0.274136,-0.358621,0.820588,-0.856977,100640.375000
52335,3.326743,-2.773683,0.463278,-0.367134,0.584863,-1.206573,100640.351562
52345,2.627636,-3.432088,0.752976,-0.371923,0.323065,-1.625344,100640.351562
52356,2.240973,-4.060566,0.786495,-0.355428,0.035194,-2.046243,100640.351562
52366,1.836353,-4.929661,0.550666,-0.338933,-0.275558,-2.412334,100640.351562
52375,1.602918,-5.408502,0.536301,-0.310199,-0.544274,-2.750756,100640.351562
52385,1.350330,-5.431247,0.787692,-0.270823,-0.757650,-3.078003,100640.351562
52395,1.412579,-5.821501,1.121683,-0.250070,-0.891209,-3.372792,100640.328125
52405,1.231817,-6.042965,1.583764,-0.237300,-0.976879,-3.642572,100640.328125
52415,0.873884,-6.661866,2.061408,-0.208034,-1.118952,-3.848498,100640.328125
52431,0.038307,-7.795521,2.221819,-0.201116,-1.324879,-4.066131,100640.328125
52440,-1.485602,-9.076419,2.078167,-0.234107,-1.433961,-4.293874,100640.328125
52450,-2.229002,-10.344149,2.120066,-0.261777,-1.382879,-4.500865,100640.179688
52460,-2.349909,-11.070788,1.714248,-0.256456,-1.238677,-4.738186,100640.179688
52470,-2.085350,-11.513716,1.909376,-0.259648,-1.064145,-4.972314,100640.179688
52480,-1.832761,-12.175713,2.090138,-0.269226,-0.984329,-5.161213,100640.179688
52490,-1.776498,-13.122620,2.424129,-0.253795,-0.998696,-5.309140,100640.179688
52501,-2.470816,-14.507666,2.686294,-0.221868,-1.080108,-5.419286,100640.007812
52510,-2.796427,-15.251065,3.051410,-0.196859,-1.149815,-5.503360,100640.007812
52520,-3.551798,-16.229095,3.825934,-0.187281,-1.171631,-5.576259,100640.007812
52530,-4.589684,-16.971298,4.396951,-0.175043,-1.199301,-5.643304,100640.007812
52540,-5.410896,-17.308882,4.633977,-0.150034,-1.202494,-5.702901,100640.007812
52555,-5.955577,-17.526754,4.558560,-0.102676,-1.064145,-5.772075,100639.820312
52565,-6.257246,-17.872715,4.566940,-0.075006,-0.889613,-5.783249,100639.820312
52575,-6.483498,-18.306067,4.745308,-0.031373,-0.666127,-5.746534,100639.820312
52585,-7.016208,-18.517954,4.797980,0.036737,-0.466054,-5.631066,100639.820312
52595,-7.817069,-18.430565,4.802769,0.119746,-0.295779,-5.426736,100639.820312
52610,-9.380483,-17.599777,4.496311,0.288425,-0.034513,-5.073947,100639.640625
52620,-10.975020,-16.655264,3.782839,0.425177,0.160772,-4.840883,100639.640625
52635,-14.240712,-14.477737,3.355474,0.588535,0.377340,-4.304516,100639.640625
52655,-18.059464,-11.640609,1.496376,0.713580,0.420441,-3.160480,100639.640625
52665,-21.416134,-9.613917,0.080206,0.654516,0.386918,-2.069123,100639.414062
52675,-22.294806,-8.650250,0.083797,0.494351,0.385322,-1.076739,100639.414062
52685,-19.213469,-8.628703,1.438915,0.290021,0.329983,-0.083822,100639.414062
52695,-16.652870,-8.787917,2.913743,0.125599,0.126717,0.782985,100639.414062
52705,-16.001648,-8.657434,3.651158,0.050040,-0.167540,1.568379,100639.414062
52715,-9.224859,-11.082760,5.043386,0.064407,-0.391026,2.168067,100639.414062
52730,4.143166,-14.453795,-0.359130,-0.032970,-0.495852,2.207975,100639.210938
52740,33.791763,-19.075802,-4.100070,-0.396400,-0.118054,1.556140,100639.210938
52750,14.288596,-15.559916,-1.586159,-0.203777,1.860330,0.644636,100639.210938
52760,-16.267403,-14.896723,3.329138,-0.069685,1.101010,1.768984,100639.210938
52770,-15.874754,-18.895041,-0.143652,0.328333,-1.494622,3.806433,100639.210938
52780,-6.150704,-13.831304,-2.789245,0.298003,-1.629246,3.773442,100639.367188
52790,-4.522647,-10.849325,5.847837,0.313966,0.322533,2.675699,100639.367188
52800,-2.049437,-11.457452,10.514136,0.548626,0.396496,2.461791,100639.367188
52810,0.715866,-13.043611,6.288371,0.581085,-0.634200,2.637920,100639.367188
52820,-0.257377,-10.886436,1.272518,0.369838,-1.090218,2.433589,100639.367188
52840,-2.069787,-10.234015,1.149217,0.396975,-0.808732,2.033443,100639.562500
52850,-3.195062,-11.115082,-0.278924,0.288425,-0.431467,1.680654,100639.562500
52860,-2.992752,-11.733982,0.336385,0.129324,0.142148,1.463553,100639.562500
52870,-1.417367,-10.394426,0.615310,0.108572,0.701927,1.266140,100639.562500
52880,-0.683545,-9.576807,0.973243,0.106443,1.141982,0.995829,100639.562500
52895,0.494403,-9.660604,1.637634,0.095269,1.322367,0.719664,100639.640625
52910,1.962048,-10.272323,2.336741,0.229361,0.815799,0.686673,100639.640625
52920,1.699883,-10.131064,2.694674,0.326205,0.344350,0.771811,100639.640625
52940,0.725443,-9.566033,2.725799,0.324076,-0.134017,0.980398,100639.703125
52960,-0.202310,-9.550470,2.446874,0.270333,-0.064311,0.843645,100639.703125
52975,-0.350751,-9.512163,2.885013,0.223507,0.273047,0.662196,100639.703125
52985,-0.112527,-9.208099,3.066972,0.191049,0.590184,0.519058,100639.703125
53000,0.518345,-9.320627,2.384625,0.169764,0.751946,0.454673,100639.773438
53015,0.464475,-9.722853,1.601721,0.201159,0.572625,0.588765,100639.773438
53025,0.191536,-9.980229,1.407791,0.225636,0.358716,0.713278,100639.773438
53035,-0.027533,-9.871294,1.923741,0.251177,0.204937,0.820765,100639.773438
53045,-0.500388,-9.609129,2.580950,0.257030,0.198551,0.865994,100639.773438
53055,-0.509965,-9.332599,3.219004,0.248517,0.315616,0.814911,100639.875000
53065,-0.295684,-9.206903,3.605668,0.228296,0.452368,0.728710,100639.875000
53080,-0.298078,-9.578004,2.924517,0.166572,0.506111,0.716471,100639.875000
53090,-0.573411,-9.850943,2.492364,0.132517,0.467267,0.772875,100639.875000
53100,-0.508768,-9.986216,2.359486,0.125067,0.428423,0.819700,100639.875000
53110,-0.608127,-9.890448,2.695871,0.129856,0.417781,0.847370,100639.820312
53125,-0.573411,-9.955091,2.588132,0.134645,0.422570,0.900049,100639.820312
53135,-0.488417,-10.186131,2.755726,0.130388,0.414588,0.957517,100639.820312
53145,-0.993594,-10.230424,2.576161,0.125599,0.409267,1.023498,100639.820312
53155,-1.298854,-9.973047,2.427721,0.113361,0.427359,1.062875,100639.820312
53170,-1.033098,-9.969456,2.725799,0.109636,0.470459,1.075113,100639.843750
53180,-1.361104,-9.861717,2.711433,0.114425,0.497597,1.113957,100639.843750
53190,-1.478420,-10.055647,2.491167,0.100590,0.510368,1.168232,100639.843750
53200,-1.568202,-10.198102,2.482787,0.081434,0.516221,1.225168,100639.843750
53210,-1.605312,-10.296265,2.810793,0.064407,0.541230,1.277315,100639.843750
53220,-1.735796,-10.637438,2.390610,0.051636,0.565707,1.325737,100639.867188
53230,-1.521515,-10.771513,2.899378,0.031416,0.583799,1.389590,100639.867188
53240,-1.711854,-11.116279,2.675520,0.010663,0.568900,1.450251,100639.867188
53255,-1.832761,-11.190498,2.382231,-0.030841,0.571028,1.564122,100639.867188
53265,-1.631648,-11.417948,1.972822,-0.070217,0.561982,1.650324,100639.867188
53275,-1.875857,-11.499351,1.721431,-0.122896,0.501854,1.760471,100639.976562
53295,-1.883040,-12.030864,1.987187,-0.219208,0.385322,1.993535,100639.976562
53305,-2.029086,-12.076353,2.513912,-0.278272,0.335304,2.149975,100639.976562
53315,-2.183512,-12.229582,2.831144,-0.314456,0.338496,2.279810,100639.976562
53330,-2.100912,-13.196839,2.920926,-0.348511,0.405542,2.413369,100640.000000
53340,-3.142390,-14.413095,2.488773,-0.370859,0.494404,2.554910,100640.000000
53350,-0.976834,-15.023616,1.942895,-0.410767,0.561450,2.692727,100640.000000
53360,0.009577,-15.959748,3.454833,-0.539006,0.607744,2.822562,100640.000000
53375,1.848324,-17.948133,3.790021,-0.636914,0.689689,3.029552,100640.000000
53385,1.647211,-19.484013,4.431667,-0.684272,0.856239,3.068928,100639.968750
53395,3.605668,-21.270088,5.210980,-0.685336,1.239358,3.045516,100639.968750
53405,6.629545,-21.780052,6.221333,-0.650217,1.868844,2.957186,100639.968750
53420,11.155783,-19.436129,7.486669,-0.611373,2.622311,2.850764,100639.968750
53430,6.281188,-15.872360,6.519411,-0.677887,2.595706,2.870984,100639.968750
53440,-3.172317,-15.322891,4.899734,-0.635318,1.489982,3.330194,100640.039062
53455,-6.331466,-16.047136,4.727351,-0.454400,-0.037705,4.516799,100640.039062
53465,-6.380548,-14.312538,3.827132,-0.212290,-0.182971,4.414102,100640.039062
53475,-5.385756,-14.040796,1.186327,-0.047336,0.014974,3.751625,100640.039062
53485,1.051055,-11.311406,0.843956,-0.176107,0.304973,3.205681,100640.039062
53500,1.804031,-7.885303,3.602077,-0.433116,0.683836,2.140929,100640.109375
53510,3.617639,-9.732430,4.532224,-0.437905,0.496001,1.221975,100640.109375
53520,7.758410,-7.102399,0.744597,-0.226125,0.263469,0.696783,100640.109375
53530,6.530185,-4.771644,-1.121683,-0.203777,0.560918,0.077407,100640.109375
53540,4.037821,-3.665523,-1.428141,-0.203245,0.956808,-0.410537,100640.109375
53555,3.779247,-3.132813,-1.018733,-0.164401,0.993523,-0.792060,100640.132812
53565,3.687071,-2.886210,-0.053870,-0.118107,0.796643,-1.173583,100640.132812
53575,3.284845,-2.691083,0.481235,-0.073942,0.498129,-1.508280,100640.132812
53585,3.175909,-3.142390,0.657208,-0.043612,0.102772,-1.868518,100640.132812
53595,3.120842,-4.235343,0.292093,-0.028181,-0.294714,-2.259087,100640.132812
53605,3.069367,-5.146337,0.159214,-0.006896,-0.652824,-2.653912,100640.156250
53615,2.650381,-5.694609,0.062249,0.030352,-1.001888,-3.027453,100640.156250
53625,1.835156,-6.111200,0.076614,0.060150,-1.290824,-3.345123,100640.156250
53635,1.502362,-6.368577,0.526724,0.058553,-1.465888,-3.603196,100640.156250
53645,1.462857,-6.974309,1.266533,0.024498,-1.584548,-3.844774,100640.156250
53655,0.896629,-7.615956,1.628057,0.001086,-1.734603,-4.094865,100640.156250
53665,-0.325611,-8.593987,1.501164,-0.023924,-1.892108,-4.321544,100640.015625
53675,-1.400608,-9.703699,1.320402,-0.063300,-1.953833,-4.531195,100640.015625
53690,-1.983596,-11.213243,1.019930,-0.127685,-1.824530,-4.867488,100640.015625
53700,-1.341950,-11.965023,0.974440,-0.160676,-1.656383,-5.095764,100640.015625
53710,-1.079785,-12.806585,1.313220,-0.210162,-1.508457,-5.312864,100640.015625
53720,-1.705869,-13.640965,1.962048,-0.244749,-1.493025,-5.486864,100639.890625
53730,-2.592921,-14.842854,2.346318,-0.247410,-1.565392,-5.607653,100639.890625
53740,-3.244143,-16.038757,2.826355,-0.253263,-1.533466,-5.712479,100639.890625
53750,-3.736152,-17.470490,3.811569,-0.285190,-1.365319,-5.811451,100639.890625
53765,-5.388151,-18.723854,5.297171,-0.283593,-1.165246,-5.904571,100639.890625
53775,-7.588422,-19.102139,5.758055,-0.204841,-1.047117,-5.896057,100639.773438
53785,-8.537724,-19.093758,5.540183,-0.126621,-0.937503,-5.781121,100639.773438
53795,-8.720880,-19.025524,5.471948,-0.011153,-0.725723,-5.683213,100639.773438
53805,-9.251195,-18.960880,5.284003,0.139434,-0.472971,-5.620424,100639.773438
53815,-9.397242,-18.422186,5.103241,0.266076,-0.217026,-5.479415,100639.773438
53825,-9.849746,-17.469294,4.827908,0.385269,-0.018549,-5.241562,100639.742188
53844,-11.275493,-16.183607,4.007894,0.525214,0.146937,-4.833434,100639.742188
53856,-14.393941,-14.495694,2.858677,0.653984,0.324129,-4.156058,100639.742188
53865,-15.753847,-13.129802,2.296039,0.670480,0.391707,-3.665985,100639.742188
53875,-16.893488,-11.690886,1.963245,0.662498,0.415652,-3.032242,100639.742188
53890,-19.176359,-9.858126,1.648408,0.592792,0.330515,-2.020169,100639.773438
53900,-20.983980,-8.421604,1.581370,0.479984,0.215047,-0.870280,100639.773438
53910,-19.798851,-8.312668,1.788469,0.351746,0.144808,0.067297,100639.773438
53920,-16.997635,-8.910022,2.495955,0.209673,0.103836,0.902177,100639.773438
53935,-11.384429,-10.732009,3.707421,0.144223,0.038919,1.579021,100639.835938
53945,-4.474763,-12.677298,0.714669,0.052700,-0.067503,2.056856,100639.835938
53955,17.288530,-18.720263,-6.083666,-0.403318,-0.292054,2.010562,100639.835938
53965,23.795971,-18.595764,-1.765724,-0.524107,1.060037,1.212929,100639.835938
53975,-6.351817,-16.145300,1.782483,-0.118107,1.745395,1.486966,100639.835938
53985,-16.180016,-17.981651,-1.303643,0.118682,-0.437320,3.330726,100639.835938
53995,-6.543353,-15.874754,0.056264,0.211801,-1.419594,4.026194,100639.890625
54005,-5.199009,-9.926360,5.948394,0.386865,-0.291522,2.930580,100639.890625
54015,-4.675876,-11.731588,8.219295,0.546498,0.067652,2.500635,100639.890625
54025,-0.105345,-14.428657,5.261258,0.431030,-0.744347,2.739552,100639.890625
54035,-0.073023,-9.787497,1.965640,0.336315,-1.076916,2.533626,100639.890625
54045,-1.504756,-8.872911,0.760159,0.403893,-0.963576,2.216489,100640.031250
54055,-2.913743,-10.613496,0.851139,0.334186,-0.767228,1.946177,100640.031250
54065,-3.993528,-11.951855,-0.511162,0.177214,-0.343136,1.614672,100640.031250
54075,-3.059790,-11.669339,0.266953,0.060682,0.328386,1.345957,100640.031250
54085,-0.891840,-10.165780,1.082179,0.049507,0.857835,1.143755,100640.031250
54095,-0.106542,-9.393650,1.403002,0.034608,1.185083,0.905902,100640.031250
54105,0.497994,-9.406818,1.940500,0.027159,1.255854,0.736691,100640.062500
54115,1.185130,-9.773131,2.211045,0.084095,1.019065,0.684012,100640.062500
54125,2.002750,-10.091560,2.377442,0.195838,0.590184,0.680288,100640.062500
54135,1.468843,-10.041282,2.516306,0.295342,0.188441,0.718067,100640.062500
54145,0.968455,-9.737218,2.596512,0.311306,-0.083467,0.833003,100640.062500
54155,0.602142,-9.427169,2.376245,0.288957,-0.195210,0.870251,100640.062500
54165,0.141258,-9.525331,2.398990,0.280443,-0.168072,0.790434,100640.062500
54175,-0.280122,-9.661801,2.913743,0.249049,0.010185,0.669645,100640.062500
54185,-0.258574,-9.393650,3.564966,0.207012,0.312955,0.545132,100640.062500
54195,0.189142,-9.008183,3.458424,0.154865,0.612001,0.439242,100640.062500
54205,0.478840,-9.084799,2.938883,0.134645,0.755138,0.390820,100640.062500
54215,0.647632,-9.391256,1.968034,0.137306,0.721615,0.424875,100639.992188
54225,0.773327,-9.624691,1.416170,0.168168,0.572092,0.535022,100639.992188
54235,0.541090,-9.818622,1.820790,0.221911,0.363505,0.680288,100639.992188
54245,0.420182,-9.635465,2.784456,0.265544,0.227817,0.793627,100639.992188
54255,0.001197,-9.398438,3.276465,0.266608,0.235799,0.823425,100639.992188
54265,-0.326809,-9.425972,3.499126,0.229361,0.335304,0.810655,100639.921875
54275,-0.295684,-9.317036,3.280056,0.192645,0.439065,0.791499,100639.921875
54285,-0.509965,-9.447520,2.946065,0.158590,0.498129,0.809058,100639.921875
54295,-0.307655,-9.549273,2.865860,0.131985,0.490680,0.862269,100639.921875
54305,-0.152032,-9.806650,2.414552,0.109636,0.455560,0.921333,100639.921875
54315,-0.435745,-10.087969,2.316390,0.091544,0.417781,0.991040,100639.921875
54335,-0.617704,-10.072407,2.443283,0.087287,0.377340,1.138434,100640.023438
54345,-0.766145,-10.111911,2.607286,0.075581,0.386918,1.234746,100640.023438
54355,-0.864307,-10.175357,2.624045,0.066535,0.400753,1.286893,100640.023438
54365,-1.197101,-10.303447,2.584541,0.055893,0.424166,1.322544,100640.023438
54375,-1.424550,-10.308235,2.567781,0.039930,0.448643,1.342232,100640.039062
54385,-1.321599,-10.163386,2.756923,0.035673,0.470992,1.357663,100640.039062
54395,-1.491588,-10.344149,2.669535,0.027159,0.497065,1.369370,100640.039062
54405,-1.778892,-10.540473,2.376245,0.011728,0.535377,1.380012,100640.039062
54415,-1.832761,-10.625467,2.187103,-0.001575,0.571560,1.398104,100640.039062
54425,-1.695095,-10.727221,2.197877,-0.009025,0.596570,1.424177,100640.039062
54435,-1.826776,-10.656591,2.269703,-0.020199,0.589652,1.473663,100639.914062
54445,-1.787272,-11.192893,2.260126,-0.047869,0.564643,1.556140,100639.914062
54455,-1.814805,-11.258734,2.449268,-0.076070,0.551340,1.637021,100639.914062
54465,-1.845930,-11.724405,2.025495,-0.102144,0.547615,1.714709,100639.914062
54475,-2.042254,-11.727997,1.567005,-0.142052,0.519414,1.807828,100639.914062
54485,-2.009932,-11.744757,1.321599,-0.185153,0.472588,1.932342,100639.796875
54495,-1.978808,-12.132617,1.223437,-0.244217,0.417249,2.060048,100639.796875
54505,-1.970428,-12.348095,1.619677,-0.306474,0.353395,2.195204,100639.796875
54515,-1.915361,-12.719196,2.088941,-0.364474,0.311359,2.343663,100639.796875
54525,-2.050634,-13.152547,2.634819,-0.418749,0.296992,2.493186,100639.796875
54535,-2.491167,-14.082694,3.227384,-0.447483,0.328918,2.638452,100639.796875
54545,-1.717840,-14.488512,3.049016,-0.446419,0.383726,2.784782,100640.000000
54555,-0.430956,-15.222335,2.470816,-0.496437,0.511432,2.913553,100640.000000
54565,-0.013168,-16.883911,3.230975,-0.625208,0.567303,3.039662,100640.000000
54575,1.881842,-18.370710,4.110844,-0.710345,0.652973,3.152470,100640.000000
54585,2.239776,-20.159178,3.961207,-0.746529,0.916367,3.155130,100640.000000
54595,3.982754,-22.063766,4.950012,-0.756107,1.414954,3.072653,100640.140625
54605,8.409634,-22.238543,6.042965,-0.722584,2.137559,2.981663,100640.140625
54615,13.479356,-20.655975,6.728904,-0.667244,2.884641,2.900782,100640.140625
54625,9.968259,-18.346767,5.535394,-0.795483,3.100146,2.828947,100640.140625
54635,-0.095768,-16.472107,5.483919,-0.845501,2.305174,3.088617,100640.140625
54645,-7.192182,-16.564285,5.294777,-0.781116,0.891358,3.852726,100640.140625
54655,-4.047398,-14.853627,4.855441,-0.653409,-0.016953,4.666854,100640.132812
54665,-3.749320,-13.360843,3.740940,-0.344254,-0.257467,4.451350,100640.132812
54675,-2.500744,-14.846445,0.746991,-0.198456,-0.223412,3.735662,100640.132812
54685,1.845930,-10.965444,2.501941,-0.294767,-0.191485,3.140763,100640.132812
54695,0.790087,-5.568913,1.696292,-0.484731,-0.237246,2.217021,100640.132812
54705,-0.093374,-8.593987,4.608838,-0.710877,-0.307485,1.265608,100639.968750
54715,5.183447,-8.009802,2.843115,-0.391612,-0.495852,0.745205,100639.968750
54725,8.348581,-6.193800,0.627281,-0.195263,-0.426145,0.205114,100639.968750
54735,6.181829,-4.539406,0.380678,-0.142052,0.005928,-0.405216,100639.968750
54745,4.201824,-3.141193,0.645237,-0.111722,0.145340,-0.785675,100639.968750
54755,4.362236,-2.306813,0.830788,-0.068089,-0.074421,-0.999583,100639.968750
54765,3.365051,-2.018312,1.321599,-0.019135,-0.441577,-1.250739,100639.812500
54775,2.049437,-2.712631,1.503559,0.025030,-0.874714,-1.524243,100639.812500
54785,1.381454,-3.879804,1.230620,0.053232,-1.250383,-1.844573,100639.812500
54795,1.343147,-4.994305,0.895431,0.067599,-1.440879,-2.224499,100639.812500
54805,1.550246,-5.651513,0.277727,0.092608,-1.491429,-2.636884,100639.812500
54815,1.333570,-6.002264,-0.064643,0.077709,-1.519631,-3.043948,100639.812500
54825,1.170765,-6.521805,-0.164003,0.040994,-1.543576,-3.389820,100639.867188
54840,0.677559,-7.395689,0.136469,-0.043080,-1.538255,-3.801673,100639.867188
54850,-0.090980,-7.862558,0.149638,-0.138859,-1.516970,-4.062939,100639.867188
54860,-0.463278,-8.617929,0.205901,-0.239428,-1.472273,-4.341232,100639.867188
54870,-0.975637,-9.501390,0.250194,-0.335208,-1.391925,-4.630167,100639.867188
54880,-1.271321,-10.286688,0.555455,-0.411300,-1.274328,-4.886112,100639.843750
54890,-1.799243,-11.106702,1.074997,-0.456529,-1.148750,-5.096296,100639.843750
54900,-2.298434,-12.240356,1.399411,-0.484199,-1.010402,-5.283066,100639.843750
54910,-2.157176,-13.047202,1.370680,-0.517721,-0.833741,-5.480479,100639.843750
54935,-2.407370,-14.923059,2.454057,-0.566144,-0.426145,-5.930112,100639.640625
54954,-3.448848,-16.950949,3.502717,-0.529428,-0.283540,-6.159983,100639.640625
54960,-5.420473,-18.873491,4.780024,-0.415556,-0.227668,-6.280240,100639.640625
54970,-6.457162,-19.360712,4.969166,-0.305942,-0.237779,-6.335047,100639.640625
55000,-7.936779,-20.161573,5.309142,-0.022327,-0.214366,-6.210534,100639.460938
55024,-9.622296,-18.950106,6.415264,0.181471,0.020295,-5.786974,100639.460938
55040,-14.049175,-15.956158,5.713762,0.633764,0.402882,-4.863232,100639.578125
55065,-19.134460,-12.765883,2.172738,0.844479,0.742900,-3.733563,100639.578125
55080,-22.452824,-9.828198,0.155623,0.720498,0.778019,-2.028151,100639.578125
55095,-22.100876,-8.355764,1.192312,0.445397,0.382661,-0.376482,100639.585938
55105,-19.674353,-8.312668,2.327164,0.305452,0.013909,0.697315,100639.585938
55115,-17.239449,-8.614338,2.937685,0.241599,-0.362292,1.643406,100639.585938
55125,-10.471041,-11.935096,3.740940,0.252241,-0.726787,2.380378,100639.585938
55140,3.453636,-14.703990,-1.552640,0.135177,-1.165778,2.665057,100639.585938
55150,42.450394,-21.128830,-6.821081,-0.355428,-1.281246,2.002048,100639.656250
55160,18.127699,-14.841657,-2.045845,-0.208034,1.078661,0.532893,100639.656250
55170,-18.953697,-14.276625,4.647145,0.009599,0.646588,1.840287,100639.656250
55180,-20.823568,-20.128054,-2.585738,0.342168,-2.476896,4.319919,100639.656250
55190,-9.433155,-13.332112,-3.739743,0.326737,-2.573208,4.429533,100639.656250
55210,-4.854244,-13.543999,8.902839,0.603434,0.189506,2.811919,100639.656250
55220,-0.888249,-15.502456,3.035848,0.506058,-0.635265,2.912488,100639.656250
55230,-2.312799,-9.649830,0.675165,0.326737,-0.699650,2.671975,100639.656250
55240,-2.926912,-9.302670,1.364695,0.468278,-0.392090,2.336746,100639.656250
55250,-3.183091,-11.353305,0.164003,0.404425,-0.330898,2.039296,100639.656250
55260,-3.533842,-11.025299,-0.632069,0.206480,0.021891,1.747700,100639.648438
55270,-2.214637,-10.817003,0.754174,0.171893,0.590184,1.449718,100639.648438
55280,-0.690727,-10.329783,1.496376,0.165507,1.025450,1.196434,100639.648438
55300,0.381875,-9.615114,2.412158,0.120810,1.239358,0.881425,100639.648438
55310,1.125275,-10.175357,2.475605,0.192645,0.896147,0.752655,100639.648438
55320,1.313220,-10.138247,2.628834,0.268205,0.488019,0.707957,100639.937500
55330,0.708684,-9.986216,2.722207,0.287361,0.217175,0.762233,100639.937500
55340,0.330400,-9.721656,2.454057,0.261819,0.075634,0.817572,100639.937500
55350,0.055067,-9.572019,2.267309,0.255966,0.007524,0.767554,100639.937500
55360,-0.132878,-9.515755,2.343924,0.255434,0.057542,0.643572,100639.937500
55370,-0.424971,-9.493010,2.645593,0.265012,0.218772,0.522251,100640.148438
55380,-0.314838,-9.309854,3.135207,0.269801,0.424698,0.420618,100640.148438
55390,-0.283713,-9.261970,3.281253,0.265012,0.638074,0.331756,100640.148438
55400,0.055067,-9.460688,2.962825,0.245324,0.732790,0.279609,100640.148438
55410,0.952892,-9.528923,2.797625,0.233085,0.670001,0.290251,100640.148438
55420,0.781707,-9.461885,2.466028,0.247452,0.485359,0.359958,100640.148438
55440,-0.248997,-9.613917,2.542642,0.267672,0.216643,0.520655,100640.179688
55450,-0.433351,-9.458294,3.104083,0.286296,0.245909,0.525976,100640.179688
55460,-0.213084,-9.308656,3.332729,0.283636,0.359249,0.472233,100640.179688
55470,-0.104148,-9.403227,3.442862,0.261819,0.454496,0.462123,100640.179688
55480,-0.252588,-9.503783,3.065775,0.230425,0.456625,0.510013,100640.210938
55490,-0.459687,-9.483433,2.705448,0.217654,0.426294,0.578655,100640.210938
55500,-0.368707,-9.536105,2.662352,0.216058,0.409799,0.641444,100640.210938
55510,0.064643,-9.580399,2.806004,0.218718,0.402349,0.716471,100640.210938
55520,-0.003591,-9.900024,2.794033,0.218186,0.385854,0.818104,100640.210938
55530,-0.245406,-10.075998,2.647987,0.201691,0.383193,0.945278,100640.210938
55540,-0.634463,-10.064027,2.597709,0.183599,0.402349,1.075113,100640.343750
55560,-0.796072,-9.996989,2.977190,0.156462,0.442258,1.254966,100640.343750
55570,-0.952892,-10.020931,3.078943,0.126131,0.462478,1.356067,100640.343750
55580,-1.216254,-10.160992,3.063381,0.103251,0.490680,1.413003,100640.343750
55590,-1.529895,-10.284293,2.881422,0.076113,0.518881,1.445462,100640.421875
55610,-1.515530,-10.674548,2.736573,0.037269,0.585395,1.486966,100640.421875
55620,-1.511938,-10.894814,2.487576,0.010663,0.619982,1.551351,100640.421875
55630,-1.641225,-11.134235,2.161964,-0.018603,0.618386,1.613608,100640.421875
55640,-1.637634,-11.325771,2.225410,-0.048933,0.599230,1.689168,100640.421875
55650,-1.780089,-11.676521,1.902193,-0.084052,0.567303,1.776434,100640.335938
55660,-1.859098,-11.832145,1.839944,-0.117043,0.545487,1.875938,100640.335938
55670,-1.877054,-11.941081,1.762132,-0.146841,0.495469,1.969058,100640.335938
55680,-2.091335,-12.164939,2.078167,-0.192602,0.459285,2.064837,100640.335938
55690,-2.093729,-12.615048,2.300828,-0.237832,0.442790,2.173920,100640.335938
55705,-1.966837,-12.333730,2.636016,-0.280401,0.445982,2.362819,100640.335938
55715,-1.799243,-12.318168,2.737770,-0.327226,0.455560,2.516067,100640.335938
55725,-1.648408,-13.208811,2.970007,-0.380969,0.530056,2.652819,100640.335938
55735,-2.027889,-14.465767,2.679112,-0.425134,0.645524,2.769883,100640.335938
55745,-0.973243,-15.696386,2.015918,-0.487391,0.809946,2.871516,100640.335938
55755,0.065841,-16.767792,2.914941,-0.610841,0.989799,2.919938,100640.328125
55765,1.373075,-17.685968,3.219004,-0.732162,1.157413,2.964103,100640.328125
55775,2.438494,-20.064608,2.337938,-0.817299,1.446881,3.017846,100640.328125
55785,5.111620,-22.316355,4.577713,-0.875299,1.939083,2.963039,100640.328125
55795,10.056845,-21.999123,5.925649,-0.858272,2.533449,2.844910,100640.328125
55805,13.784616,-19.741390,6.487090,-0.741740,3.038953,2.723057,100640.328125
55815,9.994595,-17.372328,5.790377,-0.801868,2.837284,2.658672,100640.468750
55825,-0.773327,-16.965313,5.706580,-0.936492,1.664514,3.039662,100640.468750
55835,-5.978322,-18.430565,5.875371,-1.023226,-0.057925,4.049607,100640.468750
55845,-4.370615,-17.041927,6.743269,-0.860932,-1.174824,4.996230,100640.468750
55855,-3.958812,-15.294161,4.757279,-0.496437,-1.443539,5.036138,100640.468750
55865,-2.495955,-15.258247,0.879869,-0.300621,-1.322218,4.466781,100640.500000
55875,3.900155,-12.469003,1.952471,-0.381501,-1.079576,3.800047,100640.500000
55884,3.975572,-6.301539,3.069367,-0.502822,-0.716677,2.617167,100640.500000
55895,-0.702698,-8.044518,5.046977,-0.664584,-0.646439,1.478452,100640.500000
55905,5.392939,-9.163807,2.528277,-0.459189,-0.789044,0.972416,100640.500000
55915,8.245630,-6.940791,0.155623,-0.330419,-0.526714,0.262582,100640.500000
55925,5.560534,-4.477157,0.233435,-0.288914,0.253359,-0.470134,100640.429688
55935,4.430470,-3.807978,0.548272,-0.287318,0.783340,-0.896886,100640.429688
55945,4.425682,-3.032256,0.653617,-0.292107,0.873799,-1.232115,100640.429688
55955,3.871424,-2.370260,0.551863,-0.305942,0.713634,-1.574793,100640.429688
55971,2.966416,-2.853889,0.861913,-0.338400,0.380001,-2.034004,100640.429688
55980,2.343924,-4.094085,1.004368,-0.324566,0.080955,-2.556004,100640.343750
56000,2.728193,-5.554548,0.472855,-0.276676,-0.084531,-3.266370,100640.343750
56015,2.297236,-6.550536,0.320823,-0.241557,-0.218623,-4.099122,100640.343750
56025,1.729811,-6.936002,0.736217,-0.191006,-0.368145,-4.374755,100640.343750
56039,1.200692,-7.741651,1.428141,-0.131942,-0.657081,-4.625379,100640.328125
56050,0.609324,-9.040505,1.721431,-0.086180,-0.961980,-4.878663,100640.328125
56060,-0.697910,-10.320207,1.607706,-0.064364,-1.054567,-5.145782,100640.328125
56070,-1.180341,-11.146206,1.746570,-0.085116,-0.943888,-5.416626,100640.328125
56085,-1.013944,-12.634202,2.721010,-0.094694,-0.613980,-5.774204,100640.164062
56100,-1.449689,-14.251486,2.795230,0.073452,-0.647503,-5.961506,100640.164062
56114,-3.228581,-16.865953,2.388216,0.273526,-0.889613,-6.026423,100640.164062
56124,-4.727351,-18.726248,2.973598,0.290021,-0.919943,-6.083359,100640.164062
56135,-5.901707,-19.645622,3.798401,0.292682,-0.935907,-6.162643,100640.164062
56144,-6.338649,-19.976023,4.108450,0.331526,-1.087558,-6.203084,100639.992188
56154,-6.733692,-20.057425,4.084508,0.362388,-1.274860,-6.232882,100639.992188
56165,-8.027759,-20.144814,3.824737,0.345361,-1.361062,-6.279708,100639.992188
56180,-9.762358,-20.283676,4.601655,0.286828,-1.163649,-6.174350,100639.992188
56194,-11.871649,-19.870678,6.142324,0.276718,-0.844384,-5.688534,100639.992188
56205,-13.159730,-18.959682,6.558916,0.332058,-0.661870,-5.282534,100639.890625
56215,-15.151706,-17.430986,6.475119,0.427838,-0.418164,-4.836094,100639.890625
56225,-17.656040,-15.357607,5.280412,0.573103,-0.110604,-4.380608,100639.890625
56235,-21.379025,-13.407530,3.633201,0.705067,0.238992,-3.887342,100639.890625
56249,-23.959974,-10.404003,1.454478,0.726883,0.825909,-2.771508,100639.890625
56259,-23.280020,-9.603143,0.302867,0.611947,1.085578,-1.794555,100639.796875
56269,-21.189882,-8.900445,0.486023,0.417727,1.077597,-0.744702,100639.796875
56280,-19.233820,-8.886080,1.404199,0.251709,0.809413,0.252471,100639.796875
56290,-17.920599,-8.633492,2.230199,0.144223,0.392239,1.141095,100639.796875
56300,-16.194380,-9.042900,2.464831,0.104847,-0.071228,1.945645,100639.796875
56314,-2.846706,-12.919112,1.154005,0.129324,-0.719338,2.494250,100639.960938
56324,20.371065,-16.672024,-1.229423,-0.064364,-1.161521,2.284599,100639.960938
56339,31.136593,-14.202404,-4.094085,-0.175043,0.800368,0.397737,100639.960938
56349,-10.488997,-13.256695,3.202245,-0.213887,0.977028,1.137370,100639.960938
56359,-29.072792,-19.229031,4.580108,0.200627,-2.357704,3.644671,100639.960938
56379,-5.325902,-14.264654,-2.145205,0.220315,-2.084199,3.745240,100640.007812
56389,-4.282030,-11.121067,6.757634,0.375159,0.302845,2.587369,100640.007812
56399,0.300472,-12.117055,8.169016,0.530003,-0.081870,2.801277,100640.007812
56410,-1.228225,-10.077195,3.912126,0.611947,-0.580989,2.703901,100640.007812
56424,-3.550601,-10.326192,1.125275,0.401764,-0.372402,2.238837,100640.062500
56444,-3.434482,-11.422736,-0.311246,0.330461,0.217175,1.758874,100640.062500
56472,-0.459687,-9.900024,1.434127,0.216590,1.070679,1.181003,100640.156250
56484,0.047884,-9.482236,2.066196,0.171361,1.207432,0.903242,100640.156250
56504,0.691924,-10.111911,2.072181,0.253306,0.744496,0.723921,100640.156250
56519,0.683545,-10.135853,2.183512,0.344828,0.243781,0.688801,100640.156250
56529,0.134075,-9.700109,2.179921,0.335783,0.094258,0.720728,100640.390625
56554,-0.185551,-9.487024,2.517503,0.312902,0.075102,0.556306,100640.390625
56569,0.025139,-9.484630,3.130419,0.279911,0.295927,0.395609,100640.390625
56579,0.312443,-9.403227,3.355474,0.255966,0.488019,0.324306,100640.390625
56589,0.204704,-9.392453,3.014300,0.251177,0.552404,0.306215,100640.539062
56609,0.501585,-9.551667,2.303222,0.267140,0.457157,0.379646,100640.539062
56619,0.243011,-9.712079,2.281674,0.296406,0.368294,0.440306,100640.539062
56629,-0.262165,-9.783905,2.383428,0.313966,0.340093,0.498306,100640.539062
56659,-0.136469,-9.301474,3.320758,0.278847,0.506643,0.477554,100640.476562
56677,-0.264559,-9.655815,2.887407,0.242131,0.482698,0.515334,100640.476562
56684,-0.561440,-9.715671,2.650381,0.227232,0.445982,0.577590,100640.476562
56694,-0.471658,-9.651027,2.784456,0.232553,0.441726,0.631334,100640.484375
56714,-0.193930,-9.904813,2.797625,0.227764,0.467799,0.732967,100640.484375
56724,-0.253785,-10.049662,2.513912,0.204351,0.480570,0.871315,100640.484375
56739,-0.537498,-10.053253,2.729390,0.174021,0.474716,1.069260,100640.484375
56749,-0.664391,-10.011354,2.767697,0.149544,0.477377,1.191645,100640.484375
56764,-0.867898,-10.055647,3.083732,0.119746,0.514625,1.342232,100640.484375
56774,-1.157596,-10.356119,2.908955,0.084627,0.533781,1.410342,100640.484375
56789,-1.343147,-10.520123,2.949656,0.041526,0.571028,1.493883,100640.484375
56799,-1.538275,-10.753557,2.970007,-0.004768,0.615725,1.568379,100640.484375
56809,-1.442507,-10.952275,2.816778,-0.042015,0.655634,1.640214,100640.617188
56824,-1.404199,-11.346122,2.425326,-0.099483,0.674258,1.755149,100640.617188
56834,-1.734599,-11.627440,2.109292,-0.142052,0.647120,1.854654,100640.617188
56844,-1.762132,-11.988965,1.720234,-0.181960,0.626368,1.956819,100640.617188
56854,-1.850718,-12.246342,1.679533,-0.219740,0.593377,2.045149,100640.617188
56864,-1.871069,-12.515690,1.746570,-0.258584,0.538570,2.137736,100640.718750
56874,-1.944092,-12.674904,1.762132,-0.300089,0.492808,2.233516,100640.718750
56894,-2.201468,-12.925097,2.090138,-0.369263,0.490680,2.431993,100640.718750
56904,-1.940500,-12.706028,2.231396,-0.407575,0.564111,2.593222,100640.718750
56914,-2.185906,-13.059174,2.012326,-0.444290,0.704588,2.720397,100640.703125
56924,-1.337162,-14.378378,1.467646,-0.503355,0.855707,2.873112,100640.703125
56934,-0.038307,-16.439787,2.103306,-0.642767,0.999377,2.963039,100640.703125
56954,1.231817,-19.584570,2.372654,-0.855079,1.345248,3.084892,100640.703125
56964,5.449203,-22.880188,4.387374,-0.918932,1.919394,3.142892,100640.703125
56974,10.255563,-22.816742,6.399701,-0.836987,2.457357,3.066268,100640.671875
56984,13.338098,-21.259314,4.730943,-0.727373,2.747357,3.024231,100640.671875
56994,7.624335,-19.161993,2.804807,-0.738015,2.536110,2.972617,100640.671875
57004,-3.056198,-17.955317,2.337938,-0.838584,1.722514,3.290286,100640.671875
57014,-5.748478,-18.230648,6.782773,-0.996088,0.710441,4.028854,100640.671875
57029,-1.505953,-17.815254,8.615535,-0.866786,-0.384641,4.452946,100640.640625
57039,2.446874,-14.781801,4.253299,-0.470364,-0.994439,4.199130,100640.640625
57049,4.474763,-12.753913,1.398214,-0.402254,-1.119484,3.799515,100640.640625
57059,3.459621,-5.981913,2.868254,-0.503887,-1.224310,3.106176,100640.640625
57074,0.209493,-7.940370,3.327940,-0.696510,-1.625521,1.774837,100640.640625
57084,6.570887,-8.152257,2.245761,-0.540070,-1.346163,1.026159,100640.789062
57094,7.969100,-6.580463,0.834379,-0.412896,-0.807136,0.039095,100640.789062
57104,5.190629,-4.171896,0.772130,-0.406511,-0.052072,-0.775033,100640.789062
57119,4.289212,-3.235764,1.055843,-0.438437,0.345946,-1.196995,100640.789062
57129,4.250905,-2.073379,1.590947,-0.465043,0.221964,-1.491784,100640.789062
57144,2.870648,-1.839944,1.987187,-0.432052,-0.356971,-1.932903,100640.726562
57154,1.909376,-3.361459,2.000355,-0.452272,-0.717209,-2.280903,100640.726562
57164,2.057816,-5.171476,1.841141,-0.494309,-0.983264,-2.654444,100640.726562
57179,2.507926,-6.817489,1.449689,-0.491648,-1.276457,-3.247746,100640.726562
57189,1.916559,-7.165846,0.993594,-0.474621,-1.400438,-3.612774,100640.578125
57204,0.575805,-7.557298,1.379060,-0.466107,-1.437154,-4.073049,100640.578125
57214,0.075417,-7.971495,1.969231,-0.453336,-1.423319,-4.333251,100640.578125
57224,-0.148441,-8.874108,2.244564,-0.433648,-1.373301,-4.582278,100640.578125
57234,-0.438139,-9.684546,2.762909,-0.420878,-1.275393,-4.837690,100640.578125
57244,-0.481235,-10.667366,3.039439,-0.415556,-1.237081,-5.072883,100640.445312
57254,-1.064223,-11.751939,2.875436,-0.391612,-1.208347,-5.285727,100640.445312
57269,-2.366668,-13.243526,2.663549,-0.353300,-1.022640,-5.577323,100640.445312
57279,-2.676718,-14.033613,2.756923,-0.350107,-0.800219,-5.764626,100640.445312
57294,-2.744952,-15.755044,2.819172,-0.346382,-0.546934,-5.990772,100640.445312
57309,-3.764882,-18.011580,3.025074,-0.344254,-0.329834,-6.233946,100640.335938
57319,-5.535394,-19.585768,3.148375,-0.331483,-0.182439,-6.363781,100640.335938
57329,-6.880936,-20.228611,3.189077,-0.321373,-0.073889,-6.390919,100640.335938
57339,-7.532158,-20.429724,3.622427,-0.322437,0.031469,-6.333983,100640.335938
57349,-7.759608,-20.354305,4.556166,-0.292107,0.134166,-6.194570,100640.335938
57359,-7.987057,-20.092140,5.832275,-0.200584,0.203873,-5.982258,100640.171875
57369,-8.807071,-19.458874,6.931214,-0.035098,0.233139,-5.707158,100640.171875
57379,-10.478224,-18.389864,6.728904,0.188388,0.281028,-5.388956,100640.171875
57394,-14.216769,-16.400282,4.932055,0.557140,0.539102,-4.887177,100640.171875
57404,-17.068264,-14.863204,2.999935,0.733801,0.764716,-4.471067,100640.171875
57414,-18.796877,-13.054385,0.750582,0.809360,0.966386,-3.892663,100640.007812
57429,-19.509153,-11.336545,-0.197522,0.667287,1.044606,-2.680517,100640.007812
57439,-19.798851,-9.962274,0.875081,0.518828,0.865285,-1.743472,100640.007812
57459,-18.883068,-8.379706,1.905785,0.311306,0.303909,-0.044978,100640.007812
57469,-16.406267,-8.765172,1.857901,0.222975,-0.127632,1.087352,100639.898438
57484,-11.104307,-10.890026,1.569399,0.175618,-0.594292,2.110599,100639.898438
57494,-6.355408,-12.788629,2.130840,0.200095,-0.787448,2.310140,100639.898438
57509,15.351622,-15.805323,-2.413355,0.029819,-0.936971,2.071223,100639.898438
57519,30.421925,-18.661606,-5.439626,-0.287318,0.101175,1.193241,100639.789062
57534,-12.738350,-15.360001,1.125275,-0.271355,1.691651,1.599241,100639.789062
57544,-22.213404,-19.940109,1.896208,0.039930,-0.761375,3.474396,100639.789062
57559,-3.640384,-12.993333,0.312443,0.161251,-0.862475,3.245589,100639.789062
57569,-0.818817,-10.290278,5.345055,0.238406,0.424166,2.422415,100639.789062
57584,0.385466,-11.354502,5.633556,0.349617,-0.375595,2.686874,100639.992188
57594,-0.792481,-9.234436,2.448071,0.367177,-0.815118,2.558103,100639.992188
57609,-2.221819,-9.919178,2.691083,0.306517,-0.734237,2.016948,100639.992188
57619,-1.711854,-11.319786,0.737414,0.255966,-0.606531,1.713645,100639.992188
57629,-2.673126,-11.334151,-0.428562,0.142627,-0.287265,1.493351,100640.000000
57659,-0.337582,-9.774328,1.467646,0.127196,0.641799,1.125664,100640.000000
57669,0.241814,-9.375694,1.914164,0.089416,0.913175,0.944214,100640.000000
57679,0.422577,-9.801862,2.130840,0.097929,0.898808,0.845242,100640.000000
57694,0.907402,-10.043676,2.225410,0.196370,0.583799,0.800545,100640.062500
57704,0.666785,-10.097546,2.257732,0.286828,0.245909,0.826618,100640.062500
57714,0.413000,-9.791088,2.215834,0.305452,0.090533,0.876104,100640.062500
57729,0.052672,-9.586384,2.323573,0.284700,0.045836,0.823425,100640.062500
57739,-0.186748,-9.490616,2.444480,0.276718,0.094258,0.731370,100640.117188
57749,-0.202310,-9.433155,2.475605,0.267140,0.192698,0.647829,100640.117188
57769,0.108936,-9.526528,2.877831,0.249581,0.403414,0.525976,100640.117188
57779,0.191536,-9.454702,2.591723,0.240535,0.480037,0.485003,100640.117188
57789,0.033519,-9.555259,2.302025,0.243195,0.489083,0.508948,100640.117188
57804,-0.152032,-9.627085,2.093729,0.255966,0.443854,0.589297,100640.257812
57814,-0.142455,-9.581595,2.319981,0.270865,0.387450,0.670178,100640.257812
57824,-0.225055,-9.594764,2.822764,0.267140,0.377340,0.714875,100640.257812
57839,-0.378284,-9.576807,3.330335,0.236278,0.438533,0.736159,100640.257812
57849,-0.283713,-9.498995,3.235764,0.210205,0.500790,0.734563,100640.273438
57859,-0.292093,-9.622296,3.043030,0.179342,0.519946,0.753187,100640.273438
57869,-0.226252,-9.849746,2.706645,0.155397,0.504515,0.809590,100640.273438
57879,-0.407014,-10.060435,2.495955,0.145287,0.481634,0.880893,100640.273438
57889,-0.821211,-10.095152,2.349909,0.136241,0.471524,0.942086,100640.273438
57899,-0.834379,-9.974244,2.413355,0.133581,0.490148,0.997425,100640.273438
57919,-0.859518,-9.970653,2.685097,0.137306,0.515689,1.064471,100640.296875
57929,-1.007959,-10.113108,2.489970,0.137306,0.507707,1.091076,100640.296875
57944,-1.608904,-9.921572,2.415750,0.142095,0.489083,1.147480,100640.296875
57954,-1.792060,-9.983821,2.416947,0.144223,0.495469,1.164508,100640.296875
57969,-1.606509,-10.236409,2.559402,0.122407,0.517285,1.191645,100640.312500
57984,-1.496376,-10.450690,2.886210,0.097397,0.533781,1.239003,100640.312500
57994,-1.758541,-10.587160,2.981978,0.065471,0.568368,1.314563,100640.312500
58009,-1.509544,-10.759542,2.754529,0.019177,0.606147,1.438544,100640.312500
58024,-1.757344,-11.356895,2.614468,-0.038823,0.587524,1.557205,100640.320312
58034,-2.085350,-11.799823,2.032677,-0.092566,0.578478,1.690764,100640.320312
58049,-1.896208,-12.174516,1.940500,-0.135667,0.557193,1.814746,100640.320312
58059,-2.019509,-12.316971,1.962048,-0.188346,0.503982,1.961076,100640.320312
58083,-2.076970,-13.010092,2.165555,-0.263373,0.473652,2.214892,100640.523438
58104,-2.263718,-13.704411,2.495955,-0.345318,0.544423,2.559167,100640.523438
58124,-0.140061,-16.230293,2.062605,-0.514529,0.763120,2.909296,100640.523438
58139,1.531092,-19.196709,3.441665,-0.707685,0.908386,3.006140,100640.601562
58154,4.157531,-20.839132,3.932476,-0.710345,1.335670,3.074250,100640.601562
58174,12.190078,-20.797234,5.002685,-0.728969,2.187578,3.143424,100640.601562
58184,13.868413,-19.712660,5.428853,-0.821556,2.450972,3.014121,100640.710938
58194,7.705738,-17.037140,5.774815,-0.851354,1.885339,3.008800,100640.710938
58209,-8.008605,-14.336480,4.107253,-0.680547,0.081487,3.794194,100640.710938
58219,-6.241684,-12.804191,5.608418,-0.483134,-0.759246,4.671111,100640.710938
58244,-4.224569,-13.872005,-0.026336,-0.289979,-1.024769,3.907533,100640.593750
58259,2.053028,-7.187394,2.734178,-0.672565,-0.694329,2.366012,100640.593750
58269,2.033874,-8.971074,4.453215,-0.863593,-0.400604,0.891535,100640.593750
58294,7.074866,-4.720169,0.240617,-0.440033,0.127249,-0.349345,100640.750000
58315,4.995502,-3.147178,1.534683,-0.502290,0.466735,-0.790996,100640.750000
58324,4.317943,-2.221819,2.323573,-0.443226,0.184184,-1.277344,100640.750000
58349,2.577358,-3.875015,1.918953,-0.433648,-0.262788,-1.988243,100640.875000
58359,1.988384,-5.920861,1.130063,-0.445887,-0.604934,-2.687967,100640.875000
58384,1.077391,-6.523003,0.894234,-0.349043,-0.599081,-3.626076,100640.875000
58399,0.780510,-6.904878,1.637634,-0.267630,-0.437852,-4.071984,100640.875000
58409,0.812831,-7.260417,2.313996,-0.212823,-0.390494,-4.339636,100640.789062
58419,0.676362,-8.316259,2.709039,-0.189410,-0.414971,-4.570039,100640.789062
58429,-0.411803,-9.221268,2.697068,-0.189942,-0.432531,-4.812681,100640.789062
58439,-1.710657,-10.356119,2.683900,-0.191006,-0.353779,-5.043085,100640.789062
58454,-2.337938,-11.318588,2.303222,-0.064364,-0.151045,-5.298497,100640.789062
58464,-1.756147,-12.078748,2.472013,0.088352,-0.065375,-5.425672,100640.453125
58474,-1.978808,-13.694834,2.510320,0.224040,-0.074953,-5.564020,100640.453125
58484,-2.495955,-15.269021,2.650381,0.277783,-0.131889,-5.660332,100640.453125
58499,-4.122815,-16.709133,2.998738,0.352278,-0.334623,-5.706093,100640.453125
58509,-4.653131,-17.593792,3.503914,0.438480,-0.557044,-5.692791,100640.453125
58519,-5.293580,-18.310854,3.903746,0.543837,-0.805008,-5.755048,100640.140625
58529,-5.940014,-18.721460,4.161122,0.622590,-1.043393,-5.848699,100640.140625
58539,-6.293159,-18.757374,4.045004,0.671012,-1.215796,-5.862001,100640.140625
58549,-7.028179,-19.081787,3.751714,0.686975,-1.309448,-5.784314,100640.140625
58564,-8.689755,-19.413385,3.688268,0.588003,-1.275925,-5.564020,100640.140625
58574,-10.042479,-19.254169,4.180276,0.496480,-1.171099,-5.315525,100640.101562
58584,-12.041637,-18.409018,4.672285,0.467214,-1.022640,-5.010094,100640.101562
58599,-15.237897,-15.971720,4.786009,0.552883,-0.696457,-4.450315,100640.101562
58609,-18.197130,-13.858836,4.529830,0.650259,-0.386769,-3.975141,100640.101562
58619,-20.755335,-11.878832,3.659537,0.716241,-0.063779,-3.360554,100640.101562
58629,-22.245726,-10.579977,1.856703,0.733268,0.214515,-2.590059,100640.007812
58639,-22.616827,-9.885659,0.143652,0.647067,0.397028,-1.679619,100640.007812
58659,-19.512743,-9.463082,0.781707,0.334718,0.259744,0.107205,100640.007812
58669,-17.557878,-9.163807,2.512715,0.163379,-0.147320,1.261884,100640.007812
58679,-13.764266,-10.050858,4.125209,0.135177,-0.548531,2.047278,100639.992188
58694,-0.532710,-13.743915,0.445322,0.174553,-0.920475,2.446360,100639.992188
58704,24.326286,-18.374300,-5.540183,-0.196859,-1.015191,2.122837,100639.992188
58714,31.517271,-16.569073,-3.506308,-0.276676,0.443854,1.024563,100639.992188
58724,-1.823185,-12.597093,1.059434,-0.111722,1.362808,1.134177,100639.992188
58734,-23.385365,-15.109807,1.302446,0.157526,-0.927393,2.848103,100640.007812
58744,-14.000094,-17.978060,-1.584962,0.321416,-2.356107,4.106010,100640.007812
58764,-3.945644,-12.275072,3.886986,0.320883,-0.013228,2.590562,100640.007812
58774,-1.569399,-12.822147,6.959944,0.495415,0.230478,2.497975,100640.007812
58784,-0.507571,-12.107478,2.979584,0.562461,-0.417100,2.625149,100640.007812
58799,-2.263718,-8.986636,1.679533,0.435819,-0.360164,2.157424,100640.140625
58809,-2.406173,-10.226832,1.279701,0.452315,-0.161155,1.899351,100640.140625
58819,-2.015918,-10.882844,0.348356,0.383672,0.037322,1.632764,100640.140625
58829,-1.769315,-10.612299,0.873884,0.250645,0.381065,1.414067,100640.140625
58839,-0.723049,-10.444705,2.154782,0.208608,0.725340,1.242728,100640.140625
58849,0.111330,-9.485827,2.178724,0.192113,0.968514,1.039462,100640.312500
58864,0.420182,-9.785102,2.060210,0.149544,1.003101,0.835664,100640.312500
58874,0.776918,-10.277111,2.134431,0.224572,0.703524,0.759040,100640.312500
58884,0.749385,-10.251971,2.360683,0.291085,0.377340,0.745205,100640.312500
58894,0.620098,-10.011354,2.373851,0.302260,0.194295,0.809058,100640.312500
58904,0.561440,-9.843760,2.454057,0.287893,0.096386,0.861737,100640.359375
58919,0.032322,-9.629479,2.413355,0.242131,0.048496,0.792563,100640.359375
58929,-0.295684,-9.710882,2.445677,0.215526,0.133634,0.722324,100640.359375
58939,-0.301669,-9.616311,2.958036,0.194773,0.286350,0.651022,100640.359375
58954,-0.026336,-9.318233,3.324349,0.176682,0.466203,0.547260,100640.343750
58964,0.031125,-9.300277,2.893393,0.161783,0.568368,0.475425,100640.343750
58974,0.061052,-9.627085,2.141613,0.154865,0.542826,0.469572,100640.343750
58989,-0.087388,-9.759963,1.853112,0.169232,0.425762,0.524379,100640.343750
58999,-0.101754,-9.762358,2.294842,0.206480,0.340625,0.596214,100640.343750
59014,-0.201113,-9.582792,2.936488,0.225636,0.360313,0.607921,100640.328125
59024,-0.256180,-9.373300,3.072958,0.214462,0.402349,0.607389,100640.328125
59034,-0.384269,-9.342175,2.953248,0.200627,0.400221,0.645168,100640.328125
59044,-0.497994,-9.463082,2.885013,0.191581,0.375744,0.694655,100640.328125
59064,-0.691924,-9.657013,2.590526,0.180406,0.362441,0.752123,100640.609375
59074,-0.775721,-9.727641,2.432509,0.181471,0.375212,0.779792,100640.609375
59094,-0.852336,-9.921572,2.412158,0.194241,0.365102,0.826618,100640.609375
59109,-0.916979,-9.986216,2.558204,0.202755,0.380001,0.891535,100640.609375
59119,-0.995988,-9.940725,2.689886,0.204884,0.399689,0.951664,100640.804688
59134,-1.216254,-10.099940,2.919729,0.194773,0.451304,1.030416,100640.804688
59144,-1.279701,-10.086772,2.920926,0.185728,0.489615,1.078306,100640.804688
59154,-1.179144,-10.103531,3.031059,0.173489,0.519946,1.141627,100640.804688
59164,-1.331176,-10.359711,2.674323,0.151673,0.537505,1.215058,100640.804688
59174,-1.540669,-10.497377,2.689886,0.114957,0.559322,1.303920,100640.882812
59189,-1.309628,-11.056423,2.732981,0.060682,0.589120,1.437480,100640.882812
59199,-1.418565,-11.158177,2.880225,0.020774,0.591248,1.533792,100640.882812
59209,-1.564611,-11.471817,2.513912,-0.016474,0.576349,1.646067,100640.882812
59219,-1.656788,-11.611878,2.187103,-0.065428,0.567836,1.757810,100640.882812
59229,-1.559822,-11.887212,1.963245,-0.103740,0.548680,1.862636,100640.835938
59239,-1.775301,-12.204443,2.032677,-0.155355,0.504515,1.977571,100640.835938
59249,-1.819593,-12.551602,2.187103,-0.210694,0.473120,2.118581,100640.835938
59259,-1.596933,-12.816162,2.507926,-0.250070,0.472588,2.255333,100640.835938
59279,-2.111686,-13.330915,2.712631,-0.303813,0.527395,2.483076,100640.835938
59289,-1.817199,-13.937845,2.335544,-0.319245,0.635946,2.660800,100641.039062
59299,-1.199495,-15.089457,1.592144,-0.373520,0.773762,2.795956,100641.039062
59309,0.175974,-16.429012,2.584541,-0.508676,0.838679,2.936965,100641.039062
59319,1.027112,-17.452534,3.290830,-0.597006,0.923817,3.042323,100641.039062
59329,0.503979,-19.282900,1.893813,-0.634254,1.141982,3.106708,100641.039062
59339,2.710236,-22.292412,3.497929,-0.716731,1.612899,3.106176,100641.171875
59354,12.117055,-22.149958,6.843825,-0.679483,2.753742,2.991241,100641.171875
59364,13.942634,-20.653582,5.334281,-0.700235,3.306072,2.946011,100641.171875
59374,9.615114,-18.680759,5.330690,-0.687997,3.307137,2.848103,100641.171875
59384,-1.037886,-16.476896,5.363012,-0.690657,2.514293,2.958782,100641.171875
59394,-7.546524,-17.469294,5.310339,-0.672565,1.203707,3.722891,100641.140625
59409,-2.992752,-16.529568,4.503493,-0.691721,-0.019081,4.616836,100641.140625
59419,-2.292448,-15.321693,5.653907,-0.653942,-0.252678,4.242763,100641.140625
59429,1.138443,-15.746665,2.341529,-0.447483,-0.524586,3.907533,100641.140625
59439,8.097190,-9.927557,2.408567,-0.411832,-0.654420,3.525479,100641.140625
59449,-1.175553,-4.228160,2.908955,-0.509208,-0.653888,2.436250,100641.046875
59459,-1.253365,-8.051701,3.837905,-0.462382,-0.902916,1.723755,100641.046875
59479,5.492299,-5.898116,0.948104,-0.321905,-0.778402,0.281738,100641.046875
59489,3.621230,-4.024653,0.778116,-0.180364,-0.000990,-0.637216,100641.046875
59499,3.396175,-3.204639,0.404620,-0.142584,0.302845,-1.037363,100641.046875
59509,3.806781,-2.261323,0.626084,-0.159612,0.327322,-1.353436,100640.953125
59519,3.847482,-1.273715,1.052252,-0.163869,0.128845,-1.664188,100640.953125
59529,3.754108,-1.058237,1.195904,-0.161740,-0.194678,-2.019637,100640.953125
59539,3.375824,-1.867477,1.148020,-0.186217,-0.499044,-2.434151,100640.953125
59549,2.792836,-3.585317,0.873884,-0.219208,-0.712420,-2.892829,100640.953125
59559,2.129642,-4.948815,0.573411,-0.246346,-0.848641,-3.343526,100640.968750
59579,1.922544,-5.571307,1.223437,-0.243685,-1.075851,-3.969819,100640.968750
59589,1.454478,-5.993884,1.328782,-0.180364,-1.264218,-4.372626,100640.968750
59599,0.571017,-6.837840,0.937330,-0.164933,-1.337117,-4.656241,100640.968750
59609,-0.107739,-7.400477,1.464054,-0.170254,-1.345099,-4.889305,100640.968750
59624,-0.875081,-8.555679,2.024297,-0.134070,-1.362126,-5.127690,100640.914062
59634,-1.061828,-10.583569,1.984793,-0.158547,-1.288695,-5.380442,100640.914062
59644,-0.878672,-12.143391,1.175553,-0.231979,-1.019980,-5.651286,100640.914062
59664,-0.693121,-13.114240,1.339556,-0.296896,-0.293118,-6.113157,100640.914062
59674,-1.246182,-15.172056,2.001553,-0.143648,-0.181907,-6.207873,100640.765625
59684,-3.811569,-18.021156,2.354697,-0.037226,-0.295779,-6.200423,100640.765625
59699,-5.724536,-19.746178,3.784036,0.003214,-0.387301,-6.210534,100640.765625
59724,-6.165070,-21.803995,3.971981,0.171361,-0.934842,-6.312699,100640.351562
59734,-8.706514,-22.403742,3.900155,0.239471,-1.462163,-6.331854,100640.351562
59754,-10.445902,-21.508310,5.540183,0.174553,-1.403099,-5.942883,100640.351562
59764,-12.647370,-19.691113,6.967127,0.207012,-1.288695,-5.324039,100640.351562
59774,-15.222335,-17.530344,7.035362,0.343232,-1.077980,-4.783415,100640.351562
59794,-21.110874,-14.052767,4.605247,0.633232,-0.244696,-3.863930,100639.984375
59808,-25.438393,-10.357317,0.523133,0.697085,0.857835,-2.658169,100639.984375
59818,-24.735695,-9.327810,-0.044293,0.510315,1.347908,-1.660463,100639.984375
59828,-21.845894,-9.084799,0.988805,0.276186,1.471358,-0.570170,100639.984375
59838,-19.163191,-9.203311,2.112883,0.088884,1.239358,0.461058,100640.062500
59849,-17.165230,-8.905233,3.092112,-0.006364,0.879652,1.367774,100640.062500
59858,-10.869676,-10.825383,4.650737,-0.007428,0.532184,2.103681,100640.062500
59868,-3.634398,-12.847286,1.745373,0.023434,0.227285,2.323975,100640.062500
59878,17.000029,-16.458941,-2.898181,-0.253795,-0.170201,2.225534,100640.062500
59889,41.056969,-18.217482,-4.436456,-0.506547,0.374680,1.253902,100640.062500
59899,11.075577,-11.742362,-0.909797,-0.312859,2.117871,0.484471,100640.171875
59909,-18.938135,-14.239514,2.197877,-0.106401,0.358716,1.883920,100640.171875
59918,-17.349583,-19.961657,1.600524,0.287893,-2.441245,3.858047,100640.171875
59929,-6.663064,-14.870387,-1.474828,0.297471,-2.412511,3.715442,100640.171875
59939,-6.299145,-10.709264,6.690597,0.363452,-0.205852,2.657608,100640.171875
59949,-4.692636,-13.573927,7.297527,0.491159,-0.080806,2.538415,100640.296875
59959,1.576582,-13.302185,3.537433,0.420920,-0.807668,2.607057,100640.296875
59974,-0.046687,-8.222886,2.014721,0.396443,-0.775209,2.189883,100640.296875
59984,-1.806425,-8.719683,2.389413,0.435819,-0.586843,1.886048,100640.296875
59994,-2.056619,-11.016919,0.155623,0.292150,-0.521925,1.588599,100640.296875
60004,-2.962825,-11.707646,-0.222661,0.097929,-0.074421,1.332122,100640.406250
60014,-2.220622,-11.605893,0.413000,0.046847,0.387982,1.185260,100640.406250
60024,-0.678756,-10.496181,0.794875,0.089948,0.761524,0.989976,100640.406250
60043,0.401029,-9.543288,1.674744,0.091544,1.065358,0.739884,100640.406250
60053,1.092953,-9.993398,2.275689,0.122407,0.891890,0.670710,100640.406250
60063,1.408988,-9.979033,2.500744,0.181471,0.596570,0.660600,100640.507812
60073,1.616086,-9.873688,2.675520,0.251177,0.270386,0.711682,100640.507812
60083,1.233014,-9.549273,2.450465,0.305984,-0.014292,0.822361,100640.507812
60093,0.666785,-9.676167,2.266112,0.305984,-0.179247,0.912288,100640.507812
60104,0.180762,-9.715671,2.414552,0.272461,-0.184568,0.901645,100640.507812
60118,-0.225055,-9.465476,2.912546,0.220847,0.062331,0.752655,100640.585938
60128,-0.167594,-9.339781,3.160346,0.182003,0.267726,0.650490,100640.585938
60138,0.099359,-9.196129,3.071761,0.148480,0.468331,0.554178,100640.585938
60148,0.399832,-9.206903,2.908955,0.134113,0.603487,0.486600,100640.585938
60158,0.533907,-9.381680,2.377442,0.142627,0.644992,0.488196,100640.585938
60168,0.582988,-9.548077,1.985990,0.163911,0.577946,0.555242,100640.585938
60178,0.351948,-9.852140,1.686715,0.196370,0.439065,0.669645,100640.539062
60188,0.128090,-9.750386,1.753753,0.220847,0.298588,0.800545,100640.539062
60198,-0.076614,-9.777920,2.418144,0.223507,0.235799,0.887810,100640.539062
60208,-0.512359,-9.684546,2.754529,0.206480,0.243781,0.912820,100640.539062
60218,-0.730232,-9.558850,2.965219,0.184131,0.319872,0.892067,100640.539062
60228,-0.348356,-9.544485,2.975993,0.152737,0.411927,0.861205,100640.429688
60238,-0.106542,-9.576807,2.780865,0.130388,0.472588,0.850563,100640.429688
60248,-0.168791,-9.867702,2.513912,0.124003,0.464074,0.901645,100640.429688
60258,-0.474052,-10.077195,2.382231,0.128260,0.429487,0.983590,100640.429688
60268,-0.895431,-9.967062,2.144008,0.139434,0.409799,1.056489,100640.429688
60278,-0.889446,-9.973047,2.536657,0.140498,0.407138,1.102251,100640.429688
60298,-0.990002,-9.937134,2.875436,0.132517,0.440129,1.129388,100640.335938
60308,-1.398214,-10.043676,2.773683,0.125067,0.484294,1.141095,100640.335938
60318,-1.454478,-10.217256,2.601300,0.125599,0.536973,1.120875,100640.335938
60328,-1.618480,-10.166978,2.693477,0.124003,0.594973,1.091609,100640.335938
60343,-1.428141,-10.280702,2.723404,0.126131,0.637542,1.106508,100640.554688
60353,-1.687912,-10.486604,2.347515,0.103251,0.638606,1.167700,100640.554688
60363,-1.510741,-10.596737,2.363077,0.066535,0.635414,1.259223,100640.554688
60373,-1.383849,-10.888829,2.585738,0.026095,0.642863,1.356067,100640.554688
60383,-1.250970,-11.098322,2.573767,-0.009025,0.637010,1.477388,100640.554688
60394,-1.607706,-11.340137,2.213439,-0.056914,0.598698,1.625315,100640.578125
60408,-1.716643,-11.863270,1.793257,-0.138859,0.550276,1.833369,100640.578125
60418,-1.959654,-12.313379,1.838747,-0.195795,0.515689,1.937131,100640.578125
60428,-2.047042,-12.563574,2.072181,-0.253263,0.484826,2.055792,100640.578125
60438,-1.819593,-12.908339,2.201468,-0.302217,0.469927,2.177113,100640.578125
60448,-2.081758,-13.019669,2.379837,-0.348511,0.476313,2.293645,100640.648438
60458,-1.547851,-13.640965,2.390610,-0.392144,0.501322,2.436782,100640.648438
60468,-1.751359,-14.403518,2.292448,-0.443226,0.550276,2.561828,100640.648438
60478,-2.187103,-16.116570,2.153584,-0.513465,0.577414,2.728378,100640.648438
60488,-0.079009,-16.457743,2.849100,-0.611373,0.571560,2.916213,100640.648438
60498,0.878672,-16.874334,3.639187,-0.678951,0.654570,3.097662,100640.648438
60513,1.623269,-19.955671,3.393781,-0.772602,0.919560,3.271130,100640.695312
60523,4.619612,-22.621614,5.658696,-0.841244,1.254257,3.267937,100640.695312
60533,10.375273,-22.998701,7.722497,-0.758235,1.850220,3.238139,100640.695312
60543,13.231556,-21.109676,7.044939,-0.667776,2.441394,3.222708,100640.695312
60553,11.007342,-19.515139,5.803545,-0.667244,2.694146,3.189717,100640.695312
60563,1.863886,-17.177200,4.425682,-0.689061,2.322734,3.176947,100640.734375
60574,-8.593987,-16.634912,3.817555,-0.699703,1.384624,3.641479,100640.734375
60584,-10.084377,-17.579426,5.206192,-0.661391,0.416716,4.591826,100640.734375
60598,-4.723760,-15.893908,4.699818,-0.518786,-0.138806,4.723258,100640.734375
60608,1.124078,-15.613787,1.432930,-0.425134,-0.228733,3.997992,100640.734375
60624,4.346673,-7.271191,4.267664,-0.376180,0.090001,2.774140,100641.007812
60643,6.581660,-8.507795,4.024653,-0.175575,-0.558641,1.469939,100641.007812
60653,7.703344,-5.628768,0.802058,-0.018603,-0.381980,0.544068,100641.007812
60668,3.846285,-3.410540,-0.411803,0.092076,0.588588,-0.585069,100641.085938
60688,4.569334,-2.220622,-0.296881,0.109104,0.876459,-1.138463,100641.085938
60698,4.876989,-1.398214,0.143652,0.139434,0.743432,-1.628004,100641.085938
60708,3.973178,-1.601721,0.307655,0.154865,0.477909,-2.088811,100641.085938
60718,3.260903,-2.705448,-0.059855,0.150608,0.115542,-2.503857,100641.085938
60733,2.762909,-4.443638,-0.575805,0.104315,-0.384109,-3.082260,100641.062500
60753,2.659958,-5.662287,-0.378284,0.034608,-0.902916,-3.710150,100641.062500
60763,2.776077,-6.505046,0.196325,0.026627,-1.278053,-4.112425,100641.062500
60773,2.209848,-7.405266,0.842759,0.033012,-1.659044,-4.366773,100641.062500
60783,1.540669,-8.057686,1.282095,0.022902,-2.059722,-4.556736,100641.039062
60803,-0.591368,-9.588778,1.584962,-0.119703,-2.401869,-4.918039,100641.039062
60813,-2.018312,-10.717644,1.991976,-0.204309,-2.339080,-5.229323,100641.039062
60823,-2.553416,-11.779472,1.780089,-0.255924,-2.163484,-5.476754,100641.039062
60833,-2.495955,-13.013683,1.098939,-0.331483,-1.895833,-5.711415,100640.937500
60848,-1.837550,-14.604630,1.211466,-0.484731,-1.385539,-6.028552,100640.937500
60858,-2.264915,-15.508442,1.693898,-0.466107,-1.221117,-6.184460,100640.937500
60868,-2.865860,-17.708714,2.819172,-0.438969,-1.143429,-6.256827,100640.937500
60878,-4.532224,-19.462465,4.106056,-0.443226,-1.074255,-6.388790,100640.937500
60898,-6.459556,-22.161928,6.384139,-0.322969,-1.066805,-6.611212,100640.781250
60913,-8.188169,-22.784420,6.896498,-0.211226,-1.200897,-6.618130,100640.781250
60923,-9.750386,-22.164322,7.586028,-0.112254,-1.155668,-6.487231,100640.781250
60933,-11.316195,-21.399374,8.599973,0.054829,-0.972090,-6.169029,100640.781250
60943,-13.709199,-20.529083,8.836999,0.299599,-0.769356,-5.664589,100640.554688
60953,-16.390705,-19.045874,7.594408,0.541709,-0.465522,-5.104277,100640.554688
60963,-20.105309,-16.863560,4.772841,0.748700,0.039451,-4.571636,100640.554688
60978,-25.147497,-12.003330,1.069011,0.846076,1.014276,-3.637783,100640.554688
60993,-25.663448,-9.616311,0.667982,0.705067,1.765083,-2.474059,100640.554688
61003,-23.260866,-8.753201,1.912967,0.410810,1.980587,-1.071950,100640.437500
61018,-18.374300,-8.688558,3.954024,0.185195,1.396331,0.636123,100640.437500
61028,-16.694769,-9.091981,4.406528,0.119214,0.792386,1.598177,100640.437500
61038,-13.901932,-10.011354,4.252102,0.125067,0.235799,2.416030,100640.437500
61048,-2.701857,-14.427460,-0.416591,0.146884,-0.154769,2.845442,100640.437500
61063,33.509247,-18.437748,-8.091205,-0.521978,-0.395815,2.139865,100640.328125
61078,27.232847,-13.974956,-3.032256,-0.390547,1.480404,0.540343,100640.328125
61093,-19.208681,-14.359224,4.703409,-0.021263,-0.083467,2.069626,100640.328125
61103,-14.555550,-20.032286,-2.099715,0.449654,-3.209080,4.305019,100640.328125
61118,-4.179079,-11.516110,2.862268,0.233085,-0.296843,2.875773,100640.492188
61128,-5.525817,-11.822568,9.481039,0.548094,0.474184,2.314929,100640.492188
61138,-0.744597,-14.736312,4.623203,0.651324,-0.475632,2.583644,100640.492188
61148,0.397437,-9.995792,2.382231,0.413471,-0.925264,2.441571,100640.492188
61158,-1.303643,-7.618350,2.159570,0.404957,-0.623026,2.122305,100640.492188
61168,-2.548628,-10.271125,0.688333,0.404425,-0.439980,1.859443,100640.687500
61188,-2.653973,-11.599907,0.210690,0.084095,0.139487,1.526342,100640.687500
61198,-1.382651,-10.755951,1.136049,-0.041483,0.958404,1.206544,100640.687500
61208,-0.535104,-9.449914,1.838747,-0.091502,1.366532,0.979333,100640.687500
61223,1.225831,-9.925163,2.225410,-0.037758,1.270221,0.871315,100640.640625
61238,2.882619,-10.250774,2.347515,0.125067,0.662551,0.796820,100640.640625
61248,1.272518,-10.131064,2.718616,0.234150,0.074038,0.840453,100640.640625
61258,0.606930,-9.815030,2.321178,0.212865,-0.192549,1.029352,100640.640625
61268,0.067038,-9.648633,2.203863,0.198498,-0.290457,1.041590,100640.640625
61278,-0.428562,-9.714474,2.160767,0.196902,-0.225540,0.917077,100640.601562
61288,-0.611719,-9.710882,2.825158,0.178810,0.000074,0.765957,100640.601562
61298,-0.464475,-9.418790,3.426103,0.139966,0.287946,0.610581,100640.601562
61318,-0.035913,-9.169792,3.016694,0.112296,0.687560,0.378581,100640.601562
61328,0.239420,-9.356541,2.176329,0.128792,0.724808,0.337609,100640.601562
61338,0.171185,-9.513360,1.437718,0.148480,0.566239,0.372728,100640.570312
61348,0.111330,-9.770737,1.576582,0.183599,0.345946,0.447756,100640.570312
61358,-0.134075,-9.780313,2.092532,0.224572,0.157047,0.517462,100640.570312
61368,-0.336385,-9.588778,2.736573,0.240535,0.108093,0.542471,100640.570312
61378,-0.318429,-9.302670,3.272874,0.232021,0.189506,0.519058,100640.570312
61393,-0.154426,-9.181764,3.541024,0.205416,0.381597,0.452013,100640.570312
61408,-0.113725,-9.469068,3.044227,0.161783,0.450239,0.485003,100640.789062
61418,-0.064643,-9.617508,2.512715,0.156994,0.408735,0.558967,100640.789062
61428,-0.240617,-9.855731,2.232593,0.153269,0.349671,0.653682,100640.789062
61438,-0.463278,-10.042479,1.963245,0.153801,0.317212,0.743609,100640.789062
61448,-0.447716,-9.947908,1.932121,0.163379,0.324129,0.823425,100640.789062
61463,-0.278924,-9.949105,2.317587,0.164975,0.345414,0.981462,100641.000000
61473,-0.146046,-10.180145,2.655170,0.150608,0.350735,1.106508,100641.000000
61488,-0.675165,-10.585963,2.598906,0.095269,0.354460,1.276783,100641.000000
61498,-1.420959,-10.477027,2.780865,0.080370,0.390111,1.349150,100641.000000
61508,-1.534683,-10.168175,2.721010,0.073452,0.448643,1.380012,100641.078125
61518,-1.681927,-10.211270,2.582147,0.053232,0.511432,1.393315,100641.078125
61528,-1.727417,-10.376471,2.463634,0.026627,0.548147,1.407682,100641.078125
61538,-1.527501,-10.726024,2.464831,0.001618,0.575285,1.449186,100641.078125
61553,-1.545457,-10.989386,2.309207,-0.037758,0.596037,1.531663,100641.078125
61563,-1.247379,-11.407174,2.153584,-0.081391,0.602423,1.641278,100641.156250
61573,-1.474828,-11.519701,1.923741,-0.127685,0.571028,1.738122,100641.156250
61588,-1.551443,-11.809400,1.604115,-0.197391,0.470992,1.941920,100641.156250
61598,-1.754950,-12.151771,1.593341,-0.243685,0.393304,2.053131,100641.156250
61608,-1.896208,-12.540829,1.800440,-0.295300,0.324129,2.155828,100641.156250
61623,-1.703475,-12.919112,2.534262,-0.342657,0.291139,2.278745,100641.359375
61633,-1.862689,-13.091495,2.834735,-0.375648,0.301249,2.395810,100641.359375
61643,-1.953669,-13.414712,2.693477,-0.407575,0.358716,2.512874,100641.359375
61658,-1.397017,-14.421474,2.120066,-0.465043,0.531652,2.715075,100641.359375
61668,-0.514753,-15.682021,2.082955,-0.573061,0.632221,2.848635,100641.359375
61683,0.865504,-17.594988,3.320758,-0.728437,0.730661,3.002947,100641.328125
61693,1.194707,-20.295649,2.899378,-0.815703,0.963193,3.121607,100641.328125
61703,4.631583,-22.910116,5.262455,-0.852951,1.397927,3.152470,100641.328125
61713,9.604341,-22.558168,6.685808,-0.784308,2.001339,3.137571,100641.328125
61728,13.120225,-20.319590,5.027823,-0.732162,2.711706,3.157259,100641.226562
61738,7.173028,-17.853561,4.272453,-0.735354,2.601559,3.016782,100641.226562
61753,-4.624401,-16.399084,3.599682,-0.797611,1.570330,3.371167,100641.226562
61763,-8.797494,-16.298529,6.511032,-0.827941,0.316680,4.334817,100641.226562
61773,-5.380968,-15.132552,6.112397,-0.627336,-0.351650,4.715808,100641.226562
61788,-1.323994,-15.231912,3.160346,-0.469832,-0.719338,4.267772,100641.031250
61798,5.955577,-9.088389,3.377022,-0.445355,-0.656017,3.421717,100641.031250
61808,1.144428,-6.683414,2.309207,-0.530492,-0.738494,2.169131,100641.031250
61818,3.800795,-8.871715,3.864242,-0.543795,-0.736898,1.464085,100641.031250
61833,8.311471,-6.424840,0.786495,-0.219740,-0.489999,0.364747,100641.031250
61843,5.371391,-3.736152,0.253785,-0.123960,0.107561,-0.447253,100640.859375
61853,4.042610,-3.026271,0.554258,-0.118107,0.580606,-0.859106,100640.859375
61868,4.074931,-1.638831,1.479617,-0.117575,0.572625,-1.259784,100640.859375
61878,4.129998,-0.984017,1.923741,-0.045740,0.251762,-1.577454,100640.859375
61888,3.849876,-1.276109,2.080561,0.004810,-0.158494,-1.958445,100640.859375
61903,3.481169,-3.489549,1.505953,-0.023392,-0.666127,-2.595912,100641.007812
61913,3.233369,-4.552575,1.019930,-0.023924,-0.883228,-3.034903,100641.007812
61923,2.631228,-5.061342,0.774524,-0.009025,-1.056695,-3.433985,100641.007812
61933,2.296039,-5.553351,1.000776,0.012260,-1.211007,-3.778260,100641.007812
61943,1.405396,-5.904101,1.561020,0.048975,-1.331264,-4.108700,100641.007812
61953,0.766145,-6.428432,1.537078,0.058553,-1.450457,-4.394443,100640.906250
61963,0.910994,-7.244854,1.687912,0.013856,-1.528677,-4.648791,100640.906250
61973,1.061828,-8.562862,1.956063,-0.039355,-1.538787,-4.917507,100640.906250
61983,0.555455,-10.035296,2.196680,-0.092566,-1.486640,-5.200589,100640.906250
61998,-1.057040,-12.166136,2.309207,-0.162804,-1.321154,-5.540075,100640.906250
62008,-1.880645,-13.263878,2.357092,-0.121300,-1.190787,-5.665653,100640.710938
62018,-2.637213,-14.159308,2.394202,-0.015942,-1.048714,-5.763561,100640.710938
62028,-3.427300,-15.829265,2.377442,0.034076,-0.908769,-5.874240,100640.710938
62038,-5.226542,-17.849970,2.185906,-0.016474,-0.729448,-6.023763,100640.710938
62068,-5.455189,-20.689493,3.329138,0.002682,-0.395815,-6.229157,100640.531250
62078,-6.733692,-21.396980,3.675100,0.047911,-0.528311,-6.319616,100640.531250
62088,-7.909245,-21.411346,4.271256,0.050040,-0.595888,-6.293011,100640.531250
62098,-8.495825,-21.048624,5.452795,0.078241,-0.550659,-6.140295,100640.531250
62108,-9.327810,-20.134039,6.586449,0.178810,-0.492127,-5.890736,100640.531250
62123,-10.814610,-18.000805,6.795941,0.425177,-0.391558,-5.309672,100640.562500
62133,-13.095086,-16.701952,5.886145,0.613544,-0.179247,-4.865360,100640.562500
62143,-15.777789,-15.415068,4.225766,0.784351,0.138423,-4.402956,100640.562500
62153,-18.804060,-13.930662,2.316390,0.896094,0.519414,-3.859141,100640.562500
62163,-20.833145,-12.407950,0.357933,0.874810,0.869010,-3.195600,100640.562500
62173,-21.237766,-11.218032,-0.428562,0.716241,1.125487,-2.388389,100640.437500
62193,-19.949686,-9.299079,0.661997,0.378883,0.990863,-0.721822,100640.437500
62203,-18.304869,-8.637083,1.332373,0.209673,0.530588,0.549389,100640.437500
62213,-16.190788,-8.967483,1.650802,0.142627,0.077230,1.471535,100640.437500
62223,-9.385271,-11.868058,2.694674,0.130388,-0.325577,2.143590,100640.484375
62233,-4.983531,-12.910732,2.130840,0.094205,-0.647503,2.373461,100640.484375
62243,12.719196,-15.705963,-1.274912,0.002682,-1.022640,2.384635,100640.484375
62253,35.237862,-18.984823,-4.800375,-0.338933,-0.650164,1.533792,100640.484375
62263,9.253590,-12.544420,-1.511938,-0.285722,1.178166,0.850563,100640.484375
62273,-18.543093,-14.347254,0.521936,-0.124492,0.050093,2.184562,100640.484375
62293,-10.035296,-16.140511,-2.189497,0.136241,-1.932548,3.805368,100640.531250
62303,-1.701080,-11.505336,3.341109,0.173489,0.055946,2.633663,100640.531250
62313,-1.480814,-10.862494,6.818686,0.260755,0.343817,2.346323,100640.531250
62323,-0.557849,-11.506534,5.698200,0.388461,-0.286733,2.537351,100640.531250
62333,-0.857124,-9.853337,2.430115,0.394315,-0.745411,2.409112,100640.578125
62343,-3.143587,-9.940725,2.133234,0.320883,-0.687411,2.078672,100640.578125
62353,-2.483984,-11.407174,1.018733,0.304388,-0.475632,1.796654,100640.578125
62373,-1.833959,-10.878056,0.754174,0.179874,0.054882,1.373095,100640.578125
62383,-0.623690,-10.066422,1.556231,0.159654,0.467799,1.157590,100640.578125
62393,-0.384269,-9.655815,1.388637,0.126663,0.761524,0.962838,100640.906250
62403,-0.027533,-9.686940,1.784877,0.088884,0.981285,0.807994,100640.906250
62413,0.269348,-9.777920,2.161964,0.108572,0.990863,0.689334,100640.906250
62423,0.902614,-10.013748,2.223016,0.179874,0.801964,0.622820,100640.906250
62433,1.181539,-9.915586,2.509123,0.259691,0.518349,0.616967,100640.906250
62443,0.915782,-9.886856,2.680309,0.299599,0.264533,0.678691,100641.210938
62453,0.566229,-9.635465,2.674323,0.285232,0.138423,0.717003,100641.210938
62463,0.146046,-9.623494,2.530671,0.261819,0.095854,0.679223,100641.210938
62473,-0.090980,-9.585187,2.311602,0.246920,0.139487,0.595150,100641.210938
62483,-0.134075,-9.509769,2.619257,0.225104,0.267726,0.492985,100641.210938
62493,0.149638,-9.394848,3.177106,0.217122,0.436937,0.391884,100641.210938
62513,0.396240,-9.410410,3.028665,0.188388,0.634881,0.295040,100641.296875
62523,0.324414,-9.501390,2.394202,0.176150,0.648716,0.339737,100641.296875
62538,0.391452,-9.700109,2.278083,0.189452,0.539102,0.416361,100641.296875
62553,0.245406,-9.538500,2.914941,0.216058,0.429487,0.496710,100641.250000
62563,-0.140061,-9.418790,3.270479,0.214462,0.438001,0.526508,100641.250000
62573,-0.069432,-9.270349,3.331532,0.193177,0.469927,0.537682,100641.250000
62583,0.234632,-9.428367,3.547010,0.180406,0.485891,0.542471,100641.250000
62593,0.005986,-9.588778,3.208230,0.158590,0.456625,0.578123,100641.250000
62603,-0.148441,-9.794679,2.826355,0.141030,0.444918,0.641444,100641.250000
62613,-0.375890,-9.745598,2.602497,0.135177,0.463542,0.697315,100641.500000
62628,-0.294487,-9.686940,2.620454,0.141562,0.500790,0.762233,100641.500000
62638,-0.135272,-9.782708,2.613271,0.142627,0.503982,0.860673,100641.500000
62653,-0.183156,-9.962274,2.738967,0.127196,0.454496,1.027755,100641.500000
62663,-0.368707,-10.150218,2.694674,0.106975,0.429487,1.143223,100641.593750
62684,-1.060631,-9.994595,2.991555,0.078774,0.467267,1.276251,100641.593750
62698,-0.972046,-10.177752,3.253720,0.053764,0.547083,1.355535,100641.593750
62718,-1.204283,-10.457873,2.845509,0.007471,0.579542,1.430030,100641.617188
62728,-1.598130,-10.566810,2.269703,-0.047336,0.600294,1.503461,100641.617188
62748,-1.346738,-11.215638,2.336741,-0.112786,0.597634,1.642342,100641.617188
62763,-1.446098,-11.505336,2.201468,-0.169722,0.532184,1.783351,100641.617188
62783,-1.642422,-11.695675,1.887828,-0.259116,0.410863,1.984489,100641.593750
62808,-1.829170,-12.273875,2.312799,-0.335740,0.326790,2.157957,100641.593750
62823,-1.990779,-13.487736,2.670732,-0.403318,0.339028,2.352709,100641.593750
62843,-1.673547,-14.122199,2.252944,-0.438969,0.519946,2.620892,100641.570312
62853,-1.094150,-14.763844,1.315614,-0.490584,0.615725,2.786378,100641.570312
62873,1.351527,-17.681179,3.366248,-0.729501,0.727468,3.045516,100641.570312
62894,1.812411,-20.216639,2.917335,-0.784841,0.936056,3.094470,100641.742188
62903,8.158242,-22.457611,5.343858,-0.775795,1.977394,3.042323,100641.742188
62925,10.502166,-18.986019,4.562151,-0.675226,2.811743,2.891204,100641.742188
62938,-0.415394,-15.877149,4.942830,-0.728969,2.313688,2.910360,100641.820312
62948,-8.752005,-17.082628,6.649895,-0.782180,0.676386,3.924561,100641.820312
62958,-2.721010,-16.168043,7.880515,-0.666712,-0.281944,4.825423,100641.820312
62968,-1.162385,-15.024813,4.434062,-0.418749,-0.641650,4.640781,100641.820312
62983,3.555390,-12.148179,2.452860,-0.397465,-0.764035,3.756414,100641.820312
62993,2.361880,-5.866991,2.456451,-0.424070,-0.782127,2.805002,100641.789062
63003,0.939724,-8.437167,2.874239,-0.641703,-0.961448,1.787076,100641.789062
63013,5.019444,-9.269152,2.207454,-0.587428,-0.731044,1.087884,100641.789062
63023,6.728904,-7.583634,1.084573,-0.430988,-0.448494,0.336013,100641.789062
63033,5.533000,-4.836287,0.679953,-0.374052,0.102240,-0.345088,100641.789062
63043,4.724957,-3.903746,0.792481,-0.395336,0.469395,-0.699473,100641.789062
63063,3.837905,-2.588132,1.476025,-0.408639,0.266661,-1.108665,100641.671875
63073,3.606865,-2.560599,1.273715,-0.371923,-0.206384,-1.506151,100641.671875
63083,2.794033,-3.429694,1.004368,-0.382566,-0.534164,-1.960573,100641.671875
63093,2.869451,-4.593276,0.924162,-0.405446,-0.782659,-2.395839,100641.671875
63108,2.687491,-5.422867,0.985214,-0.382034,-1.046585,-3.013086,100641.750000
63118,1.944092,-5.639542,1.193510,-0.355960,-1.159925,-3.381838,100641.750000
63128,1.353921,-5.961562,1.623269,-0.341593,-1.223246,-3.704829,100641.750000
63138,1.113304,-6.485892,1.916559,-0.339465,-1.288163,-4.003342,100641.750000
63148,0.792481,-7.132327,2.068590,-0.344254,-1.357870,-4.294939,100641.750000
63158,0.102951,-8.107965,2.135628,-0.360749,-1.396181,-4.557801,100641.750000
63173,-0.737414,-9.447520,2.509123,-0.419813,-1.325943,-4.947305,100641.609375
63183,-0.900220,-10.569203,2.495955,-0.442694,-1.148750,-5.212296,100641.609375
63193,-1.430536,-11.249157,2.738967,-0.425134,-0.890145,-5.476754,100641.609375
63208,-1.185130,-12.587516,3.028665,-0.288914,-0.688476,-5.691195,100641.609375
63218,-1.677138,-14.228741,3.196259,-0.161740,-0.726787,-5.795488,100641.351562
63233,-3.752911,-16.646885,3.435679,-0.063300,-0.684751,-5.923727,100641.351562
63243,-3.976769,-18.067842,4.210204,-0.079263,-0.533099,-6.002479,100641.351562
63253,-4.072537,-19.203892,4.807557,-0.005832,-0.437320,-6.092405,100641.351562
63263,-5.473145,-19.911379,4.880580,0.134645,-0.504898,-6.198295,100641.351562
63278,-8.060080,-20.412964,4.689044,0.328333,-0.526182,-6.288221,100641.062500
63288,-9.533711,-20.651186,4.405331,0.410810,-0.342072,-6.245121,100641.062500
63298,-10.414778,-20.831949,4.643554,0.443801,-0.103687,-6.087616,100641.062500
63308,-11.298238,-19.786880,5.425261,0.475727,0.140551,-5.832736,100641.062500
63323,-13.421895,-17.735048,5.443218,0.583746,0.412460,-5.163342,100641.062500
63333,-15.513230,-16.523582,3.971981,0.678993,0.558790,-4.578553,100640.796875
63348,-19.989189,-13.620613,2.456451,0.790204,0.826973,-3.689930,100640.796875
63363,-22.791603,-10.681731,0.829591,0.766791,0.917964,-2.540573,100640.796875
63373,-23.422476,-9.416395,-0.118513,0.633232,0.842936,-1.566812,100640.796875
63383,-21.975180,-8.881291,0.023942,0.464021,0.643927,-0.491418,100640.781250
63398,-18.857929,-8.961497,1.337162,0.252241,0.204937,0.992636,100640.781250
63408,-15.240291,-10.260351,2.264915,0.187324,-0.089320,1.798782,100640.781250
63418,-7.893683,-13.092692,1.434127,0.191581,-0.350586,2.217021,100640.781250
63433,18.413805,-17.466898,-4.333505,-0.108529,-0.808200,2.273957,100640.781250
63443,42.341457,-18.555063,-6.823475,-0.415024,-0.060586,1.179939,100640.835938
63458,-10.901998,-13.646950,2.135628,-0.273483,1.497964,1.140563,100640.835938
