267978,8.352,-4.942,0.921,0.019171,0.009645,0.026345,101530.50
267988,8.358,-4.990,0.933,0.017042,0.009645,0.020492,101529.73
267999,8.341,-4.991,0.955,0.014382,0.011242,0.014639,101528.39
268009,8.349,-4.967,0.919,0.011721,0.013370,0.007721,101528.39
268018,8.358,-4.964,0.821,0.009593,0.014434,0.001868,101533.33
268024,8.395,-4.955,0.846,0.009060,0.012838,-0.002921,101530.17
268034,8.418,-4.906,0.812,0.013317,0.011242,-0.006114,101530.17
268044,8.412,-4.899,0.860,0.020235,0.010178,-0.006646,101531.52
268054,8.412,-4.896,0.898,0.023960,0.008049,-0.009838,101527.02
268063,8.391,-4.917,0.933,0.023960,0.006985,-0.011435,101527.02
268073,8.375,-4.938,0.961,0.021299,0.008581,-0.015691,101532.16
268084,8.362,-4.943,0.971,0.015978,0.010178,-0.019416,101530.70
268094,8.365,-4.915,0.963,0.012785,0.011774,-0.022077,101529.71
268103,8.377,-4.906,0.945,0.013317,0.011774,-0.023141,101529.71
268113,8.395,-4.876,0.889,0.015978,0.010178,-0.025802,101529.71
268124,8.389,-4.883,0.896,0.021299,0.009113,-0.028994,101531.76
268134,8.361,-4.914,0.891,0.027684,0.006985,-0.032719,101531.20
268143,8.353,-4.935,0.872,0.032473,0.005921,-0.039104,101530.88
268153,8.340,-4.936,0.922,0.036730,0.007517,-0.048150,101528.71
268164,8.333,-4.967,0.919,0.039923,0.007517,-0.058260,101528.71
268174,8.343,-4.937,0.894,0.044712,0.009645,-0.071031,101530.05
268184,8.394,-4.907,0.914,0.045244,0.012838,-0.079545,101531.08
268193,8.420,-4.902,0.874,0.045776,0.014434,-0.088058,101529.70
268204,8.440,-4.864,0.841,0.044712,0.016563,-0.093912,101529.70
268214,8.447,-4.882,0.861,0.045776,0.018159,-0.098168,101527.55
268224,8.416,-4.863,0.897,0.045244,0.019755,-0.101361,101527.55
268233,8.441,-4.842,0.935,0.043116,0.021352,-0.106150,101531.79
268243,8.441,-4.835,0.952,0.039923,0.022416,-0.106682,101529.88
268254,8.466,-4.845,0.961,0.036198,0.023480,-0.108279,101529.15
268264,8.472,-4.833,0.965,0.027684,0.025077,-0.108811,101529.15
268274,8.468,-4.815,0.999,0.019171,0.027737,-0.109343,101531.30
268283,8.459,-4.816,0.957,0.010125,0.030930,-0.109343,101530.99
268294,8.453,-4.769,0.970,0.003207,0.033058,-0.109875,101528.82
268304,8.486,-4.718,0.994,-0.001050,0.034122,-0.108811,101530.21
268314,8.467,-4.712,1.004,-0.000517,0.033590,-0.107746,101530.99
268323,8.465,-4.737,1.031,-0.000517,0.031462,-0.106682,101529.13
268334,8.446,-4.736,0.998,0.000015,0.030930,-0.107214,101530.59
268344,8.470,-4.735,0.999,-0.001582,0.030930,-0.109343,101530.59
268354,8.467,-4.721,0.986,-0.003178,0.030930,-0.110939,101529.76
268363,8.476,-4.719,1.008,-0.002646,0.030930,-0.112535,101529.76
268374,8.492,-4.686,0.981,-0.002646,0.030930,-0.114132,101533.10
268384,8.497,-4.708,0.995,-0.001582,0.029333,-0.115728,101531.18
268394,8.513,-4.699,1.004,-0.001050,0.028801,-0.115728,101530.98
268404,8.519,-4.659,1.004,0.002143,0.027205,-0.116792,101526.02
268413,8.531,-4.650,1.058,0.005868,0.024544,-0.117324,101526.02
268424,8.540,-4.651,1.048,0.005868,0.022948,-0.116792,101529.55
268434,8.546,-4.647,1.034,0.003739,0.021884,-0.115196,101531.21
268444,8.553,-4.642,1.046,0.000547,0.022416,-0.115196,101528.68
268453,8.558,-4.624,1.099,-0.002646,0.020820,-0.112535,101528.68
268464,8.546,-4.599,1.060,-0.003710,0.017627,-0.111471,101528.68
268474,8.535,-4.592,1.081,-0.005306,0.018159,-0.108811,101532.34
268484,8.569,-4.589,1.071,-0.008499,0.018691,-0.106682,101531.62
268493,8.584,-4.543,1.078,-0.011160,0.016031,-0.104022,101531.55
268499,8.589,-4.529,1.066,-0.011160,0.014966,-0.101893,101531.71
268509,8.589,-4.524,1.085,-0.011160,0.012838,-0.097104,101531.71
268519,8.583,-4.504,1.114,-0.010095,0.007517,-0.092315,101530.91
268529,8.611,-4.504,1.096,-0.011692,0.001132,-0.086462,101530.13
268538,8.604,-4.504,1.065,-0.013288,-0.003125,-0.079013,101528.43
268549,8.590,-4.523,1.020,-0.015417,-0.005254,-0.071563,101529.62
268559,8.602,-4.537,1.025,-0.019673,-0.009511,-0.067306,101529.62
268569,8.593,-4.529,1.046,-0.023930,-0.011107,-0.063581,101530.99
268578,8.611,-4.517,1.096,-0.025527,-0.014300,-0.059324,101529.04
268589,8.607,-4.512,1.089,-0.027123,-0.015896,-0.057728,101530.48
268599,8.620,-4.537,1.062,-0.028187,-0.018556,-0.054535,101530.16
268609,8.623,-4.547,1.030,-0.031380,-0.019089,-0.053471,101530.16
268619,8.612,-4.520,1.035,-0.035105,-0.021749,-0.052407,101530.00
268628,8.601,-4.508,1.024,-0.037765,-0.022813,-0.050279,101530.83
268639,8.583,-4.492,1.041,-0.040426,-0.023345,-0.049747,101528.66
268649,8.588,-4.453,1.054,-0.039894,-0.025474,-0.047618,101528.03
268659,8.595,-4.469,1.055,-0.037233,-0.027070,-0.044425,101528.03
268668,8.555,-4.499,0.991,-0.036169,-0.026006,-0.044425,101531.87
268679,8.581,-4.538,0.975,-0.035637,-0.024942,-0.046022,101531.04
268689,8.590,-4.531,0.979,-0.034040,-0.024410,-0.048150,101531.09
268699,8.592,-4.489,0.967,-0.032444,-0.025474,-0.048150,101528.98
268708,8.589,-4.490,0.988,-0.032444,-0.024410,-0.049214,101528.98
268719,8.584,-4.493,0.969,-0.031912,-0.024410,-0.051875,101532.23
268729,8.584,-4.493,0.964,-0.030316,-0.025474,-0.052407,101529.49
268739,8.611,-4.437,0.981,-0.027655,-0.026538,-0.050811,101526.29
268748,8.636,-4.420,0.974,-0.024995,-0.027070,-0.048682,101526.70
268759,8.665,-4.425,0.955,-0.023398,-0.029199,-0.048682,101526.70
268769,8.674,-4.429,0.958,-0.023398,-0.027602,-0.045490,101531.88
268779,8.657,-4.452,1.000,-0.026059,-0.025474,-0.044425,101529.70
268789,8.642,-4.458,0.965,-0.031380,-0.024410,-0.040169,101529.19
268798,8.659,-4.395,0.962,-0.033508,-0.022813,-0.036976,101527.23
268809,8.651,-4.361,0.988,-0.031380,-0.026006,-0.031655,101527.23
268819,8.647,-4.374,0.970,-0.028719,-0.031327,-0.022077,101533.01
268829,8.668,-4.367,0.973,-0.030848,-0.036648,-0.013563,101531.82
268838,8.666,-4.355,0.985,-0.029784,-0.042501,-0.006646,101529.60
268849,8.642,-4.395,0.963,-0.026591,-0.047822,0.001336,101527.85
268859,8.638,-4.439,0.934,-0.029251,-0.048887,0.004529,101527.85
268869,8.617,-4.456,0.909,-0.030316,-0.049951,0.008786,101531.20
268879,8.607,-4.493,0.916,-0.034573,-0.048887,0.012510,101531.61
268889,8.644,-4.438,0.949,-0.039361,-0.050483,0.014639,101531.16
268899,8.651,-4.405,0.977,-0.036169,-0.052611,0.016235,101528.25
268909,8.644,-4.408,0.981,-0.033508,-0.056336,0.017831,101528.25
268919,8.631,-4.433,0.866,-0.027123,-0.058997,0.017831,101531.24
268929,8.619,-4.508,0.828,-0.021270,-0.058997,0.015171,101530.16
268939,8.595,-4.580,0.775,-0.020738,-0.055272,0.010382,101532.70
268949,8.576,-4.553,0.769,-0.021802,-0.051015,0.005061,101527.74
268959,8.556,-4.520,0.795,-0.020738,-0.047822,-0.002389,101527.74
268968,8.586,-4.528,0.768,-0.017013,-0.045162,-0.006646,101531.26
268979,8.601,-4.516,0.797,-0.012756,-0.045162,-0.013031,101531.51
268989,8.610,-4.511,0.813,-0.006903,-0.044630,-0.015691,101528.98
268999,8.632,-4.496,0.813,-0.002646,-0.043566,-0.019416,101528.41
269008,8.637,-4.501,0.752,-0.002646,-0.042501,-0.022609,101528.41
269019,8.626,-4.536,0.753,-0.003710,-0.037180,-0.025802,101530.15
269029,8.651,-4.505,0.765,-0.010628,-0.032923,-0.028994,101530.66
269039,8.624,-4.487,0.797,-0.012224,-0.029199,-0.032719,101529.59
269049,8.614,-4.487,0.810,-0.011160,-0.028134,-0.034315,101530.46
269059,8.598,-4.466,0.791,-0.012224,-0.025474,-0.036444,101530.46
269069,8.577,-4.499,0.761,-0.011160,-0.021217,-0.038572,101532.43
269079,8.595,-4.488,0.752,-0.011160,-0.017492,-0.040701,101532.18
269089,8.622,-4.462,0.777,-0.012756,-0.015364,-0.041765,101529.02
269099,8.632,-4.432,0.763,-0.011692,-0.014300,-0.041233,101529.85
269109,8.623,-4.440,0.813,-0.009031,-0.013767,-0.040701,101529.85
269119,8.623,-4.444,0.787,-0.006903,-0.013235,-0.039636,101530.95
269129,8.631,-4.433,0.787,-0.008499,-0.010575,-0.038040,101531.98
269139,8.651,-4.421,0.835,-0.008499,-0.011639,-0.036976,101529.90
269149,8.716,-4.427,0.838,-0.006903,-0.010575,-0.035912,101528.41
269159,8.713,-4.434,0.765,-0.009031,-0.007382,-0.033251,101528.41
269169,8.655,-4.431,0.696,-0.011160,-0.004189,-0.030591,101530.40
269179,8.630,-4.372,0.782,-0.006903,-0.004189,-0.026866,101529.20
269189,8.678,-4.342,0.874,0.000015,-0.006318,-0.021545,101529.57
269199,8.716,-4.318,0.867,0.007464,-0.011107,-0.015691,101529.82
269209,8.710,-4.347,0.856,0.015446,-0.015896,-0.007178,101529.82
269219,8.666,-4.380,0.837,0.019703,-0.018556,0.001868,101531.56
269229,8.628,-4.405,0.785,0.018638,-0.019621,0.008786,101530.38
269239,8.605,-4.355,0.701,0.013849,-0.019089,0.016235,101532.28
269249,8.602,-4.330,0.718,0.009593,-0.015364,0.024749,101529.70
269259,8.601,-4.330,0.730,0.011721,-0.011107,0.030070,101529.70
269270,8.630,-4.398,0.795,0.020767,-0.012171,0.033795,101533.59
269279,8.587,-4.453,0.781,0.026088,-0.011107,0.038584,101530.23
269289,8.635,-4.435,0.821,0.029813,-0.011639,0.041244,101529.20
269299,8.631,-4.463,0.825,0.031409,-0.012171,0.042308,101530.03
269309,8.613,-4.447,0.826,0.028749,-0.012171,0.047097,101530.03
269319,8.711,-4.296,0.847,0.028216,-0.006850,0.051354,101529.74
269330,8.727,-4.308,0.948,0.034602,0.002196,0.057740,101531.29
269339,8.623,-4.499,0.856,0.038859,0.006453,0.060400,101531.35
269349,8.594,-4.524,0.789,0.044180,0.004324,0.059868,101527.62
269359,8.634,-4.416,0.751,0.053758,0.002728,0.060932,101527.62
269369,8.656,-4.349,0.763,0.067593,0.001664,0.063593,101531.34
269379,8.641,-4.369,0.821,0.079831,0.000067,0.071575,101531.74
269389,8.629,-4.361,0.871,0.091538,-0.004722,0.079556,101530.04
269399,8.610,-4.387,0.843,0.100051,-0.006850,0.090198,101530.76
269409,8.581,-4.432,0.793,0.101648,-0.005786,0.099776,101530.76
269419,8.534,-4.513,0.712,0.095262,-0.000465,0.106694,101533.13
269429,8.528,-4.583,0.700,0.086749,0.007517,0.110951,101530.06
269440,8.540,-4.618,0.715,0.078235,0.017095,0.114675,101529.03
269449,8.555,-4.548,0.762,0.070785,0.024012,0.117336,101526.97
269459,8.534,-4.541,0.745,0.067593,0.029333,0.119997,101526.97
269469,8.499,-4.514,0.749,0.069721,0.032526,0.126914,101532.76
269479,8.514,-4.518,0.756,0.076638,0.032526,0.132767,101531.21
269489,8.510,-4.561,0.779,0.086749,0.031994,0.140749,101531.77
269499,8.486,-4.572,0.791,0.093134,0.031462,0.147134,101529.24
269509,8.498,-4.560,0.836,0.094198,0.034655,0.154052,101529.24
269519,8.556,-4.488,0.910,0.092070,0.043168,0.160969,101531.11
269530,8.543,-4.486,0.927,0.089409,0.057003,0.166822,101530.28
269539,8.541,-4.599,0.844,0.094198,0.067113,0.167886,101526.31
269549,8.583,-4.646,0.841,0.110693,0.067113,0.170015,101529.00
269559,8.665,-4.544,0.896,0.137831,0.064985,0.172143,101529.00
269570,8.650,-4.499,0.747,0.173482,0.063388,0.175868,101532.01
269579,8.541,-4.528,0.662,0.209134,0.055939,0.176932,101531.59
269589,8.472,-4.608,0.739,0.247978,0.047425,0.175868,101530.04
269599,8.476,-4.684,0.793,0.280969,0.040508,0.174272,101530.30
269609,8.398,-4.848,0.848,0.300125,0.031462,0.168418,101530.30
269619,8.381,-4.976,0.859,0.295336,0.033058,0.164694,101531.40
269629,8.429,-4.870,1.006,0.284161,0.043700,0.165226,101532.18
269639,8.452,-4.724,1.192,0.270326,0.052746,0.169483,101531.15
269649,8.388,-4.788,1.327,0.256492,0.058599,0.175336,101528.93
269659,8.346,-4.951,1.303,0.237336,0.063921,0.177464,101528.93
269669,8.338,-4.961,1.259,0.214987,0.069774,0.179061,101527.96
269679,8.371,-4.841,1.274,0.197959,0.073499,0.180657,101528.79
269689,8.382,-4.686,1.298,0.202748,0.068177,0.188107,101529.04
269700,8.367,-4.677,1.401,0.219244,0.057003,0.199281,101526.77
269709,8.358,-4.805,1.347,0.235739,0.042636,0.211519,101526.77
269719,8.337,-4.903,1.183,0.237868,0.030398,0.223226,101532.53
269729,8.284,-4.929,1.195,0.220308,0.021884,0.233868,101530.63
269740,8.284,-4.931,1.239,0.188381,0.023480,0.243978,101525.81
269749,8.321,-4.923,1.261,0.153262,0.030930,0.254620,101529.22
269759,8.341,-4.869,1.268,0.124528,0.033590,0.266859,101529.22
269769,8.306,-4.765,1.332,0.120271,0.029333,0.283886,101532.02
269779,8.243,-4.706,1.364,0.138363,0.012838,0.302510,101530.84
269790,8.219,-4.844,1.363,0.162840,-0.000997,0.315813,101531.04
269799,8.207,-5.052,1.340,0.182528,-0.007914,0.324859,101527.68
269809,8.284,-5.139,1.402,0.201152,-0.020685,0.329648,101527.68
269819,8.292,-5.207,1.430,0.208602,-0.030263,0.327519,101529.61
269830,8.235,-5.233,1.353,0.207537,-0.031859,0.330712,101530.19
269839,8.323,-5.215,1.424,0.202216,-0.039309,0.332840,101529.36
269849,8.289,-5.167,1.566,0.201684,-0.059529,0.334969,101528.38
269859,8.203,-5.188,1.564,0.198492,-0.073896,0.336565,101528.38
269870,8.137,-5.322,1.547,0.186253,-0.080813,0.334969,101531.70
269879,8.176,-5.433,1.558,0.167629,-0.086666,0.332308,101532.37
269889,8.170,-5.533,1.551,0.162840,-0.093052,0.324327,101528.43
269899,8.155,-5.729,1.419,0.149537,-0.091988,0.310492,101529.10
269910,8.113,-5.831,1.296,0.122400,-0.080281,0.292400,101529.10
269920,8.070,-5.850,1.238,0.086216,-0.069107,0.267923,101531.80
269929,8.043,-5.829,1.255,0.049501,-0.054740,0.247703,101529.11
269939,8.021,-5.762,1.228,0.005336,-0.035052,0.232272,101530.03
269949,8.009,-5.739,1.199,-0.046279,-0.013235,0.217905,101530.19
269960,8.037,-5.678,1.305,-0.093637,0.005389,0.210455,101530.19
269969,8.122,-5.650,1.335,-0.142591,0.020820,0.213648,101531.32
269979,8.168,-5.567,1.231,-0.203251,0.033590,0.229611,101527.91
269989,8.194,-5.526,1.494,-0.265508,0.044233,0.257813,101529.46
270000,8.174,-5.433,1.758,-0.339471,0.047425,0.288675,101529.41
270009,8.211,-5.272,1.817,-0.398536,0.040508,0.324327,101529.41
270019,8.174,-5.227,1.779,-0.424077,0.013902,0.357850,101531.45
270029,8.152,-5.237,1.591,-0.418224,-0.019621,0.388712,101530.47
270040,7.998,-5.458,1.406,-0.393214,-0.054740,0.413189,101529.64
270049,7.893,-5.552,1.450,-0.368737,-0.086134,0.429152,101529.13
270059,7.723,-5.753,1.320,-0.343728,-0.104758,0.425960,101529.13
270069,7.600,-6.069,1.073,-0.334682,-0.105290,0.409996,101531.49
270080,7.482,-6.185,0.834,-0.341068,-0.098373,0.384455,101528.96
270090,7.521,-6.176,0.770,-0.352242,-0.082942,0.356785,101528.24
270099,7.659,-6.111,0.818,-0.353306,-0.073896,0.332840,101526.07
270109,7.729,-6.072,0.770,-0.341068,-0.071235,0.315281,101526.07
270119,7.730,-6.142,0.866,-0.328829,-0.080281,0.299318,101529.57
270130,7.651,-6.279,0.843,-0.337343,-0.072832,0.286015,101529.01
270139,7.678,-6.292,0.864,-0.362884,-0.058997,0.274840,101529.21
270149,7.696,-6.203,0.868,-0.385233,-0.045162,0.268987,101527.45
270159,7.692,-6.202,0.866,-0.415563,-0.036471,0.270229,101527.45
270170,7.766,-6.104,0.868,-0.440040,-0.036648,0.274308,101530.88
270180,7.903,-6.057,1.049,-0.452811,-0.041437,0.285483,101531.28
270189,7.899,-6.030,1.128,-0.461325,-0.056868,0.302510,101529.16
270199,7.839,-6.181,1.133,-0.467178,-0.070171,0.319538,101530.61
270210,7.699,-6.276,0.908,-0.477820,-0.076556,0.332840,101530.61
270220,7.766,-6.254,0.777,-0.497508,-0.080281,0.345079,101531.06
270229,7.821,-5.996,0.642,-0.508682,-0.098373,0.358914,101529.30
270239,7.968,-5.964,0.755,-0.508682,-0.129767,0.379134,101528.06
270249,8.060,-5.921,0.967,-0.481545,-0.177125,0.402547,101529.09
270260,8.095,-6.102,0.991,-0.446958,-0.227676,0.423831,101529.09
270269,7.887,-6.456,0.838,-0.438976,-0.282483,0.454694,101531.12
270279,7.900,-6.672,0.740,-0.486866,-0.286208,0.479703,101528.90
270289,8.065,-6.630,0.645,-0.548591,-0.284611,0.506308,101528.07
270300,8.173,-6.425,0.641,-0.604462,-0.306428,0.537171,101525.90
270309,8.234,-6.426,0.498,-0.623086,-0.333033,0.579207,101525.90
270319,8.490,-6.412,0.357,-0.632664,-0.368153,0.627097,101534.48
270329,8.602,-6.391,0.293,-0.650756,-0.405400,0.678712,101531.13
270340,9.070,-6.527,0.010,-0.684811,-0.433070,0.733519,101530.56
270350,9.256,-6.314,-0.361,-0.691196,-0.513951,0.805886,101528.44
270359,9.280,-5.871,-0.269,-0.682682,-0.576207,0.866014,101528.44
270369,9.463,-6.245,-0.512,-0.655012,-0.649639,0.928803,101532.95
270380,9.778,-6.537,-0.724,-0.637453,-0.730519,0.993721,101530.78
270390,10.065,-6.734,-0.520,-0.644902,-0.778409,1.055978,101529.75
270395,10.260,-6.729,-0.201,-0.660334,-0.831088,1.093225,101529.14
270404,10.332,-6.658,-0.220,-0.669912,-0.877382,1.130473,101529.14
270414,10.524,-6.652,-0.524,-0.682682,-0.918886,1.179959,101529.14
270425,10.865,-6.693,-0.616,-0.727379,-0.946556,1.228381,101531.86
270435,11.288,-6.405,-0.474,-0.778994,-0.988060,1.289574,101530.52
270445,11.660,-6.304,-0.138,-0.868388,-0.941767,1.339060,101528.75
270454,12.315,-5.528,0.074,-0.900847,-0.979547,1.408234,101528.75
270465,12.627,-5.418,0.586,-0.921599,-1.017859,1.490179,101531.97
270475,12.986,-5.087,0.928,-0.919471,-1.051381,1.564674,101531.97
270484,13.393,-5.259,1.620,-0.951398,-1.026372,1.627463,101530.31
270494,13.161,-5.576,2.572,-0.975875,-1.007748,1.701427,101525.98
270504,12.582,-5.969,3.643,-0.933838,-1.022115,1.833922,101528.05
270515,12.020,-6.045,5.140,-0.753275,-1.099626,1.992491,101528.02
270524,11.181,-7.683,4.612,-0.454939,-1.203033,2.156380,101528.02
270534,10.906,-8.076,3.574,-0.180903,-1.280721,2.242582,101530.34
270544,10.039,-8.620,2.622,-0.168132,-1.286042,2.212252,101526.27
270555,8.684,-8.334,2.403,-0.346921,-1.183877,2.057408,101526.94
270565,7.410,-9.529,1.213,-0.454939,-1.041271,1.940344,101534.03
270575,5.897,-9.634,0.425,-0.536884,-0.907712,1.900436,101528.34
270584,5.867,-8.192,0.884,-0.607123,-0.716152,1.844032,101527.27
270595,5.644,-6.825,0.961,-0.589031,-0.572483,1.689720,101527.27
270605,4.699,-6.434,1.222,-0.512939,-0.462868,1.458253,101529.59
270614,3.165,-6.310,1.190,-0.480480,-0.329309,1.209757,101529.59
270624,2.397,-4.696,1.047,-0.568811,-0.077088,0.888363,101527.95
270635,2.945,-4.209,-0.210,-0.776334,0.127242,0.483427,101528.78
270645,4.685,-2.270,1.010,-0.792297,0.270379,0.167886,101527.28
270655,6.267,0.804,1.943,-0.597013,0.353920,-0.269508,101524.95
270664,6.394,1.743,1.660,-0.347453,0.383186,-0.699453,101524.95
270674,6.067,1.693,1.224,-0.041490,0.377333,-1.007544,101528.32
270685,5.543,1.210,0.985,0.329391,0.367223,-1.274663,101526.87
270695,5.169,-0.017,0.915,0.662491,0.407663,-1.527415,101524.24
270705,5.312,-1.218,1.147,0.912051,0.488012,-1.770057,101524.24
270714,5.503,-1.944,1.401,1.111060,0.570489,-2.030259,101524.24
270725,5.613,-2.412,1.506,1.285060,0.652434,-2.302699,101529.50
270735,5.848,-2.830,1.327,1.426601,0.734911,-2.569818,101527.02
270744,6.371,-2.963,0.876,1.512270,0.834415,-2.827892,101527.48
270754,6.929,-2.976,0.701,1.541004,0.957865,-3.059891,101526.55
270765,7.490,-2.972,0.591,1.534619,1.066415,-3.269011,101526.55
270775,7.897,-3.372,0.350,1.530894,1.163791,-3.465891,101525.45
270785,8.358,-4.267,0.252,1.509078,1.274470,-3.648405,101525.61
270794,9.032,-5.356,0.265,1.421280,1.396323,-3.804313,101523.41
270804,9.673,-6.067,0.294,1.319115,1.489443,-3.937873,101523.41
270815,10.236,-6.345,0.362,1.288252,1.536800,-4.050148,101527.86
270825,10.629,-6.519,0.357,1.335610,1.542122,-4.143799,101525.80
270834,11.046,-6.698,0.434,1.412234,1.525094,-4.219891,101525.80
270844,11.407,-6.922,0.526,1.509078,1.491039,-4.273101,101525.64
270855,11.693,-7.567,0.457,1.594748,1.442085,-4.310349,101528.17
270865,11.820,-8.411,0.202,1.621885,1.397920,-4.341743,101528.17
270870,11.829,-9.020,-0.043,1.606454,1.389938,-4.352386,101528.74
270879,11.698,-9.383,-0.228,1.555904,1.412287,-4.351854,101529.99
270889,11.384,-9.613,-0.355,1.442032,1.473479,-4.338551,101528.70
270900,11.182,-9.730,-0.440,1.282399,1.567663,-4.315670,101526.41
270910,11.223,-9.935,-0.268,1.116913,1.671956,-4.255542,101526.41
270919,11.651,-10.624,-0.308,0.977500,1.768268,-4.121450,101531.74
270929,11.923,-11.418,-0.539,0.851390,1.824672,-3.951175,101529.87
270940,11.501,-12.013,-0.790,0.731133,1.834250,-3.744717,101529.20
270950,10.612,-12.675,-1.248,0.636418,1.807644,-3.479194,101528.16
270959,9.348,-13.573,-1.820,0.539042,1.735809,-3.164717,101528.16
270969,7.809,-14.034,-2.318,0.404418,1.616617,-2.773617,101531.05
270980,6.583,-14.028,-2.680,0.242125,1.454323,-2.298442,101532.48
270990,5.653,-13.785,-2.694,0.026443,1.256911,-1.733696,101533.38
271000,5.146,-13.540,-2.384,-0.139398,1.068012,-1.221452,101528.52
271009,4.823,-13.585,-1.902,-0.299563,0.839737,-0.629214,101528.52
271020,4.659,-13.755,-1.368,-0.444297,0.600819,-0.032719,101531.56
271030,5.253,-12.913,-0.341,-0.551783,0.374673,0.548345,101533.02
271040,6.698,-11.544,0.487,-0.507618,0.163425,1.078326,101530.17
271049,7.422,-10.848,-0.389,-0.242627,-0.187235,1.673757,101528.58
271059,8.309,-9.093,-0.586,0.197959,-0.684226,2.247903,101528.58
271070,16.846,1.562,-0.178,0.580546,-1.131730,2.343683,101530.47
271080,24.015,15.058,0.060,0.793922,-1.399381,1.612032,101530.58
271090,19.386,9.175,-4.631,0.997720,-1.348299,1.376840,101532.95
271099,11.704,-8.128,-9.364,1.309537,-1.470684,2.231408,101531.77
271110,7.864,-14.756,-6.806,1.468637,-1.596794,2.919426,101531.77
271120,7.849,-12.697,1.641,1.678289,-1.261033,2.773096,101532.51
271130,8.568,-10.392,3.473,1.687867,-0.983271,2.473518,101529.51
271139,8.221,-7.371,1.219,1.641573,-0.996042,2.349536,101528.99
271150,8.605,-4.945,0.010,2.045444,-1.081712,2.197353,101529.24
271160,6.960,-7.104,1.220,2.102912,-1.227510,2.121261,101529.24
271170,5.907,-11.054,0.969,1.487261,-1.131730,2.017500,101534.01
271179,6.480,-11.578,0.506,0.452840,-0.711895,1.878619,101528.23
271190,7.234,-9.607,0.182,-0.634792,-0.254813,1.688124,101528.43
271200,7.554,-7.331,-0.521,-1.395709,0.136820,1.476344,101529.51
271210,8.357,-5.054,-0.972,-1.580884,0.408728,1.298620,101529.51
271220,9.601,-3.518,0.024,-1.250975,0.470452,1.174106,101532.70
271229,9.591,-3.384,1.210,-0.806132,0.302306,1.092693,101531.46
271240,9.114,-3.850,2.147,-0.409710,0.076691,1.058638,101527.74
271250,8.666,-4.160,1.666,-0.182499,-0.037180,1.017134,101529.29
271260,8.563,-4.982,1.047,-0.070224,-0.102098,0.962326,101529.29
271269,8.420,-5.988,1.712,-0.156958,-0.084006,0.903262,101531.39
271280,8.071,-6.783,2.556,-0.434187,0.021884,0.822913,101530.63
271290,7.639,-6.589,2.654,-0.786444,0.165021,0.738308,101529.02
271300,7.591,-5.610,2.133,-1.052499,0.304434,0.677115,101529.42
271309,8.163,-4.872,1.510,-1.131251,0.349131,0.646785,101529.42
271320,8.728,-4.589,1.066,-1.074847,0.307627,0.639336,101532.90
271330,8.926,-4.647,0.928,-0.967893,0.249095,0.648381,101528.96
271340,8.914,-4.950,1.280,-0.865196,0.185242,0.659024,101529.85
271345,8.635,-5.077,1.202,-0.800811,0.122453,0.654767,101528.51
271354,8.418,-5.472,1.447,-0.785912,0.100104,0.652638,101528.51
271365,8.156,-5.630,1.412,-0.809856,0.087866,0.638271,101528.51
271375,8.343,-5.436,1.492,-0.839655,0.063388,0.619115,101531.96
271385,8.335,-5.324,1.471,-0.816774,0.006453,0.609537,101529.84
271395,8.150,-5.274,1.360,-0.768884,-0.029731,0.605813,101531.07
271405,8.280,-5.342,1.256,-0.732168,-0.044098,0.604748,101531.07
271415,8.248,-5.324,1.098,-0.696517,-0.068043,0.610602,101531.89
271425,8.224,-5.480,1.025,-0.670976,-0.077621,0.623904,101531.89
271435,8.278,-5.678,1.147,-0.662994,-0.097309,0.634015,101530.34
271444,8.216,-5.811,1.330,-0.686407,-0.117529,0.641996,101530.50
271455,8.153,-5.798,1.473,-0.716205,-0.134024,0.651042,101528.58
271465,8.063,-5.662,1.419,-0.738022,-0.154244,0.670375,101531.20
271475,8.017,-5.565,0.761,-0.729508,-0.186703,0.689354,101531.20
271485,8.074,-5.662,0.198,-0.705031,-0.211180,0.715427,101530.05
271495,8.339,-5.678,0.114,-0.686407,-0.249492,0.754803,101529.34
271505,8.800,-5.656,-0.002,-0.660334,-0.294721,0.800565,101529.66
271515,8.972,-5.747,-0.017,-0.623086,-0.359639,0.853776,101530.70
271525,9.130,-5.799,-0.029,-0.605526,-0.415510,0.913904,101530.38
271535,9.278,-5.732,0.167,-0.603930,-0.488941,0.980950,101529.30
271545,9.634,-5.483,0.573,-0.598077,-0.576740,1.065023,101529.30
271555,9.968,-5.318,0.996,-0.572535,-0.686354,1.163464,101528.99
271565,10.197,-5.333,1.393,-0.554976,-0.792776,1.277335,101528.99
271575,10.265,-5.350,1.436,-0.551251,-0.881106,1.407170,101531.55
271585,10.574,-5.807,1.032,-0.576260,-0.948684,1.536473,101530.88
271595,10.682,-5.802,0.647,-0.604994,-1.016262,1.670032,101530.20
271605,10.880,-6.008,0.198,-0.681086,-1.071069,1.803592,101529.89
271614,11.492,-6.157,-0.366,-0.774737,-1.105657,1.939280,101529.89
271625,12.230,-6.270,-0.828,-0.883820,-1.156207,2.055812,101530.72
271635,13.100,-6.072,-0.881,-1.030150,-1.190262,2.164362,101530.25
271645,14.376,-5.665,-0.531,-1.198297,-1.186537,2.271316,101526.80
271655,15.859,-4.962,0.253,-1.342498,-1.205161,2.356454,101526.80
271665,16.927,-4.323,1.289,-1.442535,-1.195583,2.419775,101526.80
271675,17.581,-4.075,2.428,-1.571306,-1.109914,2.478307,101532.83
271685,17.205,-4.220,4.363,-1.667617,-0.931657,2.586325,101531.84
271695,16.750,-4.457,5.638,-1.584076,-0.863547,2.779481,101530.09
271705,15.858,-6.754,6.630,-1.203618,-1.016262,2.993921,101529.53
271715,16.065,-8.312,5.767,-0.679490,-1.200372,3.090233,101529.53
271725,14.563,-8.986,4.406,-0.597545,-1.237620,2.912508,101528.24
271735,11.967,-9.768,3.934,-0.917343,-1.095547,2.593243,101528.34
271746,9.383,-10.676,2.478,-0.993434,-0.940171,2.437334,101526.59
271755,8.672,-8.970,2.176,-0.933306,-0.793840,2.328784,101526.59
271765,7.578,-7.247,2.200,-0.840187,-0.659749,2.064857,101530.20
271775,5.325,-6.604,2.901,-0.728444,-0.507033,1.721647,101526.68
271784,2.381,-5.309,3.345,-0.646499,-0.238318,1.368326,101526.68
271795,-0.412,-4.943,2.325,-0.562957,0.090526,0.839409,101528.34
271805,-0.491,-6.363,0.871,-0.582113,0.271443,0.364767,101528.96
271815,2.978,-2.094,1.602,-0.537948,0.327847,-0.143930,101528.96
271825,4.407,1.284,1.043,-0.395875,0.356049,-0.718608,101528.77
271835,4.227,2.271,0.101,-0.287325,0.446508,-1.133122,101529.80
271845,3.942,2.951,-0.286,-0.098426,0.500251,-1.461434,101526.59
271855,3.284,3.009,-0.232,0.351207,0.486948,-1.805177,101525.05
271865,2.671,2.095,0.209,0.843941,0.473113,-2.103690,101527.40
271876,3.146,0.911,0.989,1.214289,0.507700,-2.364956,101529.57
271885,4.085,-0.280,1.603,1.554839,0.519407,-2.638461,101527.29
271895,4.678,-1.411,1.498,1.866123,0.507700,-2.928460,101527.29
271905,5.043,-2.259,1.034,2.073114,0.526324,-3.215268,101525.23
271915,5.576,-2.876,0.658,2.173151,0.596562,-3.486111,101525.23
271925,6.299,-3.433,0.372,2.198160,0.697663,-3.744717,101528.23
271935,6.833,-3.806,0.071,2.187518,0.801425,-3.982570,101527.42
271945,7.263,-4.295,-0.118,2.166765,0.908911,-4.185835,101530.11
271955,7.760,-4.888,-0.093,2.137500,1.011608,-4.372074,101523.28
271965,8.327,-5.744,0.081,2.073646,1.104727,-4.518936,101523.28
271975,9.128,-6.523,0.197,1.962968,1.186672,-4.631211,101528.88
271985,10.076,-7.269,0.108,1.831004,1.256911,-4.720074,101526.03
271995,10.505,-7.918,-0.138,1.718729,1.297883,-4.794569,101527.16
272006,10.768,-8.527,-0.302,1.613371,1.329810,-4.853633,101527.16
272015,11.084,-9.078,-0.368,1.503757,1.339920,-4.908973,101527.16
272025,11.457,-9.634,-0.282,1.377647,1.356415,-4.946753,101528.16
272035,12.123,-10.345,-0.050,1.191940,1.410158,-4.952074,101530.76
272045,12.453,-10.986,0.133,0.956216,1.511791,-4.936110,101529.51
272055,12.336,-11.103,0.343,0.698675,1.644819,-4.885560,101525.63
272065,11.867,-11.101,0.361,0.476785,1.787956,-4.772753,101525.63
272075,11.428,-11.224,0.558,0.330987,1.935883,-4.605670,101528.48
272086,11.627,-11.742,0.230,0.221904,2.071571,-4.389102,101530.34
272095,11.638,-12.632,-0.701,0.088877,2.188103,-4.133157,101530.45
272105,10.860,-13.945,-2.059,-0.064903,2.265791,-3.835176,101529.07
272115,9.377,-14.478,-3.189,-0.269765,2.244506,-3.469616,101531.34
272125,8.136,-14.356,-3.411,-0.439508,2.126378,-3.011470,101531.23
272135,7.111,-14.158,-3.499,-0.516664,1.882140,-2.481488,101531.23
272145,6.079,-13.985,-3.678,-0.583710,1.561810,-1.875947,101532.43
272155,5.173,-13.618,-3.655,-0.675233,1.217535,-1.214003,101528.45
272165,4.745,-13.084,-2.645,-0.705563,0.838140,-0.521196,101528.45
272176,5.251,-12.738,-1.216,-0.563135,0.404116,0.217018,101531.16
272185,5.863,-12.574,-0.508,-0.369270,0.053278,0.796840,101531.16
272195,6.559,-12.373,-0.041,-0.148444,-0.278758,1.386950,101529.53
272205,8.877,-10.836,1.667,0.091538,-0.497987,1.843500,101530.34
272216,11.906,-6.349,0.724,0.374088,-0.737969,2.185114,101530.34
272226,16.233,4.149,1.892,0.430491,-1.054042,2.095188,101530.81
272235,21.450,14.186,1.923,0.546491,-1.050849,1.442289,101529.42
272245,20.533,11.139,-2.750,0.583207,-1.034886,1.198051,101527.55
272256,14.368,-4.992,-8.755,0.860436,-1.257308,1.950986,101527.55
272265,10.112,-14.060,-9.239,1.346252,-1.539858,2.824710,101527.55
272275,9.947,-12.801,-2.420,1.427665,-1.456317,2.836417,101535.13
272285,6.779,-10.780,1.663,1.504289,-1.115767,2.455426,101529.66
272295,6.499,-11.120,3.733,1.417023,-0.715620,2.294729,101528.72
272305,8.578,-7.818,2.701,1.532491,-0.684226,2.175536,101528.05
272315,9.098,-4.501,1.619,1.739481,-0.807143,1.969610,101528.05
272325,7.061,-6.603,1.402,1.596344,-0.865143,1.874895,101531.55
272335,6.418,-10.521,0.709,0.957280,-0.674116,1.876491,101530.03
272346,6.791,-11.141,0.485,-0.151637,-0.326648,1.758362,101528.23
272355,7.025,-9.440,0.537,-1.125398,0.031994,1.468363,101528.23
272365,8.200,-7.013,-0.169,-1.663360,0.318801,1.201244,101530.90
272375,9.591,-4.860,-0.796,-1.779360,0.474177,1.040014,101530.90
272386,10.292,-2.909,-0.047,-1.445728,0.485884,0.958601,101531.88
272395,10.028,-2.855,1.459,-1.051966,0.366159,0.940510,101531.98
272405,10.068,-2.795,2.754,-0.680554,0.156508,0.933060,101529.24
272415,9.798,-3.346,3.294,-0.415563,-0.071767,0.933060,101529.24
272425,8.826,-4.682,3.058,-0.347453,-0.246299,0.904858,101530.08
272436,8.353,-4.844,2.979,-0.449086,-0.289400,0.847923,101529.36
272445,7.864,-4.724,3.260,-0.638517,-0.275565,0.813868,101529.83
272455,7.434,-5.097,3.528,-0.863599,-0.211180,0.789923,101529.61
272465,7.456,-4.538,3.454,-1.037599,-0.149455,0.784602,101532.86
272476,7.691,-4.104,2.705,-1.095067,-0.092520,0.808014,101527.84
272485,8.504,-3.329,1.436,-0.970021,-0.163822,0.845262,101530.64
272495,9.112,-3.074,0.587,-0.709288,-0.312813,0.921354,101530.64
272505,9.114,-3.408,0.484,-0.446958,-0.443180,1.005427,101529.09
272516,8.817,-4.144,0.915,-0.261251,-0.516079,1.066088,101529.09
272525,8.510,-4.856,1.376,-0.161747,-0.567162,1.093757,101532.94
272531,8.237,-5.168,1.226,-0.134609,-0.582061,1.112381,101529.27
272540,8.319,-5.496,0.900,-0.155894,-0.568758,1.124088,101530.70
272550,8.061,-5.778,0.204,-0.245288,-0.529914,1.110253,101527.66
272561,8.193,-5.812,0.422,-0.369270,-0.472446,1.131005,101527.66
272570,8.454,-5.638,0.147,-0.408646,-0.421896,1.129941,101533.37
272580,8.553,-5.546,-0.142,-0.373526,-0.419767,1.120363,101526.60
272590,8.426,-5.795,-0.168,-0.307013,-0.441052,1.106528,101530.73
272601,8.307,-6.140,-0.071,-0.262848,-0.467125,1.094822,101530.12
272610,8.100,-6.408,0.266,-0.255398,-0.464464,1.075134,101530.12
272620,8.027,-6.565,0.583,-0.282536,-0.438391,1.059170,101532.16
272630,8.006,-6.788,0.562,-0.346921,-0.381455,1.046932,101530.25
272641,8.097,-6.757,0.562,-0.441636,-0.328244,1.043739,101531.75
272651,8.252,-6.838,0.423,-0.561361,-0.278049,1.061653,101532.31
272660,9.284,-6.152,-0.077,-0.682682,-0.253749,1.098546,101532.31
272670,9.691,-5.471,0.090,-0.720462,-0.308024,1.160803,101531.30
272680,9.961,-5.438,0.332,-0.696517,-0.388905,1.263500,101528.77
272691,10.299,-5.504,0.145,-0.658737,-0.477767,1.365133,101528.20
272700,10.284,-5.692,0.251,-0.617765,-0.595896,1.469427,101527.63
272710,10.327,-5.767,0.665,-0.590095,-0.700721,1.577445,101527.63
272720,10.473,-5.981,1.079,-0.583710,-0.784795,1.691317,101532.55
272731,10.689,-6.321,1.090,-0.611380,-0.845987,1.804124,101531.25
272740,11.129,-6.457,1.013,-0.685343,-0.883767,1.925445,101529.19
272750,11.750,-6.357,0.999,-0.777398,-0.906116,2.056344,101528.81
272760,12.403,-6.274,0.633,-0.880095,-0.906648,2.203738,101528.81
272771,14.000,-6.241,0.329,-1.003544,-0.926336,2.340490,101530.91
272780,16.047,-5.847,1.092,-1.133379,-0.980079,2.454362,101531.16
272790,17.498,-5.276,2.215,-1.260553,-0.969969,2.560784,101530.76
272800,18.099,-5.441,2.261,-1.438278,-0.825767,2.662949,101528.07
272811,18.489,-5.472,2.036,-1.735727,-0.583125,2.750747,101528.07
272821,18.031,-5.975,3.222,-2.080534,-0.290997,2.885371,101530.49
272830,17.477,-7.302,4.183,-2.201856,-0.217565,3.110985,101528.99
272840,17.977,-7.087,3.606,-2.124700,-0.310153,3.235499,101528.38
272850,16.573,-6.595,5.337,-2.238039,-0.383584,3.021591,101528.38
272861,13.390,-7.521,5.615,-2.280076,-0.301639,2.715628,101528.38
272870,9.847,-9.759,3.327,-1.957085,-0.288868,2.551206,101529.27
272880,6.948,-10.543,2.234,-1.586737,-0.203199,2.525132,101531.91
272890,5.922,-9.080,2.303,-1.335049,-0.018556,2.359646,101531.15
272901,4.125,-6.942,2.434,-1.229691,0.153847,1.945665,101528.76
272910,3.435,-2.193,3.247,-1.164774,0.426287,1.299684,101528.76
272920,3.712,-1.923,0.544,-1.154664,0.524195,0.715427,101528.95
272930,6.413,1.798,2.097,-0.900315,0.562507,0.227483,101528.99
272941,6.199,4.643,2.672,-0.361820,0.506104,-0.532370,101524.96
272951,4.680,3.829,1.642,0.117079,0.477902,-0.995306,101526.04
272960,3.749,2.794,1.918,0.593849,0.457150,-1.251782,101526.04
272970,3.294,1.432,2.135,1.104142,0.380526,-1.520498,101529.22
272980,3.359,-0.013,1.769,1.517592,0.291131,-1.858920,101526.38
272991,3.684,-1.024,1.317,1.800142,0.243242,-2.239910,101523.84
273000,4.033,-1.883,0.750,1.991169,0.231535,-2.604406,101526.73
273006,4.265,-2.474,0.293,2.100252,0.228875,-2.857158,101526.73
273015,4.465,-3.054,-0.007,2.179536,0.243242,-3.091286,101526.73
273026,4.798,-3.415,-0.113,2.204545,0.294856,-3.396717,101528.11
273036,5.209,-3.115,-0.092,2.140692,0.385847,-3.669689,101525.98
273046,5.769,-2.689,-0.108,2.033206,0.510893,-3.895836,101526.23
273055,6.388,-2.484,0.028,1.957646,0.619975,-4.097505,101526.91
273065,6.815,-3.011,0.279,1.910821,0.708838,-4.286404,101527.16
273076,7.538,-3.898,0.224,1.925188,0.743957,-4.483817,101526.85
273085,7.605,-5.591,0.476,1.838986,0.923278,-4.632808,101526.85
273095,8.602,-6.570,0.637,1.676160,1.074929,-4.757854,101527.01
273105,9.293,-6.935,0.469,1.599537,1.154213,-4.848312,101525.41
273116,9.722,-7.553,0.142,1.631995,1.206892,-4.904184,101525.41
273126,10.486,-8.323,-0.211,1.672436,1.265779,-4.961474,101529.25
273135,11.637,-9.081,-0.356,1.647426,1.306397,-5.013266,101529.25
273145,12.704,-9.851,-0.469,1.577720,1.346837,-5.046789,101525.64
273156,13.193,-10.448,-0.452,1.470234,1.391002,-5.035615,101527.75
273166,12.941,-11.145,-0.377,1.346252,1.435167,-4.970697,101527.75
273176,12.444,-11.848,-0.092,1.251005,1.476672,-4.836606,101526.98
273185,12.141,-12.221,0.415,1.197794,1.522433,-4.661009,101526.98
273196,12.129,-12.658,0.636,1.173849,1.588947,-4.444441,101526.11
273206,11.811,-13.890,0.100,1.089243,1.706011,-4.168808,101526.11
273215,10.812,-15.455,-1.392,0.913647,1.817754,-3.814423,101526.11
273225,9.381,-16.873,-2.997,0.632161,1.867241,-3.403634,101533.07
273235,7.718,-17.490,-3.855,0.304381,1.797534,-2.923139,101532.91
273246,6.310,-17.515,-4.033,0.048437,1.610232,-2.334094,101534.10
273256,5.137,-17.514,-4.077,-0.136738,1.327681,-1.667892,101528.27
273265,4.041,-17.322,-3.786,-0.335747,1.000434,-0.936241,101528.27
273275,3.608,-16.452,-2.574,-0.510811,0.674250,-0.165214,101531.13
273286,4.578,-15.090,-0.438,-0.569343,0.357113,0.570161,101530.98
273296,6.284,-13.485,1.795,-0.390554,0.080416,1.191666,101531.73
273305,7.272,-12.673,0.595,-0.072352,-0.215969,1.792950,101531.73
273315,9.904,-10.055,-0.896,0.185189,-0.644318,2.355389,101531.54
273326,19.185,3.616,-1.023,0.189978,-1.060959,2.244711,101531.54
273336,23.013,14.267,-1.947,0.233079,-1.209418,1.477409,101530.77
273345,17.251,4.141,-6.466,0.384198,-1.075326,1.545519,101530.57
273355,10.821,-11.996,-9.685,0.826381,-1.184409,2.512362,101532.59
273366,8.127,-15.509,-4.446,0.933867,-1.279124,3.046600,101532.59
273376,8.254,-12.404,3.085,1.334546,-1.019455,2.819389,101531.39
273386,9.231,-10.435,3.203,1.376050,-0.876317,2.563977,101529.94
273395,8.630,-6.778,2.052,1.351041,-0.989657,2.399554,101529.11
273405,9.337,-2.722,1.948,1.808123,-1.140244,2.245775,101528.44
273416,7.571,-4.671,3.132,1.977867,-1.369583,2.229280,101531.17
273426,5.459,-10.591,2.282,1.467041,-1.350427,2.121261,101530.41
273436,5.778,-12.465,0.515,0.297996,-0.905051,2.021224,101528.91
273445,6.948,-9.600,-0.135,-0.763563,-0.387308,1.826473,101528.91
273456,8.024,-6.254,-1.449,-1.257893,0.040508,1.584895,101528.55
273466,9.492,-4.578,-1.351,-1.175948,0.238985,1.381097,101528.55
273476,9.783,-3.656,-1.033,-0.893930,0.194820,1.245941,101533.75
273481,9.468,-4.364,-0.301,-0.647563,0.121388,1.197519,101532.86
273490,9.305,-4.566,0.495,-0.434719,0.060728,1.143244,101530.33
273501,9.243,-5.119,0.085,-0.228793,0.000600,1.066620,101529.97
273511,8.552,-6.588,1.517,-0.216022,-0.028667,0.971904,101529.97
273520,7.304,-7.222,2.931,-0.489526,0.087866,0.863354,101531.87
273530,6.932,-6.972,2.498,-0.843911,0.279425,0.761189,101531.96
273541,7.697,-6.010,1.542,-1.112627,0.435333,0.676583,101531.09
273551,8.721,-5.046,0.933,-1.170095,0.471517,0.634015,101530.21
273560,9.182,-4.952,0.493,-1.096664,0.424159,0.628161,101530.21
273570,9.329,-4.820,0.560,-1.013122,0.361902,0.635079,101533.70
273581,9.477,-4.484,1.019,-0.942884,0.296453,0.646253,101533.55
273591,9.388,-4.232,1.450,-0.882223,0.215040,0.680308,101529.16
273601,9.066,-4.573,1.523,-0.807728,0.134159,0.727134,101529.63
273610,8.689,-5.052,1.472,-0.791765,0.095315,0.769170,101529.63
273620,8.547,-4.955,1.755,-0.840719,0.063388,0.819721,101531.04
273631,8.571,-4.687,1.499,-0.854022,0.004856,0.871336,101530.05
273641,8.933,-4.454,0.787,-0.802407,-0.085602,0.914968,101527.84
273650,8.790,-4.811,0.594,-0.724719,-0.180850,0.974033,101528.91
273660,8.721,-4.962,0.551,-0.666187,-0.223951,1.032033,101528.91
273671,8.575,-5.267,0.592,-0.608719,-0.278758,1.074601,101530.45
273681,8.089,-5.438,0.720,-0.561893,-0.343675,1.102271,101529.84
273690,7.744,-5.806,0.822,-0.531031,-0.361767,1.121427,101531.23
273700,7.450,-6.278,0.575,-0.526774,-0.374006,1.123023,101529.37
273711,7.459,-6.545,0.192,-0.562957,-0.368153,1.124088,101529.37
273717,7.675,-6.542,0.192,-0.610315,-0.359639,1.128345,101530.78
273726,8.027,-6.223,0.454,-0.647031,-0.370281,1.136858,101530.78
273736,8.545,-5.697,0.660,-0.652884,-0.411253,1.170913,101528.66
273745,9.163,-5.324,0.624,-0.606591,-0.488941,1.228381,101528.92
273756,9.553,-5.102,0.692,-0.526242,-0.596428,1.311390,101530.20
273766,9.778,-5.472,0.653,-0.480480,-0.695400,1.413023,101532.70
273776,10.088,-5.686,0.506,-0.508682,-0.768299,1.526895,101529.45
273785,10.551,-6.059,0.425,-0.609783,-0.798629,1.659922,101530.02
273796,11.047,-5.673,0.617,-0.688535,-0.847583,1.801463,101530.02
273806,11.521,-5.733,0.635,-0.765159,-0.916758,1.945665,101530.42
273816,11.898,-5.649,0.586,-0.843379,-0.967840,2.100509,101530.42
273825,12.458,-5.846,0.065,-0.959911,-0.990189,2.256949,101532.27
273836,13.473,-5.665,-0.278,-1.121141,-1.001363,2.395298,101528.40
273846,14.858,-5.330,-0.313,-1.298333,-0.985932,2.508637,101530.41
273856,16.921,-4.900,0.263,-1.505324,-0.935914,2.594839,101529.43
273866,18.887,-4.481,1.720,-1.725617,-0.861950,2.658160,101529.43
273875,19.538,-4.340,3.133,-1.929947,-0.709235,2.770435,101532.86
273886,19.975,-4.100,4.424,-2.012424,-0.574611,2.978490,101529.94
273896,19.265,-5.713,5.488,-1.811819,-0.654428,3.235499,101527.64
273906,20.218,-6.693,5.951,-1.287159,-0.882703,3.436636,101527.64
273915,19.694,-6.609,5.943,-1.039728,-1.088097,3.293499,101527.64
273926,15.918,-7.867,5.265,-1.149343,-1.140776,2.919958,101531.31
273936,10.994,-11.240,3.513,-1.120609,-1.216868,2.734784,101528.42
273946,8.696,-10.587,2.295,-0.952462,-1.135455,2.612398,101527.86
273955,8.328,-7.785,1.873,-0.875306,-0.928996,2.334105,101527.59
273966,6.394,-6.952,2.440,-0.751856,-0.776281,1.975463,101527.59
273976,2.916,-4.687,4.534,-0.574664,-0.485749,1.548711,101529.98
273986,-0.505,-5.387,2.875,-0.352774,-0.222354,0.917097,101527.09
273996,0.561,-6.096,2.197,-0.179838,-0.122850,0.383391,101527.46
274006,4.362,-0.619,2.198,0.094198,-0.193621,-0.333361,101527.46
274016,4.885,1.914,0.658,0.263409,-0.151584,-0.959122,101528.90
274026,3.982,2.161,-0.031,0.297464,-0.012703,-1.384278,101528.74
274035,3.394,2.969,0.111,0.423574,0.124581,-1.762608,101528.74
274045,2.442,2.824,0.506,0.755610,0.190031,-2.124443,101527.55
274056,1.587,1.609,1.037,1.061041,0.268251,-2.410718,101526.32
274066,1.760,0.230,1.395,1.234509,0.373076,-2.683158,101526.32
274076,2.648,-1.018,1.254,1.362748,0.473645,-3.004552,101527.01
274085,3.494,-1.954,0.709,1.459059,0.549205,-3.354148,101530.62
274096,4.105,-2.398,0.372,1.525573,0.634874,-3.689909,101528.04
274106,4.623,-2.330,0.220,1.538344,0.753003,-4.005982,101526.54
274116,5.065,-2.273,0.309,1.508014,0.917425,-4.317266,101526.54
274126,5.569,-2.376,0.714,1.525041,1.081314,-4.603542,101527.51
274136,6.160,-2.605,0.871,1.553243,1.255314,-4.820642,101523.62
274146,6.977,-3.387,1.150,1.603793,1.409626,-5.002092,101523.04
274156,7.756,-4.603,1.253,1.712344,1.510727,-5.139376,101523.04
274165,8.517,-5.780,1.139,1.884215,1.573516,-5.251651,101523.04
274176,9.378,-7.119,0.962,2.100252,1.599057,-5.310184,101528.20
274186,10.263,-9.160,0.209,2.245518,1.583094,-5.360734,101526.38
274196,11.122,-11.232,-0.336,2.150802,1.588415,-5.440018,101526.65
274206,12.307,-12.667,-0.435,1.884215,1.651204,-5.496422,101525.35
274215,13.130,-13.621,-0.219,1.508014,1.760286,-5.487908,101525.35
274226,13.369,-14.135,0.078,1.063170,1.878415,-5.424055,101528.05
274236,12.601,-14.298,0.724,0.616198,2.014103,-5.315505,101528.49
274246,11.716,-14.829,1.511,0.235739,2.204066,-5.092019,101527.79
274256,11.237,-15.893,1.741,-0.060646,2.417974,-4.755193,101527.79
274266,10.800,-16.196,0.882,-0.351178,2.581864,-4.355578,101528.44
274276,10.529,-16.537,-1.266,-0.670444,2.694139,-3.902753,101528.44
274286,9.694,-17.483,-3.235,-0.966829,2.716488,-3.435561,101530.50
274296,7.912,-17.256,-4.313,-1.191911,2.632946,-2.907176,101529.20
274306,6.245,-16.440,-4.583,-1.310040,2.402543,-2.282479,101531.44
274312,5.431,-15.863,-4.900,-1.324407,2.112543,-1.768461,101531.44
274321,4.905,-15.425,-5.176,-1.278113,1.733149,-1.192186,101531.61
274331,4.662,-14.615,-4.867,-1.117416,1.176562,-0.383379,101533.22
274340,5.965,-13.155,-3.265,-0.864132,0.632214,0.389776,101532.02
274351,7.412,-11.951,-2.088,-0.458664,0.149058,1.046400,101532.33
274361,8.092,-11.487,-2.565,0.008528,-0.412850,1.757830,101532.33
274371,13.262,-3.923,1.364,0.547556,-0.968904,2.319738,101533.13
274381,27.506,16.646,5.921,0.891831,-1.333932,1.717390,101526.56
274391,26.935,18.284,-1.762,0.992931,-1.282317,0.906455,101529.09
274401,14.575,-6.470,-13.038,1.311665,-1.462702,1.956839,101531.53
274411,8.161,-19.047,-9.662,1.778325,-1.945858,3.236563,101531.53
274421,6.434,-20.716,-1.641,2.286490,-1.793142,3.302545,101531.77
274430,9.597,-16.558,-0.517,1.501628,-1.249858,2.932196,101529.48
274441,8.711,-7.302,2.271,0.792858,-0.803418,2.613463,101531.25
274451,8.171,-3.924,1.491,1.040821,-0.658684,2.437866,101528.36
274461,6.543,-4.508,3.591,1.286656,-0.778409,2.335169,101528.36
274471,4.379,-7.937,4.242,0.785409,-0.845455,2.230876,101530.30
274481,4.148,-10.912,1.983,-0.082994,-0.561308,1.914803,101528.69
274491,6.819,-10.117,0.111,-0.834333,-0.170740,1.499757,101529.36
274501,9.292,-7.189,-0.448,-1.313764,0.064453,1.239023,101532.31
274511,10.491,-4.675,-0.663,-1.298865,0.198544,1.055445,101532.31
274521,9.645,-4.340,-0.770,-1.096132,0.277297,0.980418,101531.62
274531,9.343,-3.942,-0.269,-0.839122,0.240581,0.960198,101530.99
274541,9.700,-3.444,1.363,-0.538480,0.134691,0.895813,101529.29
274551,9.474,-4.101,1.935,-0.324572,0.011242,0.891024,101528.51
274561,8.644,-5.125,2.586,-0.285196,-0.032391,0.863886,101528.51
274571,7.897,-5.926,2.707,-0.452279,0.025609,0.802693,101531.02
274581,7.505,-6.591,2.696,-0.759838,0.143737,0.734583,101531.64
274591,7.963,-5.397,2.747,-1.059948,0.252287,0.680308,101528.75
274600,8.528,-4.037,2.780,-1.122737,0.275700,0.668070,101529.88
274611,8.648,-3.921,2.173,-0.996095,0.191627,0.670198,101529.88
274621,8.559,-4.393,1.533,-0.850829,0.095847,0.679776,101530.38
274631,8.418,-4.769,1.299,-0.762499,0.028801,0.696804,101530.34
274641,8.309,-4.932,1.254,-0.731104,-0.005786,0.707978,101531.82
274651,8.392,-4.987,1.345,-0.738022,-0.016428,0.721813,101530.02
274661,8.345,-5.031,1.315,-0.744939,-0.030263,0.728198,101530.02
274671,8.215,-5.088,1.175,-0.727912,-0.049419,0.742565,101532.01
274681,8.045,-5.090,1.218,-0.697049,-0.084006,0.748950,101531.79
274691,7.964,-5.184,1.388,-0.656609,-0.130832,0.753207,101529.21
274701,8.052,-5.291,1.790,-0.633196,-0.179786,0.748950,101529.37
274711,7.934,-5.431,2.063,-0.613508,-0.206391,0.748418,101529.37
274721,7.837,-5.613,1.939,-0.627343,-0.193621,0.760125,101530.65
274732,7.821,-5.752,1.751,-0.657141,-0.170208,0.773959,101532.04
274741,7.944,-5.682,1.647,-0.703434,-0.159566,0.787794,101529.20
274751,8.119,-5.593,1.400,-0.726847,-0.168079,0.796840,101528.32
274761,8.055,-5.877,1.149,-0.725783,-0.186703,0.801629,101528.32
274771,8.037,-6.085,0.738,-0.739086,-0.180850,0.805354,101532.13
274781,8.394,-5.818,0.069,-0.742278,-0.198410,0.802693,101531.46
274791,8.460,-5.696,-0.272,-0.701838,-0.246832,0.803225,101529.45
274801,8.599,-5.929,-0.299,-0.664058,-0.291529,0.820785,101527.74
274811,8.945,-5.867,-0.149,-0.633728,-0.346336,0.844730,101527.74
274821,9.105,-6.006,0.093,-0.626811,-0.391565,0.879849,101532.60
274831,9.358,-5.911,0.090,-0.649159,-0.447437,0.931464,101529.96
274841,9.469,-5.582,0.458,-0.664590,-0.526189,1.008088,101530.48
274851,9.735,-5.294,1.200,-0.678425,-0.631547,1.103867,101530.43
274861,10.005,-5.025,1.596,-0.664590,-0.758721,1.219335,101530.43
274871,10.080,-5.168,1.757,-0.682682,-0.842794,1.367262,101529.62
274881,10.354,-5.382,1.676,-0.739618,-0.907180,1.531152,101532.21
274891,10.689,-5.484,1.535,-0.812517,-0.994446,1.691317,101529.82
274902,11.143,-5.401,1.471,-0.863599,-1.059363,1.838179,101531.99
274911,11.429,-5.443,0.904,-0.880627,-1.135987,1.972803,101531.99
274921,11.778,-5.881,-0.015,-0.927985,-1.195051,2.108490,101530.57
274931,12.394,-6.257,-0.986,-1.034939,-1.216336,2.225555,101530.30
274941,13.217,-6.032,-1.365,-1.175948,-1.218464,2.310160,101530.21
274951,14.268,-5.302,-1.200,-1.324939,-1.206225,2.375077,101530.46
274961,15.552,-4.903,-0.471,-1.480315,-1.172703,2.427756,101530.46
274971,16.919,-4.178,0.932,-1.631434,-1.154611,2.486289,101531.79
274981,17.996,-3.279,3.176,-1.754351,-1.060959,2.596967,101529.46
274992,18.804,-2.989,5.209,-1.667617,-1.000299,2.789059,101528.79
275001,18.569,-4.549,6.026,-1.233416,-1.150354,3.022655,101527.96
275011,18.093,-7.933,5.882,-0.626279,-1.372244,3.251994,101527.96
275021,17.436,-9.846,5.152,-0.255930,-1.488776,3.264233,101528.67
275032,15.485,-9.864,5.597,-0.394811,-1.450996,3.006160,101528.27
275041,11.999,-11.724,3.825,-0.606591,-1.395124,2.751279,101530.58
275051,8.988,-12.161,1.881,-0.576792,-1.329675,2.656031,101527.08
275061,8.402,-9.050,1.475,-0.567214,-1.203033,2.442656,101527.08
275072,6.952,-6.618,1.547,-0.506022,-1.105125,2.014839,101528.00
275081,3.591,-5.750,2.210,-0.401196,-0.959859,1.566271,101529.44
275091,0.032,-4.529,3.254,-0.253270,-0.604941,1.107060,101525.05
275101,-1.884,-6.595,1.315,-0.151105,-0.297382,0.599427,101528.00
275111,1.938,-3.852,1.477,-0.068628,-0.162226,0.119464,101528.00
275122,4.411,1.132,0.768,0.048969,-0.134024,-0.525985,101532.16
275131,3.923,2.616,-0.075,0.141024,-0.021217,-1.114498,101529.42
275141,3.308,3.163,-0.498,0.231128,0.105070,-1.522981,101527.36
275151,2.565,3.141,-0.075,0.456565,0.137352,-1.832846,101526.78
275161,1.510,1.943,0.597,0.733794,0.162361,-2.116993,101526.78
275171,1.377,0.292,1.101,0.973243,0.200141,-2.361763,101529.17
275181,1.926,-1.371,1.510,1.214289,0.229407,-2.615580,101526.78
275191,2.790,-2.690,1.257,1.440436,0.254948,-2.918350,101525.23
275202,3.543,-3.063,0.792,1.593683,0.274104,-3.233891,101523.84
275211,4.222,-2.846,0.425,1.697977,0.295388,-3.523359,101523.84
275221,5.019,-2.741,0.403,1.771408,0.343278,-3.783029,101529.23
275231,5.561,-3.043,0.489,1.811316,0.427352,-4.030992,101530.21
275241,5.995,-3.411,0.757,1.861867,0.515150,-4.249689,101524.88
275252,6.552,-3.854,1.043,1.899114,0.597627,-4.425817,101524.88
275261,7.314,-4.737,1.569,1.973078,0.634874,-4.566294,101524.88
275271,8.000,-6.126,1.619,2.099188,0.620507,-4.671120,101527.46
275281,8.459,-7.906,1.681,2.262013,0.589113,-4.751468,101524.51
275292,8.865,-9.742,1.735,2.333316,0.555590,-4.817450,101528.59
275301,9.206,-10.913,2.003,2.271591,0.534306,-4.881835,101526.01
275311,9.431,-11.624,2.186,2.107169,0.557718,-4.925468,101526.01
275321,9.762,-12.148,2.343,1.833133,0.675847,-4.920147,101528.38
275332,10.020,-12.774,2.580,1.444693,0.880709,-4.865872,101528.27
275341,9.774,-13.397,2.784,0.985482,1.146764,-4.804147,101528.58
275351,9.190,-14.089,2.726,0.514033,1.478800,-4.721138,101528.38
275361,8.774,-14.960,2.610,0.065464,1.867241,-4.548734,101528.38
275372,8.577,-15.838,2.118,-0.344260,2.237589,-4.283212,101529.45
275381,8.523,-16.398,1.342,-0.732168,2.549937,-3.952240,101529.91
275391,8.358,-16.342,0.257,-1.150407,2.805882,-3.568056,101527.64
275401,7.974,-16.069,-1.456,-1.571838,2.977754,-3.160460,101528.20
275411,7.339,-15.619,-2.919,-1.962938,3.004891,-2.744350,101528.20
275422,6.257,-14.875,-3.112,-2.264645,2.931460,-2.278754,101531.52
275431,5.551,-14.905,-3.238,-2.495048,2.809075,-1.730149,101530.23
275441,5.054,-15.185,-3.713,-2.690865,2.602616,-1.141636,101532.19
275451,4.688,-15.457,-4.015,-2.821231,2.357846,-0.549398,101528.73
275462,4.894,-15.479,-3.879,-2.948938,2.093387,0.079024,101528.73
275471,6.462,-14.757,-3.094,-2.893066,1.826268,0.677115,101534.40
275481,8.608,-13.514,-1.920,-2.496644,1.440488,1.274143,101531.29
275491,10.716,-11.230,-7.793,-1.838957,0.619443,1.608840,101532.18
275496,12.449,-8.474,-9.478,-1.188187,-0.256409,1.924381,101530.88
275507,22.242,1.253,-11.716,-0.473563,-1.076391,1.998876,101530.88
275516,25.243,9.655,-9.761,-0.039894,-1.691509,1.475812,101530.88
275526,20.338,2.570,-0.980,0.995592,-1.828262,1.819555,101534.34
275536,19.917,-4.689,-4.564,1.944876,-2.023546,2.520876,101529.23
275547,14.982,-4.249,-5.322,2.338637,-2.348665,2.758729,101529.59
275557,6.498,-6.254,3.284,2.325866,-2.315142,2.561848,101529.59
275566,0.614,-9.333,8.849,1.751720,-2.038445,2.215977,101528.39
275576,0.825,-10.345,4.387,1.017408,-1.539326,1.838179,101528.39
275587,2.275,-12.199,3.895,-0.068095,-0.894409,1.550840,101530.14
275597,5.284,-10.088,1.006,-1.091875,-0.395822,1.295959,101528.91
275606,9.313,-5.399,-0.014,-1.444663,-0.121786,1.080987,101527.92
275616,11.462,-2.366,0.089,-0.996095,-0.206391,0.967115,101527.92
275627,10.803,-3.072,0.539,-0.360756,-0.479896,0.935721,101531.73
275637,9.618,-4.180,0.917,0.073446,-0.649639,0.888895,101532.66
275647,9.015,-5.106,0.668,0.317152,-0.712428,0.797904,101529.71
275656,7.834,-6.785,-0.538,0.342161,-0.683161,0.689354,101530.88
275666,7.252,-7.241,-0.229,0.156987,-0.532574,0.588785,101533.25
275677,7.271,-6.553,0.834,-0.022866,-0.398483,0.499923,101532.80
275687,7.272,-6.030,1.314,-0.142591,-0.316006,0.425960,101530.98
275696,7.524,-5.656,1.182,-0.233582,-0.254813,0.365299,101530.98
275706,7.989,-5.211,1.176,-0.269233,-0.223419,0.328051,101530.20
275717,8.352,-4.695,1.096,-0.246352,-0.210648,0.318473,101530.20
275727,8.462,-4.797,0.646,-0.201655,-0.213841,0.319006,101533.92
275736,8.249,-4.982,0.501,-0.177178,-0.221290,0.332840,101533.55
275746,8.083,-5.120,0.527,-0.197930,-0.203731,0.353593,101529.94
275757,8.150,-5.255,0.798,-0.264444,-0.164887,0.380730,101530.34
275767,8.250,-4.972,1.263,-0.329893,-0.142538,0.416914,101530.34
275777,8.127,-4.867,1.286,-0.357563,-0.138281,0.458418,101529.89
275786,8.107,-4.941,1.225,-0.376719,-0.141474,0.490877,101530.69
275796,8.157,-4.949,1.052,-0.377251,-0.164354,0.526528,101530.53
275807,8.116,-5.015,0.807,-0.353306,-0.187767,0.558987,101530.53
275816,8.090,-5.023,0.884,-0.336279,-0.203731,0.594106,101530.53
275826,8.072,-5.022,0.971,-0.320315,-0.218098,0.627629,101532.09
275836,7.981,-5.389,0.763,-0.302224,-0.224483,0.657959,101530.96
275847,7.846,-5.932,0.185,-0.333618,-0.214373,0.685097,101530.07
275857,7.651,-6.056,-0.220,-0.419288,-0.168079,0.705317,101531.84
275866,7.563,-6.365,-0.650,-0.510811,-0.098905,0.722345,101531.84
275876,7.805,-6.531,-0.542,-0.642242,-0.007914,0.730859,101529.98
275887,8.289,-5.982,0.668,-0.785912,0.064985,0.740436,101532.27
275897,8.171,-6.178,1.078,-0.829012,0.104361,0.747886,101530.73
275906,7.673,-7.027,0.558,-0.864664,0.134159,0.732987,101530.73
275916,7.563,-7.349,0.163,-0.956719,0.179921,0.687226,101532.43
275927,7.887,-7.251,0.309,-1.037599,0.212911,0.603684,101531.09
275937,7.763,-7.034,0.516,-1.092407,0.221425,0.537703,101531.09
275946,7.811,-6.596,1.166,-1.068994,0.261865,0.546749,101530.66
275956,8.114,-6.667,0.812,-0.998223,0.298049,0.590382,101531.80
275966,9.036,-6.658,0.573,-0.985453,0.287407,0.654767,101531.80
275972,9.731,-7.016,0.618,-1.031746,0.246966,0.699464,101533.68
275982,10.824,-7.624,1.372,-1.140297,0.220361,0.746822,101530.88
275991,12.114,-7.764,2.305,-1.316957,0.220361,0.827702,101529.80
276001,11.625,-8.157,3.101,-1.555342,0.362434,0.927739,101526.96
276012,10.426,-8.936,3.129,-1.983691,0.665737,1.010216,101526.96
276022,11.764,-7.033,1.530,-2.499837,0.921682,1.102271,101527.48
276031,10.466,-7.165,2.674,-2.870185,1.141443,1.174106,101529.02
276041,9.056,-7.207,5.796,-3.168167,1.543186,1.218803,101529.23
276051,8.704,-7.032,6.301,-3.437947,1.923644,1.239023,101529.34
276062,7.852,-7.331,5.806,-3.622056,2.249295,1.211886,101529.34
276072,7.648,-7.335,5.372,-3.751359,2.570158,1.139519,101531.16
276081,7.988,-6.703,4.864,-3.831708,2.814396,1.035757,101531.67
276091,8.164,-6.391,3.670,-3.889708,2.970304,0.950620,101531.63
276102,7.672,-6.019,2.751,-3.897689,3.072469,0.890491,101529.81
276112,7.531,-4.871,2.062,-3.883855,3.129405,0.834088,101529.81
276121,7.555,-3.741,1.238,-3.829047,3.144304,0.744693,101530.16
276131,7.682,-2.872,0.334,-3.751891,3.104928,0.649978,101530.89
276142,7.869,-1.806,-0.074,-3.631634,3.025111,0.529189,101530.63
276152,7.717,-1.214,-0.408,-3.480515,2.928800,0.404675,101528.72
276161,7.329,-1.043,-0.426,-3.294277,2.829827,0.302510,101528.72
276171,6.954,-1.306,-0.369,-3.041525,2.717552,0.225354,101532.30
276182,6.655,-2.799,-0.944,-2.700443,2.574947,0.206730,101533.95
276192,7.641,-3.035,-1.624,-2.420021,2.430745,0.180125,101530.64
276202,8.673,-2.496,-1.839,-2.208241,2.325919,0.060400,101528.38
276211,8.780,-2.698,-2.141,-2.087452,2.282286,-0.070499,101528.38
276221,9.085,-2.737,-2.011,-2.028920,2.286011,-0.152444,101532.38
276232,9.480,-1.883,-1.650,-1.955489,2.282818,-0.264187,101531.03
276242,9.518,-1.159,-1.547,-1.846406,2.269516,-0.381783,101532.31
276251,9.507,-0.605,-1.537,-1.706461,2.237589,-0.480223,101531.59
276261,9.461,-0.236,-1.620,-1.527140,2.182250,-0.578664,101531.59
276272,9.451,-0.049,-1.651,-1.305251,2.121057,-0.681893,101531.79
276282,9.547,-0.180,-1.559,-1.058352,2.054011,-0.796829,101530.66
276291,9.580,-0.676,-1.479,-0.796022,1.974727,-0.926131,101528.85
276301,9.558,-1.398,-1.541,-0.561893,1.905552,-1.050645,101527.82
276312,9.561,-2.079,-1.602,-0.367673,1.853406,-1.181544,101527.82
276322,9.698,-2.619,-1.575,-0.224536,1.814562,-1.314039,101530.94
276327,9.892,-2.814,-1.520,-0.152701,1.790085,-1.411947,101531.05
276336,10.107,-2.635,-1.593,-0.115453,1.767736,-1.505599,101531.05
276346,10.506,-2.140,-1.484,-0.076077,1.725167,-1.631177,101530.58
276357,10.705,-1.804,-1.393,-0.009563,1.667167,-1.750369,101525.67
276367,10.681,-1.772,-1.322,0.077171,1.607039,-1.852534,101525.67
276377,10.610,-1.927,-1.318,0.145281,1.547443,-1.940332,101529.02
276386,10.608,-2.148,-1.260,0.179336,1.488911,-2.028131,101530.23
276397,10.614,-2.393,-1.182,0.191042,1.435700,-2.114332,101529.05
276407,10.667,-2.714,-1.055,0.177739,1.400048,-2.200534,101529.05
276417,10.696,-3.093,-0.916,0.141556,1.377700,-2.288332,101529.05
276426,10.596,-3.413,-0.764,0.082492,1.368122,-2.364424,101531.27
276436,10.288,-3.747,-0.708,0.003739,1.384085,-2.410186,101529.82
276447,10.123,-3.995,-0.699,-0.098426,1.395259,-2.417990,101529.62
276457,10.059,-4.092,-0.733,-0.172389,1.380360,-2.395286,101529.62
276467,10.037,-4.111,-0.744,-0.218150,1.341516,-2.353782,101529.62
276476,9.973,-4.124,-0.778,-0.231985,1.286709,-2.302167,101530.09
276487,9.786,-4.118,-0.966,-0.234114,1.219663,-2.245231,101528.75
276497,9.519,-4.059,-1.023,-0.227196,1.152617,-2.182975,101528.75
276507,9.315,-4.130,-0.991,-0.211765,1.092489,-2.122314,101528.75
276517,9.234,-4.431,-0.920,-0.169196,1.027571,-2.046222,101528.98
276527,9.217,-4.845,-0.949,-0.123967,0.957333,-1.952039,101528.98
276537,9.053,-5.362,-0.931,-0.087251,0.869003,-1.857855,101528.87
276547,8.595,-5.672,-0.738,-0.044683,0.760984,-1.753030,101529.49
276556,8.193,-5.814,-0.677,0.000015,0.646049,-1.617342,101529.27
276567,8.259,-6.031,-0.553,0.010125,0.556654,-1.453984,101529.27
276577,8.381,-6.117,-0.369,0.002675,0.466728,-1.276792,101531.20
276587,8.313,-6.110,0.090,-0.004242,0.370416,-1.074590,101529.09
276597,8.098,-6.219,0.601,0.003207,0.266654,-0.850040,101529.45
276606,7.694,-6.786,0.733,0.014914,0.168214,-0.604205,101528.96
276617,7.326,-7.711,0.464,-0.011692,0.078820,-0.317398,101533.45
276627,7.129,-8.435,0.095,-0.076077,-0.002593,0.000804,101531.07
276637,7.422,-7.987,0.278,-0.114921,-0.097841,0.319006,101530.35
276646,7.651,-7.985,1.261,0.017574,-0.201602,0.574418,101530.35
276657,6.473,-9.328,0.380,0.188381,-0.341547,0.966051,101528.34
276667,6.935,-9.053,0.929,0.271391,-0.556519,1.377372,101528.34
276677,12.091,-2.228,2.350,0.283629,-0.698593,1.405574,101533.75
276682,14.340,2.671,3.783,0.297464,-0.722538,1.160271,101529.97
276691,14.639,4.545,4.785,0.379941,-0.611327,0.942638,101529.05
276702,14.147,2.191,3.768,0.482106,-0.484685,0.907519,101528.63
276712,12.334,-3.486,0.185,0.555005,-0.599620,1.195390,101528.63
276722,10.214,-8.213,-2.517,0.613005,-0.765639,1.557757,101531.50
276731,8.431,-9.554,-0.682,0.720491,-0.726795,1.722179,101531.14
276742,8.407,-10.081,-1.490,0.757739,-0.588446,1.683867,101529.95
276752,8.592,-7.617,-2.012,0.360785,-0.424556,1.544454,101531.41
276762,7.839,-6.073,-0.413,0.175079,-0.279290,1.389078,101531.41
276771,7.217,-6.184,0.483,0.071317,-0.139345,1.283188,101534.55
276782,7.354,-5.812,0.562,-0.161747,-0.001529,1.202840,101530.62
276792,7.822,-5.896,0.439,-0.360756,0.130434,1.103335,101530.21
276802,8.516,-6.287,0.626,-0.566682,0.218942,1.017311,101527.93
276811,9.360,-5.626,1.067,-0.681086,0.243774,0.978290,101527.93
276822,9.596,-4.708,1.789,-0.652884,0.217700,0.952216,101532.52
276832,9.355,-3.830,2.404,-0.591159,0.231535,0.952748,101529.09
276842,9.169,-3.648,2.872,-0.582113,0.229407,0.950620,101530.70
276852,8.952,-3.520,2.787,-0.563490,0.183645,0.922418,101529.63
276861,8.829,-3.737,2.314,-0.461325,0.120324,0.873464,101529.63
276872,9.021,-3.970,2.100,-0.366609,0.056471,0.850051,101530.24
276882,9.001,-4.190,2.285,-0.330958,0.006453,0.827170,101531.07
276892,8.796,-4.652,2.064,-0.333086,0.001132,0.796308,101531.38
276901,8.623,-5.109,1.658,-0.365013,-0.013767,0.764381,101530.49
276912,8.376,-5.066,1.207,-0.393214,-0.038244,0.733519,101530.49
276922,8.325,-4.956,1.411,-0.408646,-0.020153,0.705317,101529.76
276932,8.429,-4.711,1.691,-0.412903,-0.028667,0.683501,101531.91
276941,8.370,-4.615,1.680,-0.423545,-0.021217,0.679776,101529.18
276952,8.531,-4.572,1.799,-0.417692,-0.031327,0.687226,101527.68
276962,8.498,-4.517,1.947,-0.386297,-0.048887,0.697336,101527.68
276972,8.628,-4.753,2.202,-0.374059,-0.061657,0.704253,101531.01
276982,8.436,-5.010,1.866,-0.370334,-0.095712,0.706381,101531.46
276992,8.277,-5.260,1.777,-0.401728,-0.074428,0.712767,101528.68
277002,8.298,-5.417,1.831,-0.474095,-0.045694,0.716492,101528.16
277012,8.179,-5.385,1.527,-0.544334,-0.026006,0.717024,101528.16
277022,8.230,-5.513,1.490,-0.593820,0.007517,0.721813,101531.23
277031,8.161,-5.320,1.675,-0.617233,0.012838,0.719152,101526.80
277042,8.094,-5.278,1.613,-0.613508,0.006985,0.728730,101531.39
277052,8.163,-5.494,1.462,-0.601269,-0.017492,0.734583,101529.02
277062,8.284,-5.769,1.189,-0.606591,-0.046226,0.742033,101529.02
277072,8.549,-6.055,0.980,-0.642242,-0.070703,0.738840,101530.42
277082,8.516,-6.330,0.653,-0.705031,-0.083474,0.732987,101529.75
277092,8.477,-6.366,0.534,-0.793893,-0.073364,0.734051,101528.14
277102,8.321,-6.233,0.595,-0.887012,-0.049951,0.742565,101528.61
277112,8.272,-5.988,0.804,-0.993966,-0.045162,0.759060,101528.61
277122,8.440,-5.571,1.785,-1.054627,-0.088795,0.771299,101530.95
277132,8.114,-5.355,2.499,-1.042921,-0.154777,0.788858,101531.47
277142,7.897,-5.798,2.388,-1.020040,-0.174465,0.815996,101533.59
277152,7.670,-6.355,2.093,-1.036003,-0.161694,0.850583,101525.89
277161,8.145,-6.332,1.903,-1.117948,-0.141474,0.883574,101525.89
277172,8.456,-6.016,1.558,-1.188719,-0.170740,0.925611,101535.01
277182,9.574,-4.987,0.635,-1.182865,-0.236721,0.978822,101532.79
277192,9.902,-4.968,-0.111,-1.089746,-0.354318,1.060767,101530.21
277201,10.438,-4.732,-0.462,-0.992902,-0.469786,1.187941,101530.10
277212,10.985,-4.569,-0.725,-0.871581,-0.612923,1.334271,101530.10
277222,11.025,-4.803,-0.561,-0.758774,-0.775749,1.494968,101531.45
277232,11.145,-5.266,-0.380,-0.698645,-0.917822,1.651408,101530.62
277242,11.373,-5.630,-0.161,-0.677361,-1.014666,1.795078,101528.09
277252,11.740,-5.910,0.069,-0.674701,-1.096611,1.922252,101531.24
277262,12.005,-6.087,0.020,-0.713012,-1.164189,2.040380,101531.24
277272,13.266,-6.248,0.155,-0.831141,-1.177491,2.153188,101529.43
277282,14.943,-5.877,0.494,-0.952462,-1.228574,2.254821,101530.10
277292,16.300,-5.259,1.418,-1.038664,-1.274868,2.352197,101529.18
277302,16.946,-4.668,1.802,-1.106242,-1.255180,2.459683,101531.96
277312,17.201,-4.296,2.002,-1.221709,-1.151950,2.564509,101531.96
277322,17.266,-3.541,3.288,-1.314296,-1.004024,2.679976,101531.03
277332,16.853,-3.891,4.369,-1.204150,-0.956134,2.852380,101528.28
277342,15.560,-5.781,4.839,-0.846572,-1.085969,3.035426,101529.98
277352,15.281,-8.345,4.526,-0.439508,-1.193455,3.186013,101525.59
277362,15.240,-9.410,3.913,-0.520921,-1.205693,3.087573,101525.59
277372,13.597,-9.176,3.776,-0.890737,-1.066813,2.799701,101530.44
277382,10.707,-10.392,1.916,-1.098792,-0.996042,2.607610,101528.16
277392,8.982,-9.895,0.493,-1.152003,-0.932721,2.510766,101527.75
277402,8.532,-6.832,0.623,-1.235544,-0.801822,2.270252,101525.73
277412,7.634,-4.171,1.704,-1.210003,-0.545345,1.904693,101525.73
277422,5.383,-3.116,2.463,-0.995031,-0.292593,1.544986,101528.72
277432,3.557,-2.038,3.555,-0.664058,-0.043033,1.239023,101526.50
277442,0.772,-2.817,3.595,-0.295838,0.074031,0.798436,101528.72
277452,0.775,-4.560,1.988,0.123464,0.010710,0.380730,101528.00
277462,3.862,-2.075,1.344,0.434748,-0.175529,-0.286535,101528.00
277472,4.478,-0.493,0.216,0.559794,-0.211180,-0.929856,101529.23
277482,4.644,0.087,-0.235,0.535849,-0.039309,-1.325214,101529.63
277492,5.081,0.812,0.431,0.559794,0.203333,-1.639690,101529.38
277502,4.776,1.160,0.879,0.675262,0.373076,-2.020681,101527.26
277512,4.241,1.002,1.322,0.874271,0.538562,-2.380919,101527.26
277522,4.245,0.306,1.717,1.082858,0.661480,-2.654956,101527.22
277532,4.581,-0.447,1.827,1.221739,0.697663,-2.882699,101527.84
277542,5.193,-1.194,1.500,1.298895,0.691810,-3.123213,101525.36
277552,5.747,-1.857,0.920,1.365940,0.689150,-3.417469,101524.42
277562,6.178,-2.261,0.527,1.420748,0.728526,-3.745249,101524.42
277572,6.613,-2.378,0.290,1.448417,0.815260,-4.068771,101527.18
277582,7.015,-2.423,0.196,1.452674,0.935516,-4.341212,101528.59
277592,7.535,-2.658,0.265,1.429793,1.071204,-4.568954,101526.26
277602,7.900,-3.341,0.339,1.392546,1.210617,-4.771688,101524.29
277612,8.367,-4.203,0.628,1.377647,1.353222,-4.964844,101524.29
277622,9.373,-5.154,0.928,1.342528,1.507002,-5.141505,101526.65
277633,10.336,-6.069,1.281,1.388644,1.637901,-5.300605,101523.02
277642,11.204,-6.870,1.383,1.589426,1.704947,-5.398514,101522.26
277652,11.882,-8.939,0.771,1.820894,1.691644,-5.469284,101527.01
277662,12.755,-10.699,0.421,1.863995,1.614488,-5.548037,101527.01
277672,13.305,-12.430,-0.555,1.738417,1.629920,-5.591670,101525.16
277682,14.272,-14.260,-0.829,1.389885,1.766140,-5.569321,101526.66
277692,14.023,-14.949,-1.326,0.924821,1.874690,-5.429908,101528.05
277702,12.455,-15.374,-1.298,0.494877,1.963020,-5.187266,101526.35
277712,11.562,-15.585,-0.665,0.163372,2.026874,-4.859487,101526.35
277723,10.926,-15.573,-0.159,-0.094701,2.060396,-4.466258,101529.34
277732,9.808,-16.101,-0.293,-0.267637,2.093387,-3.985763,101529.02
277742,8.295,-17.299,-1.170,-0.382572,2.074764,-3.430240,101528.20
277752,6.779,-18.008,-2.521,-0.499636,1.967809,-2.820974,101529.02
277762,5.644,-17.873,-3.666,-0.607655,1.776250,-2.138809,101529.02
277772,5.045,-16.861,-4.271,-0.672572,1.467626,-1.436424,101532.59
277782,4.750,-15.789,-4.333,-0.654480,1.055241,-0.706902,101534.20
277792,4.440,-15.157,-3.697,-0.563490,0.609865,0.044969,101531.52
277803,4.612,-14.951,-2.936,-0.456536,0.216104,0.776088,101528.78
277812,6.958,-12.871,-0.816,-0.308609,-0.112740,1.401849,101528.78
277822,8.588,-11.613,-0.717,0.081960,-0.441584,1.875427,101532.40
277832,10.530,-7.694,-0.994,0.529996,-0.929528,2.345279,101529.35
277842,18.611,5.979,2.277,0.781684,-1.313712,2.103169,101528.27
277852,24.624,16.695,1.591,0.896087,-1.319565,1.167721,101526.26
277862,18.884,4.072,-6.353,0.845005,-1.201969,1.209225,101526.26
277872,11.141,-14.706,-10.749,1.105739,-1.423858,2.492142,101530.79
277882,7.398,-18.297,-2.788,1.467573,-1.558482,3.238160,101531.10
277893,8.736,-15.139,2.795,1.983188,-1.242941,2.938582,101528.66
277902,9.880,-10.574,0.592,1.479280,-1.015730,2.542692,101529.24
277912,7.174,-7.083,-1.851,1.057849,-0.901327,2.325059,101529.24
277922,6.523,-6.836,-1.260,1.189280,-0.741694,2.182454,101531.33
277933,6.214,-7.441,1.290,1.138197,-0.694336,2.054215,101531.42
277942,6.261,-7.741,1.752,0.805629,-0.583125,1.838711,101528.22
277952,7.493,-8.869,1.109,0.191574,-0.330905,1.688124,101527.08
277962,8.051,-8.584,0.655,-0.570407,-0.109015,1.535941,101527.08
277972,8.337,-6.721,0.181,-1.006737,0.068177,1.322032,101531.45
277982,8.763,-5.187,0.153,-1.125930,0.243242,1.181556,101530.20
277988,9.480,-4.548,0.582,-1.081765,0.308691,1.113445,101529.84
277997,9.721,-3.919,0.879,-0.938095,0.267719,1.039482,101529.84
278007,9.446,-3.830,1.083,-0.754517,0.210251,0.980950,101528.86
278018,9.041,-4.210,1.309,-0.585306,0.152251,0.960198,101528.86
278028,8.833,-4.597,1.797,-0.448022,0.088930,0.912840,101530.05
278037,8.713,-4.911,1.572,-0.357031,0.018159,0.848987,101528.96
278047,8.412,-5.291,1.421,-0.355967,-0.014300,0.799501,101528.09
278057,7.928,-5.914,1.807,-0.468774,0.027205,0.740969,101528.09
278067,7.927,-6.174,2.073,-0.691196,0.121921,0.690950,101528.09
278077,7.901,-5.567,1.749,-0.862535,0.162893,0.638804,101529.95
278087,7.937,-5.145,1.583,-0.974810,0.206526,0.618051,101531.45
278097,8.417,-4.793,1.714,-1.032810,0.228343,0.626565,101531.20
278108,8.904,-4.243,1.760,-1.028554,0.182581,0.663281,101525.71
278117,9.167,-4.120,1.749,-0.965765,0.113939,0.713299,101525.71
278127,9.266,-4.045,1.984,-0.852425,-0.006318,0.756400,101530.60
278137,8.703,-4.504,1.454,-0.730040,-0.102098,0.804822,101529.26
278148,8.337,-5.181,1.244,-0.676297,-0.118593,0.831427,101531.84
278158,8.268,-5.324,1.297,-0.691728,-0.126043,0.851115,101529.31
278167,8.201,-5.605,1.092,-0.724187,-0.120721,0.863886,101529.52
278177,8.399,-5.817,1.125,-0.774205,-0.121786,0.864950,101529.22
278188,8.341,-5.705,1.216,-0.826352,-0.144666,0.853244,101529.22
278198,8.143,-5.717,1.214,-0.844976,-0.157969,0.846326,101527.92
278207,7.966,-5.907,1.014,-0.844444,-0.165951,0.846858,101527.88
278217,7.934,-6.065,0.721,-0.857746,-0.157969,0.850051,101527.88
278227,8.053,-6.012,0.284,-0.874242,-0.163290,0.856969,101532.29
278238,8.405,-5.722,-0.282,-0.877434,-0.180850,0.876657,101531.62
278248,9.033,-5.254,-0.594,-0.845508,-0.257474,0.912308,101530.16
278257,9.570,-5.270,-0.113,-0.799746,-0.358575,0.966051,101530.27
278267,9.777,-5.332,-0.155,-0.736425,-0.462336,1.043207,101528.70
278278,9.898,-5.357,-0.009,-0.701838,-0.546941,1.136858,101530.45
278288,10.026,-5.087,0.478,-0.694921,-0.664006,1.244344,101530.20
278297,10.175,-4.924,1.129,-0.682682,-0.790648,1.364601,101530.61
278307,10.460,-4.976,1.441,-0.649159,-0.920482,1.499225,101530.61
278318,10.831,-5.404,1.333,-0.621490,-1.028501,1.630656,101530.61
278328,11.089,-6.008,0.787,-0.642774,-1.112574,1.756766,101529.00
278337,11.542,-6.188,0.526,-0.724719,-1.175363,1.877555,101530.66
278347,12.058,-6.090,0.109,-0.838590,-1.195583,2.004197,101526.27
278358,12.941,-5.952,-0.177,-0.955655,-1.212611,2.135096,101530.61
278368,13.623,-5.656,-0.587,-1.069526,-1.229106,2.267591,101530.61
278378,14.931,-5.405,-0.702,-1.200425,-1.237620,2.390509,101530.95
278387,16.763,-4.839,-0.021,-1.366443,-1.254647,2.475114,101529.34
278397,18.605,-4.211,1.321,-1.532994,-1.218464,2.528325,101529.91
278408,19.431,-3.315,3.422,-1.642076,-1.109381,2.611866,101529.91
278418,18.561,-3.127,5.155,-1.619195,-1.012005,2.787995,101532.13
278427,17.760,-3.518,6.207,-1.379214,-1.079051,3.009352,101532.13
278437,16.957,-7.017,5.768,-0.899251,-1.297748,3.245609,101529.49
278448,18.185,-8.606,4.765,-0.605526,-1.511124,3.300416,101532.24
278458,16.786,-8.601,6.009,-0.727912,-1.480794,3.006160,101528.26
278467,13.461,-9.912,4.731,-0.757710,-1.376500,2.759261,101528.26
278477,10.608,-9.774,2.586,-0.600205,-1.299877,2.666674,101528.03
278488,9.501,-7.119,2.414,-0.514003,-1.128537,2.494270,101527.92
278498,8.175,-5.431,2.141,-0.445893,-0.926336,2.170747,101529.89
278508,5.228,-4.891,3.182,-0.351178,-0.686354,1.821151,101525.94
278517,2.030,-3.945,4.053,-0.263380,-0.289400,1.346509,101527.80
278528,-1.389,-7.053,1.662,-0.257526,0.043700,0.836748,101528.78
278538,2.410,-4.356,3.100,-0.247949,0.202269,0.257281,101527.38
278547,4.775,0.931,2.573,-0.070224,0.191627,-0.487141,101527.38
278557,5.031,2.349,1.260,-0.022866,0.300709,-0.993709,101525.78
278567,4.706,2.699,0.422,-0.036169,0.411920,-1.350223,101525.78
278578,4.123,2.965,0.048,0.073978,0.494397,-1.722700,101528.95
278583,3.370,2.503,-0.167,0.318748,0.535370,-2.001525,101527.05
278592,2.528,1.521,0.108,0.595978,0.589113,-2.226075,101529.31
278602,2.409,0.302,0.963,0.871610,0.700856,-2.477763,101525.19
278612,3.388,-0.621,1.374,1.087647,0.820049,-2.759782,101525.19
278623,4.639,-1.141,1.234,1.274950,0.886562,-3.101396,101528.00
278632,5.404,-1.656,0.645,1.440968,0.922746,-3.468552,101526.77
278642,5.855,-2.200,0.200,1.551647,0.972764,-3.814423,101525.67
278652,6.304,-2.435,0.138,1.580381,1.059498,-4.129432,101525.58
278663,6.693,-2.320,0.276,1.568142,1.185076,-4.412514,101525.58
278673,6.937,-2.521,0.425,1.577188,1.332470,-4.668991,101527.82
278682,7.378,-3.019,0.858,1.628270,1.471351,-4.899395,101527.77
278692,8.152,-3.991,1.322,1.643702,1.611296,-5.094147,101526.43
278703,9.128,-5.228,1.504,1.683610,1.723571,-5.244202,101526.01
278713,9.753,-6.369,1.694,1.833665,1.793277,-5.343706,101526.01
278722,10.421,-7.521,1.521,2.093866,1.824140,-5.401706,101528.46
278732,11.153,-9.750,0.447,2.290215,1.786892,-5.461835,101527.02
278743,11.872,-11.967,-0.441,2.194435,1.789020,-5.544844,101527.79
278753,13.265,-13.834,-0.949,1.883683,1.858727,-5.582623,101527.90
278762,13.874,-15.682,-1.539,1.451610,1.959828,-5.529945,101527.90
278772,13.236,-16.627,-1.692,0.943977,2.074231,-5.380954,101527.91
278782,12.079,-17.390,-1.261,0.459757,2.197681,-5.144165,101529.30
278793,11.053,-18.313,-0.414,0.075574,2.324323,-4.765835,101529.93
278803,9.682,-18.699,0.020,-0.178774,2.400415,-4.269377,101529.46
278812,8.528,-19.045,-0.778,-0.359692,2.404671,-3.637231,101529.46
278818,7.974,-19.576,-1.984,-0.446425,2.329644,-3.104057,101533.48
278828,6.883,-19.763,-3.390,-0.461325,2.164690,-2.562369,101533.48
278838,5.349,-19.534,-5.134,-0.468242,1.867241,-1.827525,101529.60
278848,4.280,-18.890,-6.241,-0.448022,1.433039,-1.072461,101532.38
278857,3.816,-18.081,-6.282,-0.327765,0.898269,-0.275893,101531.71
278867,3.928,-17.546,-5.631,-0.161747,0.336893,0.558987,101532.58
278878,6.116,-15.840,-3.730,0.054822,-0.179786,1.341188,101534.70
278888,8.030,-13.860,-3.126,0.485299,-0.628886,1.922784,101531.34
278897,11.367,-7.506,-3.187,0.880124,-1.155675,2.412857,101531.34
278907,20.407,10.518,3.266,1.116913,-1.444078,2.007922,101529.06
278918,26.020,21.404,2.304,1.169060,-1.149290,0.886235,101529.06
278928,18.562,5.317,-6.035,1.018473,-1.017859,0.996381,101529.13
278937,10.080,-15.183,-12.288,1.232913,-1.468023,2.375610,101531.05
278947,6.399,-18.863,-1.435,1.765555,-1.590409,3.148765,101532.55
278958,7.851,-19.038,3.552,2.392912,-1.112042,2.916765,101529.76
278968,10.013,-13.531,-0.277,1.503757,-0.811932,2.619316,101529.76
278978,8.930,-7.338,-2.543,0.961537,-0.784262,2.412857,101531.20
278987,8.489,-6.523,-0.022,0.959409,-0.684758,2.370821,101527.30
278998,5.792,-6.824,1.790,0.593849,-0.660281,2.325059,101525.93
279008,4.478,-8.753,2.690,0.176675,-0.478831,2.043573,101525.93
279018,6.480,-9.111,1.639,-0.471435,-0.298446,1.740803,101525.93
279027,8.272,-6.836,0.289,-0.878499,-0.170740,1.474216,101528.03
279037,9.559,-4.943,0.315,-0.852425,-0.029731,1.270418,101529.27
279048,9.705,-5.146,0.545,-0.743343,0.016563,1.170381,101528.08
279058,9.288,-4.575,0.174,-0.656609,0.023480,1.116106,101532.06
279067,9.096,-4.674,0.451,-0.525710,0.022948,1.067684,101532.06
279077,9.276,-4.581,0.685,-0.370866,-0.049951,1.016069,101533.49
279088,9.117,-4.804,1.135,-0.214426,-0.124978,0.963390,101533.65
279098,8.309,-5.756,1.905,-0.222939,-0.163290,0.901666,101528.51
279108,7.675,-6.452,2.158,-0.408114,-0.112740,0.833024,101528.51
279117,7.355,-6.612,2.024,-0.694921,0.004856,0.765978,101531.41
279128,7.799,-5.720,2.422,-0.952994,0.119792,0.717556,101531.10
279138,8.230,-5.078,2.263,-1.060480,0.153847,0.688290,101531.10
279148,8.039,-5.096,1.675,-1.119012,0.183113,0.697868,101530.12
279157,8.594,-4.911,1.811,-1.159985,0.178324,0.715959,101527.84
279168,8.859,-4.548,2.092,-1.159453,0.087866,0.726602,101527.84
279178,8.563,-4.811,1.960,-1.090278,0.004856,0.736712,101532.34
279188,8.392,-5.126,1.527,-1.026957,-0.015896,0.755336,101530.48
279198,8.246,-5.186,1.200,-0.982260,-0.033988,0.771299,101531.36
279207,8.119,-5.126,1.064,-0.926388,-0.060061,0.785134,101529.92
279218,8.085,-5.350,1.169,-0.885416,-0.053144,0.795776,101531.08
279228,7.936,-5.405,1.064,-0.838058,-0.071235,0.803225,101531.19
279238,7.760,-5.568,0.824,-0.796022,-0.087731,0.818125,101530.97
279247,7.750,-5.674,0.679,-0.766223,-0.103162,0.826106,101529.98
279258,7.852,-5.576,0.333,-0.732701,-0.153180,0.827702,101529.98
279268,7.945,-5.764,0.024,-0.687471,-0.193621,0.827702,101529.98
279278,8.045,-5.956,-0.205,-0.660866,-0.233529,0.836216,101531.20
279287,8.124,-6.132,-0.553,-0.663526,-0.251620,0.850583,101531.10
279298,8.213,-6.218,-0.678,-0.697049,-0.259070,0.871868,101530.12
279308,8.622,-5.982,-0.537,-0.710352,-0.321327,0.899005,101526.76
279318,9.206,-5.901,-0.104,-0.701306,-0.401675,0.936785,101526.76
279328,9.889,-5.837,0.325,-0.693324,-0.472978,0.991060,101532.60
279337,10.280,-5.885,0.217,-0.699178,-0.528850,1.073005,101530.54
279348,10.770,-5.635,-0.013,-0.738554,-0.598556,1.180491,101528.16
279358,11.280,-4.987,0.193,-0.748664,-0.710299,1.311390,101528.16
279368,11.622,-4.694,0.508,-0.685875,-0.870996,1.464106,101531.43
279377,11.928,-4.903,0.805,-0.603398,-1.040739,1.625335,101531.43
279388,12.011,-5.516,0.698,-0.572535,-1.178556,1.781243,101533.29
279398,12.218,-6.229,0.430,-0.657673,-1.239216,1.929170,101529.93
279408,12.687,-6.359,0.077,-0.836462,-1.256776,2.076032,101527.24
279417,13.663,-6.025,-0.403,-1.055159,-1.233895,2.214381,101527.24
279428,15.412,-5.301,-0.288,-1.264810,-1.232299,2.338894,101532.34
279438,17.591,-4.247,0.765,-1.404223,-1.313179,2.424032,101530.58
279448,18.525,-3.437,1.773,-1.439874,-1.370647,2.492142,101529.86
279458,18.680,-2.996,3.266,-1.482975,-1.284446,2.586325,101531.34
279468,17.670,-2.958,5.317,-1.473929,-1.159932,2.747554,101529.38
279478,17.062,-3.583,6.249,-1.233948,-1.168446,2.958270,101531.09
279488,16.051,-7.183,5.931,-0.757178,-1.317968,3.162068,101531.09
279498,16.609,-9.096,4.547,-0.423013,-1.500482,3.244545,101528.91
279507,15.874,-9.346,5.148,-0.634260,-1.444078,2.985940,101525.76
279518,12.710,-10.642,4.287,-0.860407,-1.263693,2.727334,101525.76
279528,10.684,-10.219,2.748,-0.820499,-1.112042,2.657096,101528.95
279538,10.157,-6.880,2.791,-0.810389,-0.944427,2.503848,101525.91
279548,9.305,-4.228,3.382,-0.749196,-0.751272,2.113812,101529.22
279558,6.269,-3.147,4.097,-0.574664,-0.532574,1.690252,101526.69
279568,2.626,-3.259,4.463,-0.399068,-0.164354,1.336399,101526.69
279578,-2.077,-7.407,2.201,-0.329361,0.202269,0.967115,101529.78
279588,-0.614,-8.124,1.972,-0.473563,0.472581,0.487152,101528.17
279598,2.889,-2.713,1.961,-0.503893,0.457682,-0.289728,101528.28
279608,4.082,0.614,1.280,-0.472499,0.547608,-0.866535,101528.28
279618,4.343,1.954,0.767,-0.465581,0.722672,-1.218260,101528.28
279628,4.227,3.151,0.835,-0.381508,0.861553,-1.526351,101527.88
279638,3.358,3.312,0.500,-0.052132,0.914764,-1.874351,101528.23
279648,2.175,2.440,0.228,0.454968,0.947223,-2.190956,101528.59
279658,1.938,1.252,0.795,0.975904,0.982342,-2.462332,101527.14
279667,3.122,0.211,1.562,1.384032,1.032892,-2.741158,101527.14
279678,4.872,-0.494,1.972,1.708087,1.051516,-3.080112,101529.89
279688,5.902,-1.086,1.732,1.972545,1.039278,-3.441414,101527.00
279698,6.263,-1.777,1.521,2.141224,1.063755,-3.766001,101526.53
279708,6.721,-2.558,1.125,2.241261,1.153681,-4.056001,101526.53
279718,7.102,-3.205,0.707,2.302986,1.272342,-4.303432,101529.81
279728,7.666,-3.636,0.397,2.340233,1.389406,-4.529047,101529.81
279738,8.315,-4.234,0.309,2.327463,1.511791,-4.750404,101527.13
279748,9.098,-5.131,0.329,2.240729,1.634709,-4.961651,101526.34
279757,10.136,-6.012,0.293,2.090142,1.757626,-5.150018,101523.41
279769,11.085,-6.919,0.028,1.906564,1.875222,-5.327566,101526.63
279778,11.571,-7.602,-0.439,1.798013,1.956103,-5.436826,101526.63
279788,12.073,-9.063,-1.133,1.713408,2.005589,-5.513981,101527.34
279798,12.935,-10.457,-1.371,1.524509,2.045497,-5.576238,101529.36
279809,13.908,-11.729,-1.280,1.240895,2.077956,-5.603376,101525.06
279818,14.541,-13.057,-0.933,0.908858,2.131699,-5.581028,101529.27
279828,14.417,-14.270,-0.820,0.548620,2.215773,-5.474073,101527.10
279838,13.587,-15.445,-0.594,0.210198,2.313149,-5.260697,101528.45
279847,12.323,-16.452,-0.325,-0.054793,2.408928,-4.921211,101528.45
279858,10.773,-17.338,-0.602,-0.283068,2.520671,-4.450294,101529.07
279868,9.531,-18.224,-2.055,-0.483141,2.568561,-3.865506,101529.07
279878,8.201,-19.070,-4.806,-0.666719,2.482892,-3.197708,101530.41
279888,6.588,-19.257,-6.891,-0.838058,2.249295,-2.476699,101532.33
279898,4.994,-18.641,-7.528,-0.904040,1.828397,-1.716314,101531.59
279908,4.112,-18.110,-7.122,-0.877434,1.249461,-0.876645,101531.44
279918,4.128,-17.353,-6.082,-0.751856,0.604012,0.033263,101531.44
279928,4.921,-16.193,-5.376,-0.458132,-0.044630,0.934124,101533.53
279939,7.201,-14.165,-3.111,-0.010095,-0.610263,1.710473,101530.39
279948,9.126,-11.730,-2.487,0.600767,-1.082244,2.285151,101527.84
279958,14.966,-0.018,2.305,0.934399,-1.490904,2.448509,101527.84
279968,21.183,15.158,9.224,1.184491,-1.356812,1.559886,101527.84
279977,21.697,15.431,3.622,0.991867,-0.819914,0.819721,101531.05
279988,15.542,-3.429,-8.218,0.676326,-0.979015,1.459317,101529.39
279998,11.013,-16.829,-12.108,0.907262,-1.667565,2.733720,101533.58
280008,8.654,-17.186,-1.563,1.413298,-1.708537,3.112582,101534.14
280017,9.038,-15.206,1.572,1.605390,-1.238684,2.919958,101534.14
280028,8.999,-10.914,0.771,0.983886,-0.913033,2.747022,101532.00
280038,7.900,-6.907,0.449,0.885977,-0.920482,2.561316,101530.92
280048,6.144,-7.842,0.479,0.855647,-0.949749,2.408600,101529.11
280058,4.927,-8.586,0.247,0.474124,-0.822042,2.256417,101529.11
280069,5.575,-8.944,0.445,0.087281,-0.582593,1.996215,101529.63
280078,7.317,-8.800,-0.044,-0.394811,-0.355914,1.726436,101531.48
280088,8.574,-7.363,0.039,-0.769416,-0.193088,1.497097,101531.48
280098,8.881,-5.662,0.504,-0.918407,-0.022281,1.331078,101532.88
280108,9.104,-5.224,0.862,-0.874774,0.098508,1.197519,101528.80
280118,9.388,-4.925,0.939,-0.813581,0.095847,1.090565,101528.80
280124,9.418,-4.354,1.159,-0.730572,0.072434,1.033629,101530.04
280133,9.112,-4.420,1.521,-0.617233,0.049554,0.994253,101529.62
280143,8.804,-4.895,1.967,-0.471435,-0.031859,0.934124,101529.48
280153,8.468,-4.979,1.854,-0.352774,-0.114868,0.853776,101528.95
280163,8.041,-5.342,1.651,-0.302224,-0.147859,0.781941,101528.95
280173,7.713,-6.000,1.735,-0.380976,-0.128703,0.706381,101533.35
280183,7.515,-6.456,1.852,-0.580517,-0.045694,0.632418,101530.98
280193,7.543,-6.260,1.931,-0.821563,0.064453,0.568565,101531.02
280203,7.812,-5.535,2.054,-0.980664,0.126710,0.523868,101529.57
280213,8.167,-5.005,2.152,-1.019508,0.109682,0.493538,101529.57
280223,8.170,-4.877,1.783,-1.003012,0.084141,0.481299,101530.33
280233,8.398,-4.660,1.615,-0.965232,0.056471,0.497262,101529.81
280243,8.460,-4.650,1.419,-0.899783,0.032526,0.527060,101530.89
280253,8.680,-4.664,1.539,-0.840719,-0.003125,0.560583,101529.70
280263,8.523,-4.720,1.686,-0.783251,-0.088263,0.586125,101529.70
280273,7.987,-4.960,1.354,-0.722058,-0.136685,0.626033,101533.84
280283,8.119,-5.241,1.158,-0.709820,-0.141474,0.662748,101529.66
280293,8.356,-5.257,0.902,-0.711416,-0.167547,0.690950,101530.58
280303,8.424,-5.437,0.476,-0.715141,-0.199474,0.722877,101528.78
280313,8.566,-5.489,0.525,-0.743875,-0.202666,0.766510,101528.78
280324,8.720,-5.334,0.886,-0.768884,-0.217565,0.810675,101532.66
280333,8.746,-5.397,1.296,-0.758774,-0.242043,0.852180,101532.30
280343,8.616,-5.691,1.345,-0.732168,-0.268116,0.884106,101528.27
280353,8.349,-6.123,0.983,-0.741214,-0.285143,0.916033,101529.62
280363,8.462,-6.162,0.598,-0.790700,-0.292061,0.950620,101529.62
280373,8.800,-6.005,0.510,-0.857214,-0.304831,0.978822,101531.27
280383,9.175,-5.855,0.179,-0.918407,-0.330373,1.025115,101530.70
280393,9.953,-5.399,-0.483,-0.933306,-0.397419,1.101207,101531.32
280403,10.740,-4.882,-1.055,-0.880095,-0.528318,1.186345,101528.43
280413,10.961,-4.640,-0.553,-0.794425,-0.704446,1.313519,101528.43
280423,11.535,-4.385,-0.043,-0.673636,-0.905051,1.456656,101533.41
280433,11.740,-4.841,0.773,-0.552315,-1.096079,1.602454,101530.26
280443,11.693,-5.582,1.193,-0.506554,-1.235491,1.753573,101530.51
280453,11.797,-6.363,1.295,-0.565086,-1.309987,1.892986,101530.82
280463,12.056,-6.552,1.158,-0.711416,-1.344574,2.036656,101530.82
280473,12.685,-6.529,0.685,-0.882223,-1.352023,2.164894,101531.23
280483,13.418,-6.381,0.179,-1.068994,-1.359473,2.283555,101530.76
280494,14.698,-6.045,-0.341,-1.287691,-1.337656,2.391041,101529.99
280503,16.448,-5.330,-0.259,-1.496810,-1.342978,2.464472,101528.23
280513,18.142,-4.305,0.676,-1.660700,-1.348831,2.505976,101528.23
280523,19.315,-2.714,2.680,-1.771379,-1.286042,2.557059,101530.63
280534,19.271,-1.639,5.507,-1.746370,-1.206758,2.691683,101528.92
280543,18.025,-2.435,6.629,-1.467012,-1.259969,2.906655,101529.75
280553,16.242,-5.763,6.139,-0.990242,-1.432372,3.137059,101528.36
280563,17.217,-8.304,4.808,-0.595416,-1.590409,3.280196,101528.36
280573,17.515,-7.922,5.202,-0.700242,-1.672886,3.083316,101530.31
280583,14.502,-8.110,5.483,-0.862003,-1.556886,2.716692,101528.09
280593,11.005,-9.334,4.188,-0.736957,-1.430776,2.542692,101528.36
280599,9.659,-8.486,3.755,-0.535820,-1.347234,2.470325,101528.30
280608,9.029,-6.418,3.963,-0.411838,-1.180684,2.296325,101528.30
280619,7.651,-5.170,3.218,-0.296371,-0.926336,1.932362,101528.30
280629,4.160,-5.798,3.356,-0.244756,-0.602281,1.597133,101529.67
280638,0.497,-5.585,3.386,-0.259123,-0.174997,1.098546,101529.92
280648,-1.524,-8.432,1.038,-0.362884,0.146398,0.547281,101528.94
280658,3.372,-3.005,3.275,-0.335215,0.287939,-0.160957,101528.94
280669,4.925,2.138,2.749,-0.228793,0.354452,-0.896333,101528.80
280678,4.500,2.975,1.394,-0.270297,0.565168,-1.347030,101528.80
280688,3.733,3.124,0.654,-0.206444,0.768434,-1.692901,101527.87
280698,2.701,3.098,0.173,0.131446,0.880709,-2.043562,101528.18
280709,1.450,2.009,0.295,0.565647,0.943498,-2.339947,101525.23
280718,1.415,0.616,1.037,0.884913,1.031296,-2.584718,101525.23
280728,2.532,-0.508,1.720,1.133408,1.099406,-2.844387,101526.20
280738,3.832,-1.287,1.861,1.402656,1.108452,-3.148222,101527.97
280749,5.115,-1.828,1.456,1.680949,1.098342,-3.463231,101525.22
280759,6.280,-2.313,0.886,1.925720,1.111645,-3.756423,101524.70
280768,7.213,-2.898,0.350,2.085885,1.170177,-4.040038,101526.88
280778,7.954,-3.247,-0.136,2.146013,1.258507,-4.306624,101525.02
280788,8.393,-3.433,-0.418,2.179004,1.331938,-4.549266,101523.72
280798,8.836,-3.918,-0.246,2.204545,1.391002,-4.750404,101523.72
280808,9.421,-4.653,0.071,2.206674,1.438360,-4.912697,101521.59
280818,10.343,-5.415,0.241,2.194967,1.468690,-5.049982,101521.59
280828,11.256,-6.225,0.075,2.173683,1.457516,-5.164917,101528.95
280839,11.756,-7.184,-0.396,2.164105,1.431975,-5.274000,101528.43
280848,12.123,-8.629,-0.642,2.160380,1.421865,-5.359670,101526.73
280858,12.147,-9.986,-1.515,2.098123,1.379828,-5.438954,101522.90
280868,12.603,-11.462,-1.103,1.875701,1.442617,-5.480459,101522.90
280879,13.360,-12.220,-0.482,1.628803,1.477204,-5.504936,101527.15
280889,13.648,-13.143,0.236,1.392014,1.537865,-5.441615,101526.91
280898,13.238,-14.174,0.866,1.191940,1.624599,-5.256972,101526.24
280908,12.687,-15.149,0.859,1.038161,1.730488,-4.969101,101526.24
280919,11.952,-16.121,0.053,0.877996,1.834250,-4.589175,101526.24
280929,10.805,-17.404,-1.280,0.684308,1.912470,-4.107083,101531.96
280938,9.062,-18.578,-3.195,0.452308,1.915663,-3.530809,101531.18
280948,7.211,-18.844,-4.832,0.195831,1.810305,-2.868332,101529.95
280953,5.975,-18.757,-5.420,0.040987,1.631516,-2.322920,101531.85
280964,4.672,-18.722,-5.319,-0.042022,1.332470,-1.723232,101531.85
280974,3.460,-18.644,-4.728,-0.093105,0.835480,-0.853232,101532.77
280983,3.244,-17.852,-3.232,-0.035637,0.309223,0.053483,101531.53
280993,3.924,-16.574,-1.756,0.175079,-0.204795,0.922418,101531.02
281004,6.709,-14.480,0.112,0.511372,-0.644850,1.685463,101528.94
281013,7.439,-13.402,0.834,0.988142,-0.975822,2.234068,101528.94
281023,11.575,-6.585,0.465,1.286656,-1.339253,2.708178,101531.16
281033,20.673,10.103,3.655,1.292509,-1.512189,2.169683,101529.50
281043,22.802,16.429,-0.845,1.016876,-1.176959,1.202308,101528.94
281054,15.746,-0.060,-9.222,0.700271,-0.994446,1.511996,101531.78
281063,8.740,-17.687,-13.158,0.985482,-1.329143,2.733187,101531.78
281074,6.837,-18.973,-3.588,0.972889,-1.242941,3.230887,101534.59
281083,8.199,-15.601,4.468,1.142454,-0.673584,2.953481,101529.32
281094,10.318,-13.110,5.610,1.000913,-0.317070,2.724674,101531.74
281103,10.263,-7.824,0.819,0.741244,-0.488409,2.555995,101529.93
281113,8.930,-4.634,-1.584,1.013152,-0.643785,2.427756,101529.93
281123,6.620,-5.830,1.546,1.116381,-0.610795,2.446380,101530.34
281134,5.367,-7.773,2.366,0.710381,-0.541088,2.324527,101530.12
281144,5.866,-9.108,1.517,0.117079,-0.360703,1.927573,101529.55
281153,7.110,-8.485,-0.331,-0.485802,-0.156905,1.569996,101529.45
281163,9.284,-6.395,-1.478,-0.687471,0.087866,1.373647,101529.45
281174,10.011,-5.989,0.008,-0.733765,0.259737,1.215078,101531.62
281184,9.709,-5.249,-0.439,-0.752389,0.271443,1.130473,101531.82
281193,9.144,-4.987,0.258,-0.649159,0.269847,1.056510,101528.93
281203,9.579,-4.179,0.702,-0.520921,0.195352,0.991592,101529.70
281213,9.754,-4.511,1.401,-0.372994,0.094783,0.952748,101529.70
281224,9.053,-5.586,1.945,-0.334150,0.026673,0.890491,101532.90
281233,8.373,-6.330,2.004,-0.474095,0.060728,0.821317,101529.68
281243,8.116,-6.449,1.906,-0.719398,0.156508,0.737776,101526.70
281253,8.377,-5.830,1.691,-0.946077,0.222489,0.659024,101529.48
281264,8.428,-5.435,1.619,-1.081765,0.293260,0.632418,101529.48
281274,8.826,-5.053,1.927,-1.118480,0.266122,0.609537,101531.44
281283,8.395,-4.969,1.533,-1.079636,0.212911,0.576547,101532.16
281293,8.072,-5.266,1.590,-1.084957,0.238985,0.572290,101528.48
281304,8.043,-5.115,1.758,-1.105710,0.258673,0.573886,101526.63
281314,8.033,-5.172,1.803,-1.103049,0.260801,0.580804,101526.63
281323,8.238,-5.388,1.370,-1.103049,0.246434,0.569629,101530.39
281333,8.513,-4.779,1.157,-1.082297,0.210783,0.546216,101530.81
281344,8.213,-4.818,0.756,-1.012590,0.146398,0.561116,101528.22
281354,8.113,-4.565,0.835,-0.913086,0.070306,0.587189,101528.53
281363,8.074,-4.549,0.944,-0.788572,0.001664,0.613794,101528.53
281373,8.000,-4.725,1.226,-0.680554,-0.093584,0.654235,101531.66
281383,7.863,-5.018,1.382,-0.617765,-0.171804,0.697336,101528.21
281394,7.661,-5.285,1.505,-0.592756,-0.216501,0.738308,101529.40
281404,7.575,-5.562,1.439,-0.612976,-0.224483,0.786730,101529.45
281413,7.651,-5.653,1.462,-0.658205,-0.225547,0.831427,101529.45
281423,7.735,-5.649,1.255,-0.699178,-0.227676,0.878253,101531.78
281430,7.828,-5.628,1.119,-0.734829,-0.231932,0.916565,101531.78
281439,8.149,-5.490,1.263,-0.762499,-0.258538,0.949023,101531.78
281449,8.244,-5.160,0.968,-0.736425,-0.329309,1.001170,101528.11
281458,8.389,-5.290,0.533,-0.684278,-0.383052,1.070345,101529.97
281468,8.668,-5.273,0.040,-0.649159,-0.452226,1.148033,101529.97
281479,9.063,-5.121,-0.166,-0.618297,-0.538428,1.234234,101530.97
281489,9.636,-4.881,0.048,-0.553380,-0.670923,1.327354,101528.64
281499,10.151,-4.979,0.290,-0.460792,-0.810868,1.425262,101528.80
281508,10.530,-5.586,0.311,-0.402792,-0.932189,1.534876,101528.80
281519,10.816,-5.855,0.052,-0.419288,-1.028501,1.663115,101528.80
281529,11.207,-5.764,-0.028,-0.481013,-1.091822,1.794014,101531.58
281538,11.722,-5.538,-0.117,-0.547526,-1.155675,1.932362,101532.25
281548,12.337,-5.403,-0.235,-0.591691,-1.244537,2.077096,101530.59
281559,13.080,-5.518,-0.537,-0.656609,-1.306262,2.223426,101532.14
281569,13.851,-5.701,-0.946,-0.777930,-1.351491,2.365499,101532.14
281579,15.131,-5.837,-1.335,-0.983324,-1.333932,2.482564,101532.71
281588,17.080,-5.416,-0.993,-1.269599,-1.294024,2.552802,101530.54
281598,19.276,-4.246,0.506,-1.565452,-1.218464,2.600692,101527.13
281609,20.669,-2.601,3.283,-1.752223,-1.098207,2.695940,101527.13
281619,20.097,-1.804,5.888,-1.657507,-1.069473,2.883242,101530.66
281628,18.587,-2.795,6.529,-1.239269,-1.200372,3.100875,101530.66
281638,16.739,-7.671,5.900,-0.681618,-1.333400,3.311591,101526.92
281649,17.206,-9.613,4.824,-0.326169,-1.473877,3.369591,101529.36
281659,15.810,-9.542,5.079,-0.468242,-1.510592,3.091829,101527.75
281668,12.421,-10.635,4.425,-0.672040,-1.458978,2.806087,101527.75
281678,10.360,-10.596,3.152,-0.558168,-1.435565,2.668270,101530.49
281689,10.135,-7.760,2.730,-0.440040,-1.345106,2.456490,101529.26
281699,8.790,-5.702,3.065,-0.278811,-1.288702,2.017500,101529.62
281709,5.009,-4.878,3.016,-0.094701,-1.109381,1.588087,101529.34
281718,1.957,-4.446,4.269,-0.011160,-0.770428,1.212950,101529.34
281729,-2.095,-7.001,2.322,0.094198,-0.519804,0.690950,101529.38
281739,0.390,-6.232,2.870,0.066528,-0.405400,0.162033,101529.13
281749,3.923,-1.141,2.596,0.225097,-0.487345,-0.513746,101529.13
281758,4.620,1.001,1.518,0.319813,-0.395822,-1.084168,101530.16
281768,4.177,1.360,0.703,0.293207,-0.259070,-1.490700,101530.16
281779,3.770,1.855,0.566,0.330987,-0.114868,-1.843488,101531.64
281784,3.300,1.826,0.369,0.495409,-0.041437,-2.110076,101529.42
281794,2.532,1.008,0.513,0.729537,0.018159,-2.350589,101526.78
281803,2.052,-0.390,1.346,0.950895,0.151719,-2.616644,101526.27
281814,2.820,-1.416,2.224,1.070087,0.325719,-2.884827,101526.27
281824,3.930,-2.058,2.501,1.196197,0.465131,-3.193451,101528.57
281834,4.836,-2.446,2.285,1.341463,0.568361,-3.521231,101526.76
281843,5.458,-2.553,1.901,1.459592,0.672654,-3.849010,101525.93
281853,5.921,-2.478,1.540,1.509610,0.782801,-4.148588,101526.87
281864,6.297,-2.227,1.291,1.505353,0.911039,-4.414111,101526.87
281874,6.703,-2.285,1.089,1.495243,1.061094,-4.637597,101527.28
281883,7.132,-2.673,0.995,1.517059,1.201571,-4.823835,101526.45
281893,7.810,-3.528,1.091,1.545261,1.340452,-4.982404,101524.13
281904,8.847,-4.638,1.198,1.533023,1.473479,-5.131394,101526.19
281914,9.968,-5.564,0.900,1.551647,1.579901,-5.256440,101526.19
281924,10.858,-6.152,0.913,1.718197,1.657057,-5.358605,101526.27
281933,11.946,-6.643,0.900,1.992234,1.690048,-5.441615,101527.88
281944,13.275,-8.237,0.232,2.252967,1.659186,-5.518239,101524.21
281954,13.944,-10.812,-0.803,2.290215,1.580966,-5.583156,101524.93
281964,14.637,-12.316,-1.252,2.039059,1.542654,-5.642752,101524.93
281973,14.750,-12.941,-1.095,1.696380,1.546911,-5.630514,101529.80
281984,14.098,-13.563,-0.652,1.359023,1.601186,-5.529945,101529.33
281994,13.192,-14.047,0.161,1.074876,1.677277,-5.326147,101530.27
282004,12.377,-14.900,0.961,0.908858,1.749644,-5.024440,101526.91
282013,11.730,-16.205,0.661,0.741776,1.853938,-4.615780,101526.91
282023,10.786,-18.206,-1.106,0.466675,1.965149,-4.131028,101529.42
282034,8.562,-19.858,-3.743,0.064400,1.991222,-3.568056,101531.06
282044,6.175,-20.490,-5.741,-0.375655,1.939608,-2.872057,101529.98
282054,4.428,-19.447,-6.021,-0.736425,1.710268,-2.104222,101530.77
282063,3.475,-17.935,-5.671,-0.879563,1.272342,-1.243801,101530.77
282074,3.597,-16.521,-4.685,-0.839655,0.703516,-0.271636,101531.00
282084,4.514,-15.289,-2.983,-0.640113,0.091590,0.663281,101532.97
282094,7.426,-13.393,-0.731,-0.206976,-0.464997,1.450803,101531.20
282103,6.682,-15.105,-1.119,0.416124,-0.911969,2.106362,101531.36
282114,9.655,-11.071,0.166,0.640143,-1.248262,2.740105,101531.36
282124,21.444,6.178,6.180,0.390583,-1.259436,2.228215,101528.33
282134,24.195,14.834,3.325,-0.088316,-0.694868,1.148565,101529.61
282139,17.493,2.865,-4.036,-0.543269,-0.270244,1.236895,101534.67
282148,12.098,-12.766,-9.503,-0.370866,-0.493198,2.229280,101534.67
282159,8.989,-19.289,-6.897,0.045776,-1.073198,3.240820,101531.89
282169,9.844,-14.754,2.178,0.562455,-1.059895,3.200912,101531.89
282179,11.225,-11.745,1.283,0.674198,-0.844391,2.867811,101532.02
282189,8.953,-7.943,-0.203,0.374620,-0.740097,2.717756,101531.70
282199,6.560,-6.086,-1.458,0.576289,-0.754996,2.523004,101530.36
282209,5.187,-7.669,-0.203,0.708253,-0.700189,2.342619,101530.36
282219,5.988,-6.986,0.834,0.581078,-0.559712,2.157977,101530.36
282229,7.541,-6.740,0.251,0.285758,-0.372941,1.961628,101529.25
282238,7.955,-7.399,-0.161,-0.113857,-0.190428,1.771665,101532.05
282249,8.491,-6.730,0.283,-0.357563,-0.014832,1.567335,101532.36
282259,8.824,-5.909,0.986,-0.525178,0.110214,1.417280,101529.20
282268,9.238,-5.393,1.048,-0.504425,0.132563,1.236895,101529.20
282279,9.158,-5.263,1.253,-0.510279,0.146398,1.123023,101530.16
282289,8.717,-4.811,1.319,-0.519324,0.173003,1.060234,101531.45
282299,8.707,-4.870,1.576,-0.487930,0.171939,0.989996,101530.05
282309,8.640,-5.085,1.500,-0.468774,0.141077,0.910712,101531.16
282319,8.575,-5.308,1.358,-0.450682,0.112875,0.844198,101530.13
282329,8.426,-5.806,1.514,-0.503893,0.112343,0.787262,101529.10
282339,8.325,-6.059,1.652,-0.616168,0.145333,0.720748,101529.10
282349,8.074,-5.947,1.676,-0.735893,0.189498,0.653703,101528.48
282359,7.956,-5.362,1.840,-0.818370,0.217700,0.606345,101529.46
282369,8.322,-5.072,2.252,-0.840187,0.203333,0.569629,101529.46
282379,8.060,-5.156,1.688,-0.875838,0.222489,0.553666,101532.21
282389,8.333,-5.132,1.529,-0.913618,0.238453,0.559519,101530.46
282399,8.600,-4.872,1.439,-0.916278,0.210251,0.571226,101528.24
282409,8.614,-4.960,1.275,-0.886480,0.171939,0.592510,101531.60
282419,8.450,-5.264,0.965,-0.902976,0.165021,0.618051,101530.77
282429,8.486,-5.237,1.078,-0.931710,0.141609,0.644657,101530.92
282439,8.346,-5.016,1.419,-0.932774,0.094251,0.678712,101529.84
282449,8.179,-4.982,1.795,-0.906700,0.045829,0.713299,101529.28
282459,8.294,-4.966,2.080,-0.879563,-0.011107,0.739372,101529.28
282469,8.213,-4.968,2.297,-0.848700,-0.053676,0.770767,101529.28
282479,8.073,-5.046,2.507,-0.845508,-0.094116,0.808014,101533.16
282489,7.870,-5.355,2.252,-0.840187,-0.113804,0.834088,101532.48
282499,7.893,-5.818,1.880,-0.840719,-0.104758,0.856436,101531.34
282509,8.004,-5.952,1.241,-0.849233,-0.109015,0.865482,101531.97
282519,8.185,-5.847,0.263,-0.842847,-0.107951,0.877189,101531.97
282529,8.223,-6.152,-0.476,-0.840187,-0.138813,0.892620,101530.05
282540,8.509,-5.939,-0.899,-0.858810,-0.198942,0.914968,101532.46
282549,8.881,-5.544,-0.925,-0.848168,-0.263859,0.948491,101532.38
282559,9.213,-5.249,-0.855,-0.774737,-0.388373,1.004363,101532.38
282569,9.274,-4.966,-0.634,-0.681086,-0.534171,1.091097,101532.70
282578,9.557,-4.900,-0.141,-0.583178,-0.681033,1.198051,101532.70
282589,10.076,-4.930,0.787,-0.504958,-0.838005,1.317776,101531.04
282599,10.730,-5.021,1.845,-0.472499,-0.982207,1.444950,101529.45
282609,11.189,-5.483,2.221,-0.453343,-1.081712,1.585959,101529.80
282614,11.340,-6.162,1.981,-0.463453,-1.143969,1.692381,101529.80
282624,11.513,-6.407,1.766,-0.521453,-1.179620,1.791353,101530.41
282634,11.929,-6.415,1.232,-0.631068,-1.193987,1.919592,101533.20
282644,12.214,-6.237,0.527,-0.741214,-1.198244,2.042509,101528.39
282654,12.601,-6.077,-0.343,-0.854022,-1.222721,2.169151,101529.58
282663,13.584,-6.038,-1.191,-0.990774,-1.220060,2.291004,101529.58
282674,14.562,-5.728,-1.671,-1.140829,-1.254115,2.388380,101534.23
282684,15.833,-5.095,-1.449,-1.344095,-1.234959,2.468729,101532.01
282694,17.697,-4.154,-0.463,-1.605361,-1.167381,2.544288,101529.21
282704,19.489,-2.660,1.843,-1.848003,-1.063620,2.623041,101530.66
282714,19.853,-1.955,4.172,-1.914516,-0.973161,2.759261,101530.66
282724,19.635,-2.509,5.565,-1.696883,-0.992849,2.976362,101529.30
282734,17.844,-6.432,5.806,-1.139587,-1.123748,3.223438,101529.91
282744,18.289,-8.176,5.364,-0.643306,-1.306262,3.373847,101529.70
282754,17.831,-8.126,5.863,-0.531563,-1.407363,3.189738,101528.11
282764,14.756,-9.513,5.680,-0.651820,-1.401510,2.848655,101528.11
282774,11.526,-10.889,4.572,-0.556040,-1.472280,2.664545,101529.50
282784,10.268,-8.902,3.099,-0.399068,-1.373840,2.522472,101528.56
282793,9.938,-6.233,2.328,-0.376187,-1.218996,2.233536,101529.59
282804,7.264,-5.921,1.949,-0.251673,-1.132794,1.797739,101531.31
282814,2.907,-4.719,3.662,-0.230389,-0.802354,1.322032,101531.31
282824,-0.968,-6.279,2.208,-0.187820,-0.399547,0.702125,101531.05
282834,-0.089,-6.919,3.291,-0.216554,-0.171804,0.173740,101529.55
282844,3.992,-0.585,4.326,0.079299,-0.185107,-0.498315,101528.27
282854,4.950,2.412,3.255,0.360785,-0.080281,-1.118223,101529.82
282864,4.571,2.397,1.778,0.403354,0.054343,-1.514645,101529.82
282874,3.490,2.679,0.832,0.416124,0.130434,-1.868498,101530.45
282884,2.269,2.696,0.291,0.613005,0.195352,-2.251617,101529.47
282894,1.158,1.590,0.636,0.922161,0.289003,-2.593763,101526.17
282904,1.049,-0.268,1.293,1.082326,0.433737,-2.885892,101525.28
282914,1.744,-1.621,2.103,1.106803,0.599223,-3.197708,101525.28
282924,2.938,-2.304,2.446,1.150436,0.762581,-3.541983,101527.34
282934,4.124,-2.246,2.502,1.205243,0.905186,-3.893175,101528.84
282944,5.200,-2.063,2.261,1.284528,1.032360,-4.217230,101525.93
282954,6.025,-2.307,1.600,1.343592,1.178691,-4.531175,101526.55
282963,6.466,-2.743,0.962,1.354234,1.334067,-4.819578,101526.55
282970,6.968,-3.032,0.570,1.362748,1.442085,-4.998367,101526.92
282979,7.651,-3.703,0.510,1.368601,1.548507,-5.156404,101526.92
282989,8.574,-5.121,0.678,1.344124,1.704415,-5.337853,101526.83
282999,9.564,-6.372,0.856,1.311665,1.865112,-5.490036,101525.42
283010,10.392,-7.069,0.983,1.390417,1.997075,-5.592202,101526.77
283019,11.411,-7.550,1.238,1.608582,2.083277,-5.644880,101528.75
283029,12.615,-9.348,0.655,1.860270,2.073699,-5.662972,101527.30
283039,13.360,-11.624,-0.181,1.950729,1.991754,-5.653394,101525.19
283049,14.042,-13.366,-0.231,1.821426,1.936415,-5.594330,101525.19
283059,14.254,-14.739,-0.079,1.636784,1.905552,-5.474606,101529.94
283069,13.467,-15.659,-0.056,1.377647,1.958763,-5.288367,101529.94
283079,12.248,-16.726,-0.420,1.078069,2.057736,-5.016991,101531.15
283089,10.716,-17.995,-0.628,0.683776,2.219675,-4.629438,101527.96
283099,9.649,-18.469,-1.143,0.329923,2.328580,-4.223083,101527.96
283109,8.928,-19.224,-2.061,-0.084059,2.403075,-3.692570,101529.90
283119,7.495,-19.679,-2.996,-0.443765,2.372213,-3.112570,101529.90
283129,5.784,-19.668,-3.949,-0.736957,2.249828,-2.478296,101530.73
283140,4.201,-19.336,-4.502,-0.999820,1.994415,-1.759415,101529.30
283149,3.415,-18.783,-4.923,-1.187654,1.640030,-0.956462,101529.48
283159,3.559,-17.925,-4.820,-1.309507,1.221791,-0.118389,101529.48
283169,4.401,-16.615,-4.710,-1.286095,0.763113,0.699464,101529.48
283180,5.666,-15.537,-4.663,-1.096664,0.267187,1.444950,101534.69
283189,8.977,-12.527,-2.528,-0.698645,-0.215969,2.035059,101531.39
283199,13.268,-6.804,-3.181,-0.056389,-0.724666,2.326123,101529.17
283209,17.691,6.606,-0.054,0.638724,-1.357522,2.228393,101525.97
283219,23.640,19.459,3.035,1.238766,-1.390867,1.421005,101525.97
283230,23.616,17.719,-1.092,1.555904,-1.333400,0.792583,101529.89
283239,14.580,-4.113,-9.609,1.894325,-1.675014,1.571060,101533.50
283249,8.685,-19.220,-10.427,2.235408,-2.039509,2.926343,101533.50
283259,7.163,-20.770,0.537,2.763261,-1.803253,2.996582,101533.50
283270,8.397,-16.375,4.183,2.559463,-1.253051,2.578876,101532.48
283279,8.681,-9.758,1.119,1.717133,-0.979015,2.330912,101531.70
283289,8.881,-6.651,-0.873,1.500032,-0.893345,2.219702,101531.70
283299,6.545,-6.905,0.885,1.305812,-0.877914,2.147335,101531.34
283310,4.496,-9.024,2.056,0.759335,-0.761914,2.104234,101530.51
283319,5.652,-9.934,2.349,-0.044683,-0.461804,1.926509,101530.51
283329,7.168,-9.024,1.453,-0.921599,-0.167015,1.708876,101532.16
283339,8.142,-7.132,0.801,-1.550021,0.043700,1.500821,101527.77
283350,8.622,-5.318,0.155,-1.694755,0.179921,1.296491,101530.66
283360,9.570,-3.784,-0.221,-1.364315,0.203865,1.140583,101531.59
283369,9.723,-3.298,0.434,-0.885416,0.133095,1.065556,101533.27
283379,9.402,-3.931,0.961,-0.535820,0.018159,1.049592,101531.52
283389,8.999,-4.547,1.714,-0.328297,-0.062189,1.022455,101532.66
283400,8.763,-4.998,1.752,-0.193673,-0.139877,0.954877,101528.88
283409,8.273,-5.142,1.621,-0.145251,-0.171272,0.882510,101528.88
283419,7.988,-5.433,1.831,-0.200059,-0.157437,0.812271,101528.88
283429,7.612,-6.227,2.045,-0.371930,-0.114336,0.755868,101534.52
283440,7.389,-6.725,2.380,-0.653948,-0.019089,0.703189,101531.58
283445,7.287,-6.423,2.265,-0.890205,0.085205,0.663281,101531.83
283454,7.774,-5.749,2.285,-1.046645,0.167682,0.640400,101529.41
283464,8.284,-5.097,1.661,-1.116884,0.181517,0.619648,101529.41
283474,8.780,-4.736,0.965,-1.081232,0.146398,0.614859,101531.85
283485,9.070,-4.568,0.351,-0.985985,0.121388,0.642528,101531.96
283494,9.142,-4.786,0.295,-0.864664,0.070838,0.674455,101530.87
283504,8.746,-5.149,0.470,-0.761434,0.004324,0.709574,101526.95
283514,8.383,-5.559,0.566,-0.722590,-0.014832,0.722345,101526.95
283525,8.286,-5.691,1.001,-0.761434,-0.000465,0.728730,101528.78
283534,8.280,-5.553,1.437,-0.814645,-0.013767,0.742565,101531.06
283544,8.237,-5.608,1.359,-0.859875,-0.014832,0.763849,101531.88
283554,8.369,-5.740,1.447,-0.915214,-0.009511,0.787794,101531.16
283565,8.545,-5.664,1.573,-0.989887,-0.030085,0.818302,101531.16
283574,8.586,-5.830,1.732,-1.032278,-0.054740,0.843666,101531.46
283584,8.503,-5.847,1.758,-1.074315,-0.096777,0.867079,101529.80
283594,8.333,-5.854,1.402,-1.110498,-0.129767,0.899537,101527.95
283604,8.768,-5.593,1.067,-1.123801,-0.188832,0.934124,101528.30
283614,9.463,-5.158,0.440,-1.111563,-0.283015,0.987867,101528.30
283624,10.013,-4.864,0.336,-1.075911,-0.399015,1.078326,101531.01
283634,10.482,-4.208,0.046,-1.012590,-0.542152,1.219335,101532.15
283644,10.982,-3.875,-0.032,-0.902444,-0.698061,1.391739,101528.12
283655,11.551,-3.886,-0.045,-0.765159,-0.905051,1.588619,101530.80
283664,11.952,-4.289,0.501,-0.647031,-1.106189,1.786032,101530.80
283674,12.313,-4.956,0.917,-0.573068,-1.272739,1.983977,101531.16
283684,12.469,-5.772,0.831,-0.587967,-1.398317,2.175004,101533.02
283695,13.020,-6.109,0.884,-0.697581,-1.464831,2.344215,101530.80
283704,13.665,-6.140,0.603,-0.849765,-1.486647,2.505976,101529.57
283714,15.225,-6.075,-0.026,-1.028554,-1.472280,2.650178,101529.57
283724,17.362,-5.569,-0.116,-1.207875,-1.497289,2.748086,101531.58
283735,19.169,-4.957,0.621,-1.391985,-1.491968,2.805554,101532.97
283745,20.769,-4.439,1.453,-1.612810,-1.367455,2.819921,101531.63
283754,21.143,-3.115,4.169,-1.891104,-1.091290,2.855573,101527.69
283764,19.544,-1.883,7.138,-1.933140,-0.883235,3.015206,101527.69
283774,17.275,-3.767,7.299,-1.543104,-0.959327,3.225389,101531.16
283785,16.545,-7.556,6.164,-0.912554,-1.206225,3.403646,101529.87
283794,16.665,-8.523,5.093,-0.694389,-1.378629,3.247738,101529.73
283804,14.169,-9.154,5.008,-0.957251,-1.274336,2.829499,101526.93
283814,11.192,-9.519,3.836,-1.052499,-1.101932,2.585261,101526.93
283825,10.071,-7.407,3.162,-0.971618,-0.901859,2.406472,101530.74
283834,9.297,-5.187,3.455,-0.905104,-0.658152,2.066986,101527.70
283844,6.292,-5.237,2.890,-0.789636,-0.416575,1.690252,101527.02
283854,2.084,-5.109,3.962,-0.728976,-0.035584,1.425794,101526.29
283865,-1.622,-6.607,3.245,-0.608187,0.329443,0.920822,101526.29
283875,-0.782,-6.614,3.716,-0.485269,0.469388,0.262602,101530.25
283884,4.408,0.150,4.086,-0.138334,0.353388,-0.544609,101527.45
283894,5.857,3.323,2.379,0.149005,0.391168,-1.161856,101528.39
283905,5.424,3.828,0.836,0.243189,0.506636,-1.553489,101529.84
283915,4.293,3.968,0.440,0.430491,0.633810,-1.918516,101529.84
283920,3.509,3.908,0.226,0.708253,0.717351,-2.199470,101528.66
283929,2.440,2.786,0.252,1.057317,0.769498,-2.450094,101528.66
283939,1.593,1.143,1.125,1.353170,0.884434,-2.715616,101528.29
283950,2.088,-0.314,1.966,1.462252,1.032892,-2.964644,101526.59
283960,3.382,-1.265,2.271,1.551115,1.135058,-3.256240,101525.91
283970,4.621,-2.020,1.800,1.657537,1.195186,-3.602643,101526.27
283979,5.483,-2.513,1.200,1.739481,1.263296,-3.951707,101527.46
283990,6.420,-2.717,0.780,1.780986,1.350030,-4.274166,101526.49
284000,7.263,-3.037,0.551,1.770344,1.468158,-4.601413,101526.49
284009,7.542,-3.335,0.375,1.707555,1.609699,-4.907376,101525.82
284019,8.057,-3.283,0.428,1.643170,1.765608,-5.173431,101525.82
284029,9.115,-3.832,0.900,1.601133,1.923644,-5.408092,101527.84
284040,10.517,-4.966,1.210,1.625078,2.024745,-5.568257,101526.55
284049,11.606,-6.005,1.346,1.793224,2.073699,-5.676807,101526.95
284059,12.656,-7.140,1.043,2.097059,2.083809,-5.740660,101523.08
284069,13.306,-9.777,-0.120,2.373756,2.000800,-5.772587,101523.08
284080,13.882,-12.521,-1.262,2.339169,1.907681,-5.803449,101525.62
284090,15.115,-14.910,-1.587,2.089077,1.889057,-5.722036,101525.49
284099,15.427,-17.271,-1.760,1.780454,1.924176,-5.529945,101526.65
284109,14.280,-18.654,-1.520,1.347317,2.008250,-5.242606,101526.65
284120,12.248,-18.561,-0.835,0.924821,2.064121,-4.866936,101526.65
284130,10.209,-18.822,-0.818,0.645996,2.121589,-4.381120,101530.04
284139,8.572,-20.497,-1.763,0.388455,2.181185,-3.769726,101527.82
284149,6.855,-22.093,-3.878,0.063868,2.147662,-3.063084,101529.12
284160,5.085,-22.822,-6.143,-0.348517,2.025809,-2.286204,101532.01
284170,3.353,-21.915,-7.125,-0.732168,1.740598,-1.463562,101532.01
284180,2.451,-20.423,-7.113,-0.929581,1.287773,-0.569618,101532.03
284189,2.850,-19.215,-6.582,-0.956719,0.725333,0.366363,101531.36
284199,4.685,-17.927,-5.461,-0.844444,0.138416,1.249133,101530.91
284210,8.083,-14.760,-3.026,-0.466114,-0.379859,1.913738,101530.91
284220,12.173,-8.412,-4.240,0.053758,-0.910904,2.377738,101531.28
284229,21.184,10.190,3.957,0.301189,-1.287638,2.086142,101527.70
284239,28.387,23.270,3.191,0.389519,-0.936446,0.862290,101527.70
284250,20.210,7.155,-5.595,0.225097,-0.736372,0.944767,101527.41
284260,11.900,-13.485,-12.202,0.861500,-1.413748,2.444252,101532.36
284269,8.182,-17.716,-4.034,1.505885,-1.779840,3.211554,101532.36
284279,7.519,-16.850,3.212,2.122068,-1.416409,2.855573,101532.17
284290,8.480,-14.207,2.781,1.650619,-1.031161,2.579408,101531.03
284300,8.650,-8.019,0.403,1.207372,-0.983804,2.404876,101528.70
284310,8.665,-5.271,0.038,1.303151,-0.982739,2.239390,101530.47
284319,5.608,-7.217,0.732,1.133940,-0.983271,2.189903,101527.70
284329,4.493,-9.584,1.342,0.690161,-0.818317,2.050491,101530.59
284340,6.072,-9.576,1.163,-0.062774,-0.492134,1.823280,101526.96
284350,7.756,-8.290,0.412,-0.826884,-0.160098,1.575317,101526.87
284359,8.496,-6.484,0.466,-1.199361,0.085205,1.360876,101526.87
284369,9.276,-5.121,0.264,-1.213728,0.227278,1.178895,101526.87
284380,9.567,-4.375,0.488,-1.018976,0.257609,1.047464,101532.33
284390,9.545,-4.397,0.506,-0.835930,0.209719,0.979354,101531.08
284395,9.293,-4.577,0.929,-0.684811,0.149058,0.951684,101531.30
284404,9.223,-4.668,1.619,-0.560297,0.101700,0.913904,101528.66
284414,9.243,-4.561,1.947,-0.433655,0.022416,0.852180,101528.66
284425,8.656,-4.790,2.116,-0.403857,-0.048887,0.811739,101532.77
284435,8.037,-5.875,2.510,-0.495912,-0.044630,0.757996,101529.99
284444,7.928,-6.571,2.717,-0.736957,0.024544,0.701592,101530.91
284454,7.729,-5.986,2.238,-1.021104,0.091058,0.659556,101531.74
284465,7.748,-5.537,2.651,-1.244058,0.207058,0.640400,101531.74
284475,8.209,-4.680,2.725,-1.348884,0.238985,0.640400,101529.63
284484,8.601,-3.874,2.335,-1.330260,0.209719,0.670198,101531.79
284494,9.163,-3.746,2.149,-1.216388,0.110214,0.715427,101529.73
284505,9.093,-4.008,1.614,-1.034939,-0.063254,0.737776,101530.30
284515,8.777,-4.642,1.267,-0.862535,-0.169676,0.778748,101530.30
284525,8.205,-5.320,0.940,-0.776866,-0.187235,0.802693,101534.45
284534,7.786,-5.613,0.886,-0.785912,-0.135088,0.824510,101531.88
284545,7.967,-5.533,1.322,-0.838590,-0.077621,0.843134,101531.72
284555,8.029,-5.571,1.414,-0.857746,-0.074428,0.848455,101529.08
284565,8.074,-5.907,1.040,-0.874774,-0.076024,0.847923,101529.08
284574,8.243,-6.095,0.585,-0.912021,-0.108483,0.846326,101532.66
284584,8.489,-5.898,0.114,-0.949801,-0.129235,0.852712,101528.52
284595,8.763,-5.705,-0.294,-0.949801,-0.169143,0.866547,101528.90
284605,9.019,-5.585,-0.650,-0.939159,-0.219162,0.896345,101532.71
284614,9.430,-5.109,-0.846,-0.910957,-0.313877,0.942106,101532.71
284624,9.716,-4.774,-0.175,-0.867856,-0.422960,1.024583,101533.71
284635,10.180,-4.395,0.561,-0.790700,-0.587914,1.131537,101531.60
284645,10.270,-4.159,1.206,-0.677361,-0.756061,1.273610,101532.21
284655,10.418,-4.188,1.220,-0.590627,-0.897070,1.448142,101528.76
284664,10.886,-4.463,1.382,-0.521453,-1.052978,1.633317,101528.76
284675,11.066,-4.817,1.296,-0.466114,-1.221125,1.808381,101532.17
284685,11.631,-5.529,1.290,-0.467710,-1.333932,1.969078,101529.38
284695,12.351,-6.099,1.150,-0.545398,-1.401510,2.120197,101530.72
284704,12.999,-6.130,0.898,-0.657141,-1.455785,2.267591,101527.20
284715,13.709,-6.031,0.428,-0.800811,-1.476005,2.420307,101527.20
284725,14.690,-5.820,-0.219,-0.949801,-1.482390,2.563977,101534.42
284735,16.431,-5.094,-0.567,-1.098792,-1.522831,2.669334,101534.78
284744,18.237,-4.669,0.272,-1.229691,-1.541455,2.735316,101528.94
284750,19.445,-4.304,1.102,-1.354205,-1.515381,2.759793,101531.89
284760,20.391,-3.773,2.579,-1.528737,-1.384482,2.791719,101531.89
284770,20.139,-3.032,5.818,-1.730406,-1.145565,2.896013,101531.89
284780,18.268,-3.539,7.229,-1.657507,-1.014134,3.088637,101529.65
284790,16.953,-6.180,6.901,-1.303654,-1.113106,3.319572,101530.30
284800,17.356,-7.629,6.302,-0.859343,-1.263161,3.430783,101527.65
284810,16.713,-7.407,5.555,-0.732701,-1.300409,3.212618,101527.65
284820,13.600,-8.335,5.082,-0.994498,-1.157803,2.808747,101530.02
284829,10.823,-8.833,4.087,-1.039728,-1.024776,2.546949,101530.02
284839,9.566,-7.101,3.583,-0.888609,-0.865675,2.352729,101530.24
284850,8.359,-6.036,2.411,-0.834333,-0.628886,2.083481,101526.26
284860,4.939,-6.619,2.578,-0.807728,-0.334098,1.783372,101531.16
284870,0.867,-5.927,5.092,-0.807728,0.168214,1.407170,101531.16
284880,-2.643,-7.325,3.196,-0.826884,0.603480,0.716492,101530.32
284890,1.604,-4.425,4.907,-0.691728,0.742893,0.014107,101529.49
284900,5.842,2.644,4.066,-0.283068,0.661480,-0.748939,101528.10
284910,6.472,4.790,1.448,-0.086719,0.685425,-1.282645,101527.63
284920,4.985,4.290,0.233,0.004804,0.757260,-1.686516,101531.01
284930,3.806,4.593,-0.446,0.286822,0.846122,-2.073360,101526.10
284940,2.128,3.531,-0.454,0.790198,0.895608,-2.458075,101526.51
284950,1.117,1.652,0.431,1.137133,1.013736,-2.740626,101526.51
284959,1.778,0.286,1.613,1.285592,1.166452,-2.994442,101526.98
284969,3.217,-0.644,2.376,1.435647,1.261168,-3.291891,101526.98
284980,4.818,-1.130,2.319,1.652215,1.307993,-3.639359,101529.86
284990,6.015,-1.743,1.954,1.873041,1.342580,-3.995872,101527.84
285000,6.862,-2.419,1.509,2.012454,1.404837,-4.312478,101528.77
285009,7.457,-2.811,0.940,2.088013,1.484654,-4.599817,101526.70
285020,8.092,-3.068,0.651,2.168894,1.568195,-4.875982,101526.70
285030,8.817,-3.983,0.792,2.224766,1.654397,-5.117028,101526.52
285040,9.728,-5.328,0.941,2.209334,1.738470,-5.322954,101523.35
285050,10.853,-6.497,1.086,2.223169,1.812433,-5.479394,101523.82
285060,11.732,-7.184,1.218,2.357793,1.849681,-5.571981,101523.82
285070,12.413,-8.586,0.540,2.585536,1.812433,-5.608697,101523.82
285080,12.907,-11.240,-0.574,2.682380,1.715589,-5.626256,101527.22
285089,13.805,-13.379,-0.869,2.386527,1.641626,-5.623064,101527.73
285100,14.721,-14.975,-0.706,1.994894,1.624599,-5.552293,101526.86
285110,14.341,-16.307,-0.159,1.533023,1.720378,-5.400110,101523.23
285120,12.708,-17.018,0.812,1.037629,1.893846,-5.119156,101523.23
285130,10.943,-17.503,1.595,0.684840,2.072635,-4.740826,101531.62
285139,9.431,-18.507,1.062,0.407611,2.247167,-4.254478,101526.65
285150,8.441,-20.000,-1.223,0.006400,2.390837,-3.644148,101528.62
285160,7.398,-20.710,-4.483,-0.436847,2.408396,-2.958259,101528.62
285170,6.033,-20.784,-6.580,-0.810389,2.308892,-2.270241,101533.11
285180,4.640,-19.861,-7.042,-1.048242,2.002929,-1.529012,101532.50
285190,3.737,-18.738,-6.731,-1.083361,1.481993,-0.679232,101532.50
285200,4.514,-17.515,-5.726,-0.948737,0.847718,0.227483,101530.84
285210,6.297,-15.997,-4.259,-0.559233,0.226214,1.036822,101529.75
285219,6.746,-15.307,-5.406,-0.027123,-0.428813,1.804124,101529.75
285225,7.155,-13.962,-4.831,0.345354,-0.941767,2.324527,101532.63
285235,14.672,-3.795,-1.824,0.662491,-1.311051,2.543756,101531.81
285245,29.737,19.075,3.944,0.852987,-1.506867,1.672161,101527.78
285255,25.971,15.360,-4.997,0.667812,-1.178556,0.944767,101529.22
285264,11.839,-10.951,-13.696,0.789133,-1.383950,2.253757,101529.22
285275,5.052,-21.792,-4.331,1.479812,-1.760152,3.507939,101534.22
285285,6.922,-22.717,2.244,2.274784,-1.573381,3.367462,101529.31
285295,11.222,-13.284,0.303,1.321775,-1.155143,2.965719,101529.41
285305,8.853,-4.991,-1.671,0.633757,-0.944427,2.683169,101529.11
285315,6.450,-7.204,0.202,0.853519,-0.821510,2.647518,101529.11
285325,4.332,-8.294,1.196,0.505519,-0.783198,2.579940,101529.05
285335,3.871,-8.635,2.550,-0.034040,-0.529382,2.207463,101531.07
285345,6.480,-9.099,0.697,-0.731636,-0.251620,1.840840,101531.01
285355,8.750,-7.038,-0.867,-1.039196,-0.076556,1.580106,101531.68
285365,9.685,-5.830,0.673,-0.877434,0.040508,1.367262,101531.68
285375,9.455,-5.796,1.449,-0.725783,0.002728,1.219867,101534.09
285385,8.900,-5.448,1.129,-0.638517,0.001664,1.100675,101528.47
285394,8.930,-5.404,0.660,-0.589031,0.008049,1.012345,101531.52
285405,9.316,-5.297,0.561,-0.458132,-0.033455,0.929335,101530.38
285415,8.850,-5.673,1.086,-0.349581,-0.090923,0.834088,101530.38
285425,8.175,-6.476,1.296,-0.415563,-0.071767,0.750014,101528.84
285435,7.933,-6.949,1.766,-0.604994,0.010178,0.661152,101530.70
285445,7.735,-6.762,2.177,-0.860939,0.117664,0.583996,101532.63
285455,7.988,-6.205,2.337,-1.101453,0.211847,0.518547,101530.56
285465,8.290,-5.650,2.208,-1.232884,0.241113,0.475978,101530.56
285475,8.346,-5.330,2.016,-1.299930,0.252287,0.467464,101532.49
285485,8.514,-4.827,1.917,-1.290352,0.220361,0.469061,101531.46
285495,8.629,-4.580,1.959,-1.242462,0.149058,0.486620,101530.68
285505,8.521,-4.612,2.230,-1.187654,0.079884,0.513758,101529.38
285515,8.108,-4.854,2.390,-1.146150,0.050618,0.548877,101529.38
285524,7.920,-5.255,2.146,-1.179141,0.074031,0.588253,101532.45
285535,7.786,-4.925,1.862,-1.199361,0.104361,0.629758,101530.38
285545,8.443,-4.477,1.049,-1.141893,0.056471,0.660088,101529.24
285555,7.949,-4.743,0.497,-1.026957,-0.046226,0.698400,101529.15
285564,8.069,-4.786,0.758,-0.924260,-0.116997,0.751079,101529.15
285575,8.186,-4.853,0.598,-0.807196,-0.204263,0.787794,101533.02
285581,8.082,-5.249,0.805,-0.717801,-0.265987,0.817592,101529.51
285590,7.979,-5.508,0.788,-0.662994,-0.321859,0.846858,101529.51
285600,7.845,-5.780,0.642,-0.642242,-0.363364,0.886235,101531.37
285611,7.877,-6.127,0.655,-0.680554,-0.396886,0.917097,101531.43
285620,7.896,-5.980,0.569,-0.738022,-0.437859,0.951152,101531.43
285630,8.411,-5.454,0.690,-0.765159,-0.496391,1.011812,101532.91
285640,9.073,-4.986,0.976,-0.724719,-0.598556,1.086840,101531.80
285650,9.554,-4.683,0.670,-0.606591,-0.744886,1.176234,101528.24
285660,10.166,-4.861,0.175,-0.476224,-0.896538,1.289574,101528.24
285670,10.827,-4.919,0.099,-0.387361,-1.052978,1.416216,101528.24
285680,11.240,-5.237,0.238,-0.342132,-1.195583,1.558821,101531.10
285690,11.914,-5.563,0.392,-0.358095,-1.291363,1.715262,101529.46
285700,12.555,-5.796,0.639,-0.398536,-1.362134,1.863188,101529.82
285710,12.937,-6.174,0.647,-0.474627,-1.411620,2.013243,101528.32
285720,13.287,-6.530,0.434,-0.642242,-1.394592,2.170215,101528.32
285730,13.868,-6.267,-0.457,-0.871049,-1.355216,2.326656,101533.55
285741,15.201,-5.761,-0.827,-1.119012,-1.304666,2.455426,101532.84
285750,16.726,-5.332,-0.830,-1.360590,-1.273271,2.536839,101531.30
285760,18.396,-4.765,-0.330,-1.637287,-1.216868,2.578876,101531.30
285770,19.956,-3.640,1.609,-1.990076,-1.037547,2.624105,101533.48
285780,20.158,-1.965,5.256,-2.177379,-0.876849,2.749151,101533.48
285790,18.935,-1.948,6.971,-1.913984,-0.906648,2.967848,101528.47
285800,17.091,-5.631,6.783,-1.283966,-1.104592,3.197719,101528.83
285810,17.354,-7.966,6.063,-0.675765,-1.317436,3.347242,101530.44
285820,17.077,-8.236,5.662,-0.586902,-1.360005,3.136527,101530.44
285831,14.430,-9.336,6.072,-0.859343,-1.284978,2.775756,101529.31
285840,11.468,-10.151,5.617,-0.744407,-1.255712,2.581004,101529.36
285850,10.287,-8.133,4.503,-0.520921,-1.088097,2.470325,101525.95
285860,9.507,-6.421,3.720,-0.402792,-0.900262,2.199481,101530.34
285871,5.909,-6.613,3.677,-0.270297,-0.695400,1.813702,101530.08
285880,2.020,-5.409,5.724,-0.268701,-0.259070,1.340656,101528.63
285890,-1.741,-7.861,2.384,-0.262848,0.095847,0.648381,101530.44
285900,2.721,-4.680,4.237,-0.198462,0.229407,-0.032719,101530.44
285911,5.816,1.629,3.464,-0.030848,0.115003,-0.757452,101527.19
285920,5.386,3.449,1.715,-0.081398,0.176196,-1.317232,101527.19
285930,4.107,3.578,0.490,-0.113325,0.356581,-1.724828,101531.48
285940,3.011,3.889,-0.095,0.134638,0.466196,-2.089323,101529.21
285950,1.520,3.061,0.239,0.589592,0.528984,-2.420295,101526.77
285961,0.941,1.239,1.090,0.900876,0.629553,-2.675708,101524.51
285970,1.678,-0.074,2.136,1.082326,0.736507,-2.930057,101524.51
285980,2.921,-0.844,2.886,1.299427,0.815260,-3.236552,101528.28
285990,4.294,-1.287,3.053,1.578784,0.883902,-3.582423,101527.28
286001,5.514,-1.676,2.663,1.829940,0.954672,-3.940001,101524.28
286010,6.565,-2.233,2.131,1.961371,1.046195,-4.276826,101524.28
286020,7.059,-2.876,1.500,1.991701,1.171241,-4.583854,101524.28
286030,7.484,-2.829,1.228,2.014050,1.310122,-4.857358,101529.18
286041,8.133,-3.300,1.287,2.060344,1.439956,-5.098404,101527.10
286050,8.978,-4.448,1.480,2.073646,1.563938,-5.285174,101527.93
286060,10.124,-5.644,1.386,2.071518,1.673020,-5.444275,101523.80
286070,11.073,-6.484,1.415,2.176343,1.759754,-5.568257,101523.80
286081,11.996,-7.203,1.285,2.394508,1.795938,-5.650202,101527.32
286091,13.025,-9.784,0.057,2.600967,1.756562,-5.685853,101527.99
286100,13.780,-11.995,-0.840,2.508380,1.654929,-5.725761,101527.37
286110,15.025,-13.494,-0.900,2.185389,1.586819,-5.709266,101527.37
286120,15.723,-15.422,-0.555,1.878894,1.596397,-5.606568,101528.61
286131,14.736,-17.444,-0.251,1.496307,1.696965,-5.407027,101527.47
286140,12.377,-18.564,0.485,1.044546,1.827864,-5.085101,101527.47
286150,9.819,-19.467,0.719,0.655574,1.995479,-4.666863,101528.72
286160,7.949,-20.516,0.277,0.292675,2.176929,-4.098569,101528.45
286171,6.773,-22.055,-1.556,-0.171857,2.343479,-3.410020,101528.45
286180,5.363,-22.174,-4.167,-0.626279,2.341882,-2.654956,101532.96
286190,3.988,-21.318,-5.890,-0.966829,2.140213,-1.884993,101532.60
286200,3.427,-20.012,-6.554,-1.144021,1.741130,-1.066076,101531.46
286211,3.545,-18.777,-6.264,-1.143489,1.207957,-0.170535,101530.18
286221,4.209,-17.438,-5.334,-0.979599,0.612526,0.725005,101531.33
286230,6.804,-14.978,-3.456,-0.558168,-0.010043,1.529023,101529.67
