82049,11.888,-1.666,1.098,0.570053,0.244069,0.258214,100692.25,-115,+14,-228
82059,10.218,-2.523,1.916,0.608897,0.232895,0.291204,100693.26,-117,+13,-227
82069,9.097,-3.064,2.468,0.473209,0.237684,0.242782,100694.51,-117,+10,-227
82079,9.085,-2.598,2.598,0.208218,0.231831,0.185847,100694.51,-117,+10,-227
82088,9.563,-1.814,2.802,0.012402,0.223317,0.190636,100692.30,-117,+10,-227
82099,9.844,-1.323,3.002,-0.023250,0.212143,0.217241,100690.48,-117,+10,-225
82109,9.740,-1.147,3.245,0.037411,0.190326,0.223094,100690.48,-118,+8,-225
82119,9.330,-1.593,3.336,0.082640,0.171170,0.229480,100694.57,-119,+8,-225
82129,9.233,-2.214,3.193,0.042732,0.149886,0.236397,100695.88,-119,+8,-225
82139,9.497,-2.325,3.094,-0.109451,0.117959,0.245975,100692.41,-119,+8,-224
82149,9.532,-2.069,2.892,-0.266956,0.089758,0.257681,100692.84,-118,+7,-224
82159,9.509,-1.602,2.656,-0.315378,0.074326,0.270452,100694.21,-119,+7,-224
82169,9.482,-1.200,2.856,-0.216938,0.070070,0.290140,100695.10,-119,+7,-224
82179,9.494,-1.390,3.072,-0.045598,0.067941,0.303975,100691.85,-119,+7,-222
82189,9.383,-1.788,3.295,0.089558,0.038675,0.312489,100691.85,-119,+5,-223
82199,9.175,-2.329,3.203,0.111374,-0.013472,0.308232,100691.96,-119,+4,-223
82209,9.188,-2.607,3.009,0.074126,-0.051251,0.285351,100691.96,-119,+4,-223
82219,9.136,-2.620,2.744,0.008145,-0.085839,0.257681,100693.79,-119,+4,-222
82229,9.089,-2.431,2.474,-0.053580,-0.098077,0.230012,100690.74,-120,+2,-224
82239,9.273,-2.171,2.249,-0.084974,-0.089563,0.207663,100689.32,-119,+2,-223
82249,9.349,-2.025,2.300,-0.079121,-0.075196,0.198085,100688.43,-119,+2,-225
82259,9.314,-2.018,2.584,-0.054644,-0.075729,0.195425,100688.43,-119,+2,-225
82269,8.998,-2.111,2.809,-0.038681,-0.086371,0.192232,100690.42,-118,+2,-225
82279,8.763,-2.234,2.869,-0.034424,-0.092756,0.193828,100690.08,-118,+1,-225
82289,8.826,-2.099,3.080,-0.049855,-0.112976,0.191700,100686.44,-118,+0,-225
82299,8.785,-1.851,3.086,-0.063690,-0.142774,0.202874,100686.44,-118,+0,-225
82309,8.641,-1.505,2.881,-0.032296,-0.168316,0.237993,100686.44,-118,+0,-225
82319,8.387,-1.248,2.922,0.049649,-0.188536,0.303443,100697.02,-118,+0,-226
82329,8.194,-1.047,3.099,0.155007,-0.202371,0.397094,100693.29,-117,-2,-226
82339,8.477,-0.375,3.379,0.245998,-0.201839,0.499791,100689.73,-117,-2,-226
82350,9.459,-0.934,3.252,0.345325,-0.176475,0.585461,100691.43,-118,-4,-227
82359,10.569,-2.044,2.349,0.410952,-0.153417,0.609406,100691.43,-117,-6,-227
82369,10.675,-2.579,1.766,0.391796,-0.155013,0.599828,100693.32,-117,-9,-228
82379,9.668,-2.830,1.580,0.315172,-0.158206,0.583333,100691.37,-117,-9,-228
82390,9.066,-2.866,1.705,0.263558,-0.149692,0.568434,100689.23,-117,-11,-228
82399,9.119,-2.787,1.932,0.308787,-0.123618,0.557259,100688.34,-116,-13,-228
82409,9.197,-2.969,2.219,0.346035,-0.107655,0.559388,100692.44,-115,-16,-228
82419,9.152,-3.094,2.477,0.313576,-0.112976,0.549810,100690.81,-115,-16,-228
82428,9.076,-3.265,2.563,0.228970,-0.123618,0.531718,100690.81,-115,-18,-228
82439,8.949,-3.124,2.557,0.130530,-0.129472,0.520544,100694.48,-115,-19,-228
82449,9.069,-2.767,2.618,0.049117,-0.137985,0.527993,100692.08,-115,-21,-229
82459,9.102,-2.565,2.685,0.007613,-0.136921,0.536507,100692.08,-115,-21,-229
82469,9.292,-2.668,2.647,0.016126,-0.120426,0.551406,100693.67,-115,-24,-229
82480,9.362,-3.060,2.582,0.009209,-0.108187,0.550874,100693.52,-114,-24,-229
82489,9.354,-3.342,2.582,-0.059965,-0.109251,0.541296,100693.14,-114,-26,-230
82499,9.279,-3.324,2.599,-0.150424,-0.115637,0.531186,100690.27,-114,-26,-230
82509,9.330,-3.148,2.509,-0.220130,-0.114040,0.523736,100690.90,-115,-26,-230
82520,9.393,-3.014,2.513,-0.249396,-0.109784,0.524801,100690.05,-114,-28,-230
82529,9.362,-3.036,2.581,-0.258442,-0.120958,0.525865,100692.95,-112,-28,-231
82539,9.413,-3.047,2.602,-0.269084,-0.131600,0.532250,100691.21,-112,-28,-231
82549,9.474,-3.042,2.655,-0.266424,-0.134793,0.542360,100691.21,-112,-30,-232
82558,9.419,-3.094,2.898,-0.278130,-0.153417,0.560984,100691.21,-112,-30,-232
82569,9.309,-3.120,2.985,-0.298350,-0.171508,0.582268,100695.76,-112,-32,-233
82579,9.606,-3.160,2.966,-0.305800,-0.187472,0.611002,100692.93,-112,-32,-233
82589,9.831,-3.139,3.173,-0.339323,-0.207692,0.641865,100693.93,-111,-33,-233
82599,10.090,-3.205,2.825,-0.396791,-0.229508,0.674856,100694.02,-111,-34,-234
82609,10.710,-3.099,2.440,-0.438295,-0.253453,0.714232,100694.02,-109,-36,-235
82619,10.940,-3.229,2.204,-0.505873,-0.266756,0.755204,100689.45,-109,-36,-235
82629,10.780,-3.067,1.727,-0.556956,-0.288040,0.792984,100689.45,-109,-36,-235
82639,10.827,-2.999,1.630,-0.566002,-0.313582,0.841406,100689.91,-107,-36,-237
82650,10.895,-3.061,1.701,-0.538332,-0.348169,0.902066,100689.91,-107,-38,-238
82659,10.877,-3.145,1.810,-0.509066,-0.373178,0.964855,100689.91,-107,-38,-238
82669,10.816,-3.205,2.061,-0.496295,-0.412554,1.023387,100696.17,-106,-41,-239
82679,10.741,-3.269,2.115,-0.489910,-0.466297,1.085112,100693.34,-104,-42,-240
82690,10.935,-3.320,2.296,-0.497359,-0.517912,1.143644,100694.81,-104,-45,-242
82699,10.983,-3.320,2.787,-0.525029,-0.561013,1.203241,100693.88,-102,-47,-244
82709,11.059,-3.400,3.001,-0.561213,-0.599325,1.258580,100693.88,-102,-47,-244
82719,11.308,-3.346,3.116,-0.603249,-0.633912,1.306470,100692.58,-99,-49,-246
82729,11.767,-3.245,3.136,-0.656460,-0.666902,1.345846,100689.44,-98,-51,-248
82740,12.266,-3.160,3.128,-0.714460,-0.703086,1.390543,100687.75,-95,-53,-250
82749,12.587,-2.912,2.865,-0.787891,-0.729159,1.431516,100690.42,-95,-53,-250
82759,12.802,-2.826,2.653,-0.888460,-0.749912,1.471956,100692.84,-93,-54,-252
82769,13.268,-2.578,2.626,-1.007653,-0.788224,1.515057,100692.73,-89,-56,-254
82779,13.984,-1.590,2.966,-1.157176,-0.852077,1.546983,100692.73,-88,-56,-258
82789,14.816,-0.346,3.564,-1.298717,-0.915398,1.607644,100692.78,-88,-56,-258
82799,15.458,0.219,3.938,-1.420570,-0.945728,1.720983,100694.05,-85,-58,-261
82809,15.872,0.496,4.070,-1.583395,-0.952113,1.835919,100694.05,-82,-59,-264
82820,16.329,0.037,3.787,-1.745689,-0.946792,1.965222,100689.91,-79,-59,-266
82829,16.659,-1.316,3.671,-1.822845,-0.960095,2.136561,100689.38,-79,-59,-266
82839,16.867,-1.967,4.083,-1.791450,-1.000003,2.327588,100688.75,-75,-60,-271
82849,16.391,-0.346,4.423,-1.811139,-1.069177,2.409001,100688.80,-71,-62,-273
82860,14.485,0.397,3.893,-1.771230,-1.044168,2.316414,100688.80,-67,-62,-278
82870,12.312,-1.312,3.311,-1.535506,-0.932425,2.216377,100690.99,-67,-62,-278
82879,10.881,-3.674,3.270,-1.175799,-0.863783,2.216377,100689.93,-65,-62,-278
82889,9.446,-4.203,4.104,-0.943800,-0.797269,2.260542,100686.51,-61,-66,-282
82899,8.052,-2.927,4.119,-0.736809,-0.713196,2.185515,100686.51,-59,-68,-284
82909,6.677,-1.754,3.889,-0.344112,-0.558352,1.947662,100686.51,-59,-68,-284
82919,5.434,-2.604,2.739,0.087961,-0.414682,1.691185,100691.28,-57,-72,-284
82929,4.323,-4.033,1.743,0.178952,-0.321563,1.469295,100690.55,-56,-76,-284
82939,3.344,-5.369,0.324,-0.213213,-0.230040,1.089901,100691.38,-55,-76,-284
82950,3.852,-5.202,2.061,-0.490442,0.048253,0.730727,100690.02,-55,-76,-284
82959,5.481,0.178,2.484,-0.792680,0.014730,0.322067,100690.02,-56,-76,-284
82969,5.421,4.029,0.260,-0.712332,-0.131600,-0.199933,100693.26,-57,-74,-285
82979,5.513,4.193,-0.382,-0.190332,-0.024114,-0.602208,100691.48,-58,-73,-284
82990,5.275,3.816,-0.242,0.516310,0.080180,-0.827822,100688.21,-58,-73,-284
83000,4.919,3.244,0.159,1.154841,0.205758,-0.995969,100688.21,-61,-73,-282
83009,4.943,2.030,0.395,1.632676,0.303134,-1.224244,100691.52,-64,-75,-279
83019,5.293,0.820,0.489,1.964180,0.361666,-1.485510,100691.52,-68,-76,-276
83030,5.942,-0.035,0.595,2.135520,0.389335,-1.746244,100692.19,-68,-76,-276
83039,6.532,-0.375,0.598,2.180749,0.410088,-2.007510,100686.38,-71,-77,-272
83049,7.004,-0.386,0.711,2.172235,0.439886,-2.251748,100688.83,-76,-78,-268
83055,7.190,-0.416,0.868,2.149887,0.469152,-2.430537,100688.83,-76,-78,-268
83064,7.344,-0.536,0.898,2.128602,0.495757,-2.608794,100686.38,-81,-78,-264
83075,7.516,-0.816,1.035,2.090290,0.532473,-2.838133,100688.89,-87,-75,-260
83084,7.819,-1.202,1.242,1.990786,0.558014,-3.058959,100687.16,-93,-72,-256
83094,8.302,-1.854,1.203,1.856162,0.559611,-3.294151,100688.42,-93,-72,-256
83104,8.786,-2.494,1.065,1.695997,0.559078,-3.535729,100688.42,-98,-68,-252
83115,9.259,-3.197,1.120,1.458676,0.577170,-3.757087,100687.13,-104,-60,-249
83125,9.568,-3.587,1.256,1.177722,0.614418,-3.964610,100687.28,-110,-52,-247
83134,9.782,-3.586,1.385,0.908475,0.676675,-4.181178,100687.44,-110,-52,-247
83144,10.174,-3.180,1.530,0.700420,0.755959,-4.389233,100683.23,-117,-40,-243
83154,10.637,-2.749,1.611,0.601979,0.852271,-4.557380,100683.23,-121,-28,-240
83165,11.118,-2.652,1.499,0.607300,0.959757,-4.687747,100688.88,-126,-12,-239
83174,11.865,-2.718,1.418,0.651998,1.071500,-4.792572,100689.41,-126,-12,-239
83184,12.668,-3.049,1.287,0.680199,1.174729,-4.864939,100689.26,-128,+2,-235
83194,13.582,-3.381,1.040,0.667429,1.244436,-4.904847,100690.40,-128,+18,-233
83205,14.383,-4.000,0.978,0.630181,1.293922,-4.905911,100690.40,-131,+32,-230
83215,14.834,-4.680,1.181,0.603576,1.333298,-4.861214,100690.64,-131,+32,-230
83224,14.860,-5.166,1.373,0.541851,1.322124,-4.821838,100692.20,-129,+48,-228
83234,14.731,-5.227,1.505,0.435961,1.269445,-4.794701,100689.84,-128,+62,-226
83245,14.578,-5.350,1.702,0.391264,1.232197,-4.746810,100689.48,-126,+76,-225
83254,14.349,-5.573,1.697,0.365723,1.200271,-4.628682,100689.48,-126,+76,-225
83264,14.062,-5.949,1.460,0.333796,1.197610,-4.447233,100688.74,-123,+90,-223
83274,14.162,-6.337,1.232,0.332732,1.243372,-4.224811,100690.52,-119,+103,-221
83284,14.442,-6.927,1.472,0.319961,1.303500,-4.000261,100688.32,-117,+115,-219
83290,14.529,-7.409,1.730,0.276860,1.318399,-3.858720,100688.48,-117,+115,-219
83299,14.171,-8.049,1.678,0.144897,1.282748,-3.744316,100688.48,-111,+126,-217
83309,13.463,-8.537,1.341,-0.122222,1.221023,-3.557014,100688.48,-107,+137,-215
83319,12.762,-8.810,1.222,-0.442552,1.187500,-3.270738,100691.77,-107,+137,-215
83330,12.049,-9.101,1.535,-0.779910,1.148656,-2.905711,100690.65,-103,+147,-211
83340,11.902,-9.437,1.634,-1.072038,1.055005,-2.502372,100692.40,-100,+155,-209
83349,11.985,-9.760,1.489,-1.266790,0.912931,-2.089455,100692.40,-96,+162,-205
83359,11.758,-10.141,1.120,-1.402478,0.735739,-1.665895,100693.64,-96,+162,-205
83369,11.216,-10.171,0.929,-1.547212,0.542051,-1.165180,100693.64,-94,+169,-202
83380,10.518,-9.637,1.090,-1.591377,0.334528,-0.572942,100691.86,-93,+172,-198
83389,10.075,-8.482,1.198,-1.424827,0.132326,0.036856,100692.66,-93,+173,-195
83399,9.792,-7.092,1.009,-1.013506,-0.034224,0.583865,100691.81,-93,+173,-195
83409,9.465,-5.715,0.378,-0.406369,-0.147563,1.036158,100691.81,-95,+173,-195
83420,9.231,-5.241,-0.099,0.348163,-0.202371,1.423002,100692.67,-97,+168,-195
83430,8.952,-5.845,-0.734,1.069704,-0.231105,1.753442,100692.36,-101,+161,-199
83439,8.428,-6.195,1.049,1.616180,-0.244939,2.019497,100689.11,-101,+161,-199
83449,8.481,-1.573,7.538,1.824235,-0.144371,2.138157,100694.77,-106,+153,-202
83460,10.610,14.496,9.602,1.372474,-0.291233,1.614029,100693.24,-109,+146,-206
83470,14.028,20.027,-0.437,0.557814,-0.391802,0.589186,100688.74,-109,+143,-208
83480,22.143,6.938,-0.520,1.445905,0.137115,0.914837,100693.24,-109,+143,-208
83489,26.686,-0.950,0.755,2.515446,-0.090628,2.385056,100693.24,-113,+136,-211
83500,18.824,-4.588,-0.071,2.190327,-0.098609,2.910781,100698.07,-117,+123,-214
83510,12.938,-3.467,-0.589,1.508694,0.041868,2.579276,100698.07,-121,+112,-216
83520,6.858,-3.696,1.821,0.988291,0.047721,2.661221,100693.84,-121,+112,-216
83525,2.792,-5.065,6.973,0.539722,0.134987,2.744762,100691.17,-124,+104,-218
83534,1.781,-4.305,11.600,0.148090,0.207354,2.510102,100691.48,-128,+96,-216
83545,4.812,-2.386,10.865,-0.309525,0.025904,2.195625,100689.13,-128,+96,-216
83555,9.194,-1.935,6.037,-0.445213,-0.412022,2.057276,100689.13,-132,+89,-217
83564,11.472,-3.148,3.559,-0.440956,-0.685526,1.905093,100686.96,-132,+84,-218
83574,12.412,-3.793,1.615,-0.695836,-0.787159,1.649681,100689.27,-133,+79,-219
83585,12.120,-2.244,-0.486,-0.840570,-0.765343,1.462910,100690.43,-133,+79,-219
83595,10.599,-0.276,-1.518,-0.666570,-0.591875,1.427791,100689.27,-133,+77,-221
83604,9.206,0.842,-1.179,-0.225451,-0.309325,1.443222,100689.27,-134,+73,-221
83614,8.955,1.206,0.136,0.238548,0.000895,1.463974,100695.63,-135,+67,-221
83624,9.094,0.239,2.705,0.476401,0.200969,1.486855,100691.42,-135,+67,-221
83635,9.289,-2.785,3.623,0.315704,0.149886,1.418745,100693.16,-137,+61,-221
83645,9.799,-4.633,3.024,-0.085506,0.020583,1.242617,100687.91,-139,+58,-221
83654,9.916,-4.239,2.910,-0.667635,-0.044334,1.039351,100687.91,-137,+56,-221
83664,9.782,-2.075,3.246,-1.175799,-0.064022,0.852048,100691.94,-137,+56,-221
83675,9.679,-0.133,3.088,-1.342882,-0.049655,0.753608,100691.00,-139,+54,-219
83685,9.689,0.962,2.540,-1.141744,-0.019857,0.741369,100692.20,-139,+54,-220
83694,9.703,0.762,2.842,-0.776717,0.050381,0.788727,100692.36,-140,+52,-219
83704,9.586,-0.494,3.327,-0.535139,0.068473,0.836617,100692.36,-140,+52,-219
83715,9.486,-1.450,3.573,-0.520772,0.028033,0.856837,100694.27,-141,+51,-218
83725,9.454,-1.348,3.474,-0.656992,-0.039545,0.853644,100693.95,-141,+48,-218
83734,9.270,-0.619,3.571,-0.775121,-0.080518,0.876525,100692.13,-141,+46,-218
83744,9.090,-0.157,3.407,-0.771928,-0.100206,0.919094,100689.77,-141,+46,-218
83755,9.188,-0.131,3.334,-0.658057,-0.115637,0.978158,100689.77,-141,+44,-218
83761,9.199,-0.145,3.360,-0.552167,-0.132132,1.029241,100696.02,-143,+42,-218
83770,9.166,-0.307,3.462,-0.476607,-0.142242,1.079259,100696.02,-143,+42,-218
83780,8.990,-0.734,3.465,-0.412754,-0.157141,1.129277,100693.66,-142,+38,-219
83789,8.900,-1.176,3.386,-0.376571,-0.166719,1.168121,100695.13,-143,+36,-219
83800,8.937,-1.680,3.139,-0.368589,-0.172040,1.183020,100693.35,-143,+32,-219
83810,9.162,-2.068,2.794,-0.370717,-0.176297,1.193663,100692.53,-143,+32,-219
83820,9.181,-2.191,2.469,-0.389873,-0.173637,1.200048,100693.91,-143,+29,-218
83829,9.113,-2.269,2.185,-0.400515,-0.174169,1.203773,100688.28,-143,+26,-219
83840,9.096,-2.141,2.186,-0.379763,-0.185343,1.208030,100688.28,-143,+22,-221
83850,9.125,-2.056,2.326,-0.342515,-0.194921,1.223993,100691.64,-143,+22,-221
83860,9.127,-2.049,2.410,-0.291965,-0.208756,1.243681,100691.64,-143,+19,-220
83869,8.899,-2.191,2.750,-0.221194,-0.217802,1.261773,100695.28,-143,+15,-221
83879,8.841,-2.604,2.989,-0.163195,-0.223655,1.278800,100694.59,-143,+11,-221
83890,8.931,-3.002,3.137,-0.152552,-0.222591,1.285185,100692.86,-143,+11,-221
83900,9.282,-3.417,2.871,-0.198846,-0.226316,1.279332,100690.81,-143,+7,-222
83910,9.793,-3.397,2.490,-0.302075,-0.231637,1.281993,100690.81,-142,+3,-223
83919,10.320,-3.060,2.319,-0.444681,-0.244939,1.304873,100695.81,-143,+0,-223
83930,10.569,-2.826,2.258,-0.573983,-0.272609,1.348506,100694.61,-143,+0,-223
83940,10.676,-2.663,2.216,-0.651139,-0.304004,1.412892,100693.77,-141,-4,-225
83950,10.596,-2.829,2.143,-0.670827,-0.333802,1.482066,100693.77,-139,-8,-226
83959,10.741,-2.918,2.389,-0.676680,-0.397655,1.546451,100693.77,-140,-10,-226
83970,11.096,-2.900,2.726,-0.699029,-0.520572,1.602323,100690.90,-140,-10,-226
83980,11.622,-2.793,3.067,-0.696901,-0.641361,1.673626,100694.57,-137,-15,-230
83990,12.175,-2.353,3.171,-0.688919,-0.742994,1.734818,100693.46,-137,-20,-231
83999,12.234,-2.130,3.218,-0.659653,-0.822278,1.794414,100692.57,-133,-24,-234
84009,12.028,-2.244,3.361,-0.583561,-0.885067,1.874231,100692.57,-133,-24,-234
84020,12.076,-2.730,3.497,-0.495763,-0.924976,1.953515,100694.89,-131,-29,-237
84030,12.556,-3.146,3.607,-0.485121,-0.947856,2.023754,100697.20,-128,-34,-239
84040,13.519,-3.624,3.602,-0.617084,-0.969673,2.080157,100692.25,-125,-40,-243
84049,14.876,-3.145,3.425,-0.933157,-0.997343,2.119533,100692.25,-125,-40,-243
84060,16.160,-1.773,3.063,-1.367359,-1.026077,2.164231,100695.69,-122,-43,-247
84070,17.051,-0.594,2.525,-1.769634,-1.052150,2.245111,100693.69,-117,-48,-250
84079,18.346,1.039,2.147,-2.080386,-1.101636,2.326524,100693.69,-113,-50,-255
84089,20.536,2.515,2.226,-2.257579,-1.188902,2.369093,100690.70,-113,-50,-255
84100,23.046,3.750,2.593,-2.367193,-1.311819,2.399423,100693.38,-107,-52,-259
84110,23.653,4.079,2.969,-2.337395,-1.451232,2.482432,100693.38,-103,-53,-266
84120,21.352,2.537,4.366,-1.883505,-1.535838,2.668139,100692.23,-96,-57,-271
84130,18.943,0.864,6.567,-1.151855,-1.542755,2.915570,100693.02,-89,-62,-277
84140,17.187,-0.261,8.448,-0.494167,-1.499122,3.058175,100693.34,-89,-62,-277
84150,15.472,-1.694,8.224,-0.067947,-1.394829,3.009753,100688.88,-81,-69,-280
84160,13.674,-2.929,5.705,0.211411,-1.247966,2.865551,100691.41,-75,-78,-284
84170,12.231,-4.845,4.661,0.496089,-1.079820,2.841074,100693.84,-67,-87,-287
84179,10.298,-4.983,5.797,0.798860,-1.003728,2.855441,100690.05,-67,-87,-287
84190,7.581,-3.027,5.280,0.832383,-1.020223,2.504781,100690.05,-60,-97,-287
84200,4.632,-3.538,3.961,0.665832,-0.837178,1.847093,100686.01,-54,-104,-289
84210,1.973,-4.739,2.481,0.097539,-0.566334,1.225589,100686.01,-50,-108,-290
84219,1.326,-5.866,1.612,-0.625066,-0.354554,0.738177,100693.31,-50,-108,-290
84230,3.076,-2.042,1.705,-0.977322,-0.232169,0.372085,100693.25,-48,-109,-292
84240,3.544,1.060,0.482,-1.220497,-0.282187,-0.046685,100692.36,-46,-108,-294
84250,3.329,2.835,0.299,-1.251891,-0.216738,-0.563896,100692.27,-46,-105,-298
84260,3.406,3.697,-0.064,-1.019891,-0.114573,-1.017786,100692.27,-46,-105,-298
84270,3.148,3.434,0.088,-0.515451,0.057299,-1.299272,100691.71,-47,-103,-299
84280,2.854,2.302,0.293,0.076787,0.227574,-1.528611,100688.12,-50,-103,-299
84290,2.753,0.969,0.057,0.601447,0.328675,-1.787216,100689.41,-54,-105,-299
84300,3.112,-0.269,-0.344,0.988823,0.373372,-2.057528,100689.41,-54,-105,-299
84310,3.736,-0.939,-0.507,1.209116,0.387739,-2.326244,100689.41,-60,-105,-297
84320,4.460,-0.945,-0.151,1.266052,0.406363,-2.594427,100689.34,-65,-106,-296
84330,5.115,-0.594,0.008,1.292126,0.414345,-2.868996,100688.92,-73,-108,-294
84340,5.622,0.231,-0.031,1.417171,0.445207,-3.133986,100688.77,-73,-108,-294
84349,6.105,0.821,0.007,1.594364,0.528216,-3.329271,100690.88,-81,-106,-290
84360,6.660,0.456,0.214,1.837006,0.593666,-3.455913,100690.88,-91,-105,-287
84370,7.152,-0.618,0.621,2.098804,0.622932,-3.568720,100692.77,-102,-104,-283
84380,7.412,-1.923,1.252,2.275465,0.601647,-3.699087,100690.84,-102,-104,-283
84390,7.626,-3.161,1.987,2.256309,0.559611,-3.864041,100690.02,-113,-101,-278
84400,7.700,-3.976,2.502,2.105721,0.537262,-4.066774,100690.02,-124,-94,-273
84410,7.862,-4.038,2.888,1.916822,0.570785,-4.288132,100691.02,-135,-86,-270
84420,8.263,-3.847,3.339,1.784327,0.657519,-4.496719,100686.57,-135,-86,-270
84429,8.791,-3.690,3.700,1.673648,0.746381,-4.692535,100686.57,-145,-73,-264
84440,9.344,-3.646,3.729,1.518272,0.816087,-4.875049,100687.46,-154,-58,-261
84450,10.025,-3.516,3.572,1.340016,0.895372,-5.026168,100690.55,-164,-41,-255
84460,10.964,-3.756,3.343,1.170805,0.980509,-5.125141,100690.55,-164,-41,-255
84470,11.889,-4.384,3.121,0.986163,1.057665,-5.181544,100689.39,-169,-22,-250
84481,12.632,-4.992,3.045,0.765337,1.135353,-5.238480,100690.17,-173,+0,-244
84490,13.268,-5.221,3.094,0.545044,1.216766,-5.321489,100691.53,-174,+22,-239
84500,14.050,-5.440,3.070,0.386475,1.304564,-5.382682,100690.13,-174,+22,-239
84510,15.124,-6.148,2.965,0.295484,1.397151,-5.368315,100690.43,-172,+45,-233
84520,16.020,-7.072,2.952,0.205025,1.440784,-5.287966,100694.37,-167,+65,-226
84530,16.160,-7.683,2.888,-0.003029,1.424289,-5.186865,100692.74,-161,+84,-221
84540,15.890,-7.580,2.455,-0.268020,1.400876,-5.035746,100686.34,-161,+84,-221
84550,15.521,-7.436,2.331,-0.492570,1.473243,-4.810664,100686.34,-153,+102,-215
84559,15.680,-8.968,3.197,-0.562809,1.615848,-4.545673,100686.34,-146,+117,-210
84570,14.521,-10.747,2.762,-0.758625,1.615848,-4.321123,100692.51,-141,+131,-204
84580,13.081,-11.529,1.798,-1.019359,1.635536,-4.060389,100691.35,-136,+131,-196
84590,12.417,-11.768,1.347,-1.287542,1.713225,-3.597986,100692.45,-136,+143,-196
84600,12.470,-13.098,0.533,-1.586588,1.663738,-2.975418,100690.46,-132,+155,-190
84610,13.305,-15.003,-0.875,-1.778148,1.366289,-2.290060,100690.46,-130,+163,-183
84620,13.821,-16.188,-2.860,-1.851579,0.868766,-1.450923,100693.59,-128,+168,-177
84630,13.221,-14.558,-4.188,-1.781872,0.311647,-0.384575,100693.31,-128,+168,-177
84640,12.331,-10.853,-2.260,-1.376405,-0.152352,0.739241,100696.59,-132,+169,-174
84651,11.478,-8.743,-2.549,-0.454791,-0.493967,1.640103,100696.59,-135,+165,-174
84660,11.092,-6.590,4.625,1.263392,-0.498224,2.474983,100696.59,-142,+155,-179
84670,17.075,19.130,5.876,1.758254,-1.291067,2.435606,100691.10,-142,+155,-179
84680,22.267,15.644,-5.055,1.078218,-0.884003,1.437369,100691.52,-144,+147,-186
84690,34.254,-10.352,0.422,1.230933,0.573445,2.270653,100690.01,-150,+141,-185
84700,21.225,-14.154,7.182,1.286272,0.015794,3.757899,100691.52,-158,+127,-187
84710,12.480,-11.493,4.938,-0.251525,-0.069343,3.296560,100691.52,-158,+127,-187
84720,10.591,-5.973,6.998,-0.700093,-0.399251,2.934193,100692.50,-162,+118,-185
84730,3.029,0.815,6.341,-0.238222,-1.030333,2.893221,100694.61,-166,+108,-188
84741,-1.120,-1.127,4.382,-0.172240,-0.739801,2.542028,100688.94,-168,+98,-190
84750,3.501,-4.478,2.323,-0.146699,-0.532279,2.272249,100690.38,-168,+98,-190
84760,10.379,-6.134,0.178,-0.156277,-0.636040,2.242451,100694.52,-171,+91,-191
84770,15.049,-4.771,-0.589,-0.425525,-0.638169,2.042910,100692.47,-174,+83,-193
84780,15.219,-0.066,-0.188,-0.610699,-0.458848,1.730561,100692.47,-174,+78,-193
84790,12.114,2.237,0.579,-0.212149,-0.214077,1.603387,100692.98,-174,+78,-193
84800,8.654,0.176,0.566,0.265686,-0.099141,1.627864,100692.31,-176,+72,-193
84810,7.646,-2.561,0.851,0.407227,0.026969,1.576249,100692.31,-178,+66,-194
84820,9.200,-4.509,2.513,0.016126,0.097739,1.425662,100694.35,-179,+61,-193
84830,10.776,-4.129,4.050,-0.689451,0.022180,1.241552,100693.09,-179,+61,-193
84840,10.859,-2.076,4.306,-1.241249,-0.061894,1.048929,100689.10,-179,+58,-193
84850,10.231,-0.644,3.932,-1.354588,-0.086903,0.902066,100691.95,-180,+57,-192
84860,9.563,0.074,3.643,-1.112478,-0.116701,0.852580,100691.95,-181,+54,-192
84871,9.218,-0.141,3.372,-0.810240,-0.120426,0.866947,100691.30,-181,+54,-192
84880,9.486,-0.989,2.934,-0.609635,-0.108187,0.865351,100689.32,-181,+52,-192
84890,9.927,-2.076,2.732,-0.575580,-0.087967,0.819057,100689.74,-182,+50,-191
84900,10.176,-2.726,2.575,-0.763946,-0.081050,0.730195,100689.74,-182,+48,-192
84910,10.262,-2.545,2.695,-1.099176,-0.093288,0.647186,100689.74,-182,+48,-192
84920,10.418,-1.528,2.741,-1.375873,-0.137453,0.600360,100696.18,-183,+48,-191
84930,10.268,-0.442,2.833,-1.444515,-0.193857,0.592911,100694.60,-182,+47,-190
84940,9.652,0.130,3.360,-1.314680,-0.231105,0.629094,100695.34,-182,+46,-191
84950,8.978,-0.290,3.412,-1.093322,-0.257710,0.706250,100690.88,-182,+46,-191
84960,8.226,-0.887,3.578,-0.859194,-0.290701,0.788727,100690.88,-182,+44,-192
84970,7.792,-1.340,3.855,-0.721910,-0.314646,0.843002,100692.15,-182,+43,-191
84980,7.766,-1.719,4.113,-0.669231,-0.326352,0.868011,100692.68,-183,+40,-193
84990,8.119,-2.057,4.167,-0.644222,-0.332205,0.866415,100692.88,-183,+40,-193
85000,8.279,-2.004,3.955,-0.633580,-0.335930,0.842470,100692.88,-182,+38,-193
85010,8.105,-1.810,3.740,-0.616552,-0.328481,0.819057,100694.89,-183,+36,-194
85020,7.749,-1.230,3.968,-0.538864,-0.310921,0.816397,100694.89,-182,+33,-194
85030,7.439,-1.040,4.132,-0.367525,-0.284316,0.833424,100692.73,-182,+33,-194
85040,7.181,-1.060,4.299,-0.140314,-0.246536,0.873332,100693.11,-182,+31,-195
85050,7.181,-1.475,4.111,0.065081,-0.224719,0.928140,100692.11,-184,+28,-196
85056,7.277,-1.790,3.975,0.180016,-0.227912,0.978158,100692.11,-184,+28,-196
85065,7.497,-2.103,3.561,0.247062,-0.248132,1.029773,100694.48,-183,+24,-197
85075,7.827,-2.477,3.042,0.306126,-0.281123,1.089369,100696.06,-183,+19,-198
85085,8.070,-2.705,2.538,0.363062,-0.315178,1.138323,100696.58,-184,+15,-199
85095,8.281,-2.788,2.027,0.397649,-0.341251,1.189406,100690.75,-184,+15,-199
85105,8.706,-3.492,1.599,0.400310,-0.340187,1.244745,100690.75,-184,+10,-199
85115,9.697,-4.116,1.049,0.269411,-0.340187,1.278268,100693.26,-184,+4,-200
85126,10.954,-3.975,0.299,-0.001965,-0.352958,1.287846,100694.26,-184,+0,-201
85135,11.970,-3.340,-0.155,-0.261635,-0.391270,1.297424,100689.74,-184,+0,-201
85145,12.339,-2.373,-0.200,-0.387213,-0.449270,1.336268,100691.10,-183,-4,-203
85155,12.431,-1.924,0.352,-0.328149,-0.505141,1.420341,100691.10,-183,-8,-204
85166,12.304,-1.922,1.008,-0.210552,-0.571655,1.524103,100696.00,-182,-14,-206
85175,12.094,-2.237,1.751,-0.128607,-0.634976,1.631057,100692.80,-182,-14,-206
85185,12.303,-2.690,2.657,-0.121690,-0.694572,1.736947,100693.53,-180,-19,-208
85195,12.710,-2.651,3.401,-0.200974,-0.781838,1.822616,100693.75,-179,-26,-211
85206,12.941,-2.240,4.057,-0.336130,-0.869104,1.894983,100693.75,-177,-31,-213
85215,13.218,-1.984,4.420,-0.414882,-0.939875,1.968946,100692.30,-177,-31,-213
85225,13.500,-2.140,4.665,-0.423396,-1.014370,2.062066,100694.26,-174,-38,-216
85235,13.949,-2.444,4.804,-0.464901,-1.070774,2.149864,100689.43,-171,-44,-219
85245,14.678,-2.695,4.466,-0.618148,-1.113343,2.217974,100692.26,-169,-50,-222
85255,15.728,-1.849,3.956,-0.997011,-1.152719,2.261075,100692.26,-169,-50,-222
85265,16.486,-0.441,3.416,-1.496130,-1.192627,2.305772,100696.35,-165,-55,-226
85275,17.235,0.495,2.444,-1.881909,-1.222957,2.373882,100693.15,-161,-59,-231
85285,18.378,1.874,1.742,-2.153817,-1.269783,2.420707,100693.88,-156,-63,-236
85291,19.702,3.245,1.433,-2.318771,-1.335764,2.407405,100689.84,-156,-63,-236
85300,20.842,4.534,1.687,-2.459780,-1.429416,2.378671,100689.84,-152,-64,-241
85310,21.460,4.088,2.001,-2.427322,-1.558718,2.399955,100689.84,-145,-64,-248
85320,21.089,1.933,3.430,-1.947891,-1.660351,2.585662,100693.70,-145,-64,-248
85330,20.093,0.141,6.529,-1.220497,-1.705581,2.893221,100692.91,-139,-68,-251
85341,18.806,0.573,8.473,-0.626662,-1.706645,3.023588,100689.21,-132,-73,-256
85350,16.846,0.966,8.465,-0.128607,-1.585856,2.883111,100689.21,-126,-79,-258
85360,14.312,-0.387,6.322,0.157668,-1.443783,2.644194,100691.52,-126,-79,-258
85370,12.164,-2.529,5.328,0.395521,-1.297985,2.534047,100691.52,-119,-85,-259
85381,10.213,-2.696,6.455,0.725961,-1.197416,2.534579,100689.74,-112,-90,-259
85390,8.283,-1.077,6.874,1.022878,-1.054811,2.330781,100691.27,-106,-96,-258
85400,6.698,-0.777,4.271,1.064915,-0.919122,1.809846,100690.01,-106,-96,-258
85410,3.445,-4.846,1.940,0.840364,-0.622737,1.289974,100690.01,-100,-100,-256
85421,2.447,-10.821,0.993,0.369979,-0.330077,0.877057,100695.17,-96,-100,-255
85431,4.228,-9.264,2.295,0.008145,-0.208224,0.598232,100688.30,-93,-100,-254
85440,4.076,-2.632,1.857,-0.452662,-0.473747,0.150195,100690.66,-93,-100,-254
85450,2.469,0.555,1.327,-0.669763,-0.410958,-0.435658,100689.26,-91,-97,-255
85460,2.203,2.002,0.917,-0.857598,-0.199178,-1.057694,100692.82,-89,-91,-255
85471,2.258,3.132,0.395,-0.748515,-0.073068,-1.451987,100688.20,-88,-84,-255
85481,1.922,3.621,0.334,-0.247268,0.109446,-1.777106,100689.99,-88,-84,-255
85490,2.179,3.434,0.794,0.412548,0.343042,-2.058060,100689.99,-88,-78,-254
85500,2.868,2.591,1.145,1.013300,0.529280,-2.242170,100688.41,-90,-73,-251
85511,3.818,1.197,1.281,1.350658,0.677739,-2.416702,100688.41,-91,-70,-249
85520,4.678,-0.548,0.936,1.474639,0.747977,-2.636996,100690.41,-94,-70,-244
85530,5.279,-1.794,0.505,1.481025,0.770858,-2.894537,100690.00,-94,-65,-244
85540,5.590,-2.365,0.352,1.382584,0.784693,-3.139307,100689.27,-97,-59,-242
85551,5.818,-2.265,0.351,1.244768,0.807574,-3.360665,100689.84,-100,-54,-239
85561,6.014,-1.682,0.590,1.143667,0.852271,-3.576169,100689.84,-104,-46,-236
85570,6.277,-0.884,0.653,1.089392,0.900161,-3.798059,100689.77,-104,-46,-236
85580,6.763,-0.227,0.498,1.147924,0.956032,-4.001325,100687.00,-106,-38,-233
85591,7.316,-0.107,0.426,1.362896,1.040106,-4.168407,100684.11,-109,-29,-231
85601,7.877,-0.339,0.746,1.548070,1.130564,-4.315269,100684.11,-113,-20,-226
85610,8.590,-1.018,1.351,1.643318,1.176858,-4.478627,100684.11,-113,-20,-226
85620,9.283,-2.150,1.869,1.660346,1.177922,-4.685086,100687.46,-113,-10,-225
85630,9.987,-3.219,2.212,1.544878,1.166216,-4.918682,100689.71,-115,+0,-222
85641,10.480,-3.848,2.565,1.297447,1.177922,-5.151746,100690.40,-116,+12,-219
85650,10.809,-3.497,2.612,0.981906,1.206656,-5.369911,100688.88,-116,+12,-219
85660,11.539,-2.609,2.532,0.822805,1.297115,-5.527416,100688.88,-116,+25,-217
85670,12.871,-2.393,2.611,0.927098,1.426949,-5.609361,100691.66,-117,+37,-214
85681,14.459,-3.416,2.583,1.079814,1.517408,-5.643415,100690.84,-118,+50,-212
85691,15.830,-5.572,2.529,1.086199,1.521665,-5.655122,100690.91,-118,+50,-212
85700,16.742,-7.888,2.554,0.882933,1.463133,-5.646608,100690.91,-117,+64,-209
85710,17.143,-9.495,2.520,0.465227,1.384913,-5.616810,100690.62,-115,+79,-207
85721,17.163,-10.279,2.774,-0.053580,1.358307,-5.546572,100690.62,-113,+94,-204
85731,16.768,-10.027,3.549,-0.492038,1.350326,-5.390664,100688.99,-113,+94,-204
85740,15.815,-8.683,3.742,-0.755433,1.354050,-5.116627,100689.68,-109,+111,-201
85750,15.043,-7.693,3.528,-0.687323,1.546142,-4.675508,100690.10,-106,+125,-196
85761,15.104,-9.664,3.765,-0.307751,1.926778,-4.102426,100693.70,-104,+136,-191
85771,15.897,-13.318,2.751,-0.183947,2.032490,-3.773582,100693.70,-104,+136,-191
85781,14.300,-16.619,1.134,-0.724570,1.894674,-3.497949,100691.96,-101,+147,-186
85790,13.134,-18.698,-0.360,-1.738239,1.657885,-3.014794,100695.01,-98,+157,-180
85800,12.231,-18.031,-0.782,-2.784367,1.227408,-2.230996,100696.59,-96,+167,-171
85811,12.495,-14.329,-1.907,-3.185578,0.606436,-1.232758,100691.55,-96,+167,-171
85821,13.293,-9.238,-2.412,-2.591743,0.036015,-0.091383,100696.69,-96,+171,-165
85830,12.728,-5.902,-3.166,-1.417377,-0.346040,0.994121,100693.13,-99,+171,-163
85840,10.761,-4.737,-4.244,0.109246,-0.559948,1.913607,100693.13,-105,+164,-163
85851,8.677,-5.126,-1.742,1.874786,-0.563141,2.619717,100694.33,-105,+164,-163
85861,8.344,-0.490,4.465,3.031060,-0.509398,2.937386,100694.33,-111,+155,-170
85870,14.320,20.998,5.649,2.720308,-1.056939,2.294597,100693.86,-117,+145,-177
85880,19.862,13.309,-1.772,1.653428,-0.603049,1.328818,100690.70,-119,+140,-181
85891,37.003,-7.340,0.351,1.889685,0.301005,2.173809,100694.13,-119,+140,-181
85901,24.612,-13.461,5.363,2.005685,-0.224187,3.819624,100693.22,-126,+129,-185
85911,14.354,-9.176,4.617,0.836640,-0.231105,3.350835,100693.22,-132,+116,-186
85920,9.261,-5.866,5.605,0.230567,-0.350297,2.910249,100692.25,-136,+107,-186
85931,2.256,-2.613,6.254,0.443411,-0.654132,3.062964,100691.48,-136,+107,-186
85941,-0.479,-3.225,4.627,0.410420,-0.642958,2.783074,100690.48,-140,+96,-189
85951,4.260,-5.493,3.058,0.172035,-0.545049,2.349405,100690.48,-143,+88,-190
85960,11.108,-6.029,1.924,-0.148828,-0.665838,2.288744,100690.48,-145,+80,-192
85970,15.215,-5.263,0.474,-0.478204,-0.868572,2.159442,100691.54,-145,+80,-192
85981,14.912,-2.783,-0.265,-0.687855,-0.867508,1.827405,100693.21,-146,+74,-193
85991,11.920,-0.030,0.261,-0.444148,-0.700425,1.612965,100694.21,-147,+69,-196
85996,8.926,1.059,0.334,-0.043470,-0.535471,1.580506,100691.37,-147,+69,-196
86005,6.600,0.658,0.071,0.366255,-0.334334,1.582635,100691.37,-148,+64,-197
86016,6.149,-1.317,0.784,0.728621,-0.067747,1.553901,100689.27,-148,+58,-199
86026,8.316,-2.707,2.084,0.606768,0.074859,1.472488,100693.68,-151,+52,-197
86036,10.018,-3.131,3.325,0.121484,0.087097,1.319773,100694.99,-151,+52,-197
86045,10.461,-2.871,3.467,-0.395726,0.031758,1.100543,100690.96,-152,+48,-197
86055,10.191,-1.976,3.682,-0.628791,-0.022518,0.939846,100690.96,-152,+46,-197
86066,9.431,-2.216,3.290,-0.703286,-0.078921,0.860030,100692.79,-153,+43,-197
86076,9.316,-1.783,2.078,-0.767671,-0.112444,0.772764,100693.57,-153,+43,-197
86085,9.710,-0.666,1.173,-0.860790,-0.073068,0.728067,100695.35,-154,+41,-197
86095,9.940,-0.093,1.564,-0.834717,0.020051,0.769039,100692.74,-153,+40,-196
86106,9.777,0.112,2.387,-0.727763,0.072198,0.832360,100692.74,-154,+38,-195
86116,9.502,-0.125,3.270,-0.592075,0.100400,0.872268,100691.76,-154,+38,-195
86125,9.249,-0.674,3.913,-0.515983,0.090822,0.888232,100689.71,-156,+36,-195
86135,9.033,-1.324,4.098,-0.551103,0.056235,0.894085,100694.43,-156,+33,-195
86146,9.225,-1.674,4.038,-0.692112,-0.012407,0.893021,100690.54,-156,+32,-195
86156,9.198,-1.281,3.825,-0.841635,-0.147563,0.906855,100690.54,-156,+32,-195
86166,9.043,-0.707,3.120,-0.826203,-0.235894,0.940910,100695.41,-157,+28,-195
86175,9.076,-0.416,2.673,-0.666570,-0.256646,0.995186,100692.94,-156,+26,-195
86185,9.198,-0.570,2.594,-0.450002,-0.252921,1.060635,100690.58,-157,+24,-195
86196,9.394,-1.096,2.801,-0.324424,-0.236958,1.112782,100692.16,-157,+24,-195
86206,9.371,-1.755,3.097,-0.325488,-0.232701,1.147901,100692.16,-157,+20,-197
86215,9.067,-1.936,3.102,-0.382424,-0.251857,1.170782,100695.02,-157,+16,-197
86225,8.769,-2.025,3.131,-0.413286,-0.265692,1.195259,100693.39,-158,+12,-197
86236,8.838,-2.399,2.946,-0.393598,-0.277398,1.221864,100691.77,-158,+12,-197
86246,9.269,-2.680,2.594,-0.381892,-0.282719,1.238892,100692.97,-157,+10,-197
86255,9.570,-2.846,2.671,-0.418075,-0.292297,1.246341,100692.97,-157,+5,-199
86265,9.733,-2.845,2.932,-0.502148,-0.298683,1.253791,100693.74,-156,+0,-200
86276,10.041,-2.681,2.899,-0.607506,-0.327416,1.262837,100695.95,-157,+0,-200
86286,10.425,-2.452,2.598,-0.651139,-0.352426,1.293167,100694.10,-157,-2,-200
86296,10.874,-2.252,2.600,-0.638369,-0.384884,1.359149,100691.38,-156,-5,-203
86305,11.116,-1.986,2.896,-0.641561,-0.413086,1.445350,100691.38,-156,-10,-204
86316,11.518,-2.146,3.037,-0.651671,-0.434371,1.549112,100693.55,-154,-14,-205
86326,11.988,-1.964,2.872,-0.671891,-0.484921,1.666176,100694.06,-154,-14,-205
86336,12.294,-2.269,2.868,-0.701690,-0.542921,1.783772,100694.22,-154,-20,-207
86345,12.656,-2.538,2.953,-0.783102,-0.600921,1.912011,100692.39,-153,-25,-209
86351,12.984,-2.477,2.800,-0.858662,-0.647214,2.003001,100692.39,-153,-25,-209
86361,13.503,-2.352,2.842,-0.933157,-0.695104,2.087607,100692.39,-152,-30,-211
86371,14.369,-2.308,2.788,-1.020955,-0.757893,2.196157,100698.57,-150,-36,-213
86381,15.022,-2.346,2.533,-1.107689,-0.824407,2.305240,100693.54,-150,-36,-213
86391,15.353,-2.234,2.462,-1.247102,-0.904756,2.394634,100693.37,-147,-42,-216
86401,16.171,-1.266,2.869,-1.479102,-1.019159,2.477643,100693.37,-145,-48,-220
86411,17.270,0.031,3.674,-1.786661,-1.129838,2.585662,100693.30,-142,-53,-225
86421,18.586,1.473,3.984,-2.120294,-1.227214,2.712304,100690.16,-142,-53,-225
86430,19.945,3.469,3.904,-2.394331,-1.340553,2.822983,100690.16,-138,-58,-230
86440,21.998,4.316,3.583,-2.502349,-1.452296,2.881515,100690.99,-134,-62,-235
86451,24.127,5.087,3.754,-2.623670,-1.582663,2.863423,100690.10,-128,-64,-242
86461,23.813,4.138,4.036,-2.594404,-1.719948,2.862891,100690.10,-128,-64,-242
86471,21.410,1.082,5.541,-2.104331,-1.780608,2.995918,100689.28,-123,-69,-249
86480,19.374,-0.066,8.402,-1.447175,-1.801893,3.177900,100688.08,-118,-73,-255
86491,16.819,2.451,8.172,-1.019359,-1.836480,3.089570,100690.17,-111,-79,-261
86501,13.346,2.645,5.692,-0.418075,-1.589049,2.762854,100686.61,-106,-79,-265
86511,10.837,-0.210,4.681,0.234824,-1.301709,2.495203,100690.43,-106,-87,-265
86521,9.413,-2.970,5.195,0.909007,-1.156443,2.497331,100692.01,-102,-94,-266
86531,8.094,-3.312,6.564,1.412382,-1.002664,2.496267,100691.27,-97,-103,-268
86541,7.023,-2.356,4.938,1.495392,-0.932425,2.150396,100690.07,-94,-113,-267
86551,4.290,-4.480,3.328,1.238915,-0.683398,1.589552,100690.07,-94,-113,-267
86560,1.410,-7.834,0.263,0.426915,-0.446077,0.819057,100690.07,-92,-117,-267
86571,2.349,-7.618,2.720,-0.063690,-0.145435,0.302911,100696.23,-93,-119,-268
86581,3.396,-1.631,2.510,-0.481396,-0.223655,-0.067438,100690.83,-92,-117,-268
86586,2.565,1.207,1.447,-0.701158,-0.243875,-0.426612,100688.63,-92,-117,-268
86596,1.785,2.043,0.956,-0.807579,-0.084774,-0.921474,100689.58,-94,-111,-270
86605,2.245,2.567,0.570,-0.944332,0.206290,-1.436024,100689.58,-94,-111,-270
86616,2.368,3.263,-0.224,-0.619745,0.370179,-1.738794,100689.19,-98,-105,-271
86626,2.197,3.374,0.111,0.117759,0.659647,-2.011235,100688.67,-103,-100,-270
86636,2.384,2.332,1.166,0.774915,0.942197,-2.215033,100690.77,-109,-96,-267
86646,3.001,0.962,1.628,1.265520,1.103427,-2.381583,100690.03,-109,-96,-267
86656,4.212,-0.070,1.211,1.520933,1.171005,-2.623161,100690.03,-116,-93,-264
86666,5.245,-1.035,0.671,1.629483,1.196546,-2.931252,100688.63,-124,-88,-258
86676,5.832,-1.527,0.305,1.598621,1.209316,-3.239344,100685.69,-132,-82,-254
86686,6.170,-1.354,0.262,1.395887,1.203463,-3.490500,100685.11,-132,-82,-254
86695,6.482,-0.722,-0.032,1.274566,1.196014,-3.701747,100685.06,-139,-74,-251
86706,6.837,0.363,-0.360,1.383116,1.241775,-3.902353,100685.06,-148,-64,-247
86716,7.476,0.998,0.182,1.539557,1.344472,-4.072095,100686.73,-154,-53,-242
86726,8.530,0.356,0.901,1.676309,1.353518,-4.196609,100684.06,-154,-53,-242
86735,9.205,-1.219,1.351,1.781667,1.261463,-4.336554,100684.48,-160,-42,-236
86746,9.527,-3.099,1.493,1.741226,1.163555,-4.528113,100684.69,-165,-29,-234
86756,9.635,-4.440,1.724,1.463465,1.101830,-4.763306,100684.69,-169,-16,-231
86766,9.671,-4.315,1.922,1.013300,1.098106,-4.989453,100689.72,-171,-16,-228
86776,9.990,-2.932,2.085,0.720108,1.151849,-5.150682,100688.61,-171,+1,-228
86786,10.791,-1.833,2.352,0.722768,1.242307,-5.268810,100688.77,-173,+18,-226
86796,12.097,-1.627,2.288,0.880805,1.313610,-5.366187,100689.67,-172,+35,-223
86806,13.486,-2.403,2.108,1.072896,1.347133,-5.423654,100689.67,-173,+52,-221
86816,14.596,-3.836,1.722,1.166548,1.325316,-5.438021,100691.86,-173,+52,-221
86821,15.209,-4.977,1.675,1.146328,1.306693,-5.429507,100687.19,-173,+68,-219
86831,15.935,-5.838,2.033,1.094713,1.307225,-5.419930,100687.19,-173,+68,-219
86841,17.016,-6.387,2.052,0.979245,1.264124,-5.436425,100690.77,-170,+84,-218
86851,17.665,-6.794,1.955,0.872823,1.235390,-5.417269,100690.97,-169,+102,-218
86861,17.883,-7.822,2.170,0.914860,1.267849,-5.261361,100690.97,-165,+121,-216
86872,17.193,-8.884,2.060,0.906346,1.265188,-4.986260,100689.08,-165,+121,-216
86881,15.982,-9.784,2.157,0.703080,1.290197,-4.656884,100688.02,-162,+137,-216
86891,15.596,-11.025,2.988,0.568456,1.362032,-4.307288,100687.66,-159,+153,-214
86901,14.829,-11.791,2.479,0.357741,1.318399,-3.986958,100687.66,-154,+169,-213
86910,14.381,-12.316,1.427,0.161392,1.337555,-3.584151,100687.66,-154,+169,-213
86921,14.130,-13.627,1.208,-0.178626,1.365757,-3.007876,100692.20,-149,+181,-209
86931,13.161,-15.375,0.462,-0.759690,1.179518,-2.356574,100691.20,-146,+192,-207
86941,12.417,-15.164,-0.378,-1.373212,0.831519,-1.694629,100690.73,-144,+201,-203
86951,12.034,-13.272,-0.866,-1.671726,0.429776,-0.965107,100691.88,-144,+201,-203
86961,11.603,-11.245,-1.022,-1.558918,0.040803,-0.127566,100691.88,-143,+207,-198
86971,10.974,-9.332,-1.414,-1.066185,-0.267820,0.733920,100693.55,-146,+208,-197
86981,10.257,-8.089,-2.082,-0.295690,-0.459912,1.461846,100693.95,-150,+204,-199
86991,9.076,-7.381,-1.718,0.682328,-0.531214,1.993424,100691.88,-157,+204,-204
87001,8.894,-6.097,0.242,1.694401,-0.493435,2.368561,100691.88,-157,+199,-204
87011,11.001,3.902,8.862,2.323886,-0.561545,2.543625,100692.22,-165,+187,-211
87021,14.559,22.106,8.758,2.121685,-1.035122,1.877956,100692.22,-171,+177,-219
87031,25.610,8.094,-0.271,1.643850,0.206290,1.322965,100690.59,-176,+169,-222
87041,36.408,-9.174,-0.258,2.017391,0.290895,2.656432,100694.16,-176,+169,-222
87051,19.342,-12.438,1.672,2.041336,-0.215673,3.555698,100691.00,-184,+153,-226
87061,10.776,-6.831,0.645,0.108181,-0.418407,2.758065,100691.00,-189,+143,-228
87071,1.547,-3.878,3.682,-0.751176,-0.466297,2.465937,100692.58,-192,+134,-228
87081,-2.771,-2.923,7.833,-0.609103,-0.174169,2.465937,100691.22,-192,+134,-228
87091,4.014,-3.502,8.661,-0.177029,0.155739,2.432414,100689.27,-198,+125,-228
87101,13.426,-1.735,4.305,0.151814,-0.241747,2.358983,100689.95,-202,+117,-228
87111,16.558,-2.872,2.450,0.473741,-0.563141,2.297258,100691.69,-205,+106,-232
87121,14.489,-5.768,2.879,0.208218,-0.563673,2.063130,100692.78,-205,+106,-232
87131,11.706,-4.107,0.343,-0.299947,-0.668499,1.675222,100692.78,-206,+98,-233
87141,8.103,-1.710,-1.380,-0.335066,-0.587086,1.503350,100694.00,-208,+93,-234
87151,6.035,-1.302,-0.995,-0.161066,-0.309857,1.494837,100691.64,-209,+86,-236
87161,7.578,-0.759,0.140,-0.069011,-0.031031,1.458653,100691.64,-209,+86,-236
87171,10.087,-0.892,1.394,-0.132332,0.159464,1.369259,100694.25,-210,+82,-234
87181,11.419,-1.761,2.531,-0.452662,0.184473,1.234635,100693.09,-213,+76,-233
87191,11.201,-2.817,3.000,-0.794809,0.107849,1.086176,100691.41,-214,+73,-233
87201,10.096,-2.787,2.794,-0.966680,0.034418,0.952617,100691.78,-214,+73,-233
87212,9.337,-2.050,3.272,-1.043304,0.000363,0.832360,100691.78,-214,+72,-231
87221,9.190,-1.204,2.921,-1.068313,-0.052848,0.716892,100691.88,-216,+70,-231
87231,9.447,-0.014,2.410,-0.934754,-0.052848,0.651443,100693.63,-216,+70,-230
87241,9.583,0.632,2.278,-0.651139,-0.038481,0.653571,100689.02,-216,+70,-230
87251,9.222,0.276,2.446,-0.374442,-0.013472,0.704122,100689.02,-216,+67,-230
87261,9.154,-0.458,2.959,-0.253121,0.001959,0.752544,100689.02,-217,+64,-229
87271,9.119,-0.825,3.549,-0.297818,-0.033692,0.773828,100692.13,-217,+62,-230
87281,8.773,-0.758,4.028,-0.440424,-0.099673,0.781810,100690.09,-217,+62,-230
87291,8.566,-0.372,4.221,-0.549506,-0.207160,0.795644,100693.66,-218,+60,-229
87301,8.384,-0.136,3.855,-0.528222,-0.286976,0.830232,100690.30,-218,+57,-230
87311,8.481,-0.214,3.066,-0.404240,-0.302407,0.885571,100690.30,-218,+54,-231
87321,8.666,-0.458,2.721,-0.219066,-0.268352,0.961131,100694.00,-218,+54,-231
87331,8.761,-0.480,2.722,-0.068479,-0.249728,1.028176,100693.42,-220,+49,-232
87342,8.919,-0.461,2.933,0.039539,-0.244407,1.084048,100692.53,-220,+46,-232
87351,9.045,-0.381,2.915,0.122548,-0.250261,1.132470,100692.53,-221,+39,-233
87361,9.213,-0.557,3.342,0.223649,-0.256646,1.184085,100692.38,-221,+39,-233
87371,9.541,-1.180,3.173,0.281649,-0.302407,1.226653,100692.38,-221,+34,-234
87382,9.593,-1.583,2.945,0.298677,-0.355086,1.244745,100696.31,-222,+28,-236
87391,9.840,-2.404,2.309,0.266750,-0.368921,1.249534,100695.63,-221,+24,-237
87401,10.056,-2.974,1.986,0.129466,-0.368389,1.266029,100687.08,-221,+24,-237
87411,10.104,-3.106,1.937,-0.127011,-0.354554,1.270818,100687.08,-223,+17,-239
87421,10.095,-2.657,1.970,-0.390405,-0.335398,1.273479,100692.84,-222,+12,-240
87432,10.048,-2.003,2.404,-0.561745,-0.317306,1.308066,100692.75,-221,+8,-240
87441,10.266,-1.864,3.041,-0.601653,-0.301343,1.363938,100689.23,-221,+8,-240
87451,10.432,-1.869,4.019,-0.617616,-0.263563,1.416617,100694.27,-222,+2,-241
87461,10.382,-2.701,4.400,-0.690515,-0.210352,1.466635,100694.01,-222,-1,-241
87472,11.498,-3.300,2.979,-0.799598,-0.226848,1.531020,100693.23,-221,-6,-244
87481,13.185,-2.729,2.177,-0.950185,-0.328481,1.614029,100693.48,-221,-11,-245
87491,13.669,-1.986,2.118,-1.180588,-0.420004,1.707148,100693.48,-221,-11,-245
87501,13.179,-1.287,1.908,-1.280625,-0.493435,1.818359,100690.76,-218,-16,-247
87512,13.114,-0.798,1.724,-1.173671,-0.553031,1.969479,100690.76,-217,-21,-249
87521,13.689,-1.150,2.104,-0.992222,-0.620077,2.124322,100695.80,-215,-29,-251
87527,14.148,-1.565,2.623,-0.899102,-0.678077,2.229680,100693.50,-215,-29,-251
87536,14.385,-2.104,3.084,-0.895378,-0.723306,2.317478,100693.50,-211,-35,-253
87546,14.639,-2.276,3.638,-1.018827,-0.769600,2.402616,100691.23,-211,-35,-253
87557,15.018,-1.678,4.034,-1.264130,-0.824407,2.473918,100691.23,-208,-42,-256
87566,15.699,-0.980,4.263,-1.549340,-0.880278,2.556928,100693.29,-204,-48,-261
87576,16.756,-0.260,3.929,-1.855304,-0.929765,2.653239,100691.40,-200,-54,-264
87586,18.845,0.968,3.305,-2.218202,-0.999471,2.716028,100691.87,-200,-54,-264
87597,21.684,2.992,2.759,-2.628991,-1.136223,2.735717,100691.34,-195,-59,-269
87606,23.728,4.710,2.206,-3.036055,-1.316076,2.726671,100691.34,-189,-60,-275
87616,23.197,5.768,2.497,-3.273376,-1.516682,2.696340,100693.01,-181,-60,-283
87626,20.970,4.024,3.741,-2.888661,-1.644920,2.773496,100690.60,-181,-60,-283
87636,18.848,1.054,6.349,-1.998973,-1.681636,3.020927,100694.70,-173,-62,-290
87647,17.447,0.502,7.208,-1.314680,-1.736443,3.171514,100690.87,-166,-67,-294
87656,15.242,1.608,6.063,-0.876754,-1.665140,2.950157,100690.87,-158,-72,-301
87666,12.874,0.529,4.688,-0.266424,-1.418241,2.672928,100690.05,-158,-72,-301
87676,11.476,-1.177,4.800,0.432236,-1.208590,2.634616,100691.21,-152,-78,-303
87687,9.794,-2.677,5.807,1.089392,-1.038315,2.738909,100690.32,-145,-88,-304
87696,8.080,-2.381,5.606,1.387905,-0.932957,2.560652,100689.79,-140,-97,-304
87706,6.239,-3.033,4.107,1.325116,-0.812168,2.035460,100689.79,-140,-97,-304
87716,2.983,-5.328,1.172,0.745117,-0.646682,1.369259,100691.44,-135,-104,-304
87727,1.371,-8.724,0.987,-0.030167,-0.365728,0.770635,100692.55,-133,-108,-306
87736,3.224,-5.120,3.055,-0.427653,-0.268884,0.449773,100690.61,-132,-104,-306
87746,3.338,0.213,2.434,-0.533543,-0.348701,0.127315,100690.81,-131,-100,-308
87756,2.315,2.634,1.879,-0.440956,-0.234829,-0.462263,100690.81,-131,-100,-308
87762,2.397,3.029,1.610,-0.430846,-0.018261,-0.929987,100690.99,-133,-96,-308
87772,2.686,3.110,0.555,-0.300479,0.119024,-1.223180,100690.99,-133,-96,-308
87782,2.283,2.820,0.176,0.220457,0.337189,-1.474868,100688.85,-135,-89,-308
87791,2.038,1.567,0.844,0.762676,0.620803,-1.672813,100690.16,-139,-85,-305
87801,2.230,0.252,1.294,1.020218,0.810234,-1.878739,100689.10,-146,-80,-302
87812,2.954,-1.041,1.106,0.967539,0.943794,-2.152244,100692.24,-146,-80,-302
87822,3.950,-1.842,0.535,0.785025,1.022546,-2.465656,100687.63,-151,-73,-299
87831,4.715,-1.788,0.065,0.570053,1.067775,-2.778537,100688.73,-159,-66,-296
87841,5.440,-1.190,-0.254,0.361998,1.111408,-3.050977,100688.73,-167,-54,-294
87852,6.030,-0.465,-0.575,0.241741,1.157170,-3.285105,100687.79,-167,-54,-294
87861,6.328,0.093,-0.591,0.244934,1.213041,-3.496353,100687.79,-173,-40,-289
87871,6.385,0.465,-0.529,0.350291,1.279555,-3.677802,100689.48,-180,-24,-287
87881,6.434,0.579,-0.441,0.569521,1.348197,-3.831050,100685.97,-187,-9,-282
87891,6.461,0.453,-0.088,0.929227,1.434399,-3.967270,100687.13,-187,-9,-282
87902,6.777,0.234,0.625,1.227740,1.537096,-4.100297,100691.00,-191,+8,-277
87912,7.362,-0.178,1.373,1.467722,1.602546,-4.243967,100691.00,-195,+25,-272
87921,8.378,-0.565,1.986,1.648107,1.623298,-4.438719,100689.29,-196,+44,-267
87931,9.704,-1.479,2.368,1.729520,1.624894,-4.663270,100691.54,-196,+44,-267
87942,10.976,-2.571,2.502,1.675777,1.622234,-4.888352,100689.02,-195,+65,-263
87952,11.841,-3.346,2.113,1.487942,1.609995,-5.093746,100689.02,-190,+86,-259
87961,12.375,-3.583,1.902,1.209649,1.645114,-5.241673,100689.02,-182,+108,-256
87971,13.255,-3.914,2.231,0.896236,1.688747,-5.332664,100688.63,-170,+108,-253
87982,14.280,-4.597,2.210,0.679135,1.672252,-5.415673,100687.57,-170,+131,-253
87992,15.316,-5.696,2.315,0.616878,1.661078,-5.504003,100688.88,-156,+151,-250
87997,16.420,-6.787,2.613,0.654658,1.658949,-5.558278,100689.88,-156,+151,-250
88006,17.331,-7.812,2.732,0.677007,1.609995,-5.573709,100689.88,-139,+170,-249
88016,16.887,-8.505,2.290,0.567392,1.516344,-5.524755,100691.68,-120,+185,-247
88027,16.167,-8.453,1.790,0.467356,1.540821,-5.380553,100688.23,-104,+197,-246
88037,16.504,-7.654,2.023,0.475337,1.637665,-5.058627,100689.52,-104,+197,-246
88046,16.622,-7.086,2.278,0.534401,1.683426,-4.595160,100690.99,-89,+206,-245
88056,16.007,-7.596,1.598,0.714787,1.691940,-4.170004,100690.99,-75,+210,-246
88067,15.914,-10.189,2.376,0.914328,1.756325,-3.857656,100692.83,-65,+211,-246
88077,14.943,-13.394,1.276,0.799392,1.629683,-3.638426,100690.25,-65,+211,-246
88086,12.845,-14.775,-0.278,0.255044,1.466858,-3.272335,100690.73,-57,+213,-246
88096,12.672,-15.078,-0.601,-0.314314,1.366821,-2.563032,100694.66,-50,+215,-244
88107,12.069,-15.502,-1.048,-0.743194,1.076821,-1.666960,100694.66,-48,+215,-242
88117,12.052,-14.154,-1.984,-0.871965,0.617611,-0.777272,100697.01,-48,+215,-242
88126,12.176,-11.981,-2.619,-0.580369,0.162657,0.156581,100694.27,-47,+215,-240
88136,11.493,-10.525,-3.071,-0.083378,-0.216206,1.079259,100695.12,-48,+210,-242
88146,10.230,-9.982,-3.652,0.505667,-0.478536,1.877956,100693.59,-53,+204,-244
88157,8.832,-8.384,-1.695,1.212841,-0.593471,2.436139,100693.59,-53,+204,-244
88167,8.602,-2.294,3.902,1.855098,-0.563141,2.682506,100694.88,-57,+193,-251
88176,12.989,21.752,8.939,1.795501,-1.049489,2.187111,100689.58,-61,+181,-257
88186,16.618,20.067,1.227,1.282548,-0.579636,1.155351,100688.53,-63,+173,-261
88197,38.928,-3.182,-1.360,1.345337,0.589409,1.659259,100691.94,-63,+173,-261
88207,27.104,-13.214,4.151,2.010474,-0.173105,3.572193,100691.94,-69,+163,-263
88216,12.443,-10.529,6.299,0.851539,-0.131600,3.117771,100693.89,-76,+148,-266
88226,6.582,-10.589,6.837,-0.136589,0.157336,2.644726,100692.27,-82,+141,-266
88232,4.095,-8.635,8.201,-0.079653,-0.018261,2.867148,100690.27,-82,+141,-266
88242,3.915,-3.077,6.333,0.234291,-0.484389,2.996982,100690.27,-87,+132,-267
88252,4.834,-1.650,3.783,0.440750,-0.626462,2.559056,100694.20,-90,+124,-268
88261,8.586,-4.306,3.813,0.368915,-0.503013,2.121662,100694.20,-90,+124,-268
88271,12.543,-5.132,1.651,0.087961,-0.736609,2.108359,100692.67,-91,+116,-270
88282,14.104,-4.509,-0.326,-0.209488,-0.824407,1.927442,100692.94,-93,+111,-272
88292,12.446,-2.154,0.114,-0.314314,-0.673288,1.621479,100691.94,-93,+107,-273
88302,9.441,0.402,-0.016,-0.061562,-0.490242,1.462378,100691.94,-93,+107,-273
88311,7.454,0.313,-0.484,0.500878,-0.270481,1.426195,100691.94,-95,+101,-274
88322,7.577,-1.599,0.506,0.940933,-0.081582,1.413424,100696.03,-97,+96,-275
88332,9.242,-3.148,1.679,0.882401,0.023244,1.324562,100691.67,-98,+90,-275
88342,10.531,-3.024,2.485,0.402970,0.049317,1.170250,100691.67,-98,+90,-275
88351,10.322,-2.071,3.222,-0.144039,0.026437,1.032433,100690.69,-100,+86,-275
88361,9.455,-1.997,3.218,-0.496827,-0.005490,0.906855,100690.69,-101,+84,-275
88372,9.173,-1.587,2.879,-0.651139,-0.024114,0.778085,100692.34,-102,+83,-273
88382,9.116,-0.848,2.345,-0.677745,-0.021453,0.686562,100692.97,-102,+83,-273
88392,9.385,-0.312,1.889,-0.650075,0.015262,0.647186,100691.42,-103,+82,-273
88401,9.664,-0.059,1.512,-0.596864,0.074859,0.651975,100691.42,-104,+82,-273
88412,9.697,-0.076,1.578,-0.571855,0.137115,0.678580,100696.58,-105,+81,-271
88422,9.545,-0.267,2.525,-0.587818,0.164253,0.716360,100693.64,-105,+81,-271
88431,9.319,-0.362,3.746,-0.635708,0.132326,0.758929,100693.64,-107,+81,-270
88441,9.011,-0.206,4.598,-0.672956,0.019519,0.779149,100692.44,-107,+79,-271
88452,8.553,-0.176,4.403,-0.646350,-0.069875,0.791388,100689.03,-107,+80,-269
88462,8.624,-0.112,3.667,-0.536736,-0.104995,0.835553,100689.03,-107,+80,-269
88472,9.035,-0.209,3.048,-0.393598,-0.126811,0.914837,100691.13,-107,+77,-269
88481,9.563,-0.263,2.455,-0.293029,-0.135325,0.994121,100692.48,-108,+75,-270
88492,9.698,-0.295,2.406,-0.219066,-0.128407,1.064360,100694.16,-109,+73,-269
88502,9.513,-0.799,2.493,-0.157341,-0.112444,1.115442,100689.39,-111,+69,-270
88512,9.314,-1.599,2.837,-0.132332,-0.095949,1.144176,100694.37,-111,+69,-270
88522,9.245,-2.025,2.965,-0.246204,-0.110848,1.112250,100692.59,-111,+66,-270
88531,9.354,-1.473,3.147,-0.150956,-0.116701,1.176103,100691.85,-111,+64,-270
88542,9.283,-1.703,3.029,-0.173305,-0.159802,1.219204,100690.18,-113,+59,-270
88552,9.350,-1.986,2.863,-0.196185,-0.178958,1.225057,100690.18,-113,+59,-270
88561,9.655,-2.115,2.765,-0.255250,-0.190132,1.225057,100690.18,-113,+56,-270
88571,9.909,-2.350,2.893,-0.331341,-0.194389,1.244745,100692.60,-113,+53,-271
88582,10.151,-2.739,2.795,-0.385084,-0.188536,1.263901,100693.87,-114,+50,-271
88592,10.323,-2.817,3.081,-0.503745,-0.185875,1.263369,100689.24,-114,+50,-271
88602,10.106,-2.778,3.431,-0.652736,-0.206095,1.253259,100689.35,-113,+47,-271
88611,9.931,-2.458,3.710,-0.766607,-0.230572,1.272415,100689.35,-113,+45,-271
88622,9.720,-2.076,4.463,-0.826735,-0.246004,1.311259,100690.59,-115,+42,-271
88632,10.065,-2.548,4.070,-0.850680,-0.244939,1.354360,100693.59,-115,+42,-271
88642,11.906,-2.415,2.954,-0.807047,-0.310389,1.420341,100692.39,-114,+40,-271
88652,12.756,-2.310,2.964,-0.883671,-0.385949,1.513461,100692.39,-115,+38,-271
88662,12.520,-2.091,3.007,-0.984240,-0.451930,1.626800,100692.39,-115,+34,-273
88672,12.303,-1.613,2.984,-1.035855,-0.504609,1.749717,100695.02,-115,+34,-273
88682,12.770,-1.643,2.970,-0.998607,-0.546646,1.876359,100691.93,-115,+30,-273
88691,13.346,-1.988,2.969,-0.990625,-0.592407,2.013644,100691.10,-113,+26,-273
88702,13.687,-2.057,3.062,-1.081084,-0.649698,2.136029,100694.34,-113,+21,-276
88712,13.823,-1.843,3.315,-1.208790,-0.701490,2.228616,100694.34,-113,+21,-276
88722,14.179,-1.830,3.426,-1.331175,-0.747251,2.338763,100691.20,-112,+18,-276
88732,14.836,-1.576,3.479,-1.480698,-0.779710,2.427625,100691.63,-111,+14,-277
88741,15.733,-1.293,3.188,-1.686625,-0.812701,2.488286,100689.83,-109,+9,-279
88752,17.137,-0.460,2.915,-1.989395,-0.866444,2.537772,100690.67,-109,+9,-279
88762,19.125,1.492,2.692,-2.357615,-0.972866,2.577680,100693.72,-106,+6,-282
88772,21.284,3.288,2.611,-2.698698,-1.106425,2.613863,100691.47,-104,+3,-283
88781,22.531,5.130,2.383,-3.007853,-1.279893,2.615460,100691.47,-99,+1,-285
88792,21.313,5.425,2.750,-3.013706,-1.440058,2.630359,100690.94,-99,+1,-285
88802,18.829,2.697,3.687,-2.456055,-1.504975,2.753276,100691.94,-94,+1,-289
88812,16.548,-0.649,5.516,-1.678111,-1.484755,2.964524,100691.94,-91,-4,-290
88821,15.534,-1.275,6.154,-1.095983,-1.469856,3.027313,100690.95,-85,-11,-294
88832,14.954,-0.589,5.777,-0.666038,-1.368755,2.799037,100691.73,-85,-11,-294
88842,13.888,-0.905,4.384,-0.425525,-1.262333,2.479772,100689.22,-78,-18,-296
88852,12.403,-1.188,4.895,-0.025378,-1.176664,2.404212,100688.64,-74,-26,-296
88862,10.195,-0.431,6.248,0.555154,-1.063324,2.435606,100689.24,-68,-36,-296
88872,7.600,1.054,6.311,0.889851,-0.921783,2.164763,100690.93,-68,-36,-296
88882,4.976,0.432,4.402,1.117061,-0.741930,1.684268,100687.15,-64,-46,-296
88892,1.635,-3.026,2.197,1.062254,-0.453526,1.162800,100687.35,-60,-54,-294
88902,0.251,-9.051,0.415,0.606236,-0.130004,0.697204,100687.35,-57,-59,-292
88911,2.664,-9.007,2.848,0.258236,0.069005,0.430617,100687.35,-57,-59,-292
88922,3.697,-2.532,2.983,-0.194589,-0.156077,0.045902,100690.22,-57,-62,-290
88932,2.286,1.320,2.028,-0.554295,-0.132664,-0.613382,100687.86,-55,-62,-290
88942,2.427,2.669,1.216,-0.854937,0.184473,-1.320024,100687.59,-55,-60,-290
88952,3.446,3.456,0.245,-0.972001,0.356345,-1.676005,100689.06,-57,-54,-289
88962,3.278,3.465,-0.435,-0.580901,0.477666,-1.889913,100689.06,-57,-54,-289
88972,3.119,3.289,-0.169,0.057099,0.728289,-2.166079,100690.63,-60,-52,-286
88982,3.610,2.565,0.832,0.540255,0.977849,-2.382115,100688.59,-63,-50,-284
88992,4.579,1.500,1.202,0.853135,1.108216,-2.522060,100684.34,-68,-46,-280
89001,5.687,0.841,0.822,1.036181,1.139078,-2.716280,100684.34,-68,-46,-280
89012,6.570,0.299,0.323,1.152713,1.144931,-2.980206,100688.09,-74,-44,-277
89022,7.132,-0.255,0.051,1.218694,1.143335,-3.253179,100688.09,-78,-42,-274
89032,7.292,-0.662,0.202,1.231465,1.167280,-3.474536,100688.71,-83,-35,-271
89041,7.190,-0.649,0.454,1.244768,1.206656,-3.653325,100687.40,-83,-35,-271
89052,7.037,-0.325,0.517,1.387373,1.265188,-3.816151,100686.04,-90,-30,-268
89062,7.339,-0.042,0.784,1.577336,1.350858,-3.985894,100686.04,-96,-25,-264
89072,8.148,-0.313,1.163,1.733777,1.403005,-4.149251,100684.87,-103,-17,-261
89082,9.167,-1.111,1.456,1.831685,1.393959,-4.331233,100684.65,-103,-17,-261
89092,10.176,-2.232,1.815,1.799758,1.364161,-4.555783,100683.98,-108,-8,-257
89102,11.023,-3.498,2.113,1.599685,1.341812,-4.795765,100683.61,-113,+2,-254
89112,11.525,-4.215,1.991,1.234658,1.322124,-5.042664,100686.81,-118,+18,-251
89122,11.656,-3.826,1.825,0.852071,1.347665,-5.245930,100686.59,-118,+18,-251
89132,12.130,-3.382,2.108,0.571649,1.431738,-5.351820,100686.59,-120,+34,-246
89142,13.100,-3.525,2.288,0.422658,1.479096,-5.413544,100686.17,-120,+52,-242
89152,14.361,-4.347,2.344,0.467888,1.521133,-5.457177,100687.06,-118,+73,-239
89162,16.048,-6.041,2.437,0.622732,1.564234,-5.472609,100687.06,-118,+73,-239
89171,17.077,-7.940,2.274,0.634438,1.517940,-5.445471,100688.95,-112,+92,-235
89182,16.613,-8.585,1.958,0.452456,1.441316,-5.359269,100688.17,-104,+110,-230
89192,16.222,-7.905,2.029,0.267282,1.432271,-5.193251,100685.17,-93,+127,-226
89202,16.744,-6.878,1.979,0.150218,1.429078,-4.911765,100689.16,-93,+127,-226
89212,17.104,-6.850,1.839,0.150750,1.417372,-4.541416,100689.16,-83,+141,-223
89222,16.268,-8.019,1.259,0.335392,1.401408,-4.172664,100692.80,-72,+149,-218
89232,14.895,-10.293,1.156,0.550365,1.440252,-3.838500,100694.82,-61,+157,-216
89242,13.765,-12.347,0.486,0.579631,1.420032,-3.474536,100689.32,-61,+157,-216
89252,12.631,-13.070,-0.879,0.343374,1.359904,-2.942427,100689.32,-53,+161,-213
89262,12.953,-13.227,-1.468,0.113503,1.283280,-2.244299,100689.32,-46,+164,-209
89272,12.764,-13.189,-2.039,-0.136057,0.951775,-1.524886,100694.61,-42,+165,-207
89282,12.006,-12.207,-3.030,-0.098809,0.474473,-0.832611,100692.09,-42,+165,-207
89292,11.593,-10.562,-3.362,0.317833,0.078583,-0.097768,100692.56,-39,+163,-206
89302,11.113,-9.158,-2.933,0.970731,-0.230040,0.699333,100692.52,-37,+159,-206
89312,10.757,-9.387,-1.859,1.773685,-0.390205,1.505479,100692.52,-38,+151,-210
89322,10.226,-12.011,1.459,2.760216,-0.441288,2.328653,100694.96,-38,+151,-210
89332,11.513,-6.154,12.942,3.559445,-0.310389,3.036891,100695.16,-39,+140,-215
89342,19.704,18.913,7.926,2.527684,-1.343214,2.437203,100690.02,-42,+127,-220
89352,27.182,2.275,-5.150,1.390566,0.161592,1.701295,100690.02,-42,+120,-221
89362,29.944,-17.793,2.979,1.408658,0.376565,3.045404,100693.10,-42,+120,-221
89372,14.969,-11.527,4.148,0.318897,-0.667435,3.526432,100693.10,-49,+110,-221
89382,7.734,-5.670,4.038,-1.582331,-0.669031,2.849056,100691.37,-52,+103,-220
89392,2.204,-1.369,4.603,-1.643524,-0.496627,2.452102,100692.84,-54,+100,-219
89402,1.165,-1.054,4.883,-0.619213,-0.275802,2.528726,100688.43,-57,+100,-217
89412,6.971,-1.280,4.167,0.328475,-0.208224,2.570762,100688.43,-57,+95,-217
89422,11.809,-2.462,1.843,0.863245,-0.310389,2.353662,100693.15,-59,+88,-219
89433,14.229,-5.201,2.140,0.917520,-0.318371,2.188708,100694.46,-60,+82,-221
89442,13.928,-6.030,2.273,0.436493,-0.405104,2.049295,100687.16,-62,+76,-221
89452,11.317,-4.164,1.117,-0.146699,-0.501416,1.760892,100691.20,-62,+76,-221
89462,8.252,-2.112,0.461,-0.285048,-0.447673,1.514525,100689.16,-63,+72,-221
89473,7.006,-1.111,0.486,-0.169048,-0.314646,1.367662,100695.03,-63,+71,-223
89482,7.790,-0.932,1.062,-0.111580,-0.131068,1.286782,100693.56,-64,+66,-221
89492,9.545,-1.494,1.242,-0.181818,0.030693,1.233571,100693.56,-64,+66,-221
89502,10.794,-2.062,1.441,-0.307928,0.112106,1.169186,100691.30,-66,+64,-221
89512,10.705,-2.064,1.958,-0.429249,0.140308,1.079259,100691.30,-66,+62,-221
89522,9.776,-2.571,2.356,-0.560681,0.133391,0.959534,100693.20,-67,+60,-219
89532,9.194,-2.896,2.011,-0.745855,0.129666,0.819589,100694.19,-67,+60,-219
89542,9.266,-2.757,1.752,-1.011377,0.165317,0.684434,100687.38,-68,+61,-218
89552,9.664,-1.821,1.823,-1.270515,0.200969,0.589186,100691.83,-69,+61,-218
89563,9.926,-0.316,2.334,-1.401414,0.228106,0.556195,100691.83,-70,+61,-215
89572,9.926,0.683,2.825,-1.363102,0.238216,0.550342,100693.20,-70,+61,-215
89582,9.691,1.047,3.527,-1.143873,0.238216,0.584397,100692.54,-70,+62,-214
89592,9.431,0.568,3.908,-0.889524,0.202565,0.648782,100692.01,-71,+63,-213
89603,9.163,-0.279,4.016,-0.666570,0.143501,0.713167,100692.01,-72,+61,-211
89612,8.908,-1.008,3.862,-0.545249,0.037079,0.750415,100692.01,-72,+61,-211
89622,8.663,-1.498,3.366,-0.497892,-0.044866,0.758397,100695.42,-72,+59,-211
89632,8.739,-1.825,2.689,-0.493103,-0.067215,0.756268,100693.91,-74,+58,-211
89643,9.046,-1.971,2.181,-0.500020,-0.081050,0.766910,100696.00,-74,+58,-210
89652,9.349,-1.449,2.150,-0.513323,-0.096481,0.790855,100694.06,-74,+58,-210
89662,9.581,-1.166,2.537,-0.523433,-0.090628,0.811076,100694.06,-75,+56,-210
89672,9.842,-1.216,2.814,-0.494167,-0.096481,0.826507,100690.87,-74,+54,-211
89682,9.840,-1.074,3.002,-0.435635,-0.147031,0.842470,100693.38,-76,+52,-210
89693,9.209,-1.470,3.273,-0.413818,-0.211417,0.832360,100692.95,-76,+52,-210
89702,8.717,-1.435,3.244,-0.265360,-0.211949,0.863755,100692.95,-76,+52,-210
89712,8.657,-1.553,3.170,-0.206828,-0.229508,0.924947,100693.30,-75,+50,-211
89722,8.812,-1.702,3.148,-0.221727,-0.275270,0.979222,100693.30,-77,+47,-211
89733,9.134,-1.667,3.221,-0.296754,-0.310921,1.029773,100695.08,-77,+47,-211
89742,9.430,-1.427,3.392,-0.374442,-0.357747,1.104268,100693.98,-76,+45,-211
89752,9.570,-1.080,3.511,-0.396791,-0.400315,1.193130,100691.94,-75,+43,-213
89762,9.794,-1.271,3.425,-0.355286,-0.405637,1.281993,100691.94,-76,+39,-212
89773,10.133,-1.769,3.536,-0.311653,-0.402444,1.361809,100692.35,-76,+39,-212
89783,10.498,-2.386,3.422,-0.328681,-0.399251,1.424066,100691.87,-76,+38,-214
89792,11.074,-2.987,2.534,-0.417011,-0.430114,1.464506,100692.40,-75,+34,-214
89802,11.784,-2.575,2.066,-0.530350,-0.507802,1.515057,100689.89,-76,+30,-214
89812,12.143,-2.070,2.224,-0.638369,-0.573783,1.598066,100692.14,-76,+30,-214
89823,12.358,-1.363,2.393,-0.647947,-0.623269,1.708745,100694.03,-76,+29,-215
89832,12.632,-1.092,2.541,-0.561745,-0.666370,1.838580,100693.77,-75,+24,-216
89842,13.005,-1.670,3.006,-0.475543,-0.708407,1.994488,100693.77,-74,+20,-218
89852,13.707,-2.138,3.301,-0.463304,-0.764279,2.139221,100692.56,-74,+20,-218
89863,14.236,-2.270,3.573,-0.562277,-0.815893,2.260010,100692.56,-74,+14,-218
89872,14.533,-2.549,3.783,-0.725102,-0.872829,2.362175,100691.67,-74,+10,-220
89878,15.010,-2.034,3.920,-0.882075,-0.930297,2.432946,100692.16,-74,+10,-220
89887,15.558,-1.418,4.133,-1.050222,-0.977655,2.509038,100690.63,-72,+4,-221
89897,16.280,-0.840,4.236,-1.284882,-1.023416,2.625570,100692.72,-72,+0,-225
89907,17.106,0.392,4.166,-1.542423,-1.083012,2.737845,100692.72,-72,-5,-226
89917,18.626,0.865,3.793,-1.783469,-1.151654,2.854909,100695.66,-72,-5,-226
89927,21.860,1.922,3.543,-2.110716,-1.241581,2.917698,100690.78,-70,-10,-228
89937,24.842,4.529,3.761,-2.593340,-1.392700,2.893753,100688.42,-68,-14,-232
89948,24.097,5.614,3.473,-3.015835,-1.542223,2.857038,100688.94,-65,-17,-236
89957,20.795,3.175,3.833,-2.868441,-1.585324,2.882579,100688.94,-65,-17,-236
89967,17.774,-0.890,6.046,-2.176698,-1.536370,3.074670,100693.03,-63,-22,-239
89977,16.009,-2.200,7.034,-1.675450,-1.487948,3.191735,100689.83,-60,-26,-243
89988,14.858,-0.056,6.039,-1.456221,-1.413985,2.925148,100687.47,-57,-34,-247
89998,13.100,0.448,5.449,-0.920032,-1.216572,2.607478,100690.20,-57,-34,-247
90007,11.299,-0.137,5.654,-0.303139,-1.027673,2.616524,100690.20,-55,-40,-250
90017,9.035,0.336,6.130,0.409888,-0.863783,2.629295,100692.12,-53,-48,-253
90028,6.538,1.337,5.617,0.861117,-0.668499,2.279698,100690.23,-53,-59,-254
90038,3.720,0.010,2.890,0.956364,-0.467361,1.655534,100689.12,-53,-59,-254
90047,0.325,-4.901,-0.279,0.566860,-0.226848,0.985608,100689.07,-52,-66,-254
90057,-0.029,-9.265,1.135,-0.063158,0.192987,0.450837,100689.07,-55,-70,-256
90067,2.353,-4.497,2.656,-0.745855,0.184473,0.039516,100690.21,-57,-70,-257
90078,2.313,0.955,1.566,-1.256148,0.034418,-0.492061,100690.68,-57,-70,-257
90087,2.334,3.209,0.461,-1.508900,0.183409,-1.238079,100691.32,-60,-68,-258
90097,3.491,4.185,-0.697,-1.433873,0.388271,-1.745180,100688.59,-65,-61,-261
90107,3.234,4.640,-1.201,-0.724570,0.537794,-1.909602,100688.59,-71,-57,-262
90118,2.790,4.039,-0.541,0.252383,0.802253,-2.016024,100688.45,-71,-57,-262
90127,3.074,2.797,0.238,1.067575,0.999133,-2.177253,100688.25,-78,-55,-259
90137,3.894,1.307,0.894,1.633740,1.107684,-2.379987,100689.72,-87,-54,-258
90147,5.038,0.021,1.110,2.010474,1.139610,-2.614647,100687.72,-95,-52,-254
90158,6.046,-0.415,1.049,2.215336,1.135353,-2.895601,100687.72,-104,-52,-250
90168,6.737,-0.509,1.003,2.239813,1.134289,-3.177619,100688.73,-104,-49,-250
90177,7.131,-0.656,1.059,2.183409,1.151849,-3.430903,100689.35,-114,-43,-245
90187,7.577,-0.759,0.979,2.120620,1.158234,-3.648536,100686.77,-124,-35,-240
90198,7.828,-0.755,0.835,2.113703,1.163555,-3.848078,100682.27,-132,-24,-235
90208,7.953,-0.664,0.968,2.056235,1.200803,-4.032719,100682.27,-132,-24,-235
90217,8.281,-0.987,1.333,1.921611,1.222619,-4.192352,100687.38,-139,-10,-231
90227,8.741,-1.646,1.538,1.752401,1.194950,-4.373270,100684.70,-144,+6,-226
90233,9.352,-2.243,1.627,1.561373,1.157702,-4.537692,100686.95,-144,+6,-226
90243,10.066,-2.888,1.788,1.325649,1.114601,-4.713820,100686.95,-146,+24,-221
90253,10.942,-3.356,1.835,0.979245,1.085335,-4.943691,100685.23,-144,+46,-219
90262,11.565,-3.206,1.973,0.602511,1.133757,-5.127801,100685.23,-144,+46,-219
90272,12.173,-2.773,2.368,0.287502,1.229005,-5.239012,100688.19,-140,+66,-214
90283,13.100,-2.651,2.607,0.119356,1.317867,-5.324682,100689.27,-133,+88,-209
90293,14.275,-2.943,2.491,0.143301,1.399812,-5.414608,100688.61,-125,+111,-206
90303,15.368,-3.732,2.410,0.301337,1.499316,-5.449728,100688.61,-125,+111,-206
90312,16.127,-4.950,2.193,0.567392,1.594564,-5.382150,100688.61,-115,+129,-202
90322,16.458,-6.410,2.064,0.806842,1.655225,-5.262957,100690.46,-103,+147,-197
90333,16.844,-7.401,2.124,0.948915,1.686619,-5.142168,100691.41,-89,+165,-197
90343,17.050,-7.636,2.376,0.944658,1.669591,-4.987856,100689.73,-74,+165,-197
90352,16.574,-7.697,2.622,0.805245,1.591903,-4.760113,100687.95,-74,+178,-192
90362,15.595,-8.029,2.643,0.583888,1.530179,-4.470114,100687.95,-58,+189,-191
90373,14.975,-8.849,3.336,0.380622,1.582858,-4.163086,100691.27,-43,+197,-190
90383,14.881,-10.049,3.579,0.217796,1.602014,-3.936940,100691.20,-29,+204,-187
90392,13.966,-11.034,2.824,-0.042938,1.577536,-3.746444,100688.09,-29,+204,-187
90402,13.335,-12.301,2.189,-0.384552,1.595628,-3.414940,100688.09,-16,+210,-185
90413,12.460,-14.276,1.622,-0.876754,1.562105,-2.864207,100695.26,-6,+212,-183
90423,11.591,-15.194,0.485,-1.490276,1.344472,-2.200134,100692.43,+1,+215,-176
90432,11.901,-13.989,-0.783,-1.926074,0.960821,-1.471675,100692.43,+1,+215,-176
90442,12.210,-11.653,-1.900,-1.931927,0.523427,-0.669254,100692.63,+6,+217,-171
90452,12.106,-9.473,-2.658,-1.566900,0.133923,0.182122,100693.79,+9,+217,-169
90463,11.186,-7.986,-3.340,-0.859194,-0.173637,0.993057,100693.79,+8,+213,-169
90468,9.934,-7.055,-4.229,-0.100938,-0.349233,1.511332,100693.17,+8,+213,-169
90477,8.538,-6.440,-5.060,0.845153,-0.431710,1.933295,100691.44,+5,+209,-173
90487,7.590,-5.180,-2.786,2.112639,-0.447673,2.405808,100691.23,+5,+209,-173
90498,8.253,-0.424,2.436,2.943262,-0.543453,2.629295,100693.64,+2,+202,-181
90508,13.212,22.460,8.794,3.267317,-1.086737,2.168488,100693.64,+0,+194,-188
90518,19.665,20.863,1.318,2.712327,-0.611563,1.115975,100690.71,+0,+188,-196
90527,41.562,-5.641,-1.778,2.991684,0.733610,1.906157,100692.49,+0,+188,-196
90537,26.228,-16.222,2.522,3.956399,0.163189,3.901569,100690.91,-5,+179,-204
90548,13.889,-10.899,-2.062,1.656621,-0.351361,3.151826,100694.80,-13,+168,-207
90557,3.964,-8.788,1.366,-0.337727,-0.362536,2.650047,100694.80,-18,+163,-207
90567,-2.689,-7.023,7.836,-1.061928,-0.101802,2.618120,100692.77,-18,+163,-207
90577,2.676,-4.935,10.308,-1.130038,0.153611,2.441460,100688.05,-24,+161,-205
90588,12.258,-0.589,5.459,-0.967744,-0.377435,2.274909,100690.09,-27,+156,-203
90598,15.514,-0.998,3.464,-0.357947,-0.701490,2.248304,100691.34,-29,+152,-204
90607,14.169,-4.797,4.087,-0.341451,-0.722242,2.120065,100691.34,-29,+152,-204
90617,12.049,-3.349,1.453,-0.691047,-0.890389,1.748121,100691.05,-33,+149,-205
90628,9.065,-0.199,-0.505,-0.534075,-0.826535,1.534213,100691.47,-35,+147,-205
90638,6.356,0.502,-0.527,-0.007818,-0.608903,1.601259,100690.27,-37,+144,-206
90648,6.891,0.320,0.351,0.513649,-0.384884,1.634781,100691.84,-39,+140,-208
90657,9.298,-1.052,1.294,0.815887,-0.205031,1.553369,100691.84,-39,+140,-208
90668,10.716,-3.142,2.411,0.721172,-0.114040,1.433112,100696.91,-42,+135,-209
90678,10.496,-3.941,3.154,0.312512,-0.164591,1.276672,100692.59,-43,+133,-209
90688,9.393,-3.012,3.288,-0.096149,-0.227912,1.120231,100689.14,-45,+131,-209
90697,8.602,-1.887,3.323,-0.381360,-0.254517,0.989864,100690.45,-45,+131,-209
90707,8.754,-0.928,3.017,-0.571855,-0.263563,0.880782,100690.45,-45,+129,-209
90718,9.326,0.167,2.453,-0.610699,-0.225783,0.819057,100693.13,-47,+129,-209
90728,9.522,0.885,2.222,-0.450534,-0.158206,0.804158,100691.20,-48,+127,-209
90737,9.468,0.785,2.097,-0.206828,-0.094884,0.829699,100689.66,-48,+127,-209
90747,9.234,0.524,2.696,0.011337,-0.064022,0.882378,100689.51,-50,+125,-208
90758,8.966,-0.406,3.030,0.092218,-0.060297,0.923351,100689.51,-50,+123,-209
90768,8.956,-1.484,2.999,0.046989,-0.069875,0.946764,100695.30,-52,+121,-209
90777,9.131,-1.874,2.902,-0.110516,-0.107123,0.954213,100690.63,-52,+121,-209
90787,9.239,-1.577,2.613,-0.318571,-0.149160,0.957938,100693.41,-53,+120,-209
90798,9.309,-1.037,2.243,-0.454259,-0.177362,0.988800,100692.90,-53,+118,-209
90808,9.506,-0.676,2.121,-0.435635,-0.191196,1.040947,100692.90,-55,+117,-209
90818,9.550,-0.648,2.242,-0.323360,-0.191196,1.094158,100692.60,-55,+117,-209
90827,9.415,-0.788,2.424,-0.211617,-0.180554,1.129809,100692.09,-56,+113,-208
90838,9.328,-1.389,2.637,-0.148295,-0.170976,1.146837,100692.02,-57,+112,-209
90848,9.254,-2.097,2.853,-0.175433,-0.176829,1.154286,100689.55,-59,+110,-209
90858,9.260,-2.244,2.740,-0.271213,-0.186407,1.150562,100689.55,-59,+110,-209
90867,9.301,-2.140,2.626,-0.358479,-0.190664,1.136727,100694.96,-60,+107,-208
90877,9.433,-2.258,2.574,-0.418075,-0.189068,1.134598,100691.35,-61,+105,-208
90888,9.635,-2.456,2.571,-0.468626,-0.187472,1.138855,100691.09,-62,+104,-209
90898,9.722,-2.624,2.618,-0.541525,-0.179490,1.136727,100690.15,-62,+104,-209
90907,9.907,-2.560,2.843,-0.660185,-0.188004,1.126617,100690.15,-63,+102,-207
90917,10.103,-2.569,3.062,-0.788424,-0.213013,1.135663,100696.10,-65,+100,-207
90928,10.121,-2.118,3.458,-0.916662,-0.235361,1.164397,100693.74,-65,+99,-207
90938,9.853,-1.726,3.702,-0.976436,-0.271190,1.214770,100692.70,-65,+99,-207
90948,9.907,-1.547,3.759,-0.954442,-0.305600,1.284653,100688.82,-66,+97,-207
90957,10.230,-1.761,3.989,-0.888460,-0.332738,1.385754,100688.82,-68,+96,-207
90968,10.588,-2.154,4.594,-0.864515,-0.351361,1.481002,100694.72,-68,+93,-207
90978,11.531,-2.828,3.841,-0.948056,-0.360939,1.565607,100690.36,-68,+93,-207
90988,13.584,-2.397,2.006,-1.002864,-0.450334,1.657130,100693.56,-70,+91,-206
90997,14.239,-2.450,1.770,-1.125249,-0.545581,1.766745,100691.36,-72,+88,-208
91008,14.193,-1.961,1.448,-1.235396,-0.626994,1.884873,100691.36,-74,+85,-207
91018,14.210,-1.150,1.283,-1.224221,-0.683398,2.016836,100694.81,-74,+85,-207
91028,14.471,-1.069,1.645,-1.138020,-0.731820,2.163166,100691.03,-74,+82,-207
91038,14.774,-1.571,2.238,-1.095983,-0.780242,2.320139,100690.03,-76,+78,-209
91047,15.246,-1.499,3.100,-1.173139,-0.825471,2.447845,100691.55,-79,+73,-209
91058,15.890,-0.980,4.112,-1.357249,-0.856866,2.566506,100691.55,-79,+73,-209
91068,16.388,-1.004,4.718,-1.608937,-0.857398,2.701662,100693.69,-79,+68,-208
91078,17.489,-1.150,4.530,-1.941505,-0.833453,2.807019,100692.64,-81,+63,-210
91087,19.765,0.420,4.157,-2.424661,-0.886664,2.809680,100693.53,-83,+58,-211
91098,22.535,2.807,3.896,-2.924312,-1.043636,2.754873,100691.44,-84,+54,-211
91108,23.917,5.568,3.937,-3.380330,-1.280957,2.679845,100691.44,-84,+54,-211
91118,21.790,5.437,4.210,-3.365963,-1.451764,2.692616,100692.63,-84,+52,-212
91127,18.284,1.222,6.015,-2.671560,-1.429948,2.830964,100691.21,-84,+48,-214
91138,15.532,-2.158,7.187,-1.981414,-1.374076,2.975166,100686.18,-84,+42,-215
91148,13.941,-1.216,5.729,-1.667469,-1.357581,2.818726,100688.70,-84,+42,-215
91158,12.497,-0.593,4.029,-1.200276,-1.201141,2.525533,100688.70,-83,+37,-217
91168,11.160,-2.415,4.087,-0.568130,-1.038847,2.446781,100691.18,-81,+32,-219
91177,9.853,-3.873,5.959,0.281117,-0.913801,2.585662,100693.02,-80,+24,-220
91188,8.580,-3.332,6.394,0.805777,-0.805783,2.525533,100690.40,-80,+24,-220
91198,7.205,-2.423,4.314,0.994676,-0.741930,2.105699,100689.66,-78,+18,-222
91208,4.850,-2.324,1.476,0.796199,-0.664774,1.428855,100689.66,-76,+13,-224
91217,2.295,-5.231,-0.066,0.361998,-0.469490,0.744030,100690.08,-73,+11,-224
91228,2.993,-3.749,2.910,0.223649,-0.232169,0.437535,100690.64,-73,+11,-224
91238,3.544,1.502,2.633,0.061888,-0.286976,0.189039,100688.28,-72,+12,-225
91248,2.998,3.919,1.033,0.026237,-0.219398,-0.394685,100687.88,-69,+12,-225
91257,3.792,4.198,0.230,0.152879,0.073262,-0.990648,100687.88,-67,+15,-225
91268,4.102,3.500,-0.195,0.578566,0.245134,-1.216795,100691.77,-67,+15,-225
91278,3.530,2.342,0.499,1.079814,0.446803,-1.328538,100690.23,-66,+17,-225
91288,3.293,0.952,1.142,1.286272,0.639427,-1.559473,100687.63,-64,+19,-223
91297,3.531,-0.188,1.286,1.280419,0.767665,-1.880868,100687.78,-63,+21,-221
91308,4.076,-0.561,0.910,1.152181,0.849610,-2.224611,100687.78,-63,+21,-221
91318,4.624,-0.607,0.541,1.007979,0.913464,-2.530574,100690.13,-61,+26,-221
91328,5.200,-0.519,0.400,0.936144,0.980509,-2.780665,100689.24,-59,+30,-218
91338,5.528,-0.417,0.492,0.892511,1.044363,-3.009473,100687.24,-58,+36,-216
91347,5.699,-0.212,0.590,0.851539,1.104491,-3.251582,100688.18,-58,+36,-216
91358,5.979,0.155,0.450,0.812163,1.163023,-3.506463,100688.18,-57,+43,-214
91368,6.568,0.220,0.182,0.882933,1.221023,-3.729417,100683.70,-53,+50,-212
91378,7.180,0.114,0.211,1.042034,1.296583,-3.912463,100686.58,-50,+56,-209
91387,7.875,-0.229,0.491,1.177190,1.377463,-4.077949,100684.22,-50,+56,-209
91398,8.477,-0.799,0.755,1.279355,1.422693,-4.262591,100685.06,-47,+65,-207
91408,9.072,-1.480,0.995,1.284676,1.427304,-4.503636,100685.06,-42,+72,-206
91418,9.798,-2.075,1.223,1.164419,1.407794,-4.726058,100687.54,-37,+79,-204
91428,10.681,-2.549,1.213,0.969667,1.388638,-4.967636,100683.46,-37,+79,-204
91438,11.575,-2.354,1.096,0.777575,1.412583,-5.170370,100686.45,-30,+88,-202
91448,12.393,-1.921,1.110,0.692970,1.516876,-5.289563,100688.60,-22,+97,-199
91458,13.584,-2.265,1.485,0.705741,1.653096,-5.329471,100688.60,-15,+104,-195
91468,14.717,-3.445,1.785,0.828658,1.719078,-5.343838,100688.78,-15,+104,-195
91478,15.480,-5.094,2.310,1.021814,1.738766,-5.366187,100687.31,-7,+111,-194
91488,16.304,-6.671,2.258,1.139410,1.682894,-5.378957,100686.20,+1,+116,-192
91498,16.552,-7.360,2.179,1.070236,1.579133,-5.345434,100686.16,+9,+120,-190
91508,16.256,-7.552,1.876,0.906346,1.543481,-5.252315,100686.16,+9,+120,-190
91517,16.492,-7.851,1.951,0.762144,1.591903,-5.078315,100689.77,+19,+123,-189
91528,17.083,-8.720,2.289,0.645080,1.590307,-4.785122,100686.74,+26,+125,-188
91538,17.031,-9.809,2.389,0.535466,1.500913,-4.450426,100689.15,+33,+125,-187
91548,15.782,-10.479,2.086,0.451924,1.412583,-4.083802,100689.68,+39,+125,-187
91558,14.166,-11.238,1.110,0.379557,1.441849,-3.606500,100689.68,+39,+127,-187
91568,13.874,-13.628,1.860,0.345502,1.520601,-3.149417,100691.03,+43,+126,-186
91578,13.072,-14.420,0.813,0.001760,1.320527,-2.805675,100690.63,+46,+125,-185
91588,12.078,-14.017,-0.326,-0.436699,1.134821,-2.318794,100691.88,+48,+126,-184
91598,11.990,-14.063,-0.673,-0.722442,0.952308,-1.565859,100694.61,+48,+126,-184
91608,10.960,-13.644,-1.540,-0.839506,0.621867,-0.755988,100694.61,+49,+125,-182
91618,10.814,-11.895,-2.824,-0.680405,0.246198,-0.031254,100694.61,+48,+123,-181
91628,10.736,-9.904,-4.331,-0.137653,-0.085307,0.640800,100695.34,+48,+120,-182
91638,10.499,-8.053,-3.763,0.688181,-0.284316,1.306470,100693.81,+48,+120,-182
91643,10.248,-8.403,-5.067,1.362364,-0.446077,1.778451,100693.03,+48,+116,-184
91653,9.484,-9.314,1.072,2.316437,-0.490774,2.310561,100693.03,+48,+116,-184
91663,13.899,8.158,13.253,2.919849,-0.780242,2.663882,100693.03,+43,+108,-188
91673,24.951,22.410,-1.371,1.875318,-1.376205,1.661919,100691.59,+44,+102,-192
91683,39.160,-5.693,-3.805,1.205924,0.537794,2.000873,100694.64,+40,+96,-193
91694,22.371,-16.009,5.200,1.956731,0.040803,3.642964,100692.73,+40,+96,-193
91703,8.991,-9.891,4.751,0.357741,-0.421068,3.084780,100692.73,+35,+90,-193
91713,2.724,-8.969,4.819,-0.955506,-0.274205,2.564909,100692.92,+31,+89,-194
91723,0.412,-4.340,6.148,-0.603249,-0.273141,2.594707,100692.92,+28,+86,-193
91734,4.855,-1.217,4.467,-0.020057,-0.449802,2.634084,100693.13,+28,+86,-193
91743,10.032,-1.931,2.231,0.303998,-0.509398,2.343552,100691.56,+26,+83,-193
91753,13.560,-4.092,2.997,0.313044,-0.449270,2.206800,100693.28,+24,+80,-195
91763,14.598,-5.925,0.825,-0.021653,-0.608370,2.081222,100693.28,+23,+76,-195
91773,12.768,-4.114,-0.139,-0.336130,-0.566866,1.735350,100693.30,+22,+76,-195
91784,9.828,-0.865,0.296,-0.324956,-0.435967,1.528892,100694.61,+22,+76,-195
91793,7.142,0.103,0.099,0.066677,-0.308793,1.488451,100690.20,+20,+74,-195
91803,7.232,-1.699,0.657,0.415209,-0.139582,1.426727,100691.17,+18,+71,-197
91813,9.252,-3.306,1.605,0.305594,-0.039013,1.340525,100690.59,+18,+69,-196
91824,10.680,-2.441,2.848,-0.193525,-0.023050,1.213351,100690.55,+18,+69,-196
91833,10.481,-1.849,3.407,-0.665506,-0.025710,1.042543,100692.33,+16,+70,-196
91843,9.745,-0.902,3.385,-0.802790,-0.054976,0.901534,100692.33,+16,+68,-195
91853,9.094,-0.563,3.261,-0.710203,-0.053912,0.813204,100691.13,+14,+68,-195
91863,8.986,-0.834,2.599,-0.549506,-0.020389,0.721681,100691.13,+14,+68,-195
91873,9.357,-0.831,1.915,-0.439359,0.025904,0.650378,100693.13,+14,+68,-195
91883,9.637,-1.281,1.813,-0.422332,0.071666,0.630690,100692.24,+14,+67,-195
91893,9.630,-1.431,2.189,-0.516515,0.081244,0.617388,100694.29,+14,+68,-193
91904,9.407,-1.023,3.021,-0.628791,0.047189,0.590250,100690.09,+14,+68,-193
91913,8.918,-0.525,3.467,-0.676148,-0.010811,0.584929,100690.09,+12,+68,-193
91923,8.501,0.009,3.881,-0.641029,-0.065618,0.599296,100690.97,+12,+67,-192
91933,8.265,0.320,4.096,-0.547378,-0.115637,0.642929,100691.00,+11,+67,-192
91943,8.255,0.296,3.829,-0.420736,-0.124151,0.704654,100687.55,+11,+67,-192
91953,8.729,-0.032,3.273,-0.261635,-0.110848,0.770103,100687.55,+11,+66,-193
91963,9.350,-0.430,2.977,-0.085506,-0.114040,0.840874,100687.55,+11,+66,-192
91973,9.533,-0.850,2.847,0.029429,-0.143839,0.913773,100696.95,+9,+64,-192
91983,9.376,-1.152,2.811,0.054970,-0.176297,0.963259,100692.81,+9,+64,-192
91994,9.368,-2.070,2.830,-0.099341,-0.216738,0.963791,100692.17,+9,+63,-192
92003,9.448,-1.381,2.673,-0.024846,-0.218334,1.028708,100692.66,+8,+61,-193
92013,9.559,-1.403,2.713,-0.106791,-0.250793,1.082984,100692.66,+7,+60,-193
92023,9.618,-1.585,2.811,-0.139782,-0.274738,1.136727,100691.80,+7,+60,-193
92034,9.807,-2.067,2.626,-0.258974,-0.302407,1.150562,100689.60,+8,+58,-193
92044,9.822,-2.440,2.497,-0.370185,-0.306132,1.171846,100691.80,+7,+56,-193
92053,9.948,-2.420,2.310,-0.453194,-0.304004,1.192066,100691.80,+6,+56,-194
92063,9.966,-2.267,2.446,-0.507470,-0.297618,1.213883,100691.76,+6,+56,-194
92073,9.873,-2.408,2.644,-0.538864,-0.289637,1.241020,100691.76,+5,+55,-193
92083,9.948,-2.602,2.970,-0.579836,-0.273673,1.252727,100689.65,+5,+53,-193
92093,9.972,-2.653,3.424,-0.646350,-0.264095,1.261240,100692.38,+4,+53,-194
92103,9.861,-2.942,4.192,-0.769800,-0.239618,1.270286,100692.49,+4,+53,-194
92113,10.777,-3.043,3.175,-0.925708,-0.266756,1.285185,100692.49,+4,+52,-194
92124,12.258,-1.978,2.633,-1.025212,-0.388609,1.343717,100693.02,+3,+51,-194
92133,12.778,-1.344,2.833,-1.099176,-0.479068,1.458121,100691.91,+1,+50,-194
92143,12.675,-0.746,2.616,-1.083212,-0.533875,1.604451,100687.56,+1,+50,-194
92153,12.769,-0.878,2.505,-0.959763,-0.579104,1.757699,100691.59,+2,+50,-195
92164,13.194,-1.321,2.455,-0.838974,-0.641893,1.904029,100693.70,+0,+47,-195
92174,13.691,-1.832,2.592,-0.803855,-0.718517,2.039185,100693.44,+0,+46,-195
92183,14.277,-2.009,2.808,-0.866112,-0.787159,2.148799,100689.52,+0,+46,-195
92193,14.590,-1.822,3.037,-0.989561,-0.861655,2.245111,100689.52,+0,+43,-195
92204,14.890,-1.387,3.464,-1.133231,-0.943600,2.339827,100694.28,-2,+40,-197
92213,15.504,-0.913,4.137,-1.289671,-1.022352,2.434542,100694.28,-3,+37,-199
92223,16.511,-0.030,4.813,-1.531249,-1.098444,2.541497,100690.75,-4,+36,-199
92233,17.812,0.990,5.246,-1.851047,-1.177196,2.648451,100693.38,-4,+36,-199
92243,19.864,2.583,5.091,-2.221395,-1.289471,2.735184,100694.64,-5,+34,-200
92254,22.306,4.471,4.284,-2.584294,-1.395893,2.785735,100688.72,-7,+32,-200
92263,23.346,6.124,3.756,-2.916862,-1.500718,2.764982,100688.72,-7,+30,-203
92273,21.323,5.336,2.959,-2.896110,-1.581599,2.757533,100693.29,-7,+30,-203
92283,18.401,1.593,3.934,-2.286844,-1.561911,2.873533,100685.45,-7,+28,-204
92294,15.945,-1.852,5.993,-1.537102,-1.486884,3.095423,100690.05,-9,+24,-206
92304,14.904,-1.930,5.683,-1.220497,-1.428352,3.058175,100690.05,-8,+20,-207
92313,14.137,-0.536,3.430,-1.168350,-1.357049,2.641001,100690.05,-8,+20,-207
92323,12.672,-0.087,3.007,-0.928368,-1.250095,2.322799,100688.48,-8,+15,-208
92334,10.518,-0.229,5.115,-0.341983,-1.130370,2.347276,100689.28,-9,+12,-210
92343,8.050,1.036,6.480,0.159264,-0.967012,2.256286,100689.44,-7,+6,-211
92353,6.161,0.733,4.657,0.478530,-0.766939,1.906690,100687.17,-7,+6,-211
92363,3.567,-2.875,2.745,0.722768,-0.421068,1.548580,100687.17,-6,+2,-210
92374,1.443,-6.464,-0.772,0.202365,-0.279527,0.974433,100686.45,-5,+0,-211
92384,2.379,-9.497,0.487,-0.047727,-0.077325,0.596635,100688.86,-4,-2,-209
92393,4.207,-4.012,2.216,-0.125415,-0.135325,0.327388,100687.53,-4,-2,-209
92403,3.008,1.371,1.696,-0.329213,-0.249196,-0.178649,100687.53,-3,-3,-209
92413,2.066,2.869,1.520,-0.295158,0.015794,-0.845914,100690.87,-3,-2,-209
92424,2.634,4.100,1.027,-0.121690,0.256840,-1.344501,100690.87,-1,-1,-208
92433,2.869,4.157,0.639,0.448732,0.454253,-1.537657,100686.62,-1,-1,-208
92443,2.573,3.499,0.759,1.280419,0.705409,-1.726024,100691.07,-1,-2,-206
92453,2.767,2.604,1.705,1.879043,0.973592,-1.947381,100689.34,-1,-3,-206
92464,3.543,0.924,2.472,2.097740,1.123115,-2.130959,100689.34,-1,-4,-202
92474,4.643,-0.744,2.301,2.055171,1.144931,-2.357638,100689.42,-1,-4,-202
92483,5.605,-1.658,1.618,1.874254,1.095445,-2.694996,100687.59,-1,-7,-200
92493,6.307,-1.994,1.111,1.593832,1.066179,-3.064280,100686.70,-1,-6,-199
92504,6.649,-2.037,0.802,1.261263,1.056069,-3.361197,100684.03,-1,-6,-195
92514,6.725,-1.781,0.788,0.939337,1.062454,-3.606500,100685.27,-1,-6,-195
92524,6.974,-1.163,0.665,0.699355,1.104491,-3.832646,100685.05,-3,-4,-193
92533,7.233,-0.761,0.614,0.696163,1.168344,-4.028462,100685.42,-4,-2,-192
92544,7.589,-0.576,1.101,0.771722,1.266784,-4.241306,100685.42,-5,+0,-189
92554,8.364,-0.668,1.475,0.765869,1.301372,-4.458939,100683.69,-5,+0,-189
92563,9.381,-1.214,1.653,0.727025,1.287005,-4.676572,100683.69,-8,+3,-187
92573,10.448,-1.828,2.125,0.719043,1.306161,-4.891012,100688.69,-9,+8,-184
92584,11.210,-2.551,2.462,0.658206,1.359904,-5.099954,100686.66,-9,+11,-181
92594,11.498,-2.359,2.507,0.591869,1.447170,-5.233159,100686.66,-9,+11,-181
92604,11.839,-1.977,2.720,0.637099,1.606803,-5.303930,100683.13,-13,+16,-180
92613,12.751,-2.177,2.823,0.865906,1.746747,-5.325214,100683.13,-13,+21,-178
92623,14.110,-2.868,2.602,1.136750,1.823903,-5.330003,100689.09,-14,+26,-176
92634,15.380,-4.286,2.468,1.304896,1.858490,-5.307654,100684.91,-14,+26,-176
92644,16.334,-5.858,2.675,1.321392,1.838802,-5.273067,100681.33,-18,+28,-174
92653,16.832,-6.872,3.036,1.175594,1.770160,-5.261361,100681.33,-22,+34,-174
92663,16.744,-6.953,3.006,0.862181,1.652564,-5.282113,100681.33,-27,+40,-174
92674,16.468,-6.389,2.703,0.521631,1.566894,-5.242737,100690.12,-27,+40,-174
92684,16.438,-6.172,2.987,0.368915,1.616913,-5.013930,100691.10,-33,+49,-171
92693,16.202,-6.766,3.543,0.447135,1.736105,-4.639857,100688.70,-37,+60,-173
92703,15.680,-8.715,3.361,0.635502,1.878711,-4.251948,100687.49,-40,+72,-171
92713,15.424,-11.913,3.013,0.793539,2.013334,-3.912995,100687.49,-43,+82,-168
92724,14.351,-14.430,1.717,0.463099,1.981408,-3.605435,100690.85,-43,+82,-168
92734,13.212,-15.237,0.098,-0.199378,1.845720,-3.129197,100691.27,-42,+94,-166
92743,13.169,-15.357,-1.085,-0.885800,1.558913,-2.425748,100691.96,-42,+104,-163
92753,12.939,-14.787,-2.315,-1.240185,1.057133,-1.542446,100691.96,-42,+111,-159
92764,12.981,-12.375,-3.256,-1.062460,0.465427,-0.487804,100698.33,-42,+111,-159
92774,12.573,-9.735,-3.861,-0.398387,-0.023582,0.612067,100692.92,-40,+114,-158
92783,11.423,-8.581,-3.985,0.662108,-0.354554,1.606048,100692.92,-44,+113,-159
92793,9.630,-9.040,-3.673,1.887024,-0.553031,2.389845,100693.70,-46,+108,-162
92804,8.210,-9.772,-1.999,2.939005,-0.591343,2.891625,100695.48,-46,+108,-162
92814,8.955,-1.893,6.506,3.416308,-0.671691,3.070946,100695.48,-48,+100,-168
92819,13.267,20.517,10.057,3.163023,-1.280425,2.558524,100690.28,-48,+100,-168
92828,16.383,24.161,-0.024,2.269611,-1.226682,1.468763,100689.66,-50,+94,-173
92838,41.591,-4.698,-7.926,1.351722,0.522895,1.376708,100693.91,-50,+93,-173
92849,29.616,-18.121,2.533,2.193520,0.051978,3.616358,100690.17,-54,+84,-176
92859,13.229,-11.184,3.336,0.446603,-0.362536,3.222065,100690.17,-54,+84,-176
92868,7.074,-7.913,3.725,-1.112478,-0.206095,2.426029,100694.85,-56,+80,-176
92878,2.349,-7.400,7.333,-0.851745,0.038675,2.582469,100692.40,-58,+76,-174
92889,4.554,-1.953,6.821,-0.310589,-0.197582,2.768707,100690.45,-59,+70,-174
92899,8.282,-0.354,2.193,-0.052516,-0.505673,2.361643,100689.30,-59,+70,-174
92908,10.857,-3.170,4.408,0.196512,-0.342848,2.130176,100689.30,-61,+66,-176
92918,12.760,-5.616,3.564,-0.232901,-0.525893,2.151460,100690.94,-63,+61,-176
92929,12.759,-4.517,-0.016,-0.711800,-0.735013,1.815167,100691.58,-63,+58,-177
92939,10.618,-1.797,-0.508,-0.698497,-0.559416,1.459717,100690.94,-63,+58,-177
92949,8.526,0.354,-0.644,-0.392002,-0.325820,1.407039,100692.31,-63,+56,-177
92958,7.595,0.759,-0.580,0.039539,-0.021453,1.416084,100692.31,-63,+52,-178
92968,8.760,-0.860,0.419,0.214071,0.254712,1.385222,100692.46,-64,+50,-178
92979,10.436,-3.140,2.080,-0.062626,0.330803,1.286250,100692.20,-65,+48,-176
92989,10.962,-3.798,3.506,-0.647414,0.212143,1.114910,100689.48,-65,+48,-176
92998,10.128,-2.634,3.991,-1.113010,0.121684,0.921222,100694.45,-66,+46,-175
93008,9.377,-1.687,4.289,-1.302974,0.065281,0.756268,100694.45,-66,+45,-175
93019,9.027,-0.907,3.703,-1.260405,0.003556,0.649314,100694.28,-66,+46,-174
93029,9.083,0.056,2.692,-1.042772,0.005152,0.609938,100693.08,-66,+46,-174
93039,9.416,0.615,2.332,-0.740001,0.042400,0.631755,100691.66,-67,+45,-174
93048,9.592,0.362,2.648,-0.466497,0.090822,0.674323,100690.77,-66,+44,-174
93054,9.628,-0.464,3.135,-0.370185,0.120088,0.690819,100690.77,-66,+44,-174
93064,9.652,-1.075,3.274,-0.413286,0.120088,0.680177,100690.77,-68,+42,-173
93074,9.518,-1.427,3.634,-0.583029,0.098271,0.645589,100694.84,-69,+42,-171
93084,9.217,-1.259,3.770,-0.770864,0.056767,0.622177,100692.05,-69,+42,-171
93093,8.962,-0.898,3.804,-0.862387,0.020051,0.622709,100692.85,-68,+42,-172
93104,8.835,-0.927,3.635,-0.837378,-0.010279,0.649314,100689.72,-69,+40,-171
93114,8.914,-0.994,3.215,-0.753836,-0.048059,0.682837,100692.55,-69,+40,-171
93124,9.064,-0.697,3.084,-0.677213,-0.078389,0.730727,100693.08,-69,+40,-171
93133,9.157,-0.737,3.361,-0.622937,-0.086371,0.774892,100693.08,-70,+38,-171
93144,9.286,-0.978,3.489,-0.568662,-0.092224,0.799369,100691.34,-69,+38,-171
93154,9.387,-1.172,3.459,-0.535671,-0.097013,0.799369,100692.02,-70,+36,-172
93164,9.179,-1.453,3.430,-0.526626,-0.105527,0.791388,100692.02,-70,+36,-172
93173,8.917,-1.674,3.250,-0.532479,-0.118829,0.801498,100691.24,-70,+34,-172
93184,8.884,-1.690,3.064,-0.539396,-0.140114,0.824910,100691.40,-70,+34,-171
93194,9.026,-1.629,2.965,-0.550038,-0.157673,0.855241,100690.82,-70,+32,-171
93204,9.337,-1.487,2.947,-0.557488,-0.172040,0.895681,100690.82,-69,+30,-172
93214,9.550,-1.150,3.020,-0.555892,-0.197050,0.946764,100691.89,-69,+30,-172
93223,9.524,-0.682,3.369,-0.529818,-0.229508,1.009553,100692.00,-70,+29,-171
93234,9.324,-0.489,3.859,-0.468626,-0.251857,1.087773,100690.42,-70,+27,-172
93244,9.219,-0.476,4.150,-0.397855,-0.278994,1.181956,100688.64,-70,+26,-173
93254,9.315,-1.011,4.078,-0.334002,-0.304536,1.289974,100688.64,-70,+26,-173
93263,9.655,-1.684,3.797,-0.321763,-0.333270,1.393736,100688.64,-70,+23,-173
93274,10.060,-2.196,3.307,-0.376571,-0.392334,1.482598,100693.18,-69,+19,-173
93284,10.621,-2.353,2.880,-0.464369,-0.476939,1.553901,100693.40,-69,+17,-176
93289,11.004,-2.336,2.563,-0.522369,-0.558884,1.603919,100691.82,-69,+17,-176
93298,11.345,-2.128,2.337,-0.562809,-0.621141,1.656598,100692.62,-68,+14,-176
93308,11.697,-1.931,2.086,-0.580901,-0.704682,1.739075,100692.62,-68,+14,-176
93319,11.946,-1.910,2.363,-0.558020,-0.777581,1.821552,100691.95,-68,+10,-178
93329,12.352,-1.998,2.836,-0.542057,-0.851012,1.937020,100692.31,-66,+8,-180
93339,12.950,-2.222,3.364,-0.564405,-0.906352,2.041845,100691.17,-66,+4,-181
93348,13.583,-2.607,3.562,-0.640497,-0.932425,2.126983,100691.84,-66,+4,-181
93359,14.016,-2.662,3.285,-0.796937,-0.966480,2.193497,100691.84,-65,+0,-183
93369,14.259,-2.414,2.959,-1.007121,-1.037251,2.251497,100694.24,-63,-4,-185
93379,14.836,-1.528,2.849,-1.224753,-1.109618,2.324928,100690.93,-61,-7,-188
93388,15.662,-0.625,2.786,-1.424827,-1.177196,2.431882,100693.24,-61,-7,-188
93399,16.777,0.204,2.418,-1.623836,-1.252223,2.550542,100686.79,-59,-11,-190
93409,18.167,1.828,2.210,-1.850515,-1.332572,2.658028,100686.79,-57,-14,-195
93419,19.719,3.112,1.937,-2.062294,-1.429948,2.750616,100693.52,-55,-17,-197
93429,22.013,4.242,2.205,-2.207028,-1.581599,2.791056,100691.98,-51,-17,-202
93438,24.199,6.050,3.076,-2.376771,-1.764113,2.725606,100688.95,-51,-20,-202
93449,22.948,6.244,3.401,-2.259707,-1.911507,2.677184,100689.05,-48,-21,-208
93459,19.516,3.262,4.946,-1.426955,-1.956737,2.803827,100689.05,-45,-26,-212
93469,16.292,0.065,7.064,-0.311653,-1.922681,3.112982,100690.78,-40,-32,-215
93478,13.310,-1.375,7.096,0.416805,-1.785929,3.202909,100690.63,-40,-32,-215
93489,11.185,-2.647,6.549,0.865374,-1.457618,2.983680,100688.53,-37,-38,-219
93499,10.394,-4.200,5.492,1.092584,-1.212315,2.753808,100690.00,-34,-45,-221
93509,10.184,-5.498,4.433,1.301172,-1.137287,2.705386,100690.00,-30,-54,-222
93519,9.037,-4.599,6.076,1.388438,-1.046829,2.606946,100690.53,-30,-54,-222
93524,7.827,-3.033,5.110,1.195282,-1.067581,2.328653,100689.48,-26,-59,-225
93534,5.851,-3.223,3.682,0.811098,-1.039379,1.850286,100689.48,-26,-59,-225
93544,1.988,-5.548,2.726,0.333796,-0.764811,1.235699,100689.17,-24,-64,-225
93554,-0.444,-7.023,3.756,-0.187672,-0.450334,0.672727,100690.22,-22,-64,-227
93564,1.062,-3.620,4.429,-0.546314,-0.302939,0.235333,100690.22,-22,-63,-229
93574,2.573,1.504,3.102,-0.816093,-0.320499,-0.222282,100688.66,-22,-63,-229
93584,2.409,3.028,1.842,-0.802790,-0.208224,-0.786850,100686.13,-22,-62,-231
93594,2.736,2.903,1.369,-0.823011,0.021648,-1.271602,100689.48,-21,-58,-232
93603,3.216,3.074,0.197,-0.688387,0.109978,-1.589271,100689.48,-22,-54,-234
93614,3.701,2.789,0.013,-0.237690,0.272803,-1.872354,100689.48,-22,-54,-234
93624,4.108,1.480,0.856,0.199172,0.482455,-2.107014,100691.39,-24,-52,-232
93634,4.317,0.374,1.252,0.462034,0.601115,-2.322519,100688.72,-26,-48,-232
93644,4.909,-0.245,1.108,0.571117,0.670821,-2.558776,100688.23,-28,-45,-232
93654,5.644,-0.310,0.610,0.675943,0.701152,-2.820041,100688.81,-31,-42,-230
93664,6.422,-0.242,0.181,0.799392,0.728289,-3.060023,100688.81,-31,-42,-230
93674,7.148,-0.065,-0.144,0.941465,0.744253,-3.238812,100686.60,-33,-38,-227
93684,7.609,-0.108,-0.003,1.105355,0.758620,-3.374500,100685.57,-36,-34,-228
93694,7.619,0.007,0.342,1.268181,0.789482,-3.519234,100684.82,-39,-31,-225
93704,7.496,0.219,0.604,1.462933,0.828858,-3.690041,100684.82,-39,-31,-225
93714,7.447,0.189,0.989,1.724731,0.893775,-3.868298,100688.76,-40,-26,-223
93724,7.779,-0.008,1.348,1.966841,0.962418,-4.044958,100688.76,-43,-24,-221
93733,8.538,-0.378,1.657,2.139244,1.007115,-4.222150,100687.54,-46,-20,-218
93744,9.434,-1.385,1.907,2.206822,1.043830,-4.423820,100684.45,-46,-20,-218
93754,10.336,-2.689,2.150,2.100932,1.069372,-4.645178,100686.60,-47,-16,-216
93764,11.082,-3.646,2.362,1.776878,1.077353,-4.886755,100686.60,-48,-12,-214
93774,11.402,-3.915,2.379,1.287869,1.087996,-5.132590,100688.70,-51,-4,-211
93785,11.715,-3.242,2.218,0.831851,1.145463,-5.356076,100688.91,-51,-4,-211
93794,12.407,-2.395,2.118,0.554089,1.241775,-5.514645,100685.70,-52,+2,-210
93804,13.827,-2.273,2.181,0.413612,1.351922,-5.591269,100685.74,-53,+8,-210
93814,15.369,-2.791,2.107,0.340181,1.407794,-5.621067,100687.95,-57,+18,-207
93825,16.556,-3.762,2.051,0.347099,1.437592,-5.634902,100692.15,-57,+18,-207
93834,17.299,-5.079,2.079,0.440218,1.445041,-5.614150,100685.38,-59,+25,-206
93844,17.683,-6.047,1.857,0.470548,1.407261,-5.558810,100685.38,-62,+34,-206
93854,17.618,-6.862,1.681,0.448200,1.431206,-5.430572,100688.10,-65,+43,-205
93863,17.450,-7.796,2.243,0.561539,1.532839,-5.180480,100688.10,-65,+43,-205
93874,16.765,-8.932,2.691,0.725429,1.565830,-4.814921,100693.32,-67,+52,-204
93884,15.711,-10.613,2.407,0.876016,1.555188,-4.340811,100691.96,-72,+60,-204
93894,14.744,-13.510,1.792,0.930823,1.605738,-3.779968,100689.98,-76,+68,-203
93904,14.658,-16.747,1.857,0.749906,1.538692,-3.286702,100689.34,-76,+68,-203
93914,13.243,-17.586,0.817,0.188530,1.233261,-2.855693,100689.34,-80,+75,-204
93924,12.371,-17.342,0.031,-0.324956,0.996473,-2.217161,100692.88,-83,+81,-202
93934,12.016,-17.564,-0.135,-0.621873,0.753831,-1.326409,100694.38,-86,+86,-200
93944,11.435,-16.683,-0.790,-0.702222,0.347831,-0.354245,100688.08,-86,+86,-200
93954,11.061,-14.558,-1.359,-0.424460,-0.049123,0.596635,100688.08,-90,+88,-200
93964,10.314,-12.581,-1.925,0.117759,-0.332205,1.454928,100688.08,-94,+84,-202
93974,9.520,-10.886,-0.846,0.674878,-0.491838,2.171148,100696.11,-98,+78,-202
93984,9.950,-8.550,1.029,1.241575,-0.567398,2.652175,100693.22,-98,+78,-202
93995,14.296,16.746,7.410,1.161227,-1.285746,2.420175,100691.02,-102,+68,-207
94004,13.818,25.731,2.149,0.613686,-1.195287,1.290506,100689.13,-105,+62,-213
94014,32.074,0.281,-3.571,0.199172,0.744785,1.242085,100689.13,-110,+61,-211
94024,31.780,-11.651,2.969,1.620969,0.146161,3.460450,100693.28,-110,+61,-211
94034,14.119,-10.448,6.462,1.565630,-0.186939,3.604652,100690.30,-115,+46,-213
94045,7.998,-9.504,6.291,0.291759,0.158932,2.744230,100691.47,-119,+38,-213
94054,5.368,-8.156,7.647,0.201833,0.232895,2.759661,100691.47,-120,+32,-211
94064,4.268,-2.025,5.912,0.427447,-0.364132,2.903331,100692.53,-120,+32,-211
94074,4.398,-2.014,3.402,0.385943,-0.410958,2.379735,100692.53,-122,+22,-213
94084,8.942,-4.242,3.537,0.120420,-0.310389,2.051955,100689.86,-124,+17,-214
94094,13.365,-5.050,1.669,-0.246736,-0.638169,2.111552,100691.95,-124,+12,-215
94104,14.966,-3.771,-0.065,-0.513855,-0.813233,1.931167,100690.39,-124,+12,-215
94114,12.691,-1.431,0.239,-0.498424,-0.667967,1.617222,100690.39,-123,+5,-218
94125,9.197,1.030,0.297,-0.089763,-0.459912,1.473552,100692.66,-122,+2,-219
94134,6.680,1.087,-0.095,0.542383,-0.240150,1.462910,100693.35,-123,-1,-219
94144,6.691,-1.057,0.402,1.044163,-0.000701,1.446415,100693.24,-124,-8,-220
94154,9.009,-2.687,1.397,1.059594,0.149886,1.391607,100693.55,-124,-8,-220
94164,10.948,-3.186,2.248,0.575906,0.146161,1.329350,100692.84,-124,-13,-219
94175,11.144,-3.641,2.802,-0.080185,0.063684,1.211754,100692.64,-124,-16,-218
94184,10.361,-3.371,2.124,-0.654864,-0.029435,1.001039,100694.11,-124,-19,-219
94194,9.461,-2.465,1.684,-0.999671,-0.038481,0.807351,100694.11,-124,-19,-219
94204,9.093,-1.290,1.491,-1.171543,-0.029967,0.699333,100693.06,-124,-19,-220
94214,9.102,0.276,1.484,-1.145469,0.023776,0.676452,100693.06,-124,-18,-219
94224,9.228,1.229,1.678,-0.923047,0.108381,0.720617,100693.66,-124,-20,-221
94230,9.228,1.550,2.027,-0.662846,0.167978,0.777021,100689.88,-124,-20,-221
94239,9.310,1.364,2.581,-0.402644,0.207886,0.832892,100690.03,-125,-22,-219
94249,9.295,0.039,3.392,-0.177029,0.231831,0.890360,100690.50,-125,-22,-219
94259,9.324,-1.454,3.748,-0.199910,0.190858,0.902066,100690.50,-125,-23,-218
94269,9.131,-2.020,3.604,-0.408497,0.092418,0.883443,100692.29,-125,-26,-219
94279,8.935,-1.607,2.945,-0.626662,0.020583,0.859498,100689.46,-125,-27,-219
94289,9.020,-0.753,2.671,-0.699029,0.001427,0.870672,100691.35,-125,-27,-219
94299,9.199,-0.185,2.544,-0.608570,0.001959,0.920690,100690.35,-126,-28,-218
94309,9.415,-0.015,2.531,-0.445745,0.022712,0.978690,100690.35,-124,-30,-221
94319,9.495,-0.412,2.800,-0.299947,0.046125,1.030837,100693.35,-125,-32,-219
94329,9.494,-1.089,3.459,-0.233965,0.007813,1.072342,100692.10,-125,-32,-219
94340,9.319,-1.651,3.404,-0.259506,-0.066151,1.088837,100691.68,-125,-36,-219
94349,9.309,-2.059,3.141,-0.304204,-0.078921,1.093626,100688.43,-124,-38,-221
94359,9.369,-2.330,2.698,-0.345176,-0.100738,1.097351,100688.43,-125,-41,-221
94369,9.506,-2.050,2.492,-0.399983,-0.133729,1.121828,100692.94,-124,-41,-221
94380,9.631,-1.856,2.471,-0.485121,-0.144371,1.137259,100691.31,-124,-43,-219
94389,9.875,-1.505,2.464,-0.445745,-0.129472,1.179828,100692.52,-124,-46,-223
94399,10.087,-1.546,2.738,-0.389341,-0.136921,1.253791,100689.16,-123,-49,-223
94409,10.080,-2.330,3.082,-0.387745,-0.145435,1.310727,100689.16,-123,-52,-223
94419,10.039,-2.771,3.373,-0.458515,-0.166187,1.336268,100695.49,-123,-52,-223
94430,9.914,-2.638,3.985,-0.611231,-0.195453,1.359681,100690.51,-121,-55,-225
94439,9.728,-2.616,4.852,-0.799066,-0.213545,1.406506,100692.04,-121,-58,-225
94449,10.814,-2.642,3.700,-0.916130,-0.271545,1.469828,100689.84,-120,-60,-225
94459,12.466,-1.989,3.176,-0.933689,-0.369453,1.560818,100689.84,-120,-60,-225
94470,13.269,-1.624,3.036,-0.980515,-0.433838,1.686396,100693.70,-118,-63,-228
94479,13.209,-1.363,2.467,-1.002864,-0.493435,1.829534,100690.65,-117,-66,-229
94489,13.258,-1.387,2.261,-0.979451,-0.548242,1.982249,100690.71,-115,-69,-232
94499,13.904,-1.621,2.216,-0.942735,-0.609435,2.141882,100692.18,-115,-69,-232
94510,14.665,-1.837,2.504,-0.934222,-0.679673,2.287148,100692.18,-111,-73,-236
94519,15.098,-1.875,2.976,-1.010313,-0.756829,2.401551,100693.45,-108,-76,-237
94529,15.280,-1.618,3.504,-1.131102,-0.843031,2.502652,100693.13,-105,-80,-240
94539,15.555,-1.180,3.720,-1.259873,-0.919122,2.597900,100691.34,-105,-80,-240
94550,16.118,-1.072,3.576,-1.390240,-0.972866,2.680377,100691.82,-101,-83,-244
94559,17.327,-0.503,3.183,-1.613726,-1.034590,2.732524,100691.82,-97,-84,-248
94569,19.366,1.392,3.213,-1.993120,-1.155379,2.739973,100692.59,-93,-86,-252
94579,22.297,4.351,3.782,-2.416147,-1.368223,2.731992,100692.52,-93,-86,-252
94589,24.223,7.219,3.758,-2.751909,-1.623636,2.750083,100688.65,-88,-86,-259
94600,22.866,7.375,3.501,-2.726367,-1.767838,2.808615,100689.34,-83,-84,-264
94609,19.481,3.694,2.900,-2.158606,-1.798700,2.903331,100689.34,-78,-84,-270
94619,16.249,-1.909,4.689,-1.194423,-1.706113,3.097019,100692.48,-78,-84,-270
94629,14.663,-2.672,5.946,-0.609103,-1.627361,3.142781,100691.95,-72,-87,-275
94640,13.779,-0.337,5.803,-0.318571,-1.485287,2.881515,100692.64,-67,-91,-276
94649,12.789,0.056,5.545,0.002824,-1.254884,2.585129,100687.55,-63,-94,-277
94659,11.945,-1.035,5.070,0.419998,-1.129838,2.495203,100687.55,-63,-94,-277
94669,10.318,-1.716,6.401,0.951043,-0.938278,2.519680,100690.47,-59,-100,-278
94680,8.608,-1.148,5.627,1.031392,-0.763746,2.280231,100688.73,-57,-107,-277
94690,6.237,-2.735,4.475,0.878676,-0.522169,1.825809,100686.28,-55,-111,-277
94699,2.939,-6.005,1.676,0.498218,-0.290169,1.263901,100688.73,-55,-111,-277
94709,2.151,-8.398,2.716,-0.003562,0.002492,0.691883,100688.73,-56,-113,-275
94720,4.141,-2.970,3.932,-0.431378,0.025372,0.222030,100689.80,-58,-111,-275
94730,4.237,2.467,2.790,-0.725635,-0.031031,-0.307419,100687.59,-61,-106,-276
94739,3.399,3.882,1.643,-0.802258,0.182345,-1.017254,100689.06,-61,-106,-276
94749,3.734,4.153,0.738,-0.793212,0.487244,-1.546171,100689.42,-64,-101,-276
94759,3.430,4.039,-0.163,-0.443616,0.695298,-1.808501,100689.42,-70,-93,-275
94770,2.995,3.210,0.264,0.094879,0.992748,-1.989950,100685.55,-76,-87,-272
94779,2.864,1.877,0.797,0.443411,1.214638,-2.201198,100685.93,-76,-87,-272
94789,3.150,0.595,1.258,0.609961,1.340748,-2.468317,100685.71,-82,-82,-268
94799,4.083,-0.066,1.107,0.690310,1.390766,-2.789179,100687.49,-89,-75,-263
94810,5.200,0.082,0.505,0.713722,1.405133,-3.130794,100687.49,-94,-67,-260
94820,6.263,0.539,0.018,0.700420,1.434399,-3.430903,100682.94,-94,-67,-260
94829,7.063,0.642,-0.190,0.748842,1.464729,-3.650665,100682.42,-98,-59,-256
94839,7.266,0.500,-0.086,0.860053,1.503573,-3.854463,100685.52,-104,-51,-252
94850,7.164,0.445,0.081,0.955300,1.530711,-4.067839,100684.09,-108,-43,-250
94860,7.060,0.456,0.054,1.042566,1.550931,-4.262591,100684.09,-108,-43,-250
94869,7.274,0.432,-0.013,1.217098,1.584454,-4.441912,100687.06,-112,-36,-247
94879,7.921,0.293,0.300,1.385245,1.639793,-4.635067,100684.23,-118,-28,-244
94889,8.867,-0.206,0.633,1.474639,1.664803,-4.829288,100686.02,-123,-20,-241
94900,9.652,-0.952,0.893,1.517208,1.653628,-5.025104,100685.86,-129,-14,-240
94909,10.474,-1.706,1.051,1.472511,1.623298,-5.232627,100685.86,-129,-14,-240
94919,11.416,-2.415,1.390,1.317135,1.591371,-5.438021,100690.64,-137,-4,-237
94929,12.416,-2.757,1.282,1.102695,1.555720,-5.627985,100688.23,-143,+7,-235
94935,13.202,-2.487,1.102,0.941997,1.540821,-5.757287,100686.97,-143,+7,-235
94945,14.233,-2.377,1.238,0.881337,1.594032,-5.838168,100686.97,-152,+20,-233
94955,16.079,-3.022,1.630,0.956364,1.669059,-5.899360,100688.97,-160,+36,-230
94964,17.842,-4.790,1.998,1.113869,1.690876,-5.935012,100688.97,-160,+36,-230
94974,18.995,-7.495,2.188,1.185704,1.628619,-5.949911,100687.77,-168,+54,-227
94985,19.389,-10.109,1.971,0.979245,1.493995,-5.907874,100688.31,-174,+73,-225
94995,18.624,-11.746,2.284,0.542915,1.407261,-5.747709,100688.59,-176,+96,-221
95004,17.183,-11.530,2.927,0.095411,1.426949,-5.434297,100688.59,-176,+96,-221
95014,16.357,-10.442,3.170,-0.098809,1.592968,-4.911232,100688.59,-176,+118,-218
95025,16.381,-11.928,3.568,0.177356,1.894142,-4.320591,100690.97,-176,+137,-212
95035,17.148,-16.638,2.569,0.559943,1.944160,-3.934811,100691.02,-174,+157,-205
95044,14.841,-21.157,-0.459,0.049649,1.682362,-3.557546,100691.02,-174,+157,-205
95054,13.974,-23.276,-1.791,-0.918790,1.405133,-2.710427,100692.39,-172,+171,-199
95065,13.287,-22.130,-2.349,-1.874992,0.812363,-1.475400,100692.39,-171,+185,-191
95075,13.111,-16.248,-3.693,-2.061762,0.024308,-0.171731,100695.77,-172,+191,-185
95085,12.842,-11.244,-4.044,-1.197616,-0.541857,1.127149,100691.79,-177,+191,-185
95094,10.899,-9.007,-2.385,0.272603,-0.818554,2.239790,100691.48,-177,+188,-186
95105,8.516,-8.398,2.595,1.899263,-0.747251,3.050193,100691.97,-186,+177,-191
95115,11.365,11.304,13.259,2.787354,-0.848352,3.193863,100688.39,-194,+164,-196
95125,16.485,30.353,2.999,1.980676,-1.489012,1.821020,100691.28,-199,+158,-204
95134,38.818,0.202,-4.814,1.512419,0.345702,1.561882,100691.28,-199,+158,-204
95144,31.095,-17.594,3.583,2.444675,-0.170976,3.892523,100696.16,-206,+146,-204
95155,12.981,-14.030,4.144,1.320327,-0.432774,3.697771,100691.23,-211,+129,-207
95165,7.172,-6.616,2.795,-0.380827,-0.556756,2.660689,100691.23,-214,+119,-209
95174,-0.275,-6.974,5.211,-0.164259,-0.254517,2.802230,100692.77,-214,+119,-209
95184,2.792,-3.816,6.747,0.352420,-0.244939,3.096487,100688.63,-218,+107,-208
95195,8.194,-2.018,2.469,0.421062,-0.639233,2.791056,100691.66,-221,+95,-210
95205,11.599,-4.834,3.054,0.316236,-0.497692,2.396230,100690.20,-225,+84,-213
95215,14.035,-6.901,2.765,-0.179690,-0.672224,2.277570,100692.70,-225,+84,-213
95224,13.619,-4.405,0.171,-0.592607,-0.871233,1.990763,100692.85,-226,+76,-215
95235,10.959,-1.035,-0.216,-0.554827,-0.710535,1.664580,100692.48,-226,+70,-215
95245,8.100,0.711,0.261,-0.114773,-0.465765,1.587424,100688.87,-226,+62,-218
95254,6.634,0.027,-0.162,0.383814,-0.245472,1.584231,100688.87,-226,+62,-218
95264,7.928,-2.469,0.303,0.576438,-0.005490,1.516653,100688.87,-228,+56,-218
95275,10.797,-4.261,1.415,0.193319,0.082840,1.372984,100693.80,-229,+50,-216
95285,11.980,-4.765,2.031,-0.536736,0.035482,1.178231,100693.34,-230,+45,-217
95295,11.045,-3.563,2.531,-1.111414,0.001959,0.979754,100690.51,-230,+45,-217
95305,9.708,-2.042,2.857,-1.321597,-0.024114,0.827039,100691.13,-230,+44,-215
95314,8.866,-1.067,2.668,-1.234331,-0.021453,0.717424,100691.13,-229,+42,-215
95325,8.823,-0.391,2.320,-0.997543,0.008877,0.657296,100694.00,-230,+40,-216
95335,9.263,-0.095,2.229,-0.740534,0.057831,0.658360,100691.45,-230,+40,-216
95345,9.707,-0.062,2.727,-0.558552,0.109446,0.679112,100690.44,-231,+39,-214
95354,9.852,-0.810,3.276,-0.485121,0.131262,0.694011,100690.44,-231,+37,-213
95365,9.793,-1.510,3.410,-0.537268,0.111042,0.683901,100690.44,-231,+34,-213
95375,9.606,-1.685,3.346,-0.686791,0.071666,0.644525,100694.63,-231,+34,-213
95385,9.029,-1.453,3.203,-0.833653,0.022180,0.631755,100691.11,-232,+33,-212
95394,8.622,-1.086,3.130,-0.874093,-0.026242,0.668470,100690.73,-232,+32,-212
95405,8.532,-0.422,3.176,-0.796405,-0.086371,0.730195,100692.09,-232,+29,-213
95415,8.677,0.268,3.092,-0.625066,-0.135325,0.804158,100692.09,-232,+29,-213
95425,9.127,0.101,3.231,-0.409561,-0.147563,0.893021,100692.95,-232,+27,-213
95435,9.488,-0.425,3.456,-0.256846,-0.165655,0.979754,100692.95,-232,+24,-212
95444,9.351,-0.671,3.810,-0.228112,-0.175233,1.038819,100691.48,-232,+19,-214
95455,8.829,-0.712,4.078,-0.268020,-0.185343,1.077663,100691.02,-232,+19,-214
95465,8.261,-0.913,4.075,-0.311121,-0.198114,1.110653,100690.76,-232,+15,-213
95475,8.226,-0.911,3.828,-0.211617,-0.226848,1.192066,100691.29,-231,+11,-213
95484,8.292,-1.535,3.155,-0.167984,-0.271545,1.296892,100691.29,-231,+5,-215
95495,8.597,-2.161,2.521,-0.158406,-0.301343,1.359681,100692.02,-231,+5,-215
95505,9.320,-2.639,2.051,-0.174901,-0.335930,1.415552,100690.65,-232,+0,-215
95514,10.254,-2.513,1.799,-0.258974,-0.373178,1.463974,100690.65,-231,-6,-216
95524,10.780,-2.328,1.974,-0.344644,-0.412022,1.504415,100691.68,-231,-12,-218
95535,11.313,-2.154,2.113,-0.411158,-0.465233,1.545919,100692.37,-231,-12,-218
95545,11.799,-1.806,2.495,-0.448937,-0.536003,1.604451,100691.21,-230,-18,-219
95555,12.101,-1.655,2.713,-0.455323,-0.633912,1.693846,100691.46,-228,-24,-221
95564,12.502,-1.522,3.038,-0.433506,-0.679141,1.808249,100691.46,-226,-31,-225
95575,12.962,-1.640,3.263,-0.447341,-0.712664,1.942341,100693.93,-225,-31,-226
95585,13.358,-1.860,3.372,-0.489910,-0.777581,2.074836,100690.24,-225,-37,-226
95595,13.602,-2.040,3.561,-0.567598,-0.856334,2.219038,100687.93,-221,-44,-230
95604,13.738,-1.941,3.783,-0.677213,-0.924976,2.353130,100687.93,-217,-54,-234
95614,14.359,-2.105,3.902,-0.763946,-0.979251,2.479240,100687.93,-212,-54,-237
95625,15.375,-1.767,3.841,-0.884203,-1.040976,2.593643,100690.33,-212,-61,-237
95635,16.154,-1.500,3.720,-1.071506,-1.093655,2.693680,100691.91,-206,-68,-240
95645,16.889,-0.774,3.301,-1.345542,-1.153783,2.783606,100689.70,-200,-76,-247
95654,17.695,0.259,2.868,-1.673322,-1.216040,2.862891,100688.66,-193,-81,-252
95665,18.617,0.895,2.232,-1.979285,-1.282553,2.933661,100688.66,-193,-81,-252
95675,20.561,2.027,2.292,-2.287909,-1.397489,2.918762,100692.25,-186,-86,-259
95685,23.848,4.408,3.268,-2.599193,-1.578406,2.797441,100692.16,-177,-89,-269
95695,25.075,5.794,4.301,-2.749780,-1.751874,2.745295,100689.73,-169,-89,-276
95705,22.183,2.859,4.725,-2.314514,-1.818920,2.889496,100689.73,-169,-89,-276
95715,19.069,-0.697,6.888,-1.379597,-1.767838,3.135863,100690.43,-158,-92,-284
95725,16.967,-0.100,8.121,-0.721910,-1.715691,3.202377,100690.43,-148,-96,-289
95735,15.065,1.361,7.557,-0.311653,-1.578939,2.970909,100688.70,-139,-102,-292
95745,12.993,1.059,6.993,0.178420,-1.393232,2.706450,100690.07,-139,-102,-292
95755,11.435,-0.621,6.355,0.889319,-1.203269,2.658028,100690.23,-132,-108,-294
95765,9.801,-1.251,6.931,1.478364,-1.013838,2.651111,100690.23,-124,-117,-295
95775,7.917,-0.564,5.674,1.690144,-0.904756,2.330249,100689.08,-119,-125,-292
95784,4.912,-2.110,3.865,1.492199,-0.700957,1.723644,100688.39,-119,-125,-292
95795,1.684,-6.270,1.281,0.878144,-0.431178,1.054250,100688.56,-114,-129,-291
95805,2.154,-6.291,3.288,0.274200,-0.203967,0.467865,100688.03,-112,-129,-292
95815,3.673,-0.310,2.748,-0.254185,-0.285380,-0.028061,100690.92,-111,-124,-293
95825,2.822,2.548,0.699,-0.650607,-0.313582,-0.687345,100689.08,-111,-124,-293
95835,2.732,2.879,-0.038,-0.910809,-0.026242,-1.425382,100689.08,-111,-117,-295
95845,3.023,2.930,-0.752,-1.009781,0.182877,-1.863840,100689.39,-113,-106,-297
95855,2.366,2.733,-0.688,-0.738937,0.382950,-2.125106,100688.83,-117,-95,-297
95864,1.977,2.235,0.127,-0.412754,0.654858,-2.392225,100688.83,-117,-95,-297
95875,2.005,1.674,0.762,-0.071672,0.840564,-2.639656,100691.63,-122,-85,-297
95885,2.718,1.379,1.063,0.305062,0.950711,-2.868996,100686.80,-127,-77,-296
95895,4.041,1.215,0.887,0.665300,1.017757,-3.119619,100684.07,-132,-67,-293
95905,5.458,0.931,0.586,0.989355,1.079482,-3.369711,100684.96,-132,-67,-293
95915,6.417,0.411,0.516,1.246896,1.138546,-3.581491,100684.96,-137,-59,-291
95925,6.917,-0.039,0.367,1.403869,1.161427,-3.763472,100683.22,-143,-50,-290
95935,7.132,-0.023,-0.026,1.560309,1.165684,-3.963545,100682.91,-148,-41,-287
95945,7.526,0.293,-0.309,1.755061,1.212509,-4.168407,100683.33,-148,-41,-287
95954,7.974,0.598,-0.183,1.987593,1.300307,-4.323251,100683.33,-153,-32,-286
95965,8.666,0.228,0.454,2.144566,1.353518,-4.451490,100683.33,-159,-25,-284
95975,9.358,-1.050,0.912,2.235556,1.297115,-4.597288,100688.59,-167,-14,-282
95985,9.928,-3.028,1.335,2.159465,1.206124,-4.812260,100682.66,-167,-14,-282
95995,10.578,-5.130,1.648,1.708236,1.106265,-5.122303,100685.89,-173,-3,-281
96005,10.736,-5.383,1.806,1.113869,1.061922,-5.392260,100685.89,-177,+11,-281
96015,10.962,-3.896,1.908,0.484383,1.100766,-5.631709,100685.89,-181,+34,-280
96025,11.806,-2.125,2.059,0.206622,1.227408,-5.781232,100689.32,-181,+34,-280
96035,13.375,-1.414,2.261,0.227906,1.380656,-5.873819,100687.05,-184,+55,-278
96046,15.260,-2.347,2.377,0.401374,1.508894,-5.914792,100687.62,-184,+79,-277
96055,17.123,-5.035,2.628,0.683924,1.612124,-5.877012,100687.62,-182,+102,-275
96065,18.304,-8.493,2.365,0.895704,1.614252,-5.788149,100687.39,-179,+102,-274
96075,18.438,-10.615,1.732,0.786621,1.549867,-5.693434,100687.39,-179,+123,-274
96084,17.829,-10.731,1.690,0.516842,1.526454,-5.517305,100688.13,-174,+143,-272
96095,16.943,-9.298,2.379,0.261429,1.533903,-5.174095,100689.59,-166,+163,-270
96105,16.139,-8.354,2.584,0.102860,1.603078,-4.731380,100688.55,-161,+181,-268
96115,16.919,-10.373,3.870,0.294420,1.756325,-4.355178,100688.55,-161,+181,-268
96125,16.625,-13.485,2.941,0.313044,1.720142,-4.110940,100690.83,-156,+197,-264
96135,14.701,-16.866,1.521,-0.163195,1.662674,-3.805509,100691.41,-149,+210,-259
96145,13.430,-19.926,0.800,-1.105561,1.602014,-3.161656,100693.09,-147,+224,-253
96155,11.796,-20.558,0.165,-2.227248,1.246032,-2.232592,100690.77,-147,+224,-253
96165,12.081,-16.346,-1.052,-2.828000,0.644748,-1.166244,100691.45,-146,+237,-244
96176,12.705,-10.924,-1.553,-2.533211,0.034950,-0.039768,100693.97,-146,+244,-237
96185,12.015,-7.602,-1.805,-1.622239,-0.443949,1.025516,100690.23,-153,+245,-236
96195,10.026,-6.655,-1.924,-0.243543,-0.664774,1.925846,100690.23,-153,+245,-236
96205,8.701,-7.488,-1.658,1.470914,-0.609967,2.567570,100690.50,-161,+236,-240
96215,10.597,-0.793,4.989,2.708070,-0.620609,2.957606,100690.50,-171,+222,-250
96225,18.355,27.072,4.804,2.604308,-1.628957,2.356854,100691.70,-176,+209,-263
96231,23.773,19.765,-2.168,1.960456,-1.072902,1.574121,100690.72,-176,+209,-263
96240,38.358,-1.419,-3.095,1.690676,0.394124,2.026414,100695.53,-184,+200,-264
96250,25.918,-14.719,4.529,2.621336,0.191923,3.856872,100690.81,-184,+200,-264
96260,12.650,-11.177,4.892,2.223850,-0.166719,3.689257,100690.81,-194,+179,-268
96270,5.134,-6.217,3.583,0.472145,-0.629655,2.962927,100689.98,-200,+164,-273
96280,-2.402,-5.768,7.396,0.219392,-0.382224,2.834689,100687.93,-206,+153,-273
96290,0.557,-4.585,8.850,0.357209,-0.273673,2.813937,100688.51,-206,+153,-273
96300,8.560,-2.876,2.604,0.197044,-0.670095,2.495735,100691.55,-210,+142,-273
96310,14.530,-3.641,1.606,0.310915,-0.781306,2.297258,100691.55,-215,+130,-279
96320,16.361,-5.215,2.509,0.016126,-0.880278,2.295130,100692.66,-217,+122,-281
96330,14.290,-3.567,0.876,-0.477139,-0.953178,2.068451,100690.88,-217,+122,-282
96340,10.391,-0.704,-0.615,-0.367525,-0.820150,1.745992,100690.10,-217,+115,-282
96350,6.583,0.877,-0.751,0.316768,-0.605710,1.691185,100688.52,-219,+107,-285
96360,5.431,-0.168,-0.885,1.001062,-0.371582,1.744928,100688.52,-221,+98,-287
96370,7.698,-2.463,0.085,1.374071,-0.121490,1.719387,100691.70,-223,+87,-288
96380,10.577,-4.109,1.460,1.121850,0.023244,1.615626,100691.44,-223,+87,-288
96390,11.533,-4.078,2.437,0.405631,0.014198,1.474617,100690.81,-226,+78,-289
96400,10.360,-3.345,3.073,-0.233965,-0.067215,1.304341,100688.92,-226,+73,-288
96410,9.041,-2.439,3.189,-0.545249,-0.127343,1.154286,100688.92,-227,+72,-288
96420,8.706,-1.687,2.825,-0.639965,-0.161398,1.046268,100689.85,-227,+72,-288
96430,9.137,-0.958,2.362,-0.619745,-0.173637,0.978690,100692.84,-228,+66,-289
96440,9.660,-0.058,2.072,-0.502148,-0.162995,0.948892,100690.90,-228,+65,-289
96450,9.626,0.741,1.878,-0.269616,-0.125215,0.968580,100692.88,-229,+62,-287
96460,9.099,0.987,1.859,0.026769,-0.067215,1.017002,100692.88,-229,+62,-287
96465,8.771,0.482,2.120,0.209814,-0.024646,1.054782,100692.91,-230,+56,-289
96475,8.736,-0.546,2.183,0.261429,0.001427,1.095222,100692.91,-230,+56,-289
96485,9.142,-1.727,2.369,0.111374,0.015262,1.133002,100693.58,-231,+50,-289
96495,9.326,-1.996,2.480,-0.198314,-0.019325,1.127149,100691.53,-232,+46,-289
96505,9.386,-1.860,2.362,-0.522369,-0.070940,1.096286,100689.21,-234,+41,-289
96516,9.435,-0.916,2.188,-0.659121,-0.103398,1.096286,100693.15,-234,+41,-289
96525,9.342,-0.073,2.270,-0.601121,-0.101270,1.142048,100693.93,-234,+40,-287
96535,9.259,-0.166,2.343,-0.385616,-0.079453,1.199516,100691.15,-234,+36,-287
96545,9.521,-0.664,2.358,-0.191928,-0.039545,1.243149,100691.15,-236,+30,-288
96556,9.878,-1.912,2.316,-0.154149,-0.015068,1.264965,100692.05,-236,+30,-288
96565,9.958,-2.745,2.273,-0.279194,-0.018261,1.268690,100692.05,-236,+26,-287
96575,9.711,-3.113,2.428,-0.514387,-0.041141,1.271883,100692.98,-236,+22,-287
96585,9.660,-2.709,2.638,-0.724570,-0.067215,1.288378,100693.35,-238,+16,-288
96595,9.817,-2.128,2.756,-0.795341,-0.093820,1.310195,100688.73,-237,+14,-288
96606,9.889,-2.026,2.957,-0.745323,-0.099141,1.352763,100690.46,-237,+14,-288
96615,10.029,-2.463,3.117,-0.678277,-0.100206,1.411828,100690.46,-238,+10,-288
96625,10.250,-2.749,3.473,-0.667102,-0.117233,1.460782,100693.45,-238,+4,-288
96635,10.595,-3.000,4.259,-0.718185,-0.161398,1.504947,100690.66,-238,+1,-289
96646,11.137,-2.949,5.085,-0.822479,-0.197050,1.558158,100690.55,-238,+1,-289
96655,12.415,-2.615,4.799,-0.965616,-0.223123,1.628396,100690.55,-236,-4,-288
96665,14.108,-1.548,3.829,-1.077891,-0.273141,1.729497,100690.55,-237,-9,-290
96675,14.438,-1.678,3.256,-1.252955,-0.310921,1.889662,100692.19,-235,-13,-290
96686,14.214,-1.673,2.473,-1.417377,-0.373178,2.068451,100695.08,-235,-13,-290
96695,14.110,-0.902,2.064,-1.466331,-0.475875,2.239258,100692.03,-232,-18,-290
96701,14.629,-0.782,2.005,-1.374808,-0.547178,2.375478,100690.94,-232,-18,-290
96710,15.295,-0.690,2.220,-1.265194,-0.611563,2.519148,100690.94,-230,-25,-294
96720,15.541,-1.111,2.641,-1.172075,-0.699361,2.685166,100696.84,-226,-30,-295
96731,15.525,-1.432,2.964,-1.196552,-0.772260,2.824047,100692.55,-221,-39,-297
96740,16.111,-1.059,3.533,-1.346607,-0.793545,2.924083,100692.91,-221,-39,-297
96750,17.630,-0.009,4.271,-1.606276,-0.783967,2.999643,100690.03,-217,-47,-299
96760,19.761,1.034,4.932,-2.023982,-0.791948,3.057111,100690.03,-210,-52,-301
96771,23.120,2.772,5.463,-2.604514,-0.898902,3.058707,100693.38,-204,-56,-304
96780,25.745,4.143,5.835,-3.194092,-1.104297,3.044340,100690.33,-204,-56,-304
96790,24.846,3.201,5.710,-3.465468,-1.280957,3.048065,100692.53,-196,-58,-310
96800,21.068,-0.510,6.377,-3.135028,-1.305966,3.150230,100689.48,-187,-55,-313
96811,17.775,-1.255,7.350,-2.559285,-1.273508,3.238560,100689.48,-179,-59,-316
96821,15.315,1.308,5.111,-2.145303,-1.277232,2.939515,100690.28,-171,-60,-319
96830,12.577,-0.123,3.178,-1.420570,-1.049489,2.541497,100690.91,-171,-60,-319
96840,9.970,-2.997,5.046,-0.503213,-0.770664,2.535111,100688.91,-165,-64,-318
96850,7.901,-4.075,6.684,0.339117,-0.609967,2.744762,100689.02,-159,-74,-315
96861,6.167,-2.997,4.731,0.759484,-0.529618,2.521808,100689.02,-154,-82,-313
96870,4.293,-1.891,1.226,0.563667,-0.375838,1.773130,100691.27,-154,-82,-313
96880,1.672,-4.851,-1.834,-0.032828,-0.193325,0.933461,100693.63,-151,-85,-310
96890,1.884,-4.430,1.428,-0.242479,0.101996,0.463608,100691.18,-148,-84,-307
96901,3.162,1.248,2.043,-0.600589,0.072730,0.132104,100685.62,-148,-82,-306
96910,2.570,4.143,-0.084,-0.630919,0.064748,-0.538355,100685.62,-148,-82,-306
96920,3.027,4.628,-0.614,-0.261103,0.399445,-1.180079,100691.81,-148,-74,-302
96930,3.151,4.165,-0.462,0.397649,0.627188,-1.395584,100688.83,-151,-68,-299
96941,2.674,2.968,0.534,1.057465,0.834711,-1.454116,100688.52,-154,-66,-293
96951,2.538,1.523,0.920,1.396419,0.966675,-1.644611,100684.95,-154,-66,-293
96960,2.768,0.278,0.723,1.543814,1.031592,-1.938868,100684.95,-158,-61,-286
96970,3.653,-0.310,0.495,1.537960,1.092252,-2.267712,100686.41,-162,-56,-281
96980,4.827,-0.879,0.091,1.402804,1.138546,-2.594959,100686.52,-167,-50,-276
96991,5.850,-1.300,-0.042,1.201135,1.175794,-2.883363,100688.20,-167,-50,-276
97000,6.604,-1.067,-0.135,0.919649,1.197078,-3.128133,100684.52,-170,-38,-268
97010,7.010,-0.423,-0.189,0.624328,1.208252,-3.361197,100684.52,-174,-27,-266
97020,7.239,0.445,-0.548,0.418934,1.211445,-3.586280,100686.31,-176,-12,-262
97031,7.356,1.031,-0.972,0.405631,1.229537,-3.787417,100684.95,-176,-12,-262
97040,7.607,1.027,-1.007,0.517906,1.283812,-3.959288,100686.36,-177,+3,-256
97050,7.868,0.374,-0.733,0.662640,1.333830,-4.116793,100683.06,-177,+18,-254
97060,8.188,-0.305,-0.412,0.822805,1.354050,-4.275362,100683.06,-176,+35,-252
97071,8.526,-0.759,-0.174,0.899961,1.353518,-4.439251,100685.22,-176,+35,-252
97081,9.180,-1.320,0.127,0.883997,1.351390,-4.624958,100685.42,-172,+53,-248
97090,10.067,-1.699,0.458,0.876548,1.336491,-4.815985,100684.95,-168,+70,-246
97100,10.898,-1.620,0.810,0.800988,1.342876,-5.002756,100686.38,-160,+88,-245
97111,11.671,-1.266,0.875,0.749374,1.370546,-5.155471,100686.38,-160,+88,-245
97121,12.507,-1.022,0.873,0.815887,1.420564,-5.280517,100686.71,-150,+104,-245
97130,13.627,-1.691,0.979,0.924438,1.482821,-5.378957,100685.35,-138,+120,-246
97140,14.693,-2.908,1.161,1.086731,1.521133,-5.422058,100686.91,-126,+131,-248
97150,15.610,-4.517,1.356,1.257006,1.533903,-5.413012,100687.49,-126,+131,-248
97161,16.662,-6.320,1.803,1.342676,1.506766,-5.407159,100687.49,-111,+139,-250
97171,17.768,-7.254,1.792,1.210181,1.396087,-5.434474,100691.05,-103,+144,-254
97180,17.949,-7.412,1.811,1.005851,1.309353,-5.424186,100688.89,-95,+148,-257
97190,17.652,-7.485,1.782,0.894640,1.280619,-5.289563,100688.95,-95,+148,-257
97201,17.230,-7.673,1.509,0.877612,1.277959,-4.965508,100690.47,-88,+151,-259
97211,16.755,-8.644,1.308,0.965942,1.355115,-4.458407,100690.47,-87,+153,-261
97220,16.519,-11.463,2.519,1.206988,1.475371,-3.928958,100690.07,-88,+155,-263
97230,15.543,-14.920,1.854,1.255942,1.374803,-3.519766,100691.18,-88,+155,-263
97241,13.901,-17.112,-0.103,0.984034,1.229537,-3.045656,100692.18,-88,+157,-261
97251,12.924,-18.382,-1.093,0.515778,1.080014,-2.262390,100693.80,-93,+161,-262
97260,11.808,-18.812,-2.042,-0.018993,0.660711,-1.257235,100693.80,-95,+161,-262
97270,11.531,-17.044,-2.932,-0.161066,0.091886,-0.202593,100694.01,-95,+161,-262
97281,11.811,-14.364,-2.573,0.271007,-0.371049,0.798837,100695.84,-99,+160,-261
97291,11.385,-15.605,-0.490,1.232529,-0.576444,1.846561,100693.12,-105,+155,-266
97300,9.397,-17.538,11.291,2.544180,-0.341251,3.048065,100688.24,-113,+139,-272
97310,18.860,11.570,16.308,1.844456,-1.128774,3.166725,100688.24,-115,+139,-277
97320,26.920,19.967,-5.516,0.006016,-1.178260,1.556029,100692.41,-115,+127,-277
97331,33.475,-12.242,1.122,-0.319635,0.808638,2.236598,100693.20,-123,+123,-277
97341,18.851,-13.323,6.141,0.682328,-0.372646,3.764285,100690.41,-130,+110,-278
97350,8.055,-4.666,3.090,-0.717653,-0.965416,3.247074,100691.62,-132,+102,-278
