292359,4.557,1.953,-8.573,-0.005988,0.009783,-0.010631,0.180172,-0.489475,-0.890271
292371,4.561,2.004,-8.591,-0.005988,0.008364,-0.011163,0.180758,-0.489535,-0.890018
292383,4.557,1.986,-8.577,-0.005279,0.007655,-0.010276,0.181120,-0.489630,-0.889798
292397,4.555,1.953,-8.561,-0.004570,0.008010,-0.009212,0.180841,-0.489813,-0.890013
292409,4.567,1.975,-8.561,-0.004924,0.007832,-0.009567,0.181124,-0.490057,-0.889778
292422,4.573,1.949,-8.595,-0.005634,0.008010,-0.010631,0.180864,-0.490169,-0.889767
292434,4.572,1.979,-8.565,-0.004924,0.005172,-0.012227,0.181172,-0.490424,-0.889529
292447,4.565,1.967,-8.582,-0.004570,0.006591,-0.011695,0.181153,-0.490501,-0.889518
292459,4.585,1.960,-8.558,-0.003328,0.006236,-0.012227,0.181247,-0.490876,-0.889303
292472,4.549,1.967,-8.528,-0.003505,0.004817,-0.011695,0.181359,-0.491052,-0.889305
292485,4.562,1.960,-8.569,-0.001732,0.004640,-0.013292,0.181322,-0.491124,-0.889276
292497,4.551,1.980,-8.553,-0.001377,0.003398,-0.014179,0.181692,-0.491150,-0.889029
292510,4.533,1.983,-8.570,-0.001732,0.003043,-0.013292,0.181895,-0.490940,-0.888997
292523,4.551,1.987,-8.578,-0.000667,0.003398,-0.012760,0.182113,-0.490881,-0.888949
292535,4.543,1.927,-8.600,-0.001732,0.004107,-0.012760,0.181770,-0.490605,-0.888722
292547,4.561,1.966,-8.583,-0.002086,0.004462,-0.014179,0.181882,-0.490621,-0.888508
292560,4.579,1.969,-8.564,-0.002264,0.005704,-0.014888,0.181895,-0.490913,-0.888495
292573,4.565,1.990,-8.569,-0.001377,0.004817,-0.015597,0.182155,-0.491019,-0.888450
292585,4.565,1.972,-8.594,-0.002264,0.003575,-0.013292,0.182277,-0.490975,-0.888237
292598,4.570,2.002,-8.569,-0.001377,0.001979,-0.013114,0.182625,-0.491153,-0.888221
292611,4.539,1.954,-8.556,-0.001199,0.000915,-0.014356,0.182490,-0.491096,-0.888182
292624,4.550,1.961,-8.551,-0.001732,0.000205,-0.012760,0.182444,-0.491179,-0.888156
292636,4.556,1.967,-8.562,-0.002264,-0.000149,-0.013824,0.182578,-0.491240,-0.887926
292649,4.562,1.965,-8.577,-0.002441,-0.000859,-0.015243,0.182508,-0.491304,-0.887893
292662,4.554,1.978,-8.557,-0.003860,-0.001214,-0.015952,0.182623,-0.491389,-0.887837
292675,4.562,1.955,-8.581,-0.003860,-0.002278,-0.016484,0.182430,-0.491431,-0.887779
292687,4.563,1.976,-8.581,-0.003860,-0.003697,-0.017726,0.182619,-0.491473,-0.887521
292700,4.569,1.981,-8.570,-0.003860,-0.005471,-0.018081,0.182725,-0.491670,-0.887466
292713,4.574,1.977,-8.571,-0.003860,-0.007599,-0.020564,0.182772,-0.491909,-0.887375
292725,4.551,1.987,-8.588,-0.002796,-0.009727,-0.019677,0.183068,-0.491805,-0.887111
292738,4.545,1.981,-8.553,-0.002796,-0.011146,-0.020209,0.183210,-0.491882,-0.887040
292751,4.549,1.984,-8.592,-0.002796,-0.010260,-0.019677,0.183292,-0.491772,-0.886966
292763,4.555,2.010,-8.589,-0.002796,-0.010082,-0.018081,0.183781,-0.491717,-0.886715
292776,4.541,1.972,-8.550,-0.002796,-0.010792,-0.017016,0.183767,-0.491767,-0.886682
292789,4.533,1.980,-8.585,-0.003860,-0.012211,-0.017726,0.183778,-0.491569,-0.886628
292802,4.543,1.948,-8.580,-0.002796,-0.011146,-0.017371,0.183465,-0.491498,-0.886585
292814,4.548,2.002,-8.580,-0.003860,-0.011856,-0.020209,0.183881,-0.491462,-0.886319
292828,4.532,1.961,-8.560,-0.003860,-0.012920,-0.018435,0.183605,-0.491454,-0.886454
292840,4.525,2.017,-8.588,-0.002796,-0.013452,-0.019145,0.184208,-0.491167,-0.886176
292852,4.527,1.996,-8.561,-0.002441,-0.011856,-0.016307,0.184564,-0.491056,-0.885951
292866,4.510,1.978,-8.571,-0.002264,-0.011324,-0.015420,0.184432,-0.490782,-0.886106
292878,4.511,1.985,-8.582,-0.003505,-0.010437,-0.015597,0.184633,-0.490421,-0.885863
292890,4.496,1.985,-8.611,-0.003328,-0.011324,-0.015420,0.184763,-0.489822,-0.885644
292903,4.507,2.004,-8.598,-0.002796,-0.010437,-0.013824,0.184978,-0.489473,-0.885628
292917,4.504,2.000,-8.575,-0.001732,-0.009195,-0.014356,0.185077,-0.489257,-0.885754
292929,4.508,1.996,-8.610,-0.002796,-0.009727,-0.015243,0.185297,-0.488870,-0.885480
292942,4.506,1.978,-8.580,-0.003328,-0.008663,-0.016484,0.185223,-0.488682,-0.885398
292955,4.516,2.000,-8.601,-0.002796,-0.007954,-0.014179,0.185358,-0.488491,-0.885332
292968,4.501,1.972,-8.614,-0.002796,-0.006180,-0.014533,0.185172,-0.488084,-0.885263
292980,4.482,1.980,-8.587,-0.003328,-0.003874,-0.013824,0.185293,-0.487624,-0.885025
292993,4.527,1.981,-8.590,-0.003151,-0.003342,-0.013114,0.185234,-0.487656,-0.884998
293006,4.502,1.955,-8.614,-0.003328,-0.002810,-0.014888,0.184882,-0.487308,-0.884952
293018,4.488,1.977,-8.594,-0.002796,-0.001923,-0.012760,0.184989,-0.486935,-0.884752
293031,4.490,1.994,-8.623,-0.002796,-0.000149,-0.013824,0.185092,-0.486472,-0.884724
293044,4.496,1.979,-8.598,-0.002441,0.000205,-0.013114,0.185072,-0.486232,-0.884694
293056,4.507,1.968,-8.601,-0.002264,0.003043,-0.012760,0.185052,-0.486067,-0.884494
293069,4.518,1.977,-8.589,-0.002796,0.003753,-0.012760,0.185005,-0.486100,-0.884490
293082,4.499,1.994,-8.595,-0.003860,0.003043,-0.011695,0.185159,-0.485912,-0.884478
293094,4.505,2.001,-8.580,-0.001732,0.004107,-0.011341,0.185545,-0.485859,-0.884279
293107,4.508,1.977,-8.586,-0.001732,0.004107,-0.012760,0.185485,-0.485829,-0.884258
293120,4.492,1.981,-8.630,-0.002796,0.003398,-0.012760,0.185411,-0.485412,-0.884226
293133,4.487,1.991,-8.614,-0.002441,0.003043,-0.013469,0.185496,-0.485078,-0.884170
293145,4.495,1.997,-8.606,-0.003328,0.001979,-0.013824,0.185759,-0.484900,-0.883932
293157,4.488,1.983,-8.573,-0.003505,0.002334,-0.012050,0.185909,-0.484843,-0.883740
293171,4.508,2.006,-8.588,-0.003328,0.003043,-0.012760,0.186006,-0.484935,-0.883884
293183,4.512,1.974,-8.598,-0.003505,0.003398,-0.011695,0.185981,-0.484957,-0.883675
293195,4.496,1.988,-8.612,-0.003328,0.003043,-0.013824,0.186096,-0.484761,-0.883465
293208,4.501,1.996,-8.608,-0.003505,0.003398,-0.012405,0.186164,-0.484667,-0.883455
293221,4.526,1.998,-8.586,-0.002796,0.003043,-0.012227,0.186278,-0.484948,-0.883432
293234,4.510,1.981,-8.605,-0.002264,0.001979,-0.012493,0.186187,-0.484942,-0.883401
293246,4.498,1.979,-8.592,-0.002796,0.000383,-0.013292,0.186243,-0.484889,-0.883192
293259,4.504,1.992,-8.604,-0.002441,0.000560,-0.013824,0.186283,-0.484863,-0.883162
293272,4.510,1.991,-8.608,-0.002796,-0.000682,-0.013292,0.186301,-0.484880,-0.883129
293284,4.508,1.985,-8.614,-0.002796,0.000560,-0.012760,0.186371,-0.484813,-0.882934
293298,4.505,2.008,-8.607,-0.002796,0.000915,-0.012760,0.186455,-0.484791,-0.883076
293310,4.504,1.985,-8.596,-0.003860,0.000915,-0.012760,0.186552,-0.484791,-0.882858
293323,4.500,1.984,-8.609,-0.003505,0.001270,-0.013469,0.186489,-0.484695,-0.882821
293336,4.495,2.006,-8.587,-0.003328,0.001979,-0.012760,0.186728,-0.484664,-0.882775
293348,4.472,2.007,-8.602,-0.003151,0.002334,-0.011341,0.187063,-0.484305,-0.882568
293361,4.505,1.977,-8.577,-0.002796,0.004107,-0.011695,0.186935,-0.484436,-0.882548
293373,4.496,1.971,-8.586,-0.003860,0.005881,-0.011695,0.186863,-0.484390,-0.882367
293386,4.504,1.999,-8.625,-0.002796,0.008364,-0.011695,0.186913,-0.484202,-0.882362
293399,4.485,1.991,-8.611,-0.003505,0.008010,-0.010986,0.186914,-0.483929,-0.882351
293411,4.496,1.973,-8.613,-0.003328,0.007832,-0.010631,0.186832,-0.483775,-0.882181
293424,4.480,1.988,-8.605,-0.003505,0.007655,-0.010276,0.186835,-0.483533,-0.882191
293437,4.470,1.994,-8.599,-0.004392,0.008896,-0.011695,0.186925,-0.483231,-0.882164
293449,4.476,2.001,-8.600,-0.004570,0.011557,-0.008857,0.187188,-0.482983,-0.881993
293462,4.464,1.980,-8.586,-0.003860,0.015814,-0.008503,0.187127,-0.482668,-0.882005
293474,4.454,2.020,-8.584,-0.004570,0.018297,-0.008503,0.187623,-0.482268,-0.881824
293486,4.441,2.030,-8.587,-0.002264,0.023263,-0.004246,0.188207,-0.481717,-0.881683
293499,4.463,1.967,-8.599,-0.000667,0.027875,-0.001053,0.187913,-0.481319,-0.881762
293512,4.454,2.027,-8.601,-0.000667,0.033373,-0.001585,0.188305,-0.480802,-0.881790
293525,4.473,2.026,-8.585,-0.000313,0.037453,0.003913,0.188673,-0.480562,-0.881848
293537,4.478,1.998,-8.586,-0.001199,0.040823,0.005864,0.188802,-0.480375,-0.881739
293550,4.531,2.002,-8.581,0.000042,0.043129,0.007106,0.188817,-0.480704,-0.881829
293562,4.545,1.998,-8.577,-0.000135,0.042419,0.007461,0.188894,-0.481189,-0.881737
293575,4.570,1.974,-8.607,-0.001732,0.042065,0.007815,0.188496,-0.481696,-0.881852
293587,4.553,1.998,-8.597,-0.002264,0.040291,0.008525,0.188545,-0.482070,-0.881786
293600,4.590,1.941,-8.620,-0.002086,0.037453,0.005687,0.187792,-0.482663,-0.881902
293613,4.591,1.936,-8.576,-0.003328,0.032309,0.002672,0.187134,-0.483499,-0.881993
293625,4.577,1.954,-8.565,-0.004215,0.026456,-0.001053,0.186889,-0.484237,-0.881882
293638,4.554,1.947,-8.558,-0.004924,0.021135,-0.005310,0.186501,-0.484764,-0.881917
293650,4.571,1.981,-8.561,-0.005279,0.016523,-0.008148,0.186608,-0.485436,-0.881757
293663,4.584,1.972,-8.575,-0.004924,0.013685,-0.010099,0.186463,-0.486128,-0.881759
293676,4.578,1.988,-8.553,-0.004215,0.010493,-0.012050,0.186568,-0.486839,-0.881729
293689,4.569,1.984,-8.557,-0.003860,0.006945,-0.012760,0.186635,-0.487413,-0.881687
293701,4.567,2.005,-8.563,-0.003328,0.004640,-0.011163,0.187036,-0.487881,-0.881501
293713,4.552,1.996,-8.572,-0.002086,0.002688,-0.010276,0.187298,-0.488129,-0.881342
293727,4.560,1.969,-8.604,-0.002796,0.001979,-0.010631,0.186957,-0.488302,-0.881508
293739,4.554,1.990,-8.576,-0.003505,0.000915,-0.010986,0.187161,-0.488518,-0.881328
293751,4.561,1.977,-8.574,-0.002796,0.000915,-0.012760,0.187197,-0.488792,-0.881156
293765,4.551,2.002,-8.582,-0.003505,0.000560,-0.013824,0.187274,-0.488940,-0.881278
293777,4.541,1.994,-8.575,-0.003328,-0.000682,-0.013292,0.187519,-0.488978,-0.881073
293789,4.527,2.018,-8.564,-0.003151,-0.001923,-0.013469,0.188022,-0.488947,-0.880873
293803,4.550,1.992,-8.585,-0.003328,-0.001746,-0.012227,0.187915,-0.489081,-0.881002
293815,4.546,1.962,-8.561,-0.003505,-0.001923,-0.013114,0.187776,-0.489237,-0.880806
293828,4.535,1.988,-8.569,-0.004392,-0.002278,-0.015420,0.187810,-0.489252,-0.880750
293840,4.526,1.969,-8.597,-0.004215,-0.004052,-0.015597,0.187697,-0.489029,-0.880552
293853,4.525,1.972,-8.605,-0.003860,-0.002810,-0.017016,0.187510,-0.488790,-0.880507
293866,4.536,2.000,-8.573,-0.004570,-0.003342,-0.018081,0.187702,-0.488859,-0.880437
293879,4.543,2.000,-8.594,-0.004215,-0.004052,-0.017371,0.187829,-0.488878,-0.880367
293892,4.535,2.004,-8.610,-0.004392,-0.003874,-0.017016,0.187971,-0.488732,-0.880293
293904,4.513,1.984,-8.593,-0.003505,-0.004406,-0.014533,0.188062,-0.488458,-0.880103
293917,4.551,1.981,-8.587,-0.003328,-0.003342,-0.013824,0.187976,-0.488634,-0.880091
293929,4.519,2.004,-8.607,-0.003505,-0.002633,-0.014888,0.188240,-0.488337,-0.879908
293942,4.506,1.987,-8.591,-0.003328,-0.001214,-0.014888,0.188242,-0.488032,-0.879882
293955,4.525,1.990,-8.572,-0.003505,-0.000504,-0.014888,0.188296,-0.488038,-0.879847
293967,4.533,2.002,-8.593,-0.003860,-0.001214,-0.013824,0.188524,-0.488004,-0.879671
293980,4.530,1.990,-8.591,-0.002796,-0.003342,-0.014888,0.188517,-0.487992,-0.879644
293993,4.539,1.994,-8.591,-0.003328,-0.004938,-0.015420,0.188551,-0.488096,-0.879603
294005,4.516,1.990,-8.572,-0.002441,-0.005116,-0.014179,0.188713,-0.488029,-0.879428
294019,4.492,2.010,-8.585,-0.002264,-0.005471,-0.013292,0.188871,-0.487710,-0.879548
294031,4.508,2.006,-8.582,-0.001732,-0.005471,-0.011695,0.189178,-0.487559,-0.879363
294044,4.512,2.000,-8.573,-0.000667,-0.005116,-0.011341,0.189314,-0.487528,-0.879339
294056,4.529,2.004,-8.569,-0.000667,-0.002810,-0.010631,0.189570,-0.487638,-0.879171
294070,4.536,1.973,-8.601,-0.001022,-0.002987,-0.012405,0.189194,-0.487688,-0.879293
294082,4.527,1.980,-8.624,-0.001732,-0.003342,-0.012227,0.189101,-0.487487,-0.879113
294094,4.516,2.010,-8.624,-0.001732,-0.004052,-0.012405,0.189343,-0.487204,-0.878945
294108,4.507,1.986,-8.602,-0.002264,-0.003874,-0.012760,0.189149,-0.487010,-0.879068
294120,4.499,1.983,-8.615,-0.002086,-0.002987,-0.012405,0.189143,-0.486639,-0.878888
294132,4.507,1.991,-8.601,-0.001732,-0.001214,-0.011163,0.189239,-0.486443,-0.878741
294146,4.524,1.995,-8.597,-0.001022,0.000560,-0.010631,0.189171,-0.486467,-0.878892
294158,4.517,2.009,-8.591,-0.001732,0.001447,-0.010099,0.189481,-0.486408,-0.878726
294171,4.508,2.005,-8.591,-0.001377,0.000560,-0.010276,0.189632,-0.486289,-0.878709
294183,4.494,1.981,-8.604,-0.002264,-0.000682,-0.010099,0.189592,-0.485979,-0.878552
294196,4.520,1.993,-8.601,-0.002796,-0.001568,-0.012760,0.189556,-0.485994,-0.878520
294209,4.516,1.971,-8.587,-0.002796,-0.001746,-0.013292,0.189319,-0.486044,-0.878487
294221,4.512,1.996,-8.577,-0.002441,-0.000504,-0.012760,0.189507,-0.486078,-0.878316
294235,4.489,2.028,-8.609,-0.002441,0.001979,-0.012050,0.189784,-0.485710,-0.878421
294247,4.525,1.988,-8.606,-0.001732,0.003575,-0.011163,0.189797,-0.485707,-0.878241
294260,4.499,1.975,-8.585,-0.002086,0.004107,-0.010276,0.189626,-0.485563,-0.878233
294273,4.516,2.008,-8.628,-0.001199,0.003043,-0.010631,0.189740,-0.485388,-0.878206
294285,4.508,2.003,-8.628,-0.001377,0.003398,-0.009567,0.189897,-0.485136,-0.878046
294298,4.506,2.005,-8.608,-0.001199,0.003575,-0.008503,0.190005,-0.485005,-0.878047
294310,4.510,1.995,-8.594,-0.001377,0.005526,-0.007793,0.190112,-0.484967,-0.877910
294323,4.508,1.991,-8.616,-0.001199,0.006236,-0.009567,0.190031,-0.484810,-0.877905
294336,4.531,2.001,-8.600,-0.002441,0.006945,-0.008857,0.190070,-0.484963,-0.877899
294348,4.511,2.004,-8.586,-0.003328,0.006236,-0.010631,0.190273,-0.484973,-0.877726
294361,4.506,1.980,-8.604,-0.001377,0.008364,-0.009567,0.190087,-0.484823,-0.877725
294374,4.511,2.014,-8.588,-0.001732,0.009429,-0.009035,0.190314,-0.484808,-0.877709
294386,4.515,2.025,-8.583,-0.002086,0.009429,-0.007793,0.190741,-0.484853,-0.877553
294400,4.504,1.990,-8.600,-0.000667,0.007832,-0.006906,0.190549,-0.484728,-0.877697
294412,4.484,1.998,-8.590,-0.001377,0.009429,-0.007438,0.190699,-0.484442,-0.877526
294425,4.501,1.988,-8.569,-0.001022,0.009783,-0.008503,0.190652,-0.484465,-0.877499
294437,4.511,2.006,-8.599,-0.001732,0.011025,-0.006906,0.190833,-0.484406,-0.877348
294450,4.516,1.972,-8.596,-0.001377,0.011912,-0.007793,0.190533,-0.484413,-0.877350
294462,4.530,2.000,-8.587,-0.002264,0.011557,-0.009035,0.190663,-0.484604,-0.877197
294475,4.533,1.984,-8.584,-0.001732,0.012621,-0.006729,0.190514,-0.484817,-0.877227
294488,4.522,1.992,-8.581,-0.000667,0.011025,-0.005842,0.190508,-0.484926,-0.877256
294501,4.512,1.981,-8.609,-0.001732,0.010848,-0.006374,0.190336,-0.484779,-0.877271
294513,4.502,2.008,-8.617,-0.000667,0.010493,-0.006906,0.190566,-0.484516,-0.877130
294525,4.504,1.983,-8.586,-0.000667,0.010493,-0.006729,0.190563,-0.484451,-0.877012
294538,4.536,1.988,-8.594,-0.001732,0.011025,-0.007971,0.190467,-0.484671,-0.877028
294550,4.511,2.010,-8.580,-0.003151,0.011912,-0.008148,0.190746,-0.484679,-0.876893
294563,4.507,1.972,-8.577,-0.002264,0.013685,-0.007971,0.190513,-0.484647,-0.876913
294576,4.533,1.965,-8.587,-0.002086,0.012266,-0.008857,0.190191,-0.484842,-0.876924
294588,4.537,1.986,-8.612,-0.001732,0.009961,-0.006906,0.190183,-0.484943,-0.876823
294601,4.555,1.976,-8.611,-0.001732,0.008010,-0.006729,0.189957,-0.485242,-0.876878
294614,4.529,1.983,-8.581,-0.001732,0.006236,-0.007971,0.189918,-0.485430,-0.876905
294626,4.546,1.978,-8.601,-0.003151,0.004817,-0.008857,0.189862,-0.485669,-0.876792
294638,4.536,1.972,-8.583,-0.003860,0.004640,-0.010099,0.189777,-0.485875,-0.876688
294651,4.521,1.998,-8.569,-0.003860,0.004817,-0.009922,0.189930,-0.485997,-0.876717
294664,4.516,1.980,-8.556,-0.003860,0.005172,-0.009567,0.189916,-0.486117,-0.876738
294676,4.535,2.011,-8.558,-0.002441,0.004817,-0.009567,0.190318,-0.486400,-0.876612
294688,4.526,2.015,-8.588,-0.002796,0.004107,-0.010099,0.190663,-0.486415,-0.876483
294702,4.529,1.971,-8.591,-0.001377,0.004107,-0.008148,0.190336,-0.486466,-0.876650
294714,4.523,1.977,-8.582,-0.001732,0.002511,-0.009567,0.190313,-0.486485,-0.876517
294727,4.545,2.008,-8.599,-0.002086,0.002334,-0.009567,0.190485,-0.486650,-0.876518
294739,4.535,2.005,-8.574,-0.001732,0.001979,-0.009035,0.190761,-0.486816,-0.876386
294753,4.529,1.981,-8.589,-0.000667,0.000915,-0.008503,0.190557,-0.486874,-0.876528
294765,4.527,2.000,-8.577,-0.001377,0.000560,-0.008857,0.190783,-0.486932,-0.876380
294777,4.535,1.994,-8.570,-0.000135,-0.000149,-0.009567,0.190945,-0.487108,-0.876240
294791,4.559,1.976,-8.586,-0.000313,-0.001923,-0.009567,0.190658,-0.487474,-0.876374
294803,4.472,1.997,-8.585,-0.001199,-0.006003,-0.010631,0.190895,-0.486963,-0.876207
294816,4.559,1.960,-8.586,-0.000667,-0.002633,-0.010276,0.190534,-0.487340,-0.876205
294829,4.507,1.981,-8.592,-0.001199,-0.004406,-0.012227,0.190485,-0.487150,-0.876172
294841,4.536,1.995,-8.551,-0.001377,-0.005116,-0.012760,0.190724,-0.487469,-0.876007
294853,4.559,1.980,-8.565,-0.000667,-0.008663,-0.012760,0.190732,-0.487936,-0.875871
294866,4.583,1.975,-8.596,-0.000667,-0.013275,-0.014179,0.190516,-0.488507,-0.875866
294879,4.560,1.975,-8.594,-0.000667,-0.018773,-0.016484,0.190359,-0.488866,-0.875836
294892,4.562,1.961,-8.582,0.000752,-0.025691,-0.019145,0.190112,-0.489348,-0.875785
294904,4.514,1.996,-8.582,0.000929,-0.032608,-0.020209,0.190397,-0.489345,-0.875601
294918,4.506,2.005,-8.598,0.002525,-0.037042,-0.018435,0.190588,-0.489314,-0.875669
294931,4.488,1.998,-8.588,0.003235,-0.039171,-0.017016,0.190824,-0.489130,-0.875605
294943,4.454,2.003,-8.619,0.004654,-0.037397,-0.013824,0.191154,-0.488409,-0.875446
294956,4.452,1.984,-8.625,0.006782,-0.034204,-0.012760,0.191185,-0.487713,-0.875425
294968,4.470,1.988,-8.587,0.005718,-0.031544,-0.010631,0.191381,-0.487402,-0.875298
294981,4.470,1.942,-8.626,0.004654,-0.029593,-0.009212,0.190892,-0.486940,-0.875336
294993,4.471,1.943,-8.624,0.001993,-0.029415,-0.002117,0.190522,-0.486509,-0.875333
295007,4.426,2.032,-8.587,0.002171,-0.024981,-0.004955,0.191112,-0.485880,-0.875508
295019,4.421,2.005,-8.619,0.004654,-0.018773,-0.004246,0.191484,-0.484967,-0.875390
295031,4.460,1.961,-8.640,0.004654,-0.014694,-0.006729,0.191256,-0.484399,-0.875267
295044,4.453,1.960,-8.607,0.001461,-0.012920,-0.009035,0.190995,-0.483989,-0.875257
295057,4.412,1.984,-8.596,0.000042,-0.008308,-0.011341,0.191073,-0.483211,-0.875199
295069,4.387,2.030,-8.618,-0.000667,-0.000149,-0.010099,0.191700,-0.482057,-0.875004
295083,4.467,1.993,-8.616,-0.001022,0.006591,-0.009922,0.191620,-0.481759,-0.875058
295095,4.469,1.961,-8.630,-0.002264,0.008896,-0.010099,0.191336,-0.481404,-0.874870
295107,4.459,1.970,-8.626,-0.004570,0.009783,-0.012760,0.191170,-0.481001,-0.874682
295120,4.494,1.979,-8.626,-0.004924,0.011557,-0.011695,0.190988,-0.480969,-0.874646
295133,4.460,1.948,-8.620,-0.006343,0.010138,-0.013114,0.190529,-0.480659,-0.874604
295146,4.410,2.003,-8.620,-0.006521,0.013685,-0.014356,0.190763,-0.479834,-0.874526
295158,4.468,2.002,-8.640,-0.005988,0.018652,-0.012405,0.190961,-0.479514,-0.874351
295171,4.490,1.955,-8.639,-0.007053,0.019716,-0.012760,0.190515,-0.479442,-0.874322
295184,4.488,2.011,-8.608,-0.008117,0.019007,-0.013824,0.190775,-0.479523,-0.874265
295196,4.483,1.992,-8.618,-0.008472,0.017942,-0.014179,0.190878,-0.479508,-0.874093
295208,4.508,1.978,-8.573,-0.008649,0.014750,-0.015952,0.190870,-0.480014,-0.873931
295222,4.480,2.008,-8.612,-0.006698,0.012976,-0.015952,0.190996,-0.480010,-0.873992
295234,4.568,1.971,-8.647,-0.005988,0.011025,-0.015420,0.190737,-0.480709,-0.873842
295246,4.457,1.993,-8.595,-0.005988,0.008010,-0.015597,0.190955,-0.480542,-0.873701
295260,4.494,2.012,-8.607,-0.004924,0.008364,-0.015420,0.191144,-0.480701,-0.873781
295272,4.469,2.004,-8.609,-0.004215,0.007655,-0.014888,0.191422,-0.480582,-0.873618
295284,4.504,2.017,-8.613,-0.003860,0.006236,-0.014888,0.191772,-0.480809,-0.873466
295298,4.488,1.986,-8.606,-0.003151,0.003753,-0.015597,0.191630,-0.480946,-0.873539
295310,4.490,1.988,-8.602,-0.002796,0.001447,-0.016484,0.191709,-0.481111,-0.873368
295323,4.503,1.990,-8.602,-0.002796,-0.001923,-0.016307,0.191703,-0.481434,-0.873328
295335,4.508,1.937,-8.601,-0.003328,-0.005471,-0.019145,0.191205,-0.481803,-0.873178
295349,4.504,1.969,-8.583,-0.003860,-0.009373,-0.022692,0.190977,-0.482276,-0.873216
295361,4.476,1.976,-8.606,-0.003151,-0.011856,-0.027304,0.191005,-0.482275,-0.872991
295374,4.458,1.990,-8.624,-0.002796,-0.013984,-0.027659,0.191085,-0.482054,-0.872876
295387,4.500,1.978,-8.592,-0.001732,-0.015403,-0.032625,0.191070,-0.482460,-0.872715
295399,4.454,2.011,-8.576,0.000397,-0.019305,-0.038301,0.191593,-0.482462,-0.872396
295412,4.434,1.976,-8.617,0.003235,-0.024981,-0.041139,0.191574,-0.482144,-0.872162
295425,4.431,1.972,-8.630,0.002525,-0.024094,-0.043622,0.191490,-0.481745,-0.871917
295437,4.473,2.008,-8.620,0.003944,-0.026045,-0.045396,0.191868,-0.481854,-0.871583
295449,4.472,1.938,-8.604,0.005186,-0.031544,-0.051604,0.191507,-0.482085,-0.871239
295461,4.428,1.979,-8.616,0.003235,-0.035978,-0.054974,0.191617,-0.481840,-0.870892
295475,4.428,1.978,-8.601,0.005186,-0.037929,-0.056925,0.191611,-0.481801,-0.870692
295487,4.428,1.998,-8.621,0.005008,-0.040945,-0.054974,0.191935,-0.481601,-0.870372
295499,4.397,1.951,-8.616,0.004654,-0.043250,-0.054264,0.191761,-0.481175,-0.870101
295513,4.419,1.961,-8.644,0.004299,-0.042718,-0.051781,0.191480,-0.480947,-0.870035
295525,4.405,1.948,-8.642,0.000397,-0.044315,-0.054796,0.191221,-0.480542,-0.869796
295537,4.433,1.957,-8.624,-0.001732,-0.050522,-0.056747,0.191076,-0.480610,-0.869573
295588,4.367,2.024,-8.677,0.017779,-0.066131,-0.068454,0.191832,-0.479638,-0.868658
295601,4.398,1.999,-8.678,0.016892,-0.064535,-0.065971,0.192152,-0.479388,-0.868443
295614,4.354,1.984,-8.699,0.016715,-0.065776,-0.064552,0.192286,-0.478623,-0.868249
295626,4.305,1.998,-8.711,0.012103,-0.060100,-0.062423,0.192587,-0.477273,-0.868011
295640,4.308,1.851,-8.782,0.007314,-0.052296,-0.059053,0.190943,-0.475755,-0.868014
295652,4.245,1.957,-8.805,-0.000667,-0.041654,-0.060295,0.190688,-0.473442,-0.867853
295664,4.223,2.094,-8.762,-0.004924,-0.022498,-0.056925,0.191976,-0.471176,-0.867674
295677,4.255,2.162,-8.756,-0.007053,-0.007599,-0.046105,0.193736,-0.469345,-0.867613
295690,4.231,2.248,-8.692,-0.005456,0.005704,-0.029787,0.196417,-0.467612,-0.867615
295703,4.193,2.156,-8.731,-0.001022,0.017588,-0.012050,0.197844,-0.465355,-0.867735
295715,4.252,2.111,-8.703,0.000929,0.029649,0.004800,0.198720,-0.463957,-0.867867
295728,4.223,2.151,-8.688,0.007492,0.036034,0.016329,0.200006,-0.462395,-0.868169
295740,4.179,2.112,-8.684,0.013167,0.044548,0.029809,0.200911,-0.460514,-0.868398
295752,4.291,2.102,-8.651,0.015651,0.053062,0.040806,0.201590,-0.460031,-0.868692
295764,4.238,2.066,-8.648,0.017424,0.053062,0.046837,0.201897,-0.459081,-0.869000
295777,4.374,2.083,-8.629,0.016360,0.058383,0.051448,0.202186,-0.459584,-0.869471
295789,4.317,2.022,-8.653,0.017956,0.053594,0.051626,0.201881,-0.459440,-0.869742
295802,4.322,2.038,-8.669,0.019553,0.055899,0.054641,0.201702,-0.459222,-0.870176
295815,4.244,2.036,-8.635,0.019021,0.056254,0.062800,0.201672,-0.458408,-0.870639
295827,4.350,2.044,-8.640,0.018134,0.064058,0.069540,0.201653,-0.458680,-0.870958
295839,4.379,1.933,-8.701,0.015296,0.063704,0.076103,0.200290,-0.458906,-0.871374
295852,4.298,2.015,-8.650,0.012813,0.065123,0.075216,0.200024,-0.458492,-0.871914
295864,4.354,2.017,-8.668,0.011039,0.073282,0.084617,0.199765,-0.458551,-0.872327
295877,4.266,2.000,-8.633,0.006073,0.080731,0.089760,0.199384,-0.457760,-0.872941
295889,4.306,2.078,-8.661,0.005186,0.096162,0.105369,0.199844,-0.457216,-0.873440
295902,4.278,1.969,-8.636,0.001461,0.105918,0.118494,0.199054,-0.456394,-0.874258
295914,4.198,2.073,-8.727,-0.007053,0.124896,0.136231,0.199344,-0.454296,-0.874930
295927,4.312,2.000,-8.707,-0.029756,0.156291,0.161063,0.198411,-0.453188,-0.876067
295940,4.288,2.036,-8.713,-0.045897,0.177575,0.181993,0.197798,-0.451689,-0.877319
295952,4.400,1.931,-8.784,-0.044655,0.214823,0.208243,0.196018,-0.450854,-0.878512
295965,4.374,1.968,-8.744,-0.058667,0.255263,0.220305,0.194645,-0.449414,-0.880041
295977,4.464,1.928,-8.759,-0.072325,0.289673,0.238396,0.192861,-0.448774,-0.881361
295990,4.452,2.015,-8.823,-0.081548,0.330823,0.253295,0.191832,-0.447065,-0.883045
296002,4.407,1.894,-8.861,-0.090062,0.386162,0.267130,0.189668,-0.444600,-0.884428
296014,4.490,1.676,-8.941,-0.128906,0.462254,0.262873,0.184849,-0.442000,-0.885787
296028,4.525,1.564,-8.996,-0.130502,0.567789,0.234494,0.178829,-0.437675,-0.887484
296040,4.586,1.532,-9.144,-0.167218,0.684144,0.193699,0.172878,-0.433425,-0.888118
296053,4.504,1.767,-9.114,-0.239762,0.820364,0.161418,0.169017,-0.426838,-0.888662
296066,4.607,1.556,-9.128,-0.346539,0.983189,0.131974,0.162061,-0.420008,-0.888986
296078,4.650,1.809,-9.209,-0.484178,1.153110,0.092598,0.157203,-0.412966,-0.888749
296090,4.595,2.108,-9.195,-0.591309,1.337042,0.085149,0.154803,-0.404243,-0.888473
296102,4.661,2.159,-9.153,-0.739590,1.555030,0.090470,0.151589,-0.394922,-0.888319
296115,4.726,2.266,-9.253,-0.998905,1.822326,0.093130,0.145838,-0.382332,-0.888476
296128,4.681,2.526,-9.547,-1.006000,2.176534,0.151485,0.142670,-0.365288,-0.889249
296140,4.838,2.555,-9.162,-0.996777,2.542271,0.252763,0.141804,-0.351280,-0.890716
296153,4.804,3.078,-9.316,-0.848141,2.811518,0.357944,0.146608,-0.332467,-0.893294
296166,4.848,2.958,-9.090,-0.488612,3.205812,0.469332,0.154499,-0.312723,-0.896531
296178,5.022,3.388,-9.038,-0.260337,3.563212,0.586396,0.168435,-0.295895,-0.899694
296190,5.099,3.815,-8.901,-0.074631,4.017811,0.719423,0.187057,-0.277354,-0.903386
296203,5.134,4.073,-8.802,0.049351,4.521365,0.878702,0.207722,-0.252459,-0.908656
296215,5.693,4.373,-8.630,0.161626,5.118746,1.096157,0.229477,-0.233688,-0.914255
296227,7.160,5.041,-8.597,0.248360,5.722868,1.357955,0.252288,-0.222300,-0.761283
296240,9.043,5.004,-8.808,0.323387,6.076544,1.726175,0.268894,-0.214591,-0.623332
296251,11.944,4.356,-9.292,0.189296,6.347920,2.044909,0.271484,-0.226914,-0.494816
296263,14.295,5.484,-10.610,-0.170942,6.414966,2.328878,0.272027,-0.234067,-0.382184
296275,13.385,4.512,-9.340,0.073296,6.259058,2.769642,0.272046,-0.245312,-0.285981
296287,14.028,4.897,-7.420,0.164819,6.175516,2.903734,0.276186,-0.269362,-0.194112
296299,16.910,5.927,-7.729,-0.074808,5.923651,2.858505,0.278300,-0.299813,-0.106476
296310,14.964,4.889,-9.724,-0.391236,5.289021,2.791991,0.272838,-0.322338,-0.018069
296323,11.708,3.615,-10.272,-0.902771,4.718600,2.741086,0.257050,-0.325590,0.060988
296335,5.000,3.439,-9.765,-1.681602,4.008233,2.503587,0.243439,-0.300309,0.133013
296346,3.418,3.801,-9.220,-2.156776,3.199426,2.189111,0.234909,-0.276507,0.206317
296358,13.866,9.357,-13.709,-2.244397,1.915091,1.705955,0.232670,-0.312173,0.276131
296370,9.334,11.769,-12.563,-1.771529,-0.209801,0.922157,0.256575,-0.351073,0.349046
296382,5.751,11.793,-10.365,-0.873859,-1.252736,0.412928,0.302261,-0.383230,0.423223
296394,2.546,9.495,-8.100,0.352654,-2.045225,-0.107120,0.362596,-0.399267,0.497655
296406,1.664,6.846,-6.773,1.194983,-2.373891,-0.483145,0.418901,-0.410411,0.570566
296418,1.796,5.407,-6.322,1.523295,-2.589750,-0.827952,0.463653,-0.426429,0.642420
296429,2.714,4.234,-6.170,1.539790,-2.879927,-1.163713,0.489031,-0.455615,0.710880
296441,3.415,3.504,-6.299,1.348231,-3.223670,-1.434025,0.499992,-0.496825,0.779916
296454,4.359,3.192,-6.411,0.970610,-3.697958,-1.730765,0.499756,-0.552866,0.847557
296465,5.241,3.480,-6.394,0.597956,-4.212330,-1.980501,0.495037,-0.610455,0.910253
296477,5.579,3.673,-6.235,0.453222,-4.589064,-2.100226,0.491362,-0.674576,0.967202
296488,5.423,3.236,-5.465,0.393449,-4.910813,-2.166385,0.485473,-0.736230,1.017452
296501,5.340,2.385,-5.139,0.272837,-5.037100,-2.176850,0.470251,-0.804519,1.061783
296512,5.799,1.700,-5.278,0.092984,-5.016880,-2.166208,0.444244,-0.858966,1.090989
296524,6.507,1.764,-5.783,-0.237279,-4.994532,-2.180929,0.415969,-0.913387,1.115323
296537,7.587,2.473,-6.660,-0.443915,-4.982825,-2.183767,0.392028,-0.967132,1.131634
296548,8.380,3.028,-7.365,-0.484178,-4.984244,-2.167449,0.373736,-1.005969,1.142352
296560,8.892,3.251,-8.152,-0.450300,-4.968458,-2.174189,0.357053,-1.042943,1.148082
296572,9.312,3.232,-8.778,-0.426887,-4.928018,-2.219419,0.340673,-1.074060,1.146055
296584,9.908,3.417,-9.511,-0.465731,-4.848733,-2.327792,0.325195,-1.100012,1.145346
296596,10.709,3.848,-10.251,-0.525328,-4.736458,-2.433327,0.311744,-1.122084,1.145770
296609,12.126,4.340,-11.075,-0.581022,-4.606801,-2.527510,0.298974,-1.146802,1.149517
296623,14.144,4.929,-11.782,-0.609933,-4.503394,-2.644042,0.286942,-1.176115,1.156773
296636,16.266,5.340,-12.031,-0.555480,-4.445395,-2.758801,0.277015,-1.203439,1.162416
296648,18.677,4.999,-11.569,-0.389817,-4.378348,-2.825846,0.266763,-1.231922,1.166270
296662,20.819,3.747,-10.715,-0.315144,-4.292147,-2.781859,0.250655,-1.272586,1.175107
296674,22.922,2.135,-9.146,-0.450477,-4.202398,-2.698495,0.227673,-1.310391,1.177061
296687,23.620,0.605,-6.578,-0.655162,-4.098991,-2.583914,0.197607,-1.358429,1.180169
296699,23.834,-1.166,-2.704,-0.786771,-3.821407,-2.377100,0.162163,-1.411667,1.178495
296713,24.591,-4.108,1.955,-0.896208,-3.355633,-2.001254,0.114698,-1.138654,1.157680
296726,25.844,-8.104,6.933,-1.160667,-2.699365,-1.506924,0.055987,-0.903636,1.120228
296738,26.875,-9.655,11.626,-1.372446,-1.705029,-0.854912,0.000013,-0.698114,1.072477
296752,25.182,-7.428,12.598,-0.911639,-0.599837,-0.108539,-0.040475,-0.507759,1.019225
296764,17.854,-4.742,8.469,0.161094,1.171201,1.003925,-0.060759,-0.316871,0.960385
296776,6.251,-1.957,-6.165,0.688947,1.884051,1.845368,-0.071370,-0.347303,0.898042
296788,-3.673,15.019,-22.450,0.358329,1.450736,1.843949,0.002071,-0.276228,0.847622
296802,-2.592,14.554,-2.344,1.134855,2.602931,2.408340,0.160507,-0.121771,0.802309
296814,10.937,3.023,-11.740,1.979845,3.441891,2.219264,0.184035,-0.151866,0.768325
296826,20.037,10.648,-14.598,3.367588,3.315958,1.084451,0.243525,-0.200454,0.751616
296840,10.580,-5.351,-11.064,2.448457,1.958724,1.770518,0.210456,-0.236454,0.724718
296852,9.191,-5.100,-13.205,1.443478,1.654712,1.257918,0.169358,-0.258383,0.707205
296865,9.008,3.153,-10.261,1.012470,1.031434,0.674371,0.186633,-0.296039,0.697667
296878,5.901,3.269,-9.906,1.050781,0.699043,0.482103,0.207864,-0.313743,0.692140
296890,6.274,1.309,-9.790,0.940812,0.500743,0.399803,0.206953,-0.335739,0.688209
296902,5.280,2.312,-9.268,0.724598,0.242493,0.292139,0.214758,-0.352460,0.686095
296914,4.905,2.147,-8.954,0.505546,0.163386,0.250812,0.218724,-0.366407,0.684754
296927,4.745,2.216,-8.804,0.338819,0.100951,0.217112,0.221873,-0.378792,0.683936
296939,4.901,1.992,-8.917,0.232397,0.042774,0.197601,0.220649,-0.391428,0.683391
296951,4.684,1.747,-8.820,0.153644,-0.007067,0.163901,0.216553,-0.401697,0.683055
296965,4.591,2.077,-8.813,0.175284,0.003043,0.135876,0.216821,-0.410017,0.683048
296977,4.651,1.865,-8.819,0.183975,0.020603,0.117075,0.214680,-0.417792,0.683129
296989,4.527,1.723,-8.771,0.176348,0.031422,0.089051,0.211390,-0.423649,0.683342
297001,4.641,1.864,-8.705,0.168011,0.044548,0.053754,0.209862,-0.430161,0.683830
297014,4.593,1.778,-8.687,0.130941,0.047386,0.020941,0.207306,-0.435576,0.684591
297026,4.423,2.260,-8.541,0.086599,0.056254,0.004268,0.210046,-0.439441,0.685472
297039,4.325,2.647,-8.439,0.058574,0.055190,0.039742,0.216660,-0.442419,0.686265
297051,4.119,2.922,-8.389,0.044030,0.043484,0.112286,0.225710,-0.443412,0.686529
297063,4.001,2.931,-8.421,0.026470,0.027520,0.189974,0.233759,-0.443090,0.686300
297076,4.110,2.577,-8.522,0.005363,0.038872,0.262873,0.236579,-0.443270,0.685334
297089,4.302,2.372,-8.591,0.024874,0.054658,0.292139,0.236758,-0.444865,0.684146
297101,4.559,1.928,-8.633,0.007846,0.071863,0.285222,0.231709,-0.448470,0.683067
297113,4.488,1.890,-8.676,-0.007053,0.089777,0.237332,0.226642,-0.450581,0.682383
297125,4.484,1.975,-8.651,0.000752,0.124364,0.203632,0.223143,-0.452183,0.681973
297139,4.536,2.009,-8.656,-0.014502,0.152034,0.181461,0.219980,-0.453568,0.681621
297151,4.481,1.844,-8.697,-0.030111,0.175802,0.145809,0.215363,-0.454072,0.681551
297163,4.420,2.124,-8.617,-0.025144,0.208970,0.109626,0.214474,-0.453963,0.681835
297176,4.502,2.200,-8.577,0.033742,0.220499,0.130555,0.215089,-0.454581,0.681899
297188,4.543,2.237,-8.635,0.094048,0.229190,0.175075,0.216532,-0.455331,0.681541
297200,4.672,1.594,-8.644,0.078440,0.254199,0.215338,0.210745,-0.456922,0.680519
297213,4.627,1.868,-8.684,0.123846,0.289318,0.147938,0.208950,-0.457105,0.680232
297226,4.527,2.257,-8.560,0.068862,0.318762,0.240170,0.211173,-0.456616,0.679012
297238,4.653,2.102,-8.612,0.012635,0.356896,0.343222,0.210665,-0.457003,0.676888
297250,4.459,2.000,-8.704,-0.062747,0.394676,0.398029,0.208355,-0.454585,0.674294
297263,4.688,1.731,-8.932,-0.117732,0.470768,0.424103,0.202115,-0.452282,0.671152
297275,4.535,1.376,-9.140,-0.181939,0.590492,0.380292,0.192178,-0.446915,0.668604
297287,4.522,1.182,-9.385,-0.236924,0.775667,0.322470,0.180461,-0.438889,0.666403
297299,4.550,1.145,-9.426,-0.343346,1.014406,0.250103,0.168432,-0.429240,0.664662
297312,4.590,1.234,-9.624,-0.537566,1.260419,0.169222,0.155689,-0.416387,0.663375
297325,4.603,1.666,-9.463,-0.583505,1.563898,0.117785,0.148254,-0.402247,0.662522
297399,3.722,4.263,-11.373,0.249956,4.500435,1.156818,0.209354,-0.223050,0.637411
297411,2.752,4.597,-11.565,0.499871,5.438722,1.371081,0.231187,-0.166065,0.639580
297422,4.298,4.482,-11.199,0.616048,6.510746,1.618157,0.250124,-0.123371,0.641518
297435,5.385,4.943,-11.489,0.594231,7.288690,1.879955,0.269411,-0.072521,0.645805
297446,9.191,5.042,-11.598,0.508030,8.114524,2.341294,0.280196,-0.056024,0.657734
297457,15.639,3.382,-13.258,0.041369,8.449222,2.726542,0.267968,-0.058201,0.672212
297469,18.627,6.122,-11.438,-0.126245,8.283735,2.993661,0.266665,-0.070746,0.685913
297482,21.824,5.389,-8.613,-0.132631,7.627644,3.188945,0.260275,-0.102019,0.700674
297493,20.418,5.611,-11.831,-0.409860,6.794892,3.135202,0.252974,-0.135217,0.720186
297505,13.851,4.850,-13.607,-1.101780,5.893498,2.962444,0.239786,-0.142570,0.737108
297518,5.048,4.288,-12.503,-1.683198,4.860673,2.747826,0.226909,-0.113332,0.754843
297529,2.370,4.944,-9.189,-1.768868,3.993866,2.461551,0.235684,-0.090126,0.778244
297541,13.945,9.086,-13.462,-1.679651,2.742699,1.869490,0.238543,-0.137317,0.799890
297552,9.246,11.181,-13.195,-1.289437,0.471300,0.960469,0.263939,-0.183837,0.831952
297565,4.700,10.736,-10.237,-0.353634,-0.908993,0.225271,0.311984,-0.222505,0.864607
297577,1.789,8.137,-7.653,0.634672,-1.841781,-0.403860,0.370388,-0.245000,0.900822
297588,0.781,6.054,-6.177,1.136983,-2.254699,-0.762502,0.423488,-0.256531,0.933829
297601,-0.198,4.608,-5.121,1.386720,-2.634802,-1.099682,0.472257,-0.258080,0.969821
297612,0.181,3.717,-4.745,1.425387,-2.928882,-1.352612,0.506471,-0.265578,1.000759
297624,1.391,2.920,-4.991,1.290763,-3.196001,-1.533529,0.521149,-0.302380,1.029667
297636,2.823,2.442,-5.489,0.917754,-3.639780,-1.788232,0.515934,-0.361421,1.055162
297648,4.374,2.843,-5.789,0.496855,-4.161248,-2.017217,0.506357,-0.437987,1.075185
297660,5.276,3.909,-5.874,0.291284,-4.681296,-2.157871,0.504612,-0.521064,1.091391
297671,5.913,4.167,-5.802,0.307956,-5.102018,-2.210905,0.503647,-0.601703,1.097104
297683,6.346,3.614,-5.477,0.340947,-5.371265,-2.237510,0.497221,-0.688311,1.107809
297696,6.484,2.570,-5.020,0.255810,-5.602556,-2.279192,0.479744,-0.779280,1.123214
297707,6.285,1.438,-4.921,-0.040043,-5.643705,-2.333290,0.447700,-0.850075,1.134921
297720,6.632,1.350,-5.371,-0.476728,-5.476268,-2.387033,0.411272,-0.920212,1.151957
297733,7.623,2.023,-6.397,-0.837676,-5.253669,-2.412575,0.378902,-0.978388,1.168416
297745,9.237,2.795,-7.959,-0.979395,-5.112305,-2.406899,0.351848,-1.022606,1.181337
297758,10.657,3.182,-9.396,-0.982410,-5.072220,-2.416831,0.326104,-1.064974,1.195804
297771,12.012,3.255,-11.125,-0.937890,-5.109468,-2.455143,0.300964,-1.100397,1.209235
297784,13.546,3.022,-12.087,-0.941970,-5.158422,-2.504097,0.275030,-1.134360,1.221689
297796,15.384,3.069,-12.871,-1.065596,-5.182899,-2.556244,0.250051,-1.163686,1.230778
297808,17.825,3.073,-13.454,-1.216538,-5.156825,-2.556244,0.224533,-1.195014,1.238786
297822,20.646,2.810,-13.161,-1.338746,-5.084991,-2.448403,0.195436,-1.239624,1.249548
297835,23.810,1.798,-11.237,-1.462196,-4.931743,-2.231657,0.164241,-1.286568,1.254526
297848,26.214,1.366,-8.600,-1.573052,-4.745504,-2.066703,0.133075,-1.339665,1.257813
297861,27.766,1.186,-4.301,-1.529241,-4.548624,-1.917003,0.104987,-1.402470,1.260927
297873,26.370,-2.345,0.407,-1.425125,-4.179339,-1.751694,0.068303,-1.128157,1.239698
297886,26.079,-7.501,5.539,-1.626795,-3.504270,-1.628954,0.011709,-0.899218,1.208238
297900,27.973,-10.797,11.684,-1.907749,-2.616533,-1.469676,-0.051529,-0.704679,1.171435
297913,29.466,-10.674,16.145,-1.702000,-1.427977,-1.133028,-0.099997,-0.526434,1.129334
297926,20.834,-4.318,12.736,-0.426710,0.375875,-0.316062,-0.113899,-0.351630,1.082341
297938,6.251,0.325,-5.014,1.149754,2.068161,0.782212,-0.085492,-0.387763,1.029698
297951,-7.692,14.436,-23.891,1.013179,1.766100,0.792500,-0.008240,-0.290238,0.986192
297963,-9.020,16.722,-4.978,1.510524,2.893463,1.717129,0.118651,-0.111362,0.944539
297976,9.760,-3.006,-11.279,2.597802,3.847359,2.592450,0.113931,-0.130859,0.895363
297989,27.208,10.152,-15.257,4.047091,3.508582,1.420744,0.182243,-0.190162,0.866337
298001,11.183,-7.546,-11.395,2.705998,1.522039,2.320719,0.143364,-0.236409,0.830666
298014,5.788,-4.454,-13.347,1.543515,1.482840,1.356359,0.112923,-0.237200,0.807063
298027,10.724,1.230,-11.225,1.050072,1.184327,0.834004,0.120761,-0.279881,0.792081
298039,5.751,3.795,-9.553,1.072598,0.633061,0.526800,0.154040,-0.300883,0.783736
298051,6.065,2.521,-9.635,1.052200,0.552535,0.391999,0.171613,-0.322552,0.778321
298063,5.225,2.516,-9.305,0.858690,0.302621,0.318745,0.186684,-0.339154,0.774802
298076,4.763,2.740,-8.939,0.652763,0.221563,0.256488,0.202017,-0.352365,0.772745
298088,4.577,2.160,-8.948,0.473442,0.133942,0.274580,0.207594,-0.363492,0.771082
298100,4.489,2.356,-8.699,0.343076,0.104854,0.263228,0.213804,-0.374119,0.769982
298113,4.844,1.858,-9.012,0.278690,0.105208,0.234672,0.212799,-0.385368,0.769233
298126,4.839,1.687,-9.142,0.239846,0.071685,0.194763,0.209484,-0.395186,0.768982
298137,4.348,2.165,-8.821,0.249779,0.105918,0.150421,0.212208,-0.400608,0.769468
298150,4.368,2.090,-8.817,0.227608,0.111062,0.128250,0.213953,-0.405431,0.770191
298163,4.500,2.139,-8.693,0.202599,0.119753,0.100048,0.215846,-0.411578,0.771285
298175,4.525,2.307,-8.703,0.169076,0.123832,0.083552,0.218739,-0.417329,0.772577
298187,4.452,2.545,-8.585,0.159320,0.125428,0.093662,0.224030,-0.422326,0.773854
298200,4.322,2.629,-8.529,0.118525,0.121704,0.133571,0.229590,-0.425734,0.774783
298212,4.231,2.539,-8.585,0.053608,0.115141,0.196182,0.232828,-0.427783,0.775096
298224,4.369,2.409,-8.570,0.014764,0.121704,0.249038,0.233807,-0.430986,0.774874
298236,4.508,2.215,-8.575,-0.015212,0.124364,0.269259,0.232170,-0.435146,0.774440
298249,4.555,1.933,-8.618,-0.023016,0.128089,0.257552,0.227446,-0.438983,0.773927
298262,4.719,1.872,-8.616,-0.021597,0.141037,0.210727,0.222412,-0.443893,0.773886
298274,4.584,1.950,-8.606,0.001993,0.145649,0.138892,0.219219,-0.447100,0.774617
298287,4.503,2.146,-8.618,0.025938,0.160902,0.117430,0.218721,-0.448825,0.775501
298299,4.500,2.245,-8.601,0.042434,0.185557,0.130378,0.219553,-0.450303,0.776200
298311,4.527,2.259,-8.478,0.081987,0.207019,0.181638,0.221107,-0.452290,0.776352
298323,4.602,2.266,-8.521,0.102562,0.218016,0.220305,0.222609,-0.454449,0.776151
298336,4.721,2.017,-8.443,0.115687,0.224046,0.248684,0.221549,-0.457721,0.775550
298348,4.744,1.595,-8.582,0.160562,0.216951,0.153791,0.216280,-0.460395,0.775980
298361,4.657,2.004,-8.522,0.133070,0.223691,0.114947,0.215852,-0.462018,0.776785
298374,4.654,1.893,-8.665,0.072764,0.254731,0.170818,0.213320,-0.462363,0.776767
298386,4.568,1.968,-8.676,0.029131,0.295171,0.180928,0.211439,-0.461570,0.776611
298398,4.585,2.081,-8.668,-0.024080,0.345012,0.227754,0.210374,-0.460527,0.775917
298411,4.488,1.903,-8.817,-0.102300,0.411704,0.268727,0.206396,-0.456843,0.774536
298423,4.539,1.857,-8.913,-0.150722,0.516707,0.269968,0.201767,-0.452821,0.773210
298436,4.464,1.669,-9.152,-0.200209,0.658070,0.257020,0.194593,-0.445285,0.771698
298448,4.586,1.404,-9.445,-0.286233,0.853000,0.218176,0.184338,-0.436861,0.770430
298461,4.554,1.347,-9.480,-0.393896,1.088547,0.158580,0.172990,-0.425413,0.769381
298473,4.621,1.314,-9.508,-0.503334,1.370920,0.094017,0.161705,-0.413625,0.768676
298486,4.590,1.706,-9.488,-0.738704,1.682382,0.020763,0.152342,-0.398106,0.768481
298499,4.755,2.104,-9.500,-0.811248,2.003776,0.031583,0.146953,-0.382039,0.767915
298511,4.371,2.953,-9.721,-0.830759,2.399133,0.110690,0.150745,-0.360756,0.766582
298523,4.136,4.037,-10.331,-0.840337,2.846283,0.314311,0.162337,-0.332473,0.763579
298536,3.804,4.253,-10.470,-0.450123,3.512484,0.637833,0.178363,-0.293533,0.757481
298549,3.807,3.779,-10.966,-0.191695,4.174784,0.903001,0.190378,-0.249615,0.749391
298561,3.314,4.242,-11.367,-0.007053,5.075823,1.098640,0.206396,-0.199031,0.741367
298573,3.530,4.610,-11.546,0.152580,6.078140,1.273882,0.224599,-0.144517,0.733021
298587,4.388,5.377,-11.964,0.186635,7.153179,1.535325,0.245454,-0.077907,0.721236
298599,8.013,6.196,-11.987,0.157901,8.134212,1.988505,0.264126,-0.046275,0.708955
298611,14.319,4.520,-12.691,-0.019114,8.607967,2.499153,0.260163,-0.040361,0.692503
298624,17.316,5.121,-11.569,-0.355585,8.572671,2.836156,0.253650,-0.043168,0.671750
298637,21.624,6.452,-9.033,-0.342282,8.015197,3.055031,0.250969,-0.073692,0.590003
298648,20.482,6.205,-12.088,-0.606208,6.967828,3.062303,0.245182,-0.109286,0.525081
298660,16.678,5.405,-13.825,-1.112777,6.203718,2.862762,0.232875,-0.126133,0.471107
298673,7.554,4.912,-13.909,-1.595578,5.118037,2.665881,0.221325,-0.108175,0.423709
298684,2.200,5.340,-10.175,-1.676813,3.841683,2.406211,0.231383,-0.082963,0.391667
298696,13.930,8.982,-14.548,-1.456520,2.410662,2.029833,0.235470,-0.130866,0.367045
298708,9.519,10.033,-14.309,-1.051052,-0.029415,1.245148,0.255038,-0.181257,0.353768
298720,5.144,9.598,-10.986,-0.448704,-1.376717,0.697607,0.293966,-0.225056,0.348393
298732,1.649,7.613,-7.913,0.357265,-2.417701,0.161063,0.346597,-0.250834,0.355612
298743,-0.584,5.156,-5.564,0.871993,-2.948038,-0.214961,0.397009,-0.244315,0.367970
298756,-1.166,4.062,-4.633,1.023644,-3.122037,-0.430466,0.441648,-0.230605,0.384903
298768,-0.485,2.787,-4.237,0.942941,-3.259144,-0.711242,0.466514,-0.230812,0.405506
298779,1.104,1.678,-4.607,0.577736,-3.460991,-1.057823,0.459211,-0.266832,0.423410
298791,2.060,1.729,-5.034,0.162690,-3.712679,-1.364851,0.445265,-0.321096,0.443152
298803,3.196,2.715,-5.430,-0.246857,-4.073272,-1.686422,0.438762,-0.388634,0.464803
298815,4.231,3.815,-5.901,-0.374741,-4.446459,-1.915052,0.439661,-0.462601,0.486347
298827,5.208,4.166,-6.485,-0.190098,-4.790911,-2.055351,0.440407,-0.538279,0.504280
298839,6.426,3.409,-6.843,-0.005456,-5.166403,-2.193877,0.430851,-0.618206,0.521650
298852,6.935,2.303,-6.661,0.012813,-5.541541,-2.337724,0.410393,-0.704407,0.540359
298864,6.529,1.275,-6.368,-0.166686,-5.767155,-2.436519,0.379935,-0.777982,0.555026
298877,6.281,0.566,-6.498,-0.505817,-5.712170,-2.442018,0.340245,-0.845231,0.568863
298890,6.833,0.660,-7.170,-0.884502,-5.496311,-2.368942,0.300591,-0.901924,0.578629
298902,8.661,1.905,-8.680,-1.145058,-5.285064,-2.248330,0.272593,-0.947712,0.582857
298914,10.709,3.509,-10.129,-1.183015,-5.185559,-2.165676,0.255681,-0.990643,0.585416
298928,13.168,4.263,-12.078,-1.094685,-5.190348,-2.243364,0.239593,-1.039847,0.592172
298941,15.531,4.623,-12.801,-0.984538,-5.248880,-2.479620,0.226594,-1.085236,0.598796
298953,18.116,5.113,-13.228,-0.935052,-5.276905,-2.798531,0.216230,-1.127617,0.606178
298967,21.003,5.470,-13.221,-0.829162,-5.246752,-3.059088,0.205868,-1.181872,0.621415
298980,24.066,5.099,-12.042,-0.662612,-5.152036,-3.154335,0.196077,-1.234924,0.634025
298992,27.143,4.167,-8.404,-0.529230,-4.965088,-3.050751,0.184859,-1.293335,0.642473
299004,28.815,2.797,-3.996,-0.537566,-4.708257,-2.813253,0.169406,-1.360234,0.648812
299018,28.782,-0.825,0.912,-0.787835,-4.304917,-2.521125,0.137847,-1.099306,0.645516
299031,27.166,-6.713,5.665,-1.343712,-3.686606,-2.291253,0.081143,-0.873678,0.630696
299043,27.452,-10.141,10.196,-1.979761,-2.764992,-2.160000,0.014761,-0.676866,0.609136
299057,29.490,-9.528,14.312,-1.888238,-1.475513,-1.720832,-0.041758,-0.498226,0.584314
299070,25.756,-5.371,14.189,-0.848318,-0.305048,-0.851897,-0.067209,-0.329499,0.549511
299083,7.936,-4.220,1.497,0.477522,1.340412,0.595619,-0.107538,-0.125054,0.500470
299096,-3.351,6.336,-21.299,0.611791,1.445061,1.388285,-0.057872,-0.076026,0.451564
299108,-12.176,16.673,-11.898,0.637155,2.292534,1.992585,0.039159,0.044918,0.411728
299120,6.604,-0.408,-2.640,1.768065,3.866160,2.798908,0.047414,-0.045732,0.366456
299133,19.052,11.568,-17.955,2.662365,4.110576,1.506591,0.117988,-0.080103,0.342432
299146,20.937,2.652,-9.154,3.354817,2.784913,1.667643,0.156393,-0.163854,0.320171
299158,6.788,-6.365,-12.791,2.177790,1.806895,1.986909,0.117835,-0.178635,0.295918
299170,12.044,-2.073,-12.625,1.169974,1.613739,0.993460,0.104635,-0.223278,0.283606
299183,7.418,2.095,-10.482,1.163234,0.861159,0.660891,0.123877,-0.254950,0.276400
299195,6.739,3.330,-9.606,0.966176,0.669777,0.380470,0.150274,-0.285537,0.274823
299207,5.415,2.119,-9.580,0.909240,0.397869,0.315730,0.163955,-0.305276,0.274717
299219,5.460,2.491,-9.048,0.655956,0.294107,0.225094,0.177871,-0.327040,0.276206
299233,5.051,1.858,-9.134,0.384935,0.139263,0.177026,0.182116,-0.344086,0.277892
299245,4.630,2.117,-8.801,0.192488,0.066896,0.143149,0.186828,-0.358091,0.280259
299257,4.559,2.184,-8.674,0.097241,0.062107,0.123993,0.191033,-0.370566,0.282726
299270,4.804,2.098,-8.830,0.015651,0.029649,0.094017,0.192467,-0.383631,0.285187
299282,4.705,2.084,-8.799,0.104690,0.015814,0.058543,0.194729,-0.394691,0.287916
299294,4.348,2.162,-8.719,0.141938,0.038162,0.024133,0.198472,-0.401270,0.290893
299307,4.323,2.351,-8.569,0.147791,0.056786,0.005332,0.204357,-0.407423,0.294061
299319,4.426,2.302,-8.660,0.135198,0.078958,-0.012050,0.208524,-0.413303,0.297287
299332,4.444,2.550,-8.561,0.103094,0.087117,-0.014888,0.214790,-0.419096,0.300546
299344,4.186,2.844,-8.439,0.083761,0.100951,0.013491,0.223825,-0.422235,0.303625
299357,4.123,2.896,-8.419,0.068507,0.119575,0.074506,0.232508,-0.424195,0.306140
299369,4.092,2.813,-8.448,0.058219,0.136780,0.135876,0.239186,-0.425414,0.308153
299381,4.173,2.773,-8.492,0.054672,0.169061,0.184653,0.244451,-0.426762,0.309705
299394,4.365,2.612,-8.521,0.041547,0.186798,0.218531,0.247051,-0.429418,0.310687
299406,4.616,2.259,-8.605,0.042966,0.196199,0.229883,0.245189,-0.433888,0.311517
299418,4.674,2.156,-8.576,0.017424,0.203471,0.211791,0.242178,-0.438508,0.312270
299430,4.618,2.241,-8.553,0.016360,0.210566,0.191038,0.240470,-0.442138,0.313059
299444,4.674,2.298,-8.506,0.005008,0.208438,0.184831,0.239409,-0.445900,0.313473
299456,4.636,2.352,-8.436,-0.005988,0.205245,0.187314,0.239147,-0.449676,0.314116
299468,4.622,2.396,-8.462,0.006427,0.198505,0.203632,0.239467,-0.452828,0.314518
299481,4.731,2.401,-8.455,-0.005456,0.198860,0.233075,0.239536,-0.456591,0.314365
299494,4.747,2.267,-8.404,-0.002530,0.198327,0.234139,0.238306,-0.460422,0.314155
299505,4.754,2.088,-8.441,0.026470,0.198860,0.216048,0.235579,-0.464010,0.314374
299517,4.806,2.113,-8.394,0.091920,0.205245,0.186959,0.234149,-0.467720,0.314602
299531,4.714,2.175,-8.466,0.156837,0.215355,0.170818,0.234392,-0.469341,0.314724
299543,4.765,2.009,-8.585,0.135907,0.254554,0.220305,0.232110,-0.470597,0.314470
299555,4.785,1.988,-8.484,0.010507,0.285061,0.237864,0.228684,-0.472118,0.313859
299568,4.569,2.132,-8.640,-0.084031,0.328340,0.239815,0.225938,-0.469838,0.312951
299580,4.597,2.206,-8.744,-0.127842,0.412236,0.253295,0.223647,-0.466934,0.312084
299593,4.520,2.153,-8.836,-0.182294,0.516352,0.260035,0.220173,-0.461572,0.310846
299606,4.537,1.935,-8.941,-0.262997,0.647960,0.260745,0.213646,-0.454922,0.309401
299618,4.590,1.864,-9.031,-0.334832,0.826749,0.232720,0.206385,-0.447713,0.308255
299630,4.839,1.662,-9.102,-0.396557,1.026822,0.187314,0.196873,-0.441107,0.307209
299642,4.839,1.622,-9.163,-0.456153,1.182731,0.142084,0.187260,-0.433234,0.306251
299655,4.785,1.926,-9.110,-0.580667,1.440094,0.072733,0.179972,-0.421976,0.305720
299667,4.845,2.161,-8.959,-0.713694,1.703134,0.035662,0.175152,-0.411670,0.305477
299680,5.012,2.237,-8.855,-0.875456,1.987458,0.020586,0.169131,-0.399810,0.305126
299693,4.765,3.150,-9.405,-0.864281,2.288455,0.083552,0.171912,-0.380845,0.304343
299705,4.526,3.221,-9.446,-0.909511,2.714320,0.303314,0.175526,-0.358986,0.301696
299718,4.538,4.031,-10.134,-0.898337,3.111628,0.449644,0.183532,-0.329756,0.298035
299730,4.144,3.397,-10.096,-0.588117,3.688435,0.638897,0.189777,-0.296840,0.293746
299743,4.232,3.523,-10.508,-0.438062,4.389224,0.765185,0.196608,-0.255423,0.288687
299755,3.882,4.437,-10.772,-0.325964,5.248227,0.914885,0.211605,-0.209150,0.284586
299768,4.348,5.958,-10.999,-0.189389,6.409290,1.223154,0.236854,-0.153148,0.278736
299781,6.267,6.685,-11.301,-0.075163,7.365846,1.636781,0.262011,-0.106335,0.286639
299792,10.062,6.273,-11.681,-0.016099,7.990543,2.127386,0.275186,-0.092860,0.304884
299804,15.420,4.775,-11.837,-0.359664,8.345460,2.586065,0.267735,-0.091751,0.327892
299816,17.937,4.668,-10.605,-0.816924,8.292249,2.822853,0.253988,-0.104184,0.344413
299829,21.144,7.280,-8.842,-0.974428,7.611858,2.985502,0.248469,-0.131541,0.364582
299840,19.913,5.106,-11.993,-1.290501,6.760305,2.915973,0.232417,-0.161260,0.402180
299852,15.501,5.157,-12.867,-1.830061,5.971718,2.705257,0.214767,-0.174530,0.448400
299865,7.397,5.252,-12.631,-2.345852,4.874685,2.509795,0.201431,-0.157563,0.497730
299876,5.715,7.615,-10.561,-2.059932,3.475591,2.373753,0.219669,-0.160682,0.556870
299887,16.853,10.512,-15.445,-1.454391,2.268766,2.169955,0.227659,-0.209999,0.613231
299899,10.006,10.849,-14.493,-0.615077,-0.277556,1.399105,0.255332,-0.256292,0.667175
299912,4.489,9.104,-10.486,0.297314,-1.896057,0.737515,0.303408,-0.296218,0.723510
299924,1.032,7.279,-7.231,1.124213,-2.734129,0.303314,0.366686,-0.311261,0.783037
299935,-0.754,5.277,-5.096,1.685056,-3.061909,0.075571,0.428930,-0.295172,0.837119
299948,-1.107,4.484,-4.365,1.903753,-3.157157,-0.030319,0.489219,-0.276366,0.890022
299960,0.099,3.380,-4.443,1.859233,-3.273334,-0.195805,0.526864,-0.286376,0.935699
299971,2.072,2.295,-4.976,1.457313,-3.552514,-0.477823,0.528787,-0.334279,0.974322
299982,2.806,2.348,-5.306,0.956066,-3.919138,-0.779530,0.522554,-0.390346,1.007443
299995,3.551,3.618,-5.533,0.408702,-4.386862,-1.101811,0.525929,-0.462258,1.043062
300007,4.402,5.051,-5.538,0.199938,-4.784881,-1.311640,0.538605,-0.537461,1.075589
300019,4.678,5.360,-5.399,0.319308,-5.064770,-1.447682,0.553747,-0.612237,1.100623
300030,5.291,4.756,-5.500,0.450030,-5.238770,-1.589401,0.559154,-0.681612,1.118377
300042,5.904,4.100,-5.519,0.433002,-5.338807,-1.751162,0.555064,-0.755230,1.134165
300054,6.394,3.638,-5.816,0.238073,-5.423767,-1.998948,0.541814,-0.823486,1.141868
300065,7.111,3.521,-6.358,-0.033658,-5.437779,-2.232721,0.522413,-0.880634,1.142161
300078,7.702,3.643,-6.992,-0.245438,-5.414898,-2.371070,0.500619,-0.940684,1.140054
300090,8.744,4.014,-7.934,-0.440900,-5.378715,-2.458691,0.478186,-0.989011,1.135624
300101,9.965,4.332,-9.090,-0.601951,-5.364348,-2.492923,0.455196,-1.027003,1.128555
300114,11.780,4.715,-10.256,-0.715468,-5.342886,-2.531412,0.430258,-1.072801,1.125732
300127,14.086,5.167,-11.242,-0.844593,-5.322844,-2.613712,0.404821,-1.117787,1.122436
300140,17.144,5.508,-12.175,-0.992875,-5.312024,-2.763412,0.377797,-1.163612,1.119444
300153,20.353,5.802,-12.901,-1.140979,-5.331357,-2.952134,0.349718,-1.210207,1.117157
300166,23.336,5.875,-12.799,-1.207138,-5.386519,-3.128794,0.321765,-1.259094,1.115487
300179,26.065,4.602,-10.541,-1.210685,-5.353528,-3.255082,0.290772,-1.314899,1.113753
300191,27.951,3.254,-6.922,-1.248465,-5.207376,-3.272996,0.258458,-1.373529,1.108075
300205,28.064,1.393,-2.124,-1.248287,-4.869308,-3.112121,0.220376,-1.449228,1.105088
300217,26.733,-2.552,2.503,-1.327749,-4.291615,-2.754189,0.172221,-1.179557,1.081761
300230,26.390,-8.398,7.067,-1.753082,-3.458508,-2.283804,0.100946,-0.950212,1.049604
300243,28.498,-12.086,11.480,-2.356317,-2.468075,-1.815547,0.021904,-0.746386,1.009193
300256,31.278,-10.515,15.132,-2.332017,-1.406338,-1.244771,-0.039605,-0.558953,0.963443
300269,22.039,-2.726,11.721,-0.689572,0.160902,-0.041848,-0.055285,-0.377278,0.911381
300282,3.666,-2.613,-4.590,0.687351,1.630767,1.263240,-0.087179,-0.389706,0.846341
300295,-12.224,15.615,-22.905,0.461559,1.430162,1.444512,-0.013342,-0.275905,0.796916
300308,-7.986,14.292,-0.296,1.480194,3.341500,2.389184,0.121247,-0.037974,0.765533
300320,14.296,-0.276,-12.349,2.459808,4.292557,2.770175,0.132942,-0.079667,0.733856
300333,23.777,14.149,-16.824,3.826266,3.794857,1.478744,0.212138,-0.129552,0.720904
300346,10.666,-5.515,-10.181,3.254426,2.285794,2.294823,0.187858,-0.175899,0.696048
300359,10.693,-4.552,-14.327,2.075625,2.177244,1.379772,0.164198,-0.200424,0.681703
300371,11.517,0.977,-11.755,1.323576,1.346443,0.925882,0.166905,-0.247489,0.673153
300384,6.812,3.802,-10.366,1.305130,0.720859,0.569901,0.196110,-0.274640,0.669961
300396,6.508,1.420,-10.247,1.130953,0.481233,0.450885,0.199532,-0.300304,0.668168
300409,5.239,2.600,-9.146,0.773375,0.214468,0.287705,0.212979,-0.321024,0.668380
300422,4.869,1.856,-9.237,0.520800,0.125961,0.246378,0.214887,-0.336809,0.668691
300434,4.587,2.150,-8.881,0.334030,0.074346,0.228818,0.218038,-0.350633,0.669121
300446,4.421,2.195,-8.758,0.212177,0.062285,0.203632,0.220437,-0.362059,0.669599
300459,4.586,2.070,-8.826,0.149388,0.075410,0.173479,0.220413,-0.373352,0.669920
300471,4.507,2.157,-8.792,0.192311,0.073991,0.134457,0.221781,-0.382926,0.670560
300483,4.372,2.124,-8.721,0.220158,0.091906,0.099516,0.223239,-0.390302,0.671405
300495,4.276,2.139,-8.719,0.232751,0.114077,0.064219,0.224942,-0.395712,0.672514
300508,4.420,2.065,-8.831,0.163755,0.143520,0.025020,0.224705,-0.400989,0.673796
300520,4.423,2.356,-8.597,0.126329,0.176156,0.002494,0.227476,-0.406694,0.675209
300532,4.478,2.609,-8.546,0.078617,0.190346,0.020763,0.232112,-0.412432,0.676459
300545,4.251,2.841,-8.454,0.047577,0.171545,0.078054,0.238942,-0.415842,0.677345
300557,4.199,2.780,-8.489,0.024874,0.160016,0.159644,0.244099,-0.418485,0.677585
300569,4.319,2.617,-8.541,-0.000313,0.158065,0.225980,0.246452,-0.421800,0.677173
300581,4.501,2.272,-8.543,-0.019823,0.160016,0.262341,0.244531,-0.426526,0.676165
300595,4.571,2.113,-8.616,-0.017695,0.169061,0.255779,0.240853,-0.430712,0.674629
300607,4.628,2.133,-8.626,-0.001199,0.190878,0.228286,0.237930,-0.435047,0.673601
300619,4.603,2.095,-8.594,-0.007585,0.200988,0.210194,0.234946,-0.438723,0.672573
300632,4.577,2.158,-8.533,-0.026209,0.217661,0.176672,0.232847,-0.441720,0.671687
300644,4.647,2.229,-8.605,-0.026209,0.216951,0.177736,0.231530,-0.444914,0.670824
300657,4.596,2.164,-8.518,-0.019823,0.228658,0.151485,0.229945,-0.447421,0.670077
300669,4.652,2.380,-8.418,-0.002264,0.249410,0.129314,0.231172,-0.450721,0.669748
300682,4.574,2.552,-8.372,0.094403,0.254199,0.168867,0.235413,-0.452892,0.669190
300694,4.774,2.288,-8.376,0.120122,0.273355,0.260213,0.236344,-0.456792,0.667795
300706,4.804,1.923,-8.527,0.101852,0.280805,0.300830,0.232811,-0.459649,0.665793
300719,4.712,1.871,-8.583,0.109479,0.313795,0.287882,0.229237,-0.460418,0.663664
300732,4.779,1.717,-8.634,0.050415,0.365942,0.277418,0.223547,-0.460907,0.661462
300744,4.703,1.993,-8.666,0.001993,0.415960,0.257020,0.220853,-0.460245,0.659731
300756,4.580,2.131,-8.713,-0.104251,0.487618,0.277772,0.218786,-0.457455,0.657873
300769,4.656,1.969,-8.830,-0.154447,0.594217,0.292671,0.214266,-0.453440,0.655607
300781,4.629,1.841,-9.087,-0.241536,0.738774,0.275644,0.207714,-0.447333,0.653638
300793,4.591,1.731,-9.314,-0.335364,0.948070,0.260745,0.199429,-0.438223,0.651645
300807,4.651,1.479,-9.371,-0.424936,1.173330,0.217112,0.187558,-0.425914,0.649468
300819,4.767,1.330,-9.338,-0.559915,1.461024,0.141552,0.174785,-0.415166,0.647941
300831,4.815,1.601,-9.264,-0.784642,1.788094,0.043999,0.163779,-0.402837,0.647122
300844,4.929,2.072,-9.421,-0.835548,2.099556,0.020763,0.156986,-0.386973,0.646591
300857,4.556,2.787,-9.461,-0.863040,2.513182,0.129136,0.157880,-0.364507,0.645594
300869,4.298,3.991,-10.588,-0.990392,2.914748,0.297460,0.166307,-0.335567,0.644519
300881,3.545,4.597,-10.673,-0.648422,3.509292,0.551986,0.183031,-0.296392,0.643385
300894,3.543,3.942,-11.052,-0.444447,4.243958,0.834359,0.193375,-0.248684,0.641204
300907,3.128,4.159,-11.648,-0.272398,5.267382,1.037980,0.205193,-0.189128,0.624227
300918,3.030,4.777,-12.102,-0.145933,6.411241,1.187680,0.220906,-0.132190,0.616133
300931,4.342,6.094,-12.833,-0.025144,7.655136,1.456573,0.242330,-0.064291,0.625726
300942,8.754,6.725,-12.987,-0.000135,8.649295,2.007661,0.259747,-0.035547,0.650032
300954,14.398,5.307,-12.439,-0.151787,9.072322,2.508377,0.259543,-0.025776,0.684738
300966,18.644,5.069,-11.454,-0.665095,9.029753,2.865245,0.249155,-0.034734,0.711146
300978,23.180,8.076,-8.503,-0.800428,8.381643,3.163936,0.247780,-0.070956,0.745793
300990,20.613,6.118,-11.937,-1.033315,7.386953,3.219985,0.237217,-0.095872,0.788719
301002,15.574,5.654,-13.913,-1.777914,6.378250,2.938321,0.221156,-0.107552,0.839514
301014,9.297,5.591,-13.991,-2.260537,5.415132,2.720688,0.207638,-0.101493,0.890366
301026,4.381,7.482,-10.545,-2.192250,3.921854,2.554847,0.223661,-0.091824,0.941378
301037,14.538,10.645,-14.288,-1.532079,2.549721,2.272652,0.235829,-0.141813,0.991871
301049,10.568,11.134,-14.637,-0.989859,0.492052,1.617625,0.258784,-0.189050,1.035953
301062,5.450,10.006,-10.673,-0.186551,-1.314815,0.830812,0.303325,-0.236333,1.085155
301074,2.376,8.629,-7.693,0.723534,-2.497873,0.184121,0.366273,-0.271750,1.139046
301085,0.530,6.477,-5.472,1.384946,-3.185713,-0.228441,0.433019,-0.286490,1.190841
301097,-0.578,4.800,-4.364,1.726029,-3.564221,-0.497512,0.493841,-0.282697,1.233108
301109,-0.315,3.983,-3.797,1.776047,-3.729175,-0.666722,0.546691,-0.286088,1.270006
301121,1.039,2.740,-3.657,1.567283,-3.945921,-0.888612,0.572557,-0.329173,1.300613
301132,2.389,1.778,-4.016,1.057699,-4.246917,-1.172227,0.561922,-0.394230,1.319363
301145,3.135,2.125,-4.425,0.548470,-4.514037,-1.403695,0.549292,-0.472029,1.331042
301157,3.895,3.516,-4.673,0.080923,-4.813260,-1.630373,0.548268,-0.548947,1.342527
301168,4.937,5.069,-5.017,-0.042704,-5.070623,-1.776703,0.556488,-0.624434,1.342089
301180,6.396,5.312,-5.405,0.152935,-5.329406,-1.870177,0.559840,-0.709166,1.332952
301192,7.500,4.361,-5.770,0.281883,-5.611779,-2.022538,0.550210,-0.792911,1.318388
301204,7.894,3.435,-5.757,0.203663,-5.824091,-2.187492,0.530848,-0.872873,1.298878
301216,7.549,2.523,-5.603,-0.102123,-5.928207,-2.386324,0.502197,-0.944683,1.282790
301229,7.271,2.239,-5.915,-0.517346,-5.795889,-2.521657,0.468478,-1.008066,1.270639
301241,8.242,2.884,-6.999,-0.882551,-5.508550,-2.551987,0.437573,-1.054054,1.256271
301254,10.454,3.771,-8.529,-1.090428,-5.246220,-2.542941,0.407889,-1.099059,1.244051
301267,13.157,4.472,-9.857,-1.142575,-5.105210,-2.570079,0.379916,-1.141838,1.231870
301280,16.064,4.688,-10.798,-1.187272,-5.039761,-2.686611,0.351333,-1.184593,1.220763
301293,19.244,4.888,-11.852,-1.266024,-5.026103,-2.882959,0.322185,-1.226728,1.211521
301306,22.684,4.930,-11.996,-1.243676,-5.027523,-3.067070,0.293879,-1.271293,1.204000
301319,25.523,4.091,-11.149,-1.175034,-5.005174,-3.104317,0.264606,-1.318769,1.196379
301331,27.850,2.684,-8.693,-1.145058,-4.981406,-3.044366,0.234038,-1.368150,1.185104
301344,28.827,0.954,-4.808,-1.146832,-4.884385,-2.914886,0.199279,-1.430445,1.175153
301358,27.404,-1.498,-0.059,-1.196141,-4.555718,-2.626128,0.156913,-1.504122,1.163662
301370,25.976,-4.874,4.665,-1.359144,-3.940422,-2.162483,0.105706,-1.232772,1.129597
301383,26.036,-9.506,8.490,-1.802036,-3.092062,-1.628600,0.037117,-0.998482,1.085336
301395,28.014,-11.500,13.089,-2.348336,-2.017555,-1.055340,-0.030490,-0.789553,1.032535
301409,26.456,-7.526,15.004,-1.981180,-0.919635,-0.391090,-0.078385,-0.599085,0.976029
301422,9.895,1.521,4.695,0.219626,0.636254,0.626836,-0.052203,-0.402099,0.919131
301434,1.985,3.954,-14.793,1.540322,1.716969,1.473423,-0.001901,-0.353565,0.865395
301447,-10.236,18.464,-19.161,1.114989,1.722467,1.364340,0.088004,-0.240590,0.827555
301459,-0.561,0.056,-0.480,2.425221,3.229225,2.742505,0.112904,-0.085375,0.788378
301471,15.827,4.524,-17.068,3.291673,3.823946,2.265734,0.156884,-0.114317,0.759882
301485,24.034,3.469,-10.179,3.786890,2.845573,1.910285,0.201698,-0.192331,0.734477
301497,5.047,-8.057,-11.834,2.546010,1.598308,2.068499,0.146751,-0.197007,0.709978
301509,10.702,-0.682,-13.389,1.683460,1.834033,1.067423,0.144719,-0.227801,0.697619
301522,9.274,2.554,-10.451,1.560188,1.066198,0.808108,0.166701,-0.268333,0.688768
301535,7.232,1.966,-11.017,1.326946,0.584107,0.515625,0.180055,-0.294626,0.684350
301547,6.531,1.079,-9.903,1.051846,0.329759,0.362910,0.181669,-0.321507,0.681844
301559,5.089,2.397,-9.213,0.701185,0.107337,0.232543,0.193679,-0.339399,0.681310
301572,5.002,2.016,-9.087,0.466170,0.075410,0.200084,0.198874,-0.355549,0.680983
301584,4.811,2.118,-8.817,0.295718,0.019007,0.172415,0.202971,-0.370258,0.681061
301596,4.723,1.637,-8.917,0.192666,-0.000859,0.142617,0.200500,-0.382254,0.681027
301608,4.641,1.870,-8.970,0.138213,-0.024094,0.098451,0.200083,-0.392182,0.681232
301621,4.416,2.198,-8.766,0.165351,-0.010792,0.074152,0.204131,-0.399786,0.681748
301633,4.361,2.121,-8.711,0.196745,-0.004938,0.062800,0.207300,-0.406265,0.682442
301646,4.234,2.245,-8.652,0.158256,0.010493,0.052513,0.211434,-0.410913,0.683335
301659,4.275,2.338,-8.614,0.145131,0.045080,0.044708,0.216003,-0.415290,0.684440
301671,4.156,2.601,-8.484,0.135553,0.056786,0.053754,0.223093,-0.418586,0.685731
301683,4.132,2.698,-8.435,0.139100,0.077893,0.094727,0.230633,-0.421299,0.686873
301696,4.071,2.585,-8.515,0.137681,0.072750,0.160708,0.236172,-0.422675,0.687411
301708,4.030,2.525,-8.566,0.094403,0.069025,0.232720,0.239810,-0.423367,0.687448
301720,4.114,2.504,-8.588,0.064782,0.080731,0.281497,0.242369,-0.424609,0.687095
301732,4.340,2.137,-8.691,0.045094,0.090309,0.316439,0.240110,-0.427360,0.686213
301745,4.472,1.902,-8.552,0.032856,0.111062,0.303846,0.235619,-0.431500,0.684982
301757,4.455,1.870,-8.709,0.045449,0.117624,0.267840,0.231110,-0.434288,0.684173
301769,4.586,1.534,-8.662,0.053076,0.150438,0.208598,0.223570,-0.437928,0.683539
301782,4.553,1.803,-8.721,0.070635,0.167643,0.121332,0.219822,-0.440242,0.683560
301794,4.556,2.033,-8.638,0.058397,0.185025,0.123461,0.218846,-0.442745,0.683525
301806,4.470,2.108,-8.528,0.054317,0.189282,0.152904,0.219034,-0.444659,0.683157
301818,4.439,2.241,-8.623,0.079681,0.191410,0.198488,0.220703,-0.445561,0.682431
301832,4.526,2.075,-8.639,0.091565,0.210566,0.265002,0.220608,-0.446564,0.680659
301844,4.466,1.974,-8.555,0.111608,0.236639,0.299057,0.219735,-0.447447,0.679047
301855,4.687,1.784,-8.765,0.142470,0.260052,0.331515,0.216611,-0.449249,0.677276
301869,4.574,1.697,-8.712,0.063895,0.298187,0.294090,0.212403,-0.448878,0.675128
301881,4.543,1.749,-8.735,0.024342,0.345722,0.256488,0.208667,-0.448194,0.673837
301893,4.630,2.151,-8.751,-0.014147,0.396450,0.217467,0.209006,-0.447790,0.673130
301906,4.377,2.119,-8.682,-0.092190,0.453740,0.344286,0.208455,-0.444307,0.670902
301919,4.664,1.419,-9.122,-0.124826,0.548633,0.391999,0.199285,-0.440732,0.667830
301931,4.459,1.383,-9.381,-0.224153,0.703832,0.330983,0.189600,-0.433273,0.665550
301943,4.389,1.136,-9.653,-0.310001,0.933526,0.282739,0.177299,-0.422331,0.663424
301956,4.441,1.116,-9.691,-0.425823,1.221042,0.214983,0.164370,-0.408703,0.661510
301968,4.444,1.431,-9.662,-0.540581,1.550773,0.152194,0.155157,-0.394251,0.660321
301980,4.529,1.815,-9.845,-0.636539,1.892033,0.138360,0.149346,-0.377690,0.659392
301993,4.424,2.730,-10.035,-0.718306,2.314883,0.216048,0.151032,-0.354631,0.658241
302006,4.049,3.388,-10.159,-0.750942,2.718931,0.383662,0.158322,-0.325540,0.656510
302018,3.762,4.569,-10.999,-0.340153,3.256362,0.656280,0.177832,-0.290911,0.654553
302031,3.654,3.797,-11.108,0.042434,3.982160,0.962066,0.192983,-0.247436,0.650984
302044,3.283,4.195,-11.754,0.295895,4.796998,1.163912,0.211366,-0.194348,0.648349
302056,2.209,4.397,-11.945,0.471314,5.862636,1.381900,0.231086,-0.130197,0.648066
302069,4.144,4.731,-11.818,0.565143,7.052078,1.666934,0.251768,-0.070683,0.646888
302082,6.346,5.352,-12.130,0.558048,8.074084,2.018303,0.271442,-0.021643,0.638501
302093,12.306,4.158,-12.671,0.294831,8.729288,2.522921,0.270132,-0.016142,0.636943
302105,18.261,6.332,-13.457,-0.230539,8.741349,2.889899,0.267982,-0.020851,0.637409
302117,21.960,7.033,-9.989,-0.052459,8.208885,3.317183,0.269190,-0.052927,0.639143
302129,22.294,5.749,-10.383,-0.197016,7.147681,3.444358,0.262975,-0.092057,0.638898
302141,16.457,5.943,-14.170,-0.605144,6.353241,3.322505,0.257019,-0.106427,0.642380
302152,9.046,5.095,-14.438,-1.154281,5.332300,3.154003,0.249282,-0.102711,0.651414
302164,0.952,4.931,-9.837,-1.465033,4.232252,2.718560,0.256145,-0.057888,0.666533
302176,12.489,6.850,-11.497,-1.593272,3.566582,2.258817,0.252619,-0.101882,0.683248
302188,12.046,10.458,-14.641,-1.596997,1.309550,1.340218,0.262168,-0.151104,0.709381
302200,6.207,11.001,-10.990,-1.070740,-0.668479,0.468800,0.298867,-0.198143,0.742193
302213,2.440,9.373,-8.158,-0.093964,-1.790167,-0.164233,0.354955,-0.230569,0.772911
302224,0.043,6.363,-5.686,0.687883,-2.414331,-0.592227,0.413387,-0.232387,0.804654
302236,-0.749,4.534,-4.944,0.944892,-2.647396,-0.808264,0.458137,-0.222101,0.837466
302247,-0.240,3.146,-4.393,0.914207,-2.887732,-1.051083,0.484738,-0.223018,0.867451
302260,0.892,1.865,-4.408,0.627222,-3.186955,-1.295676,0.483084,-0.259197,0.894776
302271,1.648,1.188,-4.660,0.216966,-3.472698,-1.506392,0.459906,-0.303192,0.917808
302283,2.409,1.179,-5.154,-0.369952,-3.833823,-1.741407,0.429719,-0.359896,0.938733
302296,3.645,1.870,-5.867,-0.850447,-4.211798,-1.914520,0.402912,-0.431213,0.958619
302308,4.890,2.804,-6.316,-1.031541,-4.657529,-2.018813,0.385441,-0.506786,0.976648
302320,5.198,3.176,-6.624,-0.959529,-5.076477,-2.086391,0.373022,-0.579582,0.994751
302332,5.622,2.399,-6.936,-0.855945,-5.367363,-2.152905,0.352649,-0.649486,1.012640
302345,6.118,1.530,-6.946,-0.864814,-5.533559,-2.234850,0.322996,-0.723208,1.032267
302358,6.824,1.024,-7.306,-1.059921,-5.578788,-2.319633,0.287488,-0.792679,1.050953
302370,7.775,0.939,-7.919,-1.321364,-5.558036,-2.371602,0.252009,-0.852057,1.065884
302383,8.847,1.618,-8.534,-1.562942,-5.467754,-2.404415,0.221235,-0.911946,1.081860
302396,10.592,3.057,-9.839,-1.693841,-5.359027,-2.497180,0.200556,-0.966063,1.097717
302408,12.549,4.196,-10.941,-1.549461,-5.264134,-2.734324,0.189260,-1.011863,1.113155
302422,14.519,4.537,-12.059,-1.284116,-5.161082,-3.095803,0.178702,-1.063361,1.137726
302435,16.957,3.860,-12.938,-1.056728,-5.017590,-3.503399,0.166877,-1.107281,1.162515
302448,20.937,2.593,-13.958,-0.978330,-4.848733,-3.860268,0.148930,-1.151325,1.189343
302460,24.465,1.365,-13.683,-1.027639,-4.816807,-3.958353,0.127409,-1.194366,1.211249
302474,26.640,0.511,-11.833,-1.086526,-4.830642,-3.841821,0.102213,-1.251526,1.237090
302486,29.698,0.307,-7.821,-1.072336,-4.769449,-3.540115,0.081021,-1.310503,1.251469
302499,30.291,-0.557,-1.465,-0.905254,-4.614251,-2.954972,0.060021,-1.388393,1.263521
302513,28.217,-5.010,4.981,-0.853639,-4.223505,-2.134813,0.024077,-1.136558,1.249384
302525,27.169,-12.250,9.775,-1.519309,-3.369823,-1.406887,-0.038320,-0.915732,1.213369
302537,29.548,-12.972,15.240,-2.510452,-1.963989,-0.838949,-0.101206,-0.719077,1.168172
302551,27.769,-5.182,16.543,-2.009914,-0.540241,-0.275090,-0.132520,-0.533627,1.119403
302564,8.748,2.410,0.887,0.726195,1.173685,0.692818,-0.080258,-0.299907,1.069101
302576,-2.818,9.807,-21.860,1.301405,1.627574,1.099882,-0.011968,-0.234793,1.024626
302588,-12.174,18.137,-9.688,1.600273,2.284375,1.653808,0.099840,-0.086581,0.985250
302601,5.595,-7.093,-3.678,2.857294,3.808160,3.039954,0.034337,-0.138684,0.929678
302613,19.940,9.398,-18.585,3.968162,4.047432,1.789674,0.109146,-0.167598,0.898100
302626,18.447,-5.100,-9.126,3.532009,2.469904,2.668010,0.112297,-0.239881,0.857479
302639,4.664,-7.789,-12.991,2.447038,1.772485,1.978040,0.072926,-0.229721,0.827979
302651,13.107,0.697,-13.372,1.652066,1.843611,1.012616,0.086799,-0.267998,0.813885
302663,9.256,1.973,-10.849,1.558414,0.881024,0.701686,0.108972,-0.304909,0.805212
302675,7.009,0.098,-11.121,1.121020,0.423410,0.415057,0.110154,-0.327280,0.800490
302689,5.682,1.941,-9.441,0.790402,0.197441,0.238751,0.127004,-0.347375,0.798377
302701,4.666,2.654,-9.049,0.579864,0.133942,0.156983,0.147046,-0.359272,0.798499
302713,4.753,2.061,-8.770,0.390256,0.099887,0.161418,0.157370,-0.372424,0.798956
302726,4.664,2.240,-8.691,0.240378,0.052529,0.166029,0.167340,-0.384233,0.799606
302738,4.666,1.509,-8.959,0.143357,0.033196,0.147583,0.166907,-0.393708,0.800514
302750,4.591,1.927,-8.811,0.019553,0.016878,0.101644,0.169836,-0.402354,0.801955
302763,4.401,2.162,-8.830,0.084825,0.031777,0.071669,0.175848,-0.407972,0.803795
302775,4.349,2.127,-8.731,0.165351,0.056786,0.048965,0.181877,-0.412755,0.805974
302788,4.354,2.241,-8.653,0.158966,0.067429,0.029809,0.188724,-0.417289,0.808429
302800,4.306,2.429,-8.563,0.123492,0.084279,0.026971,0.196535,-0.421209,0.810974
302813,4.267,2.674,-8.514,0.114800,0.101484,0.057479,0.206320,-0.424289,0.813309
302825,4.077,2.788,-8.478,0.134843,0.099178,0.122396,0.216682,-0.425423,0.815124
302837,3.982,2.786,-8.512,0.131296,0.099355,0.218176,0.225894,-0.425290,0.816063
302850,4.268,2.377,-8.618,0.050415,0.104854,0.306506,0.228428,-0.427395,0.815844
302862,4.401,2.059,-8.606,-0.008117,0.108933,0.336304,0.226527,-0.430724,0.815527
302874,4.502,1.917,-8.734,-0.030820,0.133587,0.314311,0.222745,-0.433778,0.815357
302886,4.533,1.912,-8.549,-0.031530,0.161080,0.274048,0.219618,-0.437453,0.815547
302900,4.556,1.965,-8.680,-0.015566,0.177575,0.253295,0.217253,-0.439820,0.815521
302912,4.622,1.943,-8.568,-0.005988,0.195135,0.243185,0.215160,-0.443323,0.815939
302924,4.525,2.094,-8.649,-0.011664,0.204181,0.250103,0.214767,-0.444983,0.816232
302937,4.621,2.112,-8.556,0.016892,0.223869,0.266066,0.215021,-0.447479,0.816167
302950,4.598,2.034,-8.588,0.016005,0.230077,0.286996,0.214371,-0.449274,0.815874
302962,4.701,1.783,-8.476,0.011571,0.243025,0.279901,0.211142,-0.452550,0.815805
302974,4.774,1.780,-8.527,0.019908,0.251006,0.187314,0.208173,-0.455806,0.816640
302987,4.701,2.106,-8.412,0.065314,0.247814,0.156983,0.209819,-0.458464,0.817711
302999,4.681,2.098,-8.628,0.094403,0.267324,0.256843,0.211039,-0.459515,0.817758
303011,4.735,1.718,-8.629,0.050415,0.302089,0.313956,0.207620,-0.460584,0.817056
303024,4.619,1.838,-8.669,-0.024080,0.351043,0.318567,0.205042,-0.459401,0.816034
303036,4.663,1.792,-8.832,-0.080484,0.416493,0.326194,0.201350,-0.457557,0.815121
303048,4.547,1.750,-8.906,-0.138306,0.520254,0.308989,0.196976,-0.453330,0.814277
303060,4.702,1.524,-9.132,-0.206062,0.652217,0.292139,0.189577,-0.448513,0.813369
303074,4.572,1.455,-9.326,-0.283395,0.844841,0.252941,0.180700,-0.438539,0.812203
303086,4.569,1.504,-9.433,-0.355585,1.080565,0.212323,0.172866,-0.428135,0.811597
303098,4.601,1.423,-9.344,-0.441609,1.363116,0.160353,0.164242,-0.416510,0.811211
303111,4.790,1.686,-9.632,-0.545016,1.649391,0.091534,0.157047,-0.402038,0.811229
303123,4.685,1.953,-9.543,-0.576055,1.972204,0.117785,0.153590,-0.386585,0.810835
303135,4.486,2.891,-9.913,-0.639199,2.354968,0.201149,0.158160,-0.365312,0.809731
303149,4.118,3.959,-10.637,-0.574282,2.738087,0.356170,0.170160,-0.331433,0.806963
303161,3.535,4.109,-10.854,-0.218832,3.400032,0.650249,0.186850,-0.293135,0.802493
303174,3.642,3.716,-11.508,0.027357,4.196777,0.873026,0.199456,-0.245809,0.795889
303186,3.008,4.279,-11.994,0.228140,5.120343,1.073809,0.216491,-0.190885,0.789262
303199,2.922,4.423,-11.729,0.372164,6.274489,1.285588,0.235567,-0.123805,0.780871
303211,4.792,4.962,-11.702,0.407461,7.388195,1.529294,0.255077,-0.073129,0.772640
303224,7.796,5.296,-11.827,0.372874,8.296861,1.992585,0.270806,-0.031992,0.759293
303237,14.672,3.105,-12.996,-0.076759,8.785515,2.461551,0.257939,-0.018515,0.742013
303249,19.213,7.103,-11.870,-0.389817,8.624286,2.821612,0.259093,-0.034218,0.724682
303261,23.302,6.318,-8.582,-0.232135,7.930414,3.226193,0.255839,-0.076953,0.704369
303275,20.640,6.121,-12.231,-0.427774,6.774317,3.224241,0.250190,-0.097647,0.680616
303287,13.829,5.297,-14.259,-1.000502,5.723755,3.051661,0.240904,-0.110160,0.666576
303300,3.566,4.456,-12.191,-1.442685,4.639848,2.764499,0.234967,-0.076677,0.655039
303312,8.625,5.789,-10.052,-1.465033,3.597445,2.416854,0.238703,-0.107696,0.650580
303325,13.459,9.723,-14.643,-1.426012,1.824278,1.749233,0.245940,-0.156934,0.652198
303337,6.814,10.130,-11.571,-0.956336,-0.337507,0.971643,0.279229,-0.202591,0.663988
303350,3.230,9.770,-8.813,-0.020178,-1.435427,0.408671,0.336427,-0.237167,0.681694
303364,0.605,7.363,-6.090,0.876782,-2.152534,-0.077677,0.407186,-0.250945,0.705082
303376,-0.386,5.508,-4.897,1.373595,-2.457432,-0.421065,0.469864,-0.243171,0.730206
303388,-0.406,4.293,-4.332,1.511056,-2.683047,-0.752392,0.520200,-0.237198,0.756718
303401,0.786,3.534,-4.469,1.375723,-2.939878,-1.082300,0.552451,-0.266124,0.785972
303414,2.131,2.916,-4.943,1.035882,-3.312001,-1.435089,0.559387,-0.321451,0.817538
303426,3.243,2.949,-5.537,0.598488,-3.789480,-1.777590,0.552815,-0.386068,0.849490
303439,4.400,3.752,-5.782,0.233461,-4.403890,-2.079119,0.548233,-0.467471,0.885532
303452,4.514,4.328,-5.555,0.205791,-4.834899,-2.214630,0.551073,-0.548604,0.922222
303464,5.030,4.000,-5.569,0.301571,-5.081443,-2.264293,0.548539,-0.624739,0.956374
303476,6.179,3.236,-5.908,0.313277,-5.271761,-2.306685,0.532669,-0.702575,0.990088
303490,7.145,2.388,-6.293,0.138745,-5.482654,-2.381003,0.504129,-0.788873,1.028205
303502,7.618,1.666,-6.698,-0.186906,-5.645302,-2.468446,0.465960,-0.857584,1.059972
303515,7.880,1.724,-7.256,-0.553707,-5.654348,-2.506581,0.427030,-0.921628,1.091910
303527,8.880,2.253,-8.316,-0.833951,-5.568678,-2.470042,0.392388,-0.971782,1.117972
303540,10.842,3.056,-9.877,-0.992875,-5.513516,-2.438116,0.361235,-1.022357,1.143604
303553,13.192,3.819,-11.295,-1.024447,-5.531962,-2.492391,0.334200,-1.070888,1.167692
303566,15.486,4.379,-12.532,-1.011676,-5.591914,-2.677210,0.310181,-1.117739,1.192041
303579,18.003,4.616,-13.684,-0.999969,-5.629871,-2.924464,0.287236,-1.163130,1.217348
303592,20.869,4.229,-14.705,-0.975492,-5.606812,-3.162849,0.262983,-1.207135,1.243209
303605,24.856,3.828,-14.853,-1.016642,-5.561760,-3.357247,0.237287,-1.253923,1.269105
303618,27.671,3.755,-12.746,-0.943566,-5.567614,-3.369308,0.214245,-1.307279,1.293648
303631,28.725,2.565,-7.583,-0.721499,-5.484427,-3.154335,0.192266,-1.372761,1.315430
303644,28.441,-1.247,-0.748,-0.654098,-5.117981,-2.704703,0.159214,-1.452186,1.332171
303656,27.256,-9.702,5.741,-1.282342,-4.320881,-2.173125,0.092048,-1.193691,1.315934
303670,30.927,-16.461,13.919,-2.615100,-3.015793,-1.772979,-0.000018,-0.975128,1.283782
303682,34.298,-12.399,19.703,-2.590978,-1.680552,-1.298337,-0.060735,-0.772774,1.238671
303695,24.739,-6.804,15.554,-0.664386,-0.024981,0.111754,-0.086748,-0.578336,1.180169
303708,5.063,-4.932,-3.006,0.682029,1.666950,2.248175,-0.145546,-0.608106,1.099596
303721,-4.957,10.371,-25.358,0.393094,1.183617,2.753856,-0.083555,-0.506173,1.025574
303733,-11.182,26.211,-1.791,0.355314,2.062308,2.634487,0.055504,-0.275102,0.971430
303747,3.550,9.208,-0.554,1.963172,4.084680,2.934774,0.205549,-0.347836,0.919823
303759,18.744,17.653,-20.591,3.484652,4.773407,1.120634,0.282397,-0.338346,0.900952
303772,23.435,-2.829,-10.450,3.604554,3.194992,2.019190,0.281990,-0.389028,0.873123
303784,7.693,-11.071,-15.931,2.031282,1.564608,1.731141,0.213068,-0.378224,0.850711
303797,10.482,0.960,-12.199,1.255112,1.274786,0.800836,0.211225,-0.398773,0.840017
303810,7.385,2.707,-10.046,1.152237,0.745159,0.500549,0.225085,-0.415124,0.834594
303822,6.524,1.101,-10.203,0.889020,0.416493,0.358653,0.220275,-0.426798,0.831611
303835,4.760,2.380,-9.191,0.736482,0.242847,0.220305,0.229633,-0.429011,0.830633
303847,5.199,2.882,-8.697,0.624562,0.240896,0.117075,0.241617,-0.437821,0.831577
303860,4.845,1.924,-9.042,0.378727,0.065566,0.183855,0.240124,-0.442442,0.831556
303873,4.776,2.033,-8.653,0.219626,0.054658,0.165497,0.238811,-0.448079,0.831766
303885,4.646,2.026,-8.927,0.107883,0.010493,0.121687,0.235798,-0.450989,0.832458
303897,4.610,1.884,-8.786,0.036048,0.009429,0.077167,0.231170,-0.453954,0.833397
303909,4.317,2.074,-8.821,0.110721,0.014750,0.040097,0.230034,-0.453529,0.834582
303922,4.302,2.176,-8.638,0.180782,0.035502,0.021828,0.231399,-0.453614,0.835896
303934,4.397,2.087,-8.640,0.168011,0.049869,0.010121,0.231259,-0.454529,0.837199
303946,4.381,2.364,-8.621,0.125265,0.058028,0.001075,0.233640,-0.455188,0.838558
303960,4.338,2.688,-8.555,0.124378,0.059447,0.019699,0.239633,-0.455533,0.839827
303972,4.290,2.678,-8.435,0.142648,0.055899,0.064574,0.245198,-0.456172,0.840699
303984,4.176,2.557,-8.510,0.095112,0.049869,0.125057,0.248330,-0.455258,0.840939
303996,4.091,2.612,-8.571,0.060703,0.053771,0.177381,0.251279,-0.453244,0.840681
304009,4.195,2.400,-8.598,0.010507,0.073282,0.227754,0.250988,-0.452057,0.839714
304021,4.394,2.198,-8.612,0.003235,0.087117,0.241234,0.248245,-0.452864,0.838793
304033,4.446,2.137,-8.617,0.007846,0.090841,0.234139,0.245135,-0.454027,0.837937
304046,4.420,2.170,-8.560,0.018843,0.106627,0.217821,0.242983,-0.454821,0.837111
304058,4.566,2.145,-8.523,0.047223,0.112126,0.199552,0.240990,-0.457214,0.836690
304070,4.535,2.105,-8.540,0.045449,0.095985,0.191925,0.238768,-0.459141,0.836328
304082,4.489,2.078,-8.509,0.052544,0.094034,0.188378,0.236688,-0.460590,0.835976
304095,4.449,2.081,-8.632,0.058219,0.097404,0.204341,0.234756,-0.460737,0.835269
304107,4.572,1.999,-8.556,0.048819,0.114254,0.217644,0.232029,-0.462383,0.834564
304120,4.540,2.001,-8.553,0.033388,0.126847,0.222788,0.229504,-0.463309,0.833623
304133,4.542,2.028,-8.608,0.042966,0.135539,0.227222,0.227516,-0.463780,0.832668
304145,4.539,2.127,-8.571,0.045094,0.152566,0.249038,0.226850,-0.464329,0.831739
304157,4.508,1.983,-8.647,0.058574,0.170835,0.271387,0.224765,-0.463921,0.830580
304169,4.492,1.994,-8.678,0.034452,0.206309,0.285754,0.222723,-0.462864,0.829298
304182,4.461,2.079,-8.626,-0.032594,0.230431,0.318213,0.221163,-0.461410,0.827481
304194,4.348,2.149,-8.761,-0.037915,0.285594,0.346415,0.220316,-0.457972,0.825749
304207,4.361,2.194,-8.763,-0.065585,0.360976,0.372843,0.219657,-0.453872,0.823562
304220,4.422,1.884,-9.066,-0.079952,0.454804,0.420378,0.215041,-0.448271,0.820839
304232,4.488,1.352,-9.351,-0.120924,0.600780,0.387742,0.204632,-0.441460,0.818636
304244,4.322,1.338,-9.535,-0.251291,0.799612,0.309167,0.193696,-0.430892,0.817002
304257,4.483,1.296,-9.575,-0.339089,1.058039,0.250812,0.182082,-0.419048,0.815454
304270,4.538,1.309,-9.681,-0.448704,1.333318,0.184121,0.170389,-0.405359,0.814331
304282,4.414,1.888,-9.592,-0.531358,1.638749,0.152194,0.165413,-0.390314,0.813565
304294,4.324,1.962,-9.913,-0.641860,1.994730,0.140488,0.160057,-0.370918,0.812761
304307,4.126,2.974,-10.518,-0.769034,2.482320,0.132684,0.161638,-0.342151,0.812077
304320,3.812,3.814,-9.968,-0.666337,2.931243,0.325662,0.173587,-0.310380,0.809670
304332,3.555,4.305,-11.366,-0.412875,3.508228,0.713748,0.187896,-0.271793,0.804159
304345,3.534,3.946,-11.587,0.023810,4.338141,1.001442,0.202023,-0.223853,0.795886
304358,3.057,4.585,-11.990,0.338464,5.234392,1.210029,0.222675,-0.165737,0.786943
304370,2.515,4.816,-11.835,0.588378,6.389956,1.455331,0.245993,-0.101836,0.778313
304382,4.986,4.956,-11.688,0.644250,7.465351,1.732560,0.266622,-0.054058,0.768378
304395,7.739,4.908,-11.764,0.566562,8.361956,2.171551,0.280872,-0.013902,0.753567
304408,14.705,3.404,-12.696,0.117461,8.702682,2.572230,0.270888,-0.004474,0.735788
304420,19.640,6.637,-10.474,-0.239053,8.419955,2.938676,0.270597,-0.030498,0.717919
304433,22.679,5.336,-8.236,-0.222557,7.585075,3.197459,0.262548,-0.071962,0.695980
304446,17.486,4.954,-12.936,-0.637425,6.544091,3.079862,0.251219,-0.090437,0.677533
304458,10.906,4.512,-13.822,-1.281456,5.651388,2.911716,0.237682,-0.093246,0.672292
304471,2.803,4.613,-11.247,-1.792813,4.618918,2.567973,0.232411,-0.057296,0.669942
304483,11.304,6.670,-11.051,-1.805584,3.493151,2.125257,0.231308,-0.100738,0.675620
304494,14.333,10.658,-15.420,-1.734281,1.917574,1.527698,0.239800,-0.152149,0.687812
304506,7.586,11.346,-12.493,-1.118807,-0.360210,0.672953,0.272824,-0.199360,0.711863
304518,3.406,10.518,-9.524,-0.037383,-1.641708,0.037791,0.329348,-0.233870,0.740590
304530,0.901,7.793,-7.183,0.763442,-2.312698,-0.357035,0.390363,-0.248759,0.772265
304541,-0.424,5.157,-5.771,1.242341,-2.676307,-0.684992,0.438690,-0.242730,0.809096
304553,-0.812,3.725,-4.979,1.300341,-2.885781,-0.967897,0.474161,-0.232718,0.844503
304566,0.004,2.968,-4.829,1.155607,-3.032643,-1.175951,0.496591,-0.244905,0.883879
304577,1.636,2.135,-5.357,0.774084,-3.307744,-1.459034,0.491015,-0.284144,0.923224
304589,3.111,1.953,-5.955,0.273901,-3.706826,-1.759676,0.472810,-0.346095,0.964623
304601,3.991,2.680,-6.248,-0.103187,-4.194593,-1.990789,0.459163,-0.415961,1.002640
304613,4.724,3.378,-6.357,-0.239053,-4.647596,-2.120978,0.451390,-0.490815,1.039027
304624,4.835,3.656,-6.309,-0.160300,-4.905137,-2.161951,0.448313,-0.557548,1.070986
304636,5.786,3.135,-6.569,-0.065230,-5.129687,-2.202214,0.437344,-0.631409,1.097857
304649,6.786,2.439,-6.844,-0.128906,-5.345192,-2.307749,0.416508,-0.711044,1.119111
304661,7.220,2.263,-6.961,-0.267254,-5.481412,-2.426941,0.393677,-0.781201,1.129542
304672,7.626,2.462,-7.364,-0.446221,-5.551828,-2.559437,0.372451,-0.839566,1.137723
304685,8.094,2.577,-7.999,-0.576410,-5.514935,-2.636060,0.350487,-0.900234,1.142765
304696,9.017,2.636,-9.146,-0.694184,-5.407804,-2.650605,0.328574,-0.942074,1.142004
304709,11.016,3.129,-10.561,-0.797768,-5.332953,-2.654684,0.306438,-0.991303,1.145393
304721,13.757,4.098,-11.726,-0.834661,-5.358850,-2.698140,0.289093,-1.036865,1.146157
304735,16.396,4.828,-12.755,-0.797768,-5.461192,-2.836666,0.273104,-1.093059,1.153211
304747,18.861,5.031,-13.285,-0.649841,-5.541895,-3.066360,0.260309,-1.139234,1.157114
304760,21.319,4.818,-13.622,-0.513621,-5.536751,-3.282574,0.247036,-1.190135,1.166184
304773,24.184,3.985,-13.138,-0.452251,-5.471657,-3.348378,0.231068,-1.242305,1.175259
304786,27.271,3.166,-9.814,-0.504398,-5.415608,-3.186262,0.212376,-1.304553,1.181991
304799,28.112,1.857,-4.571,-0.588649,-5.243559,-2.825492,0.189934,-1.378018,1.184691
304812,28.219,-2.400,2.051,-0.906673,-4.741247,-2.274581,0.149888,-1.121166,1.167696
304824,27.810,-8.508,8.181,-1.633180,-3.917009,-1.741584,0.085565,-0.903331,1.135962
304837,30.183,-11.562,13.305,-2.448017,-2.826716,-1.390569,0.011512,-0.712706,1.098706
304850,31.958,-9.143,17.457,-2.335033,-1.611378,-0.957254,-0.043457,-0.536938,1.057684
304863,25.122,-3.905,15.711,-0.733560,-0.091672,-0.021983,-0.061463,-0.368349,1.011991
304876,2.354,-0.520,-5.399,1.329607,1.834920,1.406554,-0.048947,-0.350464,0.955886
304888,-10.135,12.685,-29.448,0.915094,1.670143,1.665515,0.008077,-0.257501,0.910820
304902,-6.581,11.699,-3.515,1.165008,3.221952,2.183080,0.131649,-0.069336,0.874216
304914,10.831,-6.789,-9.264,2.099570,4.329095,2.717496,0.091792,-0.107717,0.836480
304926,22.124,12.182,-20.173,2.981985,4.061267,1.351925,0.155734,-0.141047,0.819294
304940,17.812,-2.671,-7.634,2.959459,2.559299,2.299258,0.160949,-0.219613,0.787631
304952,8.410,-5.078,-14.352,1.947564,1.698345,1.471117,0.132341,-0.234109,0.770553
304964,11.570,-0.954,-12.160,1.368451,1.244455,0.830634,0.126640,-0.276653,0.760780
304977,6.653,2.388,-10.089,1.024531,0.568853,0.476427,0.145946,-0.302331,0.755863
304990,6.157,2.130,-10.119,0.828360,0.393612,0.344286,0.159042,-0.323470,0.753282
305002,4.993,2.261,-9.027,0.718745,0.240009,0.247265,0.172888,-0.339824,0.752764
305014,5.101,2.486,-9.115,0.568158,0.178107,0.153791,0.185551,-0.355571,0.753697
305027,4.999,1.748,-9.105,0.329950,0.044193,0.189442,0.187405,-0.370204,0.753842
305039,4.417,2.101,-8.896,0.147791,-0.000682,0.154323,0.191298,-0.379368,0.754592
305051,4.547,1.846,-8.721,0.068862,0.005172,0.121332,0.191476,-0.389582,0.755469
305063,4.396,2.249,-8.792,0.052544,-0.004406,0.093130,0.195667,-0.396991,0.756675
305077,4.429,2.340,-8.731,0.183975,0.008896,0.087277,0.202250,-0.404106,0.757934
305089,4.316,2.214,-8.648,0.253681,0.024682,0.065638,0.207506,-0.409661,0.759679
305101,4.247,2.216,-8.597,0.227608,0.038695,0.046305,0.212118,-0.414026,0.761635
305114,4.256,2.241,-8.618,0.191247,0.052707,0.035130,0.216246,-0.417700,0.763655
305126,4.261,2.457,-8.564,0.190892,0.066896,0.037791,0.222139,-0.421217,0.765747
305138,4.149,2.623,-8.498,0.205082,0.070444,0.068121,0.229602,-0.423523,0.767664
305150,3.941,2.773,-8.465,0.205791,0.074878,0.126653,0.238201,-0.423558,0.769207
305163,4.049,2.547,-8.581,0.168189,0.077539,0.202922,0.242852,-0.424016,0.769845
305175,4.119,2.308,-8.703,0.094580,0.070089,0.263405,0.243166,-0.424740,0.769963
305187,4.278,2.060,-8.733,0.070635,0.085698,0.290188,0.240356,-0.426648,0.769610
305200,4.386,1.889,-8.735,0.035516,0.096162,0.288947,0.235573,-0.429202,0.768785
305213,4.466,1.855,-8.707,0.038354,0.117269,0.255779,0.230920,-0.432192,0.768169
305225,4.523,1.822,-8.668,0.055736,0.129153,0.221369,0.226587,-0.435611,0.767945
305238,4.451,1.836,-8.616,0.048996,0.130750,0.201149,0.222974,-0.438087,0.767568
305250,4.393,2.021,-8.693,0.046158,0.139795,0.196360,0.221551,-0.439389,0.767372
305262,4.477,2.003,-8.617,0.046868,0.155581,0.221369,0.220167,-0.441581,0.766827
305274,4.571,1.911,-8.583,0.042966,0.157887,0.252231,0.217888,-0.444592,0.765851
305287,4.504,1.921,-8.603,0.056091,0.161967,0.246555,0.216170,-0.446354,0.764718
305299,4.462,1.823,-8.599,0.069571,0.173318,0.226690,0.213733,-0.447580,0.763994
305312,4.460,1.664,-8.671,0.098305,0.204890,0.149002,0.210108,-0.447772,0.763852
305324,4.328,2.251,-8.739,0.072232,0.237172,0.138892,0.212697,-0.446165,0.764129
305337,4.493,1.972,-8.662,0.028067,0.268566,0.223497,0.211619,-0.446145,0.763221
305349,4.402,2.054,-8.745,-0.050686,0.294639,0.290898,0.210583,-0.444813,0.761844
305361,4.329,2.180,-8.890,-0.065585,0.362749,0.371956,0.210591,-0.441477,0.759779
305374,4.428,1.965,-9.069,-0.093609,0.452499,0.429246,0.207562,-0.437230,0.756833
305386,4.156,1.404,-9.430,-0.164557,0.576125,0.422506,0.198096,-0.428361,0.754232
305399,4.260,1.011,-9.777,-0.223444,0.821073,0.359717,0.184362,-0.416597,0.751659
305412,4.356,0.936,-9.983,-0.335897,1.107703,0.292139,0.169795,-0.402835,0.749531
305424,4.464,1.098,-9.873,-0.477438,1.440449,0.218531,0.157244,-0.389422,0.748177
305436,4.159,1.731,-10.040,-0.585456,1.799446,0.168690,0.150998,-0.370168,0.747471
305449,4.112,2.375,-10.402,-0.739945,2.258479,0.171350,0.148630,-0.344298,0.747010
305462,3.863,3.693,-10.735,-0.783401,2.801408,0.342158,0.157284,-0.311602,0.745755
305474,3.568,4.283,-11.216,-0.605853,3.346111,0.666212,0.171426,-0.275080,0.742987
305487,3.037,3.818,-11.707,-0.023548,4.111995,0.991864,0.185715,-0.224784,0.738080
305500,3.050,4.180,-12.145,0.305473,5.005584,1.167815,0.204127,-0.168756,0.734035
305512,1.239,4.572,-12.267,0.492598,6.025461,1.381900,0.225783,-0.096636,0.723865
305523,3.800,4.903,-11.984,0.593522,7.436262,1.689992,0.247304,-0.045718,0.728430
305536,5.394,5.907,-12.631,0.583589,8.504028,2.045441,0.271284,0.014853,0.743061
305547,10.266,6.013,-12.521,0.493130,9.194175,2.524340,0.285257,0.030970,0.755966
305559,17.704,4.481,-13.730,0.032323,9.273459,3.016364,0.276517,0.030592,0.769248
305570,21.007,5.666,-10.907,-0.109750,8.905771,3.326761,0.271256,0.000096,0.790774
305583,22.735,5.823,-10.636,-0.169878,7.901326,3.409416,0.264903,-0.028774,0.812139
305595,17.930,5.684,-14.637,-0.714227,6.782654,3.203312,0.254871,-0.047618,0.836776
305606,11.544,5.652,-15.357,-1.175034,5.850397,3.108596,0.246747,-0.053647,0.864836
305618,1.548,5.715,-11.532,-1.480642,4.533071,2.741441,0.253087,-0.014526,0.893062
305631,12.754,8.085,-12.509,-1.367657,3.384601,2.194964,0.255680,-0.059258,0.925240
305642,11.440,11.087,-15.828,-1.214587,0.915079,1.186616,0.271377,-0.111071,0.967747
305654,5.205,11.381,-11.346,-0.597695,-1.104809,0.238396,0.314514,-0.158001,1.015006
305667,2.470,9.879,-8.709,0.213773,-2.074313,-0.306484,0.372062,-0.196361,1.067359
305678,0.041,6.462,-5.884,0.929461,-2.824943,-0.770484,0.430107,-0.205705,1.115123
305690,-1.207,4.179,-4.616,1.155075,-3.189615,-1.078575,0.473597,-0.192940,1.159402
305701,-1.017,3.183,-4.091,1.061424,-3.356166,-1.297805,0.502795,-0.181691,1.194595
305714,0.597,2.154,-4.206,0.731516,-3.567768,-1.570777,0.508572,-0.220329,1.231224
305726,2.240,1.610,-4.875,0.237718,-3.868055,-1.872483,0.488958,-0.285363,1.264871
305737,3.388,2.008,-5.407,-0.248631,-4.259156,-2.128073,0.467860,-0.357276,1.283698
305750,4.456,3.125,-5.782,-0.487548,-4.646532,-2.272629,0.456186,-0.444445,1.292192
305762,5.166,3.585,-6.187,-0.428484,-4.906734,-2.323712,0.448245,-0.525102,1.284857
305773,6.438,3.303,-6.591,-0.208545,-5.208440,-2.350850,0.435860,-0.603811,1.262006
305785,7.156,2.230,-6.602,-0.050686,-5.498972,-2.394483,0.413804,-0.687691,1.232367
305798,7.385,1.165,-6.482,-0.082080,-5.645834,-2.429070,0.382123,-0.772239,1.196851
305809,7.707,0.230,-6.634,-0.372435,-5.658605,-2.485296,0.341160,-0.838623,1.158574
305822,8.121,0.600,-7.186,-0.748814,-5.533559,-2.541345,0.302617,-0.905480,1.126175
305835,9.559,1.883,-8.561,-0.977266,-5.363461,-2.581431,0.274913,-0.962525,1.095210
305848,11.874,3.606,-10.483,-0.943211,-5.292513,-2.686434,0.258842,-1.013272,1.067369
305860,13.631,4.474,-11.920,-0.720080,-5.321779,-2.836666,0.249664,-1.054584,1.041385
305873,15.470,4.808,-12.991,-0.507591,-5.367718,-3.064232,0.242396,-1.098834,1.022891
305887,17.726,4.927,-13.696,-0.389107,-5.392550,-3.328867,0.235092,-1.147520,1.011718
305899,20.818,5.111,-14.053,-0.349731,-5.350690,-3.524329,0.227942,-1.187682,0.998104
305912,24.515,5.077,-13.687,-0.340686,-5.280274,-3.553418,0.219000,-1.236599,0.989299
305926,28.046,4.326,-11.224,-0.471407,-5.275131,-3.418971,0.205056,-1.298716,0.982349
305938,29.697,2.656,-4.796,-0.800960,-5.235045,-3.101125,0.184045,-1.368093,0.966697
305951,28.294,-1.440,2.401,-1.211217,-4.874275,-2.680758,0.144719,-1.114951,0.942053
305964,26.612,-8.455,7.912,-1.985082,-3.975719,-2.282030,0.073912,-0.900158,0.907961
305977,29.847,-12.048,13.456,-2.856500,-2.893230,-2.064043,-0.005627,-0.710092,0.868702
305989,32.192,-9.731,18.623,-2.751320,-1.756821,-1.541334,-0.062189,-0.537907,0.823317
306002,26.440,-4.381,18.148,-1.446942,-0.387525,-0.311273,-0.086980,-0.377625,0.769825
306016,6.393,2.383,1.613,0.741803,1.273012,1.351570,-0.030166,-0.173694,0.712002
306028,-5.301,11.015,-22.781,1.615527,1.905513,2.062114,0.038394,-0.107967,0.664975
306041,-9.835,17.377,-7.061,1.577038,2.764161,1.891129,0.157606,0.040996,0.641935
306054,3.144,-4.633,-2.981,2.520823,4.199970,2.703838,0.080542,-0.001529,0.602655
306066,19.354,5.872,-24.788,2.855698,4.672306,1.838982,0.122515,-0.021650,0.581929
306078,24.524,0.991,-11.309,3.558792,3.059836,2.164279,0.151502,-0.107947,0.557933
306092,3.899,-5.231,-11.980,2.415111,1.425373,2.081092,0.122305,-0.111291,0.531019
306104,12.633,1.645,-13.927,1.668029,1.689476,0.916304,0.136345,-0.159834,0.522409
306116,8.488,-1.016,-10.955,1.548836,0.759703,0.716763,0.130314,-0.204512,0.514630
306128,6.962,1.147,-10.581,0.992959,0.340756,0.350494,0.136583,-0.240472,0.510869
306141,5.093,2.034,-9.039,0.709699,0.170126,0.197424,0.150876,-0.266991,0.509214
306153,4.864,2.545,-9.411,0.445241,0.114077,0.088696,0.164692,-0.287556,0.509621
306165,4.665,2.157,-8.622,0.356910,0.071153,0.155387,0.174022,-0.308374,0.509398
306179,4.282,2.087,-8.841,0.223173,0.067961,0.153968,0.180593,-0.322200,0.508962
306191,4.717,1.401,-8.922,0.162690,0.096695,0.131442,0.177698,-0.338211,0.508571
306203,4.774,1.603,-8.835,0.022213,0.056786,0.094727,0.175809,-0.353871,0.508062
306215,4.428,2.241,-8.796,0.100433,0.047740,0.064574,0.181966,-0.364818,0.508137
306228,4.116,2.154,-8.762,0.154709,0.067961,0.062268,0.187694,-0.371424,0.508399
306240,4.316,2.029,-8.628,0.180959,0.103435,0.053932,0.191707,-0.379683,0.508960
306252,4.349,2.035,-8.711,0.132892,0.104676,0.047369,0.194638,-0.386950,0.509588
306265,4.396,2.379,-8.656,0.131651,0.133942,0.062091,0.201045,-0.393768,0.510217
306278,4.426,2.441,-8.573,0.114800,0.133942,0.105901,0.207408,-0.400629,0.510620
306290,4.236,2.515,-8.551,0.068152,0.117269,0.167094,0.213538,-0.405286,0.510849
306302,4.190,2.416,-8.591,-0.000667,0.117447,0.237864,0.217181,-0.408772,0.510490
306315,4.342,2.275,-8.603,-0.032594,0.143165,0.277063,0.218395,-0.412950,0.509461
306327,4.498,2.179,-8.625,-0.020888,0.158419,0.294268,0.218399,-0.418086,0.508560
306339,4.563,1.994,-8.668,-0.019114,0.169771,0.291962,0.216333,-0.422965,0.507520
306352,4.683,1.878,-8.611,-0.013438,0.189814,0.275644,0.213292,-0.428411,0.506136
306364,4.590,2.096,-8.567,-0.010245,0.189991,0.262164,0.213098,-0.432789,0.505250
306376,4.662,2.112,-8.577,-0.018227,0.190878,0.296928,0.212905,-0.437325,0.503980
306388,4.592,2.016,-8.573,0.030904,0.197086,0.301895,0.212335,-0.440666,0.502682
306401,4.672,2.040,-8.514,0.030727,0.214823,0.318213,0.212131,-0.444374,0.500938
306413,4.682,1.649,-8.565,0.011039,0.225820,0.298347,0.207473,-0.447599,0.499524
306425,4.753,1.780,-8.551,0.020617,0.243557,0.161240,0.204761,-0.451041,0.499458
306439,4.786,2.139,-8.409,0.032856,0.245685,0.150066,0.206547,-0.454807,0.499233
306451,4.735,2.143,-8.485,0.036226,0.238236,0.277772,0.208055,-0.457807,0.498112
306463,4.723,1.511,-8.646,0.077021,0.273355,0.343754,0.202886,-0.459130,0.495979
306476,4.739,1.487,-8.809,0.067088,0.336144,0.317149,0.197693,-0.458662,0.493643
306488,4.620,1.654,-8.796,-0.058135,0.399997,0.286286,0.193534,-0.456802,0.491944
306500,4.619,1.655,-8.821,-0.120569,0.509612,0.283803,0.189121,-0.453838,0.490166
306512,4.693,1.724,-8.868,-0.172007,0.633593,0.274048,0.185211,-0.450317,0.488447
306526,4.643,1.681,-9.105,-0.213866,0.774602,0.273515,0.180089,-0.442682,0.486095
306538,4.623,1.429,-9.405,-0.291731,0.970419,0.269791,0.172123,-0.433603,0.484196
306550,4.595,1.333,-9.462,-0.384141,1.233636,0.234139,0.163012,-0.422160,0.482397
306563,4.772,0.789,-9.393,-0.494997,1.524877,0.141552,0.147690,-0.409407,0.480661
306576,4.785,1.363,-9.524,-0.560802,1.854785,0.063864,0.138875,-0.393772,0.479653
306588,4.833,1.791,-9.536,-0.579071,2.190014,0.069717,0.135500,-0.378248,0.478889
306600,4.655,3.020,-10.219,-0.598759,2.518149,0.131265,0.142644,-0.356394,0.478646
306613,3.739,4.681,-10.833,-0.245970,3.040326,0.333644,0.166135,-0.318391,0.478795
306626,3.655,4.633,-10.867,-0.029047,3.744129,0.704170,0.189357,-0.275497,0.477746
306638,3.524,4.511,-11.641,0.216433,4.521719,1.016873,0.209564,-0.228948,0.477188
306651,2.521,5.384,-11.884,0.422537,5.571749,1.337026,0.236986,-0.162081,0.476627
306664,4.178,4.721,-11.714,0.571883,6.775736,1.651148,0.257393,-0.103008,0.476580
306676,5.595,5.285,-12.260,0.539956,7.892812,2.008193,0.275877,-0.053525,0.486333
306688,10.944,5.112,-12.280,0.395754,8.747735,2.525936,0.283025,-0.032294,0.500152
306700,17.419,4.315,-13.455,-0.172361,8.870475,2.918811,0.271791,-0.031727,0.520192
306711,22.097,7.919,-10.778,-0.291731,8.505093,3.258119,0.273290,-0.063416,0.546822
306723,24.203,6.195,-9.063,-0.128906,7.726084,3.552376,0.268058,-0.102827,0.563326
306736,18.960,6.000,-13.900,-0.513621,6.584531,3.479300,0.260337,-0.116462,0.580237
306748,10.920,5.456,-15.143,-1.077125,5.558269,3.318780,0.251505,-0.112116,0.610181
306759,2.124,4.861,-10.924,-1.482770,4.487309,2.917037,0.253970,-0.077573,0.647286
306771,13.775,7.595,-12.329,-1.606575,3.615536,2.390248,0.251255,-0.120555,0.683378
306784,13.554,11.110,-15.835,-1.562410,1.780822,1.636781,0.258715,-0.163923,0.724359
306795,7.369,11.359,-12.110,-1.016997,-0.383978,0.645638,0.292884,-0.209507,0.771172
306807,3.059,10.344,-9.030,-0.002796,-1.648625,-0.134081,0.349435,-0.241258,0.818664
306820,0.519,7.034,-6.246,0.828360,-2.345689,-0.703438,0.412037,-0.253563,0.869888
306831,-0.426,4.754,-5.130,1.183809,-2.699010,-1.091878,0.459372,-0.246260,0.918615
306843,-0.268,3.735,-4.701,1.196047,-2.926221,-1.349419,0.495141,-0.247351,0.965745
306854,0.781,2.425,-4.648,1.000763,-3.237860,-1.631792,0.503579,-0.272212,1.009342
306867,1.706,1.250,-4.830,0.569754,-3.585505,-1.918245,0.483079,-0.322647,1.053218
306878,2.316,1.058,-5.200,0.130232,-3.853156,-2.113529,0.453617,-0.372085,1.086938
306890,3.188,1.713,-5.761,-0.290490,-4.180758,-2.243718,0.430208,-0.432505,1.116503
306902,4.405,2.320,-6.479,-0.479034,-4.535853,-2.264116,0.410667,-0.500061,1.142904
306914,5.343,2.293,-6.968,-0.488612,-4.869486,-2.250813,0.389615,-0.570120,1.161417
306926,5.786,2.072,-7.143,-0.480630,-5.281161,-2.263229,0.367278,-0.640065,1.171898
306938,5.990,1.786,-7.201,-0.523731,-5.583045,-2.294446,0.343278,-0.707277,1.172497
306950,6.677,1.457,-7.582,-0.681768,-5.726715,-2.348366,0.315301,-0.771912,1.164400
306962,7.442,1.354,-8.116,-0.895144,-5.778329,-2.416299,0.285732,-0.832390,1.147953
306974,8.113,1.486,-8.708,-1.067547,-5.766623,-2.441308,0.257578,-0.887177,1.122632
306985,9.339,1.938,-9.685,-1.254673,-5.699754,-2.438825,0.233520,-0.932170,1.096322
306999,11.025,2.891,-10.873,-1.375639,-5.627210,-2.456208,0.211431,-0.989416,1.077263
307011,13.432,3.887,-12.173,-1.342648,-5.570629,-2.592427,0.197287,-1.034139,1.056396
307024,16.911,4.490,-13.220,-1.154281,-5.524158,-2.919498,0.185145,-1.086212,1.043010
307038,20.174,4.347,-13.910,-0.952612,-5.478220,-3.276721,0.172546,-1.143267,1.037067
307050,23.788,3.364,-14.047,-0.742783,-5.391486,-3.570445,0.159341,-1.190885,1.028769
307063,27.300,2.226,-12.741,-0.571089,-5.291981,-3.658776,0.143758,-1.247472,1.024944
307076,30.354,1.447,-9.052,-0.426710,-5.168709,-3.443094,0.128447,-1.312352,1.018776
307089,32.617,0.718,-2.884,-0.279493,-4.953027,-2.976079,0.113884,-1.389586,1.008264
307102,33.731,-4.708,5.370,-0.426710,-4.544722,-2.334886,0.081847,-1.138315,0.983178
307115,32.476,-13.397,13.668,-1.271345,-3.823890,-1.845346,0.018734,-0.931206,0.948063
307128,32.489,-14.936,20.070,-2.278806,-2.510643,-1.599511,-0.050347,-0.747574,0.908386
307140,27.268,-6.282,20.651,-1.118098,0.389355,-0.684282,-0.076566,-0.561877,0.861954
307153,0.612,-3.762,4.551,0.790580,2.185757,0.814139,-0.133758,-0.460162,0.800208
307166,-12.267,17.498,-28.983,0.807785,2.567457,1.915606,-0.054751,-0.335755,0.742559
307179,5.500,10.537,-1.781,1.698359,4.552582,2.879257,0.087463,-0.382455,0.690607
307191,19.487,7.126,-13.913,3.668761,4.157047,2.387410,0.148793,-0.398750,0.656528
307205,24.622,3.700,-12.094,3.671954,3.148344,1.829404,0.193242,-0.437026,0.631079
307217,10.037,-11.975,-14.119,2.411918,1.735592,2.134835,0.132515,-0.437619,0.603974
307230,10.614,-3.092,-13.383,1.229216,1.208094,0.860965,0.112867,-0.448476,0.590831
307243,7.470,4.043,-9.901,1.019387,0.589960,0.412928,0.146696,-0.462773,0.586606
307255,5.614,2.471,-9.330,0.796433,0.382615,0.290898,0.163511,-0.466857,0.585759
307267,5.024,2.594,-8.915,0.666598,0.220144,0.238396,0.179814,-0.469146,0.586716
307279,4.143,3.216,-8.662,0.613387,0.174383,0.212855,0.201816,-0.464467,0.589528
307292,4.682,2.063,-8.806,0.593522,0.165514,0.218176,0.209009,-0.464776,0.592269
307305,4.395,2.325,-8.717,0.443644,0.117447,0.216580,0.216912,-0.463281,0.595368
307317,4.801,1.830,-8.720,0.300861,0.110175,0.252231,0.216426,-0.466072,0.597904
307329,5.078,0.888,-9.031,0.143002,0.026988,0.208066,0.203985,-0.470405,0.599654
307342,4.465,1.759,-8.877,-0.053524,0.009074,0.128427,0.200309,-0.469483,0.601673
307354,4.344,2.139,-8.881,0.014232,0.034438,0.083020,0.201866,-0.467232,0.604290
307366,4.322,2.123,-8.683,0.171736,0.076474,0.063510,0.205202,-0.465515,0.607105
307379,4.355,2.016,-8.691,0.183443,0.099887,0.045773,0.207294,-0.463899,0.609917
307391,4.526,2.269,-8.638,0.133070,0.119043,0.044354,0.211037,-0.464305,0.612799
307403,4.402,2.605,-8.556,0.125443,0.113722,0.080892,0.218124,-0.463927,0.615489
307417,4.283,2.552,-8.585,0.118170,0.108756,0.155387,0.224191,-0.462079,0.617230
307429,4.197,2.309,-8.692,0.079149,0.117979,0.230947,0.226246,-0.459181,0.618563
307441,4.367,2.103,-8.751,0.003235,0.142101,0.274934,0.224791,-0.457735,0.619199
307453,4.504,1.909,-8.696,-0.043768,0.165337,0.278304,0.220937,-0.457797,0.619452
307466,4.542,1.932,-8.664,-0.060973,0.185025,0.271032,0.217497,-0.458006,0.619240
307478,4.507,2.028,-8.673,-0.065585,0.199924,0.265534,0.215459,-0.457834,0.619262
307490,4.533,2.064,-8.646,-0.064166,0.221563,0.271032,0.214062,-0.457834,0.619120
307503,4.590,2.033,-8.575,-0.028337,0.240896,0.277240,0.212919,-0.458329,0.618562
307516,4.667,2.087,-8.632,-0.019823,0.253844,0.295509,0.212370,-0.459103,0.617822
307528,4.687,1.888,-8.568,-0.029401,0.267502,0.314488,0.209798,-0.460411,0.617059
307540,4.730,2.029,-8.502,-0.030466,0.279031,0.327791,0.209062,-0.462219,0.616140
307553,4.821,1.836,-8.516,-0.034190,0.288786,0.347479,0.206170,-0.464278,0.614525
307565,4.828,1.682,-8.513,-0.024435,0.299960,0.327791,0.202086,-0.466350,0.613316
307577,4.903,1.471,-8.608,-0.008649,0.321777,0.325662,0.196177,-0.468163,0.611795
307591,4.751,1.555,-8.634,-0.033303,0.348560,0.262519,0.191481,-0.467331,0.610263
307603,4.653,1.790,-8.702,-0.028337,0.413832,0.220305,0.189881,-0.465243,0.609836
307615,4.767,1.804,-8.691,-0.060973,0.486199,0.229528,0.188172,-0.463737,0.609257
307628,4.798,1.487,-8.705,-0.176796,0.587832,0.225626,0.181842,-0.461017,0.608142
307641,4.800,1.475,-8.951,-0.201450,0.695141,0.199730,0.175420,-0.456138,0.607091
307653,4.729,1.417,-9.202,-0.258209,0.849630,0.163901,0.168411,-0.448859,0.606397
307665,4.703,1.290,-9.401,-0.346539,1.075422,0.125589,0.159710,-0.438777,0.605763
307678,4.586,1.371,-9.292,-0.450832,1.349281,0.062268,0.151406,-0.425071,0.605478
307691,4.825,1.301,-9.480,-0.564704,1.621721,-0.052490,0.141607,-0.411046,0.606163
307703,4.957,1.893,-9.262,-0.592373,1.909060,-0.078741,0.139164,-0.399113,0.607169
307716,4.842,2.110,-9.117,-0.611175,2.225843,0.005687,0.138786,-0.382802,0.607509
307728,4.800,3.120,-9.966,-0.787126,2.589629,0.122928,0.144975,-0.362084,0.607629
307741,3.999,4.213,-10.438,-0.452606,3.049904,0.281320,0.163013,-0.327052,0.608097
307753,4.062,3.925,-10.249,-0.309823,3.681518,0.574690,0.179007,-0.292969,0.607860
307766,3.698,3.355,-10.844,-0.200031,4.437291,0.785405,0.188222,-0.245322,0.606959
307778,2.810,4.144,-11.243,-0.096979,5.399700,0.922689,0.203992,-0.187422,0.608662
307791,3.792,4.505,-11.491,0.023810,6.520678,1.112120,0.220888,-0.125973,0.624225
307804,5.070,5.597,-11.614,0.049883,7.650525,1.398396,0.242788,-0.068259,0.638664
307816,8.465,6.419,-11.792,0.044030,8.376854,1.796946,0.262198,-0.038424,0.663214
307827,15.031,5.461,-12.173,-0.233022,8.773986,2.426077,0.261541,-0.043126,0.692442
307840,18.701,4.833,-10.942,-0.650905,8.692395,2.857973,0.249777,-0.049699,0.719679
307852,23.223,7.765,-9.446,-0.638490,7.997815,3.178480,0.248606,-0.085921,0.749581
307863,21.794,6.260,-12.390,-0.740300,7.016250,3.320376,0.241169,-0.120167,0.782643
307875,16.939,6.214,-13.593,-1.282520,6.115388,3.146376,0.231654,-0.137616,0.814673
307888,7.267,5.648,-13.828,-1.781816,5.055957,2.941869,0.223559,-0.117285,0.843580
307899,4.203,6.547,-9.612,-1.779510,3.878398,2.748890,0.241624,-0.111604,0.876362
307911,14.648,10.102,-14.447,-1.511150,2.501476,2.338101,0.248468,-0.158134,0.907982
307923,9.327,11.142,-13.666,-1.007951,0.028584,1.469166,0.274418,-0.206047,0.946159
307935,5.509,10.796,-10.743,-0.328447,-1.273488,0.830102,0.319456,-0.249786,0.983752
307947,2.231,9.141,-7.865,0.661277,-2.352075,0.176672,0.382235,-0.279711,1.022258
307958,0.607,6.425,-5.483,1.381754,-2.960276,-0.282539,0.446688,-0.292829,1.061939
307971,-0.177,5.158,-4.690,1.635038,-3.256129,-0.561365,0.507391,-0.297709,1.101082
307983,0.314,4.241,-4.150,1.681864,-3.521297,-0.863071,0.556721,-0.313746,1.140475
307994,1.648,3.121,-4.046,1.498286,-3.834000,-1.158924,0.579028,-0.360705,1.172526
308006,2.335,2.290,-4.112,1.032335,-4.233969,-1.484575,0.577659,-0.424217,1.207811
308018,2.518,2.563,-4.477,0.500048,-4.572037,-1.745309,0.571917,-0.484275,1.239626
308030,3.345,3.397,-4.705,0.193553,-4.777963,-1.865034,0.570720,-0.551364,1.264553
308042,4.543,4.241,-4.955,0.070635,-5.030005,-1.950349,0.571567,-0.627179,1.285785
308054,5.416,4.410,-5.320,0.125975,-5.260055,-2.025731,0.569065,-0.703013,1.301481
308066,6.432,3.946,-5.667,0.141938,-5.426605,-2.115657,0.556985,-0.778385,1.317971
308078,7.275,3.358,-5.931,0.015296,-5.624904,-2.284868,0.535528,-0.851998,1.335369
308091,7.935,2.893,-6.431,-0.291199,-5.774604,-2.497003,0.505461,-0.925058,1.355558
308104,8.404,2.984,-7.162,-0.577474,-5.765559,-2.623290,0.473765,-0.987511,1.374480
308117,9.616,3.438,-8.297,-0.794930,-5.650445,-2.656281,0.442807,-1.041151,1.390826
308129,11.855,4.063,-9.636,-0.923878,-5.563889,-2.669051,0.413996,-1.086112,1.402124
308142,14.552,4.586,-10.844,-0.956691,-5.556794,-2.733614,0.385670,-1.135620,1.414423
308155,17.291,4.718,-11.703,-0.954740,-5.577192,-2.888281,0.357593,-1.184772,1.426144
308168,19.809,4.348,-12.555,-0.959529,-5.545088,-3.103608,0.328198,-1.231354,1.437800
308219,30.805,1.133,-3.551,-1.038814,-5.138201,-2.939895,0.199368,-1.448821,1.461593
308232,30.035,-3.989,3.079,-1.266734,-4.685198,-2.483877,0.149151,-1.187470,1.443155
308245,26.870,-10.781,8.972,-1.931162,-3.871780,-2.042758,0.071269,-0.967815,1.410443
308257,29.419,-14.114,14.405,-2.619002,-2.597909,-1.698129,-0.008306,-0.770296,1.368897
308271,32.264,-11.239,18.944,-2.381858,-1.170259,-1.172759,-0.068891,-0.586586,1.324949
308284,18.385,-3.375,13.513,-0.253242,0.733098,0.030873,-0.080300,-0.410624,1.273796
308297,0.931,3.305,-16.845,1.288457,1.724596,1.515105,-0.035376,-0.350633,1.215512
308310,-15.313,21.705,-22.532,0.592103,1.889904,1.663918,0.049133,-0.223775,1.170268
308322,1.714,4.527,0.342,1.964591,3.958038,2.696034,0.195801,-0.006405,1.132413
308334,16.065,11.514,-19.373,3.766670,4.413701,1.944340,0.261828,-0.031667,1.107123
308346,24.037,2.608,-10.258,3.735098,3.215922,1.699924,0.284891,-0.117951,1.085704
308360,6.727,-14.395,-14.735,2.495460,1.418987,2.481771,0.206498,-0.132588,1.051453
308372,9.755,-1.686,-13.619,1.517974,1.481599,1.019888,0.189806,-0.168482,1.039583
308384,8.294,2.512,-10.275,1.550433,0.912419,0.609277,0.206396,-0.212648,1.032938
308398,7.326,1.621,-10.509,1.118891,0.476976,0.372133,0.211793,-0.248756,1.028366
308410,5.313,1.512,-9.548,0.840066,0.206841,0.275644,0.212902,-0.273737,1.025581
308422,5.036,2.523,-8.943,0.603455,0.156646,0.184476,0.222539,-0.297033,1.024074
308434,4.963,1.756,-9.014,0.387773,0.074878,0.178800,0.221101,-0.317630,1.022423
308447,4.209,2.148,-8.692,0.233816,0.049514,0.146164,0.223716,-0.330682,1.021096
308459,4.914,2.392,-8.606,0.130764,0.057318,0.141020,0.226657,-0.349607,1.019981
308471,4.543,1.969,-8.567,0.170672,0.024860,0.122928,0.225809,-0.363491,1.018973
308484,4.539,1.795,-8.957,0.192311,0.043484,0.074152,0.222915,-0.373707,1.018279
308496,4.328,2.111,-8.753,0.193553,0.059447,0.046305,0.224030,-0.381664,1.017989
308509,4.227,2.252,-8.677,0.162513,0.082150,0.038678,0.226598,-0.387834,1.017829
308521,4.377,2.308,-8.606,0.140874,0.109997,0.037259,0.229087,-0.394992,1.017781
308534,4.338,2.425,-8.618,0.120654,0.111239,0.052513,0.232461,-0.400842,1.017630
308546,4.261,2.625,-8.558,0.125443,0.116383,0.095259,0.237740,-0.405658,1.017292
308558,4.243,2.490,-8.553,0.086599,0.112658,0.157516,0.240650,-0.409842,1.016423
308571,4.064,2.445,-8.613,0.030195,0.108933,0.214983,0.242283,-0.411412,1.014909
308583,4.409,2.130,-8.707,-0.011310,0.148132,0.257552,0.239356,-0.415509,1.013121
308595,4.579,2.008,-8.659,-0.015034,0.157887,0.258084,0.235350,-0.420949,1.011279
308609,4.550,1.890,-8.696,-0.003151,0.174737,0.236268,0.230571,-0.424879,1.009197
308621,4.572,1.941,-8.626,0.010507,0.193006,0.205405,0.227093,-0.429125,1.007883
308633,4.601,2.008,-8.585,0.012813,0.201343,0.185185,0.224778,-0.433312,1.006775
308645,4.630,2.051,-8.565,0.015828,0.206309,0.186250,0.223205,-0.437376,1.005660
308658,4.595,2.153,-8.582,0.014586,0.205954,0.209308,0.222879,-0.440406,1.004197
308670,4.595,2.179,-8.513,-0.000667,0.212162,0.248506,0.222820,-0.443613,1.002627
308683,4.679,2.109,-8.490,0.006427,0.219435,0.278127,0.222067,-0.447159,1.000604
308696,4.723,1.938,-8.547,0.019021,0.227061,0.296396,0.219560,-0.450392,0.998442
308708,4.809,1.785,-8.496,0.004654,0.238945,0.304023,0.215529,-0.454473,0.996451
308720,4.695,1.744,-8.585,-0.010245,0.255263,0.293204,0.211303,-0.456364,0.994553
308732,4.804,1.761,-8.574,-0.073034,0.286480,0.288769,0.206953,-0.458810,0.992658
308745,4.756,1.807,-8.544,-0.148062,0.309538,0.287350,0.202692,-0.460194,0.990502
308757,4.729,1.759,-8.637,-0.145046,0.362395,0.268549,0.198421,-0.460407,0.988806
308770,4.635,1.763,-8.695,-0.169346,0.421814,0.244782,0.194216,-0.458393,0.987135
308783,4.601,1.549,-8.992,-0.202514,0.529477,0.219595,0.187372,-0.453555,0.985630
308819,4.663,1.274,-9.407,-0.439658,1.163042,-0.003714,0.156745,-0.427553,0.984336
308833,4.579,1.461,-9.434,-0.540227,1.430871,-0.083353,0.148016,-0.412047,0.985167
308845,4.644,1.947,-9.334,-0.669529,1.731868,-0.136209,0.144784,-0.398625,0.986359
308857,4.504,2.158,-9.381,-0.799187,2.060179,-0.138692,0.142629,-0.381610,0.987615
308870,4.403,3.296,-10.222,-1.037749,2.452877,-0.117053,0.146270,-0.355661,0.989234
308883,3.706,3.858,-9.936,-1.058147,2.983922,0.122751,0.155983,-0.321021,0.988996
308895,3.844,4.073,-10.817,-1.193125,3.538380,0.446451,0.163218,-0.285163,0.986446
308909,3.346,3.712,-11.007,-0.767970,4.301071,0.657344,0.170026,-0.232414,0.982214
308921,3.351,4.032,-11.502,-0.580667,5.188985,0.814139,0.180730,-0.182274,0.979489
308933,3.294,5.364,-11.735,-0.375627,6.294000,1.008891,0.202107,-0.124613,0.977065
308945,4.525,6.272,-11.778,-0.176264,7.393516,1.307937,0.228294,-0.071314,0.973720
308958,8.573,6.583,-12.383,-0.108508,8.287283,1.865233,0.247196,-0.032760,0.964593
308970,14.331,5.331,-11.826,-0.340153,8.684414,2.426964,0.247378,-0.030896,0.939770
308982,18.540,4.517,-10.894,-0.723805,8.686010,2.715367,0.235683,-0.046069,0.921125
308995,21.080,7.196,-9.173,-0.832887,8.013069,3.080572,0.233696,-0.073561,0.896851
309006,18.868,5.934,-10.622,-0.778080,7.066268,3.251202,0.229996,-0.109545,0.883749
309018,13.507,5.715,-12.626,-1.225584,6.286905,3.052902,0.224655,-0.118529,0.871089
309030,7.335,5.770,-12.668,-1.578373,5.507186,2.927679,0.224133,-0.103798,0.866755
309043,2.272,5.858,-10.542,-1.641694,4.670178,2.770707,0.234759,-0.062627,0.864093
309054,12.064,6.937,-12.105,-1.434171,3.451469,2.565490,0.237070,-0.106185,0.865872
309066,11.868,9.995,-15.130,-1.214942,1.174749,1.882615,0.250186,-0.154214,0.867151
309078,6.982,8.854,-11.485,-0.748104,-0.966461,0.993992,0.277880,-0.207690,0.872927
309090,3.504,8.225,-8.740,-0.096979,-2.421781,0.261277,0.324015,-0.253788,0.886950
309101,1.481,7.028,-6.487,0.406929,-3.143854,-0.165475,0.379950,-0.283319,0.900198
309113,0.236,5.608,-5.114,0.863834,-3.581248,-0.489175,0.437436,-0.298682,0.917441
309126,0.263,4.498,-4.311,1.123148,-3.808459,-0.736961,0.490540,-0.319648,0.937977
309138,1.570,3.398,-4.232,1.141595,-4.001615,-0.974459,0.520217,-0.368011,0.959650
309151,3.040,2.161,-4.701,0.887424,-4.272991,-1.260557,0.515505,-0.441386,0.984421
309164,4.348,1.758,-5.262,0.387418,-4.632697,-1.578936,0.492880,-0.523699,1.011008
309176,4.756,2.373,-5.479,-0.069842,-4.996128,-1.842685,0.474213,-0.599408,1.036900
309188,5.025,3.193,-5.619,-0.241181,-5.208440,-1.997884,0.464730,-0.670888,1.062953
309201,5.910,3.281,-5.921,-0.202337,-5.336146,-2.087456,0.453635,-0.746919,1.090563
309214,6.680,2.916,-6.172,-0.107799,-5.428733,-2.174544,0.437921,-0.820217,1.117444
309226,7.361,2.290,-6.625,-0.094319,-5.479284,-2.269969,0.415182,-0.882599,1.140928
309239,7.954,1.690,-7.318,-0.214575,-5.471657,-2.361847,0.385559,-0.941990,1.164832
309252,8.547,1.479,-8.170,-0.425823,-5.409577,-2.402997,0.353209,-0.992090,1.185805
309265,9.734,1.840,-9.099,-0.658355,-5.319118,-2.360073,0.322926,-1.036803,1.203069
309278,11.639,2.673,-10.064,-0.817456,-5.247284,-2.295510,0.297774,-1.079918,1.217091
309291,14.624,3.317,-11.023,-0.888936,-5.249589,-2.322470,0.275254,-1.125555,1.229585
309304,18.139,4.086,-11.627,-0.881486,-5.388293,-2.562629,0.256132,-1.176011,1.243697
309316,20.194,4.519,-11.634,-0.746153,-5.492054,-2.822831,0.241748,-1.222405,1.257407
309329,22.218,4.487,-11.207,-0.533132,-5.460305,-2.984770,0.229325,-1.274339,1.275059
309342,24.739,4.042,-9.730,-0.356649,-5.363284,-2.978739,0.217276,-1.329473,1.292020
309355,26.802,3.077,-6.608,-0.342991,-5.223693,-2.787534,0.202322,-1.391420,1.306415
309368,27.560,1.006,-2.175,-0.562043,-4.966330,-2.480685,0.178275,-1.461387,1.316849
309381,26.007,-2.506,2.391,-1.138318,-4.426948,-2.144746,0.135700,-1.192793,1.305741
309394,25.693,-7.155,6.772,-2.045743,-3.428000,-1.880110,0.068885,-0.959184,1.280731
309406,27.226,-8.260,10.579,-2.487216,-2.559597,-1.717639,0.005228,-0.752168,1.248332
309420,27.056,-6.992,14.144,-1.987565,-1.614925,-1.294789,-0.044470,-0.569979,1.213772
309432,23.729,-3.291,12.692,-0.543951,0.013153,-0.364484,-0.058445,-0.389523,1.172781
309445,3.623,-2.990,1.892,0.493130,1.559642,0.853160,-0.114957,-0.208997,1.124059
309458,-6.635,15.310,-25.260,0.336158,1.743574,1.484065,-0.040532,-0.136371,1.079578
309471,-4.025,15.015,-9.292,1.618011,3.156326,2.392377,0.089699,-0.038572,1.037663
309483,15.306,-3.936,-9.166,2.529515,3.698013,2.776560,0.083923,-0.105072,0.996074
309496,20.634,9.267,-16.979,3.530768,3.135041,1.594567,0.152433,-0.151721,0.971211
309509,7.550,-7.215,-10.615,2.626181,1.783128,1.765196,0.111604,-0.180533,0.944966
309521,8.568,-3.920,-13.436,1.401442,1.764326,0.864689,0.088676,-0.202421,0.931413
309534,9.397,2.128,-10.593,1.037301,1.122602,0.708072,0.107482,-0.245066,0.920164
309547,4.969,5.752,-8.793,0.984800,0.716602,0.449644,0.163752,-0.265049,0.915058
309559,6.431,1.809,-9.952,1.040494,0.613550,0.393063,0.173860,-0.290985,0.911573
309571,5.472,1.965,-9.297,0.923075,0.277080,0.343222,0.184713,-0.313152,0.909163
309583,5.091,2.150,-9.375,0.705620,0.174028,0.279546,0.194081,-0.330300,0.907898
309596,4.666,1.547,-9.080,0.460140,0.103080,0.252763,0.195026,-0.343889,0.906729
309608,4.531,2.099,-8.732,0.299443,0.089245,0.225094,0.200142,-0.356713,0.906343
309621,4.831,1.395,-9.028,0.221045,0.060511,0.183412,0.196033,-0.369814,0.905988
309633,4.723,1.768,-9.068,0.157901,0.031245,0.116543,0.195334,-0.380701,0.906464
309646,4.517,2.012,-8.885,0.218917,0.025392,0.075571,0.198577,-0.389423,0.907334
309658,4.372,2.091,-8.828,0.229736,0.029649,0.046837,0.202443,-0.396090,0.908644
309670,4.288,2.071,-8.735,0.197277,0.039227,0.032292,0.205597,-0.401558,0.910080
309683,4.251,2.261,-8.662,0.128635,0.074878,0.019167,0.210025,-0.405974,0.911654
309695,4.271,2.609,-8.524,0.143002,0.094211,0.042225,0.217950,-0.410704,0.913193
309707,4.184,2.588,-8.561,0.130232,0.084456,0.097919,0.224682,-0.413966,0.914261
309721,4.011,2.709,-8.498,0.122073,0.079667,0.171350,0.232612,-0.415303,0.914468
309733,4.024,2.592,-8.582,0.096709,0.087117,0.262341,0.237648,-0.416352,0.914254
309745,4.287,2.222,-8.639,0.058574,0.089245,0.316084,0.237390,-0.419649,0.913460
309757,4.447,1.888,-8.749,0.033388,0.099355,0.321938,0.232995,-0.423511,0.912477
309770,4.377,1.961,-8.704,0.035871,0.124364,0.285931,0.230035,-0.426114,0.911586
309782,4.383,1.907,-8.726,0.022745,0.153098,0.270855,0.226590,-0.428218,0.911062
309794,4.513,1.917,-8.636,0.019198,0.172609,0.261809,0.223629,-0.431603,0.910543
309807,4.665,1.924,-8.620,0.020617,0.173850,0.261809,0.220965,-0.436020,0.909708
309819,4.556,1.991,-8.602,0.018134,0.162321,0.272806,0.219372,-0.439314,0.909015
309831,4.536,1.921,-8.658,0.058397,0.174915,0.279369,0.217567,-0.441637,0.908232
309844,4.521,1.871,-8.659,0.064605,0.194603,0.289479,0.215560,-0.443180,0.907067
309856,4.621,1.384,-8.819,0.076489,0.228658,0.221369,0.208348,-0.444548,0.906685
309869,4.622,1.894,-8.636,0.085002,0.267502,0.136231,0.207723,-0.446058,0.907098
309881,4.610,2.084,-8.644,0.078085,0.264132,0.183766,0.208997,-0.447555,0.907152
309894,4.657,1.710,-8.611,0.030195,0.281869,0.283626,0.205711,-0.449072,0.905712
309906,4.569,1.870,-8.731,-0.069842,0.299960,0.306506,0.203234,-0.449044,0.904329
309918,4.647,1.929,-8.531,-0.111346,0.334548,0.331515,0.201486,-0.450428,0.902734
309931,4.600,1.585,-8.828,-0.142563,0.380486,0.343754,0.195380,-0.448863,0.900581
309943,4.569,1.538,-8.867,-0.172539,0.473960,0.319809,0.189204,-0.446340,0.898943
309956,4.539,1.310,-9.130,-0.199322,0.595459,0.289124,0.180499,-0.440692,0.897148
309968,4.373,1.301,-9.369,-0.234796,0.765557,0.236800,0.172244,-0.431744,0.896020
309981,4.548,1.192,-9.401,-0.310001,1.007312,0.190152,0.162527,-0.421746,0.894927
309994,4.548,1.250,-9.595,-0.376869,1.271593,0.123993,0.153431,-0.408921,0.894379
310006,4.595,1.443,-9.340,-0.513976,1.562834,0.057834,0.146392,-0.397076,0.894483
310019,4.772,2.144,-9.669,-0.615254,1.845207,0.044176,0.144814,-0.381995,0.894742
310031,4.583,2.668,-9.639,-0.653034,2.206687,0.133748,0.148753,-0.364747,0.894430
310043,4.378,3.131,-10.005,-0.700392,2.565152,0.309699,0.155412,-0.342124,0.892816
310056,3.964,4.110,-10.920,-0.413939,3.092472,0.519350,0.170723,-0.306652,0.889755
310069,3.891,3.613,-10.701,-0.118264,3.767720,0.805093,0.184391,-0.267270,0.884804
310081,3.676,3.436,-11.178,0.039063,4.511786,0.996121,0.195830,-0.224177,0.880103
310094,2.732,3.856,-11.544,0.160562,5.467810,1.127020,0.210824,-0.161463,0.875065
310107,3.903,4.143,-11.264,0.276384,6.599431,1.301197,0.227794,-0.103439,0.870165
310119,4.524,5.070,-11.517,0.265388,7.693093,1.546322,0.248362,-0.050164,0.865847
310131,8.934,6.016,-11.803,0.248715,8.594842,2.059631,0.266206,-0.022247,0.857372
310144,16.402,5.112,-12.343,-0.107089,8.955790,2.649918,0.263040,-0.015929,0.841316
310157,19.374,4.497,-10.950,-0.550869,8.728933,3.011752,0.250225,-0.027697,0.838875
310169,23.573,6.913,-8.701,-0.616318,8.009167,3.238963,0.246004,-0.070636,0.837386
310180,20.923,5.806,-12.529,-0.923346,6.958427,3.279936,0.236003,-0.105298,0.841464
310193,13.975,5.715,-14.121,-1.499621,5.790801,3.173514,0.223770,-0.111565,0.839978
310205,3.903,5.116,-12.306,-1.871920,4.709022,2.919875,0.220533,-0.083258,0.843952
310216,8.847,6.190,-9.768,-1.858795,3.718234,2.673863,0.225788,-0.116904,0.853999
310228,15.957,10.025,-15.243,-1.737474,2.470968,2.188046,0.228866,-0.164945,0.862321
310241,9.403,11.193,-13.430,-1.276312,-0.067550,1.200805,0.254080,-0.214987,0.879875
310252,4.885,11.085,-10.265,-0.354520,-1.607121,0.358653,0.305905,-0.256571,0.907098
310264,2.058,9.087,-7.630,0.491002,-2.423377,-0.205915,0.369869,-0.285089,0.940021
310277,0.713,6.145,-5.661,1.156139,-2.935976,-0.673995,0.432382,-0.304122,0.973822
310288,-0.146,4.510,-4.622,1.384414,-3.286459,-1.052502,0.482772,-0.302685,1.006741
310300,0.576,3.522,-4.189,1.347344,-3.557481,-1.351902,0.520596,-0.325036,1.042363
310311,1.577,2.322,-4.124,1.110378,-3.887211,-1.622392,0.528730,-0.368994,1.076357
310324,2.070,1.676,-4.423,0.753332,-4.149541,-1.819804,0.517731,-0.426234,1.110356
310335,2.910,1.846,-4.863,0.256519,-4.431560,-1.995046,0.499960,-0.483186,1.137409
310347,3.940,2.654,-5.351,-0.102832,-4.700275,-2.089584,0.487258,-0.551187,1.165611
310359,5.148,3.247,-5.740,-0.208190,-4.926954,-2.116189,0.476667,-0.624636,1.192539
310372,6.751,3.016,-5.864,-0.220251,-5.251009,-2.116367,0.459092,-0.711949,1.220078
310385,7.986,2.059,-5.953,-0.364276,-5.625968,-2.134459,0.428605,-0.802422,1.245645
310397,8.539,1.629,-6.073,-0.644520,-5.828348,-2.174189,0.393333,-0.882638,1.266910
310410,8.509,1.534,-5.927,-0.954917,-5.827106,-2.208954,0.356702,-0.960713,1.287914
310423,8.812,2.127,-6.209,-1.203768,-5.646898,-2.219419,0.326121,-1.027707,1.306375
310435,9.894,3.210,-7.401,-1.284826,-5.380488,-2.236624,0.305358,-1.076448,1.320848
310449,11.796,3.989,-9.023,-1.231969,-5.167999,-2.333290,0.286137,-1.125700,1.338875
310461,13.670,4.277,-10.738,-1.157474,-5.073638,-2.574691,0.269599,-1.157820,1.352907
310474,15.864,4.256,-12.224,-1.153749,-5.078605,-2.896262,0.250449,-1.192021,1.370846
310488,17.778,4.165,-13.232,-1.147541,-5.156648,-3.197259,0.229855,-1.229508,1.392354
