149969,8.633,-3.979,2.338,0.003260,0.013033,-0.009421,99720.24,-70,-191,-8
149980,8.643,-3.985,2.332,0.001664,0.012501,-0.006229,99722.60,-70,-191,-8
149989,8.622,-4.027,2.340,0.000600,0.011436,-0.003036,99722.60,-72,-191,-8
149999,8.648,-4.035,2.360,0.003260,0.009840,-0.003036,99720.08,-70,-189,-8
150009,8.640,-4.034,2.344,0.004324,0.010372,-0.001440,99721.13,-70,-189,-8
150020,8.649,-4.019,2.341,0.005389,0.008244,0.000157,99719.39,-70,-191,-8
150030,8.670,-4.010,2.311,0.008581,0.005583,0.002285,99720.44,-72,-191,-7
150039,8.660,-3.980,2.370,0.006985,0.003987,0.006010,99720.44,-71,-191,-8
150049,8.673,-3.963,2.347,0.005921,0.003455,0.012927,99723.57,-71,-191,-8
150060,8.639,-4.005,2.304,0.006985,0.002390,0.016652,99720.38,-71,-191,-8
150070,8.609,-4.044,2.306,0.008581,0.002923,0.016120,99720.01,-72,-191,-7
150079,8.610,-4.071,2.343,0.007517,0.005051,0.014523,99721.01,-71,-191,-7
150089,8.584,-4.077,2.312,0.002196,0.007179,0.010267,99721.01,-71,-191,-7
150099,8.610,-4.048,2.320,-0.002061,0.010904,0.005478,99718.78,-71,-191,-7
150110,8.648,-4.028,2.322,-0.000464,0.010372,0.004945,99723.17,-72,-191,-7
150115,8.643,-3.993,2.324,0.002728,0.010904,0.007074,99720.50,-72,-191,-7
150124,8.643,-4.023,2.312,0.003260,0.009308,0.008670,99720.50,-70,-191,-7
150134,8.637,-4.007,2.330,0.005389,0.008776,0.009202,99721.03,-71,-190,-8
150145,8.651,-4.028,2.353,0.005389,0.008776,0.011331,99721.03,-71,-190,-8
150155,8.599,-4.067,2.355,0.002728,0.009840,0.012395,99723.84,-72,-191,-7
150165,8.594,-4.048,2.297,-0.000997,0.011436,0.011863,99719.98,-71,-191,-7
150174,8.613,-4.022,2.344,-0.000997,0.012501,0.010799,99720.95,-70,-191,-7
150184,8.649,-4.003,2.377,-0.001529,0.011968,0.012395,99720.95,-70,-191,-7
150195,8.636,-4.005,2.353,0.000068,0.009308,0.014523,99720.95,-71,-191,-6
150205,8.675,-3.955,2.384,0.002728,0.009308,0.020377,99721.77,-70,-191,-8
150214,8.663,-4.024,2.379,0.004324,0.007712,0.025698,99720.72,-71,-192,-7
150224,8.646,-4.001,2.408,0.005389,0.004519,0.027826,99720.30,-71,-192,-6
150235,8.589,-4.043,2.371,0.005389,0.002923,0.029423,99718.78,-71,-191,-6
150245,8.572,-4.103,2.332,0.005389,0.000794,0.027826,99718.78,-70,-191,-8
150255,8.576,-4.112,2.288,0.006453,0.003987,0.023037,99722.89,-71,-192,-7
150264,8.606,-4.101,2.288,0.007517,0.005583,0.016120,99722.78,-71,-191,-7
150275,8.614,-4.125,2.252,0.004857,0.012501,0.012395,99718.53,-71,-191,-7
150285,8.603,-4.082,2.318,0.003792,0.018886,0.008138,99718.53,-70,-191,-7
150295,8.614,-4.043,2.342,0.007517,0.022611,0.006542,99722.08,-70,-191,-6
150304,8.591,-4.043,2.329,0.011774,0.024739,0.008138,99720.45,-71,-191,-7
150315,8.597,-4.015,2.360,0.014435,0.025271,0.008670,99720.45,-71,-191,-7
150325,8.572,-4.046,2.300,0.015499,0.026335,0.010267,99719.94,-70,-191,-7
150335,8.587,-4.005,2.416,0.013370,0.025271,0.011331,99720.52,-71,-191,-6
150344,8.620,-4.042,2.458,0.016563,0.021546,0.009734,99720.52,-71,-191,-6
150350,8.607,-4.053,2.480,0.018691,0.014097,0.007074,99721.03,-71,-191,-6
150360,8.594,-4.101,2.520,0.026673,0.006115,0.002285,99721.39,-70,-192,-7
150370,8.573,-4.091,2.434,0.041040,-0.000270,-0.004100,99722.13,-70,-192,-7
150380,8.594,-4.116,2.264,0.041040,0.002923,-0.007293,99721.13,-70,-190,-6
150389,8.614,-4.104,2.191,0.035187,0.010904,-0.008357,99721.13,-70,-192,-6
150400,8.664,-3.952,2.347,0.037315,0.015693,-0.005165,99722.60,-70,-191,-6
150410,8.688,-3.883,2.433,0.048490,0.013565,0.001753,99721.09,-70,-191,-6
150420,8.663,-3.971,2.379,0.069242,0.008244,0.008138,99718.20,-70,-191,-6
150429,8.565,-4.048,2.403,0.089994,-0.000802,0.005478,99719.77,-70,-191,-5
150439,8.566,-4.089,2.366,0.099572,0.000262,0.005478,99719.77,-69,-191,-5
150450,8.570,-4.201,2.243,0.096912,0.006647,-0.002504,99720.53,-71,-191,-5
150460,8.558,-4.182,2.257,0.087866,0.011968,-0.015275,99721.58,-71,-192,-4
150469,8.615,-4.005,2.313,0.087866,0.013033,-0.025385,99722.16,-70,-191,-5
150479,8.643,-4.006,2.427,0.103829,0.011436,-0.029642,99721.27,-70,-192,-4
150490,8.578,-4.009,2.475,0.133095,0.001326,-0.034963,99721.27,-72,-192,-4
150500,8.494,-3.989,2.267,0.163957,-0.001334,-0.038688,99722.13,-72,-192,-4
150510,8.487,-3.994,1.995,0.166086,0.006115,-0.036559,99721.77,-70,-191,-4
150519,8.553,-3.928,2.021,0.168214,0.015693,-0.035495,99719.26,-70,-192,-3
150530,8.685,-3.805,2.323,0.186838,0.027932,-0.027513,99719.52,-72,-191,-2
150540,8.633,-3.773,2.374,0.197480,0.027932,-0.019532,99719.52,-72,-191,-2
150550,8.497,-3.937,2.580,0.213444,0.034849,-0.018467,99720.53,-71,-192,-1
150559,8.346,-4.067,2.565,0.232067,0.036446,-0.028045,99722.58,-70,-193,-1
150569,8.214,-4.228,2.344,0.228875,0.050812,-0.049330,99720.75,-72,-192,-1
150580,8.085,-4.473,2.216,0.219297,0.075822,-0.083385,99718.75,-72,-192,-1
150585,8.135,-4.402,2.200,0.212379,0.102427,-0.114247,99718.75,-72,-192,+0
150594,8.241,-4.165,2.209,0.200673,0.130097,-0.140853,99718.75,-72,-192,+0
150605,8.408,-3.998,2.178,0.203866,0.163088,-0.163733,99721.73,-71,-192,+0
150615,8.467,-3.896,2.054,0.229939,0.187565,-0.171183,99721.57,-73,-192,+2
150625,8.631,-3.762,2.259,0.257609,0.206189,-0.167458,99719.27,-74,-191,+3
150635,8.792,-3.646,2.516,0.270911,0.215767,-0.154687,99719.27,-74,-191,+3
150645,8.965,-3.749,2.917,0.265058,0.216299,-0.132871,99721.40,-73,-191,+4
150654,9.140,-3.756,3.168,0.237921,0.198207,-0.115843,99720.35,-76,-191,+5
150665,9.056,-3.847,3.409,0.193756,0.174262,-0.100412,99720.35,-75,-191,+5
150675,8.948,-3.878,3.558,0.138416,0.147656,-0.092431,99719.10,-75,-191,+5
150684,8.868,-3.928,3.477,0.069774,0.117326,-0.090302,99721.35,-76,-191,+7
150694,8.834,-3.803,3.439,0.014435,0.088060,-0.086577,99721.35,-76,-191,+6
150705,8.783,-3.630,3.496,-0.004189,0.048152,-0.075403,99722.68,-76,-191,+6
150715,8.745,-3.645,3.293,-0.007382,0.006647,-0.057311,99720.63,-76,-191,+6
150725,8.730,-3.568,3.190,-0.019088,-0.022619,-0.039220,99719.68,-76,-191,+6
150735,8.667,-3.702,3.057,-0.019088,-0.047096,-0.021660,99719.10,-77,-191,+6
150745,8.626,-3.740,2.961,-0.018024,-0.067316,-0.011018,99722.63,-76,-191,+6
150755,8.589,-3.740,2.912,-0.018556,-0.083279,-0.006761,99723.10,-76,-192,+5
150765,8.609,-3.769,2.796,-0.029198,-0.087536,-0.003568,99722.21,-76,-192,+5
150775,8.673,-3.700,2.688,-0.040373,-0.088600,-0.000376,99720.59,-76,-191,+6
150785,8.663,-3.598,2.659,-0.045162,-0.084875,0.009734,99720.59,-76,-191,+5
150795,8.663,-3.603,2.584,-0.051547,-0.074765,0.024634,99720.59,-76,-191,+4
150805,8.640,-3.667,2.488,-0.044097,-0.069444,0.035808,99722.93,-76,-191,+4
150815,8.587,-3.819,2.577,-0.030263,-0.061463,0.041129,99719.52,-76,-191,+4
150824,8.561,-3.870,2.620,-0.024942,-0.052417,0.037404,99721.46,-76,-191,+4
150835,8.610,-3.842,2.642,-0.037712,-0.040710,0.031551,99721.66,-76,-191,+4
150845,8.649,-3.915,2.488,-0.058464,-0.027940,0.023569,99721.66,-76,-191,+4
150855,8.636,-3.920,2.374,-0.090923,-0.004527,0.015588,99722.24,-76,-191,+5
150865,8.638,-3.809,2.487,-0.128171,0.025271,0.009734,99718.99,-75,-191,+3
150875,8.670,-3.724,2.708,-0.134556,0.044427,0.014523,99717.90,-76,-191,+3
150885,8.722,-3.702,2.850,-0.114868,0.040170,0.024101,99717.90,-76,-191,+3
150895,8.649,-3.658,3.096,-0.078685,0.008776,0.036340,99717.90,-76,-191,+3
150904,8.670,-3.806,2.851,-0.059529,-0.022087,0.051771,99721.76,-75,-190,+3
150915,8.778,-3.912,2.799,-0.091987,-0.032197,0.059753,99719.91,-75,-192,+2
150925,8.782,-3.866,2.862,-0.150519,-0.037518,0.072523,99720.60,-75,-192,+2
150935,8.788,-3.833,2.955,-0.210116,-0.044435,0.094872,99720.49,-75,-191,+1
150944,8.819,-3.833,3.039,-0.258538,-0.061463,0.126267,99720.49,-74,-192,+1
150956,9.022,-3.617,2.980,-0.288336,-0.084875,0.165643,99718.08,-74,-191,+0
150965,9.361,-3.512,2.997,-0.337822,-0.113077,0.221514,99721.38,-74,-191,+0
150975,9.537,-3.405,2.984,-0.402207,-0.152986,0.284303,99719.02,-74,-191,+0
150985,9.504,-2.942,3.270,-0.502776,-0.193426,0.371037,99717.86,-72,-192,-1
150995,9.595,-2.839,3.686,-0.550666,-0.267921,0.471074,99720.84,-70,-193,-4
151005,9.371,-2.652,3.965,-0.539492,-0.365829,0.565789,99721.33,-70,-193,-4
151015,9.318,-3.319,4.156,-0.508629,-0.459481,0.641349,99721.33,-69,-193,-6
151025,9.259,-4.882,3.312,-0.495859,-0.528655,0.654652,99720.59,-65,-193,-8
151034,9.340,-5.756,2.417,-0.595363,-0.524398,0.612615,99719.38,-63,-194,-10
151045,9.703,-5.807,2.002,-0.767767,-0.481829,0.562597,99719.38,-63,-194,-10
151056,10.616,-5.347,2.230,-0.914274,-0.437487,0.519318,99723.23,-62,-193,-14
151065,11.485,-4.823,2.620,-0.964647,-0.421169,0.500340,99723.23,-60,-194,-16
151075,12.748,-4.337,2.670,-0.964115,-0.446710,0.531734,99719.41,-57,-194,-21
151085,14.961,-4.031,3.120,-0.959858,-0.502582,0.579624,99719.83,-57,-194,-21
151095,17.242,-3.695,4.460,-0.910372,-0.587719,0.639220,99721.63,-56,-193,-24
151105,17.928,-3.281,4.523,-0.772556,-0.679774,0.724890,99720.63,-52,-195,-26
151115,15.133,-3.183,2.771,-0.653363,-0.720747,0.794064,99718.85,-50,-194,-29
151126,12.144,-3.345,1.388,-0.569290,-0.711169,0.794064,99720.74,-50,-194,-29
151135,10.340,-3.153,0.424,-0.510758,-0.733517,0.767991,99720.74,-47,-194,-31
151145,9.141,-2.719,0.682,-0.448501,-0.723939,0.754156,99720.74,-44,-195,-34
151155,7.802,-4.429,0.024,-0.305363,-0.696802,0.750431,99721.79,-42,-196,-35
151164,6.967,-8.027,-0.949,-0.170740,-0.680306,0.806303,99722.37,-39,-196,-36
151171,7.800,-9.057,-0.065,-0.066446,-0.679774,0.851000,99721.10,-39,-196,-36
151180,9.296,-8.173,1.084,0.024013,-0.696802,0.739789,99719.32,-35,-197,-37
151190,9.988,-7.095,1.041,-0.040373,-0.740967,0.601973,99719.32,-35,-197,-37
151200,8.759,-8.148,0.745,-0.240978,-0.751077,0.558340,99720.74,-33,-198,-38
151209,7.601,-8.854,1.267,-0.445308,-0.699462,0.530670,99718.91,-31,-197,-40
151220,7.418,-7.517,1.965,-0.665070,-0.627095,0.462028,99721.79,-28,-197,-44
151230,7.180,-6.358,1.746,-0.844391,-0.582930,0.436487,99717.07,-28,-197,-44
151240,6.171,-6.324,1.141,-0.886427,-0.569095,0.468945,99717.07,-27,-197,-45
151250,5.224,-6.101,0.983,-0.815125,-0.538233,0.503532,99721.65,-24,-195,-49
151260,4.898,-5.445,0.993,-0.695400,-0.478637,0.515239,99718.45,-21,-195,-52
151270,4.495,-4.981,0.525,-0.545877,-0.432343,0.524285,99720.65,-21,-195,-52
151280,3.775,-4.881,-0.006,-0.387840,-0.403077,0.541844,99718.60,-19,-195,-54
151290,3.097,-4.692,-0.147,-0.213308,-0.372747,0.538652,99718.60,-17,-195,-54
151300,2.771,-4.113,-0.009,-0.049419,-0.334967,0.505129,99720.98,-14,-195,-55
151310,2.453,-3.872,-0.179,0.066049,-0.297187,0.456175,99720.66,-14,-195,-55
151320,1.722,-3.955,-0.264,0.116600,-0.245041,0.410945,99719.77,-14,-195,-54
151330,1.178,-3.764,0.068,0.136288,-0.167353,0.352945,99718.66,-12,-196,-54
151340,1.199,-3.381,0.398,0.150655,-0.089132,0.274725,99718.66,-10,-197,-54
151350,0.955,-3.299,0.124,0.142141,-0.021022,0.188523,99719.98,-10,-197,-54
151360,0.497,-3.305,0.060,0.098508,0.072629,0.099129,99720.19,-10,-196,-54
151370,0.646,-2.853,0.451,0.055407,0.196078,-0.025385,99716.73,-10,-197,-53
151380,0.945,-2.388,0.467,0.005389,0.306757,-0.161073,99719.09,-11,-195,-53
151390,1.169,-2.166,0.208,-0.055272,0.395620,-0.277073,99719.09,-11,-195,-53
151400,1.554,-1.971,-0.106,-0.068575,0.474904,-0.374981,99721.78,-13,-197,-51
151406,1.951,-1.766,-0.240,-0.007914,0.527051,-0.437770,99718.91,-15,-195,-52
151415,2.374,-1.709,-0.334,0.097444,0.567491,-0.494706,99718.91,-15,-195,-52
151426,2.992,-1.781,-0.211,0.247499,0.613253,-0.558559,99719.02,-17,-196,-51
151435,3.523,-2.039,0.016,0.385315,0.649436,-0.608577,99717.80,-20,-195,-49
151445,3.905,-2.829,0.504,0.537498,0.687216,-0.647421,99717.80,-24,-196,-46
151455,4.200,-3.762,0.589,0.644985,0.742555,-0.698504,99720.91,-24,-196,-46
151465,4.502,-4.629,0.272,0.676379,0.825032,-0.744265,99719.44,-26,-197,-44
151476,4.775,-5.304,0.038,0.680636,0.909106,-0.795880,99718.13,-30,-197,-42
151485,5.231,-6.078,-0.277,0.684893,1.002757,-0.874632,99718.13,-34,-196,-39
151495,5.682,-6.625,-0.784,0.612526,1.058096,-0.989036,99718.13,-34,-196,-39
151505,5.739,-10.624,-4.277,0.445976,1.079381,-1.116210,99721.43,-37,-197,-36
151515,-1.408,-39.964,-11.975,-0.266519,1.194316,-0.163201,99723.48,-41,-196,-34
151525,21.670,-14.937,9.054,0.251756,0.456812,-0.486724,99723.27,-43,-196,-33
151535,13.523,-12.023,-4.771,-0.287804,0.616445,-1.432815,99718.65,-43,-196,-33
151545,10.406,0.425,2.717,-0.928464,0.677638,-0.852283,99718.65,-46,-195,-35
151556,8.575,8.490,8.272,-0.370281,0.767564,-1.047036,99721.56,-51,-193,-36
151565,8.937,4.474,7.770,0.104893,0.910702,-1.024687,99719.75,-54,-191,-35
151575,12.157,0.455,9.687,0.788654,0.824500,-0.885274,99719.83,-54,-191,-35
151585,17.358,-4.748,8.086,1.358012,0.720739,-0.868779,99719.83,-57,-191,-30
151596,25.481,-7.310,-0.347,1.423993,0.437656,-0.712871,99722.21,-61,-191,-26
151605,35.578,-6.645,-4.341,1.068544,-0.210453,-0.376045,99722.21,-61,-191,-23
151615,22.660,3.170,4.524,1.053645,-0.299316,-0.140853,99721.85,-61,-191,-23
151625,7.634,-1.206,4.478,0.732251,0.104556,0.215661,99721.01,-61,-193,-19
151635,3.513,-6.460,0.829,0.675847,0.097638,0.281110,99717.87,-60,-194,-18
151641,2.858,-7.046,-0.982,0.406067,0.085400,0.124138,99717.87,-60,-194,-18
151650,5.646,-4.777,-1.101,0.208123,0.137546,0.037404,99725.28,-60,-194,-16
151660,8.063,-3.326,0.527,0.524728,0.156702,0.100725,99722.25,-60,-195,-16
151670,7.625,-4.706,3.424,0.923278,0.047088,0.200230,99721.41,-60,-195,-13
151681,7.088,-6.290,5.723,1.135058,-0.024747,0.151808,99718.36,-60,-195,-13
151690,7.790,-6.222,4.115,0.829095,0.080611,0.024101,99718.36,-60,-197,-9
151700,9.148,-5.242,2.244,0.410324,0.170005,-0.075403,99721.34,-59,-197,-8
151710,9.645,-4.207,2.265,0.351260,0.173198,-0.085513,99721.28,-60,-196,-6
151720,9.085,-4.028,2.846,0.372544,0.131693,-0.029642,99720.66,-60,-196,-6
151730,8.733,-3.955,2.766,0.333168,0.115730,0.017184,99721.44,-60,-197,-5
151740,8.723,-4.013,2.549,0.291132,0.100831,0.061349,99721.44,-60,-197,-5
151750,8.612,-4.461,2.542,0.352856,0.068904,0.085826,99723.41,-60,-198,-3
151760,8.444,-4.940,2.692,0.414581,0.040702,0.085826,99721.31,-60,-198,-3
151771,8.164,-5.576,3.023,0.354985,0.045491,0.047514,99718.48,-60,-198,-2
151780,8.192,-5.492,3.202,0.195884,0.077950,-0.038688,99718.91,-60,-198,-1
151790,8.282,-5.074,2.915,0.003260,0.122647,-0.111587,99718.91,-60,-198,-1
151800,8.397,-4.807,2.614,-0.148923,0.160959,-0.148834,99721.91,-60,-198,-1
151811,8.409,-4.152,2.664,-0.236189,0.173730,-0.146174,99721.69,-61,-197,-1
151820,8.367,-3.757,2.885,-0.235657,0.172666,-0.106798,99720.80,-61,-197,-3
151830,8.488,-4.000,2.608,-0.191492,0.149785,-0.063165,99721.11,-62,-197,-2
151840,8.588,-4.022,2.286,-0.145198,0.115198,-0.026449,99721.11,-62,-197,-2
151851,8.531,-4.310,1.933,-0.091455,0.085400,0.008138,99721.93,-62,-197,-3
151861,8.436,-4.341,1.790,-0.069639,0.066244,0.048578,99721.09,-61,-197,-3
151870,8.479,-4.195,2.036,-0.071767,0.063583,0.085294,99719.37,-61,-197,-3
151876,8.645,-4.027,2.329,-0.071767,0.065179,0.108175,99722.40,-61,-197,-3
151885,8.625,-3.987,2.393,-0.073364,0.052941,0.137973,99722.40,-61,-197,-3
151896,8.689,-3.845,2.918,-0.066978,0.034849,0.177881,99722.40,-60,-198,-4
151906,8.529,-4.049,3.224,-0.063786,-0.000802,0.218322,99722.61,-60,-198,-4
151915,8.329,-4.212,3.398,-0.103694,-0.033793,0.256633,99721.41,-60,-198,-3
151925,8.324,-4.170,3.430,-0.170208,-0.057206,0.288560,99718.78,-58,-198,-4
151936,8.533,-3.938,3.496,-0.231400,-0.082215,0.325276,99718.78,-57,-198,-5
151946,8.555,-3.886,3.568,-0.274501,-0.106692,0.372101,99723.72,-57,-198,-5
151955,8.435,-4.442,2.935,-0.277162,-0.138619,0.407753,99723.72,-56,-199,-6
151965,8.442,-4.663,2.368,-0.274501,-0.157775,0.431165,99719.53,-55,-199,-8
151975,8.371,-4.730,2.171,-0.275565,-0.158307,0.442872,99720.84,-53,-200,-8
151986,8.369,-4.988,2.093,-0.300574,-0.138619,0.445000,99717.75,-53,-200,-8
151991,8.482,-5.056,2.001,-0.343143,-0.122123,0.438083,99717.75,-52,-200,-9
152000,8.421,-4.772,2.273,-0.395822,-0.098178,0.436487,99720.73,-50,-201,-10
152010,8.411,-4.903,3.097,-0.442648,-0.072637,0.431165,99721.63,-50,-201,-10
152020,8.019,-5.091,3.203,-0.478831,-0.075830,0.423184,99721.63,-48,-200,-11
152031,8.020,-4.884,2.936,-0.532574,-0.076894,0.421587,99719.84,-47,-201,-13
152040,8.278,-4.754,3.029,-0.565565,-0.089132,0.432762,99719.84,-46,-201,-16
152050,8.402,-4.614,2.747,-0.568758,-0.118398,0.444468,99720.09,-46,-201,-16
152060,8.473,-4.679,2.552,-0.580996,-0.148197,0.472138,99721.92,-44,-200,-16
152071,8.523,-4.657,2.733,-0.593767,-0.180123,0.515771,99721.61,-42,-201,-19
152080,8.520,-5.068,2.437,-0.586849,-0.199811,0.556211,99718.16,-40,-201,-21
152090,8.889,-5.288,2.219,-0.610794,-0.212582,0.583349,99718.16,-40,-201,-21
152100,9.010,-4.910,2.577,-0.622501,-0.251958,0.608358,99722.45,-38,-201,-22
152111,9.044,-4.800,2.726,-0.560776,-0.287609,0.667954,99721.60,-36,-201,-25
152120,9.369,-4.911,2.435,-0.467657,-0.348270,0.737661,99720.18,-32,-202,-27
152130,9.753,-5.213,1.979,-0.406996,-0.396160,0.807899,99720.98,-32,-202,-27
152140,10.170,-6.083,1.782,-0.424556,-0.404673,0.848872,99720.98,-30,-202,-29
152151,10.726,-5.953,1.805,-0.530446,-0.387646,0.852064,99720.65,-26,-203,-29
152161,11.044,-5.291,1.636,-0.595895,-0.386050,0.860578,99722.96,-23,-203,-32
152170,11.209,-4.946,1.251,-0.553327,-0.431811,0.889844,99720.80,-23,-203,-32
152180,11.407,-5.145,1.097,-0.447969,-0.489811,0.948376,99717.93,-20,-203,-34
152190,11.812,-5.396,1.093,-0.349528,-0.562710,1.013826,99717.93,-17,-204,-35
152201,11.867,-5.580,1.753,-0.297914,-0.630820,1.069165,99721.06,-12,-204,-37
152210,11.448,-5.740,2.312,-0.302703,-0.671260,1.123972,99720.44,-12,-204,-37
152220,11.274,-5.685,2.713,-0.372941,-0.687224,1.180376,99719.23,-8,-205,-38
152230,11.062,-5.617,2.997,-0.474042,-0.712233,1.239972,99720.70,-4,-204,-40
152241,10.850,-5.691,3.334,-0.604941,-0.735114,1.296908,99720.70,+1,-205,-42
152251,10.849,-5.527,4.084,-0.770959,-0.745756,1.358101,99719.06,+1,-205,-42
152260,10.871,-5.531,4.457,-0.963051,-0.731921,1.440045,99720.53,+6,-204,-45
152270,11.339,-5.612,3.902,-1.198776,-0.690948,1.531568,99720.11,+12,-203,-49
152281,13.358,-4.746,3.993,-1.476537,-0.685095,1.603935,99717.91,+19,-201,-53
152291,15.578,-3.282,6.070,-1.630849,-0.745224,1.699715,99717.91,+19,-201,-53
152300,15.949,-2.874,6.112,-1.581363,-0.811737,1.869458,99720.28,+24,-201,-58
152310,15.558,-2.711,5.282,-1.625528,-0.829297,1.998761,99719.02,+31,-198,-63
152321,15.421,-1.776,5.938,-1.769197,-0.869737,2.058889,99717.61,+40,-195,-68
152331,15.722,-2.786,4.798,-1.700023,-1.030967,2.191385,99717.50,+40,-195,-68
152340,15.302,-7.210,2.112,-1.398849,-1.345976,2.539384,99717.50,+49,-193,-72
152350,15.967,-10.745,2.279,-0.952409,-1.631719,2.869292,99720.16,+59,-190,-76
152360,15.615,-10.998,3.222,-0.715620,-1.729627,2.867164,99720.73,+72,-187,-77
152371,14.238,-8.476,2.408,-0.869400,-1.680673,2.683586,99720.00,+81,-187,-79
152381,12.565,-7.044,0.423,-1.327014,-1.655664,2.471274,99715.23,+81,-183,-79
152390,10.571,-7.038,1.544,-1.713326,-1.560416,2.242467,99715.23,+91,-179,-82
152400,9.274,-5.614,1.308,-1.835711,-1.444948,1.859880,99721.70,+99,-173,-86
152411,6.549,-4.370,4.047,-2.047491,-1.259774,1.533697,99721.23,+106,-168,-90
152421,6.538,-1.205,7.297,-1.789950,-1.014471,1.150046,99718.19,+106,-168,-90
152430,7.162,2.728,8.219,-1.497821,-0.898471,0.665294,99718.72,+109,-163,-92
152440,6.907,4.873,7.169,-1.190262,-0.894747,0.360927,99718.72,+112,-160,-94
152451,5.621,4.512,5.083,-0.980079,-0.843664,0.145422,99718.73,+113,-156,-95
152461,4.202,3.185,4.231,-0.833394,-0.639334,-0.046847,99719.05,+113,-156,-95
152470,3.601,2.435,4.644,-0.665070,-0.353059,-0.285054,99717.47,+112,-155,-95
152480,3.405,2.253,4.745,-0.505969,-0.047628,-0.655403,99714.75,+110,-154,-95
152491,3.404,2.269,3.958,-0.402207,0.223216,-1.035329,99714.75,+106,-154,-95
152501,3.750,2.006,2.750,-0.312281,0.469583,-1.395035,99716.52,+106,-154,-95
152511,4.263,1.857,2.365,-0.196813,0.754262,-1.772301,99715.21,+99,-152,-95
152520,5.055,2.267,2.568,-0.036648,1.070867,-2.146906,99714.12,+92,-154,-94
152530,5.986,2.863,2.391,0.145866,1.336390,-2.451273,99714.01,+81,-155,-92
152541,6.489,2.593,1.983,0.356049,1.541252,-2.662521,99714.01,+81,-155,-92
152551,6.771,1.680,1.693,0.574746,1.737068,-2.831732,99716.36,+70,-155,-90
152560,7.254,0.714,1.508,0.792379,1.945123,-2.993493,99717.03,+58,-157,-88
152570,8.065,0.038,1.720,1.045663,2.149985,-3.171750,99714.52,+45,-158,-83
152581,8.826,-0.368,1.840,1.280856,2.350059,-3.341493,99714.47,+45,-158,-83
152591,9.414,-0.568,1.751,1.496892,2.527251,-3.487823,99714.47,+31,-160,-78
152601,10.082,-0.799,1.421,1.689516,2.675178,-3.621382,99716.46,+18,-160,-73
152610,10.680,-1.266,1.139,1.832654,2.790646,-3.737915,99715.10,+2,-161,-65
152621,11.276,-1.789,1.180,1.917791,2.876315,-3.843272,99716.24,+2,-161,-65
152631,11.910,-2.237,1.541,1.997608,2.933251,-3.969382,99711.85,-12,-160,-57
152641,12.491,-2.907,1.590,2.027406,2.976352,-4.105071,99711.85,-28,-158,-50
152650,13.080,-3.593,1.831,2.002929,3.030627,-4.246612,99717.19,-44,-155,-41
152660,13.705,-4.102,2.167,1.897571,3.105654,-4.396667,99715.45,-44,-155,-41
152671,14.296,-4.564,2.142,1.732617,3.186003,-4.544593,99717.50,-59,-149,-32
152681,14.784,-5.152,2.222,1.553828,3.277526,-4.658464,99715.94,-72,-141,-25
152690,15.302,-5.961,2.221,1.378764,3.362664,-4.746795,99715.94,-85,-131,-16
152700,15.745,-6.472,2.366,1.194122,3.441948,-4.815437,99716.48,-85,-131,-16
152711,16.601,-6.481,2.299,1.043535,3.482920,-4.829804,99717.80,-96,-122,-8
152721,17.850,-6.763,2.087,1.009480,3.469618,-4.786703,99714.23,-106,-114,-2
152731,18.876,-7.699,1.219,1.114838,3.358407,-4.656336,99715.17,-115,-105,+4
152740,18.768,-10.036,0.174,1.309058,3.157801,-4.436043,99715.17,-115,-105,+4
152751,17.692,-13.253,-1.128,1.591608,2.878976,-4.133272,99718.98,-122,-98,+13
152761,16.123,-16.760,-2.363,1.860855,2.512352,-3.735254,99718.62,-131,-91,+21
152771,15.766,-18.349,-3.778,2.060929,2.076554,-3.290942,99721.45,-138,-84,+28
152780,14.701,-18.760,-4.812,2.091259,1.582756,-2.857273,99720.29,-138,-84,+28
152791,12.046,-19.865,-4.587,1.935351,1.121949,-2.270888,99720.29,-143,-78,+34
152801,9.505,-23.269,-4.198,1.650672,0.710096,-1.506778,99722.44,-147,-73,+38
152811,7.792,-27.614,-4.871,1.238819,0.336555,-0.734155,99723.33,-148,-69,+40
152820,6.737,-29.261,-6.390,0.607205,-0.011444,0.020909,99721.28,-148,-69,+40
152830,7.300,-26.973,-6.786,-0.116997,-0.309958,0.747771,99721.02,-147,-71,+41
152841,8.530,-25.198,-5.378,-0.505437,-0.589316,1.441110,99721.02,-146,-74,+38
152851,8.469,-24.438,-5.076,-0.706042,-1.011811,2.290889,99721.55,-143,-79,+36
152861,14.560,-6.813,5.245,-0.624097,-1.510398,2.576100,99722.87,-139,-86,+32
152870,30.587,37.210,21.438,-0.008446,-1.204435,0.628578,99715.74,-139,-86,+32
152881,31.717,19.716,-5.652,-2.534371,-0.447242,0.985092,99718.21,-139,-86,+30
152891,14.904,-4.832,-7.059,-1.903821,-1.679076,3.511017,99718.21,-133,-94,+22
152901,7.070,-21.551,6.519,1.848085,-1.545517,3.646173,99721.16,-126,-103,+23
152910,10.563,-15.881,9.632,1.938543,-1.275205,3.561567,99718.84,-126,-103,+23
152921,7.083,-6.294,-5.442,0.679572,-1.086306,3.144393,99724.34,-120,-110,+22
152931,3.616,-3.882,2.538,1.027039,-0.682967,2.960283,99718.80,-114,-116,+24
152941,4.285,-11.416,8.851,1.919920,-0.588783,2.531403,99718.80,-108,-121,+27
152951,8.633,-14.784,4.227,0.947755,-0.970838,1.952467,99721.15,-108,-121,+27
152961,10.024,-9.500,-2.820,-1.326482,-1.046930,1.629477,99723.55,-104,-123,+23
152971,9.996,-5.044,0.886,-2.783931,-0.614325,1.613513,99720.41,-101,-125,+16
152981,9.310,-4.519,2.765,-2.807343,-0.504710,1.442706,99720.09,-97,-129,+10
152990,7.847,-4.207,-1.140,-2.095913,-0.495664,1.115458,99720.09,-97,-129,+10
153000,8.706,0.543,-0.725,-1.155675,-0.380729,0.939330,99723.25,-95,-129,+6
153011,9.330,1.787,1.249,-0.175529,-0.293995,1.042560,99720.89,-93,-132,+5
153021,9.185,-0.912,2.337,0.498122,-0.180655,1.210706,99722.56,-89,-135,+6
153031,9.000,-2.917,3.599,0.355517,-0.039114,1.290523,99720.78,-89,-135,+6
153040,8.170,-6.165,3.762,-0.088795,0.022611,1.155899,99720.78,-86,-136,+7
153051,8.284,-5.771,3.490,-0.210648,-0.014637,0.891440,99722.42,-85,-138,+5
153061,7.773,-6.051,4.330,-0.412317,0.008776,0.695624,99722.38,-83,-139,+4
153071,7.182,-6.803,4.644,-0.811400,0.019950,0.493954,99721.64,-83,-139,+4
153080,7.532,-5.100,4.018,-1.209950,0.064115,0.334854,99719.02,-81,-139,+3
153091,8.530,-2.837,3.854,-1.347766,0.113069,0.273661,99719.02,-81,-139,+0
153101,9.228,-1.619,3.191,-1.217399,0.102427,0.284303,99723.20,-80,-139,-1
153111,9.642,-1.023,1.822,-0.931657,0.029528,0.316230,99722.98,-80,-139,-1
153121,9.636,-2.078,1.056,-0.565033,-0.051353,0.369441,99720.73,-79,-139,-3
153131,9.220,-3.790,1.761,-0.272905,-0.129573,0.411477,99719.53,-79,-139,-5
153141,8.370,-4.614,3.215,-0.199474,-0.185444,0.402431,99719.53,-78,-141,-5
153151,7.814,-5.242,4.169,-0.339951,-0.195554,0.373698,99719.57,-78,-141,-5
153161,8.077,-4.775,4.608,-0.576207,-0.184912,0.353477,99717.68,-76,-141,-6
153170,8.189,-4.158,4.589,-0.781602,-0.197151,0.363055,99720.98,-76,-141,-9
153181,8.521,-2.491,4.691,-0.983271,-0.218967,0.437551,99718.62,-74,-141,-12
153191,8.852,-1.170,4.467,-1.056702,-0.243444,0.584413,99718.62,-74,-141,-12
153201,9.502,-0.028,3.559,-0.966244,-0.306233,0.780229,99722.99,-72,-140,-14
153210,9.844,0.552,3.902,-0.795969,-0.375940,1.021275,99721.52,-70,-142,-16
153221,9.369,-1.045,3.507,-0.566097,-0.473848,1.250614,99720.73,-66,-143,-19
153231,9.074,-2.731,2.635,-0.460739,-0.559517,1.465055,99720.37,-66,-143,-19
153241,9.076,-3.579,2.523,-0.487877,-0.607407,1.609256,99720.37,-62,-145,-21
153251,9.256,-5.427,3.006,-0.585785,-0.634013,1.681623,99720.93,-56,-147,-22
153261,9.635,-6.223,3.000,-0.800758,-0.619646,1.739623,99721.46,-51,-149,-25
153271,10.423,-6.828,3.972,-1.101932,-0.558453,1.743880,99721.13,-51,-149,-25
153281,10.959,-8.058,3.589,-1.329320,-0.536105,1.659452,99721.24,-47,-149,-28
153291,12.372,-7.352,1.808,-1.548372,-0.542490,1.604467,99721.24,-42,-149,-32
153300,13.825,-5.418,1.006,-1.816555,-0.591444,1.567752,99724.37,-37,-150,-37
153311,13.851,-3.582,0.694,-1.845821,-0.689884,1.599678,99720.23,-33,-150,-42
153321,14.556,-2.274,0.393,-1.677142,-0.854838,1.736431,99720.23,-33,-149,-42
153331,15.615,-2.239,0.109,-1.444078,-1.065022,1.919476,99721.32,-27,-149,-47
153340,16.108,-3.447,0.574,-1.327014,-1.251792,2.090816,99721.32,-19,-149,-51
153351,16.684,-4.206,1.619,-1.345106,-1.379499,2.229697,99723.09,-12,-148,-55
153361,17.382,-4.252,2.860,-1.414280,-1.464104,2.335586,99720.31,-12,-148,-55
153371,17.839,-3.961,4.581,-1.506867,-1.529021,2.415935,99721.16,-4,-147,-60
153381,18.004,-3.809,6.264,-1.661711,-1.533810,2.480852,99720.89,+5,-147,-65
153391,18.675,-3.588,8.251,-1.941069,-1.455058,2.513843,99720.89,+14,-143,-70
153401,20.234,-1.759,11.059,-2.398683,-1.319902,2.525549,99720.10,+14,-143,-70
153411,22.194,1.056,14.302,-2.897802,-1.228379,2.560669,99718.63,+22,-141,-78
153421,23.349,4.420,20.112,-3.021784,-1.168251,2.679861,99718.85,+31,-135,-86
153431,21.399,3.885,18.614,-2.750940,-1.352361,2.926228,99715.02,+41,-129,-93
153441,18.531,-4.593,10.103,-2.488078,-1.698232,3.131090,99715.02,+41,-129,-93
153451,15.840,-13.073,4.643,-2.562041,-2.052618,3.108210,99718.69,+53,-124,-98
153461,16.540,-11.733,8.799,-2.675380,-1.940874,2.989549,99717.80,+65,-118,-104
153472,18.397,-6.279,11.348,-2.419436,-1.621076,2.674008,99717.22,+74,-112,-109
153481,18.779,-0.232,13.197,-1.638298,-1.475278,2.343036,99713.61,+74,-112,-109
153491,13.830,3.483,8.100,-0.766170,-1.461444,1.896064,99713.61,+83,-108,-110
153501,7.137,1.359,4.053,-0.357510,-1.101737,1.684816,99719.32,+90,-105,-112
153511,0.678,-2.543,2.919,-0.295253,-0.701591,1.403330,99716.23,+95,-104,-113
153517,-1.786,-4.355,5.453,-0.050483,-0.653169,1.220284,99718.12,+95,-104,-113
153526,-0.080,-3.890,7.779,0.787058,-0.668600,0.713716,99718.12,+99,-104,-111
153536,2.620,-2.255,7.327,1.652268,-0.723939,-0.269091,99716.13,+99,-108,-108
153546,3.972,0.238,3.880,1.298415,-0.525994,-0.963494,99716.13,+99,-108,-108
153556,2.621,4.196,-0.094,0.129370,-0.391371,-1.381733,99718.96,+98,-111,-108
153566,1.810,6.247,-2.132,-0.551198,-0.123720,-1.746760,99717.80,+95,-112,-110
153576,0.474,6.137,-0.847,-0.540556,0.188629,-2.111787,99717.91,+91,-114,-112
153586,-0.800,4.347,0.761,0.133627,0.621766,-2.391677,99717.91,+91,-114,-112
153596,-0.666,2.161,3.446,1.011608,1.165582,-2.583768,99717.91,+83,-118,-113
153606,0.255,0.568,5.724,1.687920,1.601380,-2.744998,99717.20,+73,-123,-111
153616,0.993,-0.565,5.702,2.157240,1.865307,-2.955181,99716.35,+62,-131,-108
153626,2.047,-1.043,4.842,2.222690,2.095710,-3.244649,99714.95,+62,-131,-108
153636,3.593,-1.010,3.519,2.075828,2.348994,-3.533052,99714.73,+48,-138,-106
153646,5.236,-0.576,2.501,1.999204,2.571949,-3.743768,99714.73,+34,-145,-102
153656,6.093,-0.568,2.180,2.226415,2.774682,-3.973107,99716.34,+15,-152,-98
153666,6.644,-0.933,2.701,2.439791,3.001361,-4.215749,99715.65,+15,-152,-98
153676,7.971,-1.337,2.197,2.426488,3.216866,-4.429125,99713.13,-4,-158,-90
153687,10.031,-1.296,1.674,2.367956,3.366388,-4.529694,99713.13,-26,-162,-82
153697,11.965,-1.486,1.099,2.482359,3.349361,-4.572263,99715.29,-51,-166,-72
153706,13.086,-2.944,1.601,2.742029,3.191856,-4.636116,99714.98,-51,-166,-72
153716,13.883,-5.942,1.855,2.854304,2.985398,-4.796281,99714.98,-72,-167,-57
153726,14.335,-7.278,2.219,2.677644,2.870994,-5.032006,99714.91,-96,-162,-45
153736,14.729,-6.333,3.282,2.316341,2.885361,-5.167694,99715.07,-118,-154,-31
153746,15.266,-5.937,4.679,2.149259,2.957196,-5.235271,99715.07,-118,-154,-31
153756,16.413,-7.009,5.263,2.140213,3.041269,-5.309235,99719.05,-138,-140,-16
153766,17.692,-8.565,5.106,2.044965,3.149820,-5.336372,99719.59,-156,-121,+0
153777,19.065,-10.436,4.273,1.932158,3.246131,-5.267198,99715.55,-168,-100,+14
153786,20.417,-13.008,2.561,1.860323,3.267416,-5.082024,99716.76,-168,-100,+14
153796,20.452,-15.770,0.226,1.798599,3.146095,-4.773400,99719.46,-172,-79,+26
153806,19.583,-17.559,-2.648,1.721443,2.911967,-4.374850,99719.26,-172,-58,+35
153817,18.435,-19.535,-5.358,1.546379,2.570352,-3.877859,99718.21,-168,-42,+41
153826,15.430,-23.458,-6.570,1.385681,2.109013,-3.244117,99718.21,-168,-42,+41
153836,11.607,-28.166,-6.241,1.235626,1.617876,-2.495970,99720.10,-163,-30,+44
153846,8.569,-30.700,-6.074,0.828030,1.110243,-1.615329,99720.10,-156,-23,+45
153857,7.518,-31.213,-7.114,0.282086,0.590904,-0.538339,99723.01,-152,-22,+42
153866,8.995,-29.890,-7.776,-0.280354,0.057198,0.659441,99723.01,-152,-22,+42
153876,10.635,-26.986,-7.612,-0.653363,-0.483426,1.753990,99722.74,-147,-24,+40
153886,12.526,-20.896,-7.967,-0.866207,-1.227315,2.711256,99723.95,-141,-30,+36
153896,24.616,5.384,3.000,-0.451161,-2.036122,2.891641,99723.95,-136,-36,+30
153907,43.872,47.122,11.123,0.548673,-1.863186,0.704670,99721.80,-136,-36,+30
153916,35.793,1.860,-17.080,-2.655160,-1.846159,3.479622,99724.78,-132,-39,+25
153926,7.321,-17.780,3.677,0.869003,-2.524599,5.084997,99721.59,-123,-52,+17
153936,5.503,-25.706,11.280,4.028671,-2.035058,4.695493,99721.59,-115,-63,+16
153947,5.827,-12.202,1.552,2.643589,-1.994085,4.302796,99721.59,-115,-63,+16
153956,0.032,-0.709,-0.019,2.233332,-1.499755,3.884026,99722.47,-106,-73,+14
153966,-2.412,-7.761,7.960,3.393332,-1.133132,3.289127,99724.41,-99,-81,+18
153976,8.312,-24.756,7.452,2.919222,-1.674819,2.825127,99722.42,-93,-87,+18
153987,11.351,-18.454,-1.230,-0.066978,-2.085076,2.296742,99719.69,-88,-87,+12
153996,8.523,-7.564,-4.212,-2.747215,-1.415682,1.629477,99719.69,-88,-92,+12
154006,8.212,-3.069,0.871,-3.454389,-0.727664,1.466119,99723.80,-85,-93,+5
154016,6.848,-4.651,-0.249,-3.426719,-0.467995,1.357036,99721.55,-83,-95,+0
154027,8.387,-3.604,-3.897,-2.512023,-0.117334,1.050009,99721.84,-80,-96,-5
154037,10.890,1.581,-1.163,-1.532408,0.048684,1.015422,99721.84,-80,-96,-5
154046,8.982,1.104,3.048,-0.280886,-0.088600,1.130890,99722.57,-78,-97,-6
154056,8.060,-4.048,2.670,0.476306,-0.131169,1.165477,99721.95,-76,-99,-5
154066,8.705,-4.626,2.244,0.527388,-0.051353,1.050009,99721.95,-73,-102,-5
154077,9.046,-4.159,2.162,0.262398,0.031124,0.974449,99719.16,-73,-102,-5
154086,8.727,-5.292,3.316,-0.058997,0.089124,0.886119,99720.74,-72,-103,-4
154096,7.450,-7.890,5.802,-0.601749,0.191822,0.686578,99720.74,-71,-103,-5
154102,6.670,-8.427,6.770,-1.054042,0.253546,0.443404,99720.80,-71,-103,-5
154112,6.512,-7.407,6.067,-1.438757,0.310482,0.291753,99720.42,-70,-103,-7
154122,7.276,-4.903,5.361,-1.958628,0.426482,0.255037,99721.89,-69,-103,-10
154131,9.189,-0.949,3.127,-2.062390,0.467987,0.255037,99723.36,-69,-103,-10
154141,11.434,2.095,0.884,-1.499418,0.326977,0.383808,99723.36,-70,-102,-13
154151,11.482,-0.363,0.676,-0.640060,0.079014,0.564725,99725.09,-69,-102,-15
154162,9.504,-4.230,1.658,-0.029731,-0.066252,0.644009,99721.41,-67,-103,-14
154171,9.016,-6.056,3.266,-0.267584,-0.081151,0.646138,99722.10,-67,-103,-14
154181,8.141,-6.133,5.071,-0.683693,-0.075298,0.587074,99722.41,-65,-104,-16
154191,7.498,-5.437,5.217,-0.935913,-0.069444,0.507789,99722.41,-63,-104,-18
154202,7.921,-4.341,5.174,-1.101400,-0.054545,0.490230,99720.49,-62,-104,-20
154212,8.868,-4.289,4.909,-1.095546,-0.105628,0.488101,99722.32,-62,-104,-20
154221,9.487,-4.229,4.194,-1.068409,-0.162031,0.513642,99718.71,-61,-105,-21
154231,9.759,-4.187,3.727,-1.161528,-0.175866,0.589202,99720.96,-59,-104,-24
154242,9.869,-3.653,2.883,-1.255711,-0.210453,0.667422,99720.96,-58,-104,-27
154252,10.363,-2.990,2.018,-1.298280,-0.271646,0.788211,99723.40,-56,-105,-30
154261,10.828,-2.868,1.394,-1.262629,-0.354123,0.916449,99723.87,-56,-105,-30
154271,11.178,-3.043,1.342,-1.168977,-0.466930,1.039899,99719.41,-52,-106,-34
154281,11.621,-3.064,1.909,-1.153546,-0.576013,1.173458,99723.20,-49,-106,-37
154292,11.993,-3.002,2.666,-1.153014,-0.682435,1.318724,99723.20,-46,-107,-40
154301,12.187,-2.408,2.860,-1.137051,-0.802159,1.490596,99721.92,-46,-107,-40
154311,12.341,-2.543,2.939,-1.098207,-0.953279,1.672577,99722.03,-41,-108,-43
154321,13.113,-3.353,3.070,-1.041803,-1.116636,1.829018,99719.98,-34,-109,-47
154332,14.161,-4.156,3.440,-1.059363,-1.241682,1.966834,99721.19,-29,-110,-51
154341,15.077,-4.630,3.618,-1.154078,-1.324691,2.076449,99721.19,-29,-110,-51
154351,15.297,-4.021,3.692,-1.305730,-1.396526,2.183935,99722.97,-21,-110,-55
154361,15.196,-2.970,3.904,-1.466959,-1.478471,2.308981,99721.34,-12,-112,-61
154372,15.444,-2.452,4.328,-1.591473,-1.540196,2.458504,99721.92,-4,-111,-66
154382,16.183,-2.396,5.641,-1.733546,-1.563076,2.605898,99718.98,-4,-111,-66
154391,17.516,-2.566,7.604,-1.977784,-1.513590,2.717641,99718.98,+5,-110,-72
154401,20.069,-1.612,10.197,-2.443913,-1.386416,2.780962,99722.27,+15,-108,-78
154412,22.374,0.765,15.235,-2.956334,-1.269352,2.812889,99719.22,+26,-105,-86
154422,23.662,3.638,19.422,-3.035619,-1.140581,2.902283,99718.44,+26,-105,-86
154431,21.192,2.608,16.725,-2.993050,-1.209756,2.941127,99716.03,+38,-100,-94
154441,18.646,-3.743,9.398,-2.984004,-1.442820,2.878870,99716.03,+49,-95,-103
154451,14.574,-11.818,3.555,-3.121820,-1.889260,2.905476,99722.14,+62,-88,-109
154462,15.564,-13.178,4.962,-2.960059,-1.914801,3.028393,99721.20,+62,-88,-109
154472,17.914,-8.349,9.567,-2.398151,-1.731223,2.878870,99716.95,+74,-81,-116
154481,17.109,-3.037,9.699,-1.595197,-1.517847,2.334522,99716.91,+86,-77,-120
154491,10.104,-1.142,6.508,-1.130134,-1.310856,2.015256,99716.91,+95,-74,-124
154502,3.909,-1.358,4.652,-0.555987,-0.947425,1.682155,99721.04,+95,-74,-124
154512,-0.963,-1.595,5.098,0.026141,-0.823976,1.194743,99718.20,+103,-74,-127
154521,0.807,-0.754,6.613,0.965847,-0.715426,0.586541,99717.79,+109,-77,-127
154531,2.424,0.884,6.201,1.229773,-0.626031,-0.190871,99720.35,+112,-81,-126
154542,1.665,3.330,2.640,0.874856,-0.817059,-1.019366,99720.35,+112,-81,-126
154552,-0.144,4.984,1.583,0.455021,-0.587187,-1.459421,99721.33,+114,-85,-126
154561,-1.329,5.495,1.238,0.460343,-0.048160,-1.787732,99720.08,+113,-90,-127
154572,-0.963,3.111,2.147,0.757969,0.657595,-2.081634,99718.14,+110,-96,-127
154582,0.031,1.575,4.217,0.904654,1.093747,-2.205971,99719.97,+110,-96,-127
154592,1.196,0.651,4.396,1.038746,1.368848,-2.408704,99719.97,+103,-102,-129
154602,2.189,0.415,3.870,1.118562,1.637564,-2.679016,99719.19,+95,-109,-129
154611,3.660,0.684,3.014,1.071737,1.909472,-2.957842,99718.45,+85,-116,-129
154621,5.056,1.018,1.682,0.952012,2.122848,-3.240924,99715.00,+85,-116,-129
154632,6.016,1.195,1.297,0.925939,2.279288,-3.480906,99715.94,+72,-122,-130
154642,6.675,1.348,1.302,1.128140,2.417104,-3.719823,99715.94,+58,-130,-130
154651,7.045,1.149,1.421,1.503810,2.612921,-3.947566,99714.88,+40,-137,-128
154661,8.004,0.557,1.629,1.874158,2.833214,-4.105071,99715.77,+40,-137,-128
154672,9.294,0.240,1.417,2.151919,2.973159,-4.232244,99716.97,+21,-144,-124
154682,10.379,-0.342,0.835,2.447240,3.010939,-4.367933,99715.50,+1,-151,-117
154691,11.062,-1.309,0.938,2.740965,2.984334,-4.519584,99715.50,-20,-156,-108
154701,11.851,-2.462,1.749,2.934653,2.955067,-4.673896,99718.29,-44,-156,-99
154712,12.794,-3.123,2.623,3.018726,2.940701,-4.839382,99716.93,-44,-159,-99
154722,14.152,-4.033,3.385,3.060763,2.946022,-4.959106,99714.41,-65,-160,-87
154732,15.502,-5.962,3.609,3.212414,2.924737,-5.034134,99715.15,-87,-158,-73
154741,16.748,-8.374,3.506,3.384285,2.920480,-5.091602,99715.15,-106,-152,-58
154752,17.802,-11.080,3.666,3.551900,2.936976,-5.117675,99715.76,-106,-152,-58
154762,19.083,-13.758,3.583,3.648744,2.925802,-5.045840,99719.05,-125,-144,-43
154772,20.423,-17.375,2.265,3.614689,2.859288,-4.831400,99715.87,-140,-135,-29
154781,20.163,-21.873,-0.068,3.377368,2.696994,-4.511602,99717.74,-151,-123,-16
154791,17.827,-25.683,-2.809,3.035754,2.380389,-4.123694,99717.74,-151,-123,-16
154802,16.132,-27.714,-4.271,2.622304,2.050481,-3.598502,99723.79,-160,-114,-4
154812,14.468,-27.726,-4.303,2.110947,1.637564,-2.913144,99722.85,-165,-106,+2
154821,10.183,-30.996,-3.593,1.651736,1.185270,-2.123493,99720.54,-168,-100,+7
154831,6.622,-34.241,-4.526,0.805150,0.720739,-1.265200,99722.90,-168,-100,+7
154842,5.065,-34.047,-6.063,-0.229272,0.371143,-0.269091,99722.90,-169,-98,+9
154852,6.308,-30.043,-5.771,-0.955602,0.038574,0.778633,99724.54,-168,-99,+7
154862,11.092,-21.910,-5.026,-1.155143,-0.456288,1.651825,99721.18,-164,-103,+4
154871,27.544,3.998,-1.168,-0.830024,-1.426324,1.852430,99721.18,-164,-103,+4
154882,39.360,31.852,0.473,-0.424556,-1.828067,0.743514,99717.57,-161,-106,+0
154892,27.495,0.593,-1.517,-2.216702,-1.284251,3.326907,99717.57,-154,-112,-8
154902,9.938,-14.664,-0.548,0.374141,-1.575315,4.062282,99723.78,-144,-123,-9
154911,7.938,-20.037,3.661,2.192892,-1.686526,4.044723,99721.27,-144,-123,-9
154923,8.644,-2.556,2.731,2.286898,-1.675174,3.961359,99721.47,-133,-133,-8
154932,2.990,5.256,2.520,2.472250,-1.065022,3.624888,99721.73,-124,-143,-4
154942,-3.006,-2.643,9.393,2.949552,-0.994251,3.424815,99721.73,-114,-152,+0
154952,2.522,-17.610,10.649,3.101203,-1.495499,2.931549,99720.67,-114,-152,+0
154961,10.122,-21.674,-0.605,1.269681,-2.058471,2.222247,99723.08,-106,-157,+4
154972,9.714,-15.689,-5.901,-1.542519,-1.310856,1.701844,99723.55,-101,-160,-1
154982,10.608,-5.355,0.892,-2.921215,-0.416912,1.305954,99720.52,-97,-162,-9
154992,8.449,-2.850,-0.104,-3.028169,-0.336563,1.154835,99720.52,-97,-162,-9
155001,9.009,-1.926,-0.864,-2.405069,-0.119995,0.984560,99723.92,-95,-162,-17
155012,9.543,0.524,-0.141,-1.794739,-0.032197,0.975514,99721.14,-92,-162,-21
155022,8.354,2.441,2.328,-0.584189,-0.179591,1.036174,99720.52,-88,-164,-23
155032,9.053,-0.469,2.312,0.612526,-0.302508,1.130890,99719.52,-88,-164,-23
155041,9.454,-4.293,1.114,0.948287,-0.312086,1.141000,99719.52,-85,-166,-20
155052,8.846,-5.868,2.282,0.778012,-0.198215,1.034578,99720.77,-81,-168,-19
155062,6.850,-8.347,4.891,0.178324,-0.040710,0.822266,99720.14,-79,-170,-19
155072,5.905,-9.358,6.533,-0.823638,0.254611,0.465220,99720.14,-79,-170,-19
155082,7.096,-6.244,4.638,-1.561142,0.449895,0.176817,99719.45,-79,-169,-22
155091,8.662,-2.753,2.408,-1.644152,0.500445,0.131056,99719.45,-79,-168,-26
155102,10.234,0.018,1.181,-1.269014,0.441913,0.186395,99724.31,-78,-168,-28
155112,10.885,0.373,0.914,-0.542684,0.221620,0.318358,99720.70,-78,-168,-28
155122,9.633,-2.867,1.637,0.047425,0.037510,0.442872,99720.48,-78,-168,-28
155131,8.876,-4.958,3.576,0.080948,0.002923,0.455642,99721.80,-76,-169,-28
155142,8.506,-5.634,4.824,-0.201070,0.017822,0.413606,99721.80,-75,-170,-28
155152,8.432,-5.176,5.129,-0.585785,0.071033,0.379551,99719.94,-74,-170,-30
155157,8.559,-4.323,5.027,-0.815657,0.108812,0.388065,99721.09,-74,-170,-30
155166,8.852,-3.421,4.804,-0.946556,0.116794,0.427441,99721.09,-72,-170,-32
155176,9.178,-2.694,4.226,-0.991253,0.081675,0.516835,99719.42,-72,-170,-32
155187,9.462,-2.395,3.550,-0.951877,-0.001334,0.626450,99719.94,-70,-170,-35
155197,9.711,-2.261,3.113,-0.889088,-0.100839,0.744046,99719.94,-68,-170,-37
155207,9.840,-2.659,2.411,-0.814060,-0.201940,0.854725,99721.30,-66,-170,-40
155217,10.065,-3.045,1.990,-0.757125,-0.279096,0.958486,99722.75,-66,-170,-40
155227,10.438,-3.689,1.866,-0.716684,-0.338160,1.040431,99723.00,-63,-170,-42
155237,10.543,-4.305,1.782,-0.716684,-0.375407,1.095770,99723.00,-58,-172,-45
155247,10.613,-4.139,2.233,-0.797033,-0.399884,1.140468,99723.00,-55,-172,-47
155257,10.526,-3.852,2.598,-0.857161,-0.449903,1.189954,99723.52,-55,-172,-47
155267,10.635,-3.663,2.520,-0.863546,-0.512692,1.263385,99720.65,-50,-173,-49
155277,10.910,-3.257,2.280,-0.843326,-0.603150,1.366082,99721.43,-46,-172,-53
155287,10.764,-3.667,2.063,-0.819914,-0.707444,1.475697,99721.32,-40,-172,-55
155297,10.818,-4.249,2.308,-0.858757,-0.803224,1.576798,99721.32,-40,-172,-55
155308,11.330,-4.642,3.297,-0.993381,-0.888893,1.657678,99724.18,-33,-174,-58
155317,12.162,-4.884,4.140,-1.170574,-0.961260,1.732706,99720.80,-28,-174,-63
155327,12.830,-4.987,4.655,-1.398317,-0.986802,1.829550,99718.01,-21,-173,-67
155337,13.484,-4.486,4.881,-1.647344,-1.017664,1.939697,99718.01,-21,-173,-67
155347,14.148,-4.145,4.393,-1.838904,-1.043737,2.063678,99723.77,-12,-172,-73
155357,14.904,-3.936,3.986,-2.002261,-1.070343,2.179678,99723.77,-4,-171,-79
155367,15.831,-3.884,4.146,-2.167216,-1.077260,2.269073,99720.41,+4,-168,-85
155377,17.408,-3.527,5.239,-2.380059,-1.056508,2.326540,99723.82,+14,-168,-92
155386,19.799,-2.073,8.146,-2.800958,-0.989994,2.368577,99721.41,+14,-166,-92
155393,21.325,-0.318,11.056,-3.168646,-0.967113,2.423917,99721.41,+23,-160,-100
155402,22.505,1.390,13.112,-3.321894,-0.938912,2.520228,99719.89,+23,-160,-100
155412,21.820,2.116,13.149,-3.172903,-1.053847,2.668155,99720.72,+32,-153,-109
155422,19.527,1.165,11.543,-2.818518,-1.229444,2.763402,99719.36,+43,-147,-116
155431,16.650,-4.262,8.269,-2.565766,-1.530618,2.829384,99719.16,+54,-143,-122
155442,14.947,-10.593,6.359,-2.276298,-1.790287,2.819274,99719.16,+54,-143,-122
155452,13.875,-10.957,4.828,-1.921913,-1.899902,2.877806,99719.66,+65,-136,-127
155462,12.415,-6.971,6.687,-1.442482,-1.685462,2.570247,99721.13,+77,-131,-131
155472,10.687,-2.352,7.026,-1.059895,-1.394930,2.007807,99717.93,+85,-127,-132
155482,8.181,0.767,4.510,-0.742758,-1.085242,1.604999,99718.26,+85,-127,-132
155492,2.296,-0.968,2.626,-0.629950,-0.825572,1.583715,99718.26,+91,-124,-132
155502,-2.149,-2.178,2.261,-0.170208,-0.471187,1.272963,99719.30,+95,-123,-134
155512,-4.212,-2.624,3.664,0.215040,-0.264196,0.625385,99718.73,+97,-123,-133
155522,-1.051,-1.979,5.642,0.512489,0.163620,0.025166,99718.73,+97,-123,-133
155532,2.717,0.485,3.723,-0.033455,0.329106,-0.818228,99715.68,+95,-124,-133
155542,2.994,3.485,1.840,-0.844923,0.166812,-1.571696,99715.68,+92,-124,-135
155552,2.461,5.975,-0.359,-1.202500,0.249822,-1.881916,99722.18,+86,-121,-138
155561,1.819,6.753,-1.382,-0.945491,0.464794,-1.977695,99719.87,+86,-121,-138
155572,1.655,5.551,0.376,-0.109015,0.777142,-2.028778,99716.05,+80,-121,-139
155582,2.024,3.261,2.186,0.846122,1.034683,-2.150099,99717.35,+72,-123,-139
155592,2.277,1.042,3.011,1.485718,1.248592,-2.339530,99717.35,+63,-127,-136
155602,2.511,-0.451,3.254,1.724635,1.473142,-2.570466,99719.11,+63,-127,-136
155612,3.002,-1.669,3.585,1.696434,1.731747,-2.828007,99715.86,+53,-132,-131
155622,3.698,-1.679,3.648,1.495828,1.987692,-3.142484,99717.13,+40,-137,-129
155628,4.331,-0.804,3.648,1.331938,2.194683,-3.402685,99715.30,+40,-137,-129
155637,5.511,0.132,3.242,1.289370,2.414976,-3.626171,99715.30,+26,-139,-125
155648,6.476,0.363,2.568,1.301076,2.690077,-3.837419,99715.30,+10,-141,-121
155657,7.034,-0.614,3.020,1.342581,2.982205,-3.952355,99715.99,-6,-142,-116
155667,8.107,-1.547,2.700,1.366526,3.228040,-4.106135,99713.46,-6,-142,-116
155677,9.836,-1.461,1.533,1.318103,3.394590,-4.279070,99716.66,-24,-142,-111
155687,11.480,-1.084,0.446,1.378232,3.465361,-4.384428,99716.66,-42,-139,-106
155698,12.639,-0.927,0.169,1.603314,3.453122,-4.407309,99720.20,-60,-137,-98
155707,13.653,-2.299,0.859,1.918855,3.334994,-4.364740,99720.20,-60,-137,-98
155717,15.179,-4.720,2.396,2.314745,3.194517,-4.361547,99717.38,-76,-135,-90
155727,16.964,-6.191,3.680,2.619644,3.083306,-4.446153,99716.11,-92,-131,-80
155737,18.003,-7.611,4.451,2.968176,3.037012,-4.470098,99717.11,-107,-127,-69
155747,18.540,-9.830,4.618,3.458781,3.033820,-4.359419,99717.11,-107,-127,-69
155757,18.605,-13.257,3.776,4.041974,2.959857,-4.111988,99718.08,-122,-123,-56
155767,18.915,-16.719,1.146,4.394762,2.797031,-3.883180,99718.02,-133,-119,-42
155778,19.275,-17.814,-2.473,4.281423,2.518738,-3.731529,99718.08,-145,-114,-29
155787,18.333,-17.647,-4.759,3.855203,2.111141,-3.450043,99719.41,-145,-114,-29
155797,16.784,-18.753,-4.286,3.192726,1.643949,-2.980190,99723.71,-152,-108,-18
155807,13.323,-22.662,-2.746,2.624965,1.112903,-2.403383,99722.62,-160,-102,-10
155817,9.067,-28.552,-1.990,2.274305,0.752133,-1.810081,99720.99,-164,-98,-4
155827,5.352,-31.684,-4.371,1.479333,0.494060,-1.123127,99720.99,-164,-98,-4
155837,5.291,-29.503,-7.454,0.233132,0.302500,-0.257917,99722.04,-166,-96,-2
155847,8.959,-24.873,-6.439,-0.794904,0.126372,0.641881,99722.04,-166,-97,-3
155857,9.918,-20.493,-5.242,-1.155675,-0.355719,1.474633,99724.78,-163,-100,-6
155863,10.194,-16.577,-3.111,-1.142372,-0.852178,2.013128,99723.48,-163,-100,-6
155872,12.670,-5.128,3.451,-0.960923,-1.238490,2.220651,99721.28,-159,-104,-11
155882,24.643,27.227,18.700,-0.248960,-1.103334,0.957954,99716.14,-157,-107,-14
155892,29.899,24.520,-0.812,-1.628720,-0.294527,0.319422,99716.14,-157,-107,-14
155902,17.355,-3.676,-6.562,-2.930793,-1.100141,2.941127,99723.98,-154,-108,-21
155912,9.292,-18.114,4.933,0.881773,-1.327884,3.451952,99720.64,-146,-117,-23
155922,10.978,-18.077,3.403,2.450965,-1.168251,3.503035,99722.05,-138,-127,-20
155932,9.754,-0.646,-1.071,1.833186,-1.319902,3.178980,99719.64,-138,-127,-20
155942,3.731,0.334,6.581,1.395259,-1.006490,3.034779,99719.64,-130,-135,-19
155953,1.050,-9.224,5.955,1.620342,-0.960196,2.760210,99723.48,-122,-142,-17
155962,4.874,-15.252,2.259,1.010544,-1.187939,2.272265,99721.06,-117,-147,-17
155972,8.743,-13.014,-2.572,-0.232996,-0.938380,1.691201,99721.02,-117,-147,-17
155982,11.156,-7.512,0.040,-1.256776,-0.472251,1.320853,99723.17,-112,-150,-20
155992,10.155,-6.360,2.713,-1.935748,-0.373279,1.132486,99723.17,-108,-151,-26
156002,8.938,-3.271,1.382,-1.902225,-0.246637,0.920174,99721.12,-106,-151,-29
156012,8.881,-0.936,0.829,-1.700555,-0.020490,0.894101,99722.07,-106,-151,-29
156022,8.804,2.028,2.968,-1.076923,-0.058802,0.953697,99720.65,-103,-152,-34
156033,8.630,0.737,2.868,-0.170208,-0.242912,1.027128,99719.76,-100,-153,-35
156042,9.258,-2.729,1.851,0.423095,-0.354123,1.069697,99719.76,-97,-156,-34
156052,9.117,-6.021,2.887,0.506636,-0.319004,1.001587,99722.38,-97,-156,-34
156062,7.423,-8.230,4.402,0.101168,-0.204068,0.796725,99718.92,-94,-158,-33
156072,6.408,-7.911,4.900,-0.553327,-0.021022,0.512046,99721.39,-93,-158,-35
156083,7.259,-5.425,4.291,-1.025840,0.123179,0.292285,99720.81,-93,-158,-37
156092,8.350,-3.476,3.266,-1.207289,0.181711,0.199166,99720.81,-93,-158,-37
156102,9.149,-2.008,2.054,-1.156739,0.191822,0.192248,99722.37,-92,-157,-39
156112,9.624,-1.298,1.378,-0.884299,0.130097,0.243331,99722.05,-92,-156,-42
156123,9.514,-2.172,1.749,-0.525657,0.044959,0.316230,99724.20,-91,-156,-44
156132,8.877,-3.509,2.508,-0.320262,-0.005059,0.363055,99721.95,-89,-157,-44
156142,8.406,-3.927,3.349,-0.299510,-0.022619,0.367312,99721.95,-89,-157,-44
156152,8.273,-4.155,4.048,-0.348996,-0.022619,0.350817,99723.48,-88,-157,-44
156163,8.244,-4.703,3.966,-0.432005,-0.017830,0.310376,99720.28,-88,-157,-46
156172,8.407,-4.406,3.684,-0.520336,-0.007720,0.264083,99719.08,-86,-156,-47
156182,8.309,-4.043,3.314,-0.579932,-0.012509,0.239074,99720.55,-86,-156,-47
156192,8.515,-3.684,3.172,-0.621969,-0.030600,0.242799,99720.55,-86,-156,-49
156203,8.861,-3.335,2.954,-0.624097,-0.064123,0.268340,99721.66,-85,-156,-50
156213,9.009,-3.254,2.742,-0.594299,-0.088600,0.315165,99721.61,-85,-156,-52
156222,8.889,-3.411,2.650,-0.599620,-0.119995,0.374762,99721.50,-85,-156,-52
156232,8.804,-3.438,2.847,-0.613455,-0.162031,0.432762,99717.56,-84,-155,-53
156242,8.962,-3.330,2.730,-0.607602,-0.206729,0.489698,99717.56,-81,-156,-55
156253,9.092,-3.701,2.895,-0.635804,-0.238123,0.540780,99721.12,-80,-156,-57
156262,9.383,-4.413,2.870,-0.698592,-0.252490,0.573771,99722.99,-80,-156,-57
156272,9.513,-4.480,2.698,-0.779473,-0.265261,0.596119,99720.16,-78,-156,-59
156282,9.630,-4.352,2.586,-0.889620,-0.287077,0.616872,99722.48,-76,-156,-62
156293,9.915,-4.036,2.377,-0.969436,-0.321664,0.649863,99722.48,-73,-156,-65
156303,10.089,-3.515,2.128,-1.018923,-0.377004,0.708395,99722.64,-73,-156,-65
156312,10.207,-3.166,2.212,-1.023712,-0.478105,0.798321,99721.66,-71,-155,-68
156322,10.278,-3.131,2.552,-0.987528,-0.599426,0.905275,99720.97,-67,-154,-72
156333,10.277,-3.427,3.073,-0.957198,-0.734582,1.021807,99722.33,-63,-154,-75
156342,10.102,-4.188,3.550,-0.982207,-0.860692,1.133550,99722.33,-63,-154,-75
156352,10.057,-3.960,4.078,-1.083840,-0.961260,1.255935,99720.37,-59,-154,-78
156362,10.180,-4.186,4.820,-1.240812,-1.012875,1.375660,99722.82,-53,-154,-83
156372,10.808,-4.912,4.123,-1.328078,-1.057040,1.470908,99722.04,-48,-154,-86
156383,11.411,-5.493,3.130,-1.446739,-1.052251,1.568816,99719.74,-48,-154,-86
156392,12.201,-6.381,2.340,-1.613289,-1.011279,1.610853,99719.74,-41,-152,-91
156402,13.157,-6.576,1.692,-1.864445,-0.964453,1.637990,99723.88,-35,-151,-97
156412,14.680,-5.537,1.864,-2.129436,-0.952214,1.649165,99720.83,-28,-149,-103
156423,16.198,-3.122,2.344,-2.370481,-1.033627,1.731642,99722.03,-28,-149,-103
156432,17.570,-1.830,3.709,-2.475839,-1.112380,1.887550,99720.94,-22,-145,-109
156442,20.390,-1.161,5.627,-2.477968,-1.215609,2.050908,99720.94,-13,-141,-116
156448,22.769,-0.773,6.658,-2.458812,-1.312985,2.168504,99720.58,-13,-141,-116
156457,22.919,0.220,6.604,-2.373674,-1.479535,2.308981,99720.58,-4,-137,-121
156468,21.627,1.861,6.959,-2.121454,-1.735480,2.481916,99719.28,+5,-133,-128
156478,20.288,1.534,6.415,-1.658518,-2.070709,2.611219,99720.33,+17,-129,-132
156487,15.989,-3.210,6.009,-1.214207,-2.424030,2.641017,99719.38,+17,-129,-132
156497,13.266,-8.451,5.670,-0.784262,-2.594305,2.734668,99721.63,+30,-127,-134
156508,11.032,-11.566,5.651,-0.094116,-2.594305,2.830981,99717.48,+42,-126,-134
156518,10.197,-9.264,7.066,0.565700,-2.446911,2.654320,99718.27,+55,-127,-132
156527,7.313,-6.224,5.055,0.845590,-2.370287,2.334522,99718.27,+55,-127,-132
156537,3.449,-5.386,3.466,1.058966,-2.133498,2.070064,99718.38,+65,-128,-129
156548,-0.854,-5.588,2.987,1.079186,-1.813700,1.600211,99718.38,+74,-130,-127
156558,-2.512,-3.460,3.599,0.973828,-1.488049,0.834505,99722.67,+78,-131,-124
156563,-3.058,-2.600,2.432,0.612526,-1.209756,0.245459,99720.58,+78,-131,-124
156572,-2.142,-1.690,3.427,-0.079749,-0.911242,-0.149366,99719.58,+81,-131,-124
156582,0.317,1.601,1.864,-0.711363,-0.725536,-0.707017,99716.06,+81,-130,-126
156593,1.489,4.517,0.987,-0.941235,-0.568031,-1.211990,99716.06,+81,-130,-126
156603,1.555,5.146,0.794,-0.719345,-0.417444,-1.475916,99717.98,+79,-128,-127
156612,1.100,4.103,0.810,-0.226079,-0.286545,-1.629164,99719.86,+76,-128,-127
156622,0.848,2.656,1.505,0.311352,-0.131701,-1.781879,99718.97,+72,-130,-126
156633,0.936,0.482,1.971,0.720012,0.021546,-1.970246,99717.98,+72,-130,-126
156643,1.317,-1.046,2.352,0.977553,0.185436,-2.175108,99717.98,+66,-133,-124
156652,1.789,-1.462,2.501,1.132929,0.400941,-2.377310,99721.34,+60,-136,-122
156662,2.250,-1.241,2.076,1.326085,0.647840,-2.552374,99719.55,+53,-140,-118
156673,3.228,-1.018,1.454,1.575645,0.906445,-2.726906,99718.18,+53,-140,-118
156683,4.635,-1.179,0.886,1.906617,1.084702,-2.840245,99718.82,+43,-143,-114
156692,5.522,-2.618,0.338,2.395093,1.160261,-2.907291,99718.82,+33,-149,-109
156702,6.551,-4.241,-0.045,2.798965,1.140041,-2.962098,99719.09,+23,-153,-102
156712,7.363,-5.603,-0.512,3.086304,1.002757,-3.024887,99719.91,+23,-153,-102
156723,7.867,-6.739,-0.709,3.290102,0.835142,-3.071181,99720.23,+13,-159,-93
156733,8.132,-8.075,-0.772,3.439625,0.668592,-3.108961,99716.24,+2,-164,-85
156742,8.189,-9.573,-0.398,3.447074,0.531840,-3.145676,99716.24,-6,-168,-75
156752,8.199,-10.747,-0.159,3.327350,0.418500,-3.160575,99721.48,-6,-168,-75
156763,7.944,-11.852,-0.355,3.220396,0.364225,-3.164300,99719.38,-16,-171,-65
156773,7.792,-12.782,0.130,3.093754,0.395088,-3.135034,99719.59,-27,-173,-57
156782,7.927,-13.256,0.623,2.954873,0.450427,-3.082355,99720.59,-36,-174,-49
156792,8.195,-13.120,0.714,2.762781,0.500977,-3.021695,99720.59,-36,-174,-49
156803,8.813,-12.826,0.865,2.518543,0.529179,-2.891860,99722.90,-46,-174,-41
156813,9.328,-12.460,0.459,2.339222,0.513748,-2.723181,99720.38,-55,-174,-34
156822,9.634,-11.688,0.275,2.186507,0.474372,-2.567805,99719.01,-63,-172,-28
156832,9.949,-10.979,0.561,2.049222,0.422225,-2.396466,99721.85,-63,-172,-28
156843,10.257,-10.828,0.719,1.909810,0.377528,-2.246411,99721.85,-70,-171,-22
156853,10.160,-10.714,1.113,1.716122,0.375399,-2.119236,99722.44,-76,-170,-18
156863,9.823,-10.324,1.966,1.534140,0.413711,-1.972374,99720.77,-82,-167,-13
156872,9.878,-9.849,2.334,1.442085,0.450959,-1.778686,99720.08,-82,-167,-13
156882,10.122,-9.835,2.190,1.377700,0.485546,-1.574888,99720.19,-87,-165,-9
156893,10.397,-9.532,1.621,1.293094,0.497785,-1.342889,99720.19,-92,-164,-4
156903,9.852,-8.540,0.714,1.262764,0.479161,-1.158779,99720.04,-95,-162,+0
156912,9.431,-8.189,0.795,1.201039,0.471711,-0.961366,99722.87,-95,-162,+0
156922,9.275,-8.981,0.825,1.108984,0.414243,-0.733091,99720.30,-97,-162,+2
156933,8.840,-10.152,0.264,0.946691,0.318464,-0.520779,99719.57,-100,-161,+5
156943,7.756,-12.222,0.161,0.693407,0.248757,-0.264302,99719.57,-100,-160,+8
156953,9.284,-14.061,-1.431,0.495462,0.179051,0.259826,99723.25,-100,-160,+8
156962,9.551,-13.924,-1.898,0.384783,-0.065720,0.542376,99720.47,-99,-162,+9
156973,9.237,-12.243,-2.407,-0.085070,-0.174802,0.709459,99721.94,-97,-162,+10
156983,10.073,-8.525,-0.847,-0.512354,-0.311554,0.837165,99719.20,-94,-164,+8
156993,11.585,-2.103,2.088,-0.666666,-0.365829,0.704138,99719.20,-94,-164,+8
157002,12.694,3.170,4.699,-0.748611,-0.245573,0.452450,99721.34,-93,-164,+5
157012,13.010,3.831,5.845,-0.755528,-0.056142,0.471074,99721.70,-92,-164,+3
157023,12.223,0.878,3.470,-0.516079,-0.054545,0.676468,99719.40,-90,-166,+2
157033,11.319,-2.340,1.450,-0.189541,-0.129218,0.894633,99720.60,-87,-168,+1
157042,10.468,-2.795,1.160,-0.051547,-0.159371,0.956890,99720.60,-87,-168,+1
157052,9.324,-2.649,1.639,0.038380,-0.156178,0.891440,99722.87,-84,-169,+0
157063,8.655,-2.628,2.045,0.145866,-0.191830,0.789275,99721.13,-83,-170,+1
157073,7.858,-2.774,2.140,0.179389,-0.242912,0.720101,99721.40,-80,-172,+1
157083,7.412,-3.265,2.259,0.150123,-0.227481,0.656780,99720.55,-80,-172,+1
157092,7.540,-3.663,2.124,0.089462,-0.190233,0.577496,99720.55,-78,-173,+1
157103,8.376,-3.652,1.813,-0.024942,-0.105628,0.497147,99723.48,-76,-174,+1
157113,9.027,-3.262,1.358,-0.168611,-0.055077,0.443404,99722.23,-76,-174,+1
157123,9.089,-2.980,1.316,-0.177657,-0.031665,0.394982,99724.05,-76,-174,+1
157132,9.058,-2.974,1.350,-0.058464,-0.011976,0.358266,99721.27,-74,-175,+0
157143,9.281,-2.740,1.261,0.095315,-0.010380,0.331661,99721.27,-73,-175,+0
157153,9.454,-2.643,1.153,0.212912,-0.004527,0.307716,99722.30,-72,-176,+1
157163,9.465,-3.039,1.560,0.273572,0.010904,0.287496,99723.20,-72,-176,+1
157172,9.374,-3.082,1.905,0.271976,0.057198,0.263019,99720.88,-72,-176,+1
157182,9.384,-3.087,2.064,0.231003,0.110409,0.245991,99719.90,-71,-178,+2
157193,9.182,-3.403,2.257,0.160233,0.138611,0.226835,99719.90,-71,-176,+2
157203,8.906,-3.573,2.799,0.088398,0.160427,0.193844,99724.59,-71,-176,+2
157213,9.064,-3.596,2.885,0.093719,0.175326,0.119349,99718.25,-70,-177,+4
157222,9.105,-3.111,1.492,0.002196,0.191289,0.069863,99721.66,-70,-178,+4
157233,9.075,-2.800,1.417,-0.205327,0.193950,0.100193,99721.86,-70,-177,+4
157243,9.128,-2.691,1.895,-0.212244,0.171601,0.119349,99721.86,-70,-177,+4
157253,9.398,-2.388,2.125,-0.157437,0.147656,0.149679,99721.98,-69,-178,+3
157262,9.450,-2.372,2.423,-0.066446,0.112537,0.187459,99721.00,-69,-178,+3
157268,9.344,-2.377,2.389,-0.001529,0.080079,0.202890,99719.63,-69,-178,+3
157278,9.050,-2.601,2.401,0.037315,0.063583,0.218322,99719.63,-68,-178,+4
157288,8.751,-2.961,2.283,0.070838,0.049216,0.234817,99718.31,-67,-180,+3
157298,8.620,-3.021,2.263,0.083609,0.034849,0.236945,99718.31,-66,-180,+4
157308,8.739,-3.099,2.203,0.093719,0.019418,0.216725,99720.68,-66,-180,+4
157318,8.849,-3.192,2.379,0.063921,0.003455,0.211936,99721.27,-66,-179,+4
157328,9.016,-3.100,2.961,0.014435,-0.007720,0.216725,99719.73,-65,-180,+4
157338,9.110,-2.774,3.123,-0.020685,-0.009848,0.220450,99719.73,-64,-180,+4
157347,9.219,-2.685,2.568,-0.072831,-0.007187,0.225239,99719.73,-64,-180,+4
157358,9.203,-2.948,2.177,-0.115400,-0.018894,0.248120,99722.53,-63,-181,+5
157368,9.032,-3.232,2.461,-0.101033,-0.018894,0.264083,99721.91,-62,-181,+3
157378,9.199,-2.711,2.222,-0.103162,-0.009848,0.271532,99720.64,-63,-181,+4
157388,9.187,-2.560,2.352,-0.160630,0.002390,0.288560,99720.28,-63,-181,+4
157398,8.861,-3.518,2.749,-0.145198,0.001326,0.282707,99720.28,-62,-181,+3
157408,8.862,-3.836,2.335,-0.116997,-0.000270,0.245991,99721.29,-61,-181,+3
157418,8.925,-3.845,2.086,-0.141474,0.011968,0.190120,99719.20,-61,-182,+3
157428,8.965,-3.952,2.059,-0.132428,0.028464,0.122010,99720.59,-61,-182,+3
157437,8.901,-3.857,2.213,-0.117529,0.031657,0.071991,99720.59,-60,-181,+2
157448,8.877,-3.506,2.354,-0.107951,0.030060,0.028890,99723.89,-60,-182,+2
157458,8.977,-3.101,2.579,-0.078153,0.041767,0.013991,99722.33,-60,-182,+1
157468,8.971,-3.476,3.029,-0.064318,0.042831,-0.000376,99722.33,-60,-182,+1
157477,9.014,-3.562,3.021,-0.060593,0.041235,-0.017935,99721.02,-60,-181,+2
157488,9.148,-3.515,2.842,-0.132960,0.062519,-0.042412,99720.70,-60,-181,+1
157498,9.076,-3.968,2.470,-0.160630,0.042299,-0.078596,99720.70,-60,-182,+1
157508,9.058,-3.800,2.748,-0.178189,0.021546,-0.120632,99723.60,-60,-182,+1
157518,9.257,-3.677,2.835,-0.212776,-0.008252,-0.158944,99721.88,-61,-181,+0
157528,9.183,-3.682,2.759,-0.197877,-0.047628,-0.192467,99721.82,-62,-181,+0
157538,9.085,-3.621,2.615,-0.176593,-0.081683,-0.214816,99718.79,-62,-181,+0
157548,9.199,-3.525,2.577,-0.187767,-0.100839,-0.233972,99718.84,-62,-181,+0
157558,9.144,-3.515,2.670,-0.252685,-0.105096,-0.240357,99719.93,-62,-180,-1
157569,8.992,-3.289,2.432,-0.313345,-0.124252,-0.246210,99721.13,-63,-180,-2
157578,9.107,-2.645,2.481,-0.351657,-0.148729,-0.230247,99721.40,-63,-179,-3
157588,9.293,-2.105,2.695,-0.294189,-0.204068,-0.192467,99721.40,-63,-179,-3
157598,9.328,-1.796,2.475,-0.170208,-0.273774,-0.130210,99721.40,-65,-178,-4
157608,9.314,-1.751,2.323,-0.077088,-0.337628,-0.039752,99724.77,-64,-178,-4
157618,9.280,-1.974,2.585,0.003792,-0.400417,0.050175,99720.21,-63,-179,-5
157628,9.365,-2.144,2.405,0.066581,-0.466398,0.136909,99722.41,-63,-179,-5
157638,9.335,-2.347,2.139,0.086802,-0.513224,0.218854,99722.46,-62,-179,-6
157648,9.124,-2.869,2.334,0.076691,-0.546747,0.284303,99722.46,-63,-180,-6
157658,9.221,-2.888,2.439,0.088930,-0.579205,0.317826,99721.73,-60,-180,-7
157668,9.228,-3.087,2.087,0.136820,-0.620710,0.323679,99721.90,-60,-180,-7
157678,9.150,-3.494,1.503,0.125646,-0.640930,0.341771,99720.79,-60,-180,-7
157688,9.222,-3.647,1.726,0.086802,-0.653169,0.338046,99720.79,-58,-180,-8
157698,9.238,-3.245,2.014,0.042104,-0.671793,0.336450,99720.79,-57,-181,-8
157708,9.089,-3.132,2.087,-0.002593,-0.705315,0.350817,99721.86,-57,-181,-8
157718,9.093,-3.256,1.755,0.000068,-0.740435,0.358798,99722.75,-55,-181,-8
157728,9.258,-3.035,1.730,-0.003657,-0.734049,0.381679,99721.45,-53,-181,-9
157737,9.172,-3.794,2.074,-0.042501,-0.712233,0.393386,99721.08,-53,-182,-10
157748,9.028,-4.361,1.629,-0.120189,-0.714893,0.366248,99721.08,-51,-182,-10
157758,9.197,-4.224,1.840,-0.236721,-0.712765,0.321019,99722.31,-51,-181,-11
157768,9.107,-4.213,1.785,-0.308024,-0.728728,0.277386,99721.73,-49,-183,-14
157778,9.261,-4.881,1.137,-0.401675,-0.740435,0.234285,99720.38,-49,-183,-15
157789,9.563,-4.953,1.041,-0.568758,-0.741499,0.179477,99719.11,-47,-182,-18
157798,10.016,-4.271,1.231,-0.783198,-0.702655,0.149147,99723.19,-47,-182,-18
157808,10.505,-3.811,1.782,-0.990189,-0.714361,0.151808,99719.00,-46,-181,-22
157818,11.035,-2.779,2.136,-1.087033,-0.817591,0.180542,99719.00,-45,-182,-26
157828,11.818,-1.787,1.389,-1.032225,-0.973499,0.258762,99720.98,-43,-181,-29
157838,11.730,-1.757,1.157,-0.886427,-1.168783,0.374762,99719.27,-43,-181,-29
157848,11.984,-1.953,1.720,-0.737969,-1.331077,0.472670,99719.27,-40,-180,-32
157853,12.284,-1.829,1.781,-0.654959,-1.449205,0.541312,99723.51,-40,-180,-32
157863,12.857,-2.275,2.298,-0.631015,-1.511462,0.602505,99722.29,-37,-181,-36
157873,13.007,-3.382,1.793,-0.593767,-1.621608,0.677532,99720.51,-35,-180,-39
157883,13.408,-3.550,1.894,-0.639528,-1.729095,0.738725,99721.62,-30,-181,-42
157893,13.940,-3.626,2.567,-0.710831,-1.827535,0.773312,99721.62,-30,-181,-42
157903,15.268,-3.521,3.774,-0.754996,-1.906819,0.752560,99721.02,-26,-180,-45
157913,16.260,-2.916,4.949,-0.814592,-1.996746,0.762138,99720.91,-21,-180,-49
157923,17.207,-2.598,6.318,-0.735308,-2.095186,0.856321,99722.02,-15,-180,-53
157933,17.074,-2.017,7.662,-0.610262,-2.219700,0.997330,99718.92,-15,-180,-53
157943,15.343,-1.449,9.331,-0.445308,-2.321333,1.206449,99718.92,-9,-180,-55
157954,13.492,-1.358,10.315,-0.170208,-2.418177,1.469844,99719.82,-1,-179,-57
157963,12.658,-1.520,8.913,0.097976,-2.606544,1.568284,99718.71,+5,-180,-59
157973,10.312,-3.306,8.743,0.232067,-2.855571,1.545403,99718.04,+5,-180,-59
157983,7.825,-4.916,9.139,0.296453,-2.845993,1.624688,99719.04,+14,-181,-59
157993,7.825,-8.142,7.530,0.295921,-2.634746,1.774742,99719.04,+22,-181,-60
158003,9.210,-10.708,5.454,0.354985,-2.485755,1.720999,99721.07,+31,-182,-58
158013,9.524,-8.975,4.785,0.428948,-2.387846,1.405990,99720.85,+38,-183,-57
158023,8.318,-5.167,3.617,0.411388,-2.294727,1.053734,99718.02,+38,-183,-57
158033,5.936,-3.968,5.109,0.739168,-2.239388,0.888248,99718.87,+44,-183,-55
158043,5.581,-2.756,6.959,1.484122,-2.104764,0.703606,99718.87,+48,-185,-51
158053,5.782,-1.425,7.320,2.018892,-1.957902,0.539184,99718.94,+52,-187,-45
158063,5.111,-0.505,6.496,2.350396,-1.848819,0.373165,99721.41,+52,-187,-45
158073,4.424,-0.296,5.926,2.607405,-1.719517,0.205019,99718.94,+55,-189,-38
158084,4.378,-0.339,5.743,2.835680,-1.581168,0.027826,99717.11,+56,-193,-30
158089,4.333,-0.754,5.642,3.015533,-1.476875,-0.111054,99717.11,+56,-193,-30
158098,4.132,-1.444,5.440,3.163992,-1.358746,-0.269091,99717.11,+57,-195,-20
158108,4.178,-2.017,5.246,3.281056,-1.193792,-0.514926,99719.66,+55,-197,-10
158118,4.617,-2.093,4.968,3.359808,-1.044269,-0.795880,99717.46,+55,-197,-10
158129,4.989,-2.251,4.784,3.432175,-0.917627,-1.062467,99718.46,+53,-199,+0
158138,5.123,-2.560,4.795,3.518377,-0.792581,-1.304577,99717.20,+48,-203,+9
158148,5.253,-2.971,5.068,3.582230,-0.665939,-1.507843,99718.71,+44,-204,+19
158158,5.371,-3.484,5.329,3.632249,-0.546747,-1.676521,99718.13,+44,-204,+19
158169,5.654,-3.831,5.705,3.663111,-0.406270,-1.849989,99718.13,+37,-204,+32
158178,5.965,-4.188,6.276,3.691313,-0.237591,-2.013347,99716.88,+30,-203,+42
158188,6.246,-4.473,6.527,3.753570,-0.059866,-2.142117,99717.73,+23,-203,+53
158198,6.517,-5.000,6.738,3.813698,0.137014,-2.232044,99717.73,+23,-203,+53
158209,6.962,-5.594,6.808,3.846157,0.354647,-2.301750,99717.30,+15,-201,+67
158218,7.320,-5.949,6.830,3.831258,0.571748,-2.360814,99717.05,+7,-199,+76
158228,7.581,-6.090,6.762,3.788689,0.780335,-2.427328,99717.72,+0,-195,+88
158238,7.874,-6.355,6.594,3.732817,0.984133,-2.486392,99719.30,-7,-191,+99
158248,8.127,-6.870,6.371,3.675882,1.179949,-2.540668,99717.34,-7,-191,+99
158259,8.135,-7.119,6.198,3.599258,1.373637,-2.606649,99715.72,-14,-186,+110
158268,8.353,-6.732,6.020,3.505607,1.574775,-2.673695,99714.14,-20,-180,+121
158278,8.834,-6.625,5.832,3.461974,1.746646,-2.709346,99715.77,-26,-173,+131
158288,9.360,-6.971,5.512,3.468359,1.883398,-2.721585,99715.77,-26,-173,+131
158299,9.691,-7.552,5.536,3.494432,2.003123,-2.715732,99715.77,-31,-165,+140
158308,10.485,-8.292,5.356,3.549772,2.151582,-2.677420,99718.53,-36,-158,+151
158318,11.351,-10.250,3.860,3.566799,2.183508,-2.648154,99716.33,-40,-148,+161
158323,11.595,-11.367,2.468,3.550836,2.159563,-2.687530,99718.28,-40,-148,+161
158333,12.035,-12.018,1.205,3.421533,2.120187,-2.703493,99718.75,-43,-139,+172
158343,12.683,-13.748,-0.840,3.242744,1.999930,-2.635915,99718.75,-43,-139,+172
158353,12.904,-16.340,-2.892,3.036286,1.791876,-2.496502,99722.45,-47,-129,+180
158363,12.755,-18.646,-2.686,2.741497,1.527949,-2.275145,99721.88,-49,-120,+188
158373,11.497,-21.262,-3.485,2.353057,1.166647,-1.958540,99720.10,-51,-113,+195
158384,8.858,-22.712,-2.400,1.988562,0.737234,-1.463678,99720.20,-51,-113,+195
158393,6.943,-22.607,-2.248,1.852874,0.463198,-0.966155,99720.20,-54,-105,+198
158403,5.946,-22.904,-3.418,1.569791,0.323785,-0.418614,99720.40,-54,-100,+203
158413,6.154,-23.026,-4.909,1.149957,0.217363,0.150744,99724.45,-54,-96,+205
158424,7.676,-21.736,-5.468,0.678508,0.099767,0.669551,99722.20,-54,-96,+205
158434,16.152,-16.055,-7.912,0.328379,-0.268453,1.115991,99721.46,-52,-95,+206
158443,28.950,-13.748,-11.659,-0.149455,-1.384820,1.819972,99721.46,-51,-97,+206
158453,27.804,-5.635,-0.895,0.470985,-2.123388,3.058191,99725.75,-51,-100,+204
158464,21.530,-5.419,-3.520,1.179223,-1.823278,2.842155,99724.70,-50,-100,+203
158474,7.059,-4.454,-4.715,0.640728,-1.808379,3.112467,99721.56,-50,-100,+203
158483,0.949,1.711,2.705,1.495828,-1.599792,3.082668,99722.50,-48,-101,+204
158493,-0.975,0.114,5.717,1.875222,-1.249132,2.726687,99722.50,-46,-98,+206
158503,1.958,-7.032,2.189,1.823608,-1.264031,2.612815,99724.20,-44,-97,+208
158514,11.529,-14.980,-0.902,1.956635,-1.397058,2.466485,99721.99,-44,-97,+208
158523,12.324,-12.544,-0.944,1.043535,-1.371517,2.200963,99721.57,-44,-96,+209
158533,7.920,-6.871,1.181,0.029334,-0.928802,1.829550,99723.04,-44,-97,+208
158543,7.151,-5.433,1.825,-0.865143,-0.480233,1.588504,99723.04,-41,-102,+206
158554,7.010,-5.579,1.287,-1.352023,-0.264729,1.312871,99724.82,-41,-102,+206
158559,8.585,-3.900,0.670,-1.323289,-0.089132,1.125569,99723.51,-40,-106,+204
158568,9.288,-2.576,1.107,-1.200372,-0.019426,1.087789,99723.51,-40,-106,+204
158578,9.237,-2.583,1.289,-0.835877,-0.047096,1.079807,99721.41,-38,-110,+201
158588,9.056,-2.549,1.936,-0.265987,-0.168949,1.094706,99722.26,-35,-112,+201
158599,8.514,-3.743,2.213,0.213444,-0.285481,1.088853,99722.26,-33,-113,+201
158609,8.304,-5.331,2.067,0.273572,-0.263132,0.999459,99720.81,-33,-113,+201
158618,8.199,-6.028,2.027,0.108618,-0.151921,0.844083,99721.03,-32,-114,+201
158628,7.878,-6.804,3.157,-0.156905,0.002923,0.667422,99720.19,-31,-114,+201
158639,7.483,-6.511,3.690,-0.538427,0.174794,0.476395,99720.19,-29,-117,+200
158649,8.267,-4.645,3.057,-0.732648,0.307289,0.335918,99720.19,-29,-117,+200
158658,9.239,-3.427,1.856,-0.652299,0.314739,0.308780,99722.17,-28,-119,+199
158668,9.535,-3.472,1.560,-0.439987,0.261528,0.344432,99721.34,-26,-120,+198
158679,9.341,-4.219,1.652,-0.278226,0.215767,0.381147,99721.81,-25,-121,+198
158689,9.037,-5.037,1.964,-0.295785,0.239179,0.378487,99722.23,-23,-122,+197
158699,9.003,-5.334,2.253,-0.461804,0.317399,0.349221,99722.23,-23,-122,+197
158708,9.756,-4.229,2.856,-0.636868,0.348794,0.357734,99721.51,-21,-123,+196
158718,9.349,-3.910,3.094,-0.642721,0.264188,0.436487,99721.66,-20,-126,+196
158729,9.347,-3.754,3.932,-0.670923,0.210978,0.521092,99719.68,-17,-127,+193
158739,9.128,-3.903,4.260,-0.687418,0.118923,0.600376,99719.68,-17,-127,+193
158748,8.757,-4.335,3.919,-0.753932,0.054005,0.685514,99724.11,-16,-129,+192
158758,8.661,-5.001,3.594,-0.896537,0.023143,0.741385,99724.11,-14,-133,+190
158769,8.700,-5.257,3.270,-1.062556,0.006647,0.769055,99720.95,-12,-136,+188
158779,9.045,-5.462,3.137,-1.228042,0.014629,0.775440,99720.86,-12,-136,+188
158788,9.962,-5.656,2.675,-1.336060,0.026868,0.756284,99720.02,-10,-139,+186
158798,10.741,-5.560,2.185,-1.381821,-0.000802,0.723826,99720.02,-8,-143,+182
158809,10.917,-4.964,2.105,-1.405766,-0.055609,0.700413,99725.67,-7,-146,+179
158819,10.765,-4.481,1.894,-1.383950,-0.111481,0.704670,99723.52,-7,-146,+179
158829,10.508,-4.417,1.539,-1.353088,-0.164692,0.743514,99719.22,-5,-149,+176
158838,10.350,-4.206,1.514,-1.340849,-0.246637,0.785551,99723.71,-3,-152,+172
158849,10.210,-3.551,2.148,-1.316372,-0.358380,0.853128,99720.82,-1,-156,+169
158859,10.120,-3.160,3.042,-1.250390,-0.475444,0.960083,99721.71,-1,-156,+169
158868,10.468,-2.711,3.516,-1.109381,-0.609004,1.094174,99721.71,+0,-158,+167
158878,11.238,-3.290,3.453,-0.955069,-0.753205,1.234651,99722.66,+1,-161,+162
158888,12.070,-3.980,3.466,-0.917290,-0.884104,1.353844,99722.29,+3,-163,+160
158899,13.066,-4.104,4.096,-1.014134,-0.988930,1.466119,99722.29,+3,-163,+160
158909,13.972,-3.940,4.156,-1.179620,-1.058282,1.595599,99722.01,+5,-166,+158
158918,14.278,-3.287,3.759,-1.329675,-1.102269,1.713550,99722.01,+8,-170,+153
158928,14.410,-2.293,3.508,-1.478133,-1.166123,1.850302,99721.82,+12,-172,+148
158939,14.707,-1.398,3.752,-1.578170,-1.239022,1.990779,99719.35,+12,-172,+148
158949,14.954,-0.885,4.425,-1.657454,-1.276269,2.132320,99719.35,+17,-176,+144
158959,15.471,-0.428,5.808,-1.806977,-1.254985,2.255770,99720.11,+21,-178,+139
158968,17.532,0.989,8.064,-2.043234,-1.205499,2.344100,99719.36,+28,-181,+133
158979,19.994,2.445,12.399,-2.171472,-1.192728,2.451054,99716.89,+28,-181,+133
158989,20.649,2.079,14.263,-2.011839,-1.318838,2.724559,99716.89,+34,-184,+126
158998,18.028,-3.418,9.017,-1.594665,-1.660985,3.024136,99716.89,+42,-185,+121
159008,16.207,-12.581,3.245,-1.397785,-1.977058,3.250283,99719.99,+49,-186,+118
159019,16.859,-14.923,6.156,-1.593069,-2.048893,3.243366,99720.66,+49,-186,+118
159029,18.398,-10.273,9.972,-1.616482,-1.911076,3.075219,99717.15,+58,-189,+114
159039,17.086,-3.885,10.697,-1.391932,-1.709939,2.567054,99716.63,+64,-189,+111
159048,16.876,1.182,10.776,-1.109381,-1.415150,2.042926,99716.63,+69,-189,+108
159058,15.381,3.488,6.812,-0.710299,-1.320434,1.657678,99719.73,+69,-189,+108
159069,8.666,0.591,1.518,-0.700189,-1.244875,1.755587,99718.95,+74,-188,+107
159079,3.469,-3.684,-0.014,-0.527785,-0.954343,1.693862,99719.69,+78,-189,+106
159089,-1.467,-6.092,3.350,-0.328776,-0.788325,1.439513,99719.69,+82,-187,+106
159098,1.039,-4.292,7.663,0.637003,-0.604215,0.711055,99719.39,+82,-187,+106
159109,3.699,-2.546,6.880,1.399516,-0.481297,-0.316449,99719.39,+83,-186,+109
159119,4.714,-1.701,5.335,1.205296,-0.149793,-0.903366,99716.23,+81,-185,+114
159129,4.656,1.497,2.644,0.421499,0.034317,-1.197623,99717.50,+77,-184,+116
159138,2.650,4.734,-0.602,-0.446905,-0.112013,-1.627567,99716.08,+72,-184,+116
159144,0.919,6.132,-1.411,-0.756060,-0.028472,-1.920228,99716.08,+72,-186,+114
159154,-0.012,5.812,-1.185,-0.673051,0.295051,-2.143714,99715.80,+65,-188,+111
159164,0.564,3.363,0.812,-0.200538,0.842592,-2.406044,99718.58,+65,-188,+111
159173,1.600,0.666,2.027,0.314544,1.298078,-2.669970,99714.95,+60,-188,+113
159183,1.908,-0.762,3.161,0.595498,1.585417,-2.834924,99715.17,+54,-188,+114
159194,1.945,-1.383,3.625,0.849315,1.817949,-3.055218,99715.17,+46,-187,+117
159204,2.690,-1.042,3.859,1.018526,2.035582,-3.386722,99716.53,+46,-187,+117
159214,4.010,0.469,3.310,1.010544,2.178719,-3.697474,99717.36,+39,-187,+119
159223,5.295,1.861,2.632,1.070140,2.308554,-3.912446,99715.33,+31,-185,+122
159234,6.423,2.063,1.985,1.365993,2.443178,-4.049731,99714.17,+23,-183,+125
159244,6.901,0.832,2.239,1.894910,2.608664,-4.200318,99714.17,+23,-183,+125
159254,7.838,-0.770,3.193,2.326451,2.799159,-4.381236,99717.84,+14,-181,+131
159263,8.942,-1.734,3.601,2.505240,2.947086,-4.580777,99714.75,+7,-176,+139
159273,10.017,-2.258,3.088,2.589846,3.026902,-4.754244,99715.17,-1,-172,+146
159284,10.914,-2.838,2.908,2.762781,3.105122,-4.865987,99715.55,-1,-172,+146
159294,11.976,-3.719,3.531,2.986799,3.197177,-4.892061,99715.55,-10,-165,+155
159304,13.510,-5.621,4.620,3.228909,3.214205,-4.898446,99717.51,-18,-158,+165
159313,15.156,-8.240,5.933,3.377900,3.084902,-4.913345,99716.24,-25,-149,+176
159324,16.623,-10.758,6.218,3.388542,2.934847,-4.970281,99717.09,-25,-149,+176
159334,17.584,-13.536,5.496,3.353423,2.830022,-5.061272,99715.84,-32,-139,+186
159344,18.244,-14.945,4.192,3.276799,2.768829,-5.116611,99715.84,-40,-129,+196
159353,18.989,-17.742,2.140,3.064488,2.743820,-4.955914,99721.24,-45,-116,+206
159364,19.119,-21.701,-0.736,2.603148,2.671453,-4.685602,99719.93,-45,-116,+206
159374,17.518,-23.854,-2.564,1.903424,2.504903,-4.336538,99721.35,-49,-104,+214
159384,15.075,-23.584,-1.999,1.247865,2.280885,-3.752814,99720.77,-51,-96,+219
159393,12.497,-24.211,-2.319,0.870067,1.955765,-2.921126,99720.77,-52,-89,+223
159404,9.697,-29.167,-4.352,0.703517,1.531674,-2.052723,99723.68,-52,-89,+223
159414,7.995,-32.704,-7.973,0.108086,1.085234,-1.185384,99722.10,-52,-85,+227
159424,7.970,-31.535,-10.085,-0.756060,0.740959,-0.280797,99724.63,-52,-86,+228
159434,9.216,-27.949,-9.651,-1.342445,0.266849,0.762138,99724.21,-49,-90,+226
159443,11.577,-22.512,-7.784,-1.381289,-0.394031,1.689605,99724.21,-49,-98,+224
159454,22.368,-1.936,-0.934,-0.983803,-1.229444,2.125935,99726.77,-49,-98,+224
159464,40.658,39.652,10.427,0.055407,-1.528489,0.447661,99720.53,-51,-100,+222
159474,34.143,8.949,-5.270,-2.379527,-1.189003,2.448394,99724.25,-51,-108,+218
159483,9.492,-11.045,-3.175,-0.508629,-1.821150,4.199034,99721.22,-48,-112,+217
159494,5.536,-26.197,3.252,2.796304,-1.788691,4.057493,99721.22,-48,-112,+217
159504,13.492,-14.790,2.113,2.397222,-1.804122,4.133053,99724.60,-44,-108,+221
159514,6.431,-0.196,-4.328,1.550635,-1.541792,3.481751,99724.45,-42,-107,+222
159523,-1.370,-2.716,3.989,1.696966,-0.862288,3.234320,99723.20,-37,-105,+226
159534,1.965,-16.056,9.231,2.144470,-1.053315,2.952302,99719.68,-37,-105,+226
159544,8.365,-17.973,2.978,0.538031,-1.436434,2.255770,99719.68,-36,-104,+227
159554,7.673,-10.970,-4.795,-1.869766,-0.945297,1.408119,99725.98,-37,-110,+222
159564,9.198,-5.465,-0.932,-2.782866,-0.228013,1.100027,99722.46,-35,-119,+217
159574,8.784,-3.429,3.023,-2.886628,-0.068912,1.055330,99719.95,-35,-119,+217
159584,8.836,-2.791,2.244,-2.618977,0.106152,0.945716,99718.74,-33,-127,+213
159594,9.165,-1.001,0.785,-1.964482,0.250354,0.854725,99718.74,-31,-133,+208
159604,9.405,1.620,3.422,-1.227510,0.221620,0.909532,99723.84,-27,-137,+206
159614,8.917,-1.877,3.263,-0.063253,-0.023506,0.918401,99722.59,-27,-137,+206
159624,8.882,-3.702,2.857,0.343278,-0.147132,0.894101,99721.13,-25,-137,+207
159634,9.258,-4.418,2.413,0.207058,-0.136490,0.845679,99721.06,-24,-137,+207
159644,9.008,-6.002,3.395,-0.051015,-0.059866,0.730743,99721.06,-22,-139,+206
159653,7.752,-8.552,5.847,-0.553327,0.018354,0.502468,99722.56,-22,-139,+206
159664,6.938,-8.173,6.436,-1.204629,0.150849,0.226835,99722.94,-21,-141,+204
159674,7.649,-5.110,5.413,-1.695234,0.329106,0.091147,99720.47,-20,-145,+201
159684,8.414,-2.135,4.078,-1.833583,0.391895,0.087423,99722.56,-19,-150,+197
159693,9.499,0.222,2.704,-1.527087,0.297711,0.162450,99722.56,-19,-150,+197
159704,10.746,-1.037,2.122,-0.924207,0.129033,0.282175,99721.48,-17,-154,+193
159714,10.338,-4.103,2.437,-0.562372,-0.034857,0.366780,99720.81,-17,-155,+193
159724,9.251,-5.566,3.642,-0.720941,-0.066252,0.388065,99722.17,-16,-157,+191
159729,9.366,-4.812,4.424,-0.988060,-0.024215,0.392321,99719.86,-16,-157,+191
159738,8.933,-3.575,4.686,-1.154611,-0.024215,0.415202,99719.86,-14,-160,+188
159749,8.797,-2.906,4.752,-1.172702,-0.091793,0.464156,99719.86,-14,-163,+185
159759,8.541,-2.396,4.773,-1.107253,-0.214178,0.550358,99721.88,-14,-163,+185
159769,8.596,-2.641,4.737,-1.023179,-0.295059,0.672211,99722.86,-12,-166,+183
159779,9.013,-3.509,4.209,-0.954005,-0.339224,0.783422,99719.69,-10,-169,+180
159789,9.393,-4.302,2.850,-0.934849,-0.370618,0.856321,99719.69,-8,-172,+177
159799,9.719,-4.774,1.656,-1.001895,-0.394563,0.897294,99722.15,-8,-172,+177
159809,10.033,-4.983,0.975,-1.113106,-0.423297,0.895165,99722.15,-7,-175,+175
159819,10.307,-4.205,1.170,-1.196115,-0.470655,0.891440,99720.95,-5,-177,+170
159828,10.532,-3.356,1.524,-1.159400,-0.559517,0.921238,99722.52,-3,-180,+167
159839,10.765,-3.139,1.700,-1.043932,-0.653169,1.002651,99722.73,-3,-180,+167
159849,10.914,-3.411,1.769,-0.943895,-0.737242,1.100027,99722.73,-2,-181,+165
159859,10.749,-3.861,1.815,-0.918886,-0.817059,1.190486,99723.29,+0,-185,+162
159869,10.661,-3.822,1.821,-0.968372,-0.889425,1.279880,99720.46,+1,-187,+159
159879,11.061,-3.060,2.110,-1.020519,-0.991591,1.385238,99724.55,+1,-187,+159
159889,11.600,-2.990,2.701,-0.971565,-1.125150,1.503899,99722.63,+4,-190,+155
159899,12.203,-3.162,3.296,-0.889620,-1.260306,1.632669,99724.31,+7,-191,+152
159909,12.978,-3.293,3.859,-0.846519,-1.377370,1.761440,99720.11,+10,-193,+149
159920,13.562,-3.794,3.982,-0.878978,-1.455058,1.877972,99720.80,+10,-193,+149
159929,13.978,-3.768,3.844,-1.021583,-1.501884,1.999825,99720.80,+14,-195,+147
159939,14.385,-3.382,3.458,-1.224317,-1.536471,2.106779,99721.89,+17,-198,+142
159949,14.948,-2.566,3.837,-1.440354,-1.568930,2.205220,99721.89,+23,-201,+139
159960,15.691,-2.175,5.399,-1.659051,-1.553499,2.293018,99720.63,+23,-201,+139
159965,16.659,-1.764,6.902,-1.837307,-1.508801,2.355806,99722.05,+29,-203,+132
159974,18.022,-0.857,8.520,-2.114537,-1.436966,2.407953,99720.38,+35,-206,+126
159984,20.262,0.561,11.050,-2.530114,-1.376306,2.469146,99715.82,+35,-206,+126
159994,21.144,2.473,15.145,-2.720610,-1.314581,2.577696,99715.82,+41,-209,+117
160004,20.413,1.760,14.169,-2.511491,-1.489645,2.819274,99717.60,+49,-212,+110
160014,18.534,-4.414,9.125,-2.112408,-1.820086,3.037971,99717.60,+58,-212,+104
160024,16.604,-12.830,4.991,-1.836243,-2.201608,3.249751,99717.85,+58,-212,+104
160034,17.540,-14.478,7.281,-1.798995,-2.272379,3.300301,99718.02,+67,-212,+99
160044,17.325,-9.545,10.066,-1.460574,-2.167553,3.014026,99718.02,+75,-212,+96
160054,14.124,-3.527,10.795,-1.112574,-1.852544,2.349421,99719.61,+81,-211,+94
160064,13.246,-0.154,9.164,-0.750207,-1.481132,1.750265,99718.88,+81,-211,+94
160074,9.323,-0.614,5.425,-0.693803,-1.267756,1.569880,99716.94,+85,-211,+93
160084,3.753,-3.519,4.187,-0.394758,-1.030967,1.549128,99716.84,+90,-209,+93
160094,-1.043,-6.490,3.571,-0.247896,-0.802692,1.225073,99716.84,+94,-209,+93
160104,-0.200,-5.527,6.728,0.191095,-0.570160,0.630707,99720.00,+94,-209,+93
160114,2.083,-3.681,6.585,0.555590,-0.385518,-0.196192,99718.84,+95,-207,+95
160124,2.560,-1.569,4.306,0.139480,-0.223756,-0.973604,99716.48,+91,-207,+96
160134,1.660,1.431,1.461,-0.581528,-0.156710,-1.521145,99716.80,+86,-210,+95
160144,0.202,4.213,0.060,-1.062556,0.056134,-1.728668,99716.80,+86,-210,+95
160154,-0.806,5.822,-0.227,-1.055638,0.419565,-1.851586,99720.54,+80,-211,+91
160164,-0.288,5.653,1.220,-0.534171,0.898995,-2.027182,99717.87,+75,-212,+89
160174,1.125,4.016,2.733,0.240049,1.306059,-2.206503,99717.66,+69,-212,+90
160184,1.922,1.764,3.186,0.853040,1.552426,-2.354961,99714.46,+69,-212,+90
160194,2.174,-0.384,3.240,1.228177,1.763674,-2.473089,99714.46,+63,-212,+93
160200,2.569,-1.438,3.512,1.400048,1.917986,-2.607713,99715.95,+56,-213,+98
160209,3.230,-1.478,3.342,1.469223,2.042499,-2.828007,99715.95,+56,-213,+98
160220,4.167,-0.173,2.641,1.451131,2.223949,-3.166961,99714.95,+48,-212,+102
160229,5.411,1.395,2.399,1.528287,2.435728,-3.471860,99715.32,+39,-211,+106
160239,6.956,1.946,2.015,1.890654,2.604939,-3.652245,99712.38,+30,-209,+113
160249,7.610,0.686,2.020,2.416378,2.751269,-3.761859,99719.05,+30,-209,+113
160260,8.151,-1.101,2.103,2.833552,2.905581,-3.873602,99719.63,+21,-205,+122
160269,9.044,-2.114,2.200,3.071937,3.030095,-4.015144,99716.34,+12,-199,+131
160279,10.310,-2.014,2.359,3.236891,3.042333,-4.127951,99716.34,+4,-193,+142
160289,11.298,-2.517,2.171,3.470487,2.930058,-4.231712,99715.65,+4,-193,+142
160300,11.876,-4.435,2.615,3.642359,2.817783,-4.356226,99715.65,-2,-185,+153
160309,12.706,-6.235,3.271,3.654065,2.757655,-4.552042,99716.45,-11,-175,+164
160319,13.903,-6.685,3.829,3.499221,2.731581,-4.779253,99714.58,-18,-165,+176
160329,15.155,-6.722,4.585,3.305533,2.746480,-4.955914,99716.72,-18,-165,+176
160339,16.499,-7.611,5.665,3.209221,2.799691,-5.038391,99716.30,-24,-153,+185
160350,18.198,-10.356,6.368,3.217203,2.845453,-5.030941,99716.30,-30,-143,+194
160359,19.170,-14.459,6.118,3.159203,2.859288,-4.983583,99717.77,-34,-131,+203
160369,19.192,-17.857,4.235,2.862818,2.860352,-4.877694,99717.98,-34,-131,+203
160379,19.109,-20.813,0.957,2.455754,2.843857,-4.650483,99719.24,-37,-120,+209
160390,18.439,-23.102,-2.908,2.015167,2.749673,-4.292373,99719.24,-39,-110,+215
160399,16.687,-23.116,-4.958,1.370782,2.524591,-3.777823,99719.24,-39,-104,+219
160409,13.267,-24.914,-5.629,0.835480,2.074426,-3.045108,99721.15,-39,-104,+219
160419,9.557,-29.533,-5.143,0.513554,1.529013,-2.166594,99722.41,-40,-100,+221
160430,6.778,-32.439,-8.139,-0.020153,0.902188,-1.148669,99723.55,-40,-100,+223
160435,6.320,-31.962,-10.530,-0.510226,0.501509,-0.304742,99721.93,-40,-100,+223
160444,7.495,-29.684,-10.202,-0.988060,0.172666,0.554615,99721.93,-39,-102,+221
160454,11.837,-23.600,-7.375,-1.288702,-0.253022,1.479954,99724.47,-39,-108,+218
160464,12.488,-19.257,-7.617,-1.056702,-0.896875,2.324944,99722.63,-36,-114,+216
160475,17.377,-2.069,-0.162,-0.791712,-1.583297,2.680926,99722.22,-36,-114,+216
160484,33.696,42.917,16.977,0.093719,-1.580104,0.808963,99716.86,-37,-118,+213
160494,36.905,22.514,-9.162,-2.042702,-0.721811,0.975514,99716.86,-39,-122,+208
160504,14.604,-8.487,-6.724,-2.373674,-1.660453,3.804209,99726.85,-35,-132,+205
160515,2.851,-23.214,9.760,2.625497,-1.712067,3.971824,99720.60,-35,-132,+205
160524,10.301,-25.576,5.246,3.347038,-1.248067,3.979273,99721.18,-28,-125,+213
160534,11.501,-4.978,-4.161,1.754966,-1.862654,3.682356,99722.55,-26,-124,+214
160544,4.003,-1.563,0.777,1.767204,-1.171444,3.294448,99722.55,-21,-122,+217
160555,1.087,-11.834,10.329,1.838507,-0.851646,2.948045,99722.86,-21,-122,+217
160565,4.913,-17.672,4.450,0.502911,-1.503480,2.454779,99720.56,-18,-120,+219
160574,6.999,-12.824,-4.672,-1.566463,-1.071939,1.589568,99722.86,-17,-125,+214
160584,10.082,-5.559,-0.040,-2.497656,-0.281756,1.213367,99725.70,-15,-133,+209
160594,9.246,-3.807,3.218,-2.637069,-0.268985,1.074486,99725.70,-15,-133,+209
160605,9.073,-2.653,1.808,-2.272573,-0.110417,0.891972,99725.06,-14,-141,+204
160614,9.906,0.100,1.108,-1.983638,0.089657,0.880266,99722.92,-12,-147,+199
160624,9.123,1.091,2.636,-1.293491,0.035913,0.986156,99721.97,-8,-150,+197
160634,8.524,-1.082,2.121,-0.074428,-0.152453,0.990945,99720.98,-8,-150,+197
160645,8.797,-4.327,1.691,0.387976,-0.228545,0.963807,99720.98,-7,-151,+198
160654,9.015,-5.623,2.038,0.307627,-0.175866,0.848339,99723.23,-5,-150,+198
160664,8.433,-6.666,3.421,0.091590,-0.087536,0.682321,99724.96,-3,-151,+199
160674,7.097,-9.050,5.389,-0.399015,-0.005591,0.437019,99722.40,-3,-151,+199
160685,6.702,-7.331,5.985,-1.003491,0.117326,0.164578,99723.71,-3,-152,+196
160695,7.465,-4.620,5.581,-1.372243,0.235455,0.011863,99723.71,-3,-155,+194
160704,8.286,-3.375,4.322,-1.495693,0.275895,-0.042944,99723.73,-2,-159,+190
160714,9.047,-1.159,2.493,-1.397253,0.261528,-0.012614,99725.52,-2,-159,+190
160724,10.096,-0.336,1.436,-0.981143,0.170005,0.102854,99720.48,-1,-162,+187
160735,10.052,-2.504,1.392,-0.502244,0.015693,0.224175,99721.06,-1,-164,+185
160744,8.855,-4.612,2.736,-0.349528,-0.068380,0.274725,99721.06,+0,-165,+185
160754,8.473,-5.468,4.438,-0.566629,-0.038050,0.255037,99721.70,+0,-165,+185
160764,8.524,-4.480,5.275,-0.828959,0.016225,0.232688,99722.34,+0,-165,+183
160775,8.333,-4.542,4.905,-0.971033,0.023143,0.211936,99720.02,+0,-168,+181
160785,8.248,-3.795,4.493,-1.141308,0.017290,0.241202,99720.34,+1,-172,+177
160794,8.266,-3.396,4.217,-1.241344,-0.008784,0.300799,99720.34,+1,-172,+177
160804,8.597,-3.416,3.711,-1.304665,-0.052417,0.380083,99722.07,+1,-174,+175
160815,8.636,-2.907,3.405,-1.359473,-0.112545,0.481184,99723.90,+3,-177,+171
160825,8.747,-2.512,2.956,-1.349895,-0.190765,0.596652,99722.80,+4,-180,+167
160834,9.137,-2.722,2.474,-1.286574,-0.270582,0.716908,99725.52,+6,-180,+167
160844,9.823,-3.078,1.983,-1.206225,-0.344545,0.822798,99725.52,+6,-183,+163
160855,10.381,-3.381,1.892,-1.124280,-0.431811,0.914321,99722.43,+7,-186,+160
160865,10.618,-3.521,1.936,-1.018923,-0.532380,0.993073,99721.76,+10,-188,+158
160874,10.632,-4.016,2.061,-0.948684,-0.603683,1.063844,99722.23,+11,-191,+154
160884,10.828,-4.703,1.904,-0.977950,-0.664875,1.123440,99723.16,+11,-191,+154
160894,11.298,-4.742,1.967,-1.117363,-0.737242,1.164945,99723.16,+15,-193,+152
160905,11.683,-4.114,2.307,-1.253583,-0.841536,1.204853,99724.87,+17,-195,+147
160914,11.917,-3.253,2.748,-1.279124,-0.977756,1.294247,99723.30,+18,-199,+144
160924,11.919,-2.901,3.312,-1.191858,-1.134728,1.401734,99721.84,+18,-199,+144
160934,12.365,-3.028,4.127,-1.087565,-1.298618,1.533165,99722.88,+21,-200,+140
160945,12.978,-3.414,4.640,-1.052446,-1.429517,1.683220,99722.88,+24,-202,+137
160955,13.581,-3.462,4.707,-1.106189,-1.525297,1.833275,99725.80,+28,-205,+132
160964,14.420,-3.405,4.028,-1.203032,-1.597131,1.995568,99720.83,+28,-205,+132
160974,15.518,-4.004,3.461,-1.318500,-1.663113,2.112632,99721.34,+32,-207,+129
160985,16.660,-4.191,3.573,-1.566996,-1.691847,2.181807,99719.72,+37,-209,+124
160995,18.488,-3.586,4.875,-1.933087,-1.648746,2.218522,99719.72,+42,-212,+117
161004,20.644,-1.211,7.184,-2.436995,-1.558288,2.257898,99723.28,+42,-212,+117
161014,22.486,2.346,9.053,-2.835545,-1.566801,2.339843,99721.19,+48,-214,+110
161025,23.312,5.699,12.441,-2.822775,-1.614691,2.454779,99717.47,+55,-218,+101
161035,22.350,5.426,12.783,-2.366757,-1.791352,2.737329,99717.89,+62,-220,+93
161044,18.246,0.050,9.972,-1.844225,-2.134562,3.099696,99717.89,+62,-220,+93
161054,14.580,-8.895,7.924,-1.225913,-2.434140,3.368411,99720.13,+70,-220,+88
161064,14.313,-16.816,8.247,-0.907180,-2.504379,3.520063,99717.93,+81,-220,+86
161075,16.140,-13.551,8.351,-0.708703,-2.583663,3.314668,99717.98,+90,-220,+86
161085,13.736,-6.805,10.273,-0.495859,-2.371351,2.777770,99716.24,+90,-220,+86
161094,10.703,-2.135,9.812,-0.339418,-1.862122,2.063678,99716.24,+96,-218,+86
161104,9.797,0.410,7.616,-0.257473,-1.445480,1.485807,99722.16,+99,-218,+86
161115,5.365,-0.634,5.105,-0.189363,-1.360343,1.367146,99720.85,+103,-217,+86
161125,0.003,-3.657,2.720,0.209187,-1.206563,1.166541,99719.49,+103,-217,+86
161134,-4.304,-6.598,4.025,0.190031,-0.952214,0.763202,99716.09,+103,-218,+88
161144,-2.746,-6.505,5.642,0.299113,-0.621242,0.164578,99716.09,+104,-218,+90
161155,0.437,-5.139,4.511,0.224618,-0.414251,-0.556962,99716.95,+99,-218,+91
161165,1.455,-2.370,3.400,-0.303767,-0.218967,-1.183788,99720.58,+99,-218,+91
161175,1.398,1.761,1.453,-0.958794,-0.140215,-1.732393,99718.63,+94,-221,+89
161184,0.670,4.870,0.038,-1.477601,-0.048692,-2.054319,99717.53,+85,-224,+85
161195,0.265,6.391,-0.350,-1.525491,0.138611,-2.171383,99717.53,+76,-226,+80
161205,0.428,6.445,0.494,-0.962519,0.452555,-2.285787,99720.25,+76,-226,+80
161215,1.305,4.824,2.123,0.071902,0.819179,-2.404979,99719.19,+67,-228,+78
161224,1.914,2.319,3.462,1.095150,1.110243,-2.516723,99716.73,+58,-229,+81
161234,2.405,-0.153,4.553,1.739534,1.345968,-2.624741,99716.36,+47,-228,+87
161245,3.032,-1.900,4.917,1.951314,1.547105,-2.811511,99716.36,+47,-228,+87
161255,3.380,-1.971,4.215,1.847021,1.774671,-3.100447,99717.73,+38,-226,+95
161264,3.912,-1.079,4.077,1.795406,2.016426,-3.376612,99715.84,+26,-224,+101
161274,5.636,-0.239,4.107,2.002929,2.263325,-3.620318,99717.05,+14,-219,+108
161285,6.893,-0.936,3.773,2.375937,2.457545,-3.751217,99714.69,+14,-219,+108
161295,7.741,-2.668,3.812,2.636139,2.686884,-3.858171,99714.69,+3,-214,+118
161305,8.658,-3.205,3.527,2.762781,2.881104,-4.008226,99718.41,-7,-209,+129
161314,9.848,-2.436,3.196,2.900598,2.983801,-4.076336,99718.14,-17,-201,+139
161325,10.911,-2.202,2.304,3.210286,2.946554,-4.084850,99714.89,-25,-190,+150
161335,11.464,-3.475,2.433,3.522634,2.888554,-4.119969,99716.20,-25,-190,+150
161345,12.482,-5.341,3.615,3.632249,2.792242,-4.234373,99716.20,-33,-178,+163
161354,13.629,-6.851,4.479,3.550304,2.652829,-4.473290,99719.67,-40,-165,+174
161364,14.207,-7.702,4.748,3.308194,2.590040,-4.748923,99718.05,-47,-151,+185
161375,14.545,-7.924,5.154,2.939442,2.663471,-4.919731,99716.05,-47,-151,+185
161385,15.215,-8.603,6.368,2.602084,2.860884,-4.972409,99713.91,-52,-137,+194
161394,16.286,-10.445,7.976,2.393497,3.108847,-4.926648,99713.91,-55,-125,+202
161404,18.217,-13.300,7.415,2.249828,3.343508,-4.768079,99719.45,-55,-114,+210
161415,19.091,-17.385,3.087,1.849149,3.339251,-4.659529,99718.09,-55,-114,+210
161425,18.867,-18.564,-1.250,1.345773,3.217930,-4.593015,99719.09,-55,-104,+218
161435,18.974,-18.563,-4.915,0.905718,3.088627,-4.267896,99719.56,-52,-94,+222
161444,16.985,-18.502,-6.203,0.536434,2.750737,-3.706520,99719.56,-51,-89,+227
161455,13.517,-22.341,-4.679,0.385315,2.225545,-3.057878,99723.24,-51,-89,+227
161465,10.456,-27.461,-3.302,0.141609,1.653527,-2.285255,99721.51,-48,-85,+230
161475,7.405,-29.550,-6.144,-0.298978,1.030427,-1.352999,99724.51,-47,-84,+231
161484,7.283,-27.232,-9.272,-0.897602,0.577069,-0.247275,99724.66,-45,-88,+231
161495,10.871,-23.333,-7.600,-1.367454,0.249289,0.805771,99724.66,-45,-88,+231
161505,12.500,-19.108,-7.076,-1.271675,-0.345609,1.681623,99725.81,-42,-93,+229
161515,13.898,-11.950,-6.253,-0.942831,-1.161334,2.427641,99725.77,-40,-98,+226
161524,22.320,15.225,3.904,-0.115400,-1.906287,2.320687,99722.98,-43,-100,+224
161534,37.616,51.647,10.711,0.949351,-1.567333,0.069331,99719.78,-43,-100,+224
161545,33.156,6.679,-18.283,-1.565931,-1.494434,2.598981,99719.78,-44,-100,+222
161555,10.869,-20.371,-0.281,1.224452,-2.028672,4.374630,99727.74,-41,-106,+221
161565,6.659,-24.602,7.359,4.408597,-1.865847,3.893604,99722.91,-37,-97,+227
161574,10.230,-9.940,1.564,2.916561,-1.593939,3.570081,99720.98,-37,-97,+227
161585,7.786,4.152,3.151,2.552066,-1.294361,3.732374,99722.13,-35,-94,+229
161595,-2.014,1.890,16.007,3.899900,-1.138453,3.587108,99722.13,-31,-87,+235
161605,-2.648,-13.338,14.440,4.173050,-1.553144,2.799941,99720.24,-31,-77,+239
161614,6.544,-24.237,3.670,1.989626,-1.912140,2.380816,99720.51,-31,-77,+239
161625,10.234,-16.536,-2.889,-1.379693,-1.451866,1.792302,99720.71,-33,-76,+239
161635,11.250,-6.953,-0.730,-3.325619,-0.958068,1.357036,99721.76,-33,-88,+232
161645,8.807,-4.459,-0.611,-3.853471,-0.827701,1.255403,99721.76,-33,-100,+226
161655,7.364,-3.201,-1.078,-3.359674,-0.408930,1.104816,99724.28,-33,-100,+226
161665,9.392,-0.556,-2.062,-2.545546,-0.075298,0.974449,99723.66,-33,-110,+220
161675,10.697,3.151,0.114,-1.428115,-0.127976,1.011697,99721.77,-30,-117,+217
161685,9.131,0.033,1.239,-0.015364,-0.347206,1.176651,99720.92,-30,-118,+217
161695,8.828,-3.711,1.577,0.830159,-0.413187,1.192082,99720.92,-30,-118,+217
161704,8.521,-4.596,1.849,0.939773,-0.359976,1.108541,99720.98,-28,-117,+219
161715,8.352,-4.362,2.513,0.785462,-0.266857,0.993605,99723.55,-26,-115,+219
161725,8.000,-6.082,2.784,0.491205,-0.158307,0.852064,99721.66,-24,-114,+221
161735,6.590,-8.920,5.138,-0.166483,0.001326,0.564725,99721.93,-24,-114,+221
161744,6.592,-6.873,6.069,-0.991253,0.148721,0.178413,99721.93,-24,-116,+220
161755,7.600,-4.158,5.310,-1.418005,0.254611,-0.007293,99722.21,-23,-120,+217
161765,8.437,-3.102,3.403,-1.501546,0.264721,0.011331,99721.68,-22,-125,+215
161775,9.323,-1.066,1.283,-1.332867,0.255675,0.097533,99721.32,-22,-125,+215
161785,11.026,0.671,0.667,-0.796501,0.166280,0.272065,99722.30,-21,-127,+213
161795,10.810,-1.474,0.809,-0.065914,-0.010912,0.459899,99722.30,-21,-128,+211
161805,8.630,-4.198,2.128,0.183645,-0.061463,0.554083,99723.44,-19,-129,+212
161815,8.124,-5.424,4.018,-0.057932,0.012501,0.496083,99722.19,-18,-129,+212
161825,8.007,-5.173,5.423,-0.399015,0.051345,0.398175,99719.98,-18,-129,+212
161835,7.729,-5.281,5.239,-0.645382,0.040170,0.308780,99719.61,-17,-131,+210
161841,7.867,-4.587,4.711,-0.822042,0.035381,0.276321,99719.61,-17,-131,+210
161850,8.139,-3.790,4.117,-0.911436,0.013565,0.310376,99719.61,-17,-134,+209
161860,8.965,-2.839,3.083,-0.924739,-0.032197,0.384872,99719.55,-15,-136,+207
161870,9.518,-2.161,2.068,-0.850776,-0.079022,0.503532,99721.96,-14,-138,+205
161880,9.471,-2.308,1.703,-0.782134,-0.110417,0.648266,99724.01,-14,-138,+205
161890,9.472,-2.855,1.910,-0.739033,-0.122123,0.776505,99717.84,-13,-141,+203
161900,9.502,-3.762,2.362,-0.774684,-0.112545,0.878670,99722.52,-10,-144,+202
161910,9.475,-4.673,2.850,-0.875253,-0.107756,0.922303,99723.09,-8,-147,+199
161920,9.323,-5.114,3.574,-0.996042,-0.135426,0.924963,99723.09,-8,-147,+199
161930,9.270,-4.893,3.984,-1.097675,-0.201408,0.934541,99722.14,-6,-150,+198
161940,9.129,-4.814,3.824,-1.199840,-0.249297,0.969660,99722.25,-5,-153,+195
161950,9.769,-4.873,3.279,-1.324886,-0.311022,0.994138,99722.25,-3,-158,+191
161960,10.545,-3.998,2.920,-1.463766,-0.424362,1.044156,99722.09,-3,-158,+191
161970,11.237,-3.575,2.472,-1.539858,-0.544618,1.142596,99722.88,-1,-162,+187
161980,11.603,-3.635,2.458,-1.510592,-0.681903,1.259128,99721.09,+0,-166,+183
161990,11.893,-3.769,2.941,-1.472812,-0.809609,1.392688,99721.41,+2,-170,+178
162000,12.497,-4.758,3.248,-1.485051,-0.892618,1.515605,99723.67,+5,-170,+178
162011,13.513,-5.067,3.738,-1.601583,-0.958600,1.627880,99721.20,+5,-174,+175
162020,14.018,-4.505,3.440,-1.735142,-1.054912,1.757715,99721.63,+8,-179,+169
162030,14.274,-4.989,2.616,-1.803784,-1.128875,1.885953,99720.20,+12,-182,+163
162040,15.218,-6.014,2.779,-1.911803,-1.182618,1.959917,99720.20,+15,-182,+317
162050,17.006,-5.637,4.346,-2.226280,-1.201774,2.025898,99720.20,+15,-188,+158
162060,18.223,-4.036,5.938,-2.666867,-1.167187,2.144559,99722.56,+21,-193,+150
162070,19.994,-2.228,6.702,-3.009013,-1.176765,2.283972,99719.20,+27,-199,+140
162075,22.113,-0.727,8.544,-3.143105,-1.210820,2.367513,99719.83,+27,-199,+140
162085,23.951,0.306,8.845,-3.185674,-1.270416,2.481916,99717.84,+33,-203,+132
162095,23.486,1.650,9.165,-3.135655,-1.425792,2.622393,99717.84,+41,-208,+122
162105,20.821,2.596,10.445,-2.846188,-1.579572,2.745843,99720.44,+41,-208,+122
162115,17.473,1.559,10.359,-2.173069,-1.842966,2.796393,99719.75,+49,-212,+114
162125,12.517,-4.446,8.031,-1.392464,-2.163296,2.733072,99719.97,+56,-213,+110
162135,10.863,-10.754,3.144,-0.975822,-2.220764,2.812357,99721.22,+65,-214,+108
162145,10.564,-10.345,2.285,-0.842262,-2.132434,2.603237,99721.22,+65,-214,+108
162155,9.067,-6.873,2.669,-0.919418,-1.970140,2.122210,99721.82,+70,-214,+105
162165,7.863,-3.347,3.671,-0.741161,-1.684930,1.607128,99719.09,+76,-214,+105
162176,5.189,-1.668,2.511,-0.293125,-1.556691,1.073422,99719.62,+78,-213,+104
162185,0.186,-3.378,0.551,0.157040,-1.522636,0.686046,99720.13,+78,-213,+104
162195,-4.802,-5.837,2.245,0.458746,-1.309260,0.438083,99720.13,+79,-214,+106
162205,-6.036,-4.085,3.875,0.649774,-0.848453,0.005478,99720.98,+78,-213,+109
162215,-4.489,-2.357,4.468,0.679572,-0.433939,-0.488852,99716.80,+76,-212,+111
162225,-0.984,-0.724,4.960,0.536434,0.117858,-0.788962,99718.31,+76,-212,+111
162235,1.238,2.669,2.775,0.143737,0.247161,-1.205072,99717.89,+74,-212,+114
162245,0.531,5.356,0.351,-0.196813,-0.018362,-1.767512,99717.89,+68,-213,+113
162255,-0.857,4.293,-1.219,-0.243107,0.026868,-2.028246,99721.22,+61,-214,+113
162265,-1.109,2.074,-1.543,-0.165419,0.250886,-2.118705,99718.66,+53,-214,+113
162275,-0.259,-0.171,-2.302,0.105425,0.547803,-2.330484,99718.30,+53,-215,+114
162285,1.302,-1.095,-1.607,0.522599,0.884096,-2.561420,99716.25,+45,-216,+115
162295,2.572,-1.487,-1.316,0.830159,1.134720,-2.729567,99716.25,+37,-214,+118
162306,3.592,-2.088,-1.599,1.033425,1.336922,-2.847163,99716.33,+28,-212,+122
162311,4.271,-1.956,-2.086,1.251058,1.449729,-2.940814,99720.78,+28,-212,+122
162320,5.202,-1.769,-2.132,1.543186,1.517307,-3.044043,99720.78,+20,-209,+128
162330,6.526,-2.249,-1.898,1.918855,1.516775,-3.155254,99718.16,+20,-209,+128
162340,7.407,-3.351,-2.000,2.118397,1.386940,-3.247309,99714.97,+11,-205,+136
162351,8.262,-5.226,-2.403,2.304635,1.203894,-3.239328,99714.97,+1,-199,+144
162360,8.330,-7.084,-2.048,2.486616,1.030959,-3.215383,99719.13,-7,-193,+153
162370,8.235,-9.234,-1.098,2.428617,0.911234,-3.190373,99718.99,-7,-193,+153
162380,8.321,-11.305,-0.908,2.269516,0.827693,-3.155786,99716.38,-14,-185,+160
162391,8.306,-11.981,-0.670,2.242910,0.827161,-3.127584,99716.38,-21,-178,+168
162400,8.650,-11.963,0.063,2.331773,0.872922,-3.026484,99716.38,-28,-169,+175
162410,8.840,-11.840,0.300,2.369020,0.878243,-2.904099,99721.93,-28,-169,+175
162420,8.802,-11.850,-0.001,2.283883,0.860151,-2.771603,99718.21,-33,-160,+182
162430,8.796,-12.055,-0.300,2.151387,0.892610,-2.622080,99721.04,-39,-152,+189
162441,8.757,-11.953,-0.227,2.021553,0.929858,-2.477346,99717.63,-42,-143,+195
162450,8.865,-11.668,-0.201,1.912470,0.940500,-2.356558,99717.63,-42,-143,+195
162460,9.146,-11.507,-0.225,1.797534,0.950610,-2.276209,99720.59,-44,-136,+202
162470,9.186,-10.892,0.045,1.635241,0.954335,-2.210759,99721.94,-46,-127,+205
162481,9.082,-9.989,0.465,1.406966,0.958592,-2.130943,99717.14,-47,-121,+209
162490,9.028,-9.074,0.809,1.149425,0.974023,-2.038356,99717.14,-50,-121,+209
162500,9.108,-8.129,0.967,0.921682,0.989986,-1.955347,99720.95,-50,-115,+213
162510,9.288,-7.399,0.949,0.743957,1.009674,-1.884044,99720.95,-49,-110,+217
162521,9.499,-6.645,0.933,0.627957,1.032555,-1.817531,99724.15,-50,-106,+219
162530,9.788,-5.689,0.795,0.568893,1.036280,-1.757402,99723.57,-51,-102,+221
162540,9.972,-5.055,0.810,0.581664,1.008078,-1.681842,99718.91,-51,-102,+221
162550,10.283,-4.541,0.932,0.673186,0.958060,-1.567439,99718.91,-51,-98,+224
162561,10.247,-3.991,0.927,0.815260,0.896335,-1.446650,99722.82,-50,-92,+227
162571,10.124,-3.823,1.207,0.998838,0.860684,-1.314687,99720.73,-49,-87,+231
162580,9.978,-3.920,1.546,1.230305,0.810133,-1.172614,99717.54,-49,-87,+231
162590,10.103,-4.832,1.289,1.496360,0.743087,-1.023091,99721.97,-49,-81,+234
162600,10.182,-6.423,0.718,1.653333,0.654757,-0.837916,99721.50,-47,-75,+237
162611,10.483,-6.461,0.160,1.648544,0.569619,-0.716595,99720.55,-46,-67,+240
162620,10.573,-4.687,-0.033,1.516580,0.477032,-0.682540,99720.55,-46,-67,+240
162630,10.553,-2.438,0.923,1.445810,0.335491,-0.664981,99721.39,-45,-61,+243
162640,10.353,-0.905,1.630,1.526690,0.140739,-0.570797,99721.13,-45,-56,+246
162651,10.204,-1.227,2.264,1.673021,0.000794,-0.414357,99721.13,-46,-48,+248
162661,10.075,-2.656,2.059,1.710091,-0.091261,-0.256498,99723.39,-46,-48,+248
162670,9.687,-3.001,1.716,1.657590,-0.151921,-0.145109,99723.39,-46,-42,+250
162680,9.779,-3.769,2.073,1.554892,-0.101903,-0.016871,99721.47,-46,-36,+252
162691,10.124,-4.825,2.016,1.436764,-0.097646,0.142230,99720.84,-44,-30,+253
162701,9.426,-7.141,2.410,1.378764,-0.156710,0.309844,99720.84,-44,-30,+253
162710,8.545,-9.665,2.252,1.471351,-0.281756,0.549294,99722.70,-44,-27,+256
162720,7.512,-11.631,1.538,1.593736,-0.407866,0.795661,99723.39,-45,-21,+256
162731,6.058,-14.912,1.631,1.559149,-0.477573,1.104284,99720.19,-45,-17,+257
162741,8.031,-16.723,1.856,1.269681,-0.415316,1.858816,99720.19,-45,-17,+257
162750,11.560,-4.365,-2.528,0.770030,-0.854838,1.469311,99720.19,-46,-14,+257
162760,9.577,-3.727,-3.582,-0.372409,-0.787793,1.361825,99723.37,-47,-17,+256
162770,9.666,-1.596,2.641,-1.045528,-0.503646,1.187825,99722.41,-48,-23,+254
162781,10.507,1.873,5.118,-1.221124,-0.227481,0.828651,99721.84,-48,-23,+254
162790,10.300,3.403,5.500,-1.017858,-0.030068,0.713716,99721.59,-47,-27,+253
162800,13.408,3.702,2.177,-0.084006,-0.094986,0.766927,99721.59,-47,-29,+253
162810,14.685,3.401,-1.353,0.907847,-0.500453,0.922835,99723.25,-48,-27,+253
162821,13.234,-1.383,-1.288,1.297883,-0.685627,1.086192,99722.44,-48,-27,+253
162831,11.430,-5.770,0.281,1.371847,-0.616985,1.029257,99718.91,-49,-23,+253
162840,10.134,-5.607,2.197,0.952544,-0.395628,0.919110,99718.91,-50,-20,+254
162850,9.197,-2.639,3.321,0.310288,-0.246637,0.862174,99721.59,-49,-21,+254
162861,8.460,-1.623,3.962,-0.019088,-0.230674,0.781826,99721.59,-49,-21,+254
162871,7.638,-2.862,3.618,-0.121786,-0.242380,0.711055,99723.17,-49,-22,+254
162880,7.210,-3.171,3.756,-0.210116,-0.182252,0.633899,99720.55,-49,-25,+254
162890,6.956,-2.357,4.371,-0.318666,-0.059866,0.530670,99718.19,-49,-25,+254
162895,7.565,-2.279,4.129,-0.348464,0.057730,0.450853,99718.19,-49,-25,+254
162906,8.645,-2.934,2.037,-0.319730,0.039638,0.400303,99722.73,-48,-27,+253
162916,8.676,-3.819,-0.229,-0.176061,-0.110949,0.382743,99721.05,-48,-28,+253
162925,8.952,-2.905,-0.776,-0.069107,-0.180123,0.390725,99720.90,-48,-28,+253
162935,10.198,-0.952,0.509,0.079352,-0.169481,0.424248,99719.79,-49,-29,+253
162946,11.517,0.877,1.445,0.301242,-0.166288,0.473202,99719.79,-48,-29,+254
162956,11.905,1.584,2.159,0.395425,-0.158839,0.567385,99722.79,-49,-28,+253
162965,11.042,0.005,2.589,0.407132,-0.203004,0.684450,99722.63,-49,-28,+253
162975,9.638,-2.188,2.887,0.419902,-0.278563,0.754688,99720.49,-48,-27,+253
162985,8.394,-3.386,3.273,0.361902,-0.293995,0.777037,99718.91,-49,-27,+254
162996,8.469,-4.023,3.315,0.222490,-0.251958,0.756284,99718.91,-49,-28,+253
163005,8.627,-4.722,2.159,0.075095,-0.321132,0.730211,99724.77,-49,-28,+253
163015,8.475,-3.873,0.433,0.033058,-0.479169,0.737661,99722.09,-49,-28,+253
163025,9.167,-2.776,0.582,0.067646,-0.578141,0.786615,99719.53,-49,-29,+253
163036,9.219,-1.200,2.360,0.238985,-0.562178,0.799385,99722.47,-51,-29,+253
163046,8.484,-0.975,3.796,0.372012,-0.454692,0.789807,99722.47,-51,-29,+253
163055,7.910,-2.167,4.189,0.267719,-0.237591,0.707330,99721.60,-51,-29,+252
163065,7.954,-5.014,3.030,-0.043033,0.003987,0.576963,99718.51,-51,-29,+253
163076,8.409,-6.341,2.410,-0.424024,0.178519,0.474798,99719.93,-49,-30,+252
163086,7.926,-5.530,3.575,-0.782666,0.308886,0.285367,99719.88,-49,-30,+252
163095,8.164,-3.552,4.505,-1.001895,0.513216,0.150211,99719.88,-48,-34,+252
163105,8.384,-3.196,3.293,-1.091290,0.603142,0.066670,99720.16,-47,-38,+252
163116,8.850,-4.552,1.170,-1.056702,0.595693,-0.009421,99721.20,-44,-41,+252
163126,9.760,-5.013,-0.586,-0.973693,0.538757,-0.071146,99720.36,-44,-41,+252
163135,9.902,-4.024,-0.399,-0.966244,0.536097,-0.130742,99720.41,-43,-44,+251
163145,9.743,-3.289,0.357,-0.965712,0.555253,-0.187678,99720.41,-41,-48,+250
163155,9.220,-2.943,1.443,-0.860354,0.524390,-0.213219,99723.73,-40,-50,+250
163166,9.282,-2.355,2.038,-0.503840,0.416904,-0.229715,99720.33,-40,-50,+250
163176,9.501,-2.335,1.818,-0.157437,0.305693,-0.235036,99721.33,-39,-52,+250
163185,9.365,-3.258,2.683,0.021884,0.234390,-0.222265,99721.28,-39,-51,+250
163195,8.759,-4.007,3.340,0.101168,0.170005,-0.231311,99721.28,-39,-51,+250
163206,8.577,-4.085,2.996,0.009113,0.154042,-0.279733,99722.14,-39,-51,+250
163216,8.923,-3.931,2.483,-0.189363,0.166280,-0.340394,99723.97,-38,-50,+250
163225,9.277,-3.384,2.821,-0.316006,0.156170,-0.371788,99719.31,-39,-52,+250
163235,9.185,-3.056,3.134,-0.336226,0.110941,-0.379770,99719.67,-39,-52,+250
163246,9.245,-2.297,2.979,-0.332501,0.090189,-0.359550,99719.67,-39,-52,+249
163256,9.340,-1.970,2.689,-0.343143,0.100299,-0.320706,99723.38,-39,-52,+249
163266,9.475,-2.352,2.830,-0.326116,0.091785,-0.271752,99722.45,-39,-53,+250
163275,9.391,-2.492,2.501,-0.335694,0.053473,-0.236632,99719.62,-39,-55,+249
163286,9.353,-2.042,1.723,-0.312281,0.024207,-0.196192,99717.41,-40,-56,+249
163296,9.547,-1.350,2.013,-0.230336,0.009840,-0.121697,99717.41,-40,-56,+249
163306,9.659,-1.800,2.265,-0.096244,-0.040178,-0.048265,99720.81,-39,-56,+249
163315,9.471,-2.398,2.305,0.076691,-0.125848,0.007074,99720.55,-40,-56,+248
163325,9.529,-2.425,2.652,0.188967,-0.184380,0.045918,99720.19,-40,-55,+249
163336,9.203,-2.721,2.812,0.204930,-0.212582,0.082634,99720.30,-40,-55,+249
163346,8.874,-3.065,2.784,0.108618,-0.221628,0.123074,99720.30,-40,-54,+249
163355,8.891,-3.223,2.496,0.004324,-0.254086,0.136909,99724.03,-42,-54,+248
163365,9.328,-2.438,2.313,-0.058997,-0.299316,0.163514,99723.03,-42,-55,+248
163376,9.476,-1.646,2.450,-0.031859,-0.342417,0.225239,99721.30,-42,-55,+248
163386,9.487,-1.745,2.704,0.060196,-0.389242,0.300799,99717.58,-42,-55,+249
163395,9.386,-2.401,1.876,0.166086,-0.447774,0.356670,99717.58,-44,-56,+247
163405,9.411,-3.066,1.867,0.202269,-0.500453,0.394982,99722.96,-46,-54,+247
163416,9.420,-3.229,2.271,0.208655,-0.551536,0.408817,99721.02,-46,-54,+247
163426,9.225,-3.216,2.301,0.199077,-0.602086,0.416798,99720.13,-47,-54,+247
163436,9.018,-3.031,2.446,0.185774,-0.651040,0.421055,99719.40,-49,-54,+245
163445,8.936,-3.191,2.519,0.151187,-0.686692,0.438615,99719.40,-50,-54,+246
163456,9.316,-3.418,2.032,0.107554,-0.698398,0.445000,99721.27,-50,-54,+246
163466,9.669,-3.930,1.321,0.046361,-0.713829,0.435954,99720.94,-52,-54,+244
163476,9.615,-4.338,0.732,-0.049419,-0.724471,0.397642,99720.00,-53,-55,+244
163481,9.744,-4.177,0.789,-0.147327,-0.719150,0.359331,99718.59,-53,-55,+244
163490,9.760,-4.034,1.105,-0.244703,-0.714361,0.334321,99718.59,-55,-55,+244
163501,9.741,-3.582,1.667,-0.319198,-0.711701,0.300799,99718.59,-56,-57,+242
163511,9.863,-3.353,1.795,-0.315473,-0.722343,0.277386,99723.80,-59,-58,+240
163521,10.259,-4.064,1.578,-0.336758,-0.726068,0.261422,99722.28,-59,-58,+240
163531,10.701,-4.562,1.421,-0.443180,-0.724471,0.228432,99719.30,-61,-60,+239
163540,10.872,-4.125,1.352,-0.604941,-0.720747,0.186395,99719.30,-63,-61,+237
163551,11.249,-2.904,1.720,-0.718281,-0.746820,0.159789,99721.13,-65,-65,+235
163561,11.476,-1.814,2.261,-0.643253,-0.841536,0.178413,99721.13,-65,-65,+235
163570,11.078,-1.709,2.176,-0.417106,-0.976159,0.246523,99720.59,-67,-65,+234
163580,10.592,-2.353,2.064,-0.253749,-1.098545,0.324743,99718.39,-70,-67,+232
163591,10.471,-2.826,2.180,-0.229804,-1.198049,0.390725,99718.77,-74,-69,+229
163601,10.683,-2.885,2.394,-0.292415,-1.296312,0.459722,99719.53,-74,-69,+229
163610,10.756,-2.700,2.842,-0.307492,-1.390673,0.524817,99719.53,-77,-71,+228
163620,10.653,-2.794,3.059,-0.276097,-1.507205,0.608358,99720.00,-81,-72,+225
163631,10.521,-2.753,3.011,-0.279822,-1.621076,0.712651,99719.95,-85,-74,+223
163641,10.774,-2.718,3.021,-0.322391,-1.734416,0.832908,99720.74,-85,-74,+223
163651,11.768,-2.402,3.585,-0.356978,-1.859994,0.956358,99722.01,-88,-76,+219
163661,13.138,-2.825,4.727,-0.347932,-1.963755,1.080871,99721.12,-92,-79,+216
163671,14.400,-3.776,5.265,-0.339418,-2.017498,1.196339,99718.23,-96,-82,+213
163681,15.038,-4.926,4.867,-0.399547,-2.004728,1.287862,99718.23,-96,-82,+213
163691,15.015,-6.102,4.910,-0.585785,-1.974929,1.311275,99717.87,-99,-85,+209
163700,14.850,-3.852,6.807,-0.815125,-1.923847,1.210706,99717.87,-102,-90,+204
163710,14.118,-1.568,8.129,-0.939106,-1.931828,1.171862,99719.89,-105,-93,+199
163717,13.173,-1.314,8.441,-0.845455,-2.008984,1.191550,99719.11,-105,-93,+199
163726,12.403,-1.267,7.853,-0.637400,-2.165425,1.203257,99715.22,-108,-97,+195
163736,10.407,-1.910,7.646,-0.469785,-2.410195,1.170798,99715.33,-113,-99,+190
163745,8.759,-3.813,8.028,-0.278758,-2.466599,1.206981,99715.33,-113,-99,+190
163756,8.941,-6.987,6.813,0.017095,-2.440526,1.394284,99719.58,-116,-102,+186
163766,10.810,-9.327,4.727,0.311352,-2.492140,1.454412,99718.02,-118,-102,+182
163776,11.018,-9.435,3.095,0.476838,-2.628360,1.282541,99717.75,-123,-102,+177
163786,9.962,-8.767,2.143,0.576875,-2.689553,1.071293,99716.28,-123,-102,+177
163795,9.304,-6.641,1.845,0.684361,-2.706580,0.856321,99716.28,-127,-102,+173
163806,7.484,-5.652,1.716,0.863150,-2.819388,0.684982,99721.55,-132,-102,+168
163816,7.931,-2.863,4.134,1.577241,-2.855039,0.541312,99717.62,-136,-96,+166
163826,9.008,0.392,5.632,2.519075,-2.882709,0.373165,99717.10,-136,-96,+166
163835,8.239,1.718,6.613,3.277864,-2.969975,0.335918,99716.57,-142,-90,+165
163846,6.666,1.523,6.507,3.875955,-3.050323,0.330597,99716.57,-148,-82,+163
163856,5.526,0.848,6.139,4.303239,-3.022654,0.248652,99719.11,-154,-71,+162
163866,5.049,-0.027,6.119,4.561313,-2.859296,0.112964,99716.33,-154,-71,+162
163875,4.871,-0.896,6.184,4.672523,-2.629956,-0.087642,99715.33,-160,-60,+162
163886,4.518,-1.873,6.291,4.636872,-2.392103,-0.328687,99713.92,-165,-46,+161
163896,4.473,-2.809,5.960,4.541092,-2.157975,-0.585696,99713.92,-170,-33,+158
163906,4.513,-3.809,5.805,4.380395,-1.919590,-0.819292,99718.16,-170,-33,+158
163916,4.516,-4.332,5.744,4.189900,-1.699829,-1.043311,99719.41,-173,-19,+157
163926,4.482,-4.225,5.836,4.003129,-1.493902,-1.309898,99716.00,-177,-5,+154
163936,4.516,-3.731,5.986,3.807845,-1.252324,-1.632888,99714.95,-180,+9,+151
163946,4.710,-3.275,6.427,3.606707,-0.979352,-1.953218,99714.95,-180,+9,+151
163951,4.958,-3.155,6.653,3.497625,-0.783004,-2.169255,99717.48,-181,+25,+148
163960,5.090,-3.400,6.650,3.422597,-0.606875,-2.334741,99717.48,-182,+40,+145
163971,4.952,-4.113,6.711,3.315643,-0.353059,-2.501291,99717.05,-182,+40,+145
163981,4.752,-4.655,6.881,3.206029,-0.043903,-2.669970,99713.40,-181,+57,+142
163991,4.961,-4.930,6.874,3.090561,0.291858,-2.847695,99712.60,-177,+73,+140
164001,5.515,-4.940,6.843,2.974029,0.603675,-3.022227,99716.50,-172,+88,+140
164012,5.968,-5.215,6.660,2.904323,0.904317,-3.189842,99715.66,-172,+88,+140
164021,6.348,-5.606,6.409,2.846323,1.212408,-3.339896,99715.66,-166,+103,+139
164031,6.730,-5.628,6.461,2.767570,1.531674,-3.491015,99715.66,-157,+117,+137
164041,7.649,-5.293,6.690,2.718616,1.845619,-3.625639,99715.88,-148,+131,+139
164050,9.022,-5.266,6.543,2.797901,2.072829,-3.733658,99715.88,-148,+131,+139
164061,10.517,-5.531,6.295,2.971368,2.234591,-3.776758,99716.19,-138,+143,+140
164071,11.822,-6.141,6.216,3.265093,2.335692,-3.748024,99714.23,-126,+156,+139
164081,12.764,-7.156,6.685,3.673221,2.402738,-3.682043,99717.02,-115,+168,+139
164091,13.581,-8.791,7.020,4.153717,2.454352,-3.571896,99715.19,-115,+168,+139
164101,14.984,-12.202,5.144,4.453826,2.398481,-3.454300,99715.19,-104,+180,+137
164111,14.890,-14.544,3.099,4.438395,2.190958,-3.460685,99717.55,-94,+192,+134
164121,14.868,-16.686,0.514,4.304836,1.953637,-3.361713,99719.08,-83,+203,+131
164131,14.274,-19.871,-1.404,4.111680,1.709931,-3.139291,99719.86,-83,+203,+131
164142,13.292,-22.482,-2.673,3.773790,1.445472,-2.913677,99719.86,-75,+212,+127
164151,10.999,-23.374,-1.813,3.133662,1.211344,-2.630594,99719.86,-67,+220,+124
164161,7.950,-23.816,0.417,2.259406,1.020316,-2.130411,99719.72,-60,+226,+122
164171,6.425,-24.781,1.515,1.349498,0.876115,-1.471127,99719.98,-60,+226,+122
164180,4.552,-26.343,-0.581,0.579003,0.747876,-0.730430,99722.02,-56,+229,+122
164191,4.141,-26.554,-3.148,-0.095180,0.583986,-0.022192,99720.23,-56,+230,+124
164201,5.887,-25.279,-5.295,-0.590042,0.412647,0.622193,99720.23,-57,+228,+127
164211,8.909,-21.013,-5.122,-0.972097,0.142867,1.216559,99722.52,-57,+228,+127
164221,21.593,-6.722,-5.711,-1.025840,-0.512692,1.483678,99720.33,-61,+224,+130
164231,34.136,12.113,-4.988,-1.155675,-1.621608,1.137807,99721.34,-66,+220,+131
164241,25.860,7.661,6.448,-1.009877,-1.202838,2.504797,99721.34,-74,+215,+132
164251,15.895,-5.272,-0.542,0.198012,-1.328948,3.100760,99724.13,-74,+215,+132
164261,3.198,-17.951,-5.445,1.429847,-1.686526,3.256136,99724.13,-83,+210,+128
164271,6.405,-9.842,-2.219,2.064121,-1.548710,3.205586,99724.55,-92,+206,+122
164281,5.660,-1.827,-1.671,1.207957,-1.092691,2.592595,99719.98,-101,+203,+119
164291,4.362,-3.106,0.773,0.950948,-0.705848,2.569715,99720.63,-101,+203,+119
164301,7.634,-7.892,2.079,1.574580,-0.736710,2.382944,99720.63,-105,+199,+115
164311,8.610,-9.910,3.443,1.382489,-0.972967,1.955128,99721.58,-111,+197,+111
164321,8.065,-11.074,1.631,0.473113,-0.773958,1.606596,99719.95,-115,+195,+109
164331,8.333,-7.691,-0.539,-0.641125,-0.347206,1.235183,99719.38,-115,+195,+109
164341,8.187,-3.812,2.027,-1.389803,-0.014637,1.064908,99719.38,-117,+191,+110
164352,8.344,-3.463,3.758,-1.584555,0.105088,0.986156,99721.64,-120,+186,+114
164361,8.883,-3.098,2.419,-1.436097,0.103491,0.887183,99718.97,-122,+181,+116
164371,9.124,-1.994,2.319,-1.077987,0.076886,0.837165,99719.75,-122,+181,+118
164381,9.192,-1.410,2.918,-0.530446,0.009308,0.848339,99719.75,-122,+178,+118
164391,9.027,-2.294,2.945,0.049022,-0.103499,0.880798,99722.48,-123,+176,+119
164401,8.718,-3.614,2.550,0.225682,-0.126912,0.894101,99722.48,-126,+174,+117
164411,8.579,-4.711,2.179,0.084673,-0.041775,0.848872,99723.91,-128,+172,+117
164421,8.366,-5.518,2.122,-0.087198,0.046556,0.747239,99721.29,-128,+172,+117
164431,8.124,-6.003,3.212,-0.365492,0.151913,0.593991,99720.49,-128,+170,+117
164442,7.837,-6.088,3.810,-0.664005,0.268977,0.413606,99720.91,-128,+168,+119
164451,7.811,-5.372,3.494,-0.882170,0.357308,0.295477,99720.91,-128,+166,+122
164461,8.342,-4.145,3.090,-1.029565,0.407858,0.279514,99721.59,-128,+166,+122
164471,9.383,-2.675,3.027,-1.046592,0.427014,0.301331,99719.52,-128,+164,+124
164482,9.888,-2.680,2.790,-0.868335,0.372739,0.349753,99719.54,-129,+161,+126
164491,9.702,-3.471,2.841,-0.673583,0.301968,0.404028,99719.54,-129,+159,+127
164501,9.258,-4.921,2.927,-0.661345,0.282280,0.414670,99719.54,-129,+159,+127
164511,9.185,-5.080,3.360,-0.832684,0.300372,0.404028,99723.08,-129,+158,+129
164521,8.700,-4.938,3.771,-0.969436,0.312610,0.385404,99720.98,-129,+155,+132
164531,8.898,-4.478,3.707,-1.106721,0.329106,0.379019,99720.88,-129,+152,+135
164537,9.244,-4.378,3.775,-1.196647,0.313143,0.385936,99719.88,-129,+152,+135
164546,9.113,-4.491,4.031,-1.251987,0.277491,0.406156,99719.88,-129,+148,+136
164556,9.282,-3.909,3.983,-1.289766,0.228005,0.445532,99722.12,-129,+148,+136
164567,9.399,-3.445,3.621,-1.302537,0.173730,0.501936,99720.34,-130,+145,+139
164576,9.425,-3.763,3.282,-1.282317,0.113069,0.562597,99720.71,-129,+141,+141
164586,9.608,-3.933,3.100,-1.254647,0.042831,0.618468,99720.55,-131,+139,+143
164596,9.937,-3.863,2.669,-1.216867,-0.034325,0.675936,99720.55,-131,+139,+143
164606,10.174,-3.737,2.044,-1.174299,-0.103499,0.750431,99720.48,-133,+133,+144
164616,10.537,-4.074,1.535,-1.123748,-0.169481,0.807899,99720.84,-133,+130,+145
164626,10.863,-4.137,1.506,-1.116299,-0.234398,0.862706,99718.95,-134,+126,+145
164636,11.100,-3.610,1.521,-1.118959,-0.300380,0.944119,99719.38,-136,+126,+145
164646,11.171,-2.914,1.644,-1.092886,-0.414784,1.044688,99719.38,-136,+121,+147
164657,11.011,-2.154,2.150,-0.986996,-0.595169,1.170798,99722.23,-138,+116,+147
164666,11.050,-1.916,2.731,-0.822042,-0.775554,1.338413,99723.70,-140,+111,+145
164676,11.515,-2.495,3.265,-0.635804,-0.945297,1.518798,99718.77,-143,+106,+144
164686,12.563,-3.368,4.132,-0.530446,-1.093756,1.680027,99718.09,-143,+106,+144
164697,13.327,-4.691,4.414,-0.584721,-1.181554,1.803476,99718.09,-145,+100,+142
164706,13.404,-4.893,4.168,-0.816189,-1.212416,1.906706,99719.78,-149,+94,+140
164716,13.600,-3.810,3.915,-1.122684,-1.236361,2.011531,99720.67,-151,+86,+139
164726,14.250,-2.977,3.781,-1.345638,-1.287976,2.113697,99721.72,-151,+86,+139
164737,14.817,-2.700,3.771,-1.523363,-1.333737,2.219586,99716.95,-154,+77,+136
164746,15.487,-2.638,4.407,-1.760152,-1.318838,2.308449,99716.95,-157,+69,+134
164756,17.683,-1.097,6.042,-2.112940,-1.244875,2.365916,99719.70,-160,+58,+133
164766,20.698,1.451,8.811,-2.509894,-1.214013,2.405293,99717.65,-160,+58,+133
164772,22.103,3.949,11.961,-2.654628,-1.206563,2.470742,99716.49,-161,+46,+130
164782,21.722,4.880,12.084,-2.536500,-1.337994,2.636228,99716.49,-161,+46,+130
164792,19.815,1.740,9.499,-2.113472,-1.597131,2.919843,99719.16,-162,+34,+128
164801,17.701,-5.772,5.571,-1.532941,-1.959498,3.195476,99719.16,-163,+22,+124
164811,15.020,-13.939,4.584,-1.097675,-2.173939,3.370008,99720.27,-163,+11,+120
164822,16.979,-14.970,7.502,-1.188133,-2.076562,3.363622,99718.93,-163,+11,+120
164832,16.844,-9.004,9.181,-1.272207,-1.950984,2.979971,99717.18,-163,+0,+116
164841,13.476,-3.201,9.429,-1.331803,-1.590214,2.324412,99717.18,-163,-10,+111
164851,12.562,0.168,7.880,-1.174831,-1.262967,1.751862,99717.18,-161,-17,+108
164861,8.774,0.910,3.995,-1.059363,-1.114508,1.462394,99717.14,-161,-17,+108
164872,2.836,-2.519,4.132,-0.850776,-0.776618,1.527844,99718.83,-161,-24,+106
164881,-1.312,-5.129,2.725,-0.618244,-0.339224,1.150046,99718.56,-159,-30,+104
164891,-2.944,-5.537,5.602,-0.719345,0.031657,0.644009,99716.67,-156,-34,+105
164901,0.467,-3.372,5.818,-0.530446,0.190225,-0.093495,99716.67,-156,-36,+106
164912,2.844,-1.833,3.798,-0.551730,0.261528,-0.784705,99721.38,-156,-36,+106
164922,3.444,0.077,3.229,-0.802354,0.543546,-1.128980,99716.34,-155,-34,+106
164931,2.653,3.488,1.658,-1.172702,0.675509,-1.476448,99717.31,-155,-34,+107
164941,1.540,5.173,-0.069,-1.502078,0.735638,-1.788264,99717.31,-154,-32,+107
164952,0.916,5.359,-0.287,-1.604775,0.947950,-1.947365,99719.72,-154,-32,+107
164962,0.653,4.719,0.340,-1.207289,1.166647,-2.090503,99718.31,-154,-30,+108
164971,1.263,2.707,1.013,-0.436794,1.476334,-2.325163,99718.31,-154,-27,+110
164981,2.641,1.163,2.276,0.376801,1.804114,-2.597071,99716.94,-153,-19,+114
164992,3.660,-0.089,3.306,0.979150,2.047288,-2.842906,99715.22,-153,-19,+114
165002,3.996,-0.657,3.412,1.240948,2.227674,-3.070649,99715.22,-151,-13,+119
165007,4.000,-0.229,2.824,1.293626,2.361765,-3.237731,99714.51,-151,-13,+119
165016,4.184,0.211,2.608,1.401645,2.525123,-3.420245,99714.73,-149,-3,+126
165026,5.554,0.600,2.572,1.747516,2.726260,-3.640538,99714.62,-147,+5,+131
165037,6.633,0.186,2.316,2.233864,2.885893,-3.827841,99714.09,-143,+16,+139
165047,7.406,-0.933,2.733,2.613791,3.067875,-3.973639,99714.09,-143,+16,+139
165056,8.127,-1.563,3.090,2.780873,3.179086,-4.149236,99716.83,-138,+29,+146
165066,8.944,-1.385,3.115,2.795240,3.225379,-4.328024,99716.98,-133,+42,+153
165076,10.030,-1.284,2.743,2.856965,3.283911,-4.450410,99714.53,-126,+57,+158
165087,11.403,-1.607,2.747,3.071405,3.352021,-4.512667,99715.73,-126,+57,+158
165096,13.009,-2.741,2.765,3.249130,3.358939,-4.581841,99715.73,-118,+71,+165
165106,14.974,-4.118,3.211,3.307130,3.254113,-4.655272,99718.88,-110,+86,+169
165116,16.928,-5.737,3.880,3.344377,3.077985,-4.748391,99715.79,-101,+99,+172
165127,18.915,-8.061,4.439,3.409295,2.898132,-4.823419,99717.16,-92,+113,+176
165136,20.547,-10.988,4.566,3.477405,2.736902,-4.856942,99715.63,-92,+113,+176
165146,21.331,-14.336,3.890,3.511460,2.572481,-4.774465,99715.63,-83,+127,+179
165156,20.914,-18.486,2.031,3.444946,2.390499,-4.579180,99720.02,-75,+140,+180
165167,19.038,-23.168,-0.225,3.216139,2.211710,-4.227456,99717.28,-67,+155,+183
165177,16.028,-26.001,-2.112,2.900066,2.021747,-3.734190,99718.39,-67,+155,+183
165186,12.615,-26.103,-4.523,2.414249,1.807839,-3.063731,99719.91,-58,+168,+185
165196,9.396,-27.404,-5.304,1.965149,1.565729,-2.283659,99719.91,-52,+177,+186
165207,8.035,-30.122,-5.181,1.214874,1.157601,-1.417384,99722.18,-48,+183,+188
165217,7.727,-30.696,-6.228,0.233132,0.502042,-0.525036,99722.65,-48,+183,+188
165226,9.436,-28.136,-5.838,-0.543216,0.041767,0.358266,99724.21,-48,+183,+190
165236,9.164,-26.050,-5.801,-0.966776,-0.368490,1.372468,99723.32,-52,+180,+192
165246,11.138,-18.632,-2.715,-0.984868,-0.841536,2.163183,99723.32,-59,+175,+193
165257,25.226,11.300,7.910,-0.418703,-1.486453,1.990779,99722.22,-59,+175,+193
165267,35.689,38.576,6.407,0.080416,-1.334269,0.223110,99718.39,-65,+174,+191
165276,22.878,2.635,-1.411,-2.319399,-1.083646,3.271035,99720.44,-72,+166,+194
165286,7.753,-16.061,-4.784,0.824838,-1.741865,3.682356,99721.84,-83,+164,+190
165297,10.081,-28.398,-2.230,2.840469,-1.834985,4.061218,99721.84,-83,+164,+190
165307,16.303,-12.805,-3.554,1.740599,-1.761553,3.582852,99723.52,-93,+162,+185
