210026,8.569,-4.403,2.449,0.127074,0.013863,-0.054708,100131.51,-117,+75,-244
210036,8.432,-4.380,2.404,0.124946,0.038872,-0.055772,100127.37,-117,+76,-243
210045,8.544,-4.244,2.310,0.104725,0.056964,-0.053112,100127.37,-117,+76,-244
210056,8.599,-3.842,2.366,0.080780,0.070267,-0.045130,100127.37,-117,+75,-243
210066,8.823,-3.356,2.876,0.120689,0.046322,-0.033424,100131.20,-117,+75,-243
210076,8.968,-3.385,3.001,0.251588,-0.030834,-0.027571,100129.33,-117,+75,-243
210081,9.035,-3.728,2.697,0.363863,-0.082449,-0.022782,100128.02,-117,+74,-243
210091,8.957,-4.081,2.522,0.434633,-0.110119,-0.018525,100128.33,-117,+74,-243
210101,8.649,-4.498,2.573,0.466560,-0.114908,-0.024910,100128.33,-117,+74,-245
210111,8.782,-4.909,2.709,0.420266,-0.085109,-0.038745,100128.85,-117,+72,-245
210121,8.752,-4.845,2.893,0.334065,-0.065953,-0.061626,100132.48,-116,+72,-246
210130,8.677,-4.474,3.065,0.270744,-0.054779,-0.082378,100127.91,-116,+72,-246
210141,9.005,-4.274,3.117,0.235092,-0.062761,-0.097277,100129.49,-116,+72,-246
210151,9.328,-4.170,3.218,0.236157,-0.086174,-0.114837,100129.49,-116,+72,-247
210161,9.261,-4.216,3.274,0.250523,-0.130871,-0.133993,100130.77,-116,+71,-247
210170,9.179,-4.563,2.906,0.260101,-0.137256,-0.161130,100130.62,-116,+71,-247
210181,9.261,-4.628,2.947,0.219129,-0.127146,-0.170708,100130.93,-115,+71,-247
210191,9.173,-4.232,3.291,0.179221,-0.138852,-0.200506,100128.57,-115,+72,-248
210201,8.599,-3.686,3.226,0.165386,-0.168119,-0.203167,100128.57,-113,+72,-248
210211,8.903,-3.952,2.919,0.176028,-0.163862,-0.186139,100130.50,-113,+72,-248
210221,8.977,-4.234,2.871,0.170175,-0.162265,-0.151552,100131.39,-114,+72,-248
210231,8.850,-4.114,2.819,0.098872,-0.155880,-0.126011,100126.61,-113,+73,-250
210241,9.136,-3.761,3.051,0.013735,-0.169715,-0.108983,100129.61,-113,+73,-250
210251,9.054,-3.904,3.053,-0.006486,-0.169183,-0.088763,100129.61,-113,+73,-250
210260,9.133,-3.978,2.645,-0.025109,-0.171843,-0.090360,100130.05,-112,+74,-250
210271,8.885,-3.858,2.381,-0.013403,-0.158541,-0.078653,100128.42,-112,+74,-250
210281,8.787,-4.070,2.143,0.006817,-0.138320,-0.071204,100127.42,-112,+74,-251
210291,8.814,-3.777,2.160,0.042469,-0.134596,-0.064818,100127.95,-112,+74,-251
210300,9.080,-3.555,2.391,0.146230,-0.149495,-0.048323,100127.95,-112,+74,-251
210311,8.839,-3.802,2.449,0.227643,-0.153219,-0.026506,100129.20,-112,+74,-252
210317,8.774,-4.128,2.390,0.212744,-0.143109,-0.015332,100127.89,-112,+74,-252
210326,8.928,-4.451,2.479,0.154212,-0.125018,-0.009479,100127.89,-110,+73,-253
210336,8.902,-4.729,2.336,0.039808,-0.089366,-0.004690,100129.63,-110,+72,-253
210347,8.838,-4.566,1.979,-0.102265,-0.042541,-0.009479,100127.73,-111,+72,-253
210356,8.914,-4.101,2.284,-0.212412,-0.004761,-0.016396,100127.73,-111,+72,-253
210366,9.098,-3.496,2.743,-0.200706,-0.007421,-0.027571,100129.44,-110,+74,-253
210376,8.996,-3.384,2.706,-0.126210,-0.025513,-0.025442,100127.58,-111,+74,-252
210386,8.848,-3.502,2.709,-0.038944,-0.046265,-0.019589,100126.47,-111,+74,-253
210396,8.982,-3.808,2.566,0.008414,-0.047330,-0.009479,100126.47,-111,+74,-253
210406,9.128,-4.352,2.592,-0.024045,-0.032963,-0.015864,100126.47,-110,+74,-253
210416,9.042,-4.063,2.647,-0.115036,-0.009550,-0.017461,100130.43,-110,+74,-253
210426,8.810,-4.293,2.656,-0.216669,0.030891,-0.021717,100130.37,-110,+74,-253
210436,8.872,-4.683,2.178,-0.292228,0.062817,-0.048855,100130.32,-110,+74,-253
210446,8.849,-4.108,2.092,-0.344375,0.072927,-0.054708,100129.37,-110,+76,-252
210456,8.838,-3.675,2.102,-0.318302,0.084634,-0.048855,100129.37,-110,+77,-252
210466,8.994,-3.304,2.255,-0.241678,0.070799,-0.040341,100131.99,-111,+77,-252
210477,9.103,-3.223,2.519,-0.116632,0.041533,-0.022250,100130.02,-111,+77,-252
210486,9.288,-3.599,2.580,-0.017128,0.007478,0.001163,100125.48,-110,+77,-251
210496,9.002,-4.033,2.747,-0.005953,-0.013275,0.022980,100125.48,-110,+77,-251
210506,8.962,-4.034,2.913,-0.062889,-0.021788,0.047457,100130.90,-111,+78,-252
210515,9.021,-4.185,2.877,-0.150155,-0.018596,0.056503,100130.90,-111,+78,-252
210526,8.963,-4.179,2.675,-0.227843,-0.010614,0.066081,100127.38,-110,+77,-251
210536,8.826,-4.349,1.952,-0.297550,0.022377,0.106521,100132.41,-110,+77,-251
210546,8.922,-5.115,1.133,-0.424192,0.140505,0.192723,100128.85,-111,+78,-249
210551,9.315,-5.500,1.191,-0.581164,0.234689,0.264558,100128.85,-111,+78,-249
210562,9.747,-4.524,2.347,-0.728558,0.268211,0.320429,100132.55,-112,+78,-249
210571,10.180,-2.540,3.461,-0.771127,0.250120,0.416741,100129.55,-113,+80,-248
210581,9.904,-2.094,3.754,-0.677476,0.209147,0.497622,100127.57,-113,+80,-248
210591,9.434,-1.785,4.197,-0.510926,0.167643,0.621603,100129.24,-113,+78,-247
210601,9.882,-2.838,4.299,-0.526889,0.123478,0.740796,100129.24,-115,+78,-246
210611,10.861,-3.862,3.981,-0.656192,0.051643,0.834447,100129.85,-115,+76,-245
210621,11.468,-3.494,4.691,-0.883402,-0.020192,0.927034,100128.27,-115,+76,-245
210631,12.151,-4.288,4.776,-1.109549,-0.155880,0.980245,100127.18,-116,+76,-244
210641,12.761,-4.633,4.706,-1.291531,-0.303807,1.046227,100129.59,-118,+74,-245
210651,14.217,-4.727,4.219,-1.553861,-0.396926,1.156374,100129.59,-118,+75,-243
210661,17.490,-4.434,3.317,-1.762980,-0.525164,1.221823,100131.20,-118,+75,-243
210671,20.749,-2.623,4.023,-1.906117,-0.671494,1.328245,100129.63,-117,+74,-244
210681,22.733,-2.382,4.450,-1.831090,-0.831127,1.505970,100128.42,-117,+74,-243
210692,22.242,-1.647,4.759,-1.804484,-1.033861,1.642190,100125.84,-116,+74,-246
210701,18.628,0.381,4.680,-1.678907,-1.347274,1.673052,100125.84,-116,+74,-246
210711,15.063,1.199,2.713,-1.135090,-1.648448,1.719346,100129.52,-115,+72,-248
210721,11.351,-3.154,-0.114,-0.556155,-1.692081,1.602282,100129.03,-112,+67,-252
210732,6.761,-14.540,-1.809,-0.456650,-1.452631,1.516080,100129.25,-110,+64,-255
210741,6.570,-22.291,5.670,-0.194852,-1.007256,1.742226,100127.67,-110,+64,-255
210751,13.733,-13.963,5.568,-0.166651,-0.940210,1.457016,100127.67,-110,+59,-257
210761,14.592,-7.915,-1.084,-1.061659,-1.257879,1.184043,100130.05,-107,+57,-258
210771,8.593,-11.994,-1.718,-0.881806,-1.340356,1.437328,100129.96,-106,+56,-261
210781,5.661,-14.564,0.317,-0.559348,-1.260540,1.396887,100129.65,-106,+56,-261
210787,6.118,-11.985,1.171,-0.585421,-1.151989,1.217034,100127.85,-104,+52,-263
210796,6.664,-8.836,0.623,-0.687054,-1.078558,1.174997,100127.85,-102,+51,-265
210806,5.737,-6.901,-0.994,-0.540724,-1.067916,1.269181,100127.85,-102,+51,-265
210817,3.826,-6.394,-1.546,-0.243806,-1.013109,1.295254,100129.42,-99,+48,-268
210827,2.389,-5.743,-1.200,-0.065550,-0.908283,1.252686,100129.20,-99,+46,-269
210836,1.314,-4.847,-1.038,0.035019,-0.804522,1.201603,100127.56,-98,+42,-272
210846,0.539,-3.780,-1.132,0.147294,-0.716192,1.161163,100127.56,-98,+42,-272
210856,0.289,-2.901,-1.319,0.233496,-0.653403,1.098374,100129.49,-96,+38,-272
210866,-0.110,-2.436,-1.350,0.285643,-0.612430,1.017493,100129.49,-95,+35,-273
210876,-0.913,-2.199,-1.186,0.311184,-0.559219,0.939273,100127.20,-95,+31,-275
210886,-1.233,-2.036,-1.093,0.326615,-0.486320,0.841365,100127.09,-95,+31,-275
210896,-1.322,-1.967,-1.156,0.281386,-0.429384,0.714723,100128.66,-94,+28,-275
210907,-1.514,-1.832,-1.247,0.185606,-0.375641,0.558814,100128.66,-93,+26,-276
210917,-1.785,-1.551,-1.201,0.066946,-0.318706,0.393328,100130.02,-92,+25,-278
210926,-2.015,-1.274,-1.042,-0.023513,-0.261770,0.223585,100128.51,-92,+25,-278
210936,-2.131,-1.110,-0.811,-0.083641,-0.200045,0.049585,100128.18,-92,+25,-277
210947,-2.029,-0.992,-0.525,-0.120889,-0.135660,-0.128139,100126.51,-91,+25,-278
210957,-1.747,-1.007,-0.226,-0.130999,-0.062761,-0.304268,100126.45,-91,+27,-278
210966,-1.356,-1.196,0.083,-0.134724,0.023441,-0.482524,100125.56,-91,+27,-278
210976,-0.862,-1.285,0.244,-0.137385,0.120817,-0.667167,100126.30,-91,+28,-277
210987,-0.158,-1.554,0.362,-0.136852,0.228835,-0.857130,100126.30,-91,+31,-278
210996,0.743,-1.636,0.574,-0.111843,0.338982,-1.050285,100127.97,-92,+35,-278
211006,2.191,-1.741,0.824,-0.050651,0.457643,-1.286010,100127.97,-92,+35,-278
211016,3.597,-3.229,0.913,-0.036816,0.515643,-1.245570,100128.09,-92,+37,-276
211021,3.581,-1.851,1.334,0.405367,0.708266,-1.750010,100128.51,-93,+41,-275
211032,5.543,-2.701,1.375,0.445276,0.775312,-2.030432,100126.46,-93,+41,-275
211041,7.051,-3.658,1.237,0.463367,0.823734,-2.091092,100128.29,-94,+45,-274
211051,7.235,-3.033,0.926,0.567129,0.871092,-2.185808,100128.29,-95,+50,-272
211061,7.563,-3.224,0.696,0.770395,0.912064,-2.216138,100130.74,-96,+55,-272
211072,8.029,-4.374,0.422,0.988560,0.928028,-2.196982,100129.65,-96,+55,-272
211082,8.142,-5.626,0.080,1.241312,0.958358,-2.198046,100126.71,-96,+57,-270
211091,8.382,-6.428,0.396,1.570688,1.000394,-2.221459,100126.07,-98,+61,-268
211101,9.135,-7.488,0.700,1.907513,0.992945,-2.241679,100126.07,-98,+62,-268
211111,10.637,-8.428,0.730,2.203898,0.960486,-2.285845,100130.60,-98,+62,-268
211122,12.063,-9.341,0.889,2.325219,0.927495,-2.282652,100129.87,-99,+64,-267
211131,13.372,-10.441,1.432,2.330540,0.895569,-2.234762,100129.09,-99,+63,-267
211141,14.673,-10.640,2.333,2.228375,0.860982,-2.161331,100127.71,-100,+65,-266
211151,14.408,-11.440,5.189,2.016596,0.889716,-2.019258,100127.71,-100,+65,-266
211162,9.725,-26.304,11.506,2.453990,1.660211,-1.422230,100129.77,-101,+66,-265
211171,23.500,-34.917,9.591,2.830192,1.351055,-0.583093,100125.99,-105,+60,-263
211181,31.504,-14.485,-2.844,0.903422,-0.060632,-1.203533,100129.35,-104,+60,-263
211191,39.784,13.284,-3.380,-1.715622,-0.100541,-1.486616,100130.57,-104,+60,-263
211202,25.264,14.946,2.624,-2.416411,0.121349,-0.827864,100130.57,-102,+72,-262
211212,4.031,3.640,2.655,-1.151586,0.273000,0.317237,100128.90,-103,+74,-260
211221,-1.481,-8.392,-1.281,-0.431109,0.483716,0.295952,100130.74,-103,+74,-260
211231,1.372,-7.417,-3.935,0.015331,0.266615,0.120888,100128.16,-103,+74,-260
211241,8.091,-3.151,-2.456,0.819881,0.117092,0.400778,100131.15,-106,+74,-258
211252,9.910,-0.354,2.756,1.986266,0.043661,0.507200,100131.15,-105,+68,-260
211257,8.386,-1.551,5.179,2.471018,0.073991,0.531677,100133.64,-105,+68,-260
211266,8.272,-5.714,6.282,2.451862,0.137312,0.576374,100133.64,-106,+61,-261
211276,9.463,-11.054,6.455,1.597825,0.057496,0.496025,100127.59,-108,+55,-262
211287,9.418,-11.042,5.031,0.139313,0.026634,0.259237,100127.86,-107,+54,-262
211297,9.093,-6.770,3.400,-0.952045,0.100065,0.041604,100128.48,-107,+54,-262
211307,9.178,-3.218,2.342,-1.093054,0.112835,-0.079717,100131.61,-106,+58,-260
211316,9.655,-0.442,1.418,-0.648210,0.079845,-0.066947,100128.83,-107,+60,-260
211326,10.344,-0.737,1.195,0.004157,0.086230,0.024576,100130.83,-108,+59,-260
211337,10.027,-2.901,1.644,0.584688,0.055368,0.145897,100130.83,-108,+59,-260
211346,8.994,-4.292,2.337,0.938541,0.037276,0.241677,100127.67,-108,+57,-260
211356,8.521,-5.316,2.991,1.053477,0.068670,0.276796,100127.67,-108,+53,-261
211366,8.685,-7.304,3.714,0.562340,0.123478,0.169842,100130.09,-109,+52,-260
211377,9.018,-8.928,3.719,-0.195917,0.093147,0.144833,100129.52,-109,+52,-260
211386,8.995,-8.103,3.010,-0.865843,0.050046,0.140044,100128.25,-110,+53,-260
211396,8.511,-4.956,2.832,-1.254283,0.078780,0.067145,100129.20,-109,+55,-259
211406,8.668,-2.379,2.057,-1.268118,0.124010,0.029897,100129.20,-110,+58,-258
211417,9.202,-1.486,2.043,-0.874889,0.157001,0.182613,100129.80,-110,+58,-258
211427,9.361,-2.717,1.317,-0.485384,0.131459,0.264026,100127.66,-110,+59,-257
211437,9.064,-3.862,1.188,-0.169843,0.108046,0.290631,100127.75,-110,+58,-257
211446,8.817,-4.835,2.024,-0.000100,0.110175,0.358741,100127.75,-111,+58,-257
211457,8.757,-5.453,2.645,-0.035752,0.114432,0.393328,100127.75,-111,+58,-257
211467,8.436,-5.822,3.371,-0.315641,0.137845,0.367255,100130.39,-111,+56,-256
211476,8.629,-5.559,3.763,-0.621604,0.161790,0.345438,100129.81,-112,+57,-255
211486,9.076,-4.897,3.751,-0.902558,0.171367,0.415677,100130.23,-113,+58,-254
211492,9.272,-4.927,3.051,-1.074962,0.176156,0.445475,100125.88,-113,+58,-254
211502,9.225,-4.993,2.432,-1.152118,0.176689,0.461438,100125.88,-113,+58,-253
211512,9.353,-4.554,2.421,-1.151586,0.157001,0.565732,100129.80,-115,+60,-252
211521,9.290,-3.695,2.436,-0.996742,0.123478,0.592869,100128.58,-115,+60,-252
211531,10.113,-4.584,2.193,-0.835513,0.058028,0.721640,100127.33,-115,+60,-252
211542,8.367,-3.873,2.944,-0.629586,0.005881,0.733878,100128.16,-115,+58,-250
211552,9.248,-4.690,3.187,-0.774852,-0.045733,0.542319,100128.16,-116,+59,-250
211562,9.606,-4.900,3.110,-0.753036,-0.089366,0.600851,100130.28,-116,+59,-250
211571,9.742,-5.464,2.910,-0.829127,-0.134064,0.669493,100128.86,-116,+58,-251
211581,9.865,-5.462,2.600,-0.933953,-0.191531,0.805713,100127.39,-116,+58,-250
211592,9.856,-4.854,2.445,-0.928632,-0.253788,0.904686,100130.02,-117,+57,-250
211602,10.196,-4.480,2.006,-0.949384,-0.380430,0.795071,100130.02,-117,+57,-250
211611,10.467,-4.864,1.930,-0.915329,-0.510265,0.750906,100132.52,-115,+57,-250
211621,10.436,-5.263,1.960,-0.877017,-0.626265,0.770062,100127.91,-115,+57,-252
211632,10.610,-5.060,2.152,-0.807311,-0.682669,0.745053,100127.06,-115,+57,-253
211642,11.164,-5.589,2.110,-0.853072,-0.756632,0.805181,100128.22,-115,+57,-253
211651,11.143,-5.574,2.269,-0.908412,-0.835384,0.870631,100128.22,-113,+56,-255
211661,11.709,-5.313,2.680,-1.024944,-0.924246,0.925970,100131.52,-111,+55,-256
211672,12.461,-4.477,3.215,-1.132430,-1.073237,1.040374,100124.95,-110,+54,-258
211682,12.888,-3.668,3.493,-1.107421,-1.241916,1.169676,100127.27,-110,+54,-258
211692,13.478,-3.731,3.260,-1.024944,-1.346742,1.328777,100127.27,-107,+54,-260
211701,14.665,-4.530,2.759,-1.045164,-1.407402,1.529383,100127.27,-105,+52,-264
211712,17.062,-3.723,3.124,-1.091457,-1.523402,1.714557,100128.06,-103,+50,-266
211722,20.430,-2.348,4.301,-1.044100,-1.683035,1.883768,100125.44,-103,+50,-266
211727,22.193,-1.281,5.335,-0.920650,-1.792650,2.076923,100125.55,-99,+47,-270
211736,21.183,-1.389,6.248,-0.779641,-1.853310,2.208887,100125.55,-96,+43,-274
211746,17.129,-0.617,6.718,-0.758357,-1.863420,2.391400,100125.55,-96,+43,-274
211757,14.663,-1.611,6.613,-0.542852,-1.876723,2.525492,100125.55,-93,+38,-278
211767,13.212,-4.219,5.854,-0.277862,-1.847457,2.596262,100128.38,-90,+33,-282
211777,11.881,-8.632,4.157,-0.295953,-1.747420,2.553694,100126.55,-86,+27,-285
211787,11.450,-11.508,3.876,-0.339054,-1.678246,2.425987,100128.02,-86,+27,-285
211796,11.266,-9.424,4.125,-0.158137,-1.615989,2.213144,100128.02,-82,+23,-288
211807,9.992,-6.071,3.276,0.024377,-1.545219,2.055107,100128.02,-80,+17,-291
211817,8.549,-3.824,2.096,0.228175,-1.532448,1.984336,100128.70,-75,+11,-294
211826,6.875,-3.290,1.660,0.425588,-1.460081,1.804483,100130.01,-75,+11,-294
211836,4.654,-4.001,1.832,0.494762,-1.365366,1.540025,100130.26,-71,+7,-297
211847,1.919,-4.681,2.692,0.471349,-1.132833,1.246300,100129.70,-68,+1,-298
211857,-0.005,-5.865,3.262,0.181349,-0.776320,0.945658,100129.70,-67,+0,-301
211867,0.782,-4.214,3.991,-0.031495,-0.444283,0.518374,100126.61,-67,+0,-301
211876,2.643,-0.485,2.735,-0.387476,-0.361806,-0.163791,100126.34,-66,-1,-301
211887,3.695,2.938,1.786,-0.786026,-0.311788,-0.733148,100125.45,-66,+2,-302
211897,3.723,4.270,0.319,-0.944063,-0.304339,-0.914598,100125.45,-65,+7,-303
211907,2.761,3.818,-0.494,-0.640760,-0.316045,-1.009845,100126.27,-65,+7,-303
211916,1.747,2.476,0.011,-0.004889,-0.248999,-1.255680,100125.27,-64,+11,-303
211927,1.535,1.205,1.048,0.607037,-0.105862,-1.582395,100125.27,-63,+14,-303
211937,2.077,0.201,1.687,1.021551,0.061221,-1.858028,100127.11,-64,+15,-303
211947,2.868,-0.645,1.814,1.264725,0.212872,-2.080450,100126.06,-64,+15,-303
211956,3.602,-1.675,2.135,1.396156,0.346964,-2.265092,100126.06,-65,+16,-303
211962,3.933,-2.478,2.548,1.455752,0.445404,-2.405569,100127.76,-66,+17,-303
211972,4.081,-2.807,2.920,1.496724,0.540652,-2.584890,100127.76,-66,+17,-303
211982,4.553,-2.482,3.105,1.500449,0.710395,-2.861587,100126.91,-68,+19,-302
211992,5.411,-1.699,3.108,1.531844,0.903018,-3.128706,100123.51,-71,+21,-302
212001,6.334,-1.311,3.228,1.631348,1.095110,-3.329844,100123.51,-72,+25,-299
212012,7.300,-2.061,3.033,1.841532,1.243569,-3.470321,100123.22,-72,+25,-299
212022,8.464,-3.668,2.850,2.026174,1.383514,-3.607605,100126.00,-76,+28,-297
212032,9.572,-5.259,2.861,2.041073,1.477697,-3.732651,100124.84,-78,+31,-295
212041,9.877,-6.334,2.958,1.920816,1.537293,-3.815660,100124.33,-82,+35,-292
212051,10.128,-6.958,3.337,1.724468,1.594761,-3.866743,100124.33,-82,+35,-292
212062,10.842,-7.217,3.912,1.448303,1.611256,-3.967311,100126.57,-85,+41,-289
212072,11.665,-7.248,4.265,1.230138,1.647440,-4.074265,100127.93,-87,+48,-287
212082,12.278,-7.387,4.569,1.290266,1.745880,-4.141843,100125.68,-90,+55,-284
212091,12.623,-7.283,4.832,1.630816,1.867201,-4.179091,100125.57,-90,+55,-284
212102,12.956,-7.354,4.952,1.988394,1.986394,-4.114173,100125.57,-92,+61,-280
212112,13.449,-8.425,4.774,2.244871,2.078449,-3.958797,100126.50,-94,+67,-277
212122,13.761,-9.924,3.939,2.340118,2.067275,-3.706578,100127.61,-96,+71,-274
212131,13.920,-10.520,2.989,2.536467,2.122082,-3.631018,100129.59,-96,+71,-274
212142,15.092,-12.201,1.424,2.509861,2.103990,-3.451165,100126.08,-99,+74,-271
212152,16.138,-14.284,-0.467,2.403440,1.962449,-3.248431,100126.08,-100,+78,-268
212162,15.890,-16.398,-1.149,2.241146,1.736834,-3.046762,100130.00,-101,+80,-267
212171,14.193,-17.862,-0.804,2.009146,1.421293,-2.748248,100127.73,-101,+80,-267
212182,11.473,-18.805,-0.166,1.595165,1.132890,-2.327349,100129.00,-102,+84,-265
212192,8.875,-20.499,1.013,1.212578,1.019550,-1.727661,100127.58,-103,+86,-264
212202,8.194,-22.170,1.590,0.936945,1.005716,-1.162029,100127.58,-103,+88,-262
212212,7.648,-22.230,-0.187,0.292028,0.749771,-0.579368,100129.41,-103,+88,-262
212221,8.094,-20.600,-2.953,-0.284247,0.424652,0.168246,100128.77,-104,+88,-261
212232,9.851,-18.376,-5.662,-0.601916,0.122413,0.973860,100127.61,-105,+89,-260
212242,13.695,-12.567,-7.148,-0.687586,-0.448008,1.670924,100129.81,-106,+85,-261
212252,20.000,9.526,0.211,0.190927,-1.065788,1.745951,100129.81,-106,+85,-261
212261,20.991,27.787,0.356,0.129735,-1.030136,0.659915,100130.94,-106,+80,-263
212272,16.106,6.300,-2.513,-1.041439,-0.250596,1.167548,100129.09,-105,+80,-264
212282,14.084,-16.993,1.814,1.611128,-0.633182,2.403107,100129.05,-106,+70,-267
212292,12.106,-18.611,1.735,3.642191,-0.670430,2.690446,100128.16,-108,+54,-270
212301,12.752,-7.822,-2.276,1.860688,-0.528889,2.732483,100128.16,-108,+54,-270
212312,7.559,0.083,0.418,0.660780,-0.345843,2.323290,100130.97,-108,+46,-271
212322,2.140,2.338,6.958,2.207091,0.093679,2.415877,100129.98,-110,+34,-270
212332,3.151,-7.824,9.898,2.392797,-0.129807,2.024245,100126.09,-109,+23,-272
212342,8.954,-15.543,4.270,1.238119,-0.485788,1.584190,100126.05,-109,+23,-272
212352,10.927,-13.150,0.992,-1.085072,-0.354357,1.401144,100126.05,-108,+19,-273
212362,11.437,-5.670,3.423,-2.651603,-0.013275,1.252153,100129.28,-109,+21,-273
212372,9.862,-0.807,3.523,-3.066117,0.066542,1.110612,100129.66,-108,+25,-273
212382,7.628,-2.852,2.505,-2.542521,0.109643,0.988759,100129.23,-108,+25,-273
212391,9.005,-1.759,1.191,-1.618778,0.078780,0.878080,100130.59,-108,+28,-272
212402,9.725,0.522,1.489,-1.037714,0.089423,0.891915,100130.59,-110,+28,-272
212412,9.442,-1.367,1.320,-0.285843,0.043129,0.941933,100131.23,-110,+25,-271
212422,9.895,-4.319,1.950,0.279790,-0.039880,0.913199,100132.50,-110,+25,-271
212432,9.244,-5.310,3.463,0.753012,0.037453,0.843493,100128.56,-111,+22,-270
212442,8.725,-7.338,5.005,0.292028,0.044193,0.841365,100126.56,-110,+18,-271
212452,8.183,-8.550,5.232,-0.710999,0.063349,0.656723,100126.56,-112,+19,-270
212462,8.090,-6.627,4.700,-1.600154,0.153276,0.386943,100129.12,-112,+19,-270
212472,8.622,-3.666,3.199,-2.028503,0.207551,0.248594,100129.48,-112,+23,-270
212482,9.255,-1.255,1.878,-1.832686,0.191056,0.203897,100128.49,-112,+26,-270
212492,9.814,-0.521,1.582,-1.167017,0.082505,0.252851,100131.16,-112,+28,-270
212502,9.451,-1.945,1.474,-0.550834,-0.017531,0.311915,100131.16,-112,+28,-270
212512,9.978,-3.622,2.890,-0.013935,-0.059036,0.450264,100131.50,-112,+28,-268
212521,9.118,-5.523,3.697,-0.227843,-0.117036,0.538594,100127.88,-112,+27,-269
212532,8.778,-5.521,4.022,-0.743458,-0.167586,0.541255,100129.56,-112,+27,-269
212542,8.546,-4.142,4.117,-1.076026,-0.268687,0.572117,100128.45,-112,+27,-269
212552,8.264,-3.291,3.762,-1.025476,-0.339458,0.558282,100128.45,-110,+29,-269
212562,9.141,-3.304,3.239,-0.828063,-0.357017,0.623732,100130.81,-111,+28,-271
212572,9.551,-3.695,2.650,-0.701421,-0.388412,0.732282,100130.19,-110,+28,-271
212582,9.663,-3.754,2.339,-0.653531,-0.396394,0.797732,100129.03,-110,+28,-271
212592,9.705,-4.026,2.013,-0.606705,-0.401715,0.865842,100127.98,-109,+27,-272
212602,9.857,-4.420,1.707,-0.548705,-0.415017,0.867970,100127.98,-108,+27,-274
212612,10.035,-4.439,1.659,-0.491238,-0.434173,0.892979,100130.82,-107,+25,-274
212622,9.783,-5.055,1.855,-0.488577,-0.451201,0.939805,100127.26,-107,+25,-274
212632,9.650,-5.776,1.880,-0.555623,-0.467696,0.955768,100128.77,-106,+23,-275
212642,9.603,-5.880,2.244,-0.742925,-0.463439,0.925970,100126.63,-106,+23,-277
212652,9.663,-5.630,2.570,-0.869035,-0.464504,0.853603,100126.63,-105,+22,-277
212662,9.773,-4.960,2.698,-0.871164,-0.489513,0.848282,100129.98,-105,+22,-277
212672,9.718,-4.882,2.841,-0.968008,-0.609770,0.909475,100128.72,-103,+22,-278
212682,9.433,-4.523,2.504,-1.087200,-0.689054,0.908943,100129.61,-101,+22,-280
212692,9.693,-4.229,2.171,-0.997806,-0.737476,1.000998,100128.14,-100,+23,-281
212702,9.979,-4.448,1.802,-0.915329,-0.796008,1.029199,100128.14,-100,+23,-281
212712,10.630,-4.684,1.707,-0.978650,-0.877953,1.148392,100129.77,-99,+22,-283
212722,10.980,-4.033,2.038,-1.079751,-0.977457,1.228208,100130.59,-96,+22,-286
212732,11.465,-2.782,2.653,-1.065916,-1.181788,1.264392,100125.19,-92,+21,-288
212742,12.143,-2.369,2.863,-0.837641,-1.329714,1.424557,100127.56,-90,+21,-291
212752,12.700,-3.724,2.485,-0.637036,-1.386650,1.604942,100127.56,-90,+20,-291
212762,13.847,-4.797,1.996,-0.700357,-1.452631,1.703915,100128.55,-85,+17,-294
212772,15.054,-4.171,1.741,-0.914265,-1.501053,1.810337,100127.71,-82,+15,-297
212782,16.536,-4.334,2.179,-1.106356,-1.531916,1.925272,100125.73,-78,+14,-301
212792,19.322,-3.282,3.841,-1.325054,-1.611732,1.930061,100127.93,-78,+14,-301
212802,21.878,0.555,6.560,-1.615053,-1.700595,1.961456,100127.93,-72,+13,-304
212812,21.447,3.061,8.064,-1.569292,-1.807549,2.205162,100126.42,-68,+13,-307
212823,19.727,1.997,7.961,-1.060063,-1.962925,2.504740,100125.11,-62,+11,-312
212832,18.463,-0.268,8.458,-0.853072,-2.000172,2.548905,100122.33,-62,+11,-312
212842,15.975,-3.602,7.945,-0.775916,-2.068282,2.504740,100122.38,-56,+8,-315
212852,13.483,-9.133,7.200,-0.420467,-2.159273,2.598923,100122.38,-50,+4,-320
212862,13.617,-11.756,5.397,-0.277329,-2.124154,2.549437,100130.26,-42,+0,-323
212872,14.140,-9.389,4.600,0.020652,-2.085842,2.461107,100124.07,-42,+0,-323
212882,12.330,-5.643,4.837,0.395257,-2.087970,2.282850,100125.23,-35,-3,-325
212892,10.266,-2.180,5.076,0.811367,-2.108723,2.038080,100122.38,-28,-9,-328
212902,7.413,-0.141,4.507,1.408926,-2.099499,1.699835,100122.38,-21,-17,-331
212912,3.986,-0.878,3.503,1.504174,-2.044870,1.479364,100130.09,-21,-17,-331
212922,-0.254,-4.512,2.726,1.306229,-1.791053,1.308557,100127.72,-14,-23,-332
212932,-2.387,-9.179,4.444,1.099239,-1.222228,1.010576,100125.16,-9,-29,-335
212942,-0.573,-9.135,6.327,1.089128,-0.756100,0.592337,100125.89,-7,-33,-333
212952,2.204,-5.229,4.371,0.570321,-0.727898,0.028301,100125.89,-7,-33,-333
212962,3.576,-0.031,2.388,-0.691843,-0.809311,-0.700689,100131.63,-3,-33,-335
212972,3.352,2.766,0.763,-1.742228,-0.846026,-1.096047,100126.54,-1,-25,-337
212982,2.114,3.681,-0.124,-1.621971,-0.750247,-1.269515,100126.07,+0,-19,-340
212993,1.329,3.577,0.434,-0.809439,-0.507072,-1.475441,100125.96,+0,-19,-340
213002,1.042,2.476,1.216,0.054175,-0.246339,-1.718083,100125.96,+1,-14,-340
213012,1.232,0.650,2.068,0.709734,-0.013807,-1.985202,100126.36,+1,-13,-340
213022,1.616,-1.556,2.772,1.140211,0.196377,-2.216138,100126.78,-1,-15,-339
213032,2.283,-3.107,3.143,1.269514,0.435294,-2.448670,100125.73,-1,-15,-339
213042,3.567,-3.971,3.438,1.043899,0.698688,-2.677477,100123.84,-3,-14,-338
213052,4.120,-2.971,3.535,0.671954,0.858853,-2.902028,100123.84,-7,-13,-337
213062,3.875,-0.491,3.488,0.597991,1.009440,-3.222358,100126.49,-11,-10,-336
213072,4.386,0.871,3.423,1.082743,1.264321,-3.520339,100125.87,-11,-10,-336
213083,5.427,0.111,3.989,1.780871,1.498981,-3.729458,100126.34,-17,-9,-333
213092,6.352,-1.829,3.951,2.210816,1.663935,-3.857165,100121.71,-23,-9,-332
213102,7.385,-3.712,3.457,2.387476,1.776211,-3.964651,100121.71,-30,-9,-328
213112,8.246,-4.508,2.730,2.492302,1.890082,-4.055642,100126.38,-30,-9,-328
213123,9.437,-4.526,2.589,2.608834,2.046522,-4.196118,100124.43,-36,-11,-325
213132,10.436,-6.175,2.592,2.403972,2.039073,-3.934320,100125.38,-43,-10,-320
213138,9.657,-4.721,3.326,2.828595,2.190724,-4.320100,100125.23,-43,-10,-320
213147,10.973,-5.100,4.100,2.815293,2.211476,-4.572852,100125.23,-52,-10,-316
213157,13.385,-7.237,4.885,2.650871,2.277458,-4.652668,100125.23,-59,-9,-312
213168,15.067,-9.193,5.931,2.615219,2.410485,-4.744724,100128.05,-67,-6,-307
213178,16.211,-10.667,6.325,2.645550,2.594063,-4.799531,100125.58,-67,-6,-307
213187,16.951,-12.614,6.265,2.622137,2.708467,-4.701623,100124.45,-75,-2,-302
213197,16.720,-14.107,4.830,2.760485,2.706871,-4.581898,100124.45,-82,+0,-295
213208,17.279,-16.254,3.179,2.954705,2.674944,-4.333403,100127.68,-90,+1,-290
213217,18.830,-19.925,0.446,3.068577,2.516375,-3.979018,100127.68,-90,+1,-290
213227,19.338,-23.371,-1.840,2.890320,2.198706,-3.644321,100129.98,-96,+5,-284
213237,16.600,-23.681,-2.347,2.309256,1.806541,-3.269715,100126.37,-101,+6,-280
213248,12.118,-22.904,-1.028,1.507367,1.436192,-2.696101,100129.98,-104,+9,-277
213257,9.874,-25.675,0.256,1.167881,1.262725,-1.971900,100129.98,-104,+9,-277
213267,7.672,-28.155,-1.766,0.422927,0.865771,-1.114139,100128.82,-106,+11,-274
213277,6.998,-27.044,-4.438,-0.380559,0.532670,-0.114837,100129.82,-108,+13,-272
213287,9.592,-22.541,-6.439,-0.897769,0.190523,0.988227,100128.82,-108,+11,-272
213298,13.953,-15.128,-7.466,-0.816889,-0.430449,1.873125,100130.18,-108,+11,-272
213308,20.560,7.016,0.985,0.381422,-1.204668,2.174299,100128.83,-106,+7,-275
213317,23.907,33.325,-1.455,1.030064,-1.391971,1.051016,100128.63,-103,+0,-278
213327,16.064,10.919,-2.948,-1.013769,-0.501751,1.015897,100127.31,-101,+0,-280
213338,13.612,-16.809,1.322,1.352523,-0.664577,2.705345,100127.31,-101,+0,-280
213347,12.512,-24.306,2.274,3.721475,-0.711403,3.181583,100126.73,-99,-14,-280
213357,16.163,-14.781,-3.036,2.032027,-0.632118,3.242244,100126.73,-96,-31,-280
213367,10.855,-1.165,-1.987,1.040707,-0.570926,2.764941,100133.32,-94,-41,-280
213372,4.933,5.550,3.748,1.812266,-0.200577,2.762281,100130.74,-94,-41,-280
213383,0.046,2.186,10.071,2.697696,-0.073935,2.649473,100125.71,-92,-54,-278
213392,1.256,-10.594,8.877,2.789751,-0.413421,2.042336,100125.34,-89,-66,-277
213402,8.327,-18.550,1.012,0.718780,-0.523568,1.610795,100125.34,-89,-66,-277
213412,12.371,-13.435,0.517,-1.803952,-0.206963,1.570355,100128.13,-86,-69,-279
213423,13.258,-4.504,3.728,-2.915529,0.043661,1.417639,100127.77,-85,-64,-282
213432,10.215,-0.099,3.701,-2.893181,0.072395,1.247897,100127.82,-85,-60,-284
213442,7.612,-1.235,2.487,-2.158337,0.132523,1.138282,100127.30,-85,-60,-284
213452,8.233,-0.116,1.102,-1.266521,0.101661,1.073897,100127.30,-84,-58,-285
213463,8.972,0.184,1.369,-0.552430,0.076120,1.201071,100126.99,-82,-59,-285
213473,9.060,-2.776,1.393,0.255845,-0.015403,1.283548,100126.68,-81,-64,-285
213482,9.547,-5.689,1.639,0.563936,-0.036155,1.096777,100128.68,-81,-64,-285
213492,9.687,-5.919,3.764,0.903777,0.106273,0.979004,100128.77,-80,-68,-284
213502,8.272,-8.250,5.234,0.029698,0.064413,0.841365,100128.77,-80,-71,-283
213513,7.524,-8.497,6.270,-0.908944,0.105918,0.523695,100129.41,-79,-70,-284
213522,7.756,-5.946,5.370,-1.648044,0.152212,0.238484,100126.89,-79,-70,-284
213532,8.219,-3.102,3.286,-2.034356,0.224046,0.109714,100128.56,-79,-66,-286
213542,9.407,-1.701,1.787,-1.888558,0.225111,0.093750,100126.11,-80,-60,-287
213553,10.077,-1.556,1.720,-1.407531,0.086230,0.194851,100126.11,-80,-56,-288
213563,10.349,-1.882,2.452,-0.501348,0.026634,0.321493,100129.24,-80,-56,-288
213572,9.761,-4.484,2.993,-0.317770,-0.070742,0.538594,100128.62,-79,-56,-288
213582,9.363,-5.909,3.406,-0.647678,-0.122357,0.583291,100128.73,-78,-56,-289
213593,9.390,-5.130,3.882,-1.111678,-0.134064,0.608833,100127.77,-77,-55,-290
213603,9.243,-4.204,3.639,-1.376136,-0.146302,0.619475,100127.77,-77,-55,-290
213612,9.658,-3.340,3.051,-1.334631,-0.194192,0.700888,100131.47,-77,-52,-291
213622,9.870,-3.244,2.304,-1.184577,-0.271880,0.832851,100127.80,-76,-52,-292
213633,9.808,-3.652,1.896,-0.988760,-0.353825,0.934484,100129.16,-74,-50,-295
213643,10.131,-3.758,1.714,-0.905219,-0.440559,1.152649,100124.95,-74,-50,-295
213652,9.981,-4.093,1.778,-0.843494,-0.466632,1.276630,100124.95,-71,-51,-297
213662,9.628,-5.478,2.031,-0.854668,-0.512926,1.474043,100128.88,-68,-52,-298
213672,7.894,-4.592,1.808,-0.867971,-0.463972,1.045163,100129.09,-66,-52,-299
213683,9.035,-4.252,2.111,-0.746650,-0.395862,0.742392,100128.67,-66,-52,-299
213692,12.017,-7.015,2.024,-0.748779,-0.477806,1.230869,100127.72,-64,-52,-300
213702,7.511,-4.817,2.382,-0.663641,-0.476210,1.010044,100127.72,-62,-54,-302
213712,9.392,-5.174,2.191,-0.806247,-0.493770,0.728557,100129.77,-59,-52,-303
213723,10.518,-5.274,1.871,-0.867971,-0.612430,0.895108,100129.50,-57,-52,-305
213733,9.922,-5.399,1.770,-0.950980,-0.687990,1.100502,100126.61,-57,-52,-305
213742,9.408,-5.048,1.717,-0.969072,-0.727366,1.140942,100126.25,-54,-52,-307
213752,10.503,-4.120,1.470,-0.960026,-0.776852,1.188832,100126.25,-51,-50,-310
213763,11.565,-4.112,2.134,-0.906815,-0.931164,1.240979,100128.72,-47,-50,-312
213773,12.032,-3.299,2.851,-0.803586,-1.151989,1.226080,100126.36,-47,-50,-312
213782,12.009,-2.933,2.709,-0.638100,-1.269054,1.274502,100125.20,-42,-50,-315
213792,12.870,-3.492,1.886,-0.489109,-1.319072,1.376135,100127.16,-36,-52,-317
213803,13.920,-4.214,1.794,-0.568393,-1.362705,1.560245,100127.16,-30,-52,-320
213813,14.736,-4.171,2.321,-0.814760,-1.403145,1.717749,100128.38,-30,-52,-320
213823,16.112,-3.921,3.373,-1.103696,-1.438797,1.766171,100127.27,-24,-52,-323
213832,18.042,-2.648,4.580,-1.376668,-1.498925,1.826300,100124.59,-18,-51,-325
213842,19.322,-0.407,6.120,-1.695402,-1.512760,1.978483,100127.27,-11,-49,-328
213853,18.999,1.482,7.406,-1.958796,-1.544686,2.249327,100127.27,-11,-49,-328
213863,19.555,2.837,7.872,-1.885365,-1.608008,2.407364,100124.27,-3,-45,-332
213872,19.203,1.616,8.218,-1.701787,-1.627696,2.535070,100125.69,+3,-43,-336
213882,17.198,-1.179,7.595,-1.361769,-1.653769,2.618079,100123.58,+12,-42,-338
213893,15.991,-6.660,5.437,-1.048356,-1.736246,2.688850,100124.63,+12,-42,-338
213903,15.932,-12.455,5.522,-0.586485,-1.933659,2.734611,100124.63,+20,-44,-340
213912,15.936,-11.492,5.752,-0.386412,-2.037952,2.595198,100127.56,+31,-45,-342
213922,13.848,-6.525,6.457,-0.126742,-2.023585,2.420666,100123.69,+40,-48,-343
213933,11.375,-3.073,6.543,0.331936,-1.940044,2.215804,100124.20,+40,-48,-343
213943,9.104,0.013,6.410,0.855000,-1.872998,1.803419,100123.42,+49,-51,-343
213952,5.944,2.255,5.185,1.441917,-1.786796,1.300575,100123.42,+57,-58,-343
213962,1.926,2.209,3.171,1.328578,-1.750613,0.866374,100126.43,+64,-64,-342
213972,-2.399,-2.527,1.933,0.905551,-1.689420,0.730154,100123.91,+64,-64,-342
213983,-4.140,-8.814,3.119,0.858725,-1.126448,0.535402,100127.01,+70,-68,-342
213993,-0.250,-9.892,4.642,1.231202,-0.636907,0.062356,100125.85,+73,-73,-340
214002,2.312,-7.045,4.740,1.450963,-0.803458,-0.525625,100125.85,+75,-78,-337
214012,1.445,-4.422,3.189,1.071569,-0.733219,-0.917258,100127.80,+75,-78,-337
214023,1.146,-1.824,1.203,0.247863,-0.643825,-1.228542,100124.33,+77,-81,-337
214033,1.081,0.892,-0.056,-0.690779,-0.593274,-1.596762,100124.95,+77,-80,-337
214042,1.244,2.691,-0.455,-1.231402,-0.459715,-1.927202,100124.64,+78,-76,-339
214052,1.464,3.011,0.533,-0.981843,-0.245274,-2.244340,100124.64,+78,-76,-339
214063,1.959,2.359,1.401,-0.175164,-0.044137,-2.567331,100124.23,+76,-73,-339
214073,2.630,0.718,2.227,0.695367,0.178285,-2.782835,100125.77,+73,-74,-338
214078,3.049,-0.886,2.934,1.171605,0.350688,-2.875954,100125.19,+73,-74,-338
214087,3.503,-2.477,3.621,1.390835,0.518835,-2.948853,100125.19,+69,-78,-336
214097,4.180,-4.014,4.198,1.429679,0.724230,-3.085073,100120.61,+63,-84,-335
214108,4.715,-3.609,4.380,1.199807,0.910468,-3.353789,100120.61,+55,-86,-332
214118,5.118,-2.204,4.080,0.983771,1.097771,-3.691679,100125.05,+55,-86,-332
214128,6.369,-1.070,3.787,1.303037,1.322853,-3.920486,100123.20,+47,-88,-329
214137,7.705,-1.659,3.794,1.937311,1.490468,-4.007751,100120.70,+37,-93,-327
214148,8.971,-3.372,3.406,2.496027,1.604871,-4.100339,100120.70,+26,-99,-320
214158,10.198,-5.427,2.400,2.859990,1.670853,-4.199843,100120.70,+26,-99,-320
214168,10.967,-7.373,2.451,3.107421,1.714486,-4.200376,100125.63,+14,-105,-314
214177,10.063,-9.213,3.368,3.297384,1.798027,-4.167917,100124.99,+1,-111,-307
214188,10.572,-9.585,5.456,3.164356,1.983201,-4.263165,100123.85,-10,-117,-299
214198,12.281,-9.919,6.244,2.842962,2.069935,-4.380229,100125.16,-10,-117,-299
214208,13.835,-10.612,5.895,2.614155,2.103458,-4.421733,100125.16,-25,-119,-292
214218,14.117,-11.249,5.385,2.439623,2.148687,-4.420137,100128.02,-39,-118,-284
214227,13.781,-11.033,5.668,2.235293,2.260962,-4.327017,100122.46,-53,-117,-278
214238,14.064,-11.677,5.283,2.130467,2.415807,-4.101935,100125.24,-53,-117,-278
214248,14.522,-15.659,3.422,2.078321,2.437091,-3.901330,100124.99,-65,-114,-268
214258,15.373,-17.280,-0.062,1.992119,2.239146,-3.862486,100128.73,-78,-111,-261
214267,15.682,-16.388,-2.306,1.743623,2.015660,-3.745422,100127.21,-89,-107,-253
214278,14.988,-16.884,-1.940,1.614853,1.798027,-3.396358,100127.21,-89,-107,-253
214288,12.603,-18.845,0.342,1.342945,1.463330,-2.869037,100128.52,-99,-101,-247
214298,11.419,-20.406,2.114,0.889055,1.163220,-2.253918,100124.63,-105,-97,-243
214307,9.889,-21.012,-0.202,0.560211,0.873220,-1.601019,100124.63,-108,-93,-240
214313,8.596,-22.865,-1.354,0.408560,0.672083,-0.927368,100127.91,-108,-93,-240
214323,8.504,-22.837,-2.604,0.515514,0.517771,-0.294158,100127.75,-111,-93,-238
214333,9.876,-21.621,-5.025,0.397918,0.238945,0.512521,100128.64,-110,-97,-236
214343,11.982,-19.075,-8.231,0.384615,-0.250596,1.360704,100122.08,-110,-97,-236
214352,17.056,-10.831,-7.272,0.468156,-0.957769,2.124813,100122.08,-106,-101,-237
214363,27.392,15.664,-1.988,1.404137,-1.659622,2.054043,100129.08,-102,-111,-239
214373,24.050,15.804,-5.561,0.339386,-1.192430,1.392630,100126.72,-97,-114,-241
214383,16.239,-12.359,-3.412,0.607037,-0.675751,2.660116,100127.77,-97,-114,-241
214392,10.514,-24.384,3.406,2.842962,-0.934357,3.256079,100122.78,-91,-125,-238
214403,10.155,-9.558,-1.217,2.699825,-0.593806,3.153913,100122.78,-84,-139,-235
214413,7.180,3.900,1.581,0.690046,-0.426192,2.717052,100131.24,-78,-146,-235
214423,-0.657,5.007,7.857,1.830357,-0.334137,2.552629,100126.88,-78,-146,-235
214432,-0.090,-5.764,8.877,3.285146,-0.349568,2.351492,100125.21,-73,-157,-228
214443,9.274,-17.623,3.694,2.357146,-0.862522,2.009878,100123.79,-67,-167,-225
214453,12.986,-17.544,1.100,-0.158669,-0.628926,1.813529,100123.79,-62,-170,-226
214463,12.291,-9.899,2.977,-3.005988,-0.150027,1.478832,100126.84,-62,-170,-226
214473,9.996,-3.071,1.042,-3.553529,-0.046798,1.149456,100128.26,-59,-166,-235
214482,9.278,0.606,-0.652,-2.410558,0.048982,1.185108,100125.30,-56,-162,-241
214493,9.533,0.792,-0.178,-1.258008,0.114964,1.143071,100122.63,-54,-162,-243
214503,9.195,-0.670,1.247,-0.183146,-0.016467,1.037181,100122.63,-54,-162,-243
214513,8.750,-2.411,1.885,0.752835,-0.214412,1.122851,100126.73,-51,-165,-243
214522,8.848,-3.974,1.928,1.105624,-0.278797,1.204264,100128.46,-48,-170,-240
214533,8.935,-6.778,3.065,0.940138,-0.266559,1.086667,100129.20,-45,-173,-239
214543,8.600,-9.956,5.011,0.263294,-0.210687,0.870631,100126.57,-45,-173,-239
214553,8.156,-9.413,5.076,-0.853072,-0.114375,0.614686,100126.57,-43,-175,-239
214563,8.496,-5.847,4.021,-1.762448,-0.026577,0.420998,100126.96,-42,-172,-243
214573,9.056,-1.727,2.524,-1.729989,-0.024449,0.384814,100127.07,-40,-169,-247
214583,9.590,0.607,1.006,-1.065916,-0.080320,0.496557,100125.18,-40,-169,-247
214593,10.135,-1.350,0.653,-0.227311,-0.153752,0.582759,100124.87,-40,-169,-249
214603,10.096,-4.557,1.356,0.220193,-0.195788,0.652466,100124.87,-37,-168,-250
214612,9.592,-6.517,2.220,0.055239,-0.155348,0.684924,100127.45,-35,-171,-248
214623,9.054,-5.959,3.007,-0.372577,-0.078724,0.637034,100127.80,-35,-171,-248
214633,9.130,-4.866,2.961,-0.766870,-0.042009,0.660979,100127.96,-34,-171,-250
214643,8.744,-3.783,2.979,-0.800393,-0.031366,0.543383,100125.40,-32,-170,-252
214652,9.808,-3.770,2.492,-0.830724,-0.085109,0.529548,100125.40,-31,-169,-253
214663,9.936,-3.393,2.149,-0.754100,-0.174504,0.594998,100129.05,-31,-169,-253
214673,9.738,-3.187,2.178,-0.629586,-0.313385,0.711530,100127.31,-29,-169,-255
214683,9.433,-3.466,2.583,-0.540724,-0.455458,0.808906,100128.47,-26,-168,-257
214693,9.523,-4.015,2.754,-0.484852,-0.521439,0.891383,100127.05,-22,-169,-259
214703,9.798,-4.835,2.256,-0.422063,-0.540595,0.960557,100127.05,-22,-169,-259
214713,9.807,-5.270,1.701,-0.428449,-0.533146,1.014832,100128.49,-19,-169,-260
214723,9.794,-5.401,1.365,-0.533274,-0.513990,1.012704,100126.04,-15,-170,-263
214733,9.858,-5.337,1.027,-0.612026,-0.501751,0.993548,100129.87,-12,-170,-265
214743,9.972,-5.535,0.651,-0.748247,-0.488981,0.917988,100126.04,-8,-168,-267
214753,10.168,-4.526,0.736,-0.635439,-0.505476,0.965878,100126.04,-8,-168,-267
214763,9.826,-5.021,0.991,-0.490173,-0.563476,1.083475,100126.23,-5,-169,-268
214773,9.288,-5.631,1.392,-0.617880,-0.579439,1.019089,100126.34,-1,-169,-270
214782,9.858,-4.930,2.128,-0.717384,-0.644357,1.063787,100129.74,+1,-168,-273
214793,9.632,-4.556,2.688,-0.649274,-0.713531,1.066447,100126.12,+1,-168,-273
214803,9.533,-4.863,2.524,-0.583292,-0.767274,1.106887,100126.12,+7,-168,-275
214813,10.241,-5.195,1.971,-0.629586,-0.835384,1.194153,100129.41,+12,-168,-278
214822,10.967,-5.203,1.544,-0.710467,-0.901898,1.265988,100126.95,+17,-168,-280
214833,11.375,-4.719,1.101,-0.804118,-0.954045,1.354851,100128.63,+17,-168,-280
214843,11.744,-3.776,1.116,-0.865311,-0.997146,1.438392,100127.21,+23,-166,-282
214853,12.425,-3.187,1.440,-0.911604,-1.085476,1.550667,100127.21,+29,-166,-285
214863,13.172,-2.843,1.576,-0.863182,-1.206797,1.679970,100129.06,+36,-164,-287
214873,13.904,-3.382,1.715,-0.783898,-1.323329,1.830557,100129.22,+36,-164,-287
214883,14.656,-3.630,2.631,-0.797733,-1.397292,1.956135,100125.02,+44,-163,-290
214893,16.010,-3.849,4.219,-1.026008,-1.411659,2.052979,100123.19,+53,-162,-293
214903,18.004,-3.454,6.088,-1.325054,-1.399421,2.120024,100123.19,+61,-158,-296
214913,19.009,-1.894,8.022,-1.703384,-1.384521,2.201437,100127.92,+61,-158,-296
214923,19.038,0.225,9.842,-1.956668,-1.374411,2.331804,100124.77,+70,-153,-300
214933,19.061,0.599,10.591,-1.967310,-1.389310,2.491437,100126.14,+80,-148,-304
214943,18.311,-1.808,10.929,-1.958264,-1.371219,2.593602,100122.63,+89,-142,-308
214952,17.607,-5.252,9.554,-1.894943,-1.364833,2.655327,100122.63,+89,-142,-308
214963,18.809,-9.002,4.959,-1.785329,-1.570760,2.712795,100125.21,+98,-137,-312
214973,18.948,-8.580,4.228,-1.526723,-1.828833,2.544116,100124.43,+110,-132,-314
214983,15.493,-4.976,5.282,-1.400081,-1.801163,2.312116,100123.80,+118,-127,-315
214993,12.494,-1.976,5.961,-0.529017,-1.835218,2.261565,100122.85,+118,-127,-315
215003,10.496,0.427,6.765,0.468156,-1.890026,1.986465,100122.85,+128,-126,-315
215013,7.436,2.635,4.232,1.463734,-1.903861,1.546942,100126.66,+136,-129,-311
215023,2.471,1.180,3.517,1.598357,-1.801695,1.171805,100127.72,+143,-134,-307
215033,-1.946,-5.277,2.154,1.201404,-1.490943,0.908943,100123.67,+143,-134,-307
215043,-1.615,-10.268,2.799,1.423293,-1.002467,0.531145,100124.09,+148,-136,-303
215053,1.903,-8.485,3.060,2.098541,-0.814632,0.025640,100124.09,+151,-142,-298
215063,2.814,-5.110,2.802,1.971899,-0.726834,-0.421864,100128.88,+151,-148,-293
215073,3.000,-2.635,1.927,1.088596,-0.738008,-0.796469,100126.99,+151,-148,-293
215084,2.416,0.030,0.236,-0.041073,-0.889127,-1.342946,100126.10,+151,-150,-292
215093,1.653,2.474,-0.273,-0.595531,-0.765146,-1.822377,100127.73,+150,-150,-292
215103,1.259,3.519,0.608,-0.294357,-0.551770,-2.173569,100127.73,+146,-151,-291
215113,1.225,2.851,1.329,0.750175,-0.309128,-2.489110,100126.59,+146,-151,-291
215123,1.512,0.883,2.323,1.698926,-0.026577,-2.720046,100124.29,+141,-157,-288
215133,1.878,-1.732,3.236,2.174632,0.225111,-2.880211,100122.55,+134,-164,-283
215143,2.376,-3.654,3.727,2.194320,0.440083,-3.070174,100120.77,+125,-170,-277
215153,3.403,-4.192,3.652,1.901660,0.664101,-3.298981,100120.77,+125,-170,-277
215163,4.568,-2.701,3.348,1.424890,0.888119,-3.552798,100125.27,+115,-177,-273
215173,5.935,-0.375,2.673,1.089661,1.081807,-3.766174,100119.70,+103,-181,-269
215183,6.998,0.660,2.033,1.274303,1.251550,-3.951348,100120.85,+91,-185,-266
215193,7.621,-0.267,1.893,1.779275,1.421825,-4.066284,100121.65,+91,-185,-266
215203,8.259,-2.333,2.209,2.426852,1.546871,-4.114173,100121.65,+76,-189,-260
215214,8.934,-4.754,2.646,2.953641,1.622431,-4.144504,100125.81,+61,-195,-251
215223,10.064,-6.542,2.157,3.207457,1.627752,-4.244541,100125.08,+47,-201,-241
215233,11.424,-8.185,2.175,3.360705,1.595293,-4.370119,100123.66,+31,-205,-231
215243,11.999,-9.099,2.729,3.521402,1.523458,-4.497825,100121.61,+31,-205,-231
215254,12.491,-8.713,3.924,3.575145,1.496321,-4.725036,100121.61,+14,-207,-219
215263,13.173,-8.149,5.097,3.644852,1.503770,-4.928301,100125.52,-2,-208,-206
215273,14.382,-8.812,5.620,3.852374,1.529312,-4.983641,100127.09,-17,-208,-195
215283,15.304,-12.281,5.845,3.924741,1.553789,-4.911274,100125.47,-17,-208,-195
215293,15.907,-14.984,5.214,3.698063,1.522926,-4.852210,100124.20,-35,-205,-182
215303,16.212,-16.446,4.778,3.230338,1.547403,-4.767072,100124.20,-50,-201,-170
215313,16.920,-17.885,4.192,2.860522,1.608064,-4.541458,100125.45,-64,-195,-161
215323,17.261,-19.769,3.854,2.507733,1.557513,-4.232302,100129.01,-64,-195,-161
215333,15.492,-21.845,3.878,2.018724,1.416504,-3.861422,100124.80,-76,-189,-153
215344,12.647,-22.998,3.472,1.178523,1.250486,-3.363367,100124.07,-85,-181,-146
215353,9.989,-25.908,2.506,0.367588,1.233459,-2.774321,100124.07,-93,-175,-144
215363,7.817,-27.009,0.611,-0.464100,1.179716,-2.098010,100127.99,-93,-175,-144
215373,7.181,-24.393,-1.516,-1.411610,0.976095,-1.193068,100129.05,-97,-170,-143
215384,9.219,-21.407,-2.523,-1.691677,0.719973,-0.302139,100126.90,-98,-168,-146
215393,10.008,-19.194,-3.276,-1.527787,0.203294,0.704080,100125.59,-96,-171,-149
215403,11.012,-16.745,-3.639,-0.881806,-0.324027,1.598025,100125.59,-96,-171,-149
215413,13.526,-9.206,-1.795,-0.195385,-0.871568,2.355217,100127.15,-91,-175,-151
215424,17.959,13.670,2.740,0.814560,-1.198815,2.249859,100125.10,-84,-181,-152
215433,21.132,29.616,-3.481,-0.084174,-0.906687,1.101034,100124.10,-80,-183,-154
215443,17.573,7.335,-8.402,-1.263329,-0.632650,1.291530,100126.09,-80,-183,-154
215453,14.383,-16.751,0.894,1.363697,-0.850283,2.456318,100126.09,-75,-187,-156
215463,12.359,-20.571,3.704,3.524063,-0.632650,3.048556,100126.42,-68,-197,-148
215474,13.253,-12.452,2.331,1.712229,-0.331476,2.990024,100125.89,-59,-205,-145
215483,11.613,0.894,0.916,1.743091,-0.378834,3.163491,100125.47,-59,-205,-145
215493,3.139,5.071,6.248,2.442816,-0.281990,2.847950,100126.78,-50,-212,-140
215503,-0.719,-7.359,9.022,2.676944,-0.531550,2.108318,100126.78,-43,-218,-133
215514,6.995,-16.394,2.448,1.843660,-0.939678,1.776814,100128.25,-38,-221,-130
215523,12.504,-15.836,0.580,-0.448669,-0.664577,1.798630,100124.42,-38,-221,-130
215533,13.704,-8.974,1.814,-2.314778,-0.396394,1.610263,100128.58,-32,-224,-135
215543,11.896,-3.178,1.701,-2.882007,-0.329348,1.449566,100126.84,-28,-224,-144
215554,8.586,-1.784,1.460,-2.449401,-0.239953,1.436263,100126.84,-22,-225,-151
215564,7.246,-0.397,0.677,-1.608668,-0.214944,1.376135,100126.96,-22,-225,-151
215573,7.696,1.421,0.755,-0.641292,-0.170779,1.308025,100126.85,-19,-226,-155
215583,8.723,-0.388,0.624,0.368120,-0.179293,1.290997,100124.12,-14,-228,-155
215593,9.444,-3.255,1.432,1.095514,-0.204302,1.253218,100123.76,-10,-231,-151
215604,8.886,-5.478,2.774,1.214174,-0.220797,1.106355,100123.76,-10,-231,-151
215613,8.465,-6.642,3.440,0.976321,-0.161733,0.922245,100127.11,-6,-233,-148
215623,8.538,-7.841,3.936,0.269679,-0.105330,0.889255,100127.75,-3,-234,-146
215633,8.164,-8.284,4.125,-0.688118,0.023441,0.738135,100125.55,-1,-235,-149
215644,8.370,-6.432,3.026,-1.453292,0.138377,0.531145,100127.44,-1,-235,-149
215653,9.005,-3.485,2.215,-1.677310,0.161790,0.418869,100127.44,+0,-234,-153
215663,9.867,-1.138,1.310,-1.425090,0.102193,0.415677,100126.13,+1,-234,-158
215673,10.294,-1.074,0.675,-0.844026,0.017056,0.541787,100129.80,+2,-233,-160
215684,10.288,-2.545,0.901,-0.295421,-0.050522,0.707805,100126.87,+2,-233,-160
215694,9.548,-4.041,2.050,-0.074596,-0.060100,0.810502,100125.09,+5,-234,-161
215703,9.238,-5.490,2.762,-0.140045,-0.069146,0.824869,100125.09,+8,-236,-161
215713,9.026,-5.904,2.707,-0.372045,-0.060100,0.811566,100128.55,+10,-236,-163
215724,8.762,-5.636,2.798,-0.625861,-0.000504,0.804649,100127.30,+14,-236,-165
215734,9.252,-4.847,2.183,-0.816357,0.054303,0.833915,100126.26,+14,-236,-165
215743,9.795,-4.299,1.722,-0.877549,0.077716,0.911071,100126.93,+15,-236,-168
215753,10.246,-4.039,1.736,-0.876485,0.019716,1.008447,100126.93,+19,-236,-170
215763,10.265,-3.764,2.154,-0.814760,-0.072871,1.104759,100128.34,+23,-236,-173
215774,10.321,-3.582,1.916,-0.724834,-0.146834,1.213309,100125.40,+23,-236,-173
215783,10.442,-4.470,1.892,-0.664705,-0.210155,1.258539,100124.82,+28,-237,-175
215793,10.622,-5.351,1.860,-0.745586,-0.268155,1.238319,100126.49,+32,-237,-178
215803,10.536,-5.461,1.686,-0.919586,-0.317641,1.187236,100126.49,+36,-237,-181
215814,10.440,-4.915,1.903,-1.020155,-0.403311,1.139346,100127.09,+36,-237,-181
215823,10.513,-4.468,2.085,-0.973329,-0.518247,1.198410,100127.34,+41,-236,-184
215833,10.397,-5.027,1.988,-0.888191,-0.603916,1.283016,100126.30,+45,-236,-187
215843,10.412,-5.833,1.709,-0.975990,-0.693311,1.347933,100127.03,+51,-235,-190
215854,10.527,-5.040,2.112,-1.182980,-0.791219,1.428814,100127.03,+51,-235,-190
215864,11.065,-4.211,2.965,-1.332503,-0.924246,1.488942,100128.68,+56,-234,-195
215873,12.069,-4.052,3.071,-1.264925,-1.058870,1.543217,100127.05,+63,-233,-199
215883,13.264,-5.082,2.388,-1.149457,-1.151457,1.635272,100126.57,+71,-232,-203
215894,14.641,-6.370,1.872,-1.203732,-1.228613,1.690612,100126.57,+71,-232,-203
215904,16.318,-3.909,1.730,-1.345806,-1.318008,1.798098,100126.57,+78,-230,-207
215913,17.844,-2.478,2.717,-1.551732,-1.360044,1.963052,100129.77,+86,-228,-213
215923,19.115,-0.711,3.505,-1.652301,-1.406870,2.157272,100126.41,+96,-225,-218
215933,19.461,0.299,4.193,-1.640062,-1.455292,2.406299,100128.68,+96,-225,-218
215944,20.792,0.558,5.790,-1.577806,-1.507439,2.631382,100127.79,+106,-222,-222
215953,23.474,0.630,8.508,-1.736374,-1.524466,2.692042,100127.79,+117,-218,-226
215959,24.403,1.405,10.281,-1.950815,-1.504246,2.711198,100128.54,+117,-218,-226
215968,22.253,1.644,10.614,-1.996044,-1.507439,2.807510,100128.54,+127,-213,-232
215979,17.462,-2.479,9.994,-1.704980,-1.529255,2.943730,100126.96,+140,-209,-236
215989,15.129,-9.886,7.940,-1.097311,-1.631420,3.052281,100125.40,+152,-204,-238
215999,15.400,-12.086,4.544,-0.609898,-1.761255,2.916593,100126.23,+152,-204,-238
216008,14.232,-8.617,4.376,-0.588614,-1.683567,2.508996,100128.98,+162,-200,-239
216018,11.513,-4.123,5.196,-0.092155,-1.645255,2.289767,100122.30,+173,-197,-238
216029,9.743,0.334,5.838,0.682064,-1.563842,1.908777,100121.63,+180,-197,-235
216039,7.308,3.610,4.602,1.409991,-1.460081,1.363364,100121.63,+180,-197,-235
216048,2.546,4.084,2.986,1.330706,-1.505842,0.796135,100127.82,+185,-199,-230
216058,-3.337,-0.971,1.176,0.853936,-1.473384,0.499750,100127.82,+189,-201,-226
216069,-5.470,-8.643,1.557,0.669826,-0.946063,0.374704,100130.18,+191,-201,-223
216079,-1.734,-12.163,4.148,1.315275,-0.376173,0.055261,100126.38,+191,-201,-223
216088,1.964,-9.668,2.804,1.628688,-0.493770,-0.566066,100126.38,+190,-205,-218
216098,2.830,-5.033,0.679,1.075826,-0.681604,-1.127441,100124.37,+188,-208,-214
216109,2.099,-2.090,-0.180,0.070670,-0.625201,-1.228010,100124.37,+185,-209,-215
216119,1.426,0.676,-1.267,-0.762081,-0.765146,-1.416377,100127.09,+185,-209,-215
216129,0.086,3.044,-1.584,-1.208521,-0.718852,-1.883037,100126.80,+182,-210,-218
216138,0.090,3.770,0.029,-1.011109,-0.429384,-2.270413,100124.96,+176,-211,-220
216148,0.491,3.545,1.235,-0.244339,-0.242082,-2.575312,100124.96,+168,-213,-220
216159,0.984,1.966,2.149,0.766670,-0.074467,-2.799330,100124.96,+168,-213,-220
216169,1.791,-0.056,2.965,1.743091,0.160193,-2.971734,100126.81,+159,-218,-215
216178,2.430,-1.856,3.693,2.258706,0.417202,-3.111679,100125.39,+148,-224,-209
216188,2.865,-3.887,4.194,2.249128,0.644413,-3.225018,100124.14,+136,-231,-203
216199,3.377,-5.106,4.194,1.969238,0.823202,-3.392633,100123.45,+136,-231,-203
216209,3.929,-4.762,4.049,1.617513,0.975917,-3.640064,100123.45,+124,-235,-198
216219,4.821,-3.350,4.019,1.373275,1.159495,-3.935917,100127.27,+108,-239,-194
216228,5.966,-2.045,3.994,1.440853,1.367550,-4.188669,100123.97,+92,-241,-189
216239,7.117,-1.882,4.283,1.736706,1.596889,-4.350430,100124.52,+92,-241,-189
216249,8.388,-2.346,4.588,2.020853,1.806009,-4.429715,100124.52,+75,-244,-183
216259,10.223,-3.004,4.307,2.192724,1.902853,-4.461641,100127.31,+57,-244,-175
216268,11.168,-4.434,3.858,2.439623,1.954467,-4.543586,100124.47,+39,-245,-167
216279,11.173,-6.330,4.200,2.724834,2.076320,-4.519109,100124.47,+39,-245,-167
216289,12.057,-7.808,4.983,2.823806,2.225311,-4.484522,100125.84,+21,-244,-156
216299,14.552,-9.598,5.937,2.695568,2.335458,-4.505806,100124.06,+3,-241,-145
216308,17.010,-11.317,6.831,2.606705,2.364192,-4.611696,100124.06,-12,-237,-134
216314,18.204,-12.337,7.629,2.692375,2.388669,-4.730889,100128.04,-12,-237,-134
216324,18.769,-13.094,8.180,2.886595,2.432834,-4.787292,100127.68,-28,-231,-123
216334,18.917,-14.393,6.704,3.021219,2.465293,-4.702687,100125.59,-44,-224,-110
216344,18.322,-17.924,3.997,2.764742,2.386008,-4.499953,100124.52,-44,-224,-110
216353,17.426,-18.563,0.298,2.422063,2.156137,-4.363201,100124.52,-57,-216,-100
216364,16.487,-18.372,-1.463,2.102798,2.054504,-4.024247,100126.91,-70,-207,-90
216374,14.714,-17.848,-0.926,1.730321,1.944357,-3.425092,100128.23,-78,-198,-83
216384,12.316,-20.381,1.610,1.185440,1.741091,-2.719514,100124.91,-78,-198,-83
216393,10.495,-24.936,2.200,0.578835,1.486743,-2.094817,100125.45,-84,-192,-77
216403,8.641,-26.018,-0.034,-0.408761,1.119055,-1.407331,100125.45,-87,-189,-76
216414,8.437,-23.363,-3.161,-1.326650,0.809899,-0.550102,100127.80,-88,-187,-78
216424,10.938,-20.002,-3.831,-1.733714,0.572578,0.468888,100126.02,-88,-187,-78
216433,12.747,-15.740,-5.099,-1.619310,0.122413,1.246300,100126.84,-85,-191,-81
216443,13.770,-11.796,-5.688,-1.138815,-0.534742,2.009346,100130.05,-80,-196,-85
216454,15.129,-1.220,-2.550,-0.328944,-1.080687,2.403639,100130.05,-73,-201,-90
216464,15.649,16.338,0.933,-0.134724,-1.236595,2.016263,100129.88,-73,-201,-90
216474,18.036,26.989,-1.935,-0.031495,-0.956705,1.361768,100127.99,-70,-205,-90
216483,15.869,10.052,-6.861,-0.420999,-0.916797,1.435199,100126.73,-66,-207,-94
216494,15.206,-8.829,0.979,1.742559,-0.957237,2.171107,100126.68,-59,-212,-90
216504,12.119,-17.170,4.171,3.290999,-0.788558,2.592538,100126.68,-59,-212,-90
216514,13.522,-14.748,2.788,2.798797,-0.375109,2.874024,100128.38,-52,-216,-81
216523,14.037,-3.924,2.146,2.801458,-0.553898,3.146996,100128.84,-43,-221,-75
216534,4.719,1.873,4.848,3.172338,-0.487916,2.735143,100123.91,-36,-224,-66
216544,-1.057,-5.410,7.842,2.903091,-0.321898,2.057235,100125.02,-36,-224,-66
216549,1.653,-13.295,5.503,2.402907,-0.396394,1.966245,100125.02,-29,-226,-60
216559,8.288,-15.895,1.964,0.916193,-0.490045,1.892814,100125.02,-24,-228,-59
216569,12.951,-13.297,1.698,-1.408063,-0.354889,1.718814,100127.28,-24,-228,-59
216579,13.677,-7.690,2.518,-2.739933,-0.244210,1.492667,100127.59,-18,-233,-67
216589,10.938,-4.812,2.305,-3.273639,-0.310724,1.304300,100126.59,-15,-236,-77
216599,7.881,-1.586,1.927,-2.905951,-0.160669,1.283016,100126.98,-10,-239,-85
216609,6.917,1.053,1.775,-2.207292,-0.035091,1.218631,100130.18,-10,-239,-85
216619,8.352,1.275,1.071,-0.986632,-0.071275,1.054209,100129.82,-7,-240,-90
216629,9.296,-0.919,0.609,0.328211,-0.087770,0.997273,100129.82,-2,-242,-90
216639,9.002,-4.429,1.485,0.860853,0.037276,0.890319,100125.73,+0,-242,-86
216648,9.761,-6.257,2.794,1.019954,0.070267,0.909475,100130.07,+0,-242,-86
216658,9.108,-7.173,3.447,0.366523,0.073991,0.850943,100130.07,+2,-244,-83
216669,8.595,-6.932,4.611,-0.453990,0.180945,0.701952,100126.48,+5,-244,-84
216679,8.394,-6.673,5.031,-1.287274,0.215533,0.483255,100125.80,+7,-246,-89
216689,8.460,-5.531,5.202,-1.817255,0.237349,0.294888,100125.96,+7,-246,-89
216699,8.820,-4.080,4.418,-2.092888,0.237881,0.161328,100125.96,+7,-246,-96
216709,9.518,-2.114,2.892,-2.059897,0.192652,0.130998,100130.77,+8,-246,-101
216719,9.940,-0.408,1.498,-1.650705,0.112835,0.223585,100129.52,+9,-246,-107
216729,10.202,-0.386,1.216,-0.952577,-0.042541,0.414613,100127.36,+9,-246,-107
216739,9.768,-2.817,1.803,-0.308724,-0.188339,0.572117,100125.31,+10,-247,-108
216749,9.460,-4.899,2.761,-0.094284,-0.238357,0.631713,100125.31,+12,-247,-108
216759,9.082,-5.745,3.330,-0.293293,-0.226651,0.656723,100125.31,+15,-247,-110
216769,8.883,-5.618,3.386,-0.599788,-0.221862,0.685989,100128.55,+15,-247,-110
216779,9.047,-4.969,3.113,-0.845091,-0.214944,0.733346,100127.39,+17,-248,-113
216788,9.359,-4.518,2.571,-0.951512,-0.222394,0.749842,100126.19,+20,-249,-116
216799,10.080,-3.873,2.279,-0.943531,-0.296889,0.775383,100126.98,+22,-250,-118
216809,9.984,-3.385,1.989,-0.846155,-0.363935,0.778576,100126.98,+22,-250,-118
216819,10.314,-3.976,1.938,-0.766338,-0.475146,0.985566,100128.39,+26,-250,-122
216829,9.512,-4.439,1.719,-0.857329,-0.551770,1.042502,100128.34,+29,-250,-125
216839,9.664,-3.572,1.744,-0.747714,-0.554430,0.875420,100124.77,+33,-251,-128
216849,10.041,-4.894,1.795,-0.476871,-0.640632,1.202135,100124.77,+33,-251,-128
216859,8.460,-4.624,2.151,-0.303935,-0.648082,0.889255,100128.03,+38,-252,-130
216868,9.671,-5.823,2.136,-0.378430,-0.677348,0.921181,100128.03,+41,-252,-131
216879,9.754,-5.104,2.209,-0.509861,-0.702889,1.009511,100128.97,+45,-252,-133
216889,9.688,-5.083,2.106,-0.647146,-0.743861,1.093585,100127.13,+45,-252,-133
216899,9.754,-4.593,1.805,-0.758357,-0.806118,1.166484,100124.56,+49,-252,-135
216908,9.972,-3.899,2.112,-0.716852,-0.861990,1.195750,100124.56,+54,-253,-138
216920,10.695,-3.670,2.527,-0.621604,-0.948724,1.249493,100127.33,+58,-252,-140
216929,11.861,-3.971,3.259,-0.613091,-1.059402,1.378263,100129.28,+64,-252,-143
216939,12.473,-4.159,3.026,-0.630650,-1.172742,1.481493,100124.55,+64,-252,-143
216949,12.904,-3.916,2.007,-0.712063,-1.240320,1.570887,100126.67,+70,-253,-146
216960,13.727,-3.789,1.392,-0.813696,-1.316944,1.678905,100129.56,+77,-253,-150
216969,14.697,-3.656,1.351,-0.910540,-1.396760,1.803951,100127.05,+85,-252,-152
216979,15.632,-4.156,1.502,-1.047292,-1.432943,1.949217,100127.05,+85,-252,-152
216989,17.280,-4.844,2.734,-1.269714,-1.441989,2.088098,100127.09,+92,-250,-157
216998,20.928,-3.254,5.336,-1.621439,-1.523934,2.061492,100126.25,+101,-249,-162
217009,24.040,0.225,8.407,-1.998172,-1.581402,2.048722,100126.25,+109,-246,-168
217020,21.853,2.607,9.399,-2.164723,-1.656075,2.324532,100128.11,+109,-246,-168
217029,18.935,2.920,9.560,-1.891218,-1.785732,2.538263,100128.11,+120,-243,-175
217039,17.918,1.401,9.273,-1.567163,-1.857567,2.516446,100127.92,+130,-240,-179
217049,15.372,-4.006,8.295,-1.215439,-1.913971,2.557419,100124.25,+141,-236,-181
217059,13.238,-9.908,7.311,-0.535935,-1.976228,2.690978,100124.21,+141,-236,-181
217069,13.708,-10.785,5.018,-0.282118,-1.950686,2.653730,100125.79,+152,-234,-181
217079,13.653,-7.927,4.651,-0.165054,-1.881512,2.447804,100125.30,+162,-230,-181
217090,11.544,-3.782,4.806,0.278725,-1.901200,2.143437,100125.15,+171,-228,-178
217099,9.015,-0.352,5.146,0.683661,-1.851182,1.758722,100125.15,+171,-228,-178
217109,5.506,1.811,4.268,0.943330,-1.826172,1.432006,100125.15,+177,-228,-175
217119,0.728,0.640,2.627,0.699624,-1.818191,1.192025,100130.36,+184,-226,-171
217128,-3.971,-4.743,2.377,0.484120,-1.457420,0.979713,100126.69,+187,-226,-168
217139,-4.250,-8.277,4.429,0.539459,-0.747586,0.593934,100127.31,+187,-226,-168
217149,-0.537,-8.045,5.895,0.823074,-0.255917,0.147494,100123.75,+189,-226,-166
217159,2.243,-4.620,4.155,0.599055,-0.228779,-0.374506,100123.75,+189,-226,-163
217169,3.334,-0.605,1.855,-0.491238,-0.361274,-1.026341,100127.07,+185,-227,-165
217179,2.982,1.901,0.077,-1.611329,-0.468761,-1.491405,100127.07,+185,-227,-165
217189,2.134,3.389,-1.099,-1.789053,-0.404375,-1.730322,100124.45,+180,-227,-171
217199,1.759,3.947,-0.257,-1.109017,-0.209623,-2.034689,100124.45,+175,-228,-174
217209,1.917,3.707,0.828,-0.010742,0.008542,-2.334799,100125.98,+166,-229,-174
217219,2.239,2.265,1.996,0.997606,0.212340,-2.518376,100125.98,+166,-229,-174
217229,2.676,-0.382,2.845,1.763844,0.400707,-2.660982,100126.08,+158,-234,-170
217239,3.375,-2.890,3.503,2.135256,0.619936,-2.864248,100126.92,+148,-237,-163
217249,4.527,-4.562,3.926,2.005954,0.864174,-3.063789,100123.56,+137,-241,-158
217254,4.972,-4.317,3.982,1.685624,0.986028,-3.233532,100123.56,+137,-241,-158
217264,4.658,-2.600,3.964,1.403605,1.058927,-3.503312,100126.33,+125,-243,-155
217274,5.103,-0.329,3.649,1.529715,1.229202,-3.837476,100125.13,+112,-246,-149
217284,6.412,-0.065,3.982,2.168247,1.441514,-4.048724,100124.34,+112,-246,-149
217294,7.575,-1.717,4.551,2.835513,1.624559,-4.169513,100120.14,+96,-248,-140
217304,8.420,-3.729,4.568,3.304301,1.744816,-4.269018,100120.14,+81,-249,-131
217314,9.604,-4.769,3.843,3.594833,1.817183,-4.369054,100127.45,+65,-250,-118
217324,10.640,-5.274,3.697,3.793842,1.857091,-4.473348,100125.63,+65,-250,-118
217334,11.164,-6.142,4.186,4.026374,1.942229,-4.519641,100123.05,+51,-248,-106
217345,13.032,-6.061,5.693,4.060962,1.995440,-4.630320,100122.58,+36,-245,-92
217354,15.487,-7.227,6.754,3.951879,1.999697,-4.726100,100122.58,+21,-240,-79
217364,17.989,-9.723,7.593,3.852906,2.017256,-4.726632,100124.98,+21,-240,-79
217374,19.111,-12.826,8.389,3.715622,2.077385,-4.718118,100125.97,+7,-234,-67
217384,18.373,-14.590,8.864,3.562907,2.197109,-4.725036,100126.66,-5,-227,-55
217394,17.692,-15.701,7.734,3.440521,2.400907,-4.612761,100121.41,-18,-219,-43
217404,18.384,-19.913,4.034,3.036118,2.443476,-4.390338,100121.41,-18,-219,-43
217414,18.444,-20.657,-0.890,2.343311,2.122082,-4.346173,100126.27,-28,-210,-33
217424,16.113,-16.986,-3.330,1.499385,1.904981,-4.101403,100122.02,-38,-203,-27
217434,12.841,-18.414,-0.378,1.020486,1.902853,-3.494266,100123.24,-46,-195,-23
217444,10.372,-24.484,2.410,0.826798,1.719807,-2.808908,100122.09,-46,-195,-23
217454,8.425,-28.278,1.350,-0.033091,1.257403,-2.073001,100122.09,-50,-190,-20
217464,7.373,-26.062,-2.124,-1.056338,0.874285,-1.180120,100127.94,-53,-189,-20
217475,9.292,-21.788,-3.247,-1.629952,0.631110,-0.035020,100127.45,-52,-191,-24
217484,10.944,-17.666,-4.752,-1.600686,0.205423,0.915328,100123.69,-52,-191,-24
217490,11.903,-15.792,-5.640,-1.386778,-0.292100,1.577805,100125.16,-48,-195,-28
217499,12.655,-13.175,-5.858,-0.887127,-0.759825,2.193988,100125.16,-43,-201,-31
217509,14.558,-1.937,-1.541,-0.226779,-1.247237,2.633510,100125.16,-43,-201,-31
217520,17.338,19.219,2.856,0.603312,-1.233934,2.075327,100125.49,-37,-205,-32
217529,19.046,25.347,-2.920,-0.445476,-0.838045,1.089860,100126.74,-35,-207,-35
217539,18.382,4.626,-7.988,-1.087733,-0.868907,1.480428,100125.60,-31,-211,-38
217549,15.814,-15.133,3.809,2.211880,-1.021623,2.878813,100125.60,-31,-211,-38
217560,11.758,-19.914,3.907,3.475109,-0.855072,3.175730,100126.66,-22,-213,-30
217569,13.101,-11.966,2.616,2.332137,-0.542192,2.924574,100126.66,-14,-214,-23
217579,10.667,0.278,0.940,2.390669,-0.608173,3.031528,100125.62,-6,-215,-18
217589,1.274,2.411,8.307,2.578504,-0.326687,2.768134,100126.20,-6,-215,-18
217600,-1.739,-8.655,7.667,2.561476,-0.519311,2.130666,100125.57,+1,-215,-10
217609,7.022,-14.438,1.228,1.518541,-0.699164,1.890685,100125.57,+5,-215,-7
217619,12.759,-15.219,0.069,-0.708870,-0.493770,1.745951,100131.39,+10,-219,-11
217629,14.056,-10.479,1.145,-2.015200,-0.290504,1.569291,100124.16,+10,-219,-11
217639,12.166,-5.588,1.985,-2.614356,-0.295293,1.370282,100122.78,+14,-222,-18
217650,8.999,-1.413,2.006,-2.463236,-0.164926,1.411254,100124.08,+17,-228,-25
217659,6.880,0.661,1.710,-2.103530,0.003221,1.472979,100128.11,+22,-231,-31
217669,7.700,0.758,1.133,-1.263861,-0.005293,1.350062,100126.70,+22,-231,-31
217679,8.922,0.256,1.708,0.002560,-0.092027,1.246832,100130.63,+26,-233,-32
217690,9.121,-2.309,1.877,1.092321,-0.085109,1.023346,100130.63,+30,-234,-30
217699,9.291,-4.850,3.800,1.557385,-0.219733,0.960025,100124.23,+33,-232,-26
217709,7.932,-8.710,3.773,0.819349,-0.294229,0.812099,100124.23,+33,-232,-26
217719,7.682,-8.788,3.910,-0.084174,-0.217073,0.552429,100128.93,+35,-232,-25
217730,7.796,-7.185,3.936,-0.823806,-0.110651,0.372044,100129.45,+36,-233,-28
217740,8.556,-6.108,3.173,-1.317072,-0.013807,0.290099,100127.51,+38,-236,-31
217749,9.375,-4.712,2.224,-1.569292,0.067606,0.184209,100127.20,+38,-236,-31
217759,9.843,-2.405,1.122,-1.475641,0.078780,0.168778,100127.20,+38,-236,-36
217769,9.880,-1.009,0.626,-1.020687,0.046322,0.225182,100128.63,+38,-238,-40
217780,10.195,-1.265,0.715,-0.268816,-0.005825,0.320429,100126.09,+40,-238,-40
217789,9.974,-3.778,1.716,0.316505,-0.049458,0.540191,100123.84,+40,-238,-40
217799,9.070,-6.600,2.620,0.264358,-0.022320,0.609897,100123.84,+42,-238,-39
217809,8.699,-7.247,3.319,-0.307660,0.054303,0.531145,100123.84,+43,-240,-39
217820,8.742,-5.500,3.719,-0.881274,0.116028,0.508796,100128.62,+45,-240,-42
217829,9.007,-3.666,3.594,-1.132430,0.132523,0.585420,100130.15,+45,-240,-42
217839,9.645,-2.794,3.236,-1.084540,0.048450,0.724300,100125.37,+47,-242,-45
217849,10.062,-2.473,2.565,-0.858393,-0.124486,0.914796,100126.52,+50,-243,-48
217860,10.038,-2.591,1.856,-0.571586,-0.261770,1.151585,100126.52,+54,-244,-51
217870,9.092,-4.165,2.258,-0.397586,-0.318173,1.240447,100128.77,+54,-244,-51
217879,9.310,-4.025,1.826,-0.400779,-0.313917,1.069640,100128.09,+57,-245,-50
217889,10.440,-4.452,1.823,-0.533806,-0.306999,0.957365,100129.18,+60,-245,-53
217900,11.083,-4.583,2.394,-0.610430,-0.372981,1.062190,100129.18,+64,-246,-55
217910,11.219,-4.602,1.981,-0.565201,-0.432577,1.412318,100126.90,+69,-247,-56
217919,9.236,-3.614,2.500,-0.341715,-0.475678,1.443181,100126.90,+69,-247,-56
217929,10.238,-5.356,2.250,-0.504008,-0.478871,1.178190,100128.90,+73,-248,-58
217939,10.689,-5.836,1.896,-0.616815,-0.481531,1.317603,100125.90,+77,-249,-61
217950,10.642,-5.574,1.796,-0.760485,-0.435770,1.324520,100129.48,+81,-250,-63
217960,11.654,-5.444,2.595,-0.985213,-0.548932,1.327713,100129.91,+81,-250,-63
217969,12.008,-3.499,2.985,-1.114870,-0.766210,1.289401,100129.91,+85,-250,-67
217979,11.801,-2.373,2.729,-0.920650,-0.963090,1.329309,100126.61,+89,-251,-70
217990,12.074,-3.044,2.233,-0.615219,-1.083879,1.426153,100126.97,+93,-251,-71
218000,12.498,-4.720,2.044,-0.566797,-1.176999,1.653896,100123.77,+93,-251,-71
218009,13.171,-5.594,2.254,-0.831256,-1.211586,1.787988,100125.89,+99,-252,-74
218019,14.337,-5.470,2.594,-1.165953,-1.231806,1.951878,100124.58,+105,-252,-77
218030,15.076,-5.332,2.820,-1.474576,-1.239255,2.072667,100126.94,+112,-253,-81
218039,16.560,-4.982,3.637,-1.745420,-1.214778,2.043401,100126.94,+112,-253,-81
218049,19.501,-3.578,5.492,-2.152484,-1.230210,1.999236,100122.33,+119,-252,-88
218059,21.337,0.018,7.389,-2.662245,-1.281824,1.999236,100122.33,+126,-252,-96
218070,20.759,2.903,8.526,-2.961291,-1.361641,2.150887,100126.97,+133,-252,-105
218080,20.296,4.702,8.931,-2.764410,-1.518613,2.321162,100128.17,+133,-252,-105
218089,19.368,4.201,9.006,-2.332869,-1.615989,2.440354,100129.02,+142,-250,-111
218099,16.153,-0.351,8.100,-1.773622,-1.692081,2.541987,100122.77,+151,-248,-117
218109,13.204,-8.237,5.504,-1.008448,-1.819787,2.653730,100122.77,+161,-246,-119
218120,13.263,-12.869,3.070,-0.515715,-1.908650,2.618611,100127.33,+161,-246,-119
218130,14.196,-11.004,3.726,-0.174100,-1.911310,2.480795,100125.81,+169,-244,-118
218139,12.482,-5.790,4.916,0.311184,-1.955475,2.204630,100127.39,+178,-241,-115
218149,9.449,-1.042,5.276,0.688450,-1.958668,1.817786,100127.39,+184,-240,-111
218160,5.438,1.887,4.096,0.980046,-1.900668,1.433603,100127.39,+184,-240,-111
218170,0.415,1.605,2.565,0.830523,-1.788925,1.125511,100127.33,+188,-240,-106
218179,-4.693,-2.674,2.467,0.836376,-1.535108,0.845089,100126.97,+190,-240,-101
218189,-5.989,-6.727,3.764,1.011973,-0.970008,0.395989,100126.81,+192,-240,-98
218194,-3.248,-7.190,4.815,1.204596,-0.543256,-0.030231,100124.28,+192,-240,-98
218205,-0.279,-6.165,5.227,1.270046,-0.259641,-0.361736,100124.28,+190,-241,-93
218215,1.968,-3.804,2.870,0.741129,-0.148963,-0.786891,100128.94,+187,-242,-92
218224,2.920,-1.022,0.679,-0.532210,-0.293696,-1.330707,100124.53,+187,-242,-92
218234,2.253,1.184,-0.862,-1.671989,-0.417678,-1.739900,100123.53,+181,-245,-96
218245,1.654,3.105,-0.971,-1.836943,-0.276137,-2.050120,100127.31,+175,-247,-101
218255,1.421,4.049,0.242,-1.143604,-0.047862,-2.417276,100127.31,+164,-251,-103
218264,1.623,3.774,1.192,-0.043201,0.204358,-2.727496,100125.41,+164,-251,-103
218274,2.218,1.732,1.833,0.816688,0.486376,-2.892450,100124.20,+154,-254,-101
218285,2.960,-1.268,2.633,1.397752,0.714119,-3.016963,100123.78,+142,-255,-97
218295,3.936,-3.831,3.242,1.576541,0.966339,-3.134027,100127.19,+131,-258,-92
218304,5.169,-5.793,3.912,1.180651,1.272835,-3.249495,100127.19,+131,-258,-92
218314,5.419,-5.018,3.707,0.601184,1.482486,-3.528853,100128.48,+118,-259,-90
218324,5.887,-2.506,3.044,0.538395,1.691073,-3.907715,100122.71,+103,-260,-89
218335,7.524,-0.997,3.116,1.134358,1.933183,-4.057770,100124.80,+88,-259,-85
218345,9.102,-1.257,3.306,1.973495,2.105054,-4.089164,100125.43,+88,-259,-85
218354,10.108,-2.800,2.971,2.673751,2.179550,-4.103531,100125.43,+73,-258,-75
218364,11.129,-4.593,2.315,3.179788,2.192320,-4.072669,100127.73,+59,-255,-65
218375,11.594,-5.919,2.620,3.459677,2.163054,-4.039146,100127.36,+45,-250,-54
218385,11.835,-6.797,3.076,3.434668,2.108247,-4.079587,100125.05,+45,-250,-54
218394,13.041,-6.837,4.056,3.178724,2.064082,-4.229109,100122.80,+32,-244,-43
218404,14.371,-6.739,4.411,3.027072,2.047054,-4.339788,100122.80,+17,-236,-32
218415,15.632,-6.798,4.972,3.024944,2.101862,-4.370119,100125.55,+5,-229,-23
218425,16.463,-8.007,5.750,3.085604,2.212541,-4.381293,100126.53,+5,-229,-23
218434,16.886,-9.200,6.490,3.110613,2.320559,-4.398852,100124.64,-6,-219,-13
218444,17.239,-10.402,6.276,3.105292,2.438687,-4.347770,100123.81,-18,-208,-3
218455,18.073,-13.053,4.307,2.966944,2.403036,-4.199843,100123.81,-26,-197,+5
218465,18.192,-15.839,1.045,2.696100,2.096541,-4.046596,100128.48,-26,-197,+5
218475,17.546,-16.810,-1.529,2.399715,1.735238,-3.847587,100128.90,-35,-185,+14
218484,16.131,-16.823,-3.363,2.163458,1.456413,-3.472449,100127.63,-42,-176,+20
218494,12.379,-21.083,-1.805,2.111843,1.363825,-2.921184,100129.48,-47,-167,+25
218505,8.432,-28.474,1.096,1.927733,1.346266,-2.257643,100129.48,-47,-167,+25
218515,5.471,-32.504,1.156,0.850211,0.946651,-1.513221,100128.13,-49,-160,+31
218524,5.346,-28.345,-2.791,-0.580100,0.463496,-0.619809,100126.81,-51,-158,+30
218534,10.936,-20.353,-1.899,-1.394228,0.316101,0.353420,100128.08,-50,-162,+27
218545,11.824,-14.492,-2.118,-1.370283,-0.111715,1.205860,100126.28,-50,-162,+27
218555,11.218,-14.229,-1.584,-0.773788,-0.790155,2.162593,100126.28,-48,-168,+23
218564,12.033,-1.504,5.774,0.590542,-1.238191,2.719712,100125.58,-43,-174,+22
218574,19.022,27.009,4.343,1.659018,-1.111549,1.985933,100123.38,-41,-174,+24
218585,21.450,23.631,-8.705,-1.611329,-0.631586,0.486980,100125.58,-41,-174,+24
218595,20.626,-5.227,-4.517,-0.511458,-0.637439,2.022648,100125.05,-40,-179,+18
218604,16.143,-22.850,2.406,3.238852,-0.981714,3.218299,100125.05,-35,-181,+23
218614,12.467,-20.530,-0.179,2.775916,-0.625733,2.945327,100127.55,-29,-180,+27
218625,12.691,-7.190,-3.237,0.642688,-0.599127,2.864446,100128.70,-29,-180,+27
218635,8.289,5.150,1.662,1.146064,-0.333073,2.933620,100126.17,-22,-183,+28
218645,-0.721,3.753,9.563,2.241678,-0.144706,2.569657,100122.92,-16,-185,+32
218654,-0.004,-7.233,9.527,2.767403,-0.272412,1.937511,100122.92,-12,-181,+38
218665,8.855,-14.010,0.902,1.222688,-0.552834,1.695933,100128.10,-8,-181,+39
218675,12.163,-13.147,-0.301,-0.506137,-0.361274,1.664006,100129.95,-8,-181,+39
218685,13.760,-9.173,2.151,-1.877916,-0.193128,1.589511,100127.90,-4,-187,+35
218694,11.650,-5.509,2.867,-2.448337,-0.198449,1.333566,100128.32,-1,-194,+30
218704,8.871,-2.692,2.066,-2.379695,-0.117568,1.271309,100128.32,+1,-200,+24
218715,7.162,-1.427,0.834,-2.104062,-0.045201,1.214906,100127.28,+1,-200,+24
218725,8.060,0.379,0.561,-1.300044,-0.014339,1.054209,100126.02,+4,-204,+19
218735,9.476,0.205,1.671,-0.239550,0.001092,0.913732,100126.66,+7,-207,+19
218744,9.181,-2.682,1.359,0.640028,0.033551,0.809438,100124.50,+10,-206,+20
218755,9.821,-4.468,3.003,1.157771,0.037276,0.819016,100124.50,+10,-206,+20
218765,8.691,-7.314,3.593,0.444744,0.005349,0.783365,100128.76,+12,-205,+23
218775,8.254,-7.223,4.092,-0.415146,0.086762,0.577970,100127.02,+14,-207,+22
218784,8.587,-5.312,5.100,-1.151586,0.129331,0.407695,100128.07,+15,-209,+18
218795,8.368,-4.004,5.414,-1.613989,0.136780,0.337457,100124.09,+15,-209,+18
218805,8.515,-2.938,4.207,-1.737439,0.141037,0.275200,100124.09,+16,-213,+14
218815,9.111,-1.723,2.919,-1.609732,0.112303,0.301273,100129.36,+17,-215,+10
218824,9.974,-1.245,1.442,-1.177659,0.029826,0.393860,100127.09,+19,-218,+7
218834,10.727,-1.852,0.744,-0.632779,-0.076596,0.525291,100125.73,+19,-218,+7
218845,10.574,-3.225,1.817,-0.327348,-0.138852,0.674814,100125.63,+20,-219,+6
218855,9.613,-3.857,3.371,-0.336926,-0.175036,0.753567,100125.63,+22,-220,+4
218865,9.039,-4.171,3.620,-0.481127,-0.257513,0.791878,100129.69,+24,-222,+3
218874,9.013,-3.903,3.543,-0.575311,-0.349568,0.861585,100129.22,+24,-222,+3
218885,9.202,-3.883,3.402,-0.624797,-0.416082,0.958429,100128.22,+26,-223,+1
218895,9.369,-3.530,2.983,-0.631182,-0.531017,1.062722,100126.66,+29,-226,+0
218900,9.181,-3.041,2.589,-0.601384,-0.587953,1.154245,100126.66,+29,-226,+0
218909,9.104,-2.831,2.663,-0.522632,-0.608705,1.242575,100126.66,+32,-227,-3
218919,9.221,-3.468,2.048,-0.409293,-0.676815,1.305364,100127.25,+35,-229,-5
218930,9.351,-4.237,1.496,-0.333201,-0.751843,1.294722,100123.31,+38,-230,-6
218940,9.700,-5.095,0.890,-0.307660,-0.763017,1.268117,100128.45,+38,-230,-6
218950,10.043,-5.907,0.482,-0.309256,-0.748118,1.237786,100126.02,+40,-232,-7
218960,10.420,-5.954,0.426,-0.401311,-0.710338,1.195750,100127.70,+44,-233,-9
218970,10.594,-5.768,0.645,-0.501348,-0.723109,1.225548,100125.29,+47,-234,-11
218980,10.501,-5.017,1.133,-0.573715,-0.795476,1.259071,100125.29,+47,-234,-11
218990,9.353,-4.513,1.608,-0.445476,-0.927439,1.347401,100126.91,+50,-236,-13
218999,8.788,-3.911,2.153,-0.248595,-0.958302,1.190961,100126.91,+52,-238,-14
219010,9.479,-6.227,2.159,-0.201770,-0.955109,1.214374,100126.91,+56,-238,-15
219020,10.260,-7.316,2.148,-0.317238,-0.924779,1.187236,100127.51,+56,-238,-15
219030,10.799,-7.021,2.011,-0.583292,-0.918925,1.186172,100128.60,+57,-239,-16
219040,11.044,-6.045,1.841,-0.817421,-0.957237,1.213309,100128.98,+60,-241,-20
219049,11.036,-4.943,1.396,-0.778577,-1.039182,1.269713,100123.26,+63,-242,-23
219060,11.437,-4.363,1.153,-0.663641,-1.115806,1.338355,100130.42,+63,-242,-23
219070,11.786,-4.003,1.368,-0.579568,-1.175402,1.404337,100128.11,+67,-244,-24
219080,12.646,-4.459,1.582,-0.573182,-1.224356,1.474043,100126.28,+71,-245,-27
219090,13.947,-4.890,1.769,-0.694503,-1.262668,1.589511,100122.19,+73,-246,-30
219100,15.234,-4.906,2.252,-0.922246,-1.305237,1.750740,100122.19,+73,-246,-30
219110,16.629,-4.097,3.404,-1.193622,-1.319072,1.865676,100122.19,+79,-247,-33
219120,18.982,-3.177,5.254,-1.499586,-1.316411,1.952942,100128.80,+85,-250,-38
219129,21.853,-0.903,7.145,-1.811934,-1.339824,2.037015,100126.08,+91,-251,-45
219140,22.822,0.585,8.024,-2.089163,-1.358448,2.176428,100128.38,+91,-251,-45
219150,21.684,1.787,8.914,-2.131200,-1.439329,2.333932,100124.34,+97,-253,-51
219160,20.189,2.286,9.873,-2.169512,-1.502118,2.346171,100124.34,+105,-255,-59
219170,17.789,-0.700,9.929,-2.055640,-1.565439,2.346171,100124.33,+112,-256,-65
219180,15.641,-6.413,6.861,-1.409659,-1.745824,2.561143,100123.41,+112,-256,-65
219190,14.945,-9.784,4.044,-0.732815,-1.937916,2.660648,100124.84,+120,-256,-68
219200,13.768,-8.310,3.878,-0.376302,-1.916631,2.425455,100124.84,+129,-255,-70
219210,11.164,-5.632,5.311,0.102065,-1.913971,2.191327,100126.34,+135,-254,-68
219219,8.666,-1.820,6.099,0.722505,-1.898539,1.852905,100126.34,+135,-254,-68
219230,6.017,1.162,4.541,1.411587,-1.788393,1.509162,100124.25,+140,-254,-63
219240,1.732,1.386,3.412,1.437660,-1.628228,1.154245,100125.98,+144,-252,-58
219250,-2.781,-1.731,2.074,0.999734,-1.349934,0.821144,100122.36,+146,-253,-55
219259,-3.943,-7.265,1.866,0.561808,-0.910944,0.454521,100122.36,+146,-253,-55
219270,-0.923,-8.873,3.381,0.895441,-0.507072,0.056503,100127.74,+147,-252,-52
219280,1.795,-6.689,3.549,1.228009,-0.426192,-0.405369,100125.34,+146,-252,-48
219290,2.338,-3.784,2.467,0.785294,-0.363403,-0.822543,100125.54,+142,-253,-46
219300,2.491,-1.067,0.737,-0.207623,-0.393201,-1.178524,100124.95,+142,-253,-46
219310,1.858,1.300,-0.676,-1.109017,-0.410761,-1.523331,100125.84,+138,-254,-47
219320,1.489,3.065,-0.785,-1.308558,-0.291036,-1.839404,100124.63,+131,-257,-51
219330,1.683,3.910,0.192,-0.683329,-0.134064,-2.184211,100124.63,+123,-259,-53
219340,2.022,3.030,0.970,0.470285,0.053771,-2.457716,100123.41,+123,-259,-53
219350,2.429,0.609,2.165,1.549935,0.285771,-2.629055,100123.01,+115,-260,-50
219360,2.896,-1.945,3.087,2.146963,0.543312,-2.797734,100123.01,+104,-260,-43
219370,3.534,-4.116,3.594,2.188467,0.783826,-2.937679,100120.16,+95,-259,-36
219380,4.687,-5.030,3.716,1.809073,1.023275,-3.079752,100123.79,+84,-258,-31
219390,5.030,-4.093,3.557,1.217899,1.181844,-3.302174,100122.32,+84,-258,-31
219400,5.306,-2.483,3.265,1.038046,1.367018,-3.590045,100122.21,+73,-258,-28
219410,6.660,-1.382,3.722,1.531312,1.596889,-3.781605,100122.21,+61,-254,-21
219420,8.197,-1.368,4.377,2.216137,1.796963,-3.882174,100124.27,+49,-251,-13
219430,9.530,-2.228,4.293,2.716320,1.922541,-3.961990,100122.23,+49,-251,-13
219440,10.473,-3.912,3.306,2.999403,1.973091,-4.019990,100123.02,+36,-246,-2
219450,10.714,-5.930,2.603,3.176063,2.039605,-4.059898,100123.02,+27,-238,+9
219460,10.876,-7.262,2.795,3.238852,2.132724,-4.139715,100123.02,+15,-230,+20
219470,12.015,-7.871,3.623,3.119127,2.219458,-4.290834,100126.97,+15,-230,+20
219480,13.737,-8.240,4.635,2.848815,2.198706,-4.460045,100125.41,+6,-219,+31
219490,14.946,-9.112,5.299,2.648742,2.180082,-4.562210,100125.88,-3,-209,+41
219500,15.441,-10.348,6.222,2.510394,2.283843,-4.578705,100122.72,-12,-198,+51
219510,15.378,-11.181,6.035,2.378963,2.393990,-4.555825,100122.72,-12,-198,+51
219521,15.379,-13.262,4.945,2.207623,2.418467,-4.492504,100125.68,-18,-186,+60
219530,15.927,-14.384,2.627,2.103862,2.316834,-4.466430,100125.20,-24,-174,+68
219540,17.110,-14.811,0.543,1.894210,2.198706,-4.357880,100123.91,-28,-161,+75
219550,17.728,-15.584,-0.995,1.746284,2.056632,-4.028504,100123.91,-28,-161,+75
219560,16.260,-16.548,-0.952,1.512156,1.824633,-3.511825,100127.38,-31,-151,+83
219570,13.635,-18.705,-0.221,1.157771,1.549532,-2.918523,100127.38,-33,-142,+86
219580,10.773,-23.809,0.389,0.947587,1.341477,-2.292762,100126.27,-33,-134,+91
219590,8.935,-26.501,-1.441,0.577239,1.055734,-1.629221,100126.80,-33,-134,+91
219600,8.673,-24.476,-4.488,-0.188467,0.776908,-0.932157,100126.80,-33,-132,+92
219606,9.051,-21.785,-5.848,-0.740797,0.567789,-0.238818,100126.80,-33,-134,+92
219615,10.033,-19.915,-6.075,-0.907879,0.288432,0.525291,100130.16,-33,-134,+92
219625,11.201,-17.655,-5.808,-0.729623,-0.189403,1.343676,100127.64,-30,-137,+91
219635,12.723,-14.135,-4.759,-0.146430,-0.776852,2.083309,100127.95,-28,-142,+90
219645,17.155,2.571,2.691,1.063055,-1.290870,2.500483,100125.91,-27,-142,+91
219655,22.988,28.677,0.994,1.371679,-1.334503,1.476172,100125.91,-27,-142,+91
219665,18.311,14.473,-8.125,-1.901860,-0.747586,0.870099,100134.20,-28,-143,+87
219675,15.483,-11.696,1.229,0.532010,-0.855072,2.670226,100130.88,-25,-148,+87
219685,11.236,-23.563,4.563,3.892815,-1.015237,3.272574,100127.01,-20,-141,+94
219695,12.813,-16.619,1.426,2.953109,-0.476742,3.021418,100121.49,-20,-141,+94
219705,12.686,-4.414,-2.251,1.325917,-0.718320,2.998005,100121.49,-15,-140,+96
219715,4.255,3.421,2.359,1.641991,-0.401715,2.812299,100128.11,-11,-140,+98
219725,-1.165,-3.141,7.911,2.362999,-0.183018,2.326483,100126.16,-7,-136,+102
219735,4.803,-12.499,5.430,2.162926,-0.465036,1.944428,100127.53,-7,-136,+102
219745,12.695,-17.176,1.564,0.127074,-0.590614,1.784795,100126.89,-6,-134,+104
219755,13.788,-11.857,0.748,-2.018393,-0.425128,1.494263,100126.89,-5,-141,+100
219765,11.723,-3.769,3.439,-3.069309,-0.169715,1.395291,100130.10,-1,-153,+94
219776,8.784,0.848,3.757,-3.010245,-0.150027,1.469786,100127.48,-1,-153,+94
219785,7.008,0.033,2.919,-2.374374,-0.127146,1.506502,100128.57,+0,-163,+89
219795,7.474,-1.914,1.230,-1.625695,-0.269751,1.298979,100124.54,+3,-170,+85
219805,9.078,-0.867,1.334,-0.789219,-0.359678,1.164355,100124.54,+5,-174,+83
219815,9.461,-1.842,1.607,-0.040541,-0.371917,1.112208,100130.31,+5,-174,+83
219825,8.810,-4.018,1.758,0.573514,-0.369256,1.004190,100125.58,+7,-174,+83
219835,8.565,-5.126,1.978,0.815092,-0.215476,0.889255,100128.09,+7,-172,+85
219841,8.996,-5.998,3.084,0.641624,-0.134596,0.954172,100125.84,+7,-172,+85
219850,8.631,-7.545,3.464,0.016927,-0.102137,0.914796,100125.84,+10,-174,+86
219860,8.641,-6.835,3.949,-0.689714,-0.087770,0.747181,100125.84,+10,-176,+84
219871,8.473,-5.343,3.867,-1.187237,-0.142045,0.573713,100131.54,+12,-179,+80
219880,8.476,-4.312,3.653,-1.366558,-0.149495,0.502943,100127.98,+12,-179,+80
219890,9.047,-2.995,2.862,-1.334631,-0.168119,0.511457,100128.38,+14,-183,+77
219900,9.802,-1.942,1.994,-1.128705,-0.196320,0.564135,100128.38,+13,-187,+75
219911,10.129,-1.398,1.247,-0.691843,-0.239421,0.687053,100131.41,+15,-190,+73
219920,10.332,-2.491,0.743,-0.192192,-0.279329,0.838172,100131.41,+15,-190,+73
219930,10.020,-4.680,1.308,0.047790,-0.308063,0.933420,100128.52,+16,-190,+72
219940,9.313,-6.124,2.070,-0.013935,-0.338394,0.939805,100122.96,+19,-191,+72
219951,8.962,-5.938,2.475,-0.242742,-0.340522,0.918521,100126.48,+20,-193,+71
219961,8.837,-5.698,2.425,-0.445299,-0.341054,0.907701,100128.02,+20,-193,+71
219970,9.094,-5.328,2.228,-0.526889,-0.348504,0.920649,100128.02,+22,-195,+70
219980,9.347,-5.187,2.067,-0.572118,-0.374577,0.945658,100126.19,+23,-198,+68
219991,9.881,-4.852,1.401,-0.551898,-0.416082,0.965878,100125.77,+25,-200,+66
220001,10.189,-5.028,1.260,-0.500816,-0.445880,0.993016,100124.77,+25,-200,+66
220010,10.191,-5.242,1.266,-0.527953,-0.465036,1.003658,100131.69,+27,-201,+66
220020,10.064,-5.486,1.630,-0.623733,-0.473550,1.010576,100129.42,+29,-204,+63
220030,10.017,-5.624,2.116,-0.752503,-0.488449,1.013768,100127.38,+29,-207,+60
220040,9.743,-5.540,2.353,-0.867971,-0.511861,1.023346,100127.38,+29,-207,+60
220050,9.239,-5.510,2.317,-0.957366,-0.526228,1.059530,100125.91,+31,-210,+59
220060,9.049,-5.133,2.321,-1.027604,-0.565605,1.090392,100125.91,+34,-213,+55
220070,9.838,-4.681,2.069,-1.006852,-0.651274,1.139878,100128.13,+36,-216,+51
220081,10.875,-4.850,1.770,-0.906815,-0.749182,1.251621,100126.50,+36,-216,+51
220090,11.206,-5.003,1.537,-0.793476,-0.831127,1.283548,100127.23,+38,-219,+49
220100,12.039,-5.659,1.373,-0.799329,-0.879549,1.347401,100125.81,+40,-222,+46
220110,12.761,-5.926,1.282,-0.949384,-0.905623,1.393162,100125.81,+42,-224,+43
220121,13.518,-5.343,0.875,-1.066980,-0.946063,1.501181,100127.73,+42,-224,+43
220131,14.905,-5.811,0.897,-1.244173,-0.982246,1.520869,100126.88,+45,-227,+39
220140,16.613,-4.462,1.845,-1.531512,-1.033329,1.554924,100125.08,+49,-232,+35
220150,17.613,-2.431,2.950,-1.747549,-1.131769,1.649639,100125.08,+51,-236,+28
220161,17.749,-0.838,3.733,-1.842796,-1.212118,1.857162,100125.08,+51,-236,+28
220171,18.658,-0.436,4.945,-1.843861,-1.283953,2.070006,100125.70,+55,-240,+23
220180,21.147,0.164,6.749,-1.874191,-1.354191,2.134923,100126.48,+59,-244,+16
220190,22.698,1.283,8.768,-2.042870,-1.401549,2.178024,100124.23,+65,-249,+8
220200,20.872,2.534,10.259,-2.118961,-1.443053,2.291896,100122.50,+65,-249,+8
220211,17.189,1.221,10.788,-2.026374,-1.451035,2.275400,100122.50,+71,-252,+1
220221,13.721,-4.195,8.629,-1.499586,-1.474448,2.334465,100125.94,+77,-256,-3
220230,12.744,-11.332,3.150,-1.095182,-1.638870,2.417474,100125.05,+83,-258,-7
220240,12.479,-12.693,2.451,-0.678540,-1.807017,2.264226,100125.94,+83,-258,-7
220251,11.249,-8.572,4.666,-0.344907,-1.767640,1.987529,100125.94,+89,-258,-9
220261,9.934,-3.194,5.260,0.140909,-1.799035,1.758190,100126.37,+93,-258,-9
220270,7.866,0.518,4.924,0.762413,-1.780943,1.503309,100126.37,+96,-258,-6
220280,4.204,1.448,3.160,0.977917,-1.683567,1.198410,100127.05,+96,-258,-6
220291,-0.391,-1.641,2.346,0.693239,-1.450503,0.941933,100124.90,+97,-256,-3
220301,-3.130,-7.837,2.907,0.389404,-0.995017,0.634906,100124.05,+98,-256,-1
220310,-1.515,-9.108,5.850,0.559679,-0.593274,0.141640,100124.05,+96,-254,+0
220320,0.724,-6.648,6.856,0.988028,-0.342651,-0.234029,100128.56,+95,-254,+0
220331,2.423,-2.721,4.335,0.583092,-0.193128,-0.645882,100125.72,+95,-253,+3
220341,3.663,0.740,1.587,-0.670026,-0.326687,-1.175863,100124.20,+91,-253,+1
220351,3.364,2.680,-0.880,-1.702851,-0.481531,-1.487148,100122.05,+85,-256,-3
220360,2.908,3.609,-1.642,-1.777347,-0.398522,-1.630817,100126.19,+78,-258,-9
220370,2.677,3.421,-0.228,-1.061127,-0.216008,-1.909111,100126.08,+78,-258,-9
220381,2.817,2.899,1.066,0.079184,-0.012210,-2.211881,100121.72,+70,-258,-9
220390,3.038,1.472,2.309,1.076358,0.222450,-2.426322,100121.72,+61,-257,-5
220400,3.298,-0.676,3.394,1.778743,0.447000,-2.547110,100120.88,+52,-253,+1
220410,3.796,-2.951,3.767,2.169311,0.668890,-2.664175,100120.88,+52,-253,+1
220421,4.579,-5.391,3.794,2.125146,0.915789,-2.839239,100125.66,+43,-248,+8
220431,5.936,-6.654,4.065,1.698394,1.146725,-3.004725,100123.04,+34,-243,+14
220440,5.915,-4.441,4.013,1.313147,1.197807,-3.299514,100123.04,+24,-239,+19
220450,5.741,-0.910,3.718,1.372211,1.355312,-3.673587,100121.26,+24,-239,+19
220461,6.777,0.700,3.746,1.960192,1.606467,-3.877917,100121.26,+14,-233,+25
220471,8.200,0.136,4.386,2.626394,1.802284,-3.969972,100124.82,+3,-223,+34
220481,9.395,-1.779,4.222,3.133494,1.871458,-3.972632,100122.12,-4,-212,+46
220490,9.973,-4.076,3.600,3.472980,1.900724,-3.981678,100124.15,-4,-212,+46
220500,10.064,-6.409,3.470,3.603347,1.969898,-4.024779,100124.15,-12,-199,+58
220511,10.738,-7.393,3.689,3.476705,2.045990,-4.122687,100124.15,-19,-185,+68
220520,12.442,-7.245,4.240,3.148393,2.080045,-4.259972,100123.33,-24,-170,+79
220530,14.065,-7.158,4.747,2.806779,2.066210,-4.383953,100123.42,-24,-170,+79
220540,15.221,-7.641,5.325,2.598192,2.116229,-4.474944,100123.73,-29,-155,+88
220551,16.064,-9.262,6.569,2.588082,2.283311,-4.527623,100123.11,-31,-138,+95
220560,16.658,-11.023,7.487,2.665770,2.451990,-4.557421,100123.11,-34,-122,+104
220570,16.691,-12.536,7.685,2.744522,2.589806,-4.478137,100125.12,-34,-122,+104
220580,16.585,-14.444,5.716,2.837641,2.680265,-4.249330,100121.76,-33,-105,+112
220591,17.278,-17.781,2.079,2.667366,2.517439,-3.936449,100125.20,-29,-89,+120
220601,17.114,-19.776,-1.787,2.506137,2.165183,-3.693807,100125.20,-26,-74,+125
220611,16.738,-17.633,-4.060,2.175164,1.858155,-3.423495,100125.02,-26,-74,+125
220620,14.864,-16.949,-2.095,1.918155,1.602211,-2.949385,100125.48,-24,-60,+129
220631,12.491,-21.097,1.379,2.105458,1.328174,-2.323624,100125.48,-21,-47,+133
220641,9.758,-26.262,0.779,1.762247,0.841826,-1.635606,100124.44,-19,-39,+135
220650,7.045,-28.590,-2.645,0.867239,0.402303,-0.743258,100123.28,-19,-39,+135
220660,7.529,-25.673,-4.441,0.084505,0.234156,0.443879,100123.28,-18,-36,+135
220666,9.458,-21.730,-4.790,-0.314045,0.050579,1.319199,100130.80,-16,-39,+135
220676,11.787,-17.521,-5.417,-0.328412,-0.294761,1.932722,100126.23,-16,-39,+135
220686,15.853,-8.739,-4.514,0.099404,-0.989164,2.621272,100127.76,-16,-43,+134
220695,20.572,14.120,2.604,1.561642,-1.625035,2.673419,100125.13,-20,-43,+133
220705,23.144,30.187,-5.144,1.279624,-1.311090,1.495860,100125.13,-24,-41,+132
220716,18.281,3.394,-8.630,-0.285311,-0.872632,1.722006,100128.92,-24,-41,+132
220726,13.642,-22.419,2.491,1.810137,-1.086540,3.032593,100126.56,-24,-44,+131
220736,11.313,-22.272,3.223,3.742228,-0.694375,3.412519,100126.25,-25,-36,+132
220745,15.133,-9.572,0.989,1.756394,-0.381495,3.465730,100125.56,-24,-37,+132
220755,11.346,2.218,0.034,1.527587,-0.648082,3.388574,100125.56,-24,-37,+132
220766,-0.575,5.274,8.536,2.704082,-0.403843,2.967675,100127.27,-24,-35,+132
220776,-4.645,-5.418,10.369,3.232466,-0.369788,2.436097,100125.33,-24,-28,+133
220785,5.734,-15.195,1.903,2.077256,-0.692779,2.029566,100128.31,-25,-25,+133
220795,13.805,-18.793,-1.509,-0.336926,-0.744925,1.889089,100127.80,-25,-25,+133
220806,16.039,-13.212,-0.157,-2.500484,-0.468228,1.728924,100127.80,-26,-33,+132
220816,12.853,-5.014,2.776,-3.493401,-0.405439,1.402208,100129.84,-27,-46,+129
220825,8.318,-0.097,1.473,-3.094318,-0.330412,1.361236,100127.05,-28,-60,+126
220835,6.648,1.049,0.711,-2.179622,-0.158008,1.425621,100125.05,-28,-60,+126
220846,7.312,0.668,0.974,-1.178723,-0.102137,1.282484,100125.32,-26,-68,+125
220856,9.187,0.814,1.629,-0.079385,-0.096816,1.273438,100125.32,-25,-72,+125
220866,9.646,-3.022,1.753,0.747514,-0.131935,1.255878,100128.90,-25,-71,+126
220875,9.226,-5.474,1.905,1.254082,-0.150559,1.116465,100127.32,-25,-71,+126
220886,8.310,-7.197,2.438,1.000266,-0.024449,1.017493,100125.90,-23,-68,+126
220896,8.238,-9.029,2.895,0.120157,0.111771,0.932887,100127.63,-23,-68,+127
220901,8.647,-9.206,3.592,-0.674815,0.198505,0.811566,100127.63,-23,-68,+127
220910,8.956,-7.599,4.156,-1.339420,0.261826,0.653530,100127.63,-21,-73,+126
220920,9.321,-5.440,3.927,-1.926870,0.338982,0.472613,100127.07,-19,-81,+125
220931,10.027,-3.537,3.119,-2.118429,0.371441,0.351292,100126.80,-17,-88,+123
220941,10.306,-1.591,1.805,-1.950815,0.296945,0.362466,100126.23,-17,-88,+123
220951,10.378,-0.508,0.363,-1.404338,0.149551,0.478466,100126.07,-15,-94,+121
220961,10.442,-1.109,0.061,-0.567329,-0.047330,0.614154,100128.05,-15,-97,+121
220971,9.947,-3.728,0.985,0.029166,-0.200045,0.701952,100127.32,-15,-99,+120
220981,9.261,-6.381,2.397,0.112707,-0.250596,0.704080,100127.32,-15,-99,+120
220991,9.079,-7.342,3.143,-0.257641,-0.255385,0.651934,100127.21,-15,-99,+121
221000,9.279,-6.498,3.236,-0.766338,-0.280926,0.587016,100124.49,-15,-103,+120
221010,9.645,-4.736,2.912,-1.050485,-0.291568,0.591273,100124.49,-15,-107,+117
221021,9.823,-3.564,2.358,-1.070173,-0.302742,0.676943,100124.63,-15,-107,+117
221031,9.800,-3.171,1.763,-0.903623,-0.353293,0.798796,100125.94,-15,-112,+115
221041,9.618,-3.260,1.246,-0.688650,-0.419274,0.928631,100127.83,-15,-115,+114
221050,9.516,-4.001,1.078,-0.567329,-0.476210,1.006851,100126.61,-15,-119,+113
221061,9.467,-5.047,1.335,-0.571054,-0.518247,1.004722,100128.00,-15,-119,+113
221071,9.396,-5.790,1.997,-0.680669,-0.575715,0.940337,100127.47,-15,-122,+111
221081,9.245,-5.805,2.588,-0.821678,-0.654467,0.852539,100124.27,-15,-125,+108
221091,9.169,-5.602,3.153,-0.916925,-0.657660,0.822741,100127.53,-17,-130,+106
221101,9.272,-5.575,3.062,-1.056338,-0.647017,0.854667,100127.53,-17,-130,+106
221111,9.845,-5.282,2.382,-1.174466,-0.664577,0.980245,100127.53,-16,-134,+104
221121,9.461,-3.959,1.570,-1.130834,-0.704485,0.980777,100130.25,-16,-139,+100
221130,12.104,-4.435,0.863,-1.155311,-0.813036,1.132961,100127.94,-17,-144,+97
221136,10.809,-3.050,0.422,-0.903623,-0.917861,1.190429,100126.05,-17,-144,+97
221146,11.563,-2.264,0.120,-0.814228,-0.962558,1.023878,100128.30,-18,-148,+95
221156,13.268,-3.212,-0.166,-0.621604,-1.079090,1.221823,100128.30,-18,-152,+92
221166,13.633,-3.189,0.032,-0.446540,-1.198815,1.365493,100125.02,-18,-152,+92
221175,13.676,-3.212,0.453,-0.352357,-1.308430,1.513419,100130.85,-19,-154,+90
221186,13.755,-3.160,1.182,-0.267219,-1.413787,1.671456,100129.80,-19,-158,+86
221196,14.353,-3.311,2.461,-0.219329,-1.519145,1.768300,100125.82,-19,-162,+85
221206,15.932,-3.589,4.266,-0.333201,-1.597365,1.856630,100125.82,-19,-162,+85
221216,17.636,-3.286,6.132,-0.724302,-1.613329,1.977419,100128.10,-18,-165,+81
221225,17.958,-2.041,7.149,-1.234595,-1.570228,2.160997,100127.10,-19,-171,+76
221236,17.957,-0.505,7.566,-1.590044,-1.530319,2.360006,100124.84,-16,-179,+71
221246,19.425,0.490,8.245,-1.882172,-1.479237,2.447272,100127.04,-16,-179,+71
221255,20.160,1.049,9.466,-2.108319,-1.433475,2.477602,100127.04,-14,-187,+64
221265,18.024,0.305,10.193,-2.074264,-1.419641,2.538795,100126.71,-10,-196,+57
221276,15.280,-4.140,7.898,-1.694870,-1.461677,2.685125,100127.04,-7,-203,+51
221286,15.279,-10.412,4.293,-1.305898,-1.652705,2.791015,100124.30,-7,-203,+51
221296,15.914,-11.282,3.682,-0.879146,-1.901200,2.604776,100123.41,-3,-209,+46
221305,13.856,-7.557,5.547,-0.680137,-1.888961,2.272208,100123.41,+0,-213,+42
221316,11.503,-3.537,5.949,-0.091623,-1.857567,2.108850,100127.01,+1,-215,+41
221326,9.703,0.126,6.254,0.650670,-1.870870,1.775749,100124.80,+1,-215,+41
221336,6.502,2.009,3.963,1.449367,-1.838411,1.342080,100123.60,+3,-213,+41
221345,1.304,1.301,4.131,1.448303,-1.849053,0.991420,100123.23,+1,-210,+43
221356,-3.031,-3.624,2.655,1.157771,-1.543622,0.734411,100123.23,+0,-208,+44
221366,-2.723,-8.261,3.107,1.130101,-1.094522,0.347035,100125.26,+0,-208,+44
221371,0.145,-9.069,4.238,1.590908,-0.869971,0.022980,100126.46,-1,-205,+47
221381,1.857,-7.313,4.222,1.953275,-0.909880,-0.346836,100126.46,-4,-199,+50
221391,1.660,-4.639,2.828,1.643587,-0.835916,-0.746983,100125.15,-4,-199,+50
221401,1.711,-2.445,1.112,0.641092,-0.794944,-1.054542,100123.95,-8,-196,+51
221411,1.330,-0.156,-0.647,-0.409293,-0.852944,-1.462671,100123.73,-14,-193,+49
221421,1.138,1.781,-1.228,-0.953109,-0.700760,-1.867074,100124.09,-21,-193,+46
221431,1.399,2.415,-0.024,-0.761549,-0.469825,-2.284780,100122.99,-21,-193,+46
221441,1.597,1.914,1.198,0.081313,-0.216008,-2.632248,100122.26,-29,-189,+45
221451,1.879,0.753,2.045,1.101899,0.019184,-2.806248,100122.26,-36,-182,+48
221461,2.354,-1.201,3.270,1.820247,0.310248,-2.894046,100122.26,-42,-172,+52
221471,3.413,-3.308,3.914,2.076192,0.610358,-2.980780,100124.05,-42,-172,+52
221480,4.857,-5.588,4.012,1.860688,0.879606,-3.076027,100122.16,-47,-160,+57
221491,5.640,-5.245,3.627,1.317404,1.050945,-3.259605,100120.70,-52,-151,+61
221501,5.889,-2.467,2.889,1.130101,1.194615,-3.537899,100121.74,-56,-140,+65
221511,7.016,-0.084,2.948,1.627091,1.404266,-3.727330,100121.74,-56,-140,+65
221521,8.205,-0.078,3.376,2.399183,1.576669,-3.804486,100122.54,-59,-127,+71
221531,9.234,-1.844,3.302,3.035586,1.676706,-3.843330,100121.04,-60,-110,+78
221541,10.180,-4.174,2.770,3.396356,1.717146,-3.917293,100122.34,-62,-93,+85
221551,10.627,-6.221,2.738,3.466063,1.758651,-4.004559,100122.34,-62,-93,+85
221561,11.000,-7.430,3.215,3.354320,1.802284,-4.130137,100122.91,-61,-74,+91
221571,11.726,-7.758,4.123,3.113274,1.802284,-4.337128,100122.91,-59,-54,+96
221581,12.623,-7.612,4.814,2.870632,1.804412,-4.543586,100122.86,-57,-35,+101
221591,13.744,-7.673,5.346,2.664706,1.876779,-4.692577,100123.91,-57,-35,+101
221601,15.192,-8.290,6.139,2.528485,2.020449,-4.773990,100122.64,-53,-17,+105
221606,15.882,-9.053,6.690,2.481660,2.156669,-4.825604,100122.64,-47,+0,+108
221616,16.227,-10.224,7.370,2.491770,2.308320,-4.828265,100126.03,-47,+0,+108
221626,16.091,-11.934,7.732,2.538595,2.524357,-4.745256,100122.72,-38,+17,+112
221636,16.260,-14.110,5.371,2.449201,2.673347,-4.543054,100121.98,-28,+33,+115
221646,17.135,-18.457,1.696,1.955935,2.603641,-4.309458,100124.52,-18,+48,+117
221656,17.421,-18.942,-2.116,1.390303,2.270540,-4.158871,100124.52,-18,+48,+117
221666,16.429,-17.058,-3.971,0.893844,2.036944,-3.781073,100124.48,-8,+58,+118
221676,13.982,-18.061,-2.355,0.711863,1.856027,-3.239385,100125.84,+0,+64,+120
221686,10.999,-22.920,-0.041,0.697496,1.619770,-2.638633,100124.05,+7,+70,+121
221696,8.813,-26.116,0.211,0.095147,1.252614,-1.953808,100123.95,+7,+70,+121
221706,7.757,-24.970,-2.409,-0.615751,0.873752,-1.048157,100123.95,+11,+72,+123
221716,9.152,-21.538,-4.131,-0.944595,0.524688,0.209218,100127.65,+14,+68,+123
221726,11.092,-18.165,-4.854,-0.743458,0.023441,1.333566,100126.23,+12,+64,+123
221735,12.851,-14.618,-5.804,-0.072999,-0.642760,2.202501,100129.16,+12,+64,+123
221746,16.836,-3.251,-2.025,0.815624,-1.325457,2.818152,100126.96,+7,+62,+122
221756,21.866,21.708,0.792,2.016596,-1.571292,2.371712,100126.96,+0,+64,+120
221766,20.180,22.417,-7.267,-0.275733,-1.146668,1.090392,100127.45,-4,+61,+118
221776,16.112,-6.625,-4.722,-0.419935,-0.852412,2.207822,100126.98,-4,+61,+118
221786,13.221,-22.861,2.694,2.948852,-0.988632,3.356115,100126.87,-8,+60,+116
221796,12.719,-21.068,1.855,2.912668,-0.541127,3.195950,100124.35,-12,+66,+113
221806,14.953,-7.906,-0.206,0.973661,-0.458650,3.243840,100124.35,-17,+64,+112
221816,8.708,6.033,2.145,1.442981,-0.581036,3.158170,100131.95,-17,+64,+112
221826,-3.160,5.814,8.874,2.623201,-0.371917,2.769198,100126.86,-20,+66,+110
221836,-3.136,-7.094,8.702,3.196815,-0.386816,2.162593,100124.66,-23,+72,+106
221842,6.032,-16.297,3.077,2.260302,-0.557091,1.956667,100126.91,-23,+72,+106
221851,12.658,-19.673,-0.427,0.513386,-0.604449,1.923144,100126.91,-26,+74,+105
221861,15.620,-14.419,1.095,-1.929530,-0.361806,1.739566,100126.91,-29,+66,+106
221872,13.370,-4.921,3.078,-3.160832,-0.276669,1.460208,100125.98,-31,+52,+107
221881,9.308,0.270,2.007,-2.969273,-0.199513,1.485750,100126.52,-31,+52,+107
221891,6.893,0.390,1.605,-2.130668,-0.057972,1.599089,100126.06,-33,+41,+109
221901,6.828,0.197,1.053,-1.149457,-0.049990,1.389438,100126.06,-33,+34,+110
221912,8.346,-0.105,1.619,-0.083109,-0.061164,1.251621,100130.84,-33,+33,+109
221921,9.298,-3.460,1.832,0.791147,-0.115440,1.149988,100130.84,-33,+33,+109
221931,9.527,-5.796,1.722,1.114138,-0.106394,0.949383,100127.52,-35,+33,+110
221941,9.528,-7.347,2.006,0.869899,0.023973,0.895108,100125.48,-35,+35,+108
221952,9.322,-9.219,3.539,-0.082577,0.150083,0.832319,100126.32,-35,+33,+109
221961,8.699,-8.292,5.140,-0.972265,0.243202,0.614154,100126.32,-35,+33,+109
221971,8.505,-6.236,4.179,-1.654962,0.299074,0.438558,100126.97,-35,+29,+110
221981,9.120,-3.955,2.728,-1.907182,0.360799,0.318833,100129.13,-33,+21,+110
221991,9.554,-1.675,1.602,-1.757659,0.328872,0.308191,100125.44,-33,+14,+111
222002,9.992,-0.387,0.955,-1.190962,0.196909,0.434833,100128.55,-33,+14,+111
222011,10.298,-1.918,1.460,-0.500283,0.038340,0.579035,100126.66,-33,+11,+112
222021,9.822,-5.160,2.497,-0.171972,-0.082981,0.626392,100129.96,-32,+9,+112
222031,9.249,-7.041,3.336,-0.392797,-0.122889,0.623200,100124.30,-32,+7,+112
222041,8.856,-6.306,3.715,-0.873292,-0.143109,0.576374,100124.30,-32,+7,+112
222051,8.829,-4.633,3.500,-1.184577,-0.134064,0.547640,100123.88,-33,+2,+112
222061,9.218,-3.812,3.042,-1.218099,-0.129807,0.597658,100123.88,-33,-1,+111
222071,9.580,-3.810,2.359,-1.105292,-0.154816,0.677475,100125.79,-33,-7,+110
222076,9.861,-3.845,1.926,-1.006852,-0.196320,0.746649,100125.79,-33,-7,+110
222086,9.962,-3.761,1.642,-0.886595,-0.255917,0.817952,100124.38,-35,-12,+110
222096,9.734,-3.779,1.534,-0.742925,-0.323495,0.915860,100122.54,-36,-15,+110
222106,9.375,-4.446,1.424,-0.699292,-0.406504,0.955236,100122.54,-36,-15,+110
222116,9.094,-4.577,2.104,-0.626393,-0.461311,0.946722,100125.40,-37,-19,+110
222127,8.939,-5.134,2.062,-0.690247,-0.481531,0.926502,100125.55,-37,-23,+108
222136,9.109,-5.357,2.227,-0.660981,-0.468228,0.894044,100125.87,-39,-27,+106
222146,8.899,-5.861,2.175,-0.720045,-0.445880,0.882337,100125.24,-39,-27,+106
222156,9.330,-5.905,2.098,-0.844558,-0.418742,0.875952,100125.24,-40,-31,+106
222167,9.741,-5.618,2.157,-0.960558,-0.437366,0.894044,100127.76,-41,-35,+105
222176,10.149,-5.006,2.018,-0.987696,-0.496962,0.996741,100126.71,-42,-41,+104
222186,9.395,-4.389,1.622,-0.954705,-0.550173,1.008979,100126.66,-42,-41,+104
222196,11.204,-5.585,0.944,-0.988228,-0.616687,1.110080,100126.13,-43,-45,+102
222206,9.172,-4.319,0.530,-0.870100,-0.665641,1.067511,100126.13,-45,-50,+100
222217,10.321,-4.506,0.916,-0.945659,-0.699696,1.040906,100128.18,-46,-55,+99
222226,11.485,-4.356,1.631,-0.872760,-0.830063,1.190961,100126.49,-46,-55,+99
222236,12.243,-3.712,2.364,-0.745054,-0.982779,1.233530,100127.91,-47,-60,+96
222246,12.973,-3.425,2.363,-0.567861,-1.148265,1.359107,100128.07,-49,-65,+93
222256,13.420,-4.085,2.048,-0.443348,-1.252026,1.510759,100128.07,-50,-69,+90
222266,14.296,-5.096,2.114,-0.534871,-1.307366,1.588979,100126.63,-50,-69,+90
222276,15.998,-4.912,2.960,-0.908412,-1.321200,1.656025,100128.10,-54,-74,+88
222286,17.803,-3.417,4.569,-1.414448,-1.343017,1.733181,100123.79,-56,-81,+83
222297,18.682,-0.498,5.421,-1.826833,-1.388246,1.839603,100124.37,-57,-90,+79
222306,18.291,1.423,5.844,-1.980613,-1.423898,2.111511,100124.37,-57,-90,+79
222316,19.336,2.417,6.333,-1.947622,-1.492008,2.327547,100122.37,-57,-100,+75
222326,20.578,2.695,7.257,-1.939640,-1.535108,2.407896,100127.30,-57,-110,+69
222337,19.340,1.742,8.495,-1.759255,-1.561714,2.511125,100127.84,-57,-120,+64
222346,16.725,-2.040,7.311,-1.302705,-1.614925,2.646281,100121.59,-57,-120,+64
222356,15.587,-9.387,5.267,-0.853604,-1.701659,2.812299,100121.59,-57,-128,+60
222366,16.489,-14.076,5.906,-0.252320,-1.903861,2.920850,100126.62,-55,-134,+54
222376,15.840,-10.976,6.193,-0.116632,-2.025182,2.632446,100125.10,-54,-140,+51
222387,13.264,-5.698,7.218,-0.058632,-1.947494,2.348300,100124.99,-54,-140,+51
222396,11.029,-1.677,7.058,0.417074,-1.849053,2.064685,100123.79,-54,-144,+47
222406,8.680,1.931,6.920,1.067312,-1.725604,1.555988,100123.79,-54,-146,+46
222416,5.290,4.405,5.759,1.513752,-1.545751,1.003658,100125.85,-54,-145,+45
222427,0.924,4.541,4.389,1.317404,-1.453696,0.587016,100122.27,-54,-145,+45
222436,-2.283,-1.585,1.780,0.736340,-1.352595,0.487512,100121.38,-57,-142,+45
222446,-2.658,-9.044,2.487,0.345239,-0.843898,0.276796,100123.70,-57,-142,+43
222456,1.304,-12.395,3.376,0.434633,-0.508669,-0.122818,100123.70,-59,-141,+43
222467,3.230,-10.860,3.199,0.834248,-0.697568,-0.789020,100126.16,-62,-136,+43
222476,3.232,-6.618,0.986,0.998670,-0.946595,-1.319001,100121.80,-62,-136,+43
222486,2.097,-3.299,0.672,0.721441,-1.082283,-1.549937,100122.64,-67,-132,+43
222496,0.050,-1.599,1.593,0.255312,-0.814632,-1.591973,100123.69,-71,-128,+41
222507,0.050,0.090,0.560,-0.471549,-0.456522,-1.764377,100123.69,-75,-125,+40
222517,1.396,2.732,-0.831,-1.199476,-0.390540,-2.304468,100124.84,-75,-125,+40
222526,1.998,3.501,1.327,-1.398485,-0.222926,-2.870101,100124.73,-80,-121,+36
222536,2.071,2.459,2.139,-0.689714,-0.022853,-3.096780,100124.11,-85,-117,+35
222546,2.691,0.225,2.479,0.653685,0.236817,-3.261556,100121.84,-90,-106,+36
222557,3.536,-1.676,3.588,1.611660,0.563532,-3.412853,100121.84,-90,-106,+36
222566,4.288,-4.062,5.042,1.957532,0.932817,-3.496926,100120.57,-92,-93,+40
222576,4.674,-5.887,5.731,1.659550,1.216431,-3.656027,100120.05,-94,-80,+45
222586,4.818,-5.113,5.269,1.118394,1.435660,-3.938045,100120.68,-95,-67,+48
222597,5.810,-2.492,4.735,0.908211,1.695862,-4.196651,100117.90,-95,-67,+48
222606,7.477,-0.815,4.420,1.197679,1.929458,-4.226981,100117.90,-96,-54,+54
222616,8.777,-0.821,4.163,1.846853,2.101330,-4.209421,100121.38,-93,-39,+59
222626,9.817,-2.558,3.691,2.480595,2.218926,-4.186008,100120.70,-89,-23,+65
222637,10.666,-4.852,3.276,2.961623,2.263623,-4.165788,100123.12,-89,-23,+65
222647,10.983,-6.770,3.428,3.312283,2.302467,-4.179091,100122.27,-84,-3,+71
222656,11.781,-7.762,4.097,3.487879,2.377495,-4.262632,100122.27,-78,+15,+76
222666,13.452,-8.976,4.831,3.505971,2.403568,-4.373311,100123.21,-69,+35,+80
222676,15.316,-10.647,5.602,3.508631,2.384944,-4.501550,100123.12,-69,+35,+80
222687,16.637,-12.726,6.775,3.398485,2.411017,-4.561678,100121.16,-61,+55,+83
222696,16.597,-14.369,7.945,3.189366,2.531274,-4.520705,100122.48,-50,+74,+85
222706,15.937,-14.849,7.881,2.973329,2.724430,-4.440889,100122.48,-37,+92,+87
222716,16.366,-16.159,4.829,2.605641,2.781898,-4.318504,100121.51,-37,+92,+87
222727,16.847,-18.931,0.462,2.277329,2.617476,-4.178027,100121.88,-24,+106,+89
222736,17.070,-20.189,-2.140,1.917091,2.347164,-3.963587,100121.84,-11,+119,+89
222746,15.904,-19.485,-2.674,1.351459,2.123146,-3.538431,100124.46,+1,+127,+91
222756,13.086,-20.047,-0.107,0.714523,1.845385,-2.892982,100124.46,+1,+127,+91
222767,10.926,-24.611,2.425,0.518175,1.576669,-2.172505,100127.35,+9,+133,+92
222777,9.586,-26.885,-0.143,0.026505,1.160027,-1.417441,100125.46,+16,+136,+93
222782,8.580,-26.494,-3.571,-0.602448,0.826395,-0.726231,100126.41,+16,+136,+93
222791,8.972,-24.021,-5.630,-0.892448,0.584817,0.126209,100126.41,+18,+134,+96
222801,11.191,-19.617,-6.636,-0.917457,0.215533,1.223952,100125.99,+17,+130,+98
222812,14.451,-14.048,-8.113,-0.618412,-0.416082,2.026373,100125.99,+12,+125,+98
222822,19.164,1.796,-5.083,0.215404,-1.198283,2.480263,100130.83,+12,+125,+98
222831,24.140,30.022,-2.002,1.251422,-1.518081,1.872061,100127.13,+5,+126,+95
222841,20.930,25.189,-7.417,-0.070339,-1.096650,1.039842,100126.11,+0,+126,+94
222852,15.987,-6.764,-6.582,-0.127274,-1.104632,1.966245,100126.11,-7,+123,+91
222862,11.938,-21.603,2.574,3.786925,-1.076962,3.152317,100126.11,-7,+123,+91
222871,11.401,-18.969,2.661,3.470320,-0.695971,3.137418,100127.51,-14,+131,+83
222881,17.566,-6.164,0.518,2.300742,-0.559219,3.406666,100128.35,-20,+131,+80
222892,9.778,6.546,1.727,3.077623,-0.637971,3.339088,100128.66,-28,+135,+73
222902,-4.320,3.465,11.873,4.122332,-0.373690,2.614709,100127.27,-28,+135,+73
222911,-3.952,-10.867,11.103,4.265292,-0.469825,2.100336,100127.27,-31,+143,+66
222921,8.373,-21.530,1.786,1.870798,-0.793347,2.010410,100127.27,-36,+146,+60
222931,13.858,-17.958,0.032,-1.706576,-0.521439,1.826300,100128.59,-41,+136,+64
222942,15.924,-8.744,3.112,-3.683896,-0.260173,1.470318,100126.20,-41,+136,+64
222952,12.035,-3.111,2.026,-4.308593,-0.374045,1.228208,100126.20,-45,+124,+70
222961,7.865,-0.037,1.094,-3.616318,-0.230375,1.335695,100128.23,-48,+110,+75
222971,6.771,2.327,1.396,-2.573383,-0.251128,1.342080,100129.91,-51,+101,+77
222982,8.074,4.210,1.572,-1.030265,-0.401715,1.193089,100129.91,-51,+101,+77
222992,8.485,1.562,1.515,0.499551,-0.479935,1.168612,100125.93,-53,+97,+76
223001,8.622,-3.378,1.996,1.509495,-0.423531,1.098374,100126.45,-56,+98,+74
223011,8.939,-5.932,2.304,1.721275,-0.372449,0.935016,100126.45,-56,+101,+71
223022,9.452,-6.085,3.185,1.440321,-0.328816,0.879144,100129.46,-56,+101,+71
223032,9.102,-6.478,4.317,0.710798,-0.334669,0.911603,100127.37,-59,+102,+70
223042,7.982,-7.968,4.564,-0.210284,-0.251660,0.819016,100127.68,-61,+101,+69
223051,8.260,-8.596,3.855,-1.127109,-0.141513,0.683328,100127.63,-62,+96,+71
223062,8.759,-5.758,2.737,-1.773090,-0.056908,0.491236,100130.34,-62,+96,+71
223072,9.190,-1.947,1.726,-1.845989,-0.043073,0.397585,100127.23,-63,+90,+72
223082,9.999,0.405,1.027,-1.314943,-0.117036,0.462502,100128.45,-63,+84,+74
223092,10.500,0.105,0.421,-0.426852,-0.237825,0.615218,100127.40,-64,+82,+73
223101,10.145,-1.935,0.452,0.377698,-0.332540,0.787089,100127.40,-64,+82,+73
223112,9.609,-4.476,1.328,0.690578,-0.336265,0.901493,100127.40,-66,+82,+72
223122,9.092,-6.891,2.609,0.472413,-0.267091,0.906814,100129.92,-68,+82,+72
223131,8.845,-7.820,3.367,-0.069274,-0.184614,0.880741,100126.03,-69,+79,+71
223141,8.990,-6.756,3.464,-0.693971,-0.114908,0.854135,100123.94,-70,+79,+71
223152,9.364,-4.737,3.160,-1.034522,-0.101605,0.895108,100127.50,-70,+75,+72
223162,9.758,-3.035,2.278,-1.005788,-0.161733,1.061126,100127.50,-72,+70,+73
223172,9.865,-2.552,1.440,-0.724302,-0.259109,1.241511,100125.44,-74,+64,+72
223181,9.310,-3.237,1.006,-0.452926,-0.330944,1.233530,100125.91,-75,+60,+73
223192,9.661,-4.425,0.997,-0.397586,-0.357017,1.161695,100128.17,-75,+60,+73
223202,10.174,-5.031,1.407,-0.467825,-0.379366,1.169144,100128.17,-77,+56,+71
223212,10.569,-5.100,1.495,-0.666834,-0.404907,1.237254,100128.17,-78,+52,+71
223221,10.807,-5.120,1.710,-0.746650,-0.409696,1.328777,100130.23,-80,+47,+71
223232,9.246,-4.336,2.285,-0.426852,-0.455458,1.467658,100129.59,-80,+47,+71
223242,9.142,-4.658,2.288,-0.545513,-0.472485,1.184575,100124.30,-82,+42,+70
223252,10.844,-5.586,2.272,-0.640760,-0.529776,1.343322,100129.19,-85,+37,+70
223261,10.918,-5.301,2.315,-0.739201,-0.579439,1.461273,100129.19,-87,+31,+69
223271,11.351,-5.322,2.298,-0.822210,-0.626265,1.525126,100126.14,-87,+31,+69
223282,12.300,-5.448,2.038,-0.824870,-0.700760,1.577805,100127.92,-89,+25,+68
223292,13.020,-5.574,1.655,-0.848283,-0.792283,1.675181,100126.52,-91,+19,+66
223302,12.972,-5.442,1.134,-0.864246,-0.867311,1.749144,100125.34,-93,+11,+65
223311,13.138,-5.255,0.979,-0.936613,-0.932228,1.824703,100130.27,-93,+11,+65
223322,13.919,-5.155,1.389,-1.005256,-1.011513,1.919951,100125.55,-96,+3,+63
223332,15.019,-5.816,2.078,-1.146797,-1.068980,1.970502,100125.55,-99,-3,+60
223342,16.774,-4.939,3.331,-1.443714,-1.091861,1.943896,100128.45,-101,-11,+57
223351,18.179,-3.042,5.000,-1.845457,-1.080155,1.962520,100125.71,-101,-11,+57
223362,18.348,-1.214,6.054,-2.157273,-1.097714,2.100868,100125.71,-103,-22,+55
223372,19.552,0.130,7.700,-2.260503,-1.097714,2.213675,100127.06,-105,-33,+50
223382,21.490,1.167,9.812,-2.355750,-1.103567,2.186538,100122.44,-105,-44,+48
223392,21.046,2.067,11.411,-2.461640,-1.101971,2.288703,100123.86,-105,-44,+48
223401,18.760,1.921,11.452,-2.420135,-1.052485,2.423859,100124.80,-106,-57,+43
223412,15.329,-2.940,9.362,-2.346172,-0.940742,2.414813,100124.80,-105,-69,+40
223422,13.752,-10.077,2.831,-1.905053,-1.050357,2.536134,100127.47,-105,-79,+36
223432,13.485,-13.175,1.626,-1.532044,-1.296723,2.447272,100124.53,-105,-79,+36
223441,12.103,-9.224,3.886,-1.286742,-1.350999,2.037547,100126.25,-105,-89,+32
223452,10.448,-3.059,5.493,-0.773788,-1.381329,1.776814,100126.25,-105,-96,+27
223462,8.813,1.751,5.353,0.081845,-1.402081,1.541089,100126.25,-105,-99,+25
223472,5.194,3.450,3.047,0.569789,-1.308430,1.286208,100126.70,-105,-99,+25
223481,-0.120,0.689,2.910,0.423991,-1.064723,1.030264,100126.32,-106,-101,+23
223492,-3.677,-6.268,2.099,0.031294,-0.659788,0.698227,100127.16,-106,-103,+22
223502,-2.541,-9.681,3.275,0.221790,-0.190467,0.252851,100125.70,-107,-103,+21
223512,1.804,-7.718,3.026,0.601716,-0.030834,-0.152084,100125.70,-107,-103,+21
223522,3.373,-4.702,2.058,0.358010,-0.008486,-0.468690,100127.77,-106,-101,+22
223532,3.784,-1.826,-0.041,-0.494430,-0.167054,-0.805515,100125.84,-108,-99,+23
223542,2.783,1.976,-1.535,-1.405402,-0.370852,-1.326450,100122.59,-110,-98,+20
223552,1.883,4.864,-0.572,-1.474044,-0.187807,-1.708505,100122.59,-110,-98,+20
223562,2.036,6.167,0.440,-0.649274,-0.032963,-1.943698,100125.57,-113,-95,+18
223571,2.370,5.420,1.230,0.689514,0.116560,-2.137386,100125.57,-116,-89,+19
223582,2.235,1.907,2.215,1.820779,0.312377,-2.331606,100127.24,-119,-78,+22
223592,2.108,-2.253,3.307,2.418339,0.551826,-2.450799,100123.10,-119,-78,+22
223602,2.757,-4.575,3.647,2.460375,0.825862,-2.657257,100121.26,-119,-66,+27
223611,4.142,-5.113,3.617,2.038412,1.098835,-2.949918,100121.26,-121,-53,+31
223622,5.526,-3.894,3.220,1.486614,1.309550,-3.232468,100124.12,-120,-41,+35
223632,6.241,-1.721,2.705,1.170541,1.427679,-3.516082,100122.07,-119,-41,+40
223642,6.506,-0.588,2.415,1.407862,1.544743,-3.783733,100120.91,-119,-26,+40
223652,7.010,-1.361,2.875,1.979880,1.733642,-4.056174,100124.05,-116,-11,+45
223662,8.086,-2.656,3.241,2.426320,1.910302,-4.303072,100124.72,-112,+7,+50
223672,9.644,-3.481,2.958,2.589678,1.997036,-4.479733,100122.78,-107,+27,+55
223682,10.707,-4.080,2.351,2.662045,2.002889,-4.549972,100122.78,-107,+27,+55
223692,10.860,-5.071,2.424,2.810503,2.048651,-4.536137,100121.42,-101,+46,+58
223702,11.159,-5.924,2.901,2.889788,2.124210,-4.533476,100123.25,-92,+66,+61
223712,12.385,-6.326,3.884,2.742926,2.171568,-4.610100,100123.25,-82,+86,+63
223722,14.089,-6.530,4.769,2.434834,2.150816,-4.721311,100123.59,-82,+86,+63
223732,15.501,-7.345,5.673,2.234761,2.191788,-4.792614,100121.87,-70,+103,+66
223742,16.537,-8.946,6.558,2.356082,2.300871,-4.819219,100125.43,-57,+121,+68
223752,17.177,-10.569,7.295,2.704614,2.453586,-4.787292,100123.38,-43,+139,+67
223762,17.559,-12.055,6.452,3.036650,2.590871,-4.622870,100123.38,-43,+139,+67
223772,18.139,-15.423,3.514,2.913733,2.552027,-4.351495,100126.96,-27,+155,+66
223782,18.507,-17.935,-0.420,2.456118,2.229568,-4.174834,100124.84,-12,+170,+65
223792,17.330,-18.350,-2.525,2.030963,1.912431,-3.879513,100129.04,+1,+181,+63
223802,15.893,-18.329,-2.896,1.897935,1.742156,-3.293660,100129.04,+1,+181,+63
223812,12.979,-22.164,-0.613,1.902724,1.585715,-2.661514,100129.04,+13,+190,+61
223822,10.149,-26.257,0.203,1.525991,1.222284,-2.023514,100126.53,+22,+197,+58
223832,7.244,-27.559,-0.883,0.514982,0.682193,-1.185441,100126.80,+26,+199,+58
223842,7.031,-25.604,-2.474,-0.265091,0.341110,-0.083442,100127.69,+26,+199,+58
223852,10.576,-21.141,-2.832,-0.510394,0.164450,1.004722,100128.73,+26,+198,+61
223862,12.378,-16.398,-3.634,-0.299678,-0.336265,1.947089,100128.73,+21,+195,+61
223873,14.546,-10.195,-2.669,0.609165,-1.005659,2.777180,100131.11,+10,+193,+58
223882,18.378,8.655,2.468,1.773954,-1.592044,3.014501,100128.55,+10,+193,+58
223892,22.640,31.856,-2.213,1.896871,-1.554797,1.821511,100127.20,+0,+195,+50
223902,17.619,15.124,-11.405,-0.323091,-1.086540,1.122851,100127.20,-3,+193,+50
223912,13.988,-15.135,0.909,1.747348,-1.047164,2.646281,100130.70,-14,+195,+43
223922,11.434,-27.440,3.041,4.456319,-0.951384,3.440189,100130.70,-14,+195,+43
223932,14.557,-22.307,0.717,2.495495,-0.164926,3.148060,100129.19,-23,+198,+33
223942,16.874,-6.592,-1.790,0.678340,-0.371917,3.059198,100129.97,-31,+194,+31
223952,7.974,5.468,1.727,0.781037,-0.506008,2.945327,100128.19,-40,+191,+28
223962,-2.883,1.700,8.844,1.992119,-0.308596,2.622336,100128.19,-40,+191,+28
223972,-1.245,-7.711,7.582,2.916393,-0.413953,2.139180,100127.60,-44,+192,+22
223982,9.242,-16.458,0.665,1.260468,-0.589549,1.862483,100127.60,-50,+191,+16
223992,13.971,-16.716,-0.345,-1.165953,-0.396394,1.718282,100128.54,-55,+185,+20
224003,14.181,-7.842,2.270,-2.816557,0.020780,1.479364,100130.38,-55,+185,+20
224012,10.817,-0.593,3.659,-3.402410,0.153276,1.342612,100128.09,-59,+176,+27
224022,7.646,0.293,2.142,-2.754300,0.159661,1.346869,100130.91,-61,+166,+35
224032,7.685,-0.887,0.302,-1.607604,0.118157,1.174997,100128.02,-63,+160,+36
224041,8.790,-0.029,1.150,-0.729623,0.100597,1.078686,100128.02,-63,+160,+36
224052,9.088,-2.285,1.836,-0.053843,0.012799,1.112741,100124.30,-66,+156,+38
224062,9.608,-4.006,1.765,0.584688,-0.194724,1.053676,100124.30,-68,+154,+36
224072,9.196,-4.845,2.246,0.688982,-0.238357,0.999933,100131.08,-70,+154,+35
224082,8.446,-6.179,3.283,0.397386,-0.143641,0.937676,100129.34,-70,+154,+35
224092,8.796,-8.309,3.521,-0.162926,-0.054779,0.944062,100127.97,-72,+152,+36
224102,8.464,-6.403,4.641,-0.627458,0.086762,0.603512,100125.98,-73,+149,+36
224112,9.007,-5.752,4.502,-1.327182,0.146890,0.481126,100125.98,-73,+145,+38
224122,9.202,-4.100,3.212,-1.600686,0.169771,0.466227,100127.88,-75,+140,+42
224133,9.225,-2.090,1.794,-1.534173,0.137312,0.428980,100129.27,-75,+140,+42
224142,9.462,-1.216,0.808,-1.122852,0.070799,0.404503,100126.96,-76,+136,+43
224152,9.930,-2.395,1.082,-0.554559,0.005881,0.414081,100126.96,-76,+134,+45
224162,9.568,-4.900,2.175,-0.315641,-0.052651,0.455585,100126.96,-77,+132,+45
224173,9.392,-5.221,3.234,-0.249660,-0.030302,0.452392,100130.96,-77,+132,+45
224182,9.201,-5.148,3.694,-0.529017,-0.082449,0.632778,100128.96,-78,+131,+45
224192,8.841,-5.034,3.868,-0.961090,-0.108522,0.648741,100125.02,-80,+126,+46
224202,9.448,-4.061,3.594,-1.226081,-0.220265,0.696631,100125.07,-81,+122,+48
224211,9.841,-2.874,2.844,-1.253751,-0.360742,0.838172,100125.07,-81,+122,+48
224223,9.385,-2.465,2.321,-1.068045,-0.432577,0.979713,100128.59,-83,+117,+50
224232,9.946,-3.118,1.782,-0.820613,-0.504412,1.095181,100130.26,-86,+112,+49
224242,9.626,-3.515,1.346,-0.784962,-0.601788,1.046759,100128.79,-89,+107,+48
224252,11.030,-4.306,1.230,-0.572118,-0.638504,1.098374,100128.79,-89,+107,+48
224263,10.648,-4.634,1.349,-0.226247,-0.672026,1.319199,100128.89,-92,+103,+48
224272,9.750,-6.219,1.205,-0.330540,-0.633715,1.298447,100128.89,-96,+98,+46
224282,9.960,-6.680,1.300,-0.449733,-0.597531,1.232997,100127.64,-98,+93,+45
224292,9.808,-5.897,1.638,-0.647678,-0.587421,1.128704,100129.52,-98,+93,+45
224303,10.240,-5.358,1.953,-0.782302,-0.620412,1.038777,100128.47,-101,+89,+46
224313,10.699,-4.903,2.175,-0.803941,-0.735880,1.110612,100129.59,-103,+85,+43
224322,10.195,-4.605,1.849,-0.822210,-0.816228,1.162759,100129.59,-106,+78,+43
224332,10.623,-4.184,1.576,-0.754632,-0.878485,1.179786,100127.64,-106,+78,+43
224343,11.520,-4.268,1.728,-0.667366,-0.965751,1.243640,100129.17,-109,+75,+41
224353,12.358,-4.507,2.001,-0.728558,-1.029072,1.310686,100127.48,-113,+70,+40
224362,13.174,-4.041,2.153,-0.841898,-1.096118,1.409658,100130.95,-117,+64,+38
224372,13.658,-2.843,2.041,-0.913201,-1.221164,1.509695,100128.99,-117,+64,+38
224382,14.225,-2.322,2.023,-0.908944,-1.326522,1.637401,100126.37,-120,+57,+35
224392,15.165,-3.140,2.202,-0.891916,-1.416980,1.803951,100126.37,-124,+50,+31
224402,16.651,-4.130,3.052,-0.998870,-1.492540,1.956135,100126.90,-128,+41,+28
224412,18.535,-3.855,4.762,-1.352191,-1.535108,2.017859,100126.90,-128,+41,+28
224422,20.791,-1.540,7.165,-1.864613,-1.549475,1.981144,100126.48,-131,+32,+25
224432,20.852,1.694,9.153,-2.218466,-1.553200,2.057767,100128.48,-136,+22,+21
224442,19.457,2.935,9.447,-2.117365,-1.595237,2.340318,100126.64,-139,+11,+17
224452,17.921,1.696,10.181,-1.929530,-1.564907,2.476006,100123.13,-139,+11,+17
224462,15.983,-1.083,10.071,-1.737971,-1.511696,2.449932,100123.13,-141,+0,+13
224473,14.377,-7.029,5.955,-1.424026,-1.548943,2.528685,100124.59,-143,-11,+9
224483,15.050,-12.475,3.342,-1.127641,-1.741035,2.623932,100126.90,-145,-21,+4
224492,15.516,-10.727,4.347,-0.854668,-1.775622,2.442483,100124.38,-145,-21,+4
224502,13.757,-5.516,6.308,-0.386412,-1.778815,2.217932,100124.38,-146,-29,-1
224513,11.410,-1.007,6.356,0.277661,-1.792650,1.973162,100124.38,-148,-36,-6
224522,8.642,1.788,6.313,0.973128,-1.710705,1.652832,100126.67,-150,-40,-10
224532,4.460,2.816,4.210,1.225349,-1.572888,1.245768,100124.84,-150,-40,-10
224542,-0.299,1.083,3.631,0.952376,-1.430283,0.906282,100124.73,-152,-41,-13
224552,-3.025,-5.285,1.973,0.653863,-1.062595,0.638631,100124.11,-151,-43,-16
224562,-1.261,-9.337,3.597,0.527753,-0.558687,0.190594,100124.11,-152,-42,-17
224572,2.585,-9.080,4.923,0.865110,-0.436302,-0.294158,100127.23,-152,-42,-17
224582,3.484,-5.413,3.230,0.909807,-0.664045,-0.828928,100126.17,-152,-39,-18
224592,2.569,-2.575,1.790,0.433037,-0.657127,-1.079552,100121.91,-154,-34,-20
224603,1.677,-0.881,0.946,-0.161862,-0.567201,-1.239184,100121.91,-155,-31,-21
224613,0.903,0.448,-0.123,-0.611494,-0.474082,-1.467460,100125.96,-157,-25,-23
224622,0.758,1.754,-0.240,-0.860522,-0.276137,-1.832487,100125.96,-157,-25,-23
224632,1.514,2.595,0.761,-0.665237,-0.076064,-2.245404,100124.90,-157,-19,-24
224643,1.919,1.863,1.680,-0.043733,0.078248,-2.600853,100125.01,-159,-10,-23
224652,2.251,-0.078,2.426,0.872560,0.299074,-2.880743,100123.49,-158,+1,-23
224662,2.899,-1.827,3.214,1.624431,0.589606,-3.064321,100123.49,-158,+1,-23
224672,3.478,-3.802,4.106,1.888357,0.911000,-3.137220,100125.23,-157,+16,-20
224683,4.481,-5.224,4.738,1.728192,1.197807,-3.240982,100121.65,-155,+29,-17
224693,4.749,-4.882,4.764,1.320596,1.368082,-3.472449,100121.80,-152,+42,-13
224702,4.736,-3.007,4.326,1.083807,1.560706,-3.756064,100122.91,-152,+42,-13
224712,6.178,-1.123,4.144,1.247697,1.830486,-4.004559,100124.41,-147,+59,-8
224722,7.916,-0.763,4.050,1.668064,2.045990,-4.129073,100123.52,-140,+76,-4
224733,9.511,-1.482,3.556,2.183146,2.180082,-4.189733,100124.09,-133,+93,+0
224742,10.260,-3.441,2.996,2.760485,2.267348,-4.222724,100124.09,-133,+93,+0
224752,10.265,-5.805,3.151,3.254815,2.384412,-4.208889,100121.67,-122,+111,+2
224762,10.948,-6.915,3.324,3.512356,2.503605,-4.272742,100121.67,-112,+131,+3
224773,12.676,-7.426,4.001,3.444246,2.541384,-4.410559,100123.60,-100,+149,+3
224783,15.006,-8.444,4.852,3.372766,2.464583,-4.526913,100123.63,-100,+149,+3
224792,16.667,-10.076,5.783,3.377200,2.426449,-4.603714,100123.63,-87,+168,+3
224802,17.584,-12.519,6.977,3.335164,2.450926,-4.640962,100123.65,-72,+185,+1
224813,17.159,-13.994,7.590,3.256412,2.532871,-4.614357,100123.65,-56,+203,-1
224823,16.906,-14.668,6.351,3.126045,2.610027,-4.508467,100125.79,-56,+203,-1
224832,17.395,-16.937,3.646,2.915329,2.545109,-4.338192,100123.59,-38,+217,-4
224842,17.873,-19.070,-0.114,2.671623,2.330137,-4.139183,100125.23,-24,+228,-7
224852,17.599,-19.859,-2.145,2.210284,2.130596,-3.833220,100125.23,-7,+240,-10
224863,15.998,-19.283,-2.231,1.594101,1.878376,-3.308027,100125.23,-7,+240,-10
224872,12.993,-22.512,-0.017,1.393495,1.651165,-2.647679,100127.65,+3,+246,-11
224882,9.693,-27.396,0.274,1.088596,1.255807,-1.859092,100126.18,+12,+250,-14
224892,7.706,-28.763,-2.530,0.320230,0.780101,-0.934818,100130.32,+16,+252,-13
224903,8.272,-24.817,-5.142,-0.496559,0.403899,0.253915,100128.65,+16,+252,-13
224912,11.092,-19.594,-5.484,-0.721109,0.026102,1.492135,100128.65,+13,+250,-11
224922,15.064,-13.530,-6.194,-0.308192,-0.633182,2.404703,100130.62,+5,+247,-10
224932,19.392,3.515,-0.660,0.997606,-1.455292,2.962886,100129.84,-5,+244,-16
224943,25.029,33.638,-2.639,1.911238,-1.692081,1.980612,100129.30,-5,+244,-16
224953,20.456,19.546,-10.803,-0.216137,-1.189769,1.238319,100129.30,-12,+244,-21
224962,13.284,-12.208,-2.805,1.578137,-1.224356,2.672354,100129.05,-19,+242,-24
224972,8.974,-23.407,2.501,4.529750,-1.199879,3.254482,100125.80,-31,+241,-40
224983,11.363,-19.565,1.900,3.288870,-0.628393,3.214574,100125.80,-31,+241,-40
224993,16.525,-7.160,-1.919,1.594633,-0.700760,3.132097,100128.31,-41,+238,-46
225002,8.923,3.691,1.024,1.793110,-0.645421,2.828794,100129.94,-51,+232,-53
225012,-1.478,2.017,10.748,3.088265,-0.401183,2.567529,100129.94,-57,+229,-61
225022,-0.238,-10.744,10.690,3.593237,-0.867311,2.128538,100126.61,-57,+229,-61
225033,8.297,-18.998,0.163,1.315807,-1.134430,1.803951,100126.92,-64,+228,-73
225043,13.391,-17.551,-0.987,-1.861420,-0.618283,1.690612,100129.33,-70,+222,-70
225052,14.807,-8.097,2.109,-3.750942,-0.166522,1.290465,100129.33,-74,+217,-60
225062,11.364,-0.479,1.449,-4.094685,-0.114908,1.149988,100128.88,-74,+217,-60
225073,8.130,2.067,1.036,-2.873493,-0.138852,1.297915,100126.77,-77,+211,-50
225083,7.365,2.456,0.875,-1.445842,-0.247935,1.130832,100127.66,-81,+205,-46
225092,8.206,3.333,0.901,0.098872,-0.400651,1.057933,100127.66,-84,+203,-47
225102,8.971,0.207,1.578,1.390303,-0.497494,1.229805,100126.46,-84,+203,-47
225113,9.256,-3.869,2.246,1.914963,-0.510265,1.302704,100126.46,-87,+201,-53
225123,9.330,-6.768,2.699,1.520669,-0.394265,1.308025,100130.58,-91,+200,-58
225132,9.211,-8.666,4.278,0.524028,-0.195256,1.163823,100128.42,-96,+197,-59
225142,8.587,-8.792,5.729,-0.727494,-0.039348,0.988759,100129.31,-98,+193,-56
225153,8.319,-6.904,5.453,-1.699127,0.056432,0.834447,100126.22,-98,+193,-56
225163,8.975,-3.842,2.749,-2.007218,0.054835,0.711530,100126.22,-99,+190,-51
