59948,8.940,-4.067,2.556,0.002028,-0.015935,0.029897,100130.70,-108,+49,-265
59958,8.948,-4.144,2.494,0.000432,-0.023917,0.027237,100126.30,-107,+49,-265
59968,8.968,-4.080,2.445,0.003092,-0.031366,0.026705,100125.63,-108,+49,-266
59978,8.958,-4.164,2.465,0.015331,-0.032963,0.029365,100127.04,-108,+49,-266
59987,8.971,-4.214,2.427,0.016395,-0.031898,0.030429,100127.04,-106,+49,-265
59998,8.963,-4.162,2.394,0.009478,-0.037752,0.030429,100128.97,-107,+49,-266
60008,8.938,-4.179,2.420,0.014267,-0.038284,0.033622,100124.36,-106,+48,-266
60018,8.950,-4.209,2.467,0.019588,-0.039880,0.031494,100127.61,-106,+48,-266
60027,8.942,-4.207,2.482,0.014267,-0.045201,0.027237,100123.78,-106,+49,-265
60034,8.934,-4.188,2.467,0.006285,-0.049458,0.025108,100123.78,-107,+49,-265
60043,8.923,-4.189,2.432,0.002560,-0.052651,0.025108,100123.78,-107,+49,-265
60053,8.929,-4.167,2.420,-0.001164,-0.055843,0.025640,100129.62,-107,+48,-267
60063,8.909,-4.162,2.339,-0.003293,-0.056375,0.027769,100127.73,-107,+48,-267
60073,8.902,-4.061,2.354,-0.000100,-0.047330,0.033090,100127.05,-106,+48,-267
60083,8.945,-4.039,2.381,0.013735,-0.038816,0.037879,100125.13,-106,+48,-267
60093,9.035,-4.164,2.404,0.027037,-0.039880,0.039475,100127.53,-107,+48,-267
60103,8.978,-4.226,2.409,0.029166,-0.038816,0.037879,100129.11,-106,+48,-267
60112,8.983,-4.275,2.355,0.022248,-0.033495,0.035218,100129.11,-106,+48,-267
60123,8.999,-4.205,2.448,0.011606,-0.035623,0.035218,100129.38,-106,+48,-267
60133,8.899,-4.182,2.437,0.003092,-0.043605,0.030429,100126.48,-106,+48,-266
60143,8.917,-4.251,2.343,-0.004357,-0.038284,0.031494,100126.48,-106,+47,-267
60153,8.915,-4.235,2.385,-0.014467,-0.031898,0.029365,100128.13,-106,+47,-267
60163,8.942,-4.118,2.337,-0.005953,-0.028706,0.024576,100128.55,-106,+47,-267
60173,8.985,-4.065,2.357,0.011074,-0.015403,0.027237,100125.73,-106,+47,-267
60183,9.026,-4.340,2.389,0.012138,-0.006889,0.026172,100126.88,-106,+48,-267
60193,9.038,-4.225,2.322,0.002560,-0.012210,0.024044,100126.88,-106,+47,-267
60204,8.900,-4.173,2.364,-0.000100,-0.015935,0.022980,100126.69,-106,+47,-267
60213,8.897,-4.131,2.360,0.007881,-0.015935,0.024576,100124.78,-106,+46,-267
60223,8.941,-4.289,2.467,0.006285,-0.025513,0.019787,100127.03,-106,+47,-267
60233,8.853,-4.286,2.378,-0.001164,-0.028706,0.018191,100127.03,-106,+46,-267
60242,8.877,-4.335,2.301,-0.012339,-0.018064,0.016062,100127.03,-106,+46,-267
60253,8.927,-4.310,2.361,-0.016596,-0.008486,0.013934,100129.07,-106,+47,-267
60263,8.933,-4.239,2.363,-0.017660,0.002689,0.010209,100126.87,-106,+46,-268
60268,8.951,-4.226,2.383,-0.018192,0.012267,0.013402,100126.55,-106,+46,-268
60278,8.975,-4.176,2.298,-0.017660,0.019716,0.015530,100125.73,-105,+48,-267
60288,8.977,-4.141,2.339,-0.010210,0.021845,0.020851,100125.73,-107,+47,-267
60298,8.960,-4.106,2.377,-0.003825,0.013863,0.019787,100128.51,-106,+47,-267
60308,8.936,-4.075,2.460,0.006285,-0.007953,0.016595,100127.68,-106,+47,-267
60318,8.872,-4.112,2.512,0.012670,-0.024449,0.014998,100126.01,-106,+47,-267
60328,8.880,-4.363,2.406,0.018524,-0.028174,0.013934,100126.84,-106,+46,-267
60338,8.914,-4.396,2.306,0.010542,-0.026045,0.010209,100126.84,-106,+46,-267
60348,8.836,-4.336,2.251,0.007881,-0.021788,0.003824,100126.31,-106,+46,-267
60358,8.869,-4.301,2.230,0.014267,-0.007421,0.003824,100126.36,-106,+46,-267
60368,8.988,-4.203,2.196,0.024909,0.011202,0.007017,100128.61,-106,+46,-267
60378,8.924,-4.177,2.230,0.038744,0.029826,0.010741,100126.56,-107,+46,-267
60388,8.827,-4.130,2.216,0.056303,0.043661,0.011806,100126.56,-107,+46,-267
60398,8.793,-3.990,2.221,0.069074,0.054835,0.018723,100127.96,-106,+46,-267
60408,8.865,-3.832,2.354,0.091423,0.060689,0.028301,100127.32,-106,+46,-267
60418,8.982,-3.804,2.546,0.143037,0.031955,0.037347,100129.52,-106,+46,-267
60428,9.104,-3.542,2.519,0.197313,0.004817,0.055971,100123.87,-106,+46,-267
60438,9.085,-4.058,2.425,0.218065,0.006946,0.068209,100123.87,-106,+45,-266
60448,9.044,-4.422,2.334,0.186138,-0.013807,0.065017,100130.97,-106,+44,-267
60459,8.843,-3.648,2.082,0.172835,-0.063293,0.071934,100126.20,-106,+44,-267
60468,8.847,-3.256,2.294,0.247863,-0.088834,0.093750,100125.78,-106,+44,-267
60478,8.971,-3.770,2.449,0.386211,-0.126614,0.104393,100127.09,-106,+43,-268
60488,8.954,-4.051,2.319,0.474010,-0.151623,0.117163,100127.09,-106,+42,-268
60498,8.905,-4.453,2.345,0.510193,-0.169183,0.104925,100128.30,-105,+40,-268
60504,8.649,-4.779,2.460,0.543716,-0.183550,0.082576,100126.99,-105,+40,-268
60513,8.130,-4.830,2.319,0.557551,-0.184614,0.058099,100126.99,-106,+39,-269
60523,8.049,-4.810,2.470,0.539459,-0.189935,0.012870,100128.20,-105,+38,-270
60533,8.016,-4.598,2.791,0.534138,-0.206430,-0.044066,100125.90,-105,+38,-270
60544,8.295,-4.802,2.653,0.527221,-0.185678,-0.074928,100125.90,-105,+37,-270
60554,8.693,-5.110,2.726,0.477202,-0.163330,-0.121754,100127.93,-104,+35,-271
60563,9.140,-5.148,2.778,0.367056,-0.136724,-0.179222,100126.65,-104,+35,-272
60573,9.653,-4.779,2.941,0.261166,-0.131403,-0.229772,100125.87,-104,+35,-272
60583,10.043,-4.550,2.805,0.193056,-0.137256,-0.256910,100125.87,-103,+35,-271
60593,9.890,-4.657,2.579,0.141441,-0.136724,-0.268616,100125.87,-103,+35,-272
60603,9.606,-4.262,2.610,0.081313,-0.140981,-0.275002,100127.59,-103,+36,-272
60613,9.318,-3.791,2.645,0.062157,-0.151091,-0.278726,100128.38,-103,+36,-272
60623,9.221,-3.696,2.642,0.085392,-0.156589,-0.256555,100126.26,-102,+37,-273
60633,9.299,-3.682,2.827,0.111111,-0.168651,-0.243075,100126.26,-101,+37,-273
60643,9.161,-3.547,2.802,0.118560,-0.178761,-0.211681,100126.26,-101,+37,-274
60653,9.013,-3.729,2.595,0.082909,-0.168651,-0.174433,100127.23,-101,+37,-274
60663,8.836,-4.075,2.410,0.023313,-0.152687,-0.165919,100127.25,-101,+37,-274
60674,8.802,-3.942,2.158,-0.010742,-0.139917,-0.159002,100128.44,-101,+37,-275
60684,8.690,-3.971,2.025,-0.012339,-0.129275,-0.153149,100128.44,-99,+38,-275
60693,8.705,-3.955,1.918,-0.027770,-0.117036,-0.156873,100126.31,-99,+38,-275
60703,8.796,-3.851,1.942,-0.062357,-0.102669,-0.142506,100126.31,-99,+39,-275
60713,8.898,-4.009,1.893,-0.086302,-0.077128,-0.140910,100128.19,-99,+39,-275
60723,8.890,-4.195,1.522,-0.139513,-0.035623,-0.145167,100129.03,-99,+41,-276
60733,9.053,-4.097,1.678,-0.194852,-0.004229,-0.151552,100126.25,-99,+41,-276
60743,9.262,-3.540,2.160,-0.163990,-0.000504,-0.152616,100126.25,-98,+42,-275
60753,9.218,-3.421,2.400,-0.091091,-0.018064,-0.149956,100127.88,-98,+42,-276
60764,9.091,-3.389,2.412,-0.046394,-0.036155,-0.148892,100129.15,-98,+42,-277
60773,9.149,-3.383,2.442,-0.010742,-0.035623,-0.131864,100127.10,-98,+43,-275
60783,9.219,-3.779,2.476,-0.025641,-0.032963,-0.127075,100123.21,-98,+43,-275
60793,9.099,-3.765,2.386,-0.060229,-0.037752,-0.113240,100126.76,-98,+44,-276
60804,8.999,-3.807,2.154,-0.093752,-0.030302,-0.087167,100130.68,-99,+43,-276
60814,9.248,-3.910,2.129,-0.159733,-0.024449,-0.065883,100128.54,-98,+44,-277
60823,9.315,-3.238,2.275,-0.212412,-0.026577,-0.042470,100128.54,-98,+44,-277
60833,9.169,-3.147,2.319,-0.197513,-0.032963,-0.006286,100122.84,-98,+44,-276
60844,9.207,-3.103,2.474,-0.118761,-0.063293,0.021383,100122.84,-98,+45,-277
60854,9.336,-3.266,2.604,-0.064485,-0.097880,0.066613,100128.57,-98,+45,-277
60859,9.480,-3.457,2.455,-0.039476,-0.116504,0.097475,100126.12,-98,+45,-277
60868,9.535,-3.547,2.523,-0.041605,-0.125550,0.119292,100128.21,-98,+44,-277
60878,9.425,-3.493,2.749,-0.061293,-0.138852,0.166117,100123.76,-98,+44,-277
60889,9.443,-3.594,2.694,-0.143770,-0.130339,0.225182,100123.76,-97,+44,-278
60898,9.525,-3.681,2.457,-0.254449,-0.106926,0.289035,100127.96,-97,+44,-277
60908,9.555,-3.194,2.243,-0.335861,-0.089898,0.369383,100127.27,-98,+43,-277
60918,9.475,-2.716,2.530,-0.314577,-0.124486,0.421530,100124.29,-98,+43,-277
60929,9.592,-2.641,2.856,-0.212944,-0.193128,0.473677,100126.18,-97,+43,-278
60938,10.144,-3.074,2.567,-0.103862,-0.257513,0.539126,100126.18,-97,+42,-278
60948,10.379,-3.534,2.624,-0.041605,-0.337329,0.581695,100129.45,-96,+41,-279
60958,9.980,-3.124,3.063,-0.000100,-0.425660,0.628521,100127.60,-96,+41,-279
60968,10.636,-3.426,3.112,0.039808,-0.489513,0.672154,100123.26,-96,+39,-280
60979,10.760,-4.335,2.606,-0.053843,-0.521439,0.727493,100125.35,-95,+37,-281
60988,10.969,-4.769,2.264,-0.267219,-0.515586,0.768998,100125.35,-93,+36,-282
60998,11.693,-4.855,2.147,-0.434834,-0.465568,0.813163,100129.84,-93,+36,-282
61008,12.713,-5.440,2.233,-0.630118,-0.402779,0.847218,100128.68,-92,+36,-282
61019,15.081,-4.417,1.407,-0.856797,-0.454926,0.853603,100126.16,-91,+35,-283
61028,14.976,-3.065,1.990,-0.836577,-0.544320,0.892979,100126.07,-90,+35,-285
61038,14.253,-1.840,2.724,-0.668962,-0.628393,0.902025,100126.07,-89,+35,-285
61048,13.993,-2.115,3.020,-0.285843,-0.716724,0.901493,100126.81,-89,+35,-285
61059,13.652,-3.656,2.246,0.106854,-0.740669,0.955768,100126.97,-87,+33,-287
61069,12.558,-5.367,1.885,0.330340,-0.691182,0.999401,100129.28,-86,+28,-288
61078,10.974,-7.205,2.029,0.339386,-0.653935,1.000466,100126.70,-85,+25,-290
61088,9.888,-10.151,1.538,0.076524,-0.642228,1.026007,100126.70,-85,+25,-290
61099,10.784,-13.961,0.368,-0.186871,-0.609237,1.156374,100126.86,-84,+22,-291
61109,12.251,-13.804,1.308,-0.674815,-0.574118,1.196814,100126.97,-82,+21,-292
61118,11.454,-8.983,1.777,-1.321861,-0.461311,0.966942,100125.45,-82,+23,-292
61128,10.202,-8.100,0.341,-1.830026,-0.348504,1.003126,100125.81,-82,+23,-292
61138,9.555,-9.920,-0.042,-1.929530,-0.277733,1.151585,100125.81,-80,+25,-292
61149,9.219,-8.476,0.416,-1.897071,-0.238889,1.125511,100126.80,-80,+28,-292
61158,8.486,-4.693,0.843,-1.736906,-0.224522,1.081878,100127.74,-79,+30,-292
61168,7.441,-3.023,0.791,-1.314411,-0.246339,1.166484,100125.70,-79,+30,-292
61178,6.437,-4.076,0.615,-0.789751,-0.243146,1.219163,100124.87,-80,+30,-293
61189,5.279,-4.691,0.569,-0.419935,-0.199513,1.140410,100124.87,-80,+29,-292
61199,4.369,-4.237,0.318,-0.298082,-0.155880,1.069108,100125.87,-79,+27,-293
61208,3.628,-3.539,0.043,-0.251788,-0.101073,0.991420,100126.60,-79,+27,-293
61214,3.277,-3.297,-0.174,-0.212944,-0.064357,0.931823,100126.80,-79,+25,-292
61223,2.846,-3.573,-0.469,-0.187935,-0.043073,0.857860,100126.80,-79,+25,-292
61234,2.315,-3.964,-0.752,-0.175164,-0.000504,0.716319,100124.93,-79,+23,-292
61244,2.043,-3.808,-0.708,-0.231568,0.051111,0.529016,100124.93,-80,+23,-292
61253,1.938,-3.026,-0.546,-0.307660,0.083569,0.345438,100126.16,-80,+22,-292
61263,1.729,-2.430,-0.588,-0.328412,0.103790,0.209750,100124.48,-81,+22,-291
61274,1.358,-2.623,-0.659,-0.341183,0.129331,0.070338,100125.91,-81,+22,-291
61284,0.889,-2.780,-0.763,-0.352889,0.164450,-0.053644,100125.91,-80,+24,-291
61293,0.781,-2.854,-0.856,-0.320430,0.217129,-0.190396,100125.91,-81,+25,-291
61303,1.048,-2.763,-0.985,-0.277329,0.253844,-0.331937,100127.31,-82,+27,-290
61314,1.465,-2.467,-1.036,-0.209219,0.275129,-0.453258,100126.69,-82,+27,-290
61324,1.750,-2.492,-1.050,-0.099605,0.290028,-0.535735,100126.73,-83,+29,-290
61333,2.069,-2.859,-1.111,0.038212,0.306523,-0.604378,100126.22,-83,+29,-289
61343,2.334,-3.195,-0.976,0.174432,0.325679,-0.661313,100126.22,-84,+31,-288
61353,2.680,-3.812,-0.767,0.333533,0.347496,-0.702286,100129.73,-84,+31,-288
61364,3.215,-4.347,-0.465,0.465496,0.369312,-0.761350,100127.13,-85,+32,-288
61374,3.852,-4.359,-0.097,0.559147,0.377294,-0.812433,100126.28,-85,+31,-287
61383,4.179,-4.338,0.317,0.656523,0.380487,-0.864047,100126.28,-86,+33,-287
61393,5.300,-5.090,1.067,0.592138,0.399643,-0.811900,100128.98,-86,+33,-287
61404,4.945,-3.682,1.915,0.841697,0.484780,-0.940671,100125.22,-86,+33,-286
61414,6.389,-3.294,2.839,0.951312,0.544376,-1.105625,100125.22,-87,+33,-286
61423,7.349,-4.554,2.873,1.040174,0.667294,-1.213643,100127.41,-90,+33,-284
61433,7.737,-4.869,2.231,1.051349,0.751899,-1.280689,100124.89,-90,+33,-284
61444,8.165,-5.511,1.806,1.162027,0.774248,-1.334964,100124.89,-91,+34,-283
61449,8.561,-5.830,1.025,1.224816,0.743385,-1.409460,100128.05,-92,+35,-282
61459,9.246,-6.535,0.988,1.226413,0.689110,-1.457349,100127.00,-92,+35,-282
61468,5.986,-20.322,-10.466,0.664505,0.491698,-1.470652,100127.73,-94,+36,-282
61478,9.025,-46.649,13.123,0.536799,1.893275,-0.316506,100126.69,-98,+36,-277
61489,25.626,-16.484,-0.885,2.059697,-0.079256,-0.766139,100126.69,-98,+36,-277
61499,7.620,-7.889,-0.964,-2.158337,0.845018,-1.423827,100129.16,-97,+36,-277
61508,10.509,4.640,-0.545,-1.791714,0.869496,-0.982708,100129.54,-99,+45,-275
61518,8.902,4.994,2.606,-1.375072,1.000394,-1.104561,100125.24,-101,+52,-273
61529,9.358,0.397,4.888,-0.884999,1.187165,-1.307294,100124.09,-102,+57,-269
61539,14.588,1.587,8.073,-0.092155,1.172266,-1.395093,100124.09,-102,+57,-269
61549,24.167,-0.145,4.058,0.844890,0.679000,-1.312616,100126.67,-104,+60,-268
61558,38.907,-0.058,2.711,1.584523,-0.082449,-0.985900,100126.58,-103,+59,-269
61569,25.134,4.642,3.177,1.804816,-0.292632,-0.326616,100127.52,-101,+54,-270
61579,4.554,1.610,0.827,1.705312,0.021845,0.099072,100124.84,-101,+54,-270
61588,-0.358,-9.278,0.999,1.653165,0.201166,0.124081,100124.84,-103,+51,-270
61598,3.178,-9.855,2.189,0.715587,0.047386,-0.043534,100128.30,-103,+48,-270
61608,7.329,-3.761,3.603,0.165918,0.028762,-0.054708,100128.55,-103,+48,-271
61619,9.561,-0.939,4.430,0.635771,0.055368,0.060760,100127.61,-103,+48,-271
61629,7.852,-3.321,3.812,0.828395,0.058028,0.096411,100126.52,-103,+46,-272
61638,9.363,-5.307,2.559,0.525092,0.086230,0.093750,100126.52,-105,+44,-271
61648,11.880,-4.533,1.966,0.370780,0.088890,0.098539,100126.13,-104,+43,-272
61659,10.926,-3.897,2.464,0.541055,0.089955,0.140576,100127.22,-104,+43,-272
61669,8.939,-4.392,2.203,0.543184,0.128799,0.138448,100125.28,-105,+41,-271
61678,9.628,-4.903,2.109,0.394725,0.179349,0.148558,100125.28,-105,+39,-270
61688,9.686,-4.694,2.811,0.200505,0.193184,0.179420,100125.28,-105,+38,-270
61699,8.968,-4.875,3.548,0.102597,0.158065,0.203897,100129.28,-105,+38,-270
61709,8.849,-4.895,3.770,0.024377,0.106450,0.202833,100129.13,-106,+38,-269
61719,9.097,-4.719,3.174,-0.105458,0.082505,0.217732,100127.61,-105,+37,-270
61728,8.928,-5.470,2.602,-0.361935,0.083569,0.177292,100125.94,-107,+37,-269
61739,9.094,-4.787,2.388,-0.528485,0.090487,0.159732,100125.94,-107,+37,-269
61749,9.135,-3.621,2.355,-0.591806,0.094212,0.176760,100127.67,-106,+39,-269
61759,8.892,-3.377,2.293,-0.514650,0.109643,0.210282,100126.00,-108,+39,-268
61768,8.654,-3.048,2.420,-0.403972,0.140505,0.251255,100125.95,-108,+40,-268
61778,8.642,-4.241,2.646,-0.315641,0.125606,0.317769,100125.38,-108,+40,-268
61789,8.577,-5.110,2.292,-0.227311,0.080377,0.295420,100125.38,-107,+39,-267
61799,8.665,-4.883,2.527,-0.264559,0.078248,0.298613,100131.42,-108,+39,-267
61804,8.690,-4.846,2.618,-0.321495,0.065478,0.287970,100128.28,-108,+39,-267
61813,8.708,-4.827,2.682,-0.373109,0.054303,0.284778,100128.28,-108,+39,-267
61824,8.875,-4.347,2.600,-0.454522,0.050579,0.298081,100124.56,-108,+39,-267
61834,8.950,-4.357,2.778,-0.489109,0.054835,0.307659,100123.42,-108,+39,-267
61844,8.734,-4.784,2.588,-0.440155,0.028230,0.304466,100123.42,-108,+39,-267
61854,8.845,-5.003,2.461,-0.423127,0.001624,0.296484,100128.16,-108,+39,-266
61863,9.128,-4.816,2.489,-0.434834,-0.011678,0.302337,100127.11,-109,+39,-266
61874,8.995,-4.314,2.610,-0.444412,-0.026577,0.293292,100124.33,-109,+40,-265
61884,8.875,-4.312,2.533,-0.468357,-0.059036,0.519438,100124.33,-109,+40,-265
61893,8.624,-3.632,2.631,-0.352889,-0.014871,0.365659,100124.33,-110,+39,-265
61903,8.927,-4.155,2.582,-0.370449,-0.005825,0.439090,100129.32,-109,+39,-266
61914,9.248,-4.759,2.752,-0.433238,0.004285,0.451328,100126.70,-110,+39,-265
61924,9.302,-5.035,2.730,-0.532742,0.001092,0.494429,100128.32,-110,+39,-265
61934,9.448,-5.142,2.616,-0.651403,-0.013807,0.516246,100128.27,-110,+39,-264
61943,9.378,-5.319,2.657,-0.732283,-0.004761,0.532741,100128.27,-110,+39,-265
61954,9.483,-5.523,2.681,-0.834980,-0.024449,0.527420,100126.27,-110,+40,-264
61964,9.655,-5.143,2.873,-0.940870,-0.086706,0.542851,100126.70,-110,+40,-264
61974,9.770,-4.538,2.719,-1.011641,-0.170779,0.584356,100125.63,-110,+41,-264
61984,10.199,-4.421,2.449,-1.030265,-0.239421,0.668429,100125.63,-110,+41,-265
61993,10.705,-5.077,2.317,-1.015898,-0.320302,0.746117,100127.29,-110,+41,-265
62004,11.163,-4.982,2.358,-1.024944,-0.396926,0.805181,100127.29,-110,+41,-265
62014,11.866,-4.842,2.487,-1.081347,-0.468761,0.910539,100126.71,-109,+41,-266
62024,12.030,-4.938,2.525,-1.196815,-0.585825,1.012172,100126.82,-108,+41,-266
62033,12.035,-4.705,2.608,-1.282485,-0.723641,1.129236,100128.13,-107,+40,-268
62040,12.102,-4.499,2.790,-1.302705,-0.800797,1.228741,100128.13,-107,+40,-268
62049,12.505,-4.596,2.810,-1.295255,-0.852412,1.342080,100130.22,-105,+41,-270
62059,13.542,-4.571,3.031,-1.293659,-0.936485,1.505970,100126.56,-104,+39,-271
62068,15.877,-4.738,3.594,-1.414980,-1.037054,1.659217,100126.25,-104,+39,-271
62078,18.878,-4.380,4.479,-1.576209,-1.182320,1.790116,100125.52,-101,+38,-273
62089,20.437,-2.716,4.594,-1.656026,-1.354723,1.972630,100125.52,-99,+37,-277
62099,19.689,-0.966,4.280,-1.616650,-1.469659,2.220061,100125.50,-96,+35,-278
62109,19.388,0.842,3.859,-1.316008,-1.561714,2.553162,100127.86,-96,+35,-278
62118,18.888,-1.051,4.833,-1.074430,-1.572356,2.627125,100126.34,-92,+31,-282
62129,16.718,-0.935,6.290,-0.867439,-1.629824,2.670758,100123.56,-90,+26,-285
62139,14.322,-1.574,6.953,-0.739201,-1.640998,2.721840,100123.56,-86,+21,-288
62149,12.793,-7.065,6.226,-0.322027,-1.698998,2.862317,100123.97,-86,+21,-288
62158,12.998,-10.637,5.432,0.251056,-1.726136,2.947987,100126.27,-82,+14,-291
62169,13.022,-8.593,4.720,0.392065,-1.670797,2.795804,100123.66,-78,+6,-295
62179,11.124,-4.444,4.461,0.383551,-1.539365,2.393529,100122.25,-74,+0,-297
62189,8.776,-1.155,4.110,0.496358,-1.435072,2.050318,100122.25,-74,+0,-297
62199,6.417,-0.460,3.610,0.644817,-1.297788,1.882703,100127.29,-70,-7,-300
62209,4.086,-1.719,2.814,0.800725,-1.138687,1.719878,100124.62,-66,-13,-302
62219,1.754,-4.688,1.619,0.688450,-0.800265,1.433603,100124.09,-64,-17,-303
62229,2.291,-8.222,2.365,0.033955,-0.342651,1.223419,100123.84,-64,-17,-303
62239,4.714,-7.476,2.983,-0.636504,-0.344247,0.723768,100123.84,-63,-19,-303
62248,5.176,-2.974,1.887,-1.459145,-0.443219,-0.121754,100124.76,-62,-16,-305
62259,4.559,2.270,1.062,-2.145035,-0.394797,-0.595332,100125.70,-62,-7,-306
62269,3.254,5.505,-0.168,-2.197714,-0.314981,-0.783699,100125.54,-62,-7,-306
62274,2.173,6.069,-0.428,-1.823108,-0.211219,-0.922047,100123.35,-61,+0,-307
62283,1.595,5.308,-0.010,-1.196283,-0.073935,-1.107753,100123.35,-61,+5,-307
62294,1.379,3.406,0.781,-0.290100,0.094744,-1.374340,100123.35,-61,+5,-307
62304,1.723,1.217,1.560,0.429312,0.230964,-1.624964,100124.13,-63,+7,-306
62314,2.315,-0.290,2.352,0.823074,0.379955,-1.896872,100124.23,-64,+10,-306
62324,2.834,-0.575,2.619,0.980046,0.530009,-2.211349,100122.64,-65,+11,-305
62334,3.338,-0.148,2.570,1.017294,0.674211,-2.505606,100122.64,-65,+11,-305
62344,3.789,0.432,2.673,1.100303,0.829055,-2.761551,100119.56,-67,+15,-303
62354,4.332,0.539,2.959,1.267385,0.990284,-3.012707,100119.56,-70,+18,-302
62364,5.139,-0.103,3.008,1.520137,1.151514,-3.263862,100123.50,-73,+23,-300
62373,6.142,-1.068,2.928,1.789385,1.288798,-3.494798,100122.55,-73,+23,-300
62384,7.231,-2.180,2.819,1.931990,1.417036,-3.695935,100121.56,-77,+26,-297
62395,8.380,-3.015,2.398,1.974027,1.534810,-3.895122,100124.64,-80,+29,-295
62404,9.323,-3.247,1.960,2.001165,1.612321,-4.058302,100124.64,-84,+34,-292
62414,10.277,-3.334,1.527,2.070871,1.653293,-4.208357,100125.42,-84,+34,-292
62424,10.970,-3.844,1.598,2.233696,1.646908,-4.307330,100124.95,-87,+40,-288
62434,11.594,-5.313,2.519,2.398118,1.610724,-4.348302,100125.06,-89,+44,-288
62444,12.482,-6.950,3.557,2.465164,1.579330,-4.408430,100124.66,-91,+50,-285
62454,13.399,-7.694,4.097,2.408761,1.555917,-4.514320,100124.02,-91,+50,-285
62465,13.920,-8.971,4.509,2.423660,1.587312,-4.564339,100124.76,-92,+56,-283
62474,14.802,-9.744,4.258,2.547109,1.580394,-4.581898,100124.76,-93,+61,-282
62484,15.493,-11.361,3.867,2.796137,1.591036,-4.468027,100124.82,-94,+67,-280
62494,15.768,-13.907,3.022,3.089329,1.578266,-4.259972,100124.82,-94,+67,-280
62503,16.168,-16.132,2.062,3.173934,1.517073,-4.026907,100127.92,-94,+70,-278
62514,16.757,-17.737,1.425,2.991953,1.414376,-3.696467,100122.84,-95,+72,-277
62524,16.403,-19.528,1.531,2.673751,1.239844,-3.281954,100125.41,-97,+75,-277
62534,13.545,-22.436,2.795,2.264027,1.024339,-2.797202,100125.30,-97,+75,-277
62544,9.900,-23.994,3.004,1.571752,0.852468,-2.252854,100125.30,-95,+77,-277
62555,7.913,-24.313,2.861,0.639496,0.818945,-1.677643,100128.05,-96,+79,-275
62564,8.358,-23.571,2.140,-0.096412,0.851404,-1.113607,100128.48,-96,+84,-273
62574,8.465,-22.065,0.756,-0.796669,0.680064,-0.417075,100127.55,-96,+84,-273
62584,8.710,-20.332,-0.867,-1.003127,0.439019,0.324686,100127.55,-98,+86,-271
62594,9.834,-17.921,-3.442,-1.037182,0.017588,1.135621,100127.55,-99,+86,-269
62604,13.690,-8.070,-2.664,-0.765806,-0.541660,1.822043,100130.03,-101,+83,-270
62614,19.255,16.011,0.538,0.138248,-0.989164,1.560245,100127.47,-101,+83,-270
62624,18.718,24.576,-1.744,-0.525293,-0.808779,0.700356,100125.22,-99,+79,-273
62629,16.452,7.817,-2.652,-1.088797,-0.342118,1.295786,100126.73,-99,+79,-273
62639,16.071,-8.951,-1.225,0.645349,-0.422467,2.171639,100126.73,-99,+79,-273
62649,12.716,-20.224,-0.550,2.819017,-0.474614,2.403107,100129.74,-99,+67,-277
62659,11.711,-14.308,-3.300,1.873458,-0.357017,2.569125,100130.99,-102,+54,-278
62669,9.228,-2.215,-1.256,0.690046,-0.183550,2.394593,100129.01,-103,+46,-278
62679,4.985,2.613,5.874,1.192890,0.098468,2.132795,100127.49,-103,+46,-278
62689,3.458,-5.302,8.660,1.749477,0.006413,1.880043,100127.49,-104,+37,-278
62699,7.465,-11.557,4.232,1.296651,-0.267091,1.508630,100126.86,-104,+29,-279
62709,10.135,-10.517,1.839,-0.425788,-0.167054,1.358575,100126.66,-105,+27,-278
62720,10.921,-5.183,3.872,-1.911971,0.073459,1.295786,100126.66,-105,+27,-278
62729,10.374,-3.978,4.155,-2.448337,0.091551,1.099970,100127.44,-105,+29,-278
62739,9.224,-3.391,2.085,-1.990191,0.051643,0.926502,100127.44,-105,+31,-278
62749,8.979,-1.147,0.548,-1.435200,0.110707,0.848282,100128.88,-106,+33,-277
62759,9.797,0.235,0.903,-0.708870,0.148487,0.849878,100129.77,-106,+33,-277
62769,9.788,-1.414,1.602,0.190395,0.067606,0.903089,100129.41,-106,+31,-276
62779,9.302,-4.068,1.862,0.712927,0.017056,0.899897,100124.91,-106,+26,-277
62789,9.099,-6.648,2.695,0.612890,0.051111,0.814759,100124.91,-108,+23,-277
62799,8.877,-7.924,3.980,0.031826,0.097936,0.657787,100130.59,-108,+23,-277
62809,8.654,-7.483,4.985,-0.730155,0.135716,0.452924,100130.13,-108,+22,-276
62819,8.508,-5.863,4.781,-1.349531,0.168707,0.266686,100130.02,-108,+23,-275
62829,8.734,-3.469,3.906,-1.646980,0.164450,0.168246,100123.16,-108,+27,-275
62839,9.373,-1.393,3.199,-1.525659,0.133056,0.169310,100123.16,-108,+27,-275
62850,9.828,-1.160,2.519,-1.120723,0.067606,0.250191,100130.92,-108,+31,-274
62859,9.586,-1.967,2.313,-0.766870,0.019184,0.363530,100123.39,-109,+32,-273
62869,9.213,-3.223,2.460,-0.653531,-0.009550,0.455053,100128.61,-110,+32,-273
62879,9.280,-3.597,2.925,-0.691311,-0.049458,0.521035,100127.83,-110,+32,-273
62889,9.370,-3.412,3.458,-0.747182,-0.109586,0.576374,100127.83,-109,+33,-273
62899,9.298,-3.139,3.560,-0.770063,-0.198981,0.635970,100131.02,-108,+33,-274
62909,9.120,-3.011,3.701,-0.780705,-0.271348,0.708869,100129.92,-108,+32,-274
62919,9.195,-3.480,3.579,-0.778045,-0.306467,0.767933,100127.03,-108,+32,-274
62929,9.704,-3.548,2.720,-0.781769,-0.355421,0.798264,100125.52,-108,+32,-275
62939,10.199,-3.877,2.565,-0.799861,-0.431513,0.817420,100125.52,-107,+32,-275
62949,10.305,-4.093,2.169,-0.749843,-0.514522,0.809970,100131.14,-106,+31,-277
62959,10.216,-3.944,1.750,-0.684925,-0.508137,0.838704,100128.00,-105,+31,-277
62969,10.175,-4.183,1.625,-0.625861,-0.510797,0.856264,100129.56,-105,+30,-277
62980,9.943,-4.207,1.566,-0.583292,-0.546449,0.882869,100127.36,-104,+29,-279
62989,9.797,-4.276,1.799,-0.585953,-0.554430,0.923310,100127.36,-103,+29,-281
62999,9.887,-4.387,2.096,-0.588081,-0.582100,0.953108,100131.58,-101,+28,-282
63009,9.967,-4.381,2.351,-0.572118,-0.632118,0.990355,100126.81,-101,+28,-282
63020,9.785,-4.714,2.463,-0.570522,-0.658724,1.019621,100128.95,-101,+27,-283
63029,10.278,-5.101,2.552,-0.671623,-0.693311,1.084539,100125.45,-99,+25,-285
63039,9.979,-4.182,2.716,-0.687586,-0.744925,1.130832,100125.45,-96,+23,-286
63049,10.093,-4.062,2.537,-0.788155,-0.794944,1.184575,100125.57,-96,+23,-286
63059,10.738,-3.557,2.191,-0.854136,-0.869971,1.290465,100128.40,-96,+23,-288
63069,11.657,-2.841,2.134,-0.875953,-0.966815,1.444777,100127.09,-92,+21,-290
63079,12.310,-2.625,2.093,-0.816357,-1.056210,1.630483,100127.24,-91,+19,-292
63089,13.118,-2.947,1.472,-0.749311,-1.132833,1.801291,100127.24,-91,+19,-292
63099,13.853,-3.164,1.116,-0.776448,-1.199879,1.964116,100130.67,-87,+17,-295
63109,14.873,-3.221,1.200,-0.891916,-1.265861,2.109382,100128.64,-84,+15,-298
63119,15.920,-3.451,2.049,-1.066448,-1.315879,2.245602,100126.33,-81,+12,-301
63129,17.147,-3.205,3.342,-1.341549,-1.374943,2.337125,100124.61,-81,+12,-301
63139,19.415,-1.763,5.633,-1.629420,-1.456356,2.357345,100124.61,-76,+11,-303
63150,21.568,1.521,8.723,-1.833218,-1.536173,2.385547,100125.86,-72,+9,-307
63159,20.376,4.553,10.131,-1.841200,-1.619182,2.594134,100123.83,-67,+9,-310
63169,18.420,3.776,10.073,-1.432540,-1.732521,2.805914,100124.81,-67,+9,-310
63179,17.753,1.429,10.028,-0.895109,-1.824044,2.761217,100123.83,-62,+7,-313
63190,14.739,-3.711,8.810,-0.307660,-1.899604,2.709070,100123.83,-56,+3,-317
63199,11.978,-9.747,4.965,0.023313,-1.761255,2.610630,100127.21,-50,-1,-320
63209,13.052,-12.808,3.362,-0.237953,-1.668136,2.702684,100126.95,-50,-1,-320
63219,13.016,-11.496,2.899,0.102420,-1.849053,2.789950,100125.63,-45,-6,-323
63229,10.664,-8.856,4.813,0.420799,-1.818723,2.489308,100125.63,-38,-13,-326
63239,6.654,-5.000,7.230,0.604909,-1.646852,1.992850,100125.63,-33,-18,-328
63249,1.853,-1.773,5.190,0.633642,-1.313219,1.363896,100127.52,-33,-18,-328
63259,-0.706,-1.342,4.639,-0.084706,-0.868375,0.727493,100125.48,-29,-21,-330
63269,0.848,-0.550,3.308,-0.761549,-0.626797,0.359805,100125.38,-26,-21,-332
63280,2.840,1.122,1.088,-1.236191,-0.722577,-0.066947,100123.91,-23,-15,-332
63289,3.032,2.092,0.365,-1.250558,-0.699696,-0.500616,100123.91,-23,-15,-332
63299,2.996,2.284,0.633,-0.787091,-0.545384,-0.827332,100127.32,-22,-10,-333
63309,2.719,2.346,1.036,-0.128871,-0.388412,-1.141276,100125.90,-20,-7,-335
63320,2.308,1.860,1.475,0.435698,-0.238889,-1.410524,100123.87,-19,-7,-335
63329,2.058,0.500,2.254,0.864046,-0.056375,-1.662212,100122.09,-19,-7,-335
63339,2.451,-0.995,2.795,1.116798,0.155936,-1.927202,100122.09,-21,-7,-335
63349,3.475,-1.856,2.825,1.094450,0.361331,-2.222523,100126.91,-21,-7,-334
63360,4.638,-2.186,2.537,0.878945,0.545973,-2.466762,100125.71,-23,-5,-333
63370,5.450,-2.033,2.669,0.615019,0.680064,-2.639698,100123.77,-23,-5,-333
63379,5.454,-0.984,2.744,0.591606,0.756156,-2.838706,100122.63,-27,-2,-332
63389,5.351,0.078,2.816,1.042835,0.888651,-3.112743,100122.63,-31,+0,-330
63399,6.166,0.377,3.056,1.697862,1.088193,-3.402211,100125.40,-33,+0,-329
63410,7.202,-0.540,3.093,2.224651,1.235587,-3.599091,100124.91,-33,+0,-329
63419,7.909,-2.466,2.735,2.544449,1.301036,-3.716688,100124.98,-38,+1,-327
63429,8.555,-4.201,2.406,2.696632,1.343073,-3.830027,100123.09,-43,+0,-324
63439,8.977,-4.955,2.397,2.758357,1.392559,-3.964651,100123.09,-48,+0,-322
63450,9.296,-4.851,2.869,2.779641,1.450559,-4.077990,100126.41,-53,+0,-479
63455,9.662,-4.664,3.506,2.777513,1.497917,-4.154082,100125.57,-53,+0,-318
63464,10.305,-4.672,4.127,2.728026,1.535697,-4.247733,100125.57,-57,+0,-316
63474,11.345,-5.255,4.574,2.640760,1.572412,-4.381825,100125.37,-57,+0,-316
63484,12.317,-6.944,5.159,2.676412,1.659146,-4.488247,100125.41,-63,+1,-312
63495,13.080,-8.945,5.829,2.817421,1.795899,-4.560614,100125.41,-68,+3,-308
63505,13.552,-10.315,6.143,2.961091,1.947018,-4.573916,100125.71,-73,+5,-305
63514,13.970,-11.231,5.355,3.049953,2.067275,-4.514852,100124.16,-73,+5,-305
63524,14.368,-14.507,3.693,3.102632,2.110908,-4.365861,100126.57,-79,+7,-302
63535,15.471,-16.390,1.301,2.972797,2.032155,-4.289237,100126.57,-85,+9,-297
63544,16.969,-17.261,-0.537,2.700357,1.991183,-4.118431,100126.57,-89,+13,-293
63554,17.633,-17.658,-0.647,2.361935,1.803348,-3.842266,100128.39,-89,+13,-293
63564,15.676,-18.822,0.919,2.040009,1.450559,-3.507569,100130.27,-92,+15,-289
63575,12.096,-20.499,2.807,1.512510,1.135728,-3.035232,100128.08,-95,+20,-287
63584,9.737,-23.582,3.144,1.258871,1.048816,-2.392267,100128.08,-97,+23,-285
63594,8.404,-26.843,1.699,1.063055,0.990816,-1.620175,100128.08,-97,+23,-285
63604,7.837,-25.917,-1.012,0.436230,0.793936,-0.857130,100129.73,-99,+23,-283
63614,10.341,-22.544,-1.413,-0.155476,0.587477,-0.014800,100129.10,-101,+25,-283
63625,10.020,-19.861,-3.040,-0.435898,0.182010,0.778044,100127.01,-102,+23,-282
63635,9.960,-19.514,-3.507,-0.353421,-0.294761,1.615052,100127.01,-102,+23,-282
63644,12.649,-11.229,-0.707,-0.198577,-0.736944,2.270611,100127.84,-101,+19,-282
63654,17.420,13.424,4.255,0.531477,-0.975329,2.146630,100127.84,-99,+11,-285
63665,22.355,33.160,-2.762,-0.529017,-0.832724,0.854135,100126.37,-96,+11,-287
63675,19.430,11.273,-6.391,-1.672521,-0.519843,1.087731,100127.63,-95,+11,-287
63684,16.685,-12.191,1.355,2.098541,-0.629990,2.535602,100126.84,-95,+9,-287
63694,9.922,-23.311,1.006,3.878448,-0.643293,2.860721,100126.84,-93,-8,-289
63705,13.321,-15.947,-3.478,2.795072,-0.602852,3.093785,100128.88,-92,-24,-289
63715,12.384,-0.715,-2.593,2.168779,-0.429917,2.972996,100129.68,-89,-37,-288
63725,4.518,-0.111,7.916,1.366890,0.037808,2.577639,100127.90,-89,-37,-288
63734,2.412,-9.308,6.397,2.096412,-0.259109,2.126410,100125.75,-87,-45,-287
63745,7.290,-12.421,3.168,1.398284,-0.462907,1.833749,100127.95,-85,-56,-287
63755,10.579,-12.394,3.306,-0.574247,-0.494834,1.547474,100127.06,-82,-57,-289
63765,11.778,-7.313,3.379,-1.839604,-0.502816,1.388373,100129.05,-82,-57,-289
63774,10.142,-3.780,2.621,-2.410558,-0.433109,1.139346,100129.05,-79,-53,-292
63784,8.697,-1.887,1.708,-2.300411,-0.281990,1.022282,100126.22,-78,-49,-295
63795,8.282,0.101,0.632,-1.726796,-0.166522,0.946722,100126.22,-77,-46,-296
63805,9.087,1.037,0.055,-0.633843,-0.137788,0.957365,100128.82,-77,-46,-296
63810,9.631,0.033,0.645,0.159533,-0.150559,1.046759,100129.66,-75,-50,-295
63819,9.472,-2.430,1.552,0.623000,-0.161733,1.058998,100128.51,-75,-50,-295
63830,8.902,-5.046,2.205,0.751771,-0.142577,0.970667,100124.12,-75,-54,-295
63840,8.890,-6.361,3.177,0.365459,-0.135660,0.883401,100124.12,-74,-58,-295
63850,8.839,-6.327,4.164,-0.250724,-0.138320,0.748245,100129.04,-72,-59,-297
63859,8.387,-5.120,4.857,-0.784430,-0.095752,0.642888,100127.68,-72,-59,-297
63869,8.222,-3.989,4.760,-1.201072,-0.020724,0.582227,100127.63,-71,-58,-297
63880,8.711,-2.842,3.023,-1.295787,-0.016999,0.497622,100128.79,-71,-56,-298
63890,9.196,-1.549,1.551,-0.971201,-0.063825,0.527420,100128.79,-71,-54,-298
63899,9.618,-1.244,0.742,-0.424724,-0.130339,0.614154,100132.06,-71,-54,-298
63909,9.962,-2.399,0.470,0.058964,-0.188871,0.697695,100129.75,-69,-54,-298
63920,9.911,-4.016,1.343,0.320762,-0.217073,0.780704,100125.67,-68,-57,-300
63930,9.624,-4.942,2.456,0.246267,-0.215476,0.808374,100124.89,-66,-60,-300
63939,9.282,-5.149,3.122,-0.047458,-0.204302,0.800392,100124.89,-66,-60,-300
63949,9.128,-4.840,3.529,-0.370981,-0.201109,0.812631,100126.64,-65,-60,-300
63960,9.104,-4.170,3.533,-0.575843,-0.212816,0.831787,100128.73,-64,-61,-301
63970,9.331,-3.277,2.731,-0.630118,-0.233036,0.870099,100125.33,-63,-62,-303
63979,9.703,-3.178,2.236,-0.550302,-0.244742,0.937676,100126.27,-61,-62,-303
63989,9.953,-3.779,1.655,-0.432705,-0.259641,0.999933,100126.27,-61,-62,-303
64000,10.139,-4.478,1.376,-0.393329,-0.260706,1.051016,100130.14,-59,-62,-303
64010,10.299,-4.715,1.605,-0.436430,-0.250063,1.094117,100130.78,-57,-64,-305
64020,10.761,-5.167,1.459,-0.530614,-0.244742,1.116997,100127.00,-56,-65,-305
64029,11.299,-5.419,1.186,-0.635971,-0.262302,1.117530,100130.52,-56,-65,-305
64039,10.918,-4.974,1.229,-0.781237,-0.279862,1.136686,100130.52,-54,-65,-307
64050,10.626,-4.463,1.440,-0.881806,-0.306467,1.185108,100127.08,-52,-65,-308
64060,10.408,-3.886,1.564,-0.887659,-0.354889,1.221291,100129.97,-50,-64,-310
64069,11.716,-3.785,1.854,-0.880742,-0.458650,1.351658,100127.19,-50,-64,-310
64079,10.402,-2.589,2.555,-0.525825,-0.581036,1.388373,100126.98,-47,-66,-311
64090,11.406,-3.831,3.141,-0.547109,-0.682669,1.426685,100126.98,-43,-66,-313
64100,12.452,-3.879,3.257,-0.735476,-0.775256,1.602814,100126.13,-38,-68,-315
64109,12.825,-3.664,2.792,-0.803586,-0.845494,1.814593,100127.38,-38,-68,-315
64119,12.937,-3.520,2.076,-0.797201,-0.900834,1.931125,100127.45,-33,-69,-317
64130,13.598,-3.821,1.715,-0.904687,-0.946063,2.056703,100126.60,-29,-70,-318
64140,14.503,-4.288,1.713,-1.117531,-0.987035,2.221125,100126.60,-23,-70,-322
64150,15.548,-4.557,2.343,-1.408595,-1.036522,2.326483,100126.09,-23,-70,-322
64159,17.093,-4.592,3.517,-1.765640,-1.073237,2.371712,100126.47,-16,-68,-324
64169,19.758,-3.464,5.510,-2.124282,-1.071109,2.361602,100123.95,-10,-66,-328
64180,21.881,-0.257,8.287,-2.585089,-1.040779,2.340318,100125.00,-5,-60,-332
64190,20.772,3.133,9.916,-2.889988,-1.061531,2.469620,100125.00,-5,-60,-332
64199,19.088,4.134,10.879,-2.773456,-1.137090,2.647877,100126.50,+2,-54,-335
64209,18.378,3.972,11.536,-2.490374,-1.190301,2.629253,100126.81,+8,-49,-339
64220,15.995,0.624,10.900,-2.088099,-1.221696,2.561675,100123.67,+16,-46,-342
64230,13.129,-5.769,5.398,-1.233531,-1.368558,2.551033,100125.34,+16,-46,-342
64239,13.719,-11.969,2.410,-1.380393,-1.462209,2.540391,100125.34,+24,-43,-343
64249,14.474,-12.619,3.562,-0.666302,-1.687292,2.722373,100126.16,+31,-43,-345
64260,11.957,-8.762,3.806,0.261698,-1.737842,2.652666,100125.70,+40,-48,-346
64270,6.849,-5.731,6.927,0.508597,-1.423898,2.256777,100125.43,+40,-48,-346
64280,1.198,-4.120,5.503,0.288835,-1.001935,1.695933,100122.66,+47,-52,-346
64289,-1.425,-3.611,6.605,-0.297017,-0.468761,1.024410,100122.66,+50,-52,-347
64300,0.602,-1.358,3.025,-0.872228,-0.395862,0.336392,100124.59,+52,-50,-347
64310,1.682,1.925,-0.029,-1.404870,-0.557091,-0.346836,100125.39,+52,-50,-347
64320,2.152,3.272,-1.629,-1.427751,-0.480467,-0.634708,100125.86,+55,-45,-349
64329,2.349,3.779,-1.697,-0.980779,-0.350632,-0.927368,100125.28,+57,-41,-349
64339,2.039,3.628,-0.946,-0.304467,-0.231972,-1.253551,100125.28,+57,-39,-349
64350,1.264,3.336,0.414,0.296285,-0.090431,-1.515882,100128.68,+57,-39,-349
64360,1.200,3.050,1.399,0.808707,0.107514,-1.686689,100123.40,+57,-41,-349
64370,2.072,1.934,1.968,1.271110,0.301202,-1.876120,100125.43,+55,-44,-348
64379,3.051,-0.431,2.236,1.663275,0.469349,-2.105459,100124.76,+52,-50,-345
64390,3.804,-2.799,2.432,1.934119,0.632707,-2.322560,100124.76,+52,-50,-345
64400,3.656,-3.795,3.027,2.023690,0.772474,-2.547465,100125.00,+48,-56,-343
64410,3.424,-2.923,3.320,1.991587,0.892908,-2.797734,100121.13,+43,-61,-340
64419,4.301,-0.881,2.965,2.009146,1.055202,-3.131899,100125.25,+37,-67,-337
64430,5.826,0.108,2.110,2.290100,1.196211,-3.414449,100124.38,+29,-67,-337
64440,6.905,-1.198,1.832,2.742926,1.335624,-3.614522,100124.38,+29,-73,-333
64450,7.590,-3.484,2.056,3.085604,1.458009,-3.778944,100125.82,+21,-80,-328
64459,8.258,-4.742,2.279,3.157971,1.549000,-3.936449,100126.91,+11,-88,-322
64470,9.062,-4.877,2.047,3.027072,1.535165,-4.116834,100123.37,+1,-94,-317
64480,9.985,-4.793,2.172,2.845091,1.502706,-4.313183,100126.29,+1,-94,-317
64490,11.155,-6.025,2.680,2.627458,1.464394,-4.413219,100126.29,-8,-97,-311
64500,12.614,-7.746,3.355,2.317770,1.439385,-4.491971,100123.72,-20,-100,-305
64509,13.507,-8.040,4.147,2.000100,1.456945,-4.603182,100123.77,-31,-99,-300
64520,13.422,-7.011,4.340,2.007550,1.483018,-4.761751,100121.89,-31,-99,-300
64530,13.631,-8.057,4.497,2.574779,1.538890,-4.803256,100122.63,-42,-97,-294
64540,14.711,-10.734,3.981,3.266521,1.568156,-4.672889,100122.63,-54,-99,-287
64549,16.218,-14.228,3.270,3.614521,1.596357,-4.414815,100127.14,-64,-99,-278
64560,16.821,-16.349,1.918,3.597494,1.570816,-4.111513,100125.88,-64,-99,-278
64570,16.265,-17.277,0.714,3.380925,1.470780,-3.833752,100125.47,-75,-100,-270
64580,15.820,-18.344,0.711,3.025476,1.258468,-3.506504,100124.27,-84,-100,-262
64589,14.806,-20.225,1.537,2.500283,0.976450,-3.107422,100124.27,-91,-99,-257
64600,11.861,-21.796,2.521,1.802688,0.738064,-2.647679,100126.66,-91,-99,-257
64610,8.578,-21.623,2.700,1.009844,0.639092,-2.116634,100125.09,-96,-95,-253
64620,7.284,-21.604,2.552,0.500083,0.691239,-1.517478,100125.71,-101,-92,-251
64630,7.508,-21.652,1.462,0.222322,0.708266,-0.925240,100124.09,-103,-90,-249
64635,8.513,-21.213,0.882,-0.012871,0.683789,-0.510194,100124.09,-103,-90,-249
64645,9.983,-19.534,-0.375,-0.273605,0.589074,-0.115369,100124.09,-105,-89,-248
64655,9.671,-18.414,-2.198,-0.674283,0.224046,0.557750,100125.49,-104,-91,-248
64665,9.497,-17.411,-2.089,-0.722173,-0.081917,1.229273,100125.49,-104,-91,-248
64675,11.514,-12.920,-1.668,-0.708870,-0.478871,1.790648,100125.60,-102,-93,-250
64685,16.320,4.179,4.799,-0.011807,-0.926375,2.124813,100121.80,-97,-99,-252
64695,21.784,27.647,-0.003,0.019588,-1.045035,1.155309,100124.56,-94,-100,-255
64705,18.292,11.601,-5.658,-1.371347,-0.501751,0.948851,100125.66,-94,-100,-255
64715,17.761,-13.692,-2.134,1.533440,-0.541127,2.514850,100125.66,-91,-104,-255
64724,14.049,-22.206,0.010,3.594301,-0.793347,2.929895,100125.03,-85,-119,-251
64735,9.914,-13.475,-3.142,1.776614,-0.761421,2.719180,100125.61,-80,-129,-250
64745,7.764,0.892,-1.044,0.682597,-0.378834,2.477602,100125.61,-80,-129,-250
64755,2.779,3.482,7.814,1.315275,-0.085642,2.470685,100126.04,-75,-136,-248
64764,3.099,-7.998,6.709,2.059697,-0.312852,2.070538,100122.96,-70,-146,-245
64775,9.324,-13.889,1.714,1.135422,-0.418210,1.755529,100122.49,-66,-152,-244
64785,12.035,-10.769,2.584,-0.594999,-0.149495,1.628887,100121.38,-66,-152,-244
64795,11.875,-4.446,4.311,-1.952943,0.032487,1.514484,100121.38,-63,-152,-248
64805,9.795,-2.100,3.050,-2.145035,0.056432,1.387841,100124.70,-59,-150,-252
64815,8.981,-1.493,0.673,-1.478833,0.069202,1.269181,100124.75,-57,-149,-253
64825,9.381,-0.535,0.683,-0.784962,0.009074,1.190429,100122.61,-57,-149,-253
64835,9.862,-2.516,0.703,-0.163458,-0.059036,1.173933,100122.61,-55,-151,-255
64844,11.311,-4.768,1.222,0.098340,-0.146302,1.154245,100122.61,-53,-154,-254
64855,9.902,-7.211,3.555,-0.165054,-0.228247,0.999401,100127.02,-49,-154,-255
64865,8.200,-8.315,4.471,-0.902558,-0.193128,0.815291,100126.35,-49,-154,-255
64875,8.411,-5.491,4.132,-1.471916,-0.163862,0.699291,100125.15,-48,-152,-257
64885,9.523,-2.379,3.040,-1.391035,-0.203770,0.622135,100124.62,-45,-151,-262
64896,10.039,-1.725,1.610,-0.993549,-0.188339,0.575842,100124.62,-45,-150,-263
64905,10.240,-3.218,0.720,-0.495494,-0.194724,0.585420,100124.49,-45,-150,-263
64915,10.552,-5.144,0.853,-0.377366,-0.190467,0.560411,100126.43,-43,-150,-265
64925,10.598,-5.076,1.582,-0.602448,-0.173440,0.549236,100124.12,-41,-150,-266
64935,9.802,-3.927,2.596,-0.817421,-0.166522,0.561475,100124.12,-40,-149,-268
64945,9.008,-3.073,3.078,-0.776448,-0.238357,0.581695,100125.75,-40,-149,-268
64955,8.710,-2.805,3.022,-0.697696,-0.301678,0.622667,100125.75,-38,-148,-270
64965,8.596,-3.687,2.946,-0.686522,-0.343715,0.699291,100127.27,-36,-147,-270
64975,8.698,-4.310,2.499,-0.713659,-0.384687,0.757291,100125.91,-33,-147,-275
64985,8.775,-4.548,2.072,-0.740797,-0.405972,0.798264,100122.97,-33,-147,-275
64991,8.793,-4.513,1.875,-0.773788,-0.404907,0.824337,100122.97,-31,-146,-275
65000,9.147,-4.465,1.730,-0.826467,-0.426724,0.843493,100125.51,-28,-146,-278
65010,9.715,-4.029,1.479,-0.834448,-0.510265,0.866906,100124.52,-28,-146,-278
65020,9.626,-3.627,1.265,-0.711531,-0.568797,0.920117,100125.46,-24,-145,-280
65030,9.604,-4.211,1.037,-0.601384,-0.590082,0.984502,100126.87,-21,-144,-282
65040,10.054,-4.574,0.761,-0.583825,-0.596467,1.013768,100126.87,-17,-145,-284
65050,10.335,-4.671,0.837,-0.571586,-0.596467,1.045163,100126.41,-17,-145,-284
65060,10.178,-4.937,0.813,-0.527953,-0.604981,1.031328,100125.88,-14,-144,-285
65070,10.069,-5.436,0.557,-0.528485,-0.598595,0.994080,100125.98,-9,-146,-287
65080,10.033,-5.879,0.688,-0.555623,-0.606577,1.003658,100124.42,-7,-145,-289
65090,9.566,-5.415,1.025,-0.790283,-0.607109,0.859988,100124.42,-7,-145,-289
65100,10.076,-4.727,1.279,-0.938742,-0.666173,1.006319,100126.69,-3,-144,-291
65110,9.637,-2.843,1.631,-0.680137,-0.730026,0.997273,100127.05,+0,-142,-294
65120,10.408,-2.929,1.857,-0.497623,-0.829531,1.123915,100126.84,+5,-142,-296
65130,10.837,-3.456,2.365,-0.358210,-0.946595,1.306429,100124.22,+5,-142,-296
65140,11.365,-3.590,2.455,-0.288504,-1.032265,1.422428,100124.22,+11,-143,-298
65150,11.806,-3.716,2.342,-0.312981,-1.069512,1.532043,100125.30,+17,-144,-299
65160,12.467,-3.754,2.172,-0.441751,-1.098246,1.665071,100127.13,+22,-145,-302
65170,13.356,-3.664,2.117,-0.602448,-1.123788,1.799694,100124.63,+22,-145,-302
65180,14.368,-3.915,2.412,-0.805714,-1.120595,1.938575,100127.40,+30,-144,-303
65190,16.148,-4.308,3.280,-1.112742,-1.065256,2.079584,100127.40,+38,-142,-305
65200,18.173,-2.816,4.830,-1.665072,-1.008852,2.203033,100127.52,+45,-139,-309
65210,19.433,0.248,7.156,-2.316374,-0.994485,2.382354,100124.32,+45,-139,-309
65220,20.132,2.446,9.004,-2.420667,-1.055678,2.583492,100126.63,+52,-133,-315
65230,19.015,1.797,9.659,-1.986998,-1.162100,2.784097,100122.45,+61,-128,-319
65240,16.890,-1.918,9.278,-1.394760,-1.275439,2.945859,100122.45,+70,-125,-321
65250,16.182,-6.801,6.983,-0.839769,-1.402081,3.051749,100125.79,+70,-125,-321
65260,17.245,-9.661,5.055,-0.352357,-1.597897,3.079418,100122.29,+79,-123,-323
65270,16.713,-9.225,5.233,-0.030963,-1.772961,2.891051,100121.13,+90,-125,-322
65281,13.902,-6.685,6.639,0.378230,-1.878319,2.546776,100121.02,+100,-125,-322
65290,11.240,-2.555,6.902,1.009844,-1.896411,2.089162,100121.02,+100,-125,-322
65300,9.075,0.978,6.080,1.796302,-1.795310,1.586850,100123.64,+109,-129,-319
65310,5.610,1.566,3.600,2.143770,-1.663347,1.182979,100124.47,+115,-136,-313
65320,1.451,-2.249,3.335,1.662743,-1.454228,1.052080,100123.64,+122,-141,-310
65330,-0.640,-8.880,3.432,0.910340,-1.026412,0.895108,100123.48,+122,-141,-310
65340,0.617,-11.817,5.005,0.839569,-0.748650,0.571053,100123.48,+125,-143,-307
65346,2.415,-9.783,3.733,1.007716,-0.891256,0.206026,100125.89,+127,-146,-304
65355,2.759,-5.513,1.495,0.659184,-1.068448,-0.248928,100125.89,+127,-146,-304
65366,3.376,-1.344,-0.165,-0.383219,-1.107292,-0.641093,100124.36,+130,-147,-303
65376,3.029,1.450,-1.323,-1.283549,-1.260540,-0.958231,100124.53,+131,-145,-306
65385,1.319,2.990,-0.792,-1.437861,-1.124852,-1.359441,100123.37,+131,-140,-307
65395,0.673,3.664,0.490,-0.821146,-0.849751,-1.754799,100124.01,+131,-140,-307
65405,0.746,3.703,1.435,0.176560,-0.598595,-2.077257,100123.16,+129,-140,-308
65416,0.998,2.574,2.726,1.244504,-0.329880,-2.344377,100122.23,+126,-145,-304
65425,1.498,0.703,3.718,2.060229,-0.062229,-2.549239,100122.23,+119,-152,-299
65435,2.029,-1.518,4.540,2.470485,0.170303,-2.738138,100121.49,+119,-152,-299
65445,2.257,-2.743,4.576,2.458247,0.354945,-3.010578,100121.49,+112,-160,-293
65456,2.753,-2.777,4.621,2.044798,0.558211,-3.310156,100124.36,+103,-168,-287
65465,3.950,-1.968,4.041,1.705844,0.737532,-3.574614,100123.73,+91,-172,-284
65475,5.336,-1.109,3.788,1.654229,0.943459,-3.835348,100122.48,+91,-172,-284
65485,6.281,-1.401,3.780,1.859091,1.147257,-4.031165,100121.64,+79,-177,-278
65496,7.011,-2.198,3.992,2.218265,1.349991,-4.231770,100121.64,+66,-181,-272
65506,8.136,-3.354,3.382,2.491770,1.548468,-4.402577,100124.57,+50,-186,-265
65515,9.715,-4.399,1.854,2.680137,1.637330,-4.491439,100121.16,+50,-186,-265
65525,11.109,-5.441,1.801,2.982375,1.681495,-4.511127,100122.48,+35,-189,-257
65536,12.547,-6.782,2.918,3.406999,1.685220,-4.514320,100122.48,+19,-193,-245
65545,14.586,-8.738,4.617,3.586319,1.620302,-4.633512,100122.48,+2,-195,-234
65555,15.833,-10.464,5.638,3.526723,1.509624,-4.805384,100128.38,+2,-195,-234
65565,15.274,-10.003,6.258,3.421365,1.480890,-4.937347,100124.57,-12,-197,-223
65575,15.655,-8.982,6.446,3.534705,1.571348,-4.921384,100127.18,-29,-195,-211
65585,16.302,-13.125,5.232,3.870998,1.627752,-4.692045,100122.21,-44,-194,-198
65595,16.288,-16.771,3.150,4.106191,1.480890,-4.556889,100122.21,-44,-194,-198
65605,17.189,-17.445,2.427,3.994448,1.415972,-4.405238,100127.70,-57,-191,-185
65615,18.299,-18.356,2.983,3.990723,1.343073,-3.906119,100125.72,-69,-187,-173
65626,14.862,-20.664,4.516,3.917292,1.062651,-3.378266,100123.47,-80,-182,-161
65635,11.644,-24.440,4.372,3.290467,0.850872,-2.822211,100123.47,-87,-179,-153
65645,11.277,-29.121,3.075,2.304467,0.833844,-2.153881,100126.44,-87,-179,-153
65655,7.107,-31.058,0.644,1.146596,0.708266,-1.530249,100122.41,-92,-176,-147
65666,5.725,-29.418,-0.749,0.047790,0.578431,-0.690579,100122.41,-94,-175,-146
65675,7.657,-26.018,-1.915,-0.653531,0.420395,0.322558,100121.94,-92,-176,-148
65685,10.487,-23.176,-4.431,-0.947788,0.045790,1.237786,100121.36,-92,-176,-148
65695,15.516,-10.001,-0.404,-0.742925,-0.498027,1.948153,100121.36,-87,-178,-149
65705,22.029,22.261,1.950,0.090891,-0.951384,1.572484,100123.75,-82,-183,-151
65716,20.427,24.108,-4.333,-1.892815,-0.369788,0.564668,100119.09,-81,-183,-156
65725,19.282,-3.385,-2.082,-1.048889,-0.168119,1.701254,100125.00,-81,-183,-156
65735,16.087,-18.401,1.973,2.562540,-0.490045,2.845290,100125.84,-74,-190,-154
65745,9.995,-15.116,0.001,2.257642,-0.515586,2.897437,100126.92,-66,-198,-148
65756,8.374,-2.115,-0.909,1.422761,-0.490577,2.825070,100124.52,-58,-205,-146
65766,4.683,2.465,3.495,1.900596,-0.187807,2.470153,100124.83,-58,-205,-146
65775,3.116,-5.619,6.953,2.183678,-0.090963,2.081712,100124.83,-52,-211,-140
65785,8.023,-11.455,4.351,2.387476,-0.234632,1.940703,100124.25,-46,-216,-133
65796,10.938,-12.983,1.686,0.590542,-0.353293,1.700722,100124.25,-41,-219,-134
65805,11.887,-8.261,2.231,-1.012705,-0.277201,1.562906,100127.98,-41,-219,-134
65816,10.907,-4.310,2.294,-1.704270,-0.306290,1.325939,100123.95,-37,-220,-138
65825,8.854,-2.719,1.140,-1.516613,-0.289972,1.153181,100123.95,-33,-222,-143
65836,7.859,-1.641,0.310,-1.167017,-0.184082,1.049420,100123.06,-29,-222,-147
65846,8.948,-0.849,0.029,-0.469953,-0.109586,1.002062,100123.06,-29,-222,-147
65855,9.802,-0.983,0.287,0.366523,-0.062229,1.054209,100126.20,-26,-224,-146
65865,9.428,-3.237,0.969,0.825202,0.019716,1.076025,100125.09,-23,-227,-144
65875,9.351,-5.540,2.019,0.816156,0.082505,1.003658,100123.47,-19,-229,-142
65886,9.111,-6.620,2.876,0.421863,0.091551,0.868502,100123.47,-19,-229,-142
65895,8.576,-6.099,3.694,-0.130999,0.112835,0.737071,100123.47,-17,-230,-141
65905,8.124,-5.413,4.231,-0.672687,0.160193,0.605108,100125.14,-15,-230,-143
65915,8.037,-4.990,3.573,-1.104760,0.206487,0.465695,100125.50,-15,-230,-146
65926,8.750,-3.549,2.357,-1.390503,0.240010,0.388539,100126.14,-15,-230,-146
65935,9.400,-1.738,1.843,-1.383586,0.192652,0.364062,100124.78,-14,-230,-150
65945,9.482,-0.649,1.841,-0.945127,0.147955,0.386943,100124.78,-11,-230,-153
65955,9.710,-0.625,1.753,-0.384283,0.132523,0.456649,100124.93,-10,-230,-153
65966,9.762,-2.161,2.594,0.025973,0.133056,0.542851,100125.93,-10,-230,-153
65976,9.285,-3.383,3.567,0.131331,0.106450,0.600851,100123.73,-8,-230,-153
65985,8.801,-3.075,4.370,-0.030963,0.090487,0.647145,100124.22,-6,-233,-153
65995,8.733,-3.123,5.096,-0.257109,-0.007421,0.635970,100124.47,-4,-232,-154
66006,8.686,-3.554,4.326,-0.388540,-0.092559,0.647145,100122.91,-4,-232,-154
66016,9.002,-3.521,3.719,-0.425256,-0.114908,0.724833,100122.91,-3,-233,-156
66025,9.263,-3.861,2.524,-0.423660,-0.145238,0.759420,100121.91,+0,-233,-156
66035,9.667,-3.934,0.989,-0.405568,-0.188339,0.836044,100125.31,+2,-235,-158
66045,10.533,-4.207,1.158,-0.456118,-0.250596,0.903621,100125.31,+2,-235,-158
66051,10.828,-4.298,1.207,-0.458779,-0.312320,0.919053,100126.62,+5,-234,-159
66061,10.622,-3.994,1.395,-0.427916,-0.326687,0.987163,100126.46,+9,-236,-162
66070,10.017,-4.561,1.854,-0.392797,-0.325091,1.038777,100126.20,+9,-236,-162
66080,9.616,-5.093,2.246,-0.398118,-0.325623,1.049952,100125.10,+13,-237,-163
66091,9.493,-5.456,2.540,-0.519439,-0.302210,1.066447,100125.10,+17,-237,-165
66101,9.715,-5.810,2.518,-0.728558,-0.272412,1.038245,100125.53,+20,-238,-167
66110,10.488,-5.114,1.899,-0.932889,-0.266559,1.035585,100127.27,+20,-238,-167
66120,11.042,-4.602,1.933,-1.045164,-0.306999,1.034521,100126.11,+25,-238,-170
66130,11.091,-3.754,2.087,-1.018558,-0.392137,1.089860,100125.59,+28,-237,-175
66141,11.044,-3.916,2.116,-0.927035,-0.457586,1.192025,100125.59,+33,-236,-177
66151,11.368,-4.458,2.276,-0.878081,-0.530485,1.277695,100127.95,+33,-236,-177
66160,11.875,-4.411,2.436,-0.963219,-0.601256,1.389970,100125.34,+38,-238,-181
66170,12.312,-4.167,2.183,-1.106889,-0.655354,1.552618,100125.77,+44,-237,-184
66181,12.495,-3.321,1.637,-1.171806,-0.709274,1.676777,100123.72,+50,-237,-188
66190,12.882,-3.373,1.228,-1.267054,-0.805586,1.856630,100123.72,+50,-237,-188
66200,13.557,-3.147,1.686,-1.203732,-0.893384,1.912502,100127.46,+57,-236,-193
66210,14.382,-3.640,2.434,-1.234063,-1.005659,2.093951,100124.27,+65,-234,-197
66221,14.747,-4.141,2.979,-1.353787,-1.076962,2.233364,100125.74,+75,-234,-201
66231,16.273,-4.012,3.920,-1.482026,-1.120063,2.280721,100123.07,+75,-234,-201
66240,19.281,-2.881,5.670,-1.647512,-1.168485,2.291364,100123.07,+84,-232,-206
66250,21.736,-0.382,7.006,-1.891218,-1.172210,2.322758,100128.10,+93,-228,-211
66260,20.723,1.571,8.146,-2.099273,-1.175934,2.432905,100127.10,+103,-226,-218
66271,19.315,3.648,9.089,-2.006154,-1.278632,2.512189,100124.48,+103,-226,-218
66281,18.276,3.681,9.220,-1.656026,-1.343017,2.553162,100121.18,+113,-221,-223
66290,14.769,-0.703,7.728,-1.079219,-1.336099,2.570189,100121.18,+123,-218,-227
66300,11.422,-7.181,4.801,-0.597659,-1.321733,2.453657,100125.77,+133,-216,-228
66311,11.459,-11.339,1.957,-0.898301,-1.313219,2.320098,100125.88,+133,-216,-228
66321,11.978,-12.346,3.178,-1.030265,-1.351531,2.436630,100125.57,+142,-212,-231
66330,10.649,-8.813,3.111,-0.578504,-1.411659,2.443015,100126.77,+153,-209,-233
66340,7.859,-5.462,3.892,-0.439623,-1.250962,2.149290,100126.77,+161,-207,-233
66351,3.627,-3.253,5.574,-0.330540,-0.937017,1.775749,100124.59,+167,-207,-233
66361,-1.177,-2.920,4.952,-0.308192,-0.491109,1.225016,100124.54,+167,-205,-233
66370,-2.598,-1.481,5.553,-0.765274,0.130927,0.607236,100124.32,+170,-202,-235
66380,0.782,1.057,3.291,-1.630484,0.404432,0.103328,100120.20,+170,-199,-240
66391,3.011,3.381,1.025,-2.296154,0.253312,-0.586286,100120.20,+167,-195,-247
66401,3.114,4.314,-0.133,-2.392466,0.251184,-1.000267,100124.05,+167,-195,-247
66406,2.860,4.393,-0.373,-2.082778,0.317698,-1.127441,100120.91,+164,-191,-253
66415,2.422,4.442,-0.186,-1.522998,0.405496,-1.332304,100120.91,+164,-191,-253
66425,2.057,4.119,0.294,-0.768999,0.532138,-1.661147,100125.52,+159,-189,-256
66436,2.283,2.444,0.847,-0.179953,0.690175,-1.940505,100123.53,+152,-190,-257
66446,3.275,0.050,1.386,0.226579,0.895569,-2.159734,100123.53,+144,-193,-257
66456,4.516,-2.046,1.977,0.403771,1.071165,-2.318303,100124.27,+144,-193,-257
66465,5.083,-2.637,2.471,0.425055,1.186633,-2.495496,100122.02,+136,-195,-257
66476,5.115,-1.541,2.463,0.602248,1.281881,-2.740266,100120.35,+125,-199,-256
66486,5.508,-0.417,2.062,1.178523,1.380321,-2.965349,100120.35,+113,-202,-253
66495,6.177,-0.918,2.360,1.979348,1.501110,-3.149991,100120.35,+113,-202,-253
66505,6.814,-2.476,2.835,2.620008,1.634669,-3.302706,100124.98,+100,-208,-246
66515,7.594,-3.786,2.967,2.974926,1.767697,-3.480963,100122.94,+86,-214,-238
66526,8.647,-4.325,2.889,2.978650,1.847513,-3.639000,100121.33,+71,-220,-229
66536,9.110,-4.434,2.534,2.823274,1.842192,-3.729458,100124.52,+71,-220,-229
66546,9.096,-4.617,2.627,2.683329,1.821440,-3.766706,100124.52,+56,-224,-220
66555,9.401,-5.471,3.433,2.554559,1.823036,-3.786926,100123.73,+40,-227,-212
66566,10.426,-6.767,4.219,2.393329,1.813458,-3.853972,100120.19,+25,-228,-203
66576,11.296,-8.048,4.821,2.233164,1.839000,-3.999770,100120.27,+10,-226,-195
66586,11.809,-8.306,5.256,2.091623,1.924137,-4.162596,100120.27,+10,-226,-195
66595,12.239,-7.742,5.558,1.951678,2.048119,-4.280724,100122.55,-7,-224,-187
66606,12.828,-7.820,5.647,1.930926,2.197109,-4.305201,100122.55,-23,-221,-179
66616,13.502,-8.480,5.825,1.996908,2.339183,-4.265825,100123.76,-39,-217,-170
66626,14.302,-9.516,5.923,2.084706,2.511054,-4.147164,100123.13,-39,-217,-170
66635,15.365,-10.825,4.541,2.113440,2.669623,-3.950284,100120.20,-53,-211,-160
66646,16.670,-12.930,1.625,1.921880,2.612687,-3.760321,100120.20,-66,-205,-150
66656,17.503,-13.542,-1.246,1.669128,2.261495,-3.643789,100126.16,-78,-198,-141
66666,17.205,-12.766,-2.316,1.447238,1.896467,-3.421367,100125.73,-78,-198,-141
66676,15.307,-14.448,-1.202,1.426486,1.711825,-3.012707,100123.91,-87,-191,-134
66685,12.543,-18.864,0.430,1.559513,1.555917,-2.514120,100123.05,-94,-185,-128
66696,10.396,-21.930,0.362,1.392963,1.337752,-1.962322,100124.63,-100,-181,-121
66706,8.392,-21.988,-1.489,0.971000,1.037642,-1.237056,100124.31,-100,-181,-121
66716,8.753,-19.655,-3.561,0.668762,0.731679,-0.292029,100123.73,-101,-177,-117
66725,11.891,-17.651,-2.085,0.541588,0.459771,0.598190,100123.73,-100,-179,-115
66736,12.039,-14.447,-3.883,0.540523,-0.052119,1.269713,100124.36,-96,-185,-115
66746,11.344,-14.639,-4.140,0.685789,-0.590614,2.031162,100124.36,-96,-185,-115
66756,11.789,-11.375,-3.356,1.052945,-1.006191,2.631382,100127.46,-90,-189,-114
66761,13.600,-1.118,1.452,1.411055,-1.294595,2.865510,100123.54,-82,-189,-114
66770,18.160,19.122,1.412,1.869201,-1.349402,2.359474,100123.18,-82,-197,-114
66781,22.662,27.664,-7.694,0.228175,-1.205733,1.222887,100124.59,-78,-201,-113
66791,19.575,-1.105,-6.209,0.328744,-0.810375,1.927933,100124.59,-73,-205,-114
66801,15.353,-23.399,0.418,3.462870,-0.785366,2.907547,100124.96,-73,-205,-114
66810,13.337,-20.051,-0.293,3.734246,-0.751311,3.040574,100125.54,-64,-212,-103
66821,13.011,-4.239,-2.799,1.989458,-0.774724,3.070904,100127.90,-56,-218,-100
66831,6.173,3.970,4.614,1.706376,-0.376173,2.987363,100128.37,-47,-224,-95
66841,-2.036,-4.929,9.488,2.426852,-0.289440,2.517510,100128.37,-40,-224,-88
66850,3.340,-12.512,4.687,2.216669,-0.473017,1.985933,100125.25,-40,-227,-88
66861,9.987,-15.712,2.923,0.310120,-0.413421,1.883768,100123.78,-34,-230,-86
66871,12.981,-11.739,3.003,-1.338356,-0.420339,1.560245,100124.20,-29,-234,-91
66881,11.896,-5.851,2.845,-2.493034,-0.363403,1.267053,100122.67,-25,-235,-99
66890,9.602,-3.043,1.306,-2.705878,-0.229843,1.195218,100122.67,-25,-235,-99
66900,8.861,-1.133,0.299,-2.176429,-0.088302,1.110080,100128.97,-22,-236,-106
66911,8.549,1.322,0.396,-1.276631,-0.043073,1.030796,100124.11,-17,-239,-110
66921,8.889,1.085,0.816,-0.118761,-0.049990,1.072832,100121.02,-14,-240,-110
66931,9.584,-2.771,1.662,0.708138,-0.025513,1.115933,100123.48,-14,-240,-110
66940,9.492,-6.371,2.682,0.747514,0.020248,1.051016,100123.48,-10,-242,-107
66951,8.747,-8.636,4.143,0.118028,0.122413,0.888190,100127.40,-8,-244,-106
66961,8.499,-8.748,5.702,-0.884467,0.226175,0.663640,100125.68,-6,-243,-110
66971,8.750,-6.650,5.498,-1.765640,0.286303,0.447071,100122.27,-6,-243,-110
66980,9.324,-3.293,3.766,-2.128539,0.319826,0.309787,100122.48,-4,-244,-116
66991,9.885,-0.351,1.950,-1.865145,0.264487,0.302870,100122.48,-3,-244,-122
67001,10.167,-0.071,0.954,-1.138815,0.126670,0.393328,100124.65,-1,-244,-124
67011,9.953,-1.897,1.031,-0.422063,-0.010614,0.474209,100126.96,-1,-244,-124
67020,9.709,-4.685,1.944,-0.220394,-0.079788,0.525291,100122.46,+0,-244,-125
67031,9.238,-5.100,3.068,-0.228375,-0.091495,0.528484,100121.62,+0,-245,-126
67041,9.050,-4.878,3.811,-0.557219,-0.142577,0.526356,100121.62,+3,-245,-128
67051,8.807,-4.219,3.952,-0.857861,-0.280926,0.510392,100125.09,+3,-245,-128
67061,8.630,-3.171,3.756,-1.000467,-0.386284,0.525291,100124.10,+4,-246,-132
67070,8.620,-2.553,3.372,-0.972797,-0.460247,0.629053,100121.05,+7,-246,-135
67081,8.945,-3.081,2.738,-0.815824,-0.528889,0.746649,100124.26,+10,-246,-138
67091,9.261,-3.747,2.045,-0.650338,-0.553898,0.836044,100124.26,+10,-246,-138
67101,9.665,-4.417,1.795,-0.542320,-0.529421,0.859988,100127.99,+13,-246,-141
67110,10.017,-5.067,1.707,-0.480595,-0.501219,0.864245,100125.54,+16,-248,-142
67121,10.181,-5.229,1.896,-0.531678,-0.491109,0.870099,100125.74,+19,-248,-145
67131,10.253,-4.957,2.369,-0.651935,-0.519311,0.851475,100122.35,+19,-248,-145
67141,10.259,-4.523,2.340,-0.724302,-0.558687,0.866906,100122.35,+23,-248,-148
67151,9.904,-4.160,2.129,-0.717384,-0.577311,0.882337,100126.77,+27,-248,-150
67161,9.907,-4.316,1.916,-0.738669,-0.601256,0.959493,100126.30,+30,-248,-153
67171,9.676,-4.284,1.733,-0.805182,-0.626797,1.011108,100124.99,+30,-248,-153
67181,9.983,-3.950,1.795,-0.807311,-0.664577,1.093585,100124.30,+34,-249,-156
67190,10.139,-3.837,1.920,-0.741861,-0.730026,1.195218,100124.30,+39,-249,-158
67201,10.593,-3.602,2.085,-0.651403,-0.815164,1.277163,100126.39,+44,-249,-162
67211,11.193,-3.655,2.444,-0.594467,-0.900834,1.387841,100123.30,+44,-249,-162
67221,12.147,-3.578,2.767,-0.602981,-1.004063,1.493199,100126.19,+50,-250,-165
67231,12.807,-3.606,2.512,-0.659916,-1.086540,1.635272,100125.30,+56,-249,-166
67240,13.252,-3.773,1.860,-0.734944,-1.139751,1.764575,100125.30,+63,-248,-170
67251,13.840,-3.583,1.489,-0.857861,-1.192430,1.906648,100128.38,+63,-248,-170
67261,14.513,-3.424,1.425,-0.986100,-1.273311,2.022116,100124.09,+71,-248,-173
67271,15.686,-3.558,2.361,-1.093586,-1.341953,2.113639,100125.08,+80,-248,-176
67280,17.656,-3.081,3.964,-1.280356,-1.390907,2.175364,100125.34,+89,-246,-181
67291,19.375,-1.717,5.534,-1.659218,-1.402081,2.251455,100125.34,+89,-246,-181
67301,19.771,0.261,7.058,-2.040741,-1.433475,2.361070,100125.18,+98,-244,-187
67311,20.378,2.262,8.864,-2.132796,-1.517017,2.471749,100124.13,+108,-240,-194
67321,20.268,2.794,10.087,-2.174301,-1.577145,2.508464,100123.15,+120,-237,-200
67331,18.044,2.365,11.075,-2.111512,-1.580870,2.493565,100124.20,+129,-232,-206
67341,14.304,-1.417,10.784,-1.676246,-1.539365,2.518574,100124.20,+129,-232,-206
67351,12.644,-9.039,4.594,-1.017139,-1.626631,2.558305,100122.08,+140,-228,-210
67361,13.682,-13.777,2.621,-0.923311,-1.752741,2.464299,100127.05,+151,-224,-211
67371,14.530,-11.490,4.621,-0.587549,-1.796374,2.267951,100124.02,+161,-222,-211
67381,13.177,-4.727,5.431,0.043533,-1.903861,2.037547,100123.44,+161,-222,-211
67391,10.011,-0.351,6.186,0.674615,-1.899604,1.757658,100123.44,+169,-220,-209
67401,5.240,1.251,4.425,1.102963,-1.783072,1.390502,100126.38,+175,-220,-205
67410,-0.045,-0.767,3.930,1.027404,-1.574485,1.057933,100123.34,+180,-220,-200
67421,-3.618,-6.322,2.313,0.912468,-1.217971,0.751970,100124.45,+180,-220,-200
67431,-2.520,-9.768,4.267,0.795936,-0.746522,0.215071,100121.41,+183,-220,-197
67441,1.184,-8.606,5.009,1.026340,-0.484724,-0.202635,100121.41,+182,-222,-194
67451,2.755,-5.273,3.299,0.485184,-0.452265,-0.493167,100126.41,+181,-222,-194
67461,2.874,-1.549,0.946,-0.743458,-0.602852,-0.886928,100124.95,+181,-222,-194
67471,1.797,1.949,-0.879,-1.836411,-0.674155,-1.307827,100123.38,+178,-221,-197
67481,1.286,4.426,-0.381,-1.987530,-0.464504,-1.666469,100121.07,+173,-220,-202
67491,1.273,5.531,0.738,-1.101567,-0.248999,-2.030432,100121.07,+167,-220,-204
67501,1.537,4.884,1.544,0.312780,-0.021788,-2.258707,100124.14,+167,-220,-204
67511,2.251,2.345,2.475,1.491935,0.259698,-2.412487,100122.36,+159,-224,-201
67521,3.043,-1.192,3.272,2.069807,0.541716,-2.553496,100120.80,+150,-229,-195
67531,3.742,-4.088,3.815,2.002229,0.798725,-2.671624,100121.22,+140,-234,-190
67540,4.409,-5.169,3.851,1.555789,1.011569,-2.813165,100121.22,+140,-234,-190
67551,4.391,-4.002,3.655,1.075826,1.161092,-3.070174,100124.80,+129,-236,-186
67561,4.797,-2.095,3.303,0.985367,1.332963,-3.381459,100120.09,+117,-239,-184
67571,5.958,-1.285,2.890,1.420101,1.544743,-3.595366,100120.92,+102,-242,-179
67581,6.846,-2.112,3.022,2.007018,1.755990,-3.731587,100120.98,+102,-242,-179
67591,7.775,-2.893,3.112,2.425788,1.928394,-3.862486,100120.98,+87,-244,-172
67601,8.874,-3.031,2.978,2.625329,2.037476,-4.001366,100123.06,+72,-246,-163
67611,9.689,-3.225,2.685,2.800393,2.085366,-4.083311,100121.97,+56,-246,-154
67621,10.104,-4.328,2.650,3.046228,2.106651,-4.140779,100119.72,+56,-246,-154
67631,10.805,-5.868,3.074,3.253751,2.124210,-4.221128,100121.86,+41,-246,-141
67641,12.243,-7.032,3.956,3.262265,2.111440,-4.342449,100121.86,+26,-244,-130
67651,13.828,-8.215,5.123,3.140944,2.148687,-4.492504,100121.73,+9,-240,-119
67661,15.312,-9.047,6.198,2.828595,2.229568,-4.668100,100122.77,+9,-240,-119
67671,15.852,-10.077,6.558,2.593403,2.350889,-4.762815,100123.87,-5,-234,-110
67681,15.747,-11.582,6.484,2.684926,2.550430,-4.690980,100120.16,-19,-228,-98
67691,16.143,-13.842,5.841,2.790815,2.676008,-4.557421,100120.16,-33,-220,-87
67701,17.030,-15.722,3.372,2.865311,2.660577,-4.371182,100124.91,-33,-220,-87
67706,17.745,-17.186,1.037,2.772192,2.592999,-4.172174,100121.81,-43,-212,-76
67716,18.292,-18.392,-1.335,2.453990,2.440284,-3.952412,100121.81,-53,-205,-68
67726,19.016,-17.868,-3.847,1.739899,2.093880,-3.656027,100123.23,-53,-205,-68
67736,17.207,-17.268,-2.664,1.042835,1.644779,-3.243110,100124.13,-61,-197,-60
67746,12.625,-21.717,1.288,1.196082,1.394688,-2.684927,100124.13,-67,-190,-56
67757,8.965,-25.687,1.516,1.143936,1.157367,-1.945294,100126.55,-71,-185,-51
67766,7.590,-25.279,-1.857,0.458578,0.865239,-0.986432,100123.91,-71,-185,-51
67776,9.002,-22.103,-3.603,-0.169311,0.569918,0.196448,100122.98,-71,-185,-51
67786,11.960,-18.101,-4.287,-0.372045,0.172432,1.164355,100122.98,-68,-187,-51
67796,12.606,-14.937,-5.178,-0.227843,-0.500687,1.996575,100122.98,-63,-192,-53
67806,13.415,-7.124,-2.203,0.500083,-1.155714,2.725565,100124.16,-63,-192,-53
67816,14.272,11.933,5.384,1.523862,-1.308962,2.644152,100124.59,-56,-198,-54
67826,18.896,31.617,1.447,1.185972,-1.028008,1.530447,100121.49,-51,-200,-52
67836,18.701,14.688,-10.590,-0.686522,-0.853476,1.185108,100120.60,-49,-203,-55
67847,18.031,-11.121,-0.382,1.493532,-0.773659,2.497290,100120.60,-49,-203,-55
67856,11.935,-22.239,2.667,3.897604,-0.658192,2.963950,100127.70,-41,-206,-49
67866,13.602,-17.709,0.500,2.689183,-0.425660,3.043235,100122.48,-33,-209,-41
67876,14.526,-3.037,-2.778,2.397586,-0.611898,3.267253,100125.23,-24,-213,-35
67887,5.347,1.089,4.446,2.439623,-0.163862,3.058666,100125.23,-24,-213,-35
67896,0.127,-8.069,8.007,2.790815,-0.215476,2.462171,100124.09,-16,-215,-29
67906,5.510,-14.283,2.985,1.683495,-0.338394,1.841731,100124.09,-10,-215,-23
67916,10.864,-14.072,2.061,-0.685990,-0.270816,1.778942,100127.39,-5,-218,-25
67927,12.594,-8.594,3.611,-2.201970,-0.320834,1.549071,100125.08,-5,-218,-25
67936,11.413,-4.944,2.679,-2.688319,-0.462375,1.255878,100121.11,-1,-222,-34
67942,9.398,-3.500,1.945,-2.551034,-0.403843,1.160631,100121.11,+1,-226,-42
67951,7.974,-1.449,1.549,-2.288172,-0.255385,1.149456,100125.47,+1,-226,-42
67961,7.989,1.150,1.426,-1.765108,-0.079788,1.128704,100124.11,+5,-228,-47
67972,9.138,0.711,0.978,-0.815292,-0.056375,1.065915,100124.02,+8,-232,-50
67981,9.267,-1.757,0.994,0.198377,-0.064889,1.084007,100122.55,+12,-232,-50
67991,8.710,-5.100,1.752,0.372377,0.024505,0.952043,100122.55,+12,-232,-50
68001,9.258,-5.424,2.804,0.786890,0.190523,0.795603,100126.23,+14,-232,-47
68012,9.284,-7.270,4.303,0.153680,0.155404,0.781768,100123.67,+17,-233,-46
68021,8.663,-8.120,5.397,-0.857861,0.087826,0.485383,100123.72,+19,-234,-49
68031,8.183,-6.178,5.207,-1.611861,0.041001,0.158136,100123.63,+19,-234,-49
68041,8.154,-3.608,3.744,-2.003493,0.055368,0.076191,100123.63,+20,-236,-55
68051,8.775,-1.583,2.777,-1.902393,0.094744,0.024044,100122.59,+19,-237,-61
68061,9.987,-0.187,2.060,-1.456485,0.055368,0.078319,100126.88,+19,-238,-65
68071,10.669,-0.297,1.963,-0.871164,0.006413,0.243273,100123.10,+19,-238,-65
68081,10.031,-1.915,2.291,-0.434302,-0.037220,0.367255,100123.05,+20,-238,-67
68091,9.713,-3.332,3.342,-0.243274,-0.109586,0.584356,100123.05,+22,-240,-67
68102,8.923,-4.284,3.645,-0.435366,-0.182485,0.651401,100126.13,+24,-241,-68
68111,8.884,-3.909,3.751,-0.685458,-0.217073,0.707805,100122.95,+24,-241,-68
68121,8.993,-3.437,3.521,-0.816889,-0.264430,0.794539,100123.04,+27,-241,-71
68131,9.318,-3.043,2.975,-0.775384,-0.346907,0.898300,100122.15,+29,-243,-74
68142,9.767,-2.908,2.416,-0.657788,-0.424595,1.058465,100122.15,+33,-243,-77
68151,10.047,-3.409,2.214,-0.498155,-0.484724,1.212245,100125.64,+33,-243,-77
68161,10.083,-3.806,1.897,-0.408761,-0.542192,1.284612,100124.64,+37,-245,-78
68171,9.996,-4.205,1.444,-0.420999,-0.557623,1.244172,100125.02,+42,-246,-80
68182,10.037,-4.539,1.101,-0.475274,-0.539531,1.087199,100125.44,+45,-247,-82
68191,10.460,-4.840,0.991,-0.531146,-0.513990,0.975456,100125.44,+45,-247,-82
68201,10.614,-5.180,1.153,-0.595531,-0.511329,0.971731,100127.80,+48,-248,-85
68211,10.714,-4.973,1.453,-0.671623,-0.556027,1.004190,100122.73,+51,-248,-86
68221,9.839,-4.492,1.792,-0.695568,-0.620412,1.103163,100124.13,+54,-249,-90
68232,10.815,-5.170,2.128,-0.834448,-0.675219,1.200539,100124.60,+54,-249,-90
68241,8.836,-3.804,2.384,-0.598192,-0.716724,1.149988,100124.60,+59,-250,-92
68251,9.880,-4.841,2.121,-0.703549,-0.745458,1.089860,100127.79,+61,-250,-94
68261,10.594,-4.701,2.134,-0.829127,-0.806118,1.198942,100126.12,+66,-251,-98
68272,10.655,-3.789,2.167,-0.846155,-0.879549,1.304300,100125.49,+71,-251,-101
68281,11.347,-3.439,2.118,-0.768467,-0.966815,1.406997,100122.45,+71,-251,-101
68291,12.286,-2.848,1.880,-0.598724,-1.066852,1.579401,100122.45,+76,-252,-103
68301,12.772,-3.268,1.465,-0.476871,-1.146136,1.719346,100125.58,+82,-251,-105
68312,13.438,-3.810,0.858,-0.536467,-1.219567,1.818318,100124.89,+89,-252,-106
68322,14.417,-3.924,0.949,-0.747182,-1.316944,1.926337,100124.06,+89,-252,-106
68331,15.665,-3.838,1.996,-0.939806,-1.431347,2.034887,100126.73,+95,-252,-110
68341,17.155,-3.560,3.728,-1.157439,-1.521274,2.134923,100126.73,+103,-253,-113
68352,18.896,-1.988,5.878,-1.516613,-1.575549,2.208354,100124.35,+111,-251,-118
68362,19.579,0.183,7.791,-1.893879,-1.616521,2.330208,100122.04,+111,-251,-118
68371,19.545,1.938,9.460,-1.952411,-1.679310,2.498886,100122.84,+120,-250,-125
68381,19.808,2.101,10.556,-1.852374,-1.719751,2.643620,100121.95,+130,-248,-131
68391,18.955,1.092,11.469,-1.779475,-1.705384,2.706941,100121.95,+141,-246,-136
68402,16.202,-1.368,11.733,-1.646980,-1.621842,2.643620,100123.56,+141,-246,-136
68411,13.599,-6.962,8.507,-1.161164,-1.565439,2.676611,100120.94,+150,-244,-140
68421,13.919,-11.692,3.599,-0.905219,-1.719218,2.630317,100122.78,+160,-242,-142
68431,14.260,-11.647,3.240,-0.794540,-1.758062,2.402042,100122.94,+170,-238,-143
68442,13.460,-5.977,4.408,-0.386944,-1.797439,2.092887,100122.94,+170,-238,-143
68452,10.922,-0.936,4.754,0.261698,-1.885237,1.890153,100122.02,+177,-237,-140
68461,6.715,0.976,4.281,0.956101,-1.854906,1.668263,100123.70,+185,-236,-138
68471,1.252,-0.359,4.308,1.085404,-1.714962,1.417639,100120.09,+190,-234,-132
68482,-3.363,-4.186,2.887,1.070505,-1.451567,1.029732,100120.55,+190,-234,-132
68492,-3.881,-7.556,4.007,0.940138,-1.046632,0.492301,100120.55,+193,-234,-129
68501,-0.418,-7.034,4.305,1.157771,-0.691182,0.063420,100126.60,+194,-235,-125
68511,2.446,-4.265,2.286,0.774119,-0.684265,-0.287240,100123.82,+194,-236,-122
68521,2.592,-1.264,0.246,-0.184742,-0.794412,-0.750176,100122.57,+194,-236,-122
68532,1.755,1.257,-0.518,-0.910540,-0.738540,-1.145001,100121.68,+190,-238,-123
68541,1.459,3.406,-0.324,-0.874889,-0.610834,-1.554726,100121.68,+187,-240,-126
68551,1.362,4.108,0.397,-0.132596,-0.418742,-1.980945,100122.30,+179,-242,-124
68561,1.520,2.856,1.559,0.861385,-0.151623,-2.275734,100122.08,+179,-242,-124
68572,1.739,0.109,2.595,1.494596,0.137845,-2.398652,100122.81,+171,-246,-121
68582,2.187,-3.227,2.863,1.697862,0.434230,-2.458248,100121.03,+164,-250,-115
68591,3.288,-5.404,3.112,1.620706,0.690175,-2.553496,100121.03,+155,-252,-110
68601,4.435,-4.841,2.996,1.490871,0.916853,-2.759954,100124.67,+155,-252,-110
68612,5.476,-1.455,2.312,1.571220,1.084468,-3.112743,100121.73,+143,-255,-106
68622,7.086,1.711,1.103,1.997440,1.198871,-3.435734,100123.41,+133,-258,-101
68631,8.018,0.648,0.997,2.627990,1.271770,-3.568761,100123.67,+120,-260,-92
68641,7.916,-3.816,1.863,3.250026,1.303697,-3.699660,100123.67,+120,-260,-92
68652,8.592,-7.148,2.275,3.433072,1.299972,-3.956137,100122.75,+106,-261,-80
68662,9.530,-7.533,2.140,3.141476,1.264321,-4.153550,100118.30,+91,-261,-69
68671,9.589,-6.355,2.306,2.788687,1.250486,-4.244541,100119.25,+75,-260,-60
68681,9.270,-5.696,2.772,2.614155,1.265385,-4.292963,100115.58,+75,-260,-60
68691,9.460,-5.909,3.439,2.586485,1.315403,-4.367458,100115.58,+61,-256,-50
68702,10.345,-6.051,4.085,2.595531,1.411715,-4.466962,100121.66,+45,-251,-41
68711,11.515,-6.236,4.495,2.583293,1.510156,-4.571256,100121.93,+31,-246,-32
68721,13.151,-6.676,4.800,2.635439,1.602743,-4.634577,100117.96,+31,-246,-32
68731,14.745,-8.104,5.017,2.815293,1.696394,-4.574981,100118.16,+15,-238,-22
68742,15.449,-9.792,4.364,2.978118,1.758119,-4.467494,100118.16,+3,-228,-11
68752,15.555,-12.705,3.143,3.024412,1.771954,-4.325421,100125.68,-8,-218,-1
68761,16.230,-14.681,1.284,2.970669,1.661275,-4.212614,100122.48,-20,-206,+7
68771,16.897,-16.355,0.487,2.772724,1.536761,-4.009348,100123.43,-20,-206,+7
68782,16.813,-17.499,0.831,2.602981,1.390431,-3.675183,100122.59,-28,-195,+15
68792,14.946,-17.819,1.809,2.283183,1.193550,-3.338890,100122.59,-36,-183,+21
68801,12.450,-19.204,2.750,1.834614,1.050945,-2.900431,100122.73,-42,-174,+26
68811,10.685,-23.026,3.142,1.565367,1.017954,-2.335331,100123.15,-42,-174,+26
68822,9.311,-25.052,2.564,1.006651,0.929092,-1.743092,100124.66,-45,-168,+30
68832,8.349,-24.566,0.260,0.149955,0.750303,-1.013570,100124.20,-46,-164,+31
68841,9.001,-23.272,-1.247,-0.509329,0.514046,-0.088763,100124.20,-45,-166,+30
68851,9.795,-21.149,-1.600,-0.916925,0.203294,0.714190,100127.93,-45,-166,+30
68861,11.343,-18.262,-2.896,-0.984503,-0.219733,1.416575,100123.70,-43,-169,+26
68872,15.529,-7.117,0.640,-0.749843,-0.763549,2.014667,100124.01,-40,-175,+23
68882,21.966,20.409,-0.312,-0.024045,-1.156246,1.495328,100119.55,-40,-177,+21
68887,21.190,26.588,-4.606,-1.352723,-0.942338,0.525291,100119.55,-40,-177,+21
68896,16.623,7.658,-4.396,-1.925273,-0.316577,1.037713,100119.55,-38,-182,+16
68907,15.409,-13.394,-0.609,1.175862,-0.491109,2.545180,100124.13,-38,-182,+16
68917,13.387,-19.258,0.554,2.961091,-0.585825,2.795804,100120.98,-32,-183,+21
68927,11.941,-9.197,-1.777,1.743623,-0.632650,2.735675,100122.67,-26,-183,+25
68937,7.774,3.201,1.358,1.217367,-0.428852,2.503143,100119.28,-21,-185,+27
68946,1.414,4.304,5.821,1.833550,-0.164926,2.306263,100122.47,-21,-185,+27
68957,1.562,-5.662,6.270,2.713127,-0.117036,1.966777,100121.64,-15,-184,+31
68967,9.147,-12.579,3.380,2.460907,-0.286779,1.766703,100121.64,-10,-181,+38
68976,12.477,-14.564,1.276,0.597991,-0.304339,1.492135,100123.16,-8,-181,+38
68986,13.446,-9.370,2.682,-1.339953,-0.160137,1.376667,100123.89,-3,-181,+35
68997,11.124,-3.133,3.640,-2.349365,-0.132999,1.228208,100123.89,-3,-187,+35
69007,8.094,-1.153,2.595,-2.328080,-0.105862,1.143603,100126.63,-1,-193,+28
69016,7.571,-1.530,1.386,-1.684228,-0.074999,1.016961,100124.11,+0,-199,+23
69026,8.939,-0.040,0.834,-0.804118,-0.086174,0.920117,100124.53,+3,-201,+22
69037,9.452,-0.485,1.119,-0.019788,-0.070210,0.944062,100122.44,+3,-201,+22
69047,9.651,-2.919,1.444,0.535734,-0.041476,0.954172,100124.30,+5,-201,+23
69057,9.497,-4.920,1.599,0.640560,-0.043073,0.891915,100124.03,+7,-201,+24
69066,9.000,-6.084,2.392,0.358542,-0.028174,0.789750,100122.09,+8,-201,+25
69076,8.557,-6.359,2.869,-0.109183,0.007478,0.664704,100121.78,+8,-201,+25
69087,8.582,-5.719,3.180,-0.616815,0.059624,0.539658,100121.78,+12,-203,+25
69097,8.781,-5.295,3.573,-1.068577,0.099533,0.441750,100121.78,+12,-205,+21
69106,8.844,-3.906,3.396,-1.324521,0.111771,0.377365,100124.52,+14,-207,+18
69116,9.020,-2.121,2.705,-1.353787,0.119753,0.370448,100124.10,+14,-207,+18
69122,9.240,-1.089,2.079,-1.184577,0.124010,0.388007,100122.59,+15,-210,+15
69132,9.330,-0.804,2.066,-0.828595,0.118157,0.432704,100123.73,+15,-210,+15
69141,9.388,-1.226,2.130,-0.291164,0.071863,0.510924,100123.73,+16,-212,+13
69151,9.527,-2.123,2.644,0.068542,0.043661,0.600319,100128.10,+18,-213,+14
69161,9.628,-3.877,2.911,0.151551,0.025037,0.635970,100126.12,+20,-213,+14
69172,9.443,-5.223,3.042,0.013735,-0.019128,0.638631,100124.38,+20,-213,+14
69182,9.230,-5.162,3.403,-0.281586,-0.052651,0.624796,100122.98,+22,-213,+13
69191,9.153,-4.324,3.834,-0.616815,-0.067018,0.623200,100122.98,+24,-215,+12
69201,9.142,-3.492,3.179,-0.794540,-0.090431,0.624264,100125.60,+26,-217,+10
69212,9.557,-2.764,2.486,-0.806247,-0.158541,0.671622,100126.65,+26,-217,+10
69222,9.697,-2.424,1.975,-0.709935,-0.252192,0.747181,100124.62,+27,-220,+8
69232,9.668,-2.387,1.940,-0.536467,-0.329348,0.852007,100125.20,+29,-220,+6
69241,9.767,-2.887,2.106,-0.344375,-0.369788,0.953640,100125.20,+31,-222,+5
69252,9.880,-4.019,2.337,-0.264559,-0.380430,1.016429,100125.20,+34,-223,+3
69262,10.009,-5.095,2.388,-0.307128,-0.415550,1.033988,100124.52,+34,-223,+3
69272,9.929,-5.187,2.499,-0.409825,-0.459183,1.033456,100123.95,+36,-224,+3
69281,10.007,-5.430,2.586,-0.531146,-0.467164,1.041970,100121.79,+38,-226,+0
69292,10.568,-5.546,1.817,-0.697164,-0.478339,1.039310,100121.79,+40,-228,-1
69302,11.097,-4.674,1.560,-0.875953,-0.506540,1.058465,100126.13,+40,-228,-1
69312,11.285,-3.930,1.493,-0.960558,-0.561348,1.104227,100123.67,+44,-230,-5
69321,11.669,-3.229,1.325,-0.953109,-0.668834,1.185640,100123.14,+47,-232,-8
69331,11.942,-2.507,1.580,-0.841366,-0.833788,1.287805,100126.23,+50,-234,-11
69342,12.146,-2.694,2.090,-0.670559,-0.993953,1.439456,100126.23,+50,-234,-11
69352,12.400,-3.229,2.220,-0.566265,-1.113678,1.596961,100124.20,+53,-235,-14
69362,12.694,-3.590,2.151,-0.599788,-1.206265,1.761915,100124.35,+56,-237,-15
69371,13.260,-3.865,1.953,-0.703549,-1.292466,1.909841,100122.99,+61,-239,-19
69382,13.977,-4.152,2.005,-0.832852,-1.373879,2.039676,100125.04,+61,-239,-19
69392,14.712,-4.526,2.475,-1.007916,-1.436668,2.149822,100125.04,+66,-240,-22
69402,15.530,-4.489,3.282,-1.195751,-1.462742,2.254648,100126.20,+71,-242,-26
69411,17.010,-4.350,4.200,-1.604943,-1.480833,2.306263,100122.70,+77,-244,-32
69422,20.147,-2.117,6.185,-1.907714,-1.567567,2.275933,100125.73,+77,-244,-32
69432,22.041,1.448,8.262,-2.047659,-1.634081,2.325419,100123.33,+83,-247,-39
69442,19.904,2.641,8.967,-2.060429,-1.657494,2.575510,100123.33,+91,-248,-46
69451,18.332,2.624,9.809,-1.835879,-1.750081,2.750574,100123.48,+98,-250,-53
69462,17.973,1.596,10.219,-1.594833,-1.769769,2.745253,100119.41,+98,-250,-53
69472,14.761,-3.409,9.072,-1.240448,-1.693145,2.759620,100121.70,+106,-252,-58
69482,11.344,-10.318,7.966,-0.522100,-1.619714,2.844758,100119.77,+115,-252,-60
69491,11.957,-12.039,3.520,-0.225715,-1.505842,2.697896,100119.77,+124,-250,-61
69501,13.758,-9.255,3.296,-0.524228,-1.410063,2.472281,100124.74,+124,-250,-61
69512,12.518,-4.343,3.801,-0.159733,-1.441457,2.192391,100121.76,+131,-249,-64
69522,9.901,-0.450,5.188,0.474010,-1.415384,1.845456,100120.29,+136,-249,-62
69532,6.406,2.151,4.602,0.919918,-1.449971,1.497988,100115.16,+140,-249,-60
69541,1.419,1.196,3.585,0.782101,-1.476576,1.265988,100115.16,+140,-249,-60
69552,-2.987,-4.385,2.328,0.636835,-1.127512,1.063787,100121.86,+143,-248,-57
69562,-3.475,-9.286,5.171,0.794872,-0.415017,0.742924,100122.59,+147,-248,-56
69572,1.037,-9.342,4.320,0.999202,0.095808,0.391200,100121.23,+148,-248,-53
69581,5.002,-5.060,0.429,0.182946,-0.213348,-0.178690,100120.86,+148,-248,-53
69592,5.024,-1.115,-1.741,-1.194155,-0.589549,-0.709735,100120.86,+147,-248,-55
69602,3.233,1.386,-1.778,-2.024246,-0.623604,-1.055607,100123.29,+143,-250,-61
69612,1.549,3.340,-0.759,-1.724668,-0.426192,-1.416909,100122.82,+139,-253,-66
69622,0.946,4.769,0.592,-0.710999,-0.172908,-1.779808,100121.04,+139,-253,-66
69632,1.030,4.796,1.510,0.474010,0.090487,-2.034157,100120.68,+132,-254,-68
69642,1.785,2.613,2.122,1.455752,0.354413,-2.182615,100120.68,+125,-256,-65
69652,2.650,-0.522,2.534,2.019256,0.572578,-2.301276,100124.30,+117,-256,-58
69662,3.241,-3.047,2.950,2.012871,0.782762,-2.453459,100123.72,+117,-256,-58
69671,3.498,-3.813,3.059,1.641458,0.974321,-2.678541,100121.20,+109,-256,-52
69682,3.752,-2.404,2.640,1.316871,1.128633,-2.976523,100119.89,+99,-256,-48
69692,4.583,-0.418,2.481,1.355183,1.282945,-3.258009,100119.89,+89,-257,-45
69702,5.666,0.281,2.571,1.699990,1.438321,-3.465000,100120.20,+77,-256,-38
69711,6.267,-0.679,2.619,2.171972,1.591036,-3.681568,100122.55,+77,-256,-38
69722,6.900,-2.225,2.761,2.476339,1.767165,-3.930064,100119.41,+66,-254,-30
69732,8.124,-3.196,2.494,2.507733,1.897532,-4.170045,100120.67,+53,-250,-20
69742,9.662,-3.292,1.759,2.414082,1.967238,-4.367990,100120.67,+40,-246,-12
69752,10.736,-3.476,1.649,2.405568,2.006082,-4.537201,100121.57,+40,-246,-12
69762,11.426,-4.341,2.128,2.494430,2.041733,-4.650540,100121.57,+26,-239,-3
69772,12.730,-5.411,2.864,2.436430,2.031623,-4.776650,100120.88,+14,-233,+6
69782,14.642,-7.292,3.757,2.289568,2.061954,-4.887329,100119.99,+1,-223,+15
69792,16.333,-8.795,4.595,2.147495,2.093348,-4.995880,100119.99,+1,-223,+15
69801,17.200,-9.549,5.177,2.228908,2.136981,-5.119329,100121.39,-10,-215,+23
69812,17.824,-10.611,5.389,2.605109,2.190724,-5.110283,100118.56,-21,-203,+33
69822,18.195,-13.183,4.932,2.981311,2.202963,-4.897971,100118.98,-30,-189,+43
69832,18.253,-15.834,3.159,3.098552,2.147800,-4.624467,100121.17,-30,-189,+43
69841,18.324,-17.104,1.045,2.965879,2.075256,-4.392999,100121.17,-37,-174,+55
69852,18.555,-18.695,-0.578,2.640228,1.957128,-4.013605,100122.05,-42,-160,+64
69862,17.548,-19.862,-1.182,2.042669,1.697458,-3.545348,100120.27,-45,-150,+71
69872,14.127,-22.148,-0.014,1.367954,1.378725,-3.038248,100121.16,-45,-150,+71
69882,10.672,-26.090,1.763,0.978982,1.187165,-2.459312,100120.16,-48,-140,+75
69892,7.635,-27.778,1.209,0.119624,0.921642,-1.677643,100120.16,-50,-136,+77
69902,6.827,-25.486,-0.964,-0.888191,0.669422,-0.651735,100121.66,-49,-138,+77
69912,9.446,-21.377,-1.427,-1.420301,0.406560,0.484851,100120.62,-49,-138,+77
69922,12.106,-16.047,-1.824,-1.248962,-0.012742,1.286741,100121.55,-47,-144,+75
69932,12.173,-11.690,-3.000,-0.841366,-0.648614,2.021052,100118.68,-44,-149,+72
69942,12.525,-1.009,0.427,-0.009678,-1.146136,2.541455,100118.68,-43,-154,+70
69952,14.503,18.791,4.243,0.740064,-1.114210,2.242409,100121.28,-43,-154,+70
69962,16.973,30.610,-1.283,0.028102,-0.955109,1.168080,100124.42,-41,-155,+70
69971,16.264,11.116,-8.958,-0.501348,-0.843366,1.271309,100124.00,-40,-159,+68
69982,17.412,-11.012,0.970,2.037880,-0.836448,2.295088,100122.33,-36,-158,+72
69992,13.268,-20.627,2.286,3.688485,-0.673091,2.658519,100122.33,-36,-158,+72
70002,15.658,-14.884,1.110,2.853604,-0.403843,2.751107,100122.67,-33,-153,+79
70012,13.405,-2.830,1.152,2.169843,-0.601788,2.781969,100121.52,-28,-152,+82
70022,3.684,0.730,6.841,2.432173,-0.319770,2.558483,100122.67,-23,-149,+86
70032,-0.346,-6.695,7.548,2.582228,-0.382559,2.157272,100120.89,-23,-149,+86
70042,5.868,-11.681,2.372,1.516945,-0.551770,1.820447,100120.89,-21,-145,+90
70052,11.594,-13.070,1.440,-0.658320,-0.465568,1.794373,100122.82,-19,-148,+89
70062,13.590,-9.159,3.095,-1.982209,-0.461843,1.592172,100124.18,-16,-157,+84
70068,12.152,-6.156,2.606,-2.561677,-0.509201,1.391566,100124.07,-16,-157,+84
70077,9.952,-3.694,1.577,-2.589878,-0.473550,1.322392,100124.07,-14,-166,+78
70087,7.815,-0.948,0.997,-2.162062,-0.343715,1.281419,100118.99,-13,-173,+73
70097,7.781,1.041,0.500,-1.391035,-0.251660,1.141475,100118.99,-13,-173,+73
70108,9.501,1.122,0.500,-0.301274,-0.271348,1.079218,100125.96,-11,-177,+72
70117,9.741,-1.775,1.587,0.687918,-0.346375,1.114869,100121.66,-8,-177,+73
70127,8.708,-4.371,1.906,1.101367,-0.357017,1.113805,100120.99,-6,-176,+75
70137,8.294,-6.369,2.425,0.822541,-0.248999,1.036649,100120.99,-6,-176,+75
70147,8.720,-7.257,3.005,0.187202,-0.158008,0.891915,100120.99,-5,-175,+76
70157,9.190,-6.332,3.760,-0.491238,-0.088834,0.739200,100122.98,-3,-177,+73
70167,9.169,-6.020,4.036,-1.053678,-0.045201,0.596062,100124.67,-2,-181,+72
70177,8.999,-4.950,2.791,-1.412320,-0.031898,0.485915,100121.16,-2,-181,+72
70188,9.042,-2.910,1.716,-1.443182,-0.047330,0.433769,100123.98,-1,-185,+68
70197,9.215,-0.771,1.216,-1.017494,-0.105862,0.433236,100123.98,+0,-189,+65
70207,9.562,-0.903,1.234,-0.370449,-0.169715,0.498686,100124.85,+1,-191,+65
70217,9.685,-2.891,1.780,0.133459,-0.218669,0.576906,100123.02,+1,-191,+65
70227,9.439,-4.336,2.337,0.181349,-0.232504,0.617878,100121.98,+1,-191,+65
70238,9.102,-4.420,3.106,-0.107586,-0.206963,0.617346,100121.61,+2,-191,+65
70247,8.984,-4.002,3.742,-0.399183,-0.183018,0.633842,100123.17,+3,-193,+63
70257,9.123,-4.015,3.330,-0.534338,-0.193128,0.621603,100121.19,+3,-193,+63
70267,9.181,-3.792,2.641,-0.575843,-0.214412,0.628521,100121.19,+5,-195,+62
70277,9.406,-3.326,2.143,-0.568926,-0.227183,0.667897,100123.38,+7,-197,+61
70287,9.494,-3.308,1.532,-0.500816,-0.251128,0.725897,100123.33,+7,-200,+58
70297,9.633,-3.315,1.368,-0.426320,-0.276137,0.802521,100123.33,+7,-200,+58
70302,9.796,-3.488,1.595,-0.371513,-0.288907,0.861585,100125.10,+9,-201,+57
70312,10.057,-4.018,1.826,-0.325219,-0.294761,0.907346,100123.49,+10,-203,+56
70322,10.327,-4.451,2.013,-0.329476,-0.299018,0.946722,100122.91,+10,-203,+56
70332,10.399,-4.612,2.182,-0.386412,-0.300082,0.977585,100121.80,+13,-205,+55
70342,10.451,-5.205,2.305,-0.481127,-0.287311,0.988759,100121.80,+15,-207,+54
70352,10.521,-5.045,2.142,-0.687054,-0.288375,0.996741,100123.42,+17,-211,+52
70362,11.124,-4.237,1.673,-0.867439,-0.336797,1.019089,100124.11,+17,-211,+52
70372,11.181,-3.442,1.540,-0.877549,-0.399586,1.069108,100123.27,+19,-213,+50
70382,11.673,-2.928,1.370,-0.817421,-0.504944,1.161163,100121.59,+21,-217,+46
70392,12.044,-3.468,1.922,-0.792412,-0.611898,1.333034,100121.59,+24,-219,+45
70403,12.270,-2.825,2.920,-0.685990,-0.718852,1.459144,100125.40,+24,-219,+45
70412,13.071,-2.916,3.150,-0.756760,-0.865182,1.627291,100125.46,+28,-222,+42
70422,13.558,-3.097,2.454,-0.830546,-0.987745,1.814771,100125.04,+31,-224,+38
70432,13.818,-3.093,1.920,-0.896705,-1.096650,2.012538,100123.88,+35,-228,+35
70443,13.999,-3.288,1.802,-0.953641,-1.188173,2.173235,100123.88,+35,-228,+35
70452,14.653,-4.335,1.756,-1.116467,-1.233402,2.321162,100126.16,+40,-232,+31
70462,15.795,-5.027,2.110,-1.450631,-1.242448,2.449932,100125.64,+45,-236,+27
70472,17.806,-5.131,3.560,-1.914099,-1.234999,2.491969,100121.66,+50,-240,+20
70482,21.034,-3.716,6.294,-2.311585,-1.249366,2.423859,100121.45,+50,-240,+20
70492,23.839,-0.187,8.068,-2.561145,-1.266393,2.322758,100121.45,+57,-246,+12
70502,21.885,3.899,9.884,-2.578172,-1.299384,2.331272,100121.12,+62,-251,+3
70512,17.115,6.118,11.268,-2.390869,-1.468595,2.383419,100121.27,+68,-255,-4
70522,14.742,4.987,11.218,-1.563439,-1.800099,2.473877,100119.13,+68,-255,-4
70533,12.524,-0.186,9.946,-0.806779,-1.908117,2.327015,100120.29,+75,-258,-7
70542,9.758,-5.391,5.246,-0.534338,-1.770301,2.294024,100120.29,+80,-260,-10
70552,10.252,-11.954,2.348,-0.288504,-1.753806,2.897969,100125.52,+87,-260,-11
70562,8.549,-14.726,7.660,0.599588,-1.584063,2.975125,100122.53,+87,-260,-11
70573,7.154,-8.241,8.687,0.785294,-1.143476,2.035951,100121.02,+96,-258,-8
70582,6.282,-1.239,7.368,-0.996742,-0.720981,0.879677,100119.14,+99,-258,-8
70592,5.521,1.441,3.660,-2.545713,-0.716724,0.463035,100119.14,+98,-262,-16
70602,3.375,2.308,1.338,-2.651603,-0.722577,0.128870,100121.48,+98,-262,-16
70612,2.259,3.108,1.097,-2.023181,-0.509733,-0.181882,100122.05,+98,-264,-24
70622,2.372,3.424,1.130,-1.262797,-0.351164,-0.463368,100120.27,+96,-266,-30
70632,2.646,2.459,1.221,-0.486981,-0.233036,-0.714524,100122.26,+94,-267,-30
70642,2.990,1.379,1.503,0.109514,-0.063825,-0.971001,100122.26,+94,-267,-30
70652,3.423,0.825,1.634,0.408028,0.108046,-1.255680,100122.63,+89,-265,-29
70658,3.353,0.381,1.729,0.550101,0.191056,-1.472249,100120.33,+84,-265,-28
70667,3.160,-0.140,1.756,0.745386,0.294285,-1.665404,100120.33,+84,-265,-28
70677,3.221,-0.839,2.209,1.112009,0.490101,-1.887826,100118.55,+77,-264,-24
70687,3.539,-1.524,3.119,1.493000,0.716248,-2.095349,100117.91,+70,-262,-20
70697,3.778,-1.675,3.691,1.736174,0.921642,-2.322028,100117.91,+63,-260,-13
70708,4.104,-1.274,3.715,1.874522,1.103092,-2.575312,100119.49,+63,-260,-13
70717,4.782,-1.116,3.302,2.085238,1.249954,-2.827532,100118.52,+54,-256,-5
70727,5.681,-1.903,3.058,2.359807,1.405330,-3.057404,100118.10,+47,-252,+2
70737,6.464,-3.339,3.084,2.535403,1.573477,-3.246835,100118.10,+37,-245,+11
70748,7.158,-4.153,2.918,2.547109,1.726192,-3.450633,100118.10,+37,-245,+11
70757,7.842,-3.832,2.246,2.409293,1.851238,-3.670394,100121.60,+29,-238,+20
70767,8.547,-3.093,1.829,2.300210,1.970431,-3.820981,100119.18,+19,-230,+29
70777,10.806,-2.667,-0.072,2.257642,1.938504,-3.889091,100116.26,+11,-223,+37
70788,11.589,-3.790,0.815,2.326816,1.694798,-3.877917,100119.60,+11,-223,+37
70798,10.211,-6.275,2.752,2.777513,1.776211,-3.895477,100119.60,+1,-213,+46
70807,11.238,-7.307,6.552,2.476871,1.935311,-4.215274,100121.91,-5,-203,+55
70817,11.714,-7.952,6.678,2.285311,2.084302,-4.498889,100118.95,-14,-192,+63
70828,13.230,-8.104,5.620,2.179421,2.297678,-4.587219,100119.23,-14,-192,+63
70838,14.484,-9.726,4.867,2.295953,2.417935,-4.544651,100119.23,-20,-179,+71
70847,15.273,-10.963,4.315,2.481660,2.536595,-4.467494,100122.51,-26,-167,+80
70857,15.932,-11.979,3.454,2.548706,2.561072,-4.349366,100122.51,-29,-151,+89
70867,16.688,-12.604,2.403,2.668962,2.473274,-4.154614,100121.21,-29,-151,+89
70878,17.552,-14.381,0.969,2.731219,2.302467,-3.886431,100120.63,-31,-136,+100
70887,17.913,-17.230,-0.369,2.628522,2.002357,-3.579403,100121.79,-31,-122,+105
70897,17.109,-18.128,-1.505,2.236357,1.621899,-3.237789,100121.79,-32,-108,+111
70907,14.777,-18.457,-1.123,1.780871,1.345202,-2.806780,100124.07,-32,-97,+116
70918,11.910,-20.579,-0.177,1.750009,1.186101,-2.292762,100124.12,-32,-97,+116
70928,9.715,-23.200,-0.521,1.727660,1.015294,-1.636670,100124.23,-31,-88,+120
70937,9.036,-23.946,-2.098,1.341881,0.744982,-0.800194,100124.31,-29,-81,+122
70947,9.475,-22.037,-3.330,0.868835,0.397514,0.215604,100123.89,-28,-80,+124
70958,10.404,-19.284,-3.860,0.642688,-0.061697,1.196814,100123.89,-28,-80,+124
70968,11.302,-17.644,-4.186,0.765074,-0.543788,2.031694,100125.45,-27,-80,+124
70977,13.187,-11.900,-0.510,1.075826,-1.051421,2.761217,100125.45,-27,-80,+124
70987,16.236,10.180,4.952,1.999568,-1.321733,2.720776,100121.95,-28,-78,+124
70998,20.436,29.038,-4.415,0.787422,-1.056210,1.366025,100121.95,-28,-78,+124
71008,17.822,7.423,-9.049,-1.319200,-0.735880,1.303236,100125.96,-30,-81,+122
71017,15.553,-13.692,1.470,1.277495,-0.730026,2.606905,100123.45,-29,-84,+121
71027,11.993,-17.820,2.954,3.172870,-0.576779,2.996941,100123.91,-28,-78,+125
71037,13.400,-12.543,0.087,1.777678,-0.513458,3.134226,100121.77,-28,-78,+125
71048,12.283,-0.627,-1.007,1.882504,-0.735880,3.191693,100121.77,-25,-78,+125
71058,3.549,4.124,4.625,2.965348,-0.416082,2.993217,100124.77,-24,-73,+128
71067,-0.140,-5.629,7.581,3.388907,-0.361274,2.405767,100123.73,-22,-66,+130
71077,6.616,-15.975,3.943,2.580632,-0.631586,1.980612,100122.75,-22,-66,+130
71088,11.203,-17.864,1.120,-0.006486,-0.564008,1.921548,100122.75,-22,-63,+130
71097,13.622,-10.745,2.430,-2.209420,-0.324559,1.642722,100122.75,-22,-73,+127
71107,11.598,-4.782,2.230,-3.154979,-0.274008,1.324520,100122.95,-22,-86,+124
71117,8.605,-1.409,1.807,-2.865511,-0.147366,1.296319,100124.84,-22,-86,+124
71128,7.226,-0.004,1.321,-2.197714,-0.058504,1.215438,100122.05,-21,-97,+121
71138,8.553,1.981,0.865,-1.211182,-0.053183,1.090924,100122.90,-19,-103,+120
71147,9.565,0.272,1.477,-0.182614,-0.119164,1.150520,100122.90,-17,-106,+120
71157,9.557,-3.345,1.583,0.529349,-0.187274,1.155309,100125.99,-17,-106,+120
71168,9.724,-4.797,1.999,0.646945,-0.193660,1.080282,100127.04,-16,-105,+120
71178,8.719,-6.231,3.363,0.188267,-0.186742,0.823273,100124.01,-15,-105,+120
71188,8.547,-5.638,4.783,0.082377,-0.197917,0.783897,100124.01,-15,-107,+120
71197,7.812,-6.244,5.210,-0.621604,-0.159605,0.709401,100122.73,-15,-107,+120
71207,8.435,-5.388,4.170,-1.155843,-0.071807,0.522099,100122.73,-15,-110,+118
71218,9.268,-2.648,2.037,-1.388375,-0.014871,0.472080,100124.25,-14,-115,+116
71228,9.807,-1.111,0.813,-1.130834,-0.032963,0.490704,100125.92,-14,-121,+115
71237,10.147,-1.390,0.655,-0.522632,-0.123953,0.563071,100122.94,-14,-121,+115
71248,9.999,-3.115,1.369,0.015154,-0.258755,0.660802,100125.89,-13,-122,+115
71258,9.376,-4.475,2.073,0.168046,-0.319238,0.695034,100125.89,-12,-122,+115
71268,8.916,-5.337,2.766,0.048322,-0.310192,0.716319,100125.42,-13,-123,+114
71278,8.904,-5.545,3.149,-0.240614,-0.278797,0.706741,100123.80,-13,-123,+114
71287,9.179,-4.654,3.214,-0.556687,-0.246871,0.711530,100120.25,-12,-126,+113
71298,9.578,-3.456,3.023,-0.690247,-0.244210,0.756227,100123.64,-13,-128,+112
71308,9.735,-2.886,2.335,-0.579568,-0.273476,0.844557,100123.53,-12,-131,+110
71318,9.856,-3.481,1.581,-0.385880,-0.301678,0.937144,100125.11,-12,-131,+110
71327,10.106,-4.628,0.926,-0.285311,-0.307531,1.012172,100125.11,-10,-134,+109
71337,10.551,-5.139,0.555,-0.329476,-0.308596,1.026007,100120.91,-10,-136,+108
71348,10.324,-5.108,0.790,-0.433770,-0.306467,1.000466,100120.91,-8,-138,+108
71358,10.286,-4.690,1.113,-0.516247,-0.314981,0.952043,100125.05,-7,-138,+108
71367,10.330,-4.571,1.429,-0.528485,-0.357550,0.908410,100122.95,-7,-142,+107
71377,10.360,-4.891,1.814,-0.506669,-0.400651,0.875420,100122.95,-7,-144,+105
71388,10.429,-4.992,2.292,-0.558815,-0.443751,0.944594,100124.58,-6,-147,+103
71398,9.829,-4.632,2.469,-0.642889,-0.483660,1.016961,100124.58,-7,-150,+101
71408,11.017,-4.656,2.452,-0.826467,-0.509201,1.066447,100124.67,-7,-150,+101
71417,9.972,-4.019,1.959,-0.887659,-0.599660,1.341016,100123.78,-5,-156,+100
71428,10.511,-2.779,1.782,-0.806779,-0.639036,1.181915,100123.09,-4,-160,+97
71438,11.893,-3.093,2.098,-0.700889,-0.761421,1.375603,100123.09,-3,-162,+95
71447,12.506,-2.879,2.410,-0.662577,-0.888595,1.538961,100123.09,-3,-162,+95
71457,13.179,-3.309,1.987,-0.698228,-0.987035,1.760850,100124.85,-3,-167,+92
71468,13.615,-3.673,1.150,-0.779109,-1.066320,1.940703,100125.95,+0,-172,+89
71478,14.570,-3.669,1.480,-0.942999,-1.145072,2.029033,100126.16,+0,-177,+86
71488,15.643,-3.393,2.075,-1.203732,-1.253622,2.105125,100124.80,+0,-177,+86
71497,16.889,-3.728,3.163,-1.458081,-1.329714,2.215272,100124.80,+1,-183,+81
71507,18.829,-3.148,4.748,-1.693806,-1.431879,2.233364,100124.73,+4,-190,+75
71518,20.936,-0.362,7.084,-1.978484,-1.490411,2.257841,100121.90,+6,-197,+68
71528,20.839,2.383,9.571,-2.343512,-1.560650,2.364795,100122.80,+6,-197,+68
71538,19.370,4.098,11.511,-2.377034,-1.668668,2.566464,100122.80,+8,-206,+61
71547,18.716,3.537,12.102,-2.132796,-1.691549,2.711730,100124.14,+12,-215,+53
71558,16.970,-0.150,11.645,-1.874723,-1.663347,2.746317,100122.63,+17,-220,+47
71568,14.924,-5.974,8.426,-1.400613,-1.698998,2.820281,100122.63,+17,-220,+47
71577,15.700,-10.576,3.092,-1.030265,-1.916099,2.798464,100122.69,+22,-225,+42
71587,16.496,-10.240,3.147,-0.817953,-1.951218,2.544648,100122.89,+26,-229,+38
71598,14.702,-5.401,5.413,-0.290632,-1.990594,2.298281,100122.89,+28,-230,+36
71608,11.826,0.062,5.832,0.565000,-2.122025,2.092355,100123.34,+28,-230,+36
71618,7.905,1.894,4.714,1.358376,-2.001237,1.767236,100122.67,+30,-230,+38
71627,2.929,0.801,4.048,1.533440,-1.760723,1.477236,100122.20,+31,-226,+41
71638,-1.389,-3.924,2.409,1.344009,-1.508503,1.143603,100121.78,+31,-224,+43
71648,-2.089,-9.106,3.609,1.473844,-1.116870,0.652998,100123.63,+31,-224,+43
71658,0.734,-9.005,4.728,1.982541,-0.822614,0.158136,100121.54,+30,-220,+48
71668,2.750,-6.327,3.372,1.593036,-0.772595,-0.224451,100121.96,+28,-216,+53
71677,3.208,-3.062,1.753,0.273936,-0.897109,-0.684194,100121.96,+23,-215,+51
71688,1.985,0.284,0.684,-0.839237,-0.933824,-1.186506,100116.41,+23,-215,+51
71698,0.892,2.908,0.374,-1.019090,-0.760889,-1.617514,100116.41,+16,-215,+48
71708,0.129,4.021,0.956,-0.165054,-0.499623,-1.989459,100122.12,+8,-215,+46
71717,0.090,3.651,2.200,0.930028,-0.162265,-2.222523,100117.73,+1,-209,+48
71728,0.345,1.144,3.070,1.623367,0.146890,-2.331074,100118.35,+1,-209,+48
71738,0.903,-2.114,3.514,1.882504,0.407092,-2.492835,100116.41,-4,-201,+53
71748,1.858,-4.149,3.813,1.759587,0.657716,-2.682266,100116.41,-10,-193,+60
71758,3.146,-3.776,3.374,1.295587,0.871624,-2.898303,100124.10,-17,-185,+63
71768,3.904,-1.895,2.699,0.872028,1.029128,-3.155312,100120.35,-17,-185,+63
71778,4.401,0.056,2.115,0.946523,1.194615,-3.437862,100119.34,-22,-177,+66
71788,4.846,-0.035,2.049,1.429679,1.387238,-3.684761,100119.34,-28,-168,+70
71797,5.575,-1.633,2.486,1.904853,1.604339,-3.933256,100119.34,-33,-156,+77
71808,6.715,-2.990,2.685,2.119293,1.786853,-4.207293,100121.35,-33,-156,+77
71818,7.903,-3.622,2.401,2.119293,1.893275,-4.460577,100121.15,-36,-142,+85
71828,9.182,-3.755,1.875,2.131531,1.979476,-4.655861,100118.01,-40,-127,+90
71838,9.920,-4.140,2.021,2.204962,2.038186,-4.745433,100120.07,-42,-111,+96
71847,10.652,-4.606,2.494,2.330540,2.078449,-4.775586,100120.07,-42,-111,+96
71858,11.923,-5.599,3.685,2.447073,2.109311,-4.843696,100123.73,-42,-94,+104
71868,13.864,-6.862,4.548,2.629586,2.140174,-4.903292,100121.63,-41,-76,+109
71878,16.227,-8.580,4.969,2.783898,2.152412,-4.935219,100121.16,-39,-57,+115
71888,17.506,-11.089,4.818,3.065384,2.133788,-4.882540,100119.90,-35,-37,+120
71898,17.679,-13.970,4.461,3.388907,2.136449,-4.752705,100120.84,-35,-37,+120
71908,17.675,-16.979,3.271,3.522999,2.113568,-4.562742,100122.04,-30,-16,+123
71918,17.729,-19.946,1.412,3.485751,2.017788,-4.275403,100122.04,-24,+3,+126
71927,17.618,-22.176,-0.246,3.114338,1.848577,-3.923146,100122.26,-17,+20,+128
71938,16.706,-23.330,-0.580,2.387476,1.613917,-3.512890,100121.52,-17,+20,+128
71948,14.711,-23.707,1.526,1.562706,1.364890,-2.992486,100121.52,-10,+32,+129
71958,12.503,-24.088,1.094,0.904486,1.122780,-2.363000,100123.15,-5,+39,+130
71967,9.529,-28.280,0.141,0.446872,0.864174,-1.496194,100122.73,-2,+42,+130
71977,7.919,-28.577,-1.291,-0.012871,0.655055,-0.609167,100122.99,-2,+42,+130
71988,9.112,-24.887,-3.971,-0.742925,0.343239,0.352356,100123.09,+0,+41,+131
71998,13.168,-19.435,-6.956,-1.041971,-0.175568,1.346869,100123.09,+0,+37,+132
72008,18.914,-4.709,-1.753,-0.631715,-0.975861,2.042868,100124.80,-5,+31,+130
72018,24.136,25.363,0.476,0.701220,-1.453696,1.426685,100122.55,-5,+31,+130
72028,18.881,17.917,-3.485,-1.134558,-0.569329,0.839236,100121.97,-9,+31,+129
72038,17.528,-10.471,-1.348,-0.109183,-0.517715,2.402575,100121.97,-10,+24,+128
72048,14.088,-19.002,2.864,3.343145,-0.875825,3.092189,100121.97,-14,+33,+125
72057,10.921,-9.996,-0.712,2.278394,-0.781641,3.114005,100123.34,-14,+33,+125
72068,7.260,0.304,0.482,0.990688,-0.610302,2.791547,100125.80,-17,+32,+125
72078,1.098,4.586,5.657,2.014999,-0.319770,2.581896,100125.64,-20,+35,+123
72088,0.382,-4.432,9.662,3.009513,-0.173972,2.365859,100121.14,-21,+39,+122
72098,7.916,-15.518,4.241,2.370981,-0.524632,1.984869,100121.14,-21,+39,+122
72108,12.495,-16.973,-0.357,0.172835,-0.556027,1.675181,100122.67,-23,+44,+120
72118,13.494,-10.368,1.675,-2.222191,-0.202174,1.537364,100124.69,-26,+34,+121
72128,11.135,-3.531,2.644,-3.326318,-0.136724,1.273438,100122.52,-26,+21,+121
72138,8.736,0.309,1.264,-2.742062,-0.055311,1.243640,100122.52,-26,+21,+121
72148,7.907,0.572,0.903,-1.706044,0.030891,1.170741,100125.10,-26,+11,+121
72158,8.274,0.622,0.885,-0.607237,0.012799,1.073897,100125.10,-27,+5,+121
72168,8.929,-1.451,1.517,0.290964,0.002689,1.104227,100123.74,-26,+5,+122
72178,10.076,-3.542,1.877,0.744853,-0.028174,1.108484,100124.54,-26,+5,+122
72187,10.345,-5.324,2.146,0.648009,-0.016467,1.061658,100121.34,-26,+5,+121
72194,10.033,-6.735,3.175,0.271276,0.004817,1.006319,100121.34,-26,+5,+122
72203,9.358,-7.361,4.964,-0.251788,-0.059568,0.886062,100124.24,-26,+5,+122
72213,8.253,-7.162,5.553,-0.970136,-0.175036,0.678007,100124.66,-27,+1,+121
72223,8.283,-5.638,4.064,-1.535237,-0.140449,0.527952,100125.45,-27,-5,+121
72232,9.064,-2.949,2.867,-1.815127,-0.056908,0.483787,100120.01,-28,-11,+121
72243,9.518,-0.408,1.687,-1.537897,-0.081917,0.531145,100120.01,-28,-11,+121
72253,9.826,0.531,0.779,-0.822742,-0.151091,0.658851,100127.05,-27,-16,+120
72263,9.741,-1.967,1.315,-0.133128,-0.187807,0.775383,100123.70,-28,-19,+121
72272,9.820,-5.104,2.042,0.119624,-0.228247,0.808906,100124.22,-29,-19,+120
72283,9.428,-6.099,2.773,-0.166651,-0.214412,0.799328,100122.55,-29,-19,+120
72293,9.328,-5.228,3.357,-0.599256,-0.218137,0.741860,100122.55,-29,-22,+120
72303,9.354,-3.792,3.057,-0.782834,-0.324027,0.690778,100123.20,-29,-26,+119
72313,9.353,-2.909,2.406,-0.654063,-0.426724,0.729622,100124.61,-31,-29,+118
72323,9.424,-3.286,1.953,-0.418871,-0.560283,0.754099,100123.83,-31,-29,+118
72333,9.331,-3.907,1.619,-0.251256,-0.619348,0.769530,100124.25,-33,-31,+117
72343,9.254,-4.441,1.472,-0.203898,-0.592210,0.813163,100124.25,-34,-33,+116
72353,9.446,-4.961,1.486,-0.257109,-0.535806,0.814227,100121.78,-36,-36,+115
72363,9.773,-4.817,1.485,-0.319366,-0.494834,0.822741,100123.83,-36,-36,+115
72373,10.126,-4.913,1.654,-0.365128,-0.470889,0.822209,100123.09,-37,-39,+115
72383,10.377,-4.929,1.827,-0.378962,-0.494302,0.819548,100121.53,-38,-42,+113
72393,10.427,-4.994,1.698,-0.397054,-0.526761,0.832851,100121.53,-38,-44,+112
72403,10.421,-4.985,1.678,-0.489641,-0.550705,0.850410,100126.79,-38,-44,+112
72413,10.442,-4.539,1.866,-0.622137,-0.591146,0.892447,100122.76,-40,-48,+111
72423,10.397,-4.189,2.045,-0.727494,-0.625201,0.961621,100123.80,-42,-52,+110
72428,10.421,-3.852,2.024,-0.776980,-0.663513,1.022282,100121.87,-42,-52,+110
72438,10.487,-3.426,1.960,-0.806779,-0.720448,1.102631,100121.87,-42,-56,+108
72448,10.560,-3.036,2.165,-0.773788,-0.827403,1.220759,100121.87,-44,-61,+105
72458,11.100,-2.690,2.600,-0.703549,-0.951384,1.358043,100124.73,-45,-67,+103
72468,12.249,-2.613,3.010,-0.648742,-1.049824,1.562373,100122.80,-45,-67,+103
72478,13.048,-3.300,2.562,-0.682265,-1.126980,1.764043,100121.17,-47,-72,+100
72488,13.618,-3.763,1.965,-0.846155,-1.174870,1.928465,100121.17,-49,-78,+98
72498,14.517,-3.636,1.835,-1.036118,-1.195090,2.081712,100125.40,-49,-84,+95
72508,15.868,-3.894,2.081,-1.186705,-1.194026,2.258905,100125.40,-49,-84,+95
72518,17.612,-4.143,3.250,-1.487347,-1.178063,2.411620,100125.15,-50,-93,+91
72528,21.025,-2.630,5.835,-1.870998,-1.247769,2.438226,100122.90,-50,-103,+86
72538,23.961,1.830,8.999,-2.128007,-1.345677,2.430244,100121.48,-50,-114,+81
72548,21.634,4.434,10.658,-2.064154,-1.422301,2.640960,100121.48,-50,-114,+81
72558,18.656,3.632,11.908,-1.621439,-1.567035,2.772391,100123.30,-49,-125,+76
72568,16.876,2.448,11.554,-1.229806,-1.670797,2.666501,100119.11,-49,-133,+70
72579,13.113,-1.895,10.540,-0.971201,-1.674521,2.507932,100122.05,-48,-139,+65
72588,9.912,-6.393,4.428,-0.737604,-1.544154,2.308923,100120.58,-48,-139,+65
72598,10.809,-10.122,1.807,-1.096778,-1.567567,2.476006,100122.94,-47,-146,+61
72608,10.888,-12.610,2.115,-0.179953,-1.659622,2.764941,100124.98,-44,-152,+57
72619,9.308,-11.128,7.023,0.631514,-1.419641,2.514850,100121.22,-42,-155,+56
72628,6.966,-5.851,6.191,0.606505,-1.212118,1.838006,100121.22,-42,-155,+56
72638,3.564,-2.058,5.136,-0.423660,-0.938081,1.007383,100117.13,-42,-157,+55
72648,1.809,-0.736,4.108,-1.188833,-0.705017,0.485383,100117.13,-42,-160,+51
72658,2.084,0.419,1.574,-1.478301,-0.706614,0.100668,100122.68,-43,-164,+46
72668,2.397,1.691,0.402,-1.362833,-0.637971,-0.283515,100122.41,-43,-164,+46
72678,2.659,2.667,-0.101,-0.836045,-0.501219,-0.604378,100119.54,-45,-164,+43
72688,2.460,2.541,0.369,-0.161862,-0.332008,-0.931093,100121.27,-47,-164,+41
72698,1.951,1.593,1.221,0.398450,-0.122889,-1.229074,100121.27,-51,-161,+41
72709,1.830,0.699,1.975,0.677275,0.126670,-1.483955,100119.92,-51,-161,+41
72718,2.059,0.158,2.296,0.734743,0.345899,-1.726597,100120.55,-54,-156,+43
72728,2.518,-0.709,2.155,0.742725,0.513514,-1.978285,100119.30,-56,-150,+45
72738,3.308,-1.759,2.073,0.894376,0.701349,-2.191129,100119.30,-59,-143,+48
72748,3.832,-2.404,2.631,1.196082,0.885459,-2.353422,100119.30,-59,-143,+48
72758,4.108,-2.191,3.236,1.463734,1.070101,-2.565734,100119.43,-62,-136,+51
72768,4.623,-1.076,3.264,1.653165,1.241440,-2.832321,100119.59,-63,-125,+56
72778,5.483,-0.272,2.782,1.920816,1.383514,-3.076560,100116.85,-64,-114,+61
72783,6.142,-0.560,2.471,2.187935,1.476633,-3.216504,100116.38,-64,-114,+61
72793,6.658,-1.956,2.348,2.422063,1.571348,-3.318670,100116.38,-66,-101,+68
72803,7.377,-3.808,2.398,2.622669,1.692669,-3.481495,100118.88,-66,-86,+73
72813,8.086,-4.462,2.245,2.610962,1.802284,-3.690082,100121.13,-66,-86,+73
72823,8.875,-3.830,1.757,2.470485,1.914027,-3.870467,100119.72,-65,-70,+79
72834,11.144,-2.552,-0.736,2.310320,1.915623,-3.972100,100118.30,-63,-55,+84
72843,12.121,-2.488,-0.065,2.395990,1.736302,-3.926871,100118.30,-61,-40,+88
72853,10.733,-4.832,1.842,2.862650,1.723532,-3.885899,100122.68,-61,-40,+88
72863,11.614,-6.706,6.382,2.654063,1.837935,-4.153018,100119.80,-58,-23,+92
72873,12.181,-7.618,6.532,2.469953,1.968834,-4.452595,100117.40,-53,-6,+96
72883,13.776,-7.274,5.157,2.314577,2.144963,-4.561678,100118.07,-48,+9,+99
72893,15.288,-8.969,3.842,2.455054,2.199238,-4.500485,100118.07,-48,+9,+99
72903,16.164,-11.225,3.460,2.796669,2.220522,-4.390338,100119.83,-40,+26,+102
72913,16.768,-13.750,2.779,3.020687,2.224779,-4.214742,100123.55,-30,+43,+105
72923,17.256,-15.682,1.343,3.065384,2.169440,-4.021054,100120.67,-22,+60,+106
72933,17.332,-17.668,-0.370,2.946192,2.016724,-3.791183,100124.34,-22,+60,+106
72943,16.854,-20.204,-1.656,2.691311,1.733110,-3.473513,100124.34,-12,+75,+106
72953,15.328,-22.331,-1.791,2.187403,1.417569,-3.068046,100122.57,-3,+88,+106
72964,12.535,-22.452,-1.231,1.485550,1.128633,-2.570523,100122.35,+1,+95,+105
72973,9.911,-23.049,0.114,1.025275,0.964743,-1.947955,100120.10,+1,+95,+105
72983,8.823,-24.605,1.290,0.892780,0.822670,-1.208322,100121.88,+7,+101,+105
72993,8.799,-23.509,-0.853,0.592138,0.552358,-0.396855,100121.88,+9,+105,+105
73004,9.579,-21.506,-3.108,0.326083,0.188395,0.553493,100125.05,+9,+104,+105
73013,9.991,-18.949,-4.040,0.342578,-0.202706,1.413915,100126.57,+9,+104,+105
73023,11.410,-14.340,-3.355,0.438358,-0.686926,2.121089,100124.12,+6,+104,+105
73033,14.204,3.031,3.730,1.141807,-1.065256,2.395657,100122.96,+0,+103,+102
73043,19.044,28.265,1.306,1.123183,-0.967879,1.344741,100122.96,-3,+105,+100
73054,17.234,16.759,-7.486,-1.384118,-0.590082,0.664704,100125.94,-3,+105,+100
73063,17.826,-8.112,-2.057,0.094083,-0.432577,1.995511,100124.83,-7,+98,+101
73073,15.634,-20.577,2.615,2.825402,-0.525164,2.738336,100122.53,-10,+100,+97
73083,13.794,-15.317,-1.034,2.269348,-0.597531,2.972464,100121.33,-16,+103,+95
73094,11.362,-2.324,-1.696,1.686156,-0.670962,2.883070,100121.33,-21,+104,+91
73103,4.925,3.387,5.055,1.749477,-0.247935,2.684061,100125.84,-21,+104,+91
73113,1.736,-3.759,7.315,2.617880,-0.059036,2.436097,100121.63,-25,+105,+88
73123,6.788,-12.197,5.182,2.497091,-0.384687,2.058300,100121.43,-28,+110,+85
73134,9.816,-15.570,2.252,0.431973,-0.428320,1.664539,100119.60,-31,+106,+85
73143,12.246,-9.748,3.410,-1.571952,-0.246339,1.550135,100119.60,-31,+106,+85
73153,11.183,-4.322,3.621,-2.594667,-0.296357,1.297915,100121.73,-34,+97,+88
73163,8.896,-2.536,2.499,-2.617548,-0.264962,1.161163,100124.60,-36,+87,+90
73174,7.986,-2.266,0.523,-2.145035,-0.188871,1.029732,100126.38,-37,+80,+92
73183,8.815,0.808,0.147,-1.334631,-0.092559,0.966942,100121.62,-37,+80,+92
73193,9.335,0.242,0.360,-0.417274,-0.048394,0.999933,100121.62,-38,+74,+91
73203,9.662,-2.569,0.769,0.373973,-0.030834,1.026539,100124.32,-40,+74,+92
73213,9.725,-4.786,1.772,0.561808,0.014927,1.020686,100123.10,-40,+73,+91
73224,9.154,-5.804,2.896,0.222322,0.052707,0.986098,100124.52,-40,+73,+91
73233,8.748,-6.196,4.234,-0.330008,0.059624,0.798796,100122.90,-41,+71,+92
73243,8.486,-5.919,4.802,-0.787623,0.062817,0.618943,100122.90,-42,+68,+93
73253,8.107,-5.564,4.922,-1.177127,0.048982,0.588612,100123.64,-42,+62,+93
73264,8.082,-4.253,3.560,-1.601751,0.061753,0.417805,100123.33,-42,+62,+93
73273,8.906,-0.997,2.358,-1.598558,0.051111,0.359273,100120.70,-42,+56,+96
73283,9.335,0.529,1.751,-1.119127,-0.031366,0.411420,100118.77,-43,+52,+95
73293,9.628,0.109,2.115,-0.329476,-0.107458,0.511989,100118.77,-43,+50,+95
73304,9.588,-1.924,2.785,0.145166,-0.151623,0.635970,100124.02,-43,+50,+95
73314,9.398,-4.337,3.570,0.156872,-0.169715,0.678539,100120.21,-44,+48,+95
73323,9.371,-5.327,4.028,-0.133660,-0.225586,0.705677,100118.21,-45,+48,+95
73333,8.929,-4.791,4.272,-0.497091,-0.332540,0.692906,100121.04,-46,+45,+95
73344,8.832,-3.925,3.563,-0.676944,-0.370852,0.715787,100121.04,-46,+45,+95
73354,9.238,-3.577,2.464,-0.649806,-0.387348,0.801456,100123.39,-47,+41,+94
73363,9.507,-3.357,1.217,-0.544981,-0.417678,0.878080,100125.53,-49,+39,+94
73373,9.855,-3.839,1.273,-0.403439,-0.435238,0.990355,100124.95,-51,+35,+93
73383,10.398,-3.989,1.267,-0.336394,-0.492173,1.057401,100119.41,-51,+35,+93
73394,10.641,-4.785,1.437,-0.284247,-0.510797,1.098906,100119.41,-53,+32,+93
73403,10.681,-5.720,1.121,-0.326816,-0.506540,1.121786,100126.56,-55,+27,+91
73413,11.232,-5.945,1.051,-0.463036,-0.502816,1.098374,100122.17,-57,+24,+92
73423,11.134,-5.774,1.356,-0.626926,-0.499091,1.059530,100122.64,-57,+24,+92
73434,10.799,-5.622,1.691,-0.816357,-0.504412,1.021218,100122.33,-59,+20,+91
73443,10.697,-4.828,2.013,-0.972797,-0.560816,0.986631,100122.33,-60,+15,+90
73453,10.572,-3.893,2.389,-1.009512,-0.643293,0.961621,100123.74,-62,+10,+88
73463,10.752,-3.436,2.598,-0.943531,-0.745458,1.045695,100122.01,-62,+10,+88
73474,10.823,-2.905,2.823,-0.817421,-0.864118,1.166484,100122.01,-64,+5,+87
73484,11.296,-2.885,2.926,-0.802522,-0.991824,1.347933,100122.32,-67,+0,+85
73494,12.070,-2.838,2.791,-0.740797,-1.104100,1.508985,100122.32,-70,-5,+83
73503,12.810,-3.089,2.394,-0.733880,-1.191898,1.654961,100124.86,-70,-5,+83
73513,13.458,-2.984,1.920,-0.795072,-1.286081,1.838006,100121.31,-72,-11,+81
73524,14.254,-2.763,1.972,-0.871164,-1.376540,2.024777,100119.11,-75,-18,+78
73533,15.553,-2.757,2.268,-0.908944,-1.468595,2.185474,100121.52,-78,-26,+75
73543,16.812,-3.534,2.968,-0.981311,-1.515953,2.347767,100121.52,-78,-26,+75
73553,18.865,-3.771,4.462,-1.203200,-1.530319,2.422263,100118.30,-82,-35,+71
73564,21.547,-1.316,6.997,-1.646448,-1.541494,2.406299,100118.98,-84,-44,+66
73574,21.392,1.663,9.029,-2.105126,-1.540430,2.479731,100118.61,-85,-56,+62
73583,19.697,3.436,9.659,-2.138117,-1.625567,2.656391,100116.05,-87,-68,+57
73593,19.148,3.646,10.825,-1.997108,-1.686228,2.670226,100116.05,-87,-68,+57
73604,17.152,1.736,10.678,-1.766705,-1.660154,2.579767,100117.37,-88,-78,+51
73614,13.137,-4.239,9.470,-1.084008,-1.610136,2.638299,100116.32,-89,-88,+46
73623,12.015,-9.974,3.148,-0.453458,-1.658558,2.632446,100118.30,-88,-95,+43
73633,13.751,-12.372,2.458,-0.549237,-1.645787,2.577106,100117.52,-88,-95,+43
73644,14.044,-9.068,3.825,-0.086302,-1.789457,2.395125,100117.52,-88,-102,+38
73654,11.606,-3.728,5.117,0.518175,-1.851714,2.148758,100119.58,-89,-107,+35
73663,7.287,-0.578,4.387,0.807110,-1.838411,1.883768,100120.31,-89,-109,+33
73673,1.942,-1.099,4.353,0.866707,-1.635145,1.582594,100118.11,-89,-109,+33
73683,-2.418,-5.272,3.420,0.867771,-1.294063,1.138282,100116.39,-90,-111,+32
73694,-2.905,-7.873,5.427,0.843826,-0.759292,0.620007,100116.39,-89,-112,+32
73704,0.815,-6.455,4.407,0.595863,-0.476742,0.259769,100116.27,-91,-111,+31
73713,3.314,-2.474,1.459,-0.370449,-0.713531,-0.353222,100115.28,-91,-111,+31
73723,2.867,0.953,0.362,-1.397420,-0.753439,-0.935882,100113.03,-93,-111,+28
73730,2.237,2.892,-0.488,-1.618778,-0.691182,-1.172139,100117.27,-96,-111,+25
73739,1.441,4.341,-0.815,-1.280888,-0.607641,-1.433937,100117.27,-96,-111,+25
73748,0.742,4.776,0.083,-0.292761,-0.359146,-1.775551,100117.27,-99,-107,+23
73758,0.717,3.715,1.550,0.729422,-0.083513,-2.012872,100114.20,-103,-101,+24
73768,0.998,1.594,2.554,1.392431,0.171900,-2.189001,100114.82,-103,-101,+24
73779,1.711,-0.590,2.633,1.658486,0.404432,-2.378964,100115.82,-105,-93,+27
73789,2.786,-2.448,2.886,1.615385,0.618340,-2.585954,100115.82,-106,-82,+30
73799,4.032,-3.327,3.230,1.460541,0.800321,-2.786560,100114.34,-108,-71,+33
73808,4.697,-2.931,3.274,1.344009,0.945055,-3.005257,100114.34,-109,-71,+37
73819,4.749,-2.063,2.959,1.358376,1.068505,-3.246303,100115.19,-109,-60,+37
73829,5.206,-2.006,2.717,1.558449,1.229202,-3.477770,100112.63,-109,-46,+41
73838,6.196,-2.490,2.808,1.969770,1.418633,-3.671458,100113.77,-108,-33,+45
73848,7.160,-3.229,3.070,2.355018,1.599550,-3.851311,100113.77,-106,-16,+51
73859,8.267,-3.693,3.131,2.530082,1.748541,-4.026375,100113.20,-106,-16,+51
73869,9.443,-3.606,2.737,2.547641,1.842192,-4.168981,100111.95,-103,+0,+55
73879,10.420,-3.158,1.960,2.670559,1.879440,-4.267953,100112.42,-98,+19,+60
73888,10.666,-3.664,2.394,2.931293,1.939568,-4.312651,100112.53,-91,+38,+63
73899,11.365,-5.169,3.268,3.092522,1.995972,-4.364265,100112.70,-91,+38,+63
73909,13.064,-6.895,4.304,2.925439,1.995972,-4.540393,100115.06,-83,+57,+66
73919,14.457,-8.895,4.940,2.683861,2.023642,-4.738871,100111.08,-74,+77,+69
73928,15.249,-9.555,5.441,2.426852,2.084302,-4.905421,100111.08,-63,+94,+72
73938,15.621,-9.190,5.930,2.278926,2.198174,-4.986834,100111.77,-63,+94,+72
73949,16.381,-9.864,5.912,2.333733,2.386540,-4.897439,100111.77,-50,+111,+74
73959,17.213,-13.119,5.027,2.364064,2.491898,-4.704283,100114.34,-36,+128,+74
73968,17.957,-16.327,2.242,2.364064,2.456779,-4.526559,100114.19,-22,+144,+74
73978,18.895,-18.104,-1.036,2.050651,2.333862,-4.321696,100116.34,-22,+144,+74
73989,18.905,-19.631,-3.452,1.692009,2.128467,-3.951880,100114.52,-8,+156,+75
73999,16.980,-19.735,-3.222,1.187037,1.725660,-3.435734,100114.52,+3,+165,+74
74009,13.678,-23.024,-0.500,0.902358,1.374468,-2.780707,100119.70,+14,+172,+74
74018,10.904,-27.857,0.535,0.961954,1.062119,-2.017129,100121.24,+14,+172,+74
74029,8.855,-28.715,-2.282,0.409624,0.688578,-1.146065,100117.95,+19,+176,+73
74039,8.923,-26.109,-5.182,-0.257109,0.357606,0.018723,100117.95,+21,+176,+74
74048,10.411,-22.428,-6.185,-0.511990,-0.072339,1.183511,100117.95,+18,+173,+75
74058,12.772,-16.750,-5.756,-0.214540,-0.668834,2.049254,100120.95,+18,+173,+75
74068,15.073,-1.220,0.914,0.608101,-1.263733,2.564868,100121.21,+10,+170,+74
74079,16.698,23.212,6.047,1.442981,-1.219567,1.973694,100120.70,+1,+171,+70
74084,16.526,30.519,1.294,0.284046,-0.886999,1.002062,100117.24,+1,+171,+70
74093,13.719,14.472,-7.202,-0.941934,-0.652338,1.004722,100117.24,-1,+169,+70
74103,16.688,-7.351,-1.542,0.630450,-0.716192,2.156208,100122.44,-7,+168,+68
74114,14.875,-17.581,3.812,2.527953,-0.702357,2.789418,100120.72,-15,+169,+62
74124,14.969,-12.753,1.994,2.106522,-0.430981,2.755363,100118.67,-15,+169,+62
74134,15.174,-2.957,1.572,1.631348,-0.685329,2.904354,100120.98,-21,+168,+58
74143,5.239,1.653,4.198,2.714192,-0.543256,2.995877,100120.98,-29,+170,+53
74153,-1.235,-3.766,7.659,3.180320,-0.346907,2.403107,100121.52,-35,+174,+45
74164,2.958,-10.357,4.575,2.605109,-0.437366,1.902392,100119.65,-35,+174,+45
74174,11.019,-12.693,1.316,0.701753,-0.546981,1.913034,100122.48,-40,+174,+43
74183,14.180,-11.633,2.416,-1.081879,-0.485788,1.869933,100120.27,-45,+168,+43
74193,13.613,-7.800,2.802,-2.111512,-0.510797,1.685291,100120.27,-50,+160,+46
74204,9.584,-4.543,2.248,-2.519108,-0.536871,1.503841,100122.43,-50,+160,+46
74214,6.894,0.276,1.723,-2.076925,-0.401183,1.477768,100119.02,-54,+150,+51
74224,7.003,2.291,1.441,-1.366558,-0.281990,1.390502,100119.02,-57,+144,+52
74233,8.667,0.181,0.618,-0.356614,-0.296889,1.302172,100119.82,-60,+140,+52
74244,9.827,-2.792,1.040,0.415477,-0.340522,1.338355,100119.82,-60,+140,+52
74254,9.710,-4.384,1.596,0.709734,-0.355953,1.312814,100119.72,-63,+139,+51
74264,8.917,-4.917,1.985,0.695367,-0.302742,1.255878,100119.05,-66,+138,+48
74273,8.419,-5.960,2.966,0.372909,-0.171843,1.151585,100119.20,-69,+136,+49
74284,8.376,-7.560,3.281,-0.200706,-0.097880,0.929163,100120.45,-69,+136,+49
74294,8.619,-7.173,2.720,-0.741861,-0.061164,0.700356,100120.45,-70,+133,+48
74304,8.886,-6.337,2.584,-1.223421,-0.010082,0.554557,100122.94,-71,+129,+51
74313,9.155,-4.617,2.177,-1.485751,0.030358,0.431640,100118.86,-72,+123,+53
74319,9.319,-2.794,1.950,-1.470852,0.020780,0.397585,100117.44,-72,+123,+53
74329,9.600,-1.387,1.630,-1.230338,-0.007421,0.404503,100117.44,-72,+120,+55
74339,9.798,-1.068,1.241,-0.672687,-0.061697,0.427383,100116.50,-73,+117,+55
74349,9.749,-2.108,1.165,-0.124614,-0.167586,0.502943,100116.50,-73,+117,+55
74359,9.430,-3.664,2.018,0.114835,-0.219201,0.583824,100120.80,-74,+116,+55
74369,9.228,-5.389,3.072,0.005221,-0.205898,0.618943,100117.20,-77,+115,+55
74379,9.432,-6.025,3.398,-0.334797,-0.197385,0.600319,100118.13,-78,+112,+54
74389,9.191,-5.118,3.342,-0.680669,-0.197385,0.591273,100118.13,-78,+112,+54
74398,8.966,-3.955,2.987,-0.817421,-0.224522,0.625860,100118.13,-79,+109,+56
74408,9.425,-2.959,2.148,-0.780173,-0.272944,0.720576,100123.05,-80,+105,+55
74419,9.470,-3.328,1.899,-0.580100,-0.303274,0.845621,100120.74,-82,+102,+56
74429,9.786,-3.461,1.258,-0.486449,-0.338926,0.966942,100119.76,-82,+102,+56
74439,9.991,-4.080,1.183,-0.443348,-0.353825,1.019621,100120.38,-85,+97,+55
74448,10.694,-4.352,1.541,-0.410889,-0.371384,1.003658,100120.38,-87,+94,+55
74459,10.989,-4.606,1.661,-0.441751,-0.397990,1.022282,100123.50,-89,+90,+54
74469,11.313,-5.347,1.865,-0.492834,-0.433109,1.071236,100122.61,-89,+90,+54
74479,10.952,-4.990,1.769,-0.790815,-0.427256,1.048887,100118.78,-91,+87,+55
74489,11.578,-3.545,1.878,-0.826999,-0.461311,1.071768,100122.44,-93,+81,+54
74499,11.234,-3.917,1.551,-0.738669,-0.600192,1.414979,100123.27,-96,+76,+54
74509,10.695,-2.751,1.722,-0.589678,-0.652871,1.286741,100122.48,-96,+76,+54
74519,12.066,-3.452,2.254,-0.539660,-0.770467,1.478300,100122.48,-99,+71,+52
74528,12.366,-3.612,2.975,-0.591806,-0.876357,1.642722,100121.66,-102,+66,+51
74539,13.070,-3.652,3.345,-0.699292,-0.962026,1.836942,100119.72,-106,+58,+49
74549,13.643,-4.051,3.301,-0.895109,-1.028008,1.982208,100119.72,-106,+58,+49
74559,14.290,-4.302,2.984,-1.149989,-1.086008,2.109914,100124.51,-109,+51,+47
74569,15.227,-4.228,2.983,-1.408063,-1.126980,2.257309,100123.30,-113,+41,+45
74579,16.563,-4.241,3.354,-1.665072,-1.186577,2.396189,100119.05,-116,+30,+43
74589,19.102,-4.185,4.679,-1.963585,-1.272246,2.472813,100121.37,-116,+30,+43
74599,23.116,-1.366,7.929,-2.185475,-1.405806,2.417474,100118.15,-120,+18,+41
74609,23.822,2.970,10.866,-2.257842,-1.443586,2.478666,100116.48,-124,+7,+37
74619,20.069,3.926,12.003,-2.015200,-1.498925,2.710134,100118.15,-126,-5,+33
74629,17.608,3.227,12.635,-1.682631,-1.542026,2.676079,100119.15,-126,-5,+33
74639,15.901,1.719,10.658,-1.486815,-1.559053,2.476538,100119.15,-129,-17,+29
74649,11.897,-3.667,8.267,-1.382521,-1.465402,2.257309,100119.15,-131,-27,+25
74659,9.595,-7.019,3.355,-1.342081,-1.337164,2.114171,100123.63,-133,-36,+21
74669,10.602,-8.546,1.722,-1.363365,-1.425494,2.335529,100122.18,-133,-36,+21
74675,9.698,-10.187,1.820,-0.482192,-1.439329,2.489841,100119.04,-133,-45,+16
74684,8.199,-9.755,6.501,0.233496,-1.142411,2.402575,100119.09,-134,-51,+15
74694,6.450,-6.045,6.477,0.326083,-0.838577,1.917291,100119.09,-134,-51,+15
74704,4.061,-2.726,5.566,-0.810503,-0.643825,1.072832,100117.88,-134,-55,+13
74714,2.668,-0.758,3.376,-1.799695,-0.484192,0.396521,100117.36,-134,-60,+10
74724,2.922,1.112,-0.157,-2.286576,-0.532614,-0.058433,100114.22,-134,-64,+6
74734,2.844,2.303,-1.201,-2.143438,-0.468761,-0.355882,100114.27,-134,-64,+6
74743,2.864,3.081,-1.038,-1.301109,-0.335201,-0.621937,100114.27,-136,-65,+5
74754,2.861,3.189,-0.086,-0.213476,-0.193128,-0.913533,100119.62,-137,-62,+4
74764,2.666,2.134,1.058,0.719844,-0.052651,-1.150854,100120.99,-138,-57,+5
74774,2.192,0.832,2.140,1.289202,0.108046,-1.353588,100116.38,-138,-57,+5
74784,1.994,-0.060,2.635,1.489275,0.302799,-1.592505,100117.37,-139,-49,+6
74793,2.331,-0.429,2.550,1.549403,0.511386,-1.850579,100117.37,-140,-41,+9
74804,3.217,-0.457,2.530,1.627091,0.682725,-2.103331,100119.41,-140,-31,+12
74814,4.001,-0.705,2.376,1.820779,0.812028,-2.324156,100117.48,-140,-31,+12
74824,4.446,-1.317,2.421,2.098009,0.951972,-2.556688,100115.74,-139,-19,+15
74833,5.101,-1.580,2.434,2.378430,1.103624,-2.810505,100115.59,-137,-6,+19
74844,5.917,-1.348,2.363,2.616283,1.241972,-3.097312,100115.59,-135,+9,+23
74854,6.578,-1.453,2.148,2.747182,1.357440,-3.339422,100116.60,-135,+9,+23
74864,7.207,-2.242,1.711,2.832320,1.461734,-3.509697,100116.49,-131,+26,+26
74874,7.890,-3.290,1.502,2.892981,1.538890,-3.661880,100114.87,-127,+43,+30
74884,8.527,-3.803,1.563,2.902559,1.581458,-3.806082,100113.88,-120,+62,+31
74894,9.694,-3.812,1.655,2.770063,1.578798,-3.960394,100113.88,-120,+62,+31
74904,10.157,-4.612,2.420,2.638100,1.530908,-4.102999,100115.84,-113,+80,+33
74914,10.372,-5.914,3.561,2.544981,1.580926,-4.262100,100116.52,-106,+98,+35
74924,10.991,-6.822,5.034,2.239018,1.660211,-4.516981,100113.64,-96,+116,+35
74934,11.478,-7.381,5.372,2.003293,1.804412,-4.739934,100112.75,-96,+116,+35
74944,12.473,-7.578,5.725,1.833550,2.025770,-4.912870,100112.75,-84,+133,+36
74954,13.900,-7.986,6.045,1.845788,2.240742,-5.003329,100116.18,-70,+150,+38
74963,15.243,-9.257,6.536,1.990522,2.504669,-4.961824,100117.23,-54,+166,+39
74974,16.257,-11.647,6.637,2.185275,2.765403,-4.800063,100116.96,-54,+166,+39
74984,17.632,-15.250,4.236,2.236357,2.864375,-4.563807,100117.07,-37,+181,+40
74994,18.973,-19.284,0.824,1.961788,2.715384,-4.367458,100117.07,-19,+194,+39
75004,19.622,-19.419,-2.501,1.562706,2.330669,-4.200376,100120.89,-3,+205,+38
75014,18.320,-19.061,-3.866,1.216835,2.055036,-3.809807,100115.34,+10,+213,+38
75024,14.388,-20.379,-3.228,0.781569,1.713422,-3.221293,100119.13,+10,+213,+38
75034,10.819,-25.035,-0.518,0.671422,1.473972,-2.461973,100117.08,+21,+218,+38
75044,8.650,-26.633,-0.584,0.319698,1.081807,-1.579735,100117.08,+29,+221,+38
75054,7.768,-24.579,-2.597,-0.082045,0.645477,-0.524561,100122.05,+31,+221,+39
75064,10.472,-20.693,-3.989,-0.090027,0.313441,0.658319,100120.73,+31,+221,+39
75074,12.009,-17.573,-6.027,0.017459,-0.268687,1.704447,100121.73,+27,+220,+39
75084,13.376,-12.419,-5.276,0.654927,-0.887531,2.553162,100118.64,+17,+217,+37
75094,15.906,5.916,2.375,1.574945,-1.405274,2.862849,100118.64,+7,+218,+31
75104,20.713,32.468,2.511,2.034688,-1.310026,1.765107,100118.45,+7,+218,+31
75114,18.238,19.394,-9.010,-0.484320,-0.876889,1.008447,100121.33,+1,+219,+28
75124,17.115,-9.912,-1.362,0.720909,-0.752907,2.400978,100120.80,-5,+216,+26
75134,13.094,-22.914,3.770,3.461806,-0.713531,3.157106,100118.97,-14,+218,+16
75144,13.702,-18.502,2.123,2.221458,-0.440559,3.214574,100118.97,-14,+218,+16
75154,14.757,-3.697,-1.815,1.361037,-0.687458,3.234794,100125.03,-24,+215,+13
75164,5.917,3.888,5.091,2.190063,-0.445880,3.108152,100125.34,-33,+213,+6
75174,-2.685,-4.851,10.035,2.877017,-0.407568,2.523364,100119.28,-40,+214,-1
75184,3.480,-14.989,3.271,2.111843,-0.623072,1.832153,100121.00,-40,+214,-1
75194,11.320,-17.018,0.135,-0.410357,-0.606577,1.858226,100121.00,-46,+212,-3
75204,14.744,-10.876,2.364,-2.486117,-0.397458,1.700190,100121.41,-52,+205,+1
75214,13.107,-4.270,2.433,-3.366226,-0.347972,1.468722,100121.25,-56,+195,+8
75224,9.284,-0.067,2.023,-2.895842,-0.202706,1.466594,100123.88,-56,+195,+8
75234,7.208,2.031,1.289,-1.962521,-0.097880,1.433071,100119.47,-59,+187,+13
75244,7.726,2.959,0.699,-0.724834,-0.112247,1.338887,100119.47,-63,+183,+15
75254,8.562,-0.402,0.757,0.499019,-0.190999,1.407529,100121.43,-66,+180,+13
75265,9.861,-4.954,1.400,1.094982,-0.259464,1.394404,100121.18,-66,+180,+13
75274,9.461,-7.585,3.141,0.905551,-0.229311,1.219695,100118.91,-71,+179,+11
75284,8.310,-9.370,5.574,0.147294,-0.142045,0.947254,100119.18,-73,+177,+10
