119798,7.917,-4.302,3.712,0.017437,0.006173,0.004818,99780.95,-186,+48,-125
119809,7.911,-4.344,3.644,0.018501,0.005109,0.009607,99778.96,-185,+48,-126
119818,7.902,-4.418,3.632,0.017969,0.006173,0.010140,99778.96,-185,+47,-126
119828,7.905,-4.428,3.641,0.016373,0.007237,0.010140,99781.65,-185,+47,-126
119838,7.913,-4.398,3.631,0.016373,0.006173,0.007479,99780.71,-185,+47,-126
119848,7.895,-4.384,3.602,0.016373,0.006705,0.006415,99780.35,-186,+48,-125
119858,7.905,-4.398,3.644,0.018501,0.008834,0.007479,99780.35,-185,+47,-126
119868,7.883,-4.381,3.637,0.019033,0.007237,0.007479,99780.35,-185,+48,-126
119878,7.896,-4.320,3.648,0.021162,0.006173,0.006415,99782.21,-185,+48,-126
119888,7.916,-4.381,3.656,0.022226,0.006173,0.010140,99781.38,-186,+47,-124
119898,7.906,-4.434,3.670,0.017437,0.006173,0.008543,99778.88,-185,+47,-126
119904,7.907,-4.397,3.653,0.014244,0.005641,0.008011,99781.80,-185,+47,-126
119913,7.904,-4.402,3.645,0.014776,0.006173,0.006415,99781.80,-187,+47,-125
119923,7.893,-4.397,3.625,0.013712,0.006173,0.005883,99780.52,-185,+46,-125
119933,7.889,-4.382,3.670,0.013712,0.005109,0.004286,99782.35,-186,+46,-125
119943,7.916,-4.402,3.605,0.015308,0.005109,0.007479,99782.35,-186,+47,-125
119953,7.916,-4.354,3.656,0.013712,0.006173,0.009607,99777.82,-185,+46,-125
119963,7.918,-4.290,3.649,0.017437,0.002980,0.014396,99777.82,-186,+47,-125
119973,7.876,-4.369,3.655,0.023822,0.000852,0.018121,99780.27,-185,+46,-125
119984,7.904,-4.394,3.664,0.022758,0.001384,0.022378,99780.22,-185,+46,-125
119993,7.891,-4.375,3.673,0.021162,0.001916,0.021846,99781.20,-186,+47,-125
120003,7.922,-4.346,3.660,0.019033,0.004577,0.024507,99779.91,-185,+46,-125
120013,7.928,-4.355,3.660,0.021694,0.002448,0.027699,99779.91,-187,+46,-125
120024,7.946,-4.315,3.641,0.027015,-0.002341,0.031424,99782.38,-187,+46,-125
120033,7.911,-4.288,3.698,0.039785,-0.011387,0.037809,99780.59,-185,+46,-125
120043,7.924,-4.299,3.647,0.054684,-0.017772,0.044195,99779.30,-186,+46,-125
120053,7.880,-4.393,3.656,0.057345,-0.014579,0.048984,99778.27,-185,+45,-125
120064,7.827,-4.386,3.680,0.049895,-0.012451,0.050048,99778.27,-185,+45,-125
120073,7.861,-4.362,3.710,0.043510,-0.006065,0.052176,99781.55,-187,+45,-125
120083,7.871,-4.410,3.716,0.039253,-0.002873,0.052708,99781.40,-186,+44,-125
120093,7.864,-4.382,3.672,0.034996,-0.002873,0.053240,99780.62,-186,+44,-125
120103,7.862,-4.381,3.637,0.035529,-0.001809,0.053773,99778.23,-186,+44,-125
120113,7.829,-4.502,3.722,0.050428,-0.005001,0.056965,99778.23,-186,+45,-125
120123,7.930,-4.375,3.911,0.125987,-0.040120,0.071332,99784.88,-185,+44,-125
120133,7.924,-4.153,3.570,0.175473,-0.070451,0.084635,99781.17,-186,+44,-125
120143,7.888,-4.301,3.559,0.178666,-0.067790,0.089424,99778.73,-186,+44,-125
120154,7.896,-4.422,3.657,0.159510,-0.059808,0.089424,99781.17,-185,+43,-125
120163,7.838,-4.461,3.738,0.122795,-0.044909,0.083039,99781.17,-185,+42,-125
120173,7.871,-4.435,3.746,0.083951,-0.027882,0.077718,99780.75,-185,+41,-126
120183,7.849,-4.443,3.738,0.056281,-0.014047,0.072929,99782.42,-185,+41,-126
120194,7.802,-4.361,3.850,0.065327,-0.021497,0.070268,99780.55,-185,+41,-126
120203,7.822,-4.215,3.584,0.123327,-0.055552,0.074525,99779.45,-186,+40,-126
120213,7.953,-4.229,3.530,0.164299,-0.069386,0.087295,99779.45,-185,+40,-126
120223,7.946,-4.270,3.534,0.195694,-0.081093,0.103791,99783.70,-185,+40,-126
120233,7.962,-4.423,3.670,0.200483,-0.077900,0.115497,99782.54,-185,+40,-126
120243,7.871,-4.518,3.906,0.169620,-0.076836,0.116562,99780.52,-185,+38,-126
120253,7.801,-4.609,3.831,0.114813,-0.066726,0.110176,99777.18,-185,+38,-126
120259,7.831,-4.710,3.820,0.058941,-0.042249,0.102727,99777.18,-185,+38,-126
120268,7.773,-4.664,3.864,0.001473,-0.017240,0.091020,99777.18,-185,+38,-126
120279,7.765,-4.410,4.074,-0.040563,-0.003405,0.081442,99782.25,-184,+37,-126
120289,7.644,-4.217,3.649,-0.007572,-0.032139,0.084103,99782.14,-184,+37,-126
120298,7.659,-4.215,3.524,0.028611,-0.043313,0.100066,99781.31,-184,+38,-126
120308,7.819,-4.221,3.340,0.089804,-0.056616,0.119754,99781.60,-185,+36,-127
120318,8.051,-4.258,3.383,0.136097,-0.055552,0.144231,99782.85,-185,+36,-127
120329,8.105,-4.415,3.243,0.172813,-0.052359,0.167112,99782.54,-185,+36,-127
120338,7.989,-4.713,3.359,0.186648,-0.049698,0.177222,99782.54,-184,+35,-127
120348,7.861,-4.763,3.530,0.193565,-0.048102,0.177754,99780.55,-184,+35,-127
120358,7.736,-4.586,3.638,0.181859,-0.033203,0.174029,99778.90,-184,+33,-127
120369,7.591,-4.655,3.668,0.162703,-0.009790,0.161791,99778.90,-184,+33,-127
120378,7.644,-4.562,3.563,0.142483,0.009366,0.153277,99783.38,-184,+32,-127
120388,7.668,-4.526,3.589,0.166960,0.017880,0.151681,99781.45,-184,+31,-127
120398,7.677,-4.586,3.742,0.215382,0.016283,0.150084,99784.16,-185,+31,-127
120409,7.779,-4.609,3.911,0.249969,0.009366,0.142635,99780.56,-185,+31,-127
120419,7.735,-4.738,4.124,0.276574,-0.012451,0.126672,99780.56,-185,+29,-127
120428,7.603,-4.896,3.958,0.266464,-0.033203,0.099002,99780.14,-184,+29,-127
120438,7.697,-4.958,4.159,0.219638,-0.028946,0.069204,99778.55,-184,+28,-126
120449,7.682,-4.734,4.292,0.154721,-0.039588,0.041002,99778.86,-184,+28,-126
120458,7.730,-4.428,4.355,0.087675,-0.050231,0.025571,99778.86,-184,+27,-128
120468,7.640,-4.525,4.208,0.037125,-0.042781,0.017057,99778.86,-184,+27,-127
120478,7.627,-4.697,4.122,-0.020875,-0.016175,0.004286,99781.42,-184,+27,-128
120488,7.679,-4.642,3.973,-0.081536,0.006705,-0.011677,99778.77,-184,+27,-128
120499,7.734,-4.600,3.862,-0.136343,0.020540,-0.022319,99781.00,-184,+29,-127
120508,7.826,-4.403,3.789,-0.166673,0.029586,-0.022319,99779.86,-184,+28,-127
120518,7.883,-4.417,3.748,-0.165609,0.031182,-0.013273,99779.86,-184,+29,-127
120528,7.952,-4.436,3.862,-0.129958,0.010430,-0.000503,99782.87,-184,+29,-127
120539,7.935,-4.406,3.873,-0.086857,-0.017240,0.018121,99781.48,-184,+29,-127
120549,7.802,-4.467,3.976,-0.059187,-0.030010,0.032488,99776.98,-184,+29,-128
120558,7.694,-4.564,4.058,-0.069297,-0.030010,0.036213,99776.98,-184,+29,-128
120568,7.580,-4.732,4.080,-0.107609,-0.025221,0.026103,99781.68,-184,+29,-128
120579,7.531,-4.737,4.030,-0.144325,-0.022561,0.011736,99781.68,-184,+29,-128
120589,7.644,-4.659,3.860,-0.165609,-0.027882,0.001094,99780.65,-184,+29,-128
120598,7.823,-4.498,3.714,-0.167737,-0.035331,0.000562,99779.65,-184,+30,-128
120608,7.864,-4.327,3.617,-0.149646,-0.041717,0.015993,99778.04,-184,+30,-128
120619,7.808,-4.326,3.533,-0.123040,-0.052359,0.036213,99778.04,-184,+30,-127
120629,7.908,-4.410,3.617,-0.092710,-0.062469,0.059094,99781.61,-184,+30,-128
120639,7.845,-4.597,3.706,-0.066104,-0.073111,0.076653,99781.66,-184,+30,-128
120648,7.802,-4.685,3.818,-0.067169,-0.074175,0.087295,99780.09,-184,+30,-128
120658,7.801,-4.540,4.016,-0.093774,-0.072047,0.092617,99781.23,-184,+30,-128
120669,7.664,-4.543,3.973,-0.136343,-0.070451,0.095809,99782.17,-184,+30,-129
120679,7.682,-4.673,3.807,-0.185297,-0.060873,0.099002,99780.19,-183,+30,-129
120688,7.796,-4.597,3.668,-0.224141,-0.056616,0.103791,99778.63,-183,+31,-129
120698,7.919,-4.475,3.678,-0.229462,-0.067258,0.115497,99778.63,-183,+31,-129
120709,7.873,-4.290,3.602,-0.200196,-0.091735,0.139442,99777.64,-183,+30,-129
120718,7.792,-4.417,3.364,-0.174123,-0.101845,0.169773,99777.64,-182,+31,-129
120728,7.835,-4.745,3.380,-0.182636,-0.095460,0.194782,99780.05,-182,+29,-129
120738,7.894,-4.702,3.651,-0.200728,-0.089075,0.215534,99780.52,-182,+29,-129
120749,7.925,-4.393,3.722,-0.209774,-0.086946,0.242672,99780.32,-182,+30,-130
120759,7.752,-4.370,4.063,-0.232655,-0.080561,0.269277,99778.45,-182,+29,-129
120769,7.789,-4.345,3.759,-0.265114,-0.069919,0.285772,99778.45,-182,+29,-131
120778,7.768,-4.752,4.269,-0.313535,-0.031075,0.289497,99779.49,-182,+29,-131
120788,7.570,-5.423,3.844,-0.377389,-0.030542,0.267149,99781.35,-182,+30,-131
120799,7.503,-5.290,3.623,-0.439645,-0.026818,0.257571,99777.71,-181,+29,-131
120808,7.597,-5.199,3.741,-0.504031,-0.015111,0.249057,99777.71,-182,+29,-131
120818,7.681,-4.983,3.502,-0.595022,0.011494,0.250653,99777.71,-182,+29,-131
120828,7.683,-4.652,3.330,-0.691333,0.055127,0.274598,99785.63,-181,+30,-131
120839,7.937,-4.253,3.439,-0.752526,0.068430,0.328873,99782.41,-182,+31,-131
120849,8.278,-4.053,3.292,-0.735676,0.054950,0.417381,99779.84,-181,+31,-131
120858,8.343,-4.358,3.359,-0.722728,0.040760,0.498084,99779.84,-181,+31,-131
120868,8.371,-4.594,3.509,-0.757847,0.029054,0.590671,99779.84,-182,+31,-130
120879,8.367,-4.562,3.585,-0.816911,0.016815,0.674745,99781.23,-181,+31,-131
120889,8.236,-4.446,3.825,-0.848838,-0.012451,0.758286,99781.86,-181,+31,-131
120899,8.132,-4.525,3.834,-0.835535,-0.075772,0.855130,99779.36,-181,+31,-131
120908,8.134,-4.890,3.663,-0.809462,-0.138029,0.949845,99779.36,-180,+31,-131
120919,8.100,-5.450,3.571,-0.832342,-0.163038,1.030194,99782.36,-180,+29,-132
120929,8.258,-6.194,3.477,-0.915352,-0.146010,1.081809,99782.36,-179,+27,-132
120938,9.089,-6.530,3.623,-1.031352,-0.136964,1.129699,99783.92,-179,+27,-132
120948,10.403,-6.372,4.103,-1.138306,-0.177405,1.189295,99781.89,-178,+27,-132
120958,11.659,-6.159,4.246,-1.177150,-0.215185,1.271240,99778.72,-178,+25,-134
120969,12.823,-6.299,3.995,-1.235150,-0.223698,1.356909,99778.72,-177,+24,-134
120979,13.564,-6.341,4.286,-1.264948,-0.263074,1.454818,99780.89,-177,+24,-134
120988,13.748,-6.829,3.979,-1.253773,-0.285423,1.543148,99779.44,-176,+23,-136
120998,13.327,-7.157,3.448,-1.303260,-0.284359,1.622432,99781.52,-174,+21,-137
121009,13.037,-7.327,3.327,-1.419792,-0.240194,1.660212,99779.87,-173,+20,-137
121019,12.839,-6.468,4.160,-1.495351,-0.218377,1.703845,99779.87,-173,+20,-137
121029,12.552,-4.977,4.743,-1.421920,-0.257221,1.792175,99778.66,-172,+19,-139
121038,11.750,-3.954,4.853,-1.268673,-0.314157,1.855496,99777.37,-170,+18,-140
121049,10.946,-2.557,5.388,-1.097333,-0.372689,1.971496,99777.37,-169,+14,-141
121059,10.093,-2.459,5.486,-0.867994,-0.429625,2.009276,99777.95,-169,+14,-141
121068,8.901,-4.229,5.151,-0.605664,-0.505184,1.974157,99777.95,-167,+11,-142
121078,7.367,-6.085,4.225,-0.463590,-0.553074,1.907111,99780.64,-164,+6,-143
121089,5.869,-7.525,3.493,-0.430068,-0.514762,1.850175,99780.64,-162,+2,-145
121099,5.847,-7.095,3.551,-0.447627,-0.476450,1.799625,99778.72,-162,+2,-145
121109,6.654,-4.437,2.594,-0.497645,-0.505184,1.575074,99775.55,-159,+0,-145
121118,6.053,-3.245,1.871,-0.655682,-0.447717,1.178120,99775.55,-157,-3,-148
121128,5.781,-2.269,1.516,-0.883957,-0.345551,0.759350,99780.36,-156,-2,-148
121139,6.180,-1.647,1.774,-1.059021,-0.255093,0.400176,99778.48,-156,-2,-148
121149,7.291,0.143,2.241,-0.984526,-0.262542,0.047919,99778.33,-154,+0,-149
121159,6.570,0.454,1.944,-0.720599,-0.320010,-0.230374,99778.33,-153,+2,-151
121168,6.059,0.405,2.084,-0.425279,-0.337038,-0.438961,99778.33,-153,+5,-152
121179,5.796,-0.074,2.180,-0.093242,-0.355662,-0.654465,99778.77,-151,+5,-152
121189,5.693,-0.497,2.317,0.193565,-0.343423,-0.875291,99777.84,-151,+6,-152
121198,5.548,-0.657,2.184,0.440464,-0.330120,-1.091860,99775.43,-150,+8,-154
121204,5.415,-0.849,1.931,0.630427,-0.325331,-1.243511,99777.05,-150,+8,-154
121213,5.336,-1.291,1.729,0.823051,-0.313093,-1.386116,99777.05,-150,+11,-154
121224,5.436,-1.789,1.625,1.050262,-0.297129,-1.577676,99778.99,-149,+12,-154
121234,5.911,-2.073,1.543,1.236500,-0.302983,-1.761254,99777.23,-149,+12,-155
121243,6.188,-2.614,1.220,1.393473,-0.320010,-1.928336,99775.41,-149,+12,-155
121253,6.489,-3.546,0.963,1.487656,-0.320542,-2.089566,99775.66,-149,+14,-156
121264,6.800,-4.753,1.021,1.477014,-0.293405,-2.241217,99775.66,-149,+16,-156
121274,7.166,-5.524,1.362,1.392941,-0.237001,-2.412556,99779.49,-149,+19,-156
121284,7.522,-6.003,1.652,1.263638,-0.176873,-2.581767,99779.54,-149,+19,-156
121293,7.807,-6.225,2.063,1.143913,-0.121001,-2.700960,99775.95,-149,+22,-156
121304,8.185,-6.403,2.409,1.099748,-0.064065,-2.782372,99777.35,-148,+27,-156
121314,8.351,-6.802,2.471,1.119436,-0.026286,-2.840373,99777.35,-149,+30,-156
121324,8.531,-7.077,2.340,1.156152,0.000852,-2.878684,99778.96,-149,+30,-156
121333,8.713,-7.103,2.346,1.195528,0.016283,-2.906886,99780.21,-150,+35,-156
121344,8.876,-7.096,2.469,1.254060,0.016815,-2.914868,99776.05,-150,+38,-156
121354,9.000,-7.095,2.550,1.348243,0.004577,-2.903693,99777.55,-150,+42,-155
121364,9.071,-7.045,2.488,1.468500,-0.024157,-2.890923,99777.55,-150,+42,-155
121374,9.067,-7.075,2.714,1.583436,-0.054487,-2.861125,99780.54,-150,+44,-156
121383,9.167,-6.951,2.742,1.691454,-0.088010,-2.835583,99781.48,-150,+48,-155
121394,9.362,-7.052,2.997,1.754775,-0.112487,-2.806317,99779.18,-149,+50,-156
121404,9.461,-7.051,3.109,1.782445,-0.132175,-2.778116,99780.43,-149,+50,-156
121413,9.469,-7.148,3.096,1.783509,-0.143350,-2.753106,99780.43,-148,+51,-154
121423,9.061,-7.592,3.067,1.805858,-0.186451,-2.708941,99779.19,-148,+55,-155
121434,8.695,-8.326,3.073,1.853747,-0.233276,-2.593473,99781.42,-146,+55,-155
121444,9.112,-8.090,3.243,1.881949,-0.269992,-2.492373,99778.67,-146,+57,-156
121454,9.478,-7.583,3.313,1.840445,-0.269992,-2.434905,99779.03,-146,+57,-156
121463,9.519,-7.087,3.257,1.776060,-0.255625,-2.363602,99779.03,-145,+58,-156
121474,9.217,-7.005,3.402,1.734555,-0.232744,-2.294960,99780.13,-145,+59,-157
121484,8.836,-7.342,4.003,1.723381,-0.198157,-2.191199,99779.66,-143,+59,-157
121494,8.906,-6.902,3.806,1.659527,-0.163570,-2.058703,99779.87,-143,+59,-157
121503,9.092,-6.116,3.032,1.557894,-0.165698,-1.967712,99777.90,-143,+61,-157
121513,9.373,-6.063,2.337,1.437638,-0.197093,-1.884171,99777.90,-142,+62,-157
121524,9.231,-5.879,2.276,1.368463,-0.270524,-1.767107,99782.54,-141,+62,-157
121534,8.244,-6.563,2.330,1.370592,-0.320542,-1.598428,99783.16,-141,+62,-157
121544,6.446,-8.069,3.305,1.284390,-0.272652,-1.338227,99779.77,-140,+62,-158
121553,6.616,-7.860,3.427,1.123161,-0.209331,-1.158373,99782.38,-140,+62,-158
121564,7.493,-6.156,3.211,0.842207,-0.111955,-1.091860,99782.38,-140,+63,-158
121574,8.096,-5.168,2.921,0.566042,-0.000212,-0.987566,99783.29,-140,+63,-158
121584,8.078,-5.524,2.879,0.330317,0.112063,-0.823676,99783.82,-139,+65,-157
121593,7.586,-6.303,2.636,0.042978,0.198265,-0.610833,99779.96,-139,+66,-157
121604,6.954,-6.109,2.455,-0.241169,0.257861,-0.361273,99778.55,-140,+68,-155
121614,7.097,-5.511,2.663,-0.332691,0.278081,-0.081915,99778.55,-140,+68,-155
121624,7.075,-5.303,2.858,-0.251811,0.215824,0.215534,99781.57,-141,+69,-154
121633,6.780,-5.599,2.967,-0.126233,0.145586,0.525222,99782.66,-141,+68,-155
121644,6.839,-5.722,2.904,-0.038967,0.108338,0.784359,99781.10,-142,+65,-154
121654,7.457,-5.219,2.569,-0.030985,0.106210,0.930157,99778.98,-142,+65,-154
121664,8.630,-3.590,2.686,-0.114526,0.129090,0.974322,99778.98,-142,+64,-154
121674,9.466,-2.189,3.093,-0.158159,0.196668,0.931222,99782.11,-143,+61,-153
121683,8.743,-2.310,2.867,-0.225205,0.216356,0.942928,99782.11,-145,+60,-152
121694,8.502,-1.883,3.161,-0.193811,0.226467,0.943460,99781.59,-145,+60,-152
121704,9.906,-0.558,2.973,-0.116123,0.241898,0.856194,99779.14,-145,+57,-151
121714,12.557,1.567,2.768,0.022758,0.151971,0.737001,99779.14,-146,+55,-151
121723,15.439,3.390,1.146,0.169088,-0.067790,0.547038,99780.57,-146,+54,-151
121734,15.228,1.553,0.454,0.128648,-0.130579,0.584818,99784.37,-146,+54,-151
121744,13.810,-2.363,2.781,0.237730,0.107806,0.992946,99780.93,-145,+51,-151
121754,11.060,-6.404,3.413,0.649051,0.020540,1.295717,99780.77,-147,+46,-151
121763,9.636,-8.194,2.584,0.891161,-0.037992,1.536762,99780.77,-146,+41,-150
121774,9.319,-5.832,2.424,0.869877,0.000320,1.550597,99786.20,-146,+41,-150
121784,9.316,-3.269,1.663,0.801767,0.084393,1.452157,99782.71,-147,+35,-150
121794,8.645,-2.964,1.763,0.640537,0.135476,1.352653,99781.40,-147,+30,-148
121804,7.403,-4.443,2.818,0.441528,0.099292,1.235056,99781.35,-148,+25,-148
121814,7.564,-4.223,3.029,0.185583,0.116320,1.065313,99781.35,-148,+25,-148
121824,8.116,-2.489,2.775,-0.052802,0.204650,0.928561,99784.83,-147,+23,-148
121834,8.153,-1.008,3.070,-0.177847,0.328100,0.868433,99781.23,-148,+20,-147
121844,8.138,-0.786,3.049,-0.248086,0.418026,0.818414,99781.75,-149,+20,-146
121853,8.239,-1.630,2.572,-0.317792,0.439310,0.790212,99782.13,-149,+20,-146
121864,8.554,-2.363,2.410,-0.290655,0.397806,0.784359,99782.13,-150,+18,-144
121874,9.349,-2.326,2.807,-0.108673,0.321714,0.792873,99781.95,-151,+16,-144
121884,9.780,-1.985,2.763,0.186116,0.227531,0.837038,99782.10,-151,+14,-143
121893,9.710,-2.232,2.157,0.501125,0.154632,0.908873,99782.57,-151,+14,-143
121904,9.133,-2.942,1.671,0.690024,0.133347,0.950910,99780.70,-151,+9,-142
121914,8.745,-3.717,1.742,0.701730,0.175916,0.959955,99780.70,-151,+5,-142
121924,8.715,-3.773,2.625,0.614464,0.240301,0.942928,99781.89,-152,+1,-140
121934,8.590,-3.209,3.515,0.517088,0.269567,0.904084,99784.17,-151,-1,-139
121944,8.298,-2.718,4.166,0.435143,0.273292,0.873754,99780.38,-151,-1,-139
121954,8.196,-2.675,4.579,0.368097,0.262118,0.855662,99783.03,-151,-5,-138
121964,8.456,-2.787,4.452,0.287216,0.236577,0.843956,99783.03,-152,-7,-138
121974,8.703,-2.972,4.093,0.186116,0.233916,0.842359,99784.10,-152,-10,-136
121984,8.715,-3.688,4.061,0.089272,0.247751,0.847148,99782.95,-152,-10,-136
121994,8.501,-4.260,3.781,-0.008637,0.244558,0.821075,99782.59,-151,-13,-136
122004,8.374,-4.458,3.465,-0.109205,0.262650,0.775313,99781.85,-152,-15,-134
122014,8.393,-4.266,3.381,-0.162948,0.281806,0.728488,99781.85,-152,-17,-135
122023,8.611,-3.759,3.370,-0.152838,0.280210,0.694965,99783.80,-152,-17,-135
122034,8.567,-3.474,3.517,-0.088985,0.254668,0.682726,99784.12,-152,-17,-134
122044,8.306,-3.483,3.703,0.004666,0.224338,0.677937,99779.99,-153,-19,-133
122054,8.333,-3.364,3.855,0.057877,0.228063,0.664102,99780.84,-152,-21,-133
122064,7.949,-4.199,4.285,0.014244,0.241366,0.615148,99780.84,-152,-21,-133
122074,7.776,-4.824,3.870,-0.109205,0.253072,0.539057,99781.69,-151,-22,-132
122084,8.117,-4.593,3.436,-0.255536,0.318522,0.462965,99781.27,-152,-23,-131
122094,8.122,-4.521,3.489,-0.385902,0.392485,0.394855,99781.95,-153,-24,-131
122104,7.790,-4.527,3.746,-0.501370,0.442503,0.329405,99780.23,-153,-24,-131
122114,7.707,-4.101,3.655,-0.571077,0.446760,0.276194,99780.23,-155,-24,-129
122124,7.999,-3.514,3.430,-0.558838,0.439843,0.259699,99783.00,-155,-22,-129
122134,8.228,-3.431,3.493,-0.459334,0.400999,0.278855,99781.70,-155,-23,-128
122144,8.391,-3.437,3.873,-0.335884,0.329696,0.326745,99782.22,-155,-23,-128
122153,8.421,-3.419,4.008,-0.204985,0.265843,0.371974,99781.75,-156,-22,-128
122164,8.198,-3.651,4.437,-0.155499,0.216889,0.411882,99781.75,-155,-23,-128
122174,7.859,-3.762,4.534,-0.164545,0.174852,0.440084,99784.95,-156,-24,-128
122184,7.804,-3.865,4.356,-0.195407,0.175384,0.451259,99781.73,-156,-24,-128
122194,7.913,-4.097,4.411,-0.248086,0.199861,0.438488,99780.73,-155,-25,-128
122204,7.946,-4.278,4.086,-0.280545,0.206246,0.427846,99780.84,-157,-25,-127
122214,7.942,-4.421,3.732,-0.298636,0.212632,0.431038,99780.84,-155,-25,-128
122224,7.944,-4.413,3.468,-0.287462,0.213164,0.435295,99781.70,-155,-25,-128
122234,8.023,-4.374,3.251,-0.268306,0.207843,0.448598,99781.17,-157,-26,-126
122244,8.125,-4.376,3.376,-0.245958,0.195072,0.466158,99779.00,-156,-27,-126
122254,8.062,-4.366,3.609,-0.215627,0.184430,0.493827,99781.23,-156,-28,-126
122264,7.958,-4.312,3.773,-0.203389,0.181237,0.521497,99781.23,-156,-28,-126
122274,7.761,-4.435,4.037,-0.218288,0.186026,0.541717,99783.97,-157,-29,-125
122284,7.619,-4.483,4.212,-0.275756,0.208375,0.553424,99782.61,-157,-29,-125
122294,7.582,-4.555,4.324,-0.350783,0.242430,0.549699,99784.39,-156,-31,-125
122304,7.906,-4.507,4.052,-0.406123,0.267439,0.541185,99780.73,-156,-31,-125
122314,8.029,-4.721,3.929,-0.422086,0.281274,0.546506,99780.73,-155,-30,-124
122324,7.809,-5.187,3.742,-0.417297,0.296173,0.549167,99782.07,-157,-31,-125
122334,7.748,-5.538,3.797,-0.471040,0.324375,0.545442,99782.43,-156,-31,-123
122344,7.779,-5.678,3.578,-0.571077,0.371200,0.531607,99782.27,-156,-31,-123
122354,7.895,-5.615,3.514,-0.658875,0.405255,0.518836,99780.55,-157,-31,-123
122364,8.023,-5.298,3.612,-0.732838,0.413237,0.530543,99780.55,-157,-32,-123
122374,7.960,-5.012,4.032,-0.791370,0.408980,0.557680,99782.25,-157,-32,-123
122384,8.004,-4.911,4.373,-0.820636,0.397806,0.590671,99783.50,-157,-32,-123
122394,8.173,-5.022,4.312,-0.836067,0.374925,0.644947,99783.66,-158,-32,-121
122404,8.232,-5.141,4.318,-0.860012,0.356833,0.695497,99780.75,-158,-31,-123
122414,8.211,-5.206,4.538,-0.911627,0.357366,0.734873,99780.75,-158,-32,-123
122424,8.493,-5.380,4.438,-0.959517,0.353109,0.766800,99783.23,-158,-31,-123
122434,8.806,-5.492,4.075,-0.985058,0.311604,0.797662,99782.70,-158,-31,-123
122444,8.608,-5.843,3.705,-0.986122,0.265311,0.830653,99782.07,-158,-31,-123
122455,8.537,-6.060,3.364,-0.987719,0.257329,0.860983,99780.77,-157,-32,-123
122464,8.639,-6.249,2.921,-0.997297,0.247751,0.885992,99780.77,-157,-32,-123
122474,8.719,-6.391,2.661,-1.012728,0.229127,0.914194,99780.09,-157,-32,-123
122484,8.587,-6.407,2.797,-1.020177,0.213164,0.941864,99779.78,-157,-31,-123
122494,8.506,-6.456,3.145,-1.040397,0.197733,0.976983,99780.52,-156,-33,-124
122505,8.448,-6.741,3.489,-1.115248,0.207488,0.995607,99779.05,-156,-33,-125
122514,8.446,-6.950,3.928,-1.238874,0.237641,1.003056,99779.05,-156,-33,-125
122524,8.477,-6.932,3.964,-1.386801,0.292448,1.004653,99781.78,-155,-33,-125
122534,8.813,-7.067,3.854,-1.545370,0.347788,1.004653,99778.97,-155,-31,-125
122544,9.736,-6.925,3.563,-1.688507,0.371200,1.009974,99778.19,-153,-31,-126
122554,11.497,-5.784,4.236,-1.826324,0.352577,1.086066,99779.08,-153,-31,-126
122564,13.031,-4.688,4.134,-1.824195,0.282338,1.180781,99779.08,-153,-29,-126
122574,13.279,-4.786,3.404,-1.752360,0.186558,1.292524,99783.71,-153,-27,-128
122585,13.832,-4.270,2.520,-1.675737,0.054595,1.430341,99780.48,-153,-29,-128
122594,14.308,-3.344,2.169,-1.636892,-0.059276,1.555386,99780.48,-153,-29,-128
122604,14.263,-2.655,2.448,-1.529938,-0.168891,1.696395,99782.41,-150,-29,-130
122614,13.341,-2.875,2.813,-1.238874,-0.348212,1.870927,99782.41,-148,-31,-132
122625,12.088,-4.117,3.211,-0.846177,-0.580212,2.077918,99781.87,-144,-34,-133
122634,10.374,-6.240,3.664,-0.442838,-0.804230,2.287037,99782.71,-144,-34,-133
122644,8.290,-8.534,5.387,-0.079407,-0.877129,2.466358,99778.49,-140,-39,-136
122654,7.948,-10.028,5.502,0.107363,-0.852120,2.591936,99776.10,-136,-46,-137
122664,7.879,-10.269,4.609,0.078629,-0.836157,2.620138,99776.10,-132,-52,-138
122675,7.428,-9.077,4.129,-0.075150,-0.753147,2.500945,99780.63,-132,-52,-138
122684,7.099,-7.429,3.794,-0.317260,-0.641404,2.289165,99779.09,-127,-57,-139
122694,6.483,-6.121,3.597,-0.540214,-0.567973,2.085900,99780.90,-123,-61,-141
122704,5.875,-5.030,3.559,-0.675902,-0.527533,1.875716,99779.96,-119,-62,-143
122715,5.470,-3.359,3.670,-0.779131,-0.489753,1.634671,99779.96,-119,-62,-143
122724,5.165,-1.642,3.508,-0.830214,-0.451441,1.296781,99782.42,-116,-64,-144
122734,4.765,-0.439,3.350,-0.895131,-0.372689,0.882267,99779.14,-114,-62,-146
122740,4.553,-0.003,3.497,-0.949939,-0.287019,0.602910,99779.50,-114,-62,-146
122749,4.645,-0.401,2.951,-0.941957,-0.225827,0.393791,99779.50,-114,-61,-147
122760,5.008,-0.029,2.958,-0.869590,-0.164102,0.178286,99776.64,-113,-59,-149
122769,5.277,0.871,3.152,-0.671113,-0.163570,-0.085640,99776.64,-114,-57,-151
122779,4.851,0.120,3.114,-0.470508,-0.153460,-0.361805,99778.67,-114,-57,-151
122789,4.600,-0.882,3.533,-0.297572,-0.124726,-0.611897,99776.05,-115,-55,-150
122800,4.606,-1.624,3.577,-0.115591,-0.106634,-0.874759,99775.08,-115,-52,-151
122809,4.639,-2.019,3.360,0.022758,-0.076304,-1.137621,99775.08,-118,-50,-151
122819,4.797,-2.181,3.060,0.098850,-0.043313,-1.387181,99775.08,-118,-50,-151
122829,5.132,-2.439,2.691,0.126519,-0.018836,-1.601621,99778.63,-119,-46,-150
122840,5.257,-3.164,2.265,0.139290,0.013091,-1.831492,99778.06,-121,-41,-151
122849,5.684,-4.068,2.099,0.104171,0.057788,-2.046997,99777.69,-124,-36,-150
122860,6.246,-4.176,2.050,0.054684,0.094681,-2.278642,99777.55,-124,-36,-150
122869,6.757,-4.186,2.114,0.038721,0.153568,-2.452464,99777.55,-128,-31,-150
122880,6.916,-4.408,2.294,0.086079,0.211035,-2.623804,99778.96,-131,-25,-149
122890,6.849,-4.842,2.543,0.164831,0.258393,-2.768006,99779.95,-133,-18,-149
122899,6.833,-5.019,2.876,0.305840,0.311072,-2.899969,99777.32,-133,-18,-149
122909,7.123,-5.096,3.301,0.452703,0.369604,-3.030868,99777.32,-136,-12,-148
122919,7.554,-5.043,3.316,0.589987,0.423879,-3.156446,99775.41,-140,-5,-147
122930,7.815,-5.330,3.054,0.692152,0.501035,-3.252758,99777.65,-143,+0,-145
122939,8.078,-5.778,2.500,0.775693,0.601072,-3.342152,99777.65,-143,+0,-145
122949,8.222,-6.355,2.226,0.778354,0.700576,-3.420904,99777.18,-146,+7,-144
122959,8.679,-6.462,2.118,0.735253,0.795824,-3.522005,99775.82,-150,+14,-142
122970,9.152,-6.420,2.291,0.740574,0.862870,-3.632152,99775.82,-153,+20,-140
122979,9.625,-6.371,2.153,0.808152,0.883622,-3.723143,99778.46,-153,+20,-140
122989,9.922,-6.486,2.024,0.881583,0.900650,-3.786463,99778.20,-157,+29,-137
122999,10.249,-6.555,1.832,0.942244,0.909163,-3.829565,99778.46,-158,+36,-136
123010,10.459,-6.845,1.765,0.983216,0.915017,-3.862023,99779.09,-163,+43,-132
123020,10.801,-6.682,2.034,1.030574,0.913420,-3.890225,99780.34,-163,+43,-132
123029,11.076,-6.378,2.320,1.116243,0.900118,-3.914170,99779.40,-166,+51,-130
123039,11.336,-6.342,2.466,1.242353,0.869787,-3.922152,99781.59,-168,+59,-128
123049,11.347,-6.937,2.350,1.371124,0.812319,-3.892354,99776.38,-171,+68,-126
123060,11.224,-7.798,2.639,1.487656,0.759641,-3.847124,99776.38,-171,+68,-126
123069,11.096,-8.700,2.558,1.595674,0.661732,-3.751344,99776.38,-173,+77,-123
123079,10.844,-9.896,2.770,1.712206,0.559567,-3.590647,99783.15,-173,+86,-121
123089,10.849,-10.699,2.672,1.820225,0.446760,-3.430482,99784.71,-174,+94,-120
123095,10.864,-10.634,3.107,1.863858,0.350448,-3.326189,99778.52,-174,+94,-120
123105,10.820,-10.856,2.898,1.889931,0.269567,-3.209657,99780.34,-172,+103,-120
123114,10.493,-11.473,2.562,1.814903,0.190815,-2.979253,99780.34,-169,+110,-121
123124,9.192,-12.032,2.898,1.690922,0.158889,-2.675418,99782.21,-169,+110,-121
123134,7.553,-12.549,3.238,1.495106,0.140265,-2.327419,99782.27,-167,+116,-121
123145,6.313,-12.646,3.474,1.261509,0.147182,-1.938446,99782.01,-163,+121,-123
123154,5.453,-12.891,3.475,1.033234,0.161017,-1.504245,99780.76,-162,+124,-123
123164,4.947,-13.420,3.303,0.778886,0.189751,-1.045034,99780.76,-162,+124,-123
123174,4.885,-13.581,3.156,0.446317,0.245623,-0.550704,99781.80,-160,+127,-123
123185,5.193,-12.991,3.089,0.125987,0.291384,-0.059035,99781.07,-160,+129,-123
123194,5.712,-11.815,3.195,-0.097499,0.296705,0.393259,99781.85,-160,+128,-121
123204,6.156,-10.826,3.035,-0.200728,0.246155,0.827460,99779.51,-160,+128,-121
123214,6.659,-10.277,2.749,-0.231591,0.161549,1.261662,99779.51,-161,+127,-120
123225,7.650,-9.176,2.291,-0.171462,0.028522,1.655423,99783.00,-162,+123,-120
123235,12.149,-4.603,1.625,0.025418,-0.238065,1.911368,99784.14,-163,+118,-120
123244,19.464,6.486,0.691,0.307969,-0.638212,1.660744,99782.16,-163,+118,-120
123254,20.191,10.500,-4.484,0.388317,-0.691423,1.270176,99779.45,-162,+115,-122
123265,14.295,-2.524,0.104,0.278703,-0.177937,1.776744,99779.45,-163,+110,-122
123275,7.573,-9.093,6.180,0.940647,-0.261478,2.307257,99783.34,-164,+101,-124
123284,6.143,-9.280,5.937,1.675491,-0.440267,2.310982,99779.27,-164,+101,-124
123294,8.694,-8.218,3.851,1.625472,-0.249772,2.313643,99782.82,-165,+92,-125
123304,10.543,-1.876,2.654,1.511069,-0.207203,2.405698,99779.90,-165,+82,-126
123315,8.174,1.001,3.933,1.869711,-0.473790,2.286505,99779.90,-165,+72,-129
123325,4.833,-3.228,5.524,2.199087,-0.688762,2.033753,99784.03,-165,+72,-129
123330,4.134,-7.155,6.023,2.072445,-0.694615,1.807606,99783.05,-163,+62,-129
123339,5.204,-10.927,4.572,1.516390,-0.516359,1.603276,99783.05,-162,+55,-131
123350,7.610,-11.648,0.939,0.314886,-0.146010,1.348928,99779.86,-162,+55,-131
123360,9.023,-8.506,0.841,-0.807333,0.297237,1.121185,99782.67,-163,+51,-131
123370,9.559,-4.418,2.108,-1.371370,0.560632,0.939735,99782.67,-163,+52,-129
123379,9.144,-2.497,3.319,-1.362324,0.614907,0.882267,99781.62,-165,+53,-128
123389,8.884,-2.076,3.988,-0.854691,0.455806,0.879075,99781.34,-165,+53,-128
123400,9.035,-1.238,4.089,-0.202325,0.179109,0.924304,99778.16,-166,+52,-126
123410,8.974,-1.670,3.699,0.371822,-0.042249,0.998267,99778.16,-167,+48,-126
123419,8.392,-3.135,3.336,0.696941,-0.133240,1.006249,99778.16,-166,+44,-127
123429,8.056,-4.609,3.149,0.695345,-0.084818,0.943460,99782.69,-166,+44,-127
123440,8.076,-5.068,3.091,0.452170,0.054595,0.841295,99780.66,-166,+40,-126
123450,7.868,-5.094,3.614,0.107895,0.211745,0.733454,99781.83,-166,+37,-126
123459,7.734,-5.071,3.967,-0.141664,0.300962,0.632708,99781.83,-167,+35,-126
123469,7.782,-4.841,3.845,-0.363554,0.371200,0.520433,99781.83,-167,+35,-126
123480,7.875,-4.466,3.589,-0.562563,0.449421,0.427846,99783.77,-168,+36,-125
123490,8.026,-4.178,3.478,-0.702508,0.528705,0.362928,99784.04,-169,+35,-123
123500,8.290,-3.844,3.122,-0.777003,0.605861,0.334194,99781.12,-170,+36,-121
123509,8.609,-3.359,3.178,-0.761572,0.659072,0.331002,99781.12,-170,+36,-121
123520,8.717,-3.111,3.473,-0.676434,0.643108,0.353350,99784.27,-172,+36,-120
123530,8.434,-3.044,3.794,-0.501370,0.547329,0.393259,99784.27,-173,+36,-118
123540,8.099,-3.518,3.712,-0.345994,0.466448,0.425185,99781.99,-174,+37,-117
123549,7.997,-4.307,3.844,-0.314068,0.439843,0.414011,99784.07,-174,+37,-117
123559,7.942,-4.545,4.130,-0.378985,0.438246,0.379956,99782.62,-175,+36,-115
123570,7.932,-4.193,4.368,-0.508288,0.449421,0.348561,99782.62,-176,+35,-115
123580,7.881,-3.914,4.519,-0.602471,0.455806,0.320360,99782.70,-177,+36,-114
123590,8.086,-3.724,4.307,-0.639187,0.432925,0.317167,99782.43,-177,+36,-112
123599,8.333,-3.540,4.177,-0.631205,0.397806,0.340048,99781.76,-177,+36,-112
123610,8.292,-3.412,4.176,-0.572141,0.353109,0.377295,99781.07,-178,+36,-112
123620,8.313,-3.710,3.791,-0.500306,0.317989,0.420396,99781.34,-179,+36,-111
123630,8.253,-4.516,3.710,-0.546600,0.327567,0.459772,99782.48,-179,+36,-111
123639,8.239,-3.665,3.943,-0.598214,0.304155,0.442213,99782.54,-179,+36,-111
123650,8.180,-3.904,4.136,-0.539682,0.281274,0.503405,99782.54,-180,+35,-109
123660,8.059,-3.938,4.341,-0.543407,0.267439,0.536928,99778.37,-180,+35,-109
123670,8.202,-4.178,4.149,-0.598214,0.284999,0.560873,99778.37,-180,+35,-109
123679,7.999,-3.760,4.083,-0.660471,0.297237,0.607699,99783.43,-180,+35,-109
123685,7.886,-3.394,4.354,-0.677499,0.283402,0.655057,99783.07,-180,+34,-107
123695,7.960,-3.518,4.603,-0.668985,0.273824,0.694433,99782.54,-180,+34,-107
123705,8.023,-3.960,4.374,-0.644508,0.233916,0.751901,99780.20,-182,+33,-107
123714,8.009,-4.184,4.131,-0.656214,0.210503,0.805644,99780.20,-182,+31,-106
123724,7.993,-4.686,4.143,-0.691333,0.227531,0.837038,99783.80,-182,+31,-105
123735,7.989,-5.471,4.263,-0.757847,0.254668,0.838102,99780.72,-182,+31,-105
123745,8.071,-5.769,4.240,-0.842453,0.274889,0.838634,99780.92,-181,+29,-105
123755,8.052,-5.758,4.221,-0.921737,0.297237,0.835442,99781.70,-182,+29,-104
123764,8.112,-5.894,4.230,-0.999425,0.320650,0.831185,99781.70,-182,+28,-104
123774,8.360,-5.788,4.227,-1.083498,0.327567,0.827460,99783.91,-182,+28,-104
123785,8.774,-5.366,3.656,-1.162783,0.316925,0.865772,99781.90,-182,+28,-104
123795,9.216,-4.996,3.153,-1.204287,0.295641,0.927497,99782.52,-182,+27,-103
123804,9.558,-4.950,2.800,-1.216526,0.250412,1.011038,99781.99,-183,+27,-103
123814,9.711,-4.957,2.671,-1.198434,0.199329,1.128102,99781.99,-183,+27,-103
123825,9.878,-4.807,2.683,-1.157462,0.136540,1.247827,99782.48,-182,+25,-102
123835,9.963,-5.036,3.216,-1.112232,0.060980,1.358506,99783.68,-182,+24,-102
123845,9.994,-5.548,3.554,-1.085627,-0.025753,1.470781,99780.40,-181,+21,-103
123854,9.971,-6.038,3.746,-1.099994,-0.069919,1.566561,99781.54,-181,+21,-103
123865,10.225,-6.845,3.931,-1.182471,-0.082689,1.629350,99781.54,-180,+18,-103
123875,10.541,-7.516,3.952,-1.360728,-0.043845,1.660744,99782.15,-179,+17,-104
123885,10.971,-7.634,4.177,-1.635828,0.036503,1.672983,99782.15,-178,+14,-106
123894,11.556,-7.161,4.280,-1.957223,0.127494,1.678304,99780.95,-177,+13,-107
123905,13.141,-6.064,4.571,-2.273296,0.170595,1.687882,99777.68,-177,+13,-107
123915,15.377,-4.724,5.337,-2.444103,0.134944,1.725662,99777.68,-175,+13,-108
123925,16.979,-2.815,5.840,-2.512745,0.101953,1.834212,99781.65,-174,+14,-108
123934,17.161,-2.303,5.728,-2.443039,0.056724,2.005019,99782.32,-172,+13,-111
123944,17.141,-1.943,4.948,-2.314268,-0.033735,2.141239,99781.13,-172,+13,-111
123955,17.045,-1.998,5.522,-2.148782,-0.143350,2.251386,99779.62,-170,+12,-111
123965,16.376,-3.389,5.876,-1.772048,-0.347680,2.434432,99779.62,-167,+10,-114
123975,13.631,-6.493,5.987,-1.535792,-0.560524,2.610028,99780.63,-163,+6,-117
123984,10.149,-9.997,9.019,-1.392654,-0.517955,2.678670,99778.04,-163,+6,-117
123995,10.401,-10.237,9.682,-0.880764,-0.543496,2.757954,99775.90,-159,+3,-120
124005,11.072,-6.836,6.832,-0.494985,-0.768579,2.731881,99779.18,-154,-2,-121
124015,9.860,-3.865,6.105,-0.222013,-0.821258,2.584486,99779.18,-150,-7,-124
124024,8.926,-2.117,5.172,0.077565,-0.902670,2.308321,99778.12,-150,-7,-124
124035,6.711,-1.573,4.208,0.175473,-0.985147,1.994377,99777.23,-144,-12,-126
124045,4.090,-2.164,2.860,0.265932,-1.031441,1.753863,99778.95,-138,-16,-129
124055,1.972,-3.657,1.506,0.259015,-0.959606,1.531441,99778.74,-135,-18,-132
124064,0.966,-3.878,3.226,0.326060,-0.718560,1.120653,99778.74,-135,-18,-132
124075,1.192,-4.079,2.040,0.332978,-0.575423,0.643882,99779.26,-130,-21,-133
124085,1.305,-3.796,2.694,0.104171,-0.345551,0.240543,99781.55,-128,-22,-135
124095,3.401,-1.499,2.867,-0.085260,-0.097056,-0.161732,99779.21,-126,-20,-136
124105,4.359,1.931,1.517,-0.354508,-0.118873,-0.627860,99778.68,-126,-20,-136
124114,3.880,3.109,0.960,-0.431132,-0.183258,-1.092924,99778.68,-126,-16,-136
124125,3.182,1.857,0.826,-0.256068,-0.174212,-1.426557,99780.47,-124,-12,-137
124135,2.900,0.296,1.447,-0.000123,-0.117808,-1.662813,99778.80,-124,-7,-139
124145,3.143,-0.183,2.308,0.267528,-0.035331,-1.919822,99775.98,-124,-7,-139
124154,3.477,-0.170,3.004,0.500592,0.070558,-2.227382,99775.78,-123,-4,-139
124165,3.641,-0.272,3.296,0.635216,0.194008,-2.546648,99775.78,-124,+0,-137
124175,4.021,-0.866,2.958,0.639473,0.320650,-2.854207,99776.73,-125,+5,-137
124185,4.558,-1.598,2.616,0.594244,0.413769,-3.116005,99777.65,-125,+5,-137
124194,5.210,-2.151,2.217,0.672464,0.492521,-3.360244,99777.13,-126,+11,-137
124205,6.096,-2.224,2.297,0.808152,0.577659,-3.635345,99774.38,-128,+18,-136
124215,7.316,-2.114,2.192,0.925216,0.638319,-3.875858,99774.38,-129,+23,-135
124225,7.904,-2.746,1.469,1.038023,0.650026,-4.032830,99776.43,-129,+23,-135
124235,8.309,-3.724,1.040,1.133803,0.702173,-4.146702,99775.76,-130,+30,-133
124244,8.400,-5.092,1.716,1.269491,0.719200,-4.200445,99775.29,-130,+36,-132
124255,8.518,-6.144,2.090,1.331216,0.702705,-4.302078,99778.46,-131,+44,-132
124265,9.049,-7.040,2.750,1.247674,0.718136,-4.470224,99778.46,-131,+44,-132
124275,10.006,-7.325,3.309,1.171583,0.747402,-4.647949,99779.43,-131,+50,-130
124284,10.589,-7.186,3.698,1.243418,0.772943,-4.755967,99778.02,-132,+58,-129
124295,10.973,-7.417,4.074,1.443491,0.800613,-4.757031,99778.29,-131,+64,-129
124305,11.293,-8.195,4.340,1.646225,0.813384,-4.709142,99774.74,-131,+64,-129
124315,12.253,-8.674,4.366,1.886206,0.802209,-4.682536,99774.74,-132,+70,-128
124324,13.313,-8.825,4.148,2.094261,0.730907,-4.659123,99780.32,-131,+76,-128
124335,13.880,-9.126,3.922,2.258683,0.620228,-4.599527,99781.57,-131,+81,-127
124345,14.027,-9.548,4.072,2.395435,0.503696,-4.513857,99779.23,-131,+81,-127
124355,13.922,-10.052,4.224,2.509307,0.391953,-4.405839,99778.18,-130,+85,-126
124364,13.374,-10.740,3.897,2.556133,0.289255,-4.243013,99778.18,-128,+88,-128
124375,13.076,-11.223,3.542,2.552408,0.210503,-4.045601,99783.83,-126,+91,-129
124385,12.902,-11.417,3.681,2.498132,0.152503,-3.850849,99781.80,-125,+93,-128
124395,12.419,-11.613,4.109,2.431087,0.131751,-3.583198,99779.97,-125,+93,-128
124405,10.974,-12.367,3.894,2.283692,0.113127,-3.226684,99778.45,-123,+96,-129
124414,8.864,-13.902,3.251,2.059142,0.096632,-2.808446,99778.45,-123,+97,-131
124425,6.699,-15.560,2.998,1.709014,0.125366,-2.313584,99783.70,-122,+97,-131
124435,4.900,-17.035,2.397,1.207234,0.211567,-1.801162,99781.27,-122,+97,-131
124445,3.653,-17.500,1.704,0.486758,0.355237,-1.253621,99779.39,-122,+98,-129
124454,3.577,-16.144,2.041,-0.261389,0.462723,-0.607640,99779.55,-123,+99,-128
124465,4.747,-13.169,2.872,-0.739755,0.451549,0.088360,99779.55,-124,+101,-126
124475,6.235,-10.455,3.377,-0.802012,0.307347,0.763075,99783.58,-124,+101,-126
124485,7.512,-8.985,3.927,-0.587040,0.125898,1.393093,99782.64,-124,+99,-125
124495,7.865,-8.231,4.529,-0.259260,-0.014579,1.870927,99782.02,-128,+96,-125
124505,7.771,-8.353,3.524,0.040850,-0.201882,2.295551,99781.70,-128,+89,-123
124515,10.148,-4.799,3.032,0.296794,-0.390781,2.516909,99781.70,-128,+89,-123
124525,15.273,3.659,3.885,0.598501,-0.544560,2.291294,99781.52,-129,+83,-126
124535,22.531,15.132,0.131,0.716097,-0.760065,1.452689,99780.00,-128,+77,-128
124545,20.245,9.687,-7.148,0.310097,-0.600432,1.282946,99783.33,-128,+72,-128
124555,12.366,-8.136,-0.843,0.409070,-0.262010,2.322689,99781.41,-128,+72,-128
124565,5.493,-12.153,7.905,1.572261,-0.592982,2.731881,99781.41,-128,+64,-128
124575,6.326,-14.055,7.484,2.041050,-0.499863,2.600450,99782.13,-128,+53,-129
124584,11.380,-12.326,2.038,1.230115,-0.124194,2.549899,99781.73,-129,+44,-128
124595,11.568,-3.066,1.706,0.754941,0.084925,2.625991,99782.51,-129,+44,-128
124605,7.439,0.474,4.173,1.298225,-0.113552,2.502542,99780.52,-128,+36,-128
124615,3.829,-2.431,6.429,1.714867,-0.364175,2.268945,99780.52,-127,+27,-129
124625,4.379,-6.592,5.972,1.505216,-0.385460,1.987460,99781.80,-127,+18,-128
124631,6.432,-8.852,4.306,1.009289,-0.280634,1.722469,99779.98,-127,+18,-128
124640,7.844,-9.377,2.657,0.347345,-0.141221,1.515478,99779.98,-125,+14,-128
124650,8.558,-8.318,2.466,-0.471040,0.124834,1.265387,99783.93,-126,+13,-129
124660,8.768,-5.794,3.275,-1.060086,0.367476,1.064249,99780.40,-126,+13,-129
124670,8.707,-3.863,3.303,-1.373498,0.453145,0.936011,99780.40,-127,+13,-127
124680,8.760,-3.406,2.818,-1.254306,0.420687,0.839167,99782.27,-127,+13,-127
124690,8.956,-2.424,2.848,-0.814251,0.272760,0.816818,99783.34,-126,+13,-126
124700,9.265,-1.712,2.969,-0.199132,0.089182,0.868433,99781.62,-126,+13,-126
124710,8.909,-2.751,3.016,0.317015,-0.034799,0.920579,99781.62,-127,+11,-126
124720,8.320,-3.625,2.594,0.551675,-0.015111,0.909937,99781.62,-126,+8,-127
124730,7.841,-4.282,3.022,0.489418,0.119512,0.835974,99781.66,-127,+5,-125
124740,7.772,-4.819,3.778,0.268593,0.242430,0.726891,99784.16,-127,+5,-125
124750,7.995,-4.883,4.004,0.048831,0.298833,0.610359,99779.49,-126,+3,-125
124760,7.838,-4.900,4.032,-0.168270,0.357366,0.493827,99783.02,-126,+1,-124
124770,7.609,-4.928,3.958,-0.424746,0.458999,0.366653,99783.02,-128,+2,-123
124780,7.721,-4.670,3.817,-0.708361,0.560632,0.251185,99783.05,-128,+2,-123
124790,8.124,-4.157,3.606,-0.936636,0.645769,0.175094,99781.65,-129,+3,-121
124801,8.450,-3.376,3.588,-1.044654,0.671842,0.162323,99780.87,-130,+5,-122
124810,8.861,-2.556,3.620,-0.965902,0.625549,0.201167,99780.87,-132,+7,-121
124820,8.982,-2.067,3.566,-0.737627,0.526576,0.282580,99784.09,-132,+7,-121
124830,8.786,-2.304,3.585,-0.460398,0.423347,0.366121,99784.09,-133,+7,-120
124840,8.490,-3.057,4.014,-0.258728,0.338210,0.431038,99781.90,-133,+7,-120
124850,8.157,-3.564,4.479,-0.210838,0.265843,0.466158,99780.34,-133,+7,-119
124860,7.943,-3.798,4.506,-0.283205,0.253072,0.466690,99782.10,-133,+7,-119
124870,7.978,-3.825,4.526,-0.407187,0.269035,0.450194,99782.10,-134,+5,-118
124880,7.925,-3.671,4.704,-0.541278,0.273824,0.441681,99783.25,-134,+6,-119
124891,8.040,-3.364,4.561,-0.639187,0.259457,0.452323,99782.00,-135,+6,-118
124900,8.053,-3.352,4.340,-0.663132,0.221678,0.497552,99782.84,-135,+6,-118
124910,8.507,-3.622,3.864,-0.704104,0.206246,0.566726,99779.62,-134,+6,-117
124920,8.447,-2.714,3.807,-0.640251,0.159421,0.602910,99782.90,-135,+6,-117
124931,8.539,-2.702,3.913,-0.463590,0.120045,0.710396,99782.85,-135,+5,-117
124940,8.331,-3.334,4.043,-0.360361,0.080668,0.791277,99780.60,-135,+5,-117
124950,8.110,-4.445,3.857,-0.339077,0.078008,0.845552,99780.60,-135,+3,-117
124960,7.855,-4.691,4.038,-0.430068,0.078540,0.865240,99777.59,-134,+3,-117
124971,7.740,-4.658,4.093,-0.523719,0.108870,0.850873,99777.59,-134,+1,-117
124980,7.665,-4.858,3.760,-0.577462,0.144522,0.849809,99783.99,-134,+1,-117
124986,7.816,-5.019,3.562,-0.618966,0.173788,0.846616,99781.23,-134,+1,-117
124995,8.029,-4.929,3.479,-0.651425,0.182301,0.854598,99780.18,-133,+1,-117
125005,8.037,-4.884,3.495,-0.662067,0.176980,0.874286,99778.99,-133,+1,-117
125016,7.859,-5.137,3.533,-0.665792,0.183366,0.891313,99778.99,-134,+0,-117
125025,7.998,-5.335,3.918,-0.717407,0.209971,0.904616,99782.50,-133,-1,-117
125035,8.028,-5.550,4.373,-0.816911,0.224870,0.901423,99783.39,-133,-1,-117
125045,8.221,-5.292,4.581,-0.923865,0.250944,0.908873,99781.16,-133,-1,-117
125056,8.527,-5.439,4.750,-1.004746,0.286595,0.926965,99780.78,-133,-1,-117
125065,8.762,-5.983,4.558,-1.079242,0.307347,0.942928,99780.78,-133,-1,-117
125075,9.248,-6.192,3.732,-1.182471,0.335549,0.966873,99782.02,-133,-1,-117
125085,10.063,-5.916,3.109,-1.331994,0.323843,0.997735,99782.80,-133,-1,-117
125095,10.206,-5.048,3.146,-1.433627,0.252540,1.059992,99777.38,-133,+0,-116
125105,10.537,-4.386,2.913,-1.385737,0.166870,1.189827,99783.01,-134,-1,-117
125115,10.766,-4.864,2.398,-1.247388,0.056191,1.336689,99783.01,-132,-1,-117
125125,10.657,-5.876,1.984,-1.147352,-0.059808,1.475038,99783.88,-132,-1,-117
125135,10.665,-6.911,2.657,-1.205884,-0.111955,1.570285,99782.63,-132,-3,-118
125146,11.471,-6.640,3.843,-1.390526,-0.111423,1.627221,99780.82,-131,-3,-119
125155,12.076,-6.122,4.815,-1.580489,-0.103441,1.701184,99780.45,-128,-5,-121
125165,12.159,-6.146,4.898,-1.698617,-0.084286,1.782597,99780.45,-128,-5,-121
125175,12.812,-6.156,4.810,-1.889112,-0.043845,1.846450,99782.23,-129,-5,-121
125186,14.350,-5.687,5.223,-2.148250,0.002980,1.870927,99781.07,-126,-5,-121
125195,16.241,-4.941,6.335,-2.327039,0.038632,1.891680,99781.45,-126,-4,-124
125205,17.063,-4.139,6.444,-2.418030,0.055127,1.975753,99781.45,-126,-4,-124
125215,16.892,-3.293,5.999,-2.590433,0.156228,2.078982,99781.45,-125,-5,-124
125220,16.318,-2.352,6.681,-2.761240,0.251476,2.136450,99782.59,-124,-3,-125
125231,15.595,-1.216,7.563,-2.826690,0.304687,2.161459,99782.59,-124,-3,-125
125241,15.333,-0.193,9.450,-2.658543,0.307879,2.207221,99779.42,-124,-2,-126
125250,15.942,-0.768,9.553,-2.165809,0.099292,2.301404,99777.91,-124,-4,-126
125260,12.841,-4.755,8.034,-1.977443,-0.159313,2.398780,99778.89,-123,-6,-128
125271,10.135,-10.518,7.700,-1.732672,-0.394506,2.548835,99782.45,-123,-6,-128
125281,9.523,-10.382,4.446,-1.155333,-0.658432,2.610028,99778.70,-120,-10,-128
125290,8.937,-6.731,4.146,-0.853627,-0.602560,2.538725,99779.52,-118,-15,-130
125300,8.985,-3.585,4.971,-0.722728,-0.592450,2.257239,99779.52,-115,-18,-131
125310,7.196,-1.063,4.275,-0.506159,-0.765386,1.962982,99778.27,-115,-18,-131
125320,3.914,-0.887,2.166,-0.200728,-0.848395,1.767166,99778.27,-113,-23,-132
125330,0.668,-2.509,3.170,0.125455,-0.649918,1.430341,99780.74,-111,-28,-133
125341,0.029,-3.141,2.836,0.325351,-0.468646,0.862579,99781.04,-111,-31,-134
125350,0.178,-3.774,2.501,0.162171,-0.342891,0.374635,99781.04,-111,-31,-134
125361,1.875,-3.128,2.335,-0.192747,-0.106102,-0.093090,99777.82,-111,-33,-133
125370,3.598,-0.452,0.431,-0.618966,0.005109,-0.496961,99777.82,-112,-33,-132
125380,3.818,2.502,-0.396,-0.845645,-0.006598,-0.900300,99779.43,-113,-29,-133
125390,3.513,3.553,-0.237,-0.674306,-0.071515,-1.252025,99779.02,-113,-29,-133
125401,3.000,3.374,0.333,-0.225205,-0.155588,-1.552667,99778.91,-116,-26,-133
125411,2.839,1.753,1.228,0.460152,-0.181662,-1.797437,99778.91,-118,-25,-132
125420,2.694,-0.129,2.405,1.148702,-0.143350,-2.001235,99778.91,-121,-24,-131
125430,2.372,-2.445,3.438,1.593546,-0.060341,-2.168850,99779.03,-121,-24,-131
125441,2.669,-3.817,3.655,1.708482,0.073219,-2.392868,99775.39,-125,-25,-129
125451,3.994,-3.690,3.467,1.688261,0.214760,-2.711602,99777.42,-130,-24,-125
125460,6.156,-2.735,3.295,1.682408,0.353641,-3.022354,99773.72,-135,-20,-123
125470,7.513,-2.347,2.916,1.653142,0.442503,-3.237326,99773.72,-135,-20,-123
125480,7.780,-2.811,1.918,1.678683,0.451549,-3.371950,99779.39,-141,-17,-118
125491,7.764,-4.069,0.915,1.696243,0.477090,-3.477840,99779.13,-147,-12,-115
125501,8.149,-5.812,0.730,1.641436,0.515402,-3.495932,99775.75,-153,-7,-112
125510,8.326,-7.290,1.802,1.492445,0.545732,-3.537436,99775.75,-153,-7,-112
125520,7.990,-8.438,2.459,1.295564,0.512209,-3.705051,99777.64,-158,+0,-109
125531,7.759,-8.857,2.367,1.104537,0.510081,-3.948225,99777.28,-163,+9,-105
125540,7.786,-7.630,2.548,1.012482,0.593090,-4.125417,99777.28,-168,+21,-103
125550,8.464,-6.019,3.515,1.087510,0.723989,-4.180757,99778.95,-168,+21,-103
125560,9.331,-5.530,3.995,1.336537,0.772943,-4.163729,99778.89,-172,+34,-100
125571,9.644,-6.415,3.533,1.571197,0.769751,-4.125417,99778.89,-175,+45,-97
125581,9.921,-7.045,2.874,1.713803,0.776668,-4.114243,99780.02,-175,+57,-95
125590,10.465,-7.145,2.337,1.794683,0.792631,-4.142445,99778.87,-175,+57,-95
125600,11.422,-6.909,2.265,1.855876,0.792099,-4.181821,99778.93,-175,+69,-94
125611,12.353,-6.641,2.437,1.948995,0.756980,-4.204701,99780.85,-173,+80,-93
125621,13.014,-6.693,2.715,2.057014,0.680888,-4.195656,99781.43,-171,+90,-93
125631,13.306,-7.251,2.925,2.177803,0.579255,-4.155215,99778.05,-168,+99,-93
125640,13.234,-8.341,3.079,2.297527,0.460595,-4.061032,99780.45,-168,+99,-93
125650,12.978,-10.065,2.951,2.379472,0.343531,-3.937583,99780.45,-165,+107,-94
125661,12.619,-11.529,2.956,2.385857,0.234980,-3.763051,99779.82,-162,+114,-95
125670,12.323,-11.970,3.030,2.383729,0.124834,-3.516684,99779.82,-159,+120,-97
125680,11.573,-12.183,3.073,2.431619,0.006173,-3.189436,99781.45,-159,+120,-97
125690,9.981,-13.760,2.944,2.422041,-0.092799,-2.812703,99780.31,-157,+124,-100
125701,7.531,-16.060,3.117,2.246445,-0.123662,-2.365731,99780.98,-153,+126,-103
125711,5.192,-17.923,3.235,1.844702,-0.049166,-1.818722,99780.47,-151,+127,-104
125720,3.617,-19.103,3.031,1.237564,0.071623,-1.223291,99780.47,-151,+127,-104
125730,3.787,-18.587,3.498,0.462813,0.254136,-0.650741,99781.30,-151,+128,-104
125741,3.982,-16.833,3.551,-0.207646,0.369604,-0.013805,99781.08,-152,+129,-103
125751,4.602,-14.904,3.989,-0.573737,0.357366,0.628983,99780.42,-153,+127,-102
125761,5.389,-13.722,4.119,-0.669517,0.270632,1.241442,99780.42,-153,+127,-102
125770,7.000,-11.834,4.092,-0.596086,0.118980,1.787386,99780.42,-157,+124,-100
125780,13.608,-4.366,4.006,-0.389627,-0.171552,2.103992,99784.03,-157,+119,-100
125791,24.895,12.523,1.097,-0.032049,-0.786138,1.562304,99783.09,-157,+114,-103
125800,24.613,15.545,-8.860,-0.391224,-0.598836,1.077020,99780.50,-157,+114,-103
125810,14.336,-7.721,0.110,-0.639719,0.091311,2.172634,99784.19,-159,+112,-101
125820,5.410,-12.591,8.176,0.859767,-0.389184,2.817019,99784.19,-160,+103,-103
125831,7.732,-11.140,6.308,1.737748,-0.541368,2.805312,99782.91,-162,+90,-105
125841,10.723,-9.047,0.693,1.077399,-0.258285,2.656321,99782.44,-162,+90,-105
125850,9.715,-1.411,2.155,0.837950,-0.037460,2.791477,99783.06,-164,+81,-104
125860,6.011,2.169,6.603,1.788830,-0.358854,2.709000,99779.09,-165,+71,-106
125871,3.029,-1.263,9.186,2.418316,-0.758469,2.413147,99783.98,-165,+59,-108
125881,3.661,-7.534,6.781,2.107564,-0.756340,1.977349,99781.68,-165,+59,-108
125890,6.266,-12.536,1.674,1.086977,-0.473258,1.641056,99781.68,-164,+49,-109
125900,8.665,-12.397,-1.149,-0.281077,0.054063,1.377662,99782.26,-163,+44,-109
125911,9.264,-8.924,0.935,-1.387865,0.665457,1.087662,99781.84,-165,+45,-107
125921,9.242,-5.703,2.921,-1.941259,0.969824,0.856194,99781.84,-165,+45,-107
125931,8.716,-3.774,3.063,-1.889290,0.890362,0.730971,99782.29,-167,+47,-104
125940,8.875,-1.739,2.919,-1.364984,0.703237,0.708800,99782.29,-168,+48,-103
125950,9.522,0.412,3.705,-0.480086,0.430265,0.840231,99780.98,-169,+45,-102
125961,9.343,-0.507,3.431,0.375015,0.199329,1.013167,99781.66,-169,+45,-102
125971,8.189,-3.185,3.712,0.717693,0.130155,1.115864,99781.66,-170,+41,-101
125981,7.891,-5.518,3.764,0.646923,0.153568,1.038176,99784.35,-170,+37,-101
125990,8.053,-6.499,3.726,0.253161,0.224338,0.837570,99782.34,-171,+33,-100
126001,7.810,-6.396,4.344,-0.228930,0.375457,0.608763,99782.45,-171,+33,-100
126011,7.358,-5.803,4.833,-0.733902,0.539347,0.385809,99782.45,-171,+33,-98
126020,7.446,-4.603,4.775,-1.141498,0.642576,0.210745,99782.45,-172,+33,-97
126030,7.952,-2.951,4.411,-1.293150,0.668650,0.137314,99782.63,-173,+36,-96
126041,8.636,-2.163,3.873,-1.147884,0.613842,0.171369,99781.60,-173,+36,-96
126051,9.103,-2.086,3.516,-0.765297,0.462191,0.255442,99780.40,-174,+37,-93
126060,9.209,-2.766,3.014,-0.396013,0.322778,0.346965,99779.93,-175,+37,-94
126070,8.585,-4.265,3.279,-0.269370,0.274356,0.368782,99779.93,-176,+36,-92
126081,8.040,-4.836,4.287,-0.384838,0.297237,0.337387,99783.54,-176,+36,-92
126091,7.656,-4.313,5.087,-0.606196,0.351512,0.278855,99780.99,-176,+36,-92
126101,7.504,-3.385,5.296,-0.755719,0.367476,0.232561,99783.34,-177,+36,-92
126110,7.475,-3.026,5.259,-0.739223,0.335549,0.212341,99783.34,-177,+36,-90
126120,7.802,-3.216,4.900,-0.670581,0.275421,0.215534,99782.66,-178,+37,-90
126131,8.065,-3.434,4.410,-0.649829,0.238705,0.219259,99782.66,-178,+37,-90
126141,8.112,-3.189,4.001,-0.656746,0.226467,0.247993,99783.86,-178,+38,-89
126150,8.168,-2.805,4.125,-0.613645,0.201990,0.305993,99782.14,-178,+37,-89
126160,8.037,-2.854,4.289,-0.486471,0.139201,0.384745,99782.70,-178,+36,-88
126166,8.113,-3.214,3.849,-0.422086,0.106742,0.459240,99782.70,-178,+36,-88
126176,7.873,-3.514,3.898,-0.465719,0.127494,0.465626,99781.31,-178,+36,-89
126186,7.407,-3.666,4.200,-0.472636,0.119512,0.528947,99783.64,-178,+36,-89
126195,7.718,-4.084,3.784,-0.477425,0.095568,0.589075,99781.83,-179,+35,-87
126205,7.959,-4.324,3.504,-0.580122,0.107274,0.652928,99781.41,-179,+35,-87
126216,8.057,-3.273,3.277,-0.700379,0.119512,0.717313,99781.41,-180,+33,-87
126226,8.861,-2.280,4.285,-0.693462,0.167402,0.795534,99784.97,-180,+33,-87
126235,8.784,-3.125,4.876,-0.557774,0.113127,0.862047,99782.16,-180,+32,-87
126245,8.464,-4.560,4.032,-0.407187,0.025329,0.950910,99782.31,-179,+29,-87
126256,8.192,-6.476,3.593,-0.387499,0.008834,0.957827,99779.86,-179,+27,-87
126266,8.117,-7.755,3.259,-0.616306,0.094503,0.883864,99779.86,-179,+27,-87
126276,7.996,-7.508,3.662,-0.993040,0.269567,0.758286,99782.59,-179,+25,-86
126285,8.230,-6.332,3.783,-1.301663,0.396742,0.667827,99780.98,-180,+25,-86
126296,8.761,-5.223,3.861,-1.431498,0.413237,0.667295,99782.65,-180,+25,-85
126306,8.986,-4.846,3.566,-1.424049,0.360558,0.714653,99782.38,-180,+25,-85
126316,9.053,-5.024,3.195,-1.414471,0.300962,0.790745,99782.38,-180,+25,-84
126325,9.462,-4.454,3.551,-1.455443,0.227531,0.875350,99782.73,-182,+25,-84
126336,9.869,-3.561,3.757,-1.454911,0.124301,1.003056,99781.37,-181,+24,-85
126346,10.212,-3.172,4.007,-1.367645,0.016815,1.156304,99781.59,-181,+24,-85
126356,10.598,-3.629,4.142,-1.263884,-0.098653,1.322322,99780.02,-181,+22,-84
126365,10.834,-3.986,3.826,-1.175553,-0.205074,1.499515,99780.02,-181,+20,-86
126375,10.734,-4.818,3.631,-1.117021,-0.275845,1.663937,99785.73,-180,+17,-87
126386,10.896,-5.803,3.639,-1.137774,-0.312561,1.793772,99783.85,-179,+12,-87
126396,11.272,-6.325,3.720,-1.256966,-0.302451,1.902322,99781.37,-179,+12,-87
126406,11.574,-6.608,3.954,-1.447994,-0.241790,1.962982,99779.85,-178,+10,-89
126415,12.151,-6.621,4.147,-1.706599,-0.156120,2.009276,99779.85,-177,+5,-90
126426,13.485,-6.228,4.411,-2.008837,-0.076304,2.040670,99781.40,-177,+1,-91
126436,15.856,-5.540,5.783,-2.272763,-0.052359,2.051312,99782.54,-177,+1,-91
126446,17.877,-4.078,7.053,-2.422818,-0.069919,2.100267,99780.15,-177,+0,-93
126455,17.539,-2.479,7.203,-2.532433,-0.053423,2.252450,99778.37,-177,-3,-96
126466,16.373,-1.572,8.000,-2.499442,-0.016175,2.410487,99778.37,-176,-7,-96
126476,17.006,-1.214,8.497,-2.272231,-0.123662,2.512120,99778.77,-176,-7,-96
126486,17.850,-2.094,7.593,-1.979039,-0.328524,2.556817,99780.75,-175,-9,-98
126495,14.753,-5.296,6.041,-1.910397,-0.550946,2.640890,99777.63,-174,-16,-102
126505,10.621,-8.937,8.356,-1.813553,-0.473790,2.652065,99779.28,-172,-22,-104
126516,9.260,-9.562,8.134,-1.208012,-0.546157,2.728156,99779.28,-172,-22,-104
126522,9.444,-7.198,7.059,-0.728581,-0.666946,2.762211,99781.22,-171,-28,-106
126531,10.006,-5.235,5.241,-0.457205,-0.779221,2.704743,99781.22,-171,-28,-106
126541,9.222,-3.965,3.594,-0.438581,-0.881386,2.429643,99781.33,-168,-36,-108
126551,6.722,-3.194,3.921,-0.298636,-0.953753,2.108780,99781.42,-165,-44,-109
126561,4.068,-3.725,1.780,-0.101756,-0.985147,1.846450,99780.13,-163,-49,-112
126571,1.396,-4.290,2.653,-0.088985,-0.736652,1.488873,99783.38,-163,-49,-114
126581,1.049,-3.428,2.623,-0.062912,-0.516359,0.962616,99780.30,-163,-55,-114
126590,0.877,-2.764,2.657,-0.245958,-0.339698,0.448066,99780.67,-163,-58,-113
126601,2.210,-1.172,3.186,-0.387499,-0.123130,0.043662,99780.67,-165,-56,-114
126611,4.030,1.625,1.480,-0.566820,-0.076836,-0.353291,99777.64,-168,-55,-115
126620,4.031,4.064,0.360,-0.698251,-0.177937,-0.804520,99777.64,-168,-55,-115
126630,3.692,4.445,0.128,-0.452416,-0.204542,-1.145603,99780.13,-171,-53,-114
126641,3.273,3.553,0.165,0.058941,-0.255625,-1.381327,99778.25,-173,-49,-115
126651,2.842,1.408,1.091,0.680446,-0.221038,-1.596832,99780.64,-177,-48,-114
126661,2.514,-1.109,2.294,1.136996,-0.116212,-1.783602,99775.84,-177,-48,-114
126671,2.510,-2.326,3.309,1.313124,0.037035,-2.044336,99775.84,-181,-46,-111
126681,2.817,-2.366,3.517,1.317913,0.186026,-2.378501,99779.71,-187,-41,-109
126691,3.981,-1.749,3.564,1.279069,0.296173,-2.696171,99775.68,-193,-36,-106
126701,5.436,-1.074,3.384,1.354096,0.324907,-2.960629,99778.96,-193,-36,-106
126711,6.274,-1.348,2.780,1.594078,0.307347,-3.162299,99778.96,-199,-30,-103
126721,6.710,-2.612,2.406,1.818628,0.342999,-3.344812,99778.96,-205,-23,-101
126731,7.270,-3.610,2.142,1.888867,0.404723,-3.522005,99776.95,-212,-15,-97
126741,7.735,-4.409,1.505,1.831931,0.424411,-3.697601,99775.59,-212,-15,-97
126751,8.389,-5.680,1.169,1.727638,0.457934,-3.824243,99774.40,-217,-6,-94
126756,8.788,-6.358,1.639,1.655271,0.488797,-3.906188,99775.54,-222,-6,-94
126766,8.501,-7.181,2.434,1.568005,0.489861,-4.029105,99775.54,-222,+5,-91
126776,8.110,-7.975,2.992,1.373252,0.488265,-4.219069,99778.69,-227,+18,-90
126786,8.558,-7.403,3.653,1.183821,0.562228,-4.396793,99775.47,-232,+33,-87
126796,9.132,-6.313,4.403,1.194463,0.650558,-4.545784,99779.31,-232,+33,-87
126806,9.764,-5.769,4.640,1.417418,0.715475,-4.623472,99774.58,-234,+49,-86
126816,9.956,-6.401,4.461,1.639307,0.785714,-4.626665,99774.58,-238,+65,-84
126826,10.430,-7.140,4.228,1.710078,0.883622,-4.618683,99781.77,-239,+80,-82
126836,11.610,-7.340,3.975,1.693050,0.970888,-4.652206,99777.14,-239,+80,-81
126845,12.899,-7.208,3.782,1.659527,1.047512,-4.685197,99777.77,-239,+98,-81
126856,14.188,-7.261,4.191,1.668041,1.106044,-4.694242,99777.45,-239,+114,-79
126866,15.230,-7.514,4.536,1.753711,1.084228,-4.675086,99777.45,-237,+132,-77
126876,15.284,-8.511,4.529,1.965491,0.958650,-4.550041,99779.86,-234,+149,-78
126885,14.648,-11.235,4.116,2.252830,0.779329,-4.294628,99781.27,-234,+149,-78
126896,13.346,-14.072,3.267,2.389582,0.568081,-4.004629,99779.23,-228,+164,-80
126906,12.102,-14.311,2.524,2.315619,0.382375,-3.678445,99779.61,-222,+177,-83
126916,11.119,-13.708,2.107,2.151197,0.309476,-3.364501,99779.61,-216,+188,-87
126926,9.374,-14.181,1.650,1.940481,0.263182,-2.891455,99784.97,-216,+188,-87
126936,7.042,-15.509,2.220,1.639839,0.255733,-2.248134,99783.83,-210,+196,-90
126946,4.759,-17.805,2.536,1.284922,0.256797,-1.580336,99781.86,-206,+201,-93
126956,3.625,-19.339,2.252,0.819326,0.236045,-0.850814,99780.45,-204,+203,-95
126966,4.048,-18.058,2.054,0.303180,0.230723,-0.077659,99780.45,-204,+203,-95
126976,5.231,-15.873,2.342,-0.085793,0.201990,0.645479,99782.57,-204,+203,-94
126986,6.240,-14.284,2.934,-0.320985,0.118448,1.306891,99782.57,-207,+199,-93
126996,7.384,-12.646,3.218,-0.365682,-0.018304,1.881037,99781.02,-211,+194,-93
127006,10.309,-8.943,2.958,-0.208710,-0.251368,2.289165,99781.70,-211,+194,-93
127015,19.809,2.688,3.055,0.158446,-0.715900,2.234890,99781.70,-215,+185,-94
127026,26.094,16.366,-6.451,0.340960,-1.181496,1.446836,99782.78,-215,+181,-98
127036,18.961,1.319,-4.205,-0.400269,-0.317350,2.024175,99786.67,-219,+175,-100
127046,8.118,-12.507,6.320,0.451106,-0.335441,2.888321,99779.55,-219,+175,-100
127056,5.260,-13.134,8.222,1.835656,-0.772303,2.991018,99779.03,-222,+160,-103
127066,10.373,-13.508,2.799,1.829803,-0.614799,3.061257,99779.03,-225,+146,-107
127076,11.722,-4.696,0.503,1.184886,-0.364175,3.142138,99783.63,-228,+133,-110
127086,7.364,2.888,3.674,1.502023,-0.421111,3.026670,99781.29,-228,+133,-110
127096,1.952,1.069,8.482,2.146940,-0.761129,2.682927,99781.55,-230,+119,-113
127106,0.682,-6.765,8.297,2.161307,-0.850524,2.230633,99781.20,-230,+105,-117
127112,3.713,-12.877,5.149,1.524372,-0.617992,1.923606,99781.20,-230,+105,-117
127121,7.254,-15.070,0.910,0.459620,-0.343955,1.723533,99781.20,-231,+97,-119
127131,9.299,-12.282,-0.237,-0.911095,0.168999,1.362231,99783.71,-233,+93,-118
127141,9.817,-7.617,1.163,-1.805039,0.705897,1.042433,99783.76,-234,+94,-115
127152,9.262,-3.750,2.582,-2.203057,0.960246,0.889185,99783.09,-234,+94,-115
127161,8.845,-1.495,3.310,-1.910929,0.897989,0.884928,99780.65,-238,+94,-110
127171,8.711,-0.792,3.972,-1.068599,0.580320,0.895038,99782.88,-238,+93,-107
127181,9.130,-0.312,3.649,-0.125701,0.200393,1.016359,99784.13,-239,+90,-107
127191,8.871,-2.236,3.480,0.429822,-0.009790,1.149387,99784.13,-239,+90,-107
127201,8.394,-4.400,3.846,0.570299,-0.083221,1.135020,99781.79,-240,+84,-107
127211,7.968,-5.330,4.203,0.425033,-0.131643,1.023809,99778.26,-241,+78,-107
127221,7.499,-5.888,3.698,0.147804,-0.090139,0.861515,99778.26,-241,+75,-108
127232,7.187,-6.519,3.706,-0.278948,0.115788,0.666763,99782.33,-241,+75,-108
127241,7.165,-5.881,4.066,-0.745609,0.302558,0.454451,99783.52,-241,+74,-106
127251,7.667,-4.300,3.557,-0.991975,0.406320,0.312378,99780.77,-243,+75,-104
127261,8.414,-3.021,3.435,-0.969095,0.414301,0.288433,99780.61,-243,+75,-103
127271,9.016,-1.946,3.246,-0.692398,0.342466,0.370378,99779.48,-243,+75,-103
127282,8.815,-2.509,3.277,-0.308214,0.237109,0.459240,99782.82,-244,+75,-103
127291,8.379,-3.791,3.078,-0.011829,0.130155,0.539589,99781.93,-245,+73,-101
127301,7.935,-4.756,3.474,0.049363,0.111531,0.548635,99779.85,-245,+70,-100
127311,7.692,-4.957,4.016,-0.066104,0.150375,0.481589,99779.85,-245,+70,-100
127321,7.667,-4.862,4.206,-0.236380,0.195072,0.397516,99779.85,-244,+68,-101
127331,7.819,-4.525,4.711,-0.386967,0.206246,0.329405,99784.92,-246,+68,-99
127341,7.858,-4.096,4.467,-0.483811,0.173256,0.292158,99783.31,-245,+68,-98
127351,8.015,-3.896,3.783,-0.532233,0.167402,0.301204,99782.64,-245,+68,-98
127361,8.309,-4.020,3.608,-0.550324,0.157824,0.328873,99780.77,-247,+68,-98
127371,8.372,-3.803,3.716,-0.556177,0.134944,0.384213,99780.77,-247,+68,-96
127381,8.351,-3.342,3.982,-0.577994,0.152503,0.450726,99784.84,-248,+66,-96
127391,8.153,-3.664,3.899,-0.596618,0.159421,0.511387,99783.39,-248,+66,-96
127401,8.294,-3.378,3.773,-0.615774,0.148246,0.562469,99779.95,-248,+66,-96
127411,8.450,-3.429,4.026,-0.517334,0.122705,0.630580,99779.95,-248,+63,-95
127421,8.344,-4.242,3.862,-0.483279,0.117384,0.687515,99784.87,-248,+62,-94
127431,7.980,-4.289,3.761,-0.518398,0.115788,0.732745,99784.87,-248,+62,-94
127441,8.104,-4.270,3.983,-0.566288,0.117384,0.752965,99779.82,-249,+60,-94
127451,8.119,-4.372,4.091,-0.605664,0.106742,0.791809,99781.34,-249,+58,-93
127461,8.064,-4.399,4.064,-0.632801,0.091311,0.846084,99782.68,-249,+56,-93
127466,8.075,-4.402,3.969,-0.640251,0.085457,0.888121,99782.68,-249,+56,-93
127476,8.145,-4.645,3.909,-0.658875,0.098228,0.921111,99781.89,-249,+53,-92
127486,8.245,-5.092,3.928,-0.715278,0.141861,0.961552,99782.58,-249,+50,-92
127496,8.368,-5.186,3.908,-0.815315,0.202522,0.999864,99782.11,-249,+50,-92
127506,8.815,-5.224,3.952,-0.902049,0.253072,1.049882,99779.77,-251,+48,-91
127516,9.048,-5.305,4.089,-0.954196,0.264246,1.108414,99779.77,-251,+44,-90
127526,9.947,-5.212,3.322,-0.993040,0.242962,1.189295,99782.88,-251,+42,-88
127536,10.530,-5.407,2.358,-1.024434,0.183366,1.276561,99780.85,-251,+42,-88
127546,10.363,-5.821,1.471,-1.048911,0.158357,1.373937,99780.23,-252,+38,-87
127556,10.638,-6.686,0.593,-1.156929,0.186026,1.475038,99782.84,-251,+34,-87
127566,11.280,-6.868,1.507,-1.372966,0.186026,1.528249,99782.84,-251,+30,-86
127577,11.910,-5.323,2.993,-1.541645,0.092375,1.616047,99783.51,-251,+30,-86
127586,12.150,-4.378,4.001,-1.492691,-0.018304,1.777276,99783.57,-250,+26,-87
127596,12.346,-4.722,4.544,-1.342104,-0.185386,1.937441,99780.13,-249,+22,-88
127606,12.009,-6.166,4.681,-1.292617,-0.285423,2.071001,99779.20,-248,+15,-89
127617,11.879,-7.575,4.895,-1.451186,-0.237533,2.099735,99779.20,-248,+15,-89
127626,12.384,-7.799,4.912,-1.792801,-0.094928,2.086964,99781.91,-246,+11,-90
127636,14.422,-6.877,5.209,-2.202525,0.060980,2.047056,99784.15,-244,+7,-92
127646,16.950,-4.788,6.666,-2.560103,0.157292,2.003423,99778.32,-243,+3,-92
127656,17.716,-3.280,7.492,-2.787846,0.270100,2.074193,99779.88,-243,+3,-92
127666,17.713,-2.676,7.451,-2.916084,0.338210,2.178487,99779.88,-241,+1,-93
127676,17.694,-2.020,7.963,-3.024635,0.432925,2.164120,99781.78,-240,-1,-93
127686,17.546,-0.832,10.123,-3.013992,0.564888,2.129533,99781.52,-238,-3,-92
127696,16.057,-0.151,10.913,-2.542543,0.387164,2.151881,99779.69,-238,-3,-92
127707,13.768,-2.524,7.042,-2.281277,-0.009790,2.133790,99777.88,-236,-7,-94
127716,9.841,-8.953,4.683,-2.212103,-0.394506,2.278523,99777.88,-233,-11,-95
127726,7.563,-10.683,2.780,-1.550159,-0.661625,2.339184,99779.79,-229,-16,-100
127736,7.087,-7.161,4.124,-1.155333,-0.587129,2.214138,99781.76,-229,-16,-100
127747,7.250,-3.333,5.085,-0.850966,-0.614267,2.015129,99779.88,-225,-20,-101
127756,5.046,-1.679,3.186,-0.551389,-0.705790,1.769827,99779.16,-221,-26,-105
127766,1.321,-1.971,3.845,-0.207646,-0.595643,1.492065,99779.16,-217,-30,-107
127776,-0.387,-2.211,3.521,0.202611,-0.507313,1.069038,99781.58,-217,-30,-107
127787,-0.812,-3.250,3.334,0.351602,-0.350340,0.587479,99780.91,-215,-33,-108
127796,0.817,-2.738,3.432,0.294134,-0.053955,0.201167,99778.61,-214,-35,-109
127806,3.215,-0.038,1.798,-0.079407,0.099292,-0.229842,99778.20,-213,-35,-109
127816,3.647,3.036,0.468,-0.519462,0.075879,-0.880612,99778.20,-214,-29,-111
127826,3.025,3.565,-0.172,-0.618434,0.088650,-1.472850,99779.77,-214,-29,-111
127837,2.468,3.181,-0.228,-0.316728,0.126430,-1.830960,99781.38,-214,-22,-111
127846,2.533,1.930,0.329,0.207932,0.191347,-2.104997,99778.20,-216,-14,-112
127856,2.496,0.163,1.273,0.629363,0.310008,-2.285382,99778.14,-219,-5,-111
127866,2.656,-1.062,2.115,0.831565,0.445164,-2.412556,99778.14,-219,-5,-111
127877,3.106,-1.594,2.567,0.922556,0.598943,-2.583364,99777.48,-219,+0,-110
127886,4.360,-1.548,2.674,1.018867,0.742613,-2.835583,99779.24,-221,+9,-109
127896,6.005,-1.549,2.288,1.206170,0.811255,-3.111748,99779.66,-223,+19,-108
127906,7.146,-2.354,1.826,1.454665,0.831475,-3.322996,99777.88,-223,+19,-108
127917,7.807,-3.404,1.805,1.698371,0.826686,-3.440592,99777.88,-224,+28,-106
127927,8.570,-4.266,1.827,1.871307,0.803806,-3.579473,99778.76,-226,+38,-105
127936,9.025,-5.177,1.576,1.904830,0.757512,-3.672060,99778.51,-226,+49,-104
127946,9.540,-5.778,1.469,1.935160,0.759108,-3.754005,99779.07,-226,+49,-104
127956,9.436,-6.559,1.650,1.862793,0.763897,-3.857766,99776.48,-226,+58,-104
127967,9.012,-6.899,1.999,1.691986,0.785714,-3.981216,99776.48,-225,+71,-105
127976,8.948,-6.854,2.657,1.569069,0.810191,-4.083913,99776.78,-224,+82,-105
127986,9.575,-6.665,3.218,1.592482,0.849567,-4.171179,99778.23,-224,+82,-105
127996,10.127,-6.775,3.405,1.711674,0.886283,-4.224390,99778.34,-222,+96,-105
128007,10.553,-7.154,3.260,1.795215,0.925127,-4.251527,99775.22,-218,+107,-105
128016,10.990,-7.240,3.163,1.859069,0.961310,-4.264298,99775.22,-215,+118,-106
128026,11.767,-7.484,2.974,1.986243,0.957585,-4.276536,99779.86,-215,+118,-106
128036,12.448,-7.674,2.682,2.113949,0.917677,-4.281857,99781.05,-211,+129,-107
128047,13.112,-7.751,2.864,2.231545,0.876173,-4.252592,99778.50,-206,+139,-109
128057,13.352,-8.350,3.135,2.401643,0.775426,-4.160536,99780.48,-199,+147,-111
128066,13.469,-9.799,3.170,2.560921,0.651090,-4.015271,99780.48,-199,+147,-111
128076,13.293,-11.677,2.922,2.672132,0.468576,-3.805087,99778.86,-194,+153,-114
128087,13.011,-12.790,2.548,2.664151,0.273292,-3.594372,99778.86,-188,+157,-118
128097,12.147,-12.848,2.508,2.622114,0.113659,-3.350134,99782.56,-182,+160,-123
128106,11.305,-13.414,2.594,2.550812,-0.002873,-2.960097,99779.64,-182,+160,-123
128116,9.302,-15.417,2.937,2.433747,-0.076836,-2.483327,99779.64,-179,+159,-126
128126,6.334,-17.966,2.844,2.206004,-0.119405,-1.910777,99783.98,-176,+157,-130
128137,4.156,-19.435,2.704,1.816500,-0.092799,-1.326520,99782.95,-176,+156,-132
128146,3.491,-19.128,2.260,1.225326,-0.032671,-0.690117,99783.31,-176,+156,-132
128156,3.766,-17.737,1.901,0.578813,0.030650,-0.025512,99781.86,-177,+153,-134
128166,4.403,-15.979,2.330,0.092996,0.057256,0.661442,99781.86,-178,+150,-133
128177,4.986,-14.582,3.117,-0.125701,-0.002873,1.302102,99782.14,-181,+145,-134
128186,6.942,-12.778,3.574,-0.133682,-0.128451,1.879441,99782.66,-181,+145,-134
128196,14.050,-4.937,4.826,0.024886,-0.407808,2.165184,99777.19,-184,+137,-134
128206,24.303,10.630,1.349,0.285620,-0.971845,1.512285,99780.27,-185,+130,-137
128217,21.911,10.608,-8.022,-0.478490,-0.643533,1.170671,99780.27,-185,+127,-139
128227,12.959,-8.019,3.642,-0.737095,0.157292,2.279588,99783.87,-185,+127,-139
128236,7.135,-12.192,6.225,0.716097,-0.382799,2.686120,99781.88,-190,+120,-137
128246,7.914,-13.037,5.209,1.383363,-0.482836,2.805312,99779.80,-192,+106,-140
128257,11.209,-8.359,0.785,0.906060,-0.321074,2.828193,99781.84,-194,+94,-140
128267,8.920,0.058,1.003,0.766647,-0.214652,2.706872,99781.84,-194,+94,-140
128276,4.792,1.697,5.018,1.289179,-0.275313,2.478065,99782.16,-196,+83,-140
128286,2.428,-3.499,6.783,1.809050,-0.495074,2.216799,99781.69,-197,+72,-142
128292,3.497,-7.768,6.233,1.715931,-0.547753,2.006615,99780.69,-197,+72,-142
128302,6.395,-10.258,3.919,1.214152,-0.475386,1.751735,99780.69,-197,+61,-144
128312,9.199,-10.960,0.355,0.280831,-0.230084,1.429808,99781.16,-197,+53,-144
128322,9.690,-8.553,0.728,-0.601939,0.151971,1.197809,99781.16,-197,+51,-143
128331,9.311,-5.195,2.628,-1.056361,0.440907,1.020616,99786.40,-197,+51,-143
128342,8.845,-3.354,3.749,-1.168636,0.469109,0.937607,99781.85,-199,+51,-142
128352,8.564,-2.710,3.711,-0.989315,0.370668,0.905148,99780.01,-201,+50,-140
128362,8.592,-1.825,3.627,-0.542343,0.199861,0.918983,99780.01,-201,+49,-140
128371,8.928,-1.449,3.660,-0.008637,0.013623,0.979111,99780.01,-201,+49,-140
128381,8.603,-2.511,3.398,0.341492,-0.093864,1.043497,99785.37,-200,+45,-140
128392,8.214,-3.851,3.597,0.433547,-0.090139,1.030726,99782.29,-201,+39,-139
128402,7.896,-4.886,3.667,0.314886,-0.030010,0.942396,99783.91,-200,+36,-140
128412,7.974,-5.179,3.367,0.068165,0.079072,0.818237,99782.64,-201,+36,-140
128421,7.789,-5.414,3.868,-0.242233,0.166870,0.701882,99782.64,-201,+33,-139
128432,7.789,-4.709,3.805,-0.542875,0.244026,0.574176,99782.91,-202,+32,-139
128442,7.845,-4.016,3.601,-0.774875,0.357366,0.483185,99784.00,-202,+32,-137
128452,7.964,-3.913,3.455,-0.908434,0.429200,0.428910,99780.92,-202,+32,-137
128461,8.403,-3.391,3.201,-0.972819,0.457402,0.417204,99780.92,-204,+33,-136
128472,8.701,-2.496,3.735,-0.918544,0.454742,0.450726,99784.16,-206,+33,-135
128482,8.822,-2.037,4.074,-0.693994,0.341402,0.526818,99782.39,-206,+34,-135
128491,8.475,-2.267,4.079,-0.390691,0.150907,0.627919,99782.39,-206,+34,-135
128501,8.084,-3.178,3.546,-0.133682,0.014687,0.713057,99779.36,-206,+33,-133
128512,8.046,-4.470,3.196,-0.062912,0.006705,0.743919,99784.16,-206,+29,-134
128522,7.926,-5.380,3.536,-0.209242,0.057256,0.710928,99784.16,-206,+27,-134
128532,8.002,-5.013,3.723,-0.413572,0.130155,0.661974,99783.55,-206,+25,-133
128541,8.046,-4.355,4.216,-0.576930,0.183898,0.621534,99783.15,-206,+25,-133
128551,8.124,-3.677,4.265,-0.614177,0.140797,0.616745,99779.18,-207,+25,-132
128562,8.183,-3.450,3.902,-0.530104,0.037568,0.651332,99782.21,-206,+25,-132
128572,8.137,-3.941,3.408,-0.399205,-0.069386,0.694433,99782.68,-206,+22,-133
128582,8.057,-4.686,2.794,-0.320985,-0.119937,0.735405,99783.30,-206,+22,-133
128591,7.847,-4.795,2.713,-0.327370,-0.121001,0.727956,99780.66,-206,+20,-133
128602,8.224,-4.703,2.955,-0.260325,-0.069386,0.733809,99780.04,-206,+19,-133
128612,8.105,-5.239,3.025,-0.285866,-0.012451,0.718910,99780.04,-206,+16,-134
128621,7.718,-5.514,3.023,-0.306618,0.022669,0.692304,99780.04,-206,+16,-134
128631,7.759,-5.565,3.246,-0.336948,0.072155,0.664635,99786.25,-206,+14,-134
128642,7.551,-5.821,3.532,-0.383774,0.116852,0.616213,99782.92,-206,+14,-134
128647,7.613,-5.915,3.564,-0.435921,0.154632,0.584818,99782.72,-206,+14,-134
128657,7.948,-5.834,3.653,-0.541811,0.211567,0.557148,99779.80,-207,+13,-132
128666,8.032,-5.593,3.745,-0.707297,0.283934,0.531607,99779.80,-207,+12,-132
128676,8.290,-5.271,3.659,-0.856287,0.348320,0.538525,99784.23,-207,+12,-132
128687,8.709,-4.591,3.694,-0.975480,0.368540,0.602378,99782.55,-207,+12,-131
128697,8.870,-4.324,3.469,-1.004746,0.346723,0.704011,99781.26,-209,+13,-131
128707,9.079,-4.677,3.201,-1.030287,0.321182,0.827460,99781.41,-209,+12,-129
128716,9.654,-4.938,3.472,-1.103719,0.266907,0.940267,99781.41,-209,+12,-129
128727,9.936,-4.696,3.541,-1.156929,0.176448,1.067974,99783.11,-209,+12,-129
128737,10.470,-4.636,3.514,-1.220250,0.122173,1.204726,99783.27,-209,+10,-129
128747,11.039,-4.872,3.703,-1.305920,0.031714,1.323387,99781.55,-209,+7,-129
128756,11.505,-4.557,3.824,-1.341572,-0.089075,1.477166,99783.73,-209,+7,-129
128766,11.688,-4.919,3.481,-1.273994,-0.180065,1.642120,99783.73,-209,+6,-129
128777,11.860,-6.006,2.974,-1.226636,-0.267331,1.779937,99782.14,-207,+3,-130
128787,11.791,-6.687,2.709,-1.301663,-0.315221,1.889551,99779.44,-206,-1,-132
128796,12.047,-7.136,3.169,-1.480452,-0.297662,1.951808,99778.81,-205,-3,-132
128806,12.468,-6.944,3.579,-1.675737,-0.268928,1.987460,99782.05,-205,-3,-132
128817,13.125,-6.763,3.891,-1.868892,-0.232212,2.013001,99782.05,-204,-7,-133
128827,14.974,-6.139,4.696,-2.064709,-0.218377,2.027900,99782.98,-203,-9,-134
128837,17.489,-4.338,6.721,-2.216892,-0.201350,2.052377,99779.45,-202,-11,-136
128846,17.981,-3.334,7.574,-2.270103,-0.164102,2.169973,99780.02,-202,-11,-136
128857,17.085,-2.874,7.457,-2.305222,-0.102909,2.327477,99779.55,-200,-14,-137
128867,17.156,-2.313,8.895,-2.323846,-0.009258,2.355147,99779.55,-199,-16,-137
128877,17.069,-1.375,10.263,-2.311608,0.095568,2.298211,99779.80,-199,-20,-137
128886,15.554,-0.500,11.577,-2.070562,0.083329,2.322156,99781.00,-199,-20,-137
128897,13.192,-2.708,8.230,-1.730544,-0.229551,2.368982,99781.00,-199,-24,-137
128907,9.019,-8.649,5.394,-1.777902,-0.507313,2.427514,99781.20,-197,-29,-140
128917,6.823,-11.176,2.737,-1.355939,-0.713771,2.445606,99781.20,-194,-34,-142
128926,6.551,-7.676,3.641,-1.028159,-0.525937,2.240211,99782.36,-194,-34,-142
128936,7.208,-4.386,5.218,-0.780728,-0.440799,2.006615,99778.25,-191,-41,-143
128947,5.577,-2.048,4.437,-0.513609,-0.571166,1.748542,99779.70,-189,-47,-145
128957,1.693,-2.929,3.654,-0.233719,-0.549349,1.540487,99777.56,-187,-51,-145
128966,-0.478,-4.060,4.315,0.097785,-0.371093,1.179717,99777.56,-187,-51,-145
128976,-0.326,-4.560,3.350,0.077565,-0.167827,0.677405,99781.03,-187,-56,-144
128987,1.092,-3.137,3.547,-0.349187,0.131751,0.179883,99778.53,-188,-57,-144
128997,3.024,0.076,2.115,-0.877572,0.341934,-0.345310,99781.55,-190,-55,-145
129002,3.780,1.977,1.076,-1.349021,0.423879,-0.796539,99778.53,-190,-55,-145
129011,3.515,3.047,-0.109,-1.577296,0.428668,-1.180190,99778.53,-194,-48,-145
129021,3.124,3.706,-1.075,-1.425113,0.401531,-1.527125,99778.53,-198,-40,-145
129032,2.690,3.358,-1.139,-0.873315,0.395677,-1.749015,99781.20,-198,-40,-145
129042,2.944,2.317,0.023,-0.127297,0.433989,-1.894281,99779.54,-201,-33,-145
129052,3.397,0.745,1.376,0.500592,0.507421,-2.041144,99779.07,-206,-29,-143
129061,3.642,-0.726,2.302,0.902335,0.572338,-2.183217,99779.07,-210,-23,-141
129072,3.677,-2.011,2.501,1.134335,0.672375,-2.378501,99779.74,-210,-23,-141
129082,4.650,-2.255,2.683,1.274280,0.795824,-2.614226,99779.74,-214,-17,-139
129092,6.144,-1.596,2.542,1.561087,0.858081,-2.828134,99778.59,-221,-12,-136
129101,7.421,-1.590,2.026,2.014977,0.828815,-3.050556,99779.52,-226,-5,-132
129112,7.999,-2.359,1.637,2.322536,0.813916,-3.211253,99777.13,-226,-5,-132
129122,8.175,-3.238,1.591,2.434812,0.824026,-3.294262,99777.13,-229,+1,-129
129132,8.637,-4.099,1.232,2.606683,0.839457,-3.383657,99779.38,-234,+7,-125
129142,8.859,-5.374,0.857,2.576885,0.828283,-3.495399,99779.47,-238,+16,-122
129152,8.859,-6.311,0.714,2.352334,0.844246,-3.647051,99779.73,-238,+16,-122
129162,8.807,-6.653,1.355,2.052757,0.893200,-3.814133,99777.21,-239,+27,-119
129172,8.920,-6.828,2.131,1.831931,0.950136,-4.012078,99780.54,-243,+38,-115
129182,9.248,-6.836,2.773,1.658995,1.008136,-4.200977,99775.49,-244,+50,-113
129192,10.025,-6.625,3.304,1.553105,1.094870,-4.359546,99775.80,-244,+50,-113
129202,10.784,-6.310,3.617,1.543527,1.169897,-4.481931,99775.80,-245,+66,-111
129212,11.171,-6.525,3.721,1.596738,1.208209,-4.536738,99778.73,-246,+79,-107
129222,11.801,-7.057,3.578,1.673362,1.233218,-4.545252,99778.73,-244,+94,-103
129231,12.959,-7.680,3.480,1.806390,1.249182,-4.535674,99780.00,-244,+94,-103
129238,13.687,-8.086,3.439,1.935160,1.241200,-4.519178,99781.83,-242,+108,-101
129247,14.366,-8.125,3.430,2.072445,1.205016,-4.480334,99776.67,-239,+120,-98
129257,14.912,-8.626,3.530,2.295931,1.112429,-4.370720,99781.94,-239,+120,-98
129267,15.054,-11.013,3.473,2.547619,0.945879,-4.185014,99781.94,-236,+131,-96
129276,14.476,-13.054,2.833,2.637545,0.705897,-3.961528,99783.53,-232,+140,-96
129287,13.734,-13.762,1.811,2.509839,0.435054,-3.675785,99783.27,-229,+150,-97
129297,11.634,-15.341,0.636,2.290610,0.263182,-3.351198,99782.23,-229,+150,-97
129307,9.424,-16.013,1.719,2.049564,0.240834,-2.898905,99781.97,-223,+157,-99
129316,6.978,-16.491,3.175,1.850023,0.233384,-2.301877,99781.97,-221,+162,-100
129327,4.238,-17.649,3.151,1.533949,0.214760,-1.635676,99781.91,-221,+163,-101
129337,3.355,-17.881,1.990,1.017803,0.170063,-0.876355,99782.95,-221,+163,-101
129347,4.656,-16.994,1.796,0.542097,0.122705,-0.061695,99781.70,-219,+163,-101
129357,5.351,-15.957,1.550,0.298923,0.052999,0.688579,99782.95,-221,+160,-100
129367,5.646,-14.663,1.887,0.091400,-0.048102,1.373937,99782.95,-224,+154,-100
129377,6.686,-13.418,2.307,-0.042160,-0.172616,2.018322,99784.02,-224,+154,-100
129387,9.267,-10.055,2.405,-0.049609,-0.358854,2.473276,99781.68,-227,+146,-100
129397,14.947,-0.360,4.366,0.180794,-0.647790,2.457844,99779.91,-230,+136,-102
129406,24.227,14.851,1.340,0.492611,-1.034634,1.572414,99780.23,-229,+129,-106
129417,21.628,12.640,-7.618,-0.245958,-0.651515,1.093515,99780.23,-229,+129,-106
129427,12.457,-9.122,1.801,-0.494985,-0.075772,2.365257,99783.40,-231,+125,-104
129437,6.504,-13.869,5.873,1.190739,-0.663753,2.922376,99785.16,-233,+112,-107
129446,7.657,-16.311,4.771,1.784041,-0.685037,2.945257,99782.55,-236,+96,-109
129457,10.805,-10.022,0.149,1.077399,-0.414194,2.807973,99782.15,-236,+96,-109
129467,9.007,-0.136,1.552,0.903400,-0.296065,2.571184,99782.15,-237,+85,-111
129477,4.555,0.498,4.933,1.347711,-0.396634,2.342376,99784.84,-238,+73,-112
129486,2.269,-4.843,6.772,1.689858,-0.563716,2.086964,99780.57,-238,+61,-114
129497,5.119,-9.571,5.174,1.237564,-0.507845,1.809203,99781.82,-238,+61,-114
129507,8.305,-10.563,1.675,0.302648,-0.241790,1.452157,99782.29,-237,+53,-114
129517,9.252,-8.843,0.820,-0.597150,0.145054,1.166414,99782.29,-238,+49,-115
129527,9.323,-5.921,2.305,-1.220250,0.524980,0.983368,99783.07,-239,+48,-112
129537,8.982,-3.179,3.899,-1.497480,0.647365,0.892910,99781.57,-239,+48,-112
129547,8.383,-2.408,4.400,-1.346893,0.555310,0.860451,99781.77,-239,+48,-110
129557,8.277,-1.843,4.119,-0.852563,0.335017,0.846616,99780.68,-241,+46,-108
129567,8.989,-1.303,3.650,-0.223609,0.087586,0.930689,99780.68,-241,+42,-108
129576,8.855,-2.617,3.332,0.229749,-0.062469,1.028066,99781.88,-241,+42,-108
129587,8.336,-4.313,3.334,0.385125,-0.082689,1.039772,99783.49,-241,+38,-109
129593,8.051,-5.034,3.478,0.329253,-0.041185,0.987093,99780.73,-241,+33,-107
129602,7.944,-5.286,3.706,0.163235,0.027458,0.897699,99780.73,-241,+33,-107
129612,7.929,-5.219,4.087,-0.114526,0.084925,0.758286,99780.41,-242,+31,-107
129623,7.601,-4.829,4.690,-0.382178,0.098228,0.624726,99780.41,-241,+29,-107
129632,7.470,-4.360,4.331,-0.600343,0.132283,0.517772,99782.34,-241,+28,-107
129642,7.686,-4.209,3.653,-0.827021,0.238705,0.437424,99782.01,-241,+28,-107
129652,8.072,-4.010,3.332,-0.996232,0.319586,0.394855,99784.21,-242,+28,-106
129662,8.417,-2.949,3.408,-0.995700,0.335549,0.404965,99784.21,-242,+29,-105
129672,8.898,-1.605,3.518,-0.790306,0.333421,0.475736,99784.21,-243,+28,-104
129682,8.614,-2.425,3.896,-0.496581,0.273292,0.544378,99781.74,-243,+28,-104
129692,8.159,-3.875,3.517,-0.248618,0.168467,0.601314,99782.01,-244,+27,-104
129702,7.937,-4.688,3.621,-0.184233,0.106742,0.605570,99781.43,-243,+24,-103
129712,7.782,-4.726,4.025,-0.263517,0.082265,0.551295,99782.68,-244,+23,-103
129722,7.644,-4.433,4.244,-0.368875,0.106210,0.495956,99782.68,-244,+23,-103
129732,7.631,-4.277,4.367,-0.433792,0.133347,0.459240,99784.54,-244,+21,-103
129742,7.792,-4.154,4.265,-0.454545,0.126962,0.446470,99781.41,-244,+21,-102
129753,7.993,-4.095,4.009,-0.436453,0.092907,0.457112,99780.90,-244,+19,-101
129762,8.198,-4.145,3.474,-0.414636,0.067366,0.485846,99781.04,-244,+19,-101
129772,8.313,-4.475,3.208,-0.417297,0.070558,0.516176,99783.90,-244,+18,-101
129782,8.169,-4.522,3.313,-0.441774,0.058320,0.527350,99783.74,-244,+18,-103
129792,8.337,-4.551,3.427,-0.429003,0.069494,0.550763,99783.74,-245,+15,-102
129802,8.239,-4.248,3.601,-0.434324,0.049274,0.582158,99782.49,-245,+15,-102
129812,7.967,-4.588,3.817,-0.441774,0.053531,0.605570,99780.93,-243,+13,-101
129822,8.003,-4.834,3.687,-0.469976,0.057256,0.625791,99780.93,-243,+13,-101
129832,8.001,-4.791,3.848,-0.546067,0.071091,0.641222,99783.59,-243,+11,-101
129843,7.929,-4.743,4.143,-0.645572,0.095035,0.658781,99783.27,-243,+11,-101
129852,8.172,-4.654,3.886,-0.757847,0.137072,0.695497,99783.27,-243,+9,-101
129862,8.427,-4.598,3.672,-0.871186,0.177512,0.744451,99784.15,-243,+9,-100
129872,8.487,-4.617,3.388,-0.964306,0.197733,0.816818,99783.93,-244,+7,-100
129883,8.743,-4.817,3.295,-1.028159,0.204118,0.903020,99782.68,-244,+7,-100
129892,9.229,-4.715,3.545,-1.073388,0.159953,0.991882,99782.05,-244,+5,-100
129902,9.540,-4.554,3.922,-1.075517,0.055127,1.106286,99781.95,-243,+3,-100
129912,9.744,-4.513,3.935,-1.037205,-0.058212,1.235588,99781.95,-243,+0,-100
129922,10.142,-4.770,3.717,-1.019113,-0.141753,1.368616,99781.95,-243,+0,-100
129932,10.633,-5.262,3.224,-1.071792,-0.190707,1.471313,99786.16,-241,-3,-101
129942,10.901,-5.789,3.099,-1.176618,-0.205074,1.575607,99782.41,-241,-7,-103
129952,11.240,-5.894,2.794,-1.269205,-0.221570,1.683625,99783.19,-240,-12,-104
129963,11.716,-5.783,2.801,-1.328801,-0.273717,1.794836,99783.23,-237,-15,-106
129972,12.095,-5.989,3.285,-1.363388,-0.342891,1.914028,99783.23,-237,-15,-106
129982,12.314,-6.531,3.676,-1.396911,-0.396102,2.005551,99783.96,-234,-20,-107
129992,12.781,-6.896,3.989,-1.512379,-0.398230,2.072065,99781.46,-233,-25,-111
130002,14.003,-7.029,4.388,-1.721498,-0.368432,2.098670,99780.38,-229,-29,-113
130013,16.058,-6.490,5.707,-1.943920,-0.370028,2.100267,99780.38,-229,-29,-113
130022,18.066,-4.562,7.087,-2.108874,-0.346084,2.147092,99780.38,-227,-32,-115
130032,18.285,-3.528,7.121,-2.272763,-0.255625,2.288101,99782.16,-224,-36,-118
130042,17.643,-3.113,7.112,-2.360029,-0.238597,2.382285,99780.97,-221,-40,-121
130053,18.142,-2.111,8.441,-2.353644,-0.200285,2.362597,99783.52,-221,-40,-121
130062,17.902,-1.149,10.094,-2.261057,-0.102377,2.318432,99780.50,-218,-43,-124
130072,15.973,-0.568,11.453,-1.991810,-0.139093,2.340780,99780.50,-216,-48,-126
130082,12.975,-2.436,8.891,-1.763535,-0.404083,2.339184,99780.21,-212,-51,-129
130093,8.908,-7.756,7.304,-1.797590,-0.602560,2.478597,99781.82,-212,-51,-129
130103,7.005,-9.887,3.230,-1.274526,-0.895221,2.577569,99781.29,-207,-56,-132
130112,6.855,-6.678,3.981,-0.836067,-0.619056,2.371110,99778.85,-202,-64,-136
130122,7.188,-3.570,5.949,-0.474765,-0.534983,2.097606,99778.90,-198,-70,-138
130132,5.609,-1.943,4.343,-0.269902,-0.617460,1.839001,99778.85,-198,-70,-138
130142,1.603,-2.728,4.410,-0.128361,-0.483368,1.586249,99778.85,-194,-74,-139
130152,0.093,-3.396,3.761,0.070648,-0.271588,1.160029,99779.05,-192,-79,-140
130162,0.427,-4.088,3.249,-0.164013,0.041292,0.613552,99780.15,-191,-79,-139
130172,2.305,-2.553,2.877,-0.728049,0.360026,0.093149,99780.15,-191,-79,-139
130183,4.496,0.969,1.137,-1.551223,0.538105,-0.585114,99780.78,-193,-76,-140
130192,4.419,3.286,-0.088,-1.943920,0.540943,-1.151988,99780.78,-195,-68,-141
130202,3.842,4.328,-1.454,-1.700746,0.483476,-1.541492,99777.23,-199,-59,-142
130212,3.448,4.172,-1.515,-1.023370,0.464852,-1.758061,99779.47,-199,-59,-142
130223,3.564,3.402,-0.298,-0.124637,0.473365,-1.887364,99779.47,-202,-51,-142
130233,3.217,1.285,1.372,0.667143,0.482411,-2.041676,99779.96,-206,-46,-140
130242,2.900,-0.954,2.309,1.141253,0.542540,-2.228446,99776.95,-209,-40,-137
130252,3.152,-1.993,2.653,1.268427,0.700044,-2.523767,99775.48,-209,-40,-137
130263,4.330,-1.721,2.812,1.299289,0.855420,-2.845161,99775.48,-213,-34,-134
130272,5.553,-0.948,2.653,1.515326,0.895329,-3.087271,99775.48,-218,-27,-131
130282,6.333,-1.042,2.282,1.925050,0.886815,-3.257546,99781.28,-222,-19,-128
130292,6.933,-2.135,1.920,2.266133,0.917145,-3.424097,99779.52,-222,-19,-128
130302,7.642,-3.213,1.675,2.411931,0.996429,-3.594727,99777.14,-227,-11,-123
130312,8.432,-3.747,1.214,2.420977,1.041126,-3.717821,99777.14,-230,-3,-119
130322,8.931,-4.463,0.904,2.360848,1.078374,-3.805087,99777.14,-234,+7,-115
130332,9.357,-5.037,0.526,2.491747,1.075714,-3.899803,99779.63,-234,+7,-115
130342,9.122,-6.069,0.965,2.472059,1.010264,-4.037087,99778.45,-238,+16,-112
130353,9.639,-6.599,1.854,2.269325,0.961310,-4.190867,99777.34,-239,+27,-109
130362,10.348,-6.747,2.719,1.980922,0.976741,-4.406903,99777.34,-241,+41,-107
130372,10.905,-7.324,3.348,1.761693,1.029420,-4.627729,99780.80,-241,+41,-107
130382,11.199,-7.712,3.740,1.590885,1.102319,-4.802793,99780.80,-242,+55,-104
130393,11.557,-7.629,4.329,1.537674,1.193842,-4.886867,99777.31,-243,+71,-103
130402,12.508,-7.752,4.693,1.612702,1.262484,-4.895912,99777.98,-242,+87,-100
130412,13.699,-7.897,4.637,1.765949,1.280576,-4.853343,99777.06,-240,+103,-97
130422,14.748,-8.405,4.628,2.013913,1.252374,-4.715527,99777.06,-240,+103,-97
130433,15.378,-10.118,4.268,2.319876,1.156062,-4.501619,99782.42,-238,+116,-96
130443,15.627,-12.833,3.728,2.501325,0.998026,-4.247271,99781.91,-234,+128,-96
130452,14.615,-14.644,3.212,2.544426,0.773475,-3.991858,99779.25,-231,+138,-96
130462,13.189,-15.664,2.089,2.456628,0.509549,-3.659822,99778.11,-231,+138,-96
130472,11.288,-17.479,0.852,2.176738,0.316393,-3.258079,99782.06,-227,+147,-98
130483,8.754,-17.758,1.255,1.831399,0.237109,-2.762152,99781.86,-222,+153,-101
130493,6.079,-17.795,2.910,1.579711,0.252540,-2.164061,99782.42,-221,+158,-101
130502,4.012,-18.701,3.216,1.251931,0.271696,-1.427089,99782.42,-221,+158,-101
130512,2.882,-19.740,2.678,0.734721,0.288723,-0.702888,99780.14,-220,+159,-101
130523,3.501,-18.509,2.198,0.171217,0.297769,0.103259,99780.14,-219,+158,-101
130533,6.128,-15.956,3.237,-0.232655,0.311072,0.840231,99781.45,-223,+155,-99
130542,7.258,-13.792,2.958,-0.315664,0.192944,1.442047,99781.04,-223,+155,-99
130552,7.498,-12.118,2.010,-0.353444,-0.018836,2.068872,99781.24,-226,+149,-97
130563,8.740,-9.644,1.692,-0.173591,-0.301918,2.572780,99780.46,-227,+140,-98
130573,10.876,-5.271,2.434,0.156317,-0.556799,2.759551,99780.46,-232,+129,-100
130582,18.711,5.242,3.429,0.617124,-0.839349,2.464762,99782.29,-232,+129,-100
130592,28.889,25.093,-7.454,0.720354,-1.370927,1.143001,99781.63,-231,+121,-104
130603,19.624,8.370,-5.483,-0.203921,-0.416854,1.389368,99782.26,-231,+118,-107
130613,8.569,-13.368,0.933,0.650647,-0.470597,2.602046,99782.26,-232,+105,-108
130622,2.553,-17.753,7.201,2.270922,-0.962267,2.865440,99782.26,-232,+105,-108
130632,7.311,-19.113,2.768,2.118206,-0.600964,2.885661,99782.82,-233,+89,-112
130642,11.918,-5.544,0.133,1.071546,-0.227955,2.535532,99782.24,-234,+77,-113
130653,8.649,1.407,2.850,0.938519,-0.135368,2.356744,99783.96,-236,+64,-114
130662,3.917,-1.467,6.974,1.440298,-0.288084,2.184340,99784.38,-236,+64,-114
130672,4.183,-5.836,7.441,1.573326,-0.557331,2.002891,99784.38,-234,+53,-114
130682,6.786,-9.574,4.546,0.828372,-0.384928,1.675643,99781.81,-233,+46,-115
130693,8.117,-10.298,1.820,-0.076747,-0.048102,1.385643,99782.23,-234,+40,-115
130703,8.810,-7.134,2.555,-0.900985,0.425476,1.120653,99781.27,-234,+40,-115
130712,8.221,-4.660,4.414,-1.585278,0.685677,0.896102,99781.27,-235,+38,-114
130722,7.735,-4.360,4.156,-1.747039,0.618631,0.709864,99785.38,-236,+40,-112
130733,8.513,-3.054,2.404,-1.384672,0.463255,0.594928,99785.38,-238,+39,-110
130743,9.617,-0.538,2.720,-0.782856,0.305751,0.690176,99781.84,-238,+39,-110
130752,9.564,-0.900,3.340,-0.023004,0.087586,0.870029,99784.34,-238,+37,-109
130762,8.422,-3.616,3.639,0.464409,-0.083753,0.971662,99782.88,-238,+34,-110
130774,7.665,-5.326,3.215,0.497755,-0.063179,0.893442,99779.47,-238,+29,-109
130783,7.511,-5.753,3.556,0.293070,0.066834,0.743387,99779.47,-238,+29,-109
130793,7.517,-5.845,4.294,-0.045884,0.168467,0.551295,99784.67,-238,+25,-108
130802,7.524,-5.560,4.654,-0.369407,0.216356,0.364525,99780.72,-238,+25,-108
130812,7.534,-5.353,4.682,-0.665260,0.265843,0.210745,99782.95,-239,+25,-107
130823,7.595,-4.832,4.269,-0.954728,0.344595,0.103791,99783.71,-239,+25,-107
130833,7.906,-3.775,3.767,-1.193113,0.410044,0.068672,99784.49,-239,+27,-106
130842,8.452,-2.297,3.383,-1.221847,0.427604,0.105387,99783.35,-239,+29,-106
130852,9.052,-1.185,3.685,-1.032948,0.379182,0.186268,99783.35,-241,+30,-104
130863,9.004,-1.412,4.301,-0.674306,0.233384,0.292158,99779.18,-241,+30,-104
130873,8.490,-2.283,4.227,-0.335884,0.079604,0.399112,99779.18,-241,+29,-103
130882,7.930,-3.234,4.081,-0.182104,0.022669,0.478928,99783.77,-240,+29,-103
130892,7.667,-3.949,4.095,-0.215095,0.050870,0.493295,99783.35,-241,+27,-103
130903,7.679,-4.046,4.467,-0.363022,0.098228,0.474139,99782.48,-240,+26,-103
130913,7.798,-3.730,4.613,-0.501370,0.121109,0.467754,99783.98,-240,+26,-103
130923,8.119,-3.437,4.293,-0.571609,0.121109,0.478928,99783.98,-241,+25,-103
130932,8.260,-3.532,3.712,-0.579058,0.097696,0.521497,99783.23,-241,+24,-102
130942,8.713,-3.252,3.389,-0.593425,0.083861,0.567258,99780.72,-241,+22,-102
130953,8.495,-2.656,4.014,-0.511480,0.013091,0.635901,99780.92,-241,+22,-102
130963,8.642,-3.277,3.454,-0.315664,-0.058744,0.735937,99780.92,-241,+22,-103
130972,8.453,-3.713,3.102,-0.192747,-0.093864,0.824800,99780.92,-241,+18,-103
130982,8.149,-4.682,3.380,-0.175187,-0.078432,0.864176,99784.70,-239,+15,-103
130993,8.325,-4.682,3.411,-0.242765,-0.067258,0.915790,99783.61,-239,+15,-103
131003,8.116,-4.635,4.085,-0.325242,-0.021497,0.933350,99783.25,-239,+12,-103
131012,7.776,-5.420,4.007,-0.444434,0.029586,0.923772,99781.16,-239,+9,-102
131022,7.987,-5.541,3.802,-0.629077,0.098760,0.914726,99781.16,-238,+7,-103
131033,8.341,-4.922,4.012,-0.848838,0.173256,0.925368,99784.05,-238,+7,-103
131043,8.384,-4.934,3.733,-0.980801,0.220081,0.940267,99780.73,-239,+5,-102
131053,8.515,-5.206,3.444,-1.072324,0.252008,0.994011,99782.16,-239,+3,-101
131062,8.682,-5.301,3.382,-1.130324,0.255200,1.077020,99782.16,-238,+1,-101
131073,8.885,-5.228,4.133,-1.205884,0.201457,1.156836,99782.77,-238,+1,-101
131083,8.936,-4.951,4.601,-1.249517,0.088118,1.236120,99778.45,-239,+0,-102
131092,9.467,-4.877,4.046,-1.223443,0.011494,1.347864,99778.45,-238,-3,-102
131102,10.293,-5.562,3.516,-1.239406,-0.031607,1.431405,99780.58,-236,-6,-103
131112,10.722,-5.963,3.101,-1.351682,-0.064065,1.508561,99782.81,-236,-6,-103
131123,11.151,-5.838,2.827,-1.482581,-0.040653,1.607001,99782.81,-236,-9,-103
131128,11.707,-5.749,2.666,-1.537388,-0.052891,1.686285,99782.88,-235,-14,-104
131137,12.262,-5.579,2.606,-1.556012,-0.130579,1.771955,99782.48,-235,-14,-104
131147,12.547,-5.905,3.157,-1.537920,-0.249240,1.902322,99783.30,-233,-18,-106
131158,12.921,-6.561,3.520,-1.564526,-0.316817,2.007147,99781.70,-231,-23,-107
131168,13.825,-7.132,3.808,-1.703938,-0.330120,2.069404,99781.70,-229,-28,-110
131178,15.813,-7.089,5.173,-1.926892,-0.334909,2.114634,99781.39,-229,-28,-110
131187,18.010,-5.988,6.973,-2.089186,-0.370561,2.145496,99777.59,-225,-31,-113
131197,18.978,-4.636,6.575,-2.247222,-0.337038,2.243404,99779.83,-223,-35,-115
131208,19.001,-3.103,6.919,-2.485607,-0.260946,2.305129,99779.31,-221,-40,-118
131218,19.018,-1.306,7.417,-2.539351,-0.302451,2.303533,99779.31,-221,-40,-118
131227,18.769,-0.351,7.809,-2.355773,-0.366304,2.349294,99782.14,-216,-41,-121
131237,17.192,-0.465,8.065,-2.073222,-0.471129,2.428578,99780.42,-213,-48,-125
131248,13.896,-2.673,9.054,-1.686911,-0.697808,2.515312,99778.86,-208,-53,-128
131258,10.392,-5.644,8.788,-1.387333,-0.845203,2.659514,99780.31,-208,-53,-128
131267,8.617,-9.385,6.731,-0.990379,-0.988872,2.902688,99780.31,-202,-62,-132
131277,7.987,-7.727,3.755,-0.447627,-0.971845,2.746780,99780.78,-197,-70,-134
131288,7.863,-4.342,5.472,-0.268838,-0.787735,2.424321,99780.69,-192,-79,-137
131298,6.207,-2.757,4.830,-0.073022,-0.879258,2.122615,99777.72,-192,-79,-137
131308,2.867,-2.845,3.625,0.095657,-0.797313,1.842726,99779.08,-187,-86,-138
131317,1.364,-3.135,3.455,0.163235,-0.566909,1.427680,99779.08,-185,-92,-139
131328,1.084,-3.095,2.381,-0.085793,-0.315221,0.859387,99781.30,-183,-97,-140
131338,1.585,-2.302,3.111,-0.541811,0.025329,0.354947,99781.97,-183,-97,-140
131348,3.246,-0.426,2.582,-1.029755,0.287127,-0.107989,99781.77,-184,-96,-140
131357,3.939,2.290,1.518,-1.363388,0.310008,-0.648080,99776.97,-186,-92,-142
131363,3.775,3.277,0.784,-1.331994,0.308944,-1.013640,99776.97,-186,-92,-142
131373,3.534,3.323,0.084,-1.119150,0.286595,-1.252025,99776.97,-189,-87,-142
131383,3.149,3.013,-0.184,-0.657810,0.262118,-1.468593,99781.59,-194,-82,-142
131393,3.144,2.074,0.141,-0.100692,0.271696,-1.665474,99777.13,-199,-77,-142
131403,3.356,0.894,1.028,0.383528,0.317457,-1.860758,99779.05,-199,-77,-142
131412,3.510,-0.382,1.905,0.734189,0.390888,-2.075199,99779.74,-204,-74,-140
131423,3.564,-1.574,2.326,0.931069,0.491457,-2.334336,99778.70,-210,-69,-137
131433,3.971,-2.137,2.640,0.976831,0.614907,-2.615290,99775.57,-218,-64,-134
131442,4.761,-1.774,2.570,1.028977,0.677164,-2.888794,99775.57,-218,-64,-134
131452,5.784,-1.065,2.378,1.258849,0.672907,-3.155381,99776.62,-224,-57,-130
131463,6.461,-1.077,2.094,1.594610,0.664925,-3.382060,99777.13,-233,-48,-125
131473,6.938,-1.890,2.070,1.848426,0.714411,-3.586390,99777.13,-241,-39,-121
131483,7.391,-2.659,2.275,1.927711,0.780393,-3.769436,99777.08,-241,-39,-121
131492,8.235,-3.620,1.972,1.962830,0.834668,-3.921087,99777.23,-249,-29,-114
131503,9.304,-4.415,1.350,1.948463,0.873512,-4.017931,99776.61,-256,-16,-110
131513,9.514,-5.079,1.294,2.032537,0.914485,-4.115839,99776.03,-264,-2,-103
131523,9.871,-6.091,1.931,2.092133,0.926723,-4.253124,99776.03,-264,-2,-103
131533,10.248,-7.075,2.442,1.950059,0.908631,-4.429252,99777.98,-270,+12,-98
131543,10.845,-7.719,3.274,1.746794,0.915017,-4.640500,99778.29,-273,+32,-93
131553,11.385,-7.925,4.009,1.624408,0.983659,-4.869839,99778.60,-276,+52,-88
131563,11.930,-7.485,4.543,1.611638,1.092741,-5.031600,99778.60,-276,+52,-88
131572,12.677,-7.662,4.871,1.722316,1.220980,-5.097050,99778.60,-276,+74,-83
131582,13.574,-8.464,5.054,1.886206,1.337512,-5.074701,99780.32,-275,+98,-79
131593,14.478,-9.640,5.004,2.132041,1.383273,-4.981582,99778.38,-272,+118,-75
131603,15.128,-11.418,4.451,2.401289,1.336980,-4.812903,99780.01,-272,+118,-75
131613,15.474,-13.678,2.837,2.500261,1.217787,-4.608573,99781.30,-266,+138,-72
131622,15.651,-14.646,0.823,2.320940,1.006007,-4.407435,99781.30,-261,+156,-71
131633,15.268,-14.597,-0.402,2.068188,0.741017,-4.109454,99783.71,-253,+172,-73
131643,14.461,-15.294,0.231,1.835124,0.554778,-3.707711,99782.15,-253,+172,-73
131653,10.372,-17.705,1.129,1.717527,0.395145,-3.142611,99778.13,-246,+186,-75
131663,5.793,-18.933,3.546,1.555234,0.285531,-2.448208,99778.13,-239,+197,-76
131673,2.694,-19.826,3.247,1.374317,0.238705,-1.670263,99782.81,-234,+202,-78
131683,2.313,-20.113,1.796,1.082721,0.188687,-0.814631,99782.81,-234,+202,-78
131693,3.687,-18.851,0.571,0.731528,0.140797,0.100598,99782.81,-233,+204,-80
131702,5.135,-16.550,0.920,0.459620,0.033843,0.965277,99780.31,-235,+202,-80
131713,5.537,-14.817,1.894,0.436739,-0.212524,1.753863,99781.61,-238,+196,-81
131723,5.890,-13.139,3.036,0.659693,-0.513698,2.455184,99781.61,-238,+196,-81
131733,8.968,-7.704,4.540,0.981088,-0.785606,2.892046,99783.43,-243,+183,-85
131743,18.073,6.335,6.927,1.492977,-1.117643,2.579165,99780.41,-246,+172,-91
131752,27.273,23.181,-4.926,1.470096,-1.461385,1.175460,99780.98,-246,+166,-98
131763,18.802,3.334,-9.045,-0.320985,-0.352469,1.549533,99782.02,-246,+166,-98
131773,7.644,-15.721,3.994,0.619785,-0.320542,2.886193,99780.55,-248,+159,-96
131783,5.379,-16.680,9.493,2.249637,-0.757936,3.194816,99782.85,-252,+144,-102
131793,9.732,-16.315,3.315,1.836720,-0.501460,3.106486,99780.82,-254,+127,-106
131803,10.657,-4.077,1.531,1.003436,-0.231680,2.952706,99780.82,-254,+127,-106
131813,6.587,2.257,4.925,1.455197,-0.295001,2.789881,99780.09,-258,+116,-107
131823,2.500,-1.126,7.398,2.087344,-0.555735,2.500413,99780.09,-258,+101,-110
131833,3.199,-7.837,5.306,1.966555,-0.667478,2.182212,99779.10,-259,+88,-113
131843,7.018,-13.517,2.018,1.001840,-0.447184,1.859221,99782.54,-259,+80,-114
131853,9.120,-13.647,0.012,-0.169334,-0.124194,1.561772,99782.34,-259,+80,-114
131863,9.448,-9.290,1.942,-1.080306,0.314265,1.218561,99781.24,-260,+76,-114
131873,8.898,-5.170,3.718,-1.631571,0.537751,0.955699,99781.24,-263,+74,-111
131884,8.116,-2.832,3.693,-1.775773,0.472301,0.850341,99782.87,-263,+75,-109
131893,8.189,-1.883,2.989,-1.460232,0.352044,0.826396,99783.21,-263,+75,-109
131903,8.922,-0.948,3.127,-0.809994,0.192944,0.853534,99779.93,-263,+73,-107
131913,9.085,-1.338,3.372,-0.046416,-0.011919,0.951974,99779.93,-264,+70,-107
131922,8.529,-3.111,3.103,0.478244,-0.127386,1.022745,99779.93,-265,+65,-107
131933,8.147,-4.212,3.181,0.595840,-0.113552,0.988157,99784.05,-265,+65,-107
131943,7.697,-4.794,3.359,0.418115,-0.045974,0.888653,99782.27,-265,+60,-108
131953,7.827,-4.944,2.815,0.289877,0.062577,0.752433,99780.98,-265,+56,-107
131962,8.142,-5.175,3.414,0.049363,0.191347,0.650800,99782.74,-265,+54,-107
131973,7.944,-5.493,4.079,-0.225737,0.246687,0.541717,99782.74,-265,+54,-107
131983,7.792,-5.029,3.947,-0.507223,0.281806,0.423589,99783.54,-266,+53,-106
131993,7.729,-4.484,3.777,-0.799884,0.350980,0.350158,99783.90,-267,+53,-104
132003,7.920,-4.011,3.261,-0.973884,0.407916,0.307057,99782.95,-268,+53,-103
132013,8.475,-3.245,3.217,-0.953663,0.416430,0.293754,99782.95,-268,+53,-103
132023,8.749,-2.937,3.231,-0.756251,0.335017,0.348029,99781.83,-269,+53,-101
132033,8.914,-2.813,2.937,-0.474765,0.240301,0.428910,99781.83,-270,+52,-100
132043,8.707,-3.165,3.055,-0.237444,0.168999,0.507662,99781.36,-269,+50,-100
132052,8.380,-3.480,3.287,-0.096435,0.151971,0.568855,99783.91,-269,+50,-100
132063,8.074,-4.148,3.579,-0.096435,0.199329,0.590671,99780.05,-270,+48,-99
132074,7.863,-4.951,4.054,-0.251456,0.259280,0.564953,99783.11,-271,+46,-97
132083,7.855,-4.714,4.396,-0.411444,0.284467,0.535332,99783.11,-271,+45,-97
132093,7.753,-4.599,4.416,-0.562031,0.297237,0.524690,99783.22,-271,+45,-97
132103,8.100,-3.883,4.230,-0.692398,0.284999,0.502873,99782.84,-271,+44,-95
132113,8.205,-3.439,4.112,-0.670581,0.229127,0.549699,99781.66,-272,+42,-94
132123,8.580,-3.680,3.374,-0.563095,0.192944,0.604506,99782.68,-272,+40,-93
132133,8.321,-3.856,3.284,-0.522123,0.167934,0.664635,99785.02,-272,+40,-93
132144,8.147,-4.141,3.194,-0.469444,0.159421,0.705075,99784.09,-273,+38,-93
132153,8.196,-4.479,3.553,-0.469444,0.202522,0.726891,99784.09,-273,+36,-92
132163,8.057,-5.020,3.751,-0.547132,0.255200,0.725295,99780.24,-273,+35,-92
132173,7.871,-5.336,3.384,-0.668985,0.303622,0.745515,99780.24,-273,+35,-92
132183,7.889,-5.229,3.406,-0.770086,0.355769,0.764671,99783.34,-274,+33,-89
132193,8.098,-5.166,3.562,-0.882893,0.385035,0.793937,99783.08,-275,+29,-88
132203,8.497,-4.686,3.676,-0.965370,0.370136,0.838634,99783.77,-275,+28,-87
132213,8.977,-4.053,3.529,-0.977608,0.301494,0.942396,99779.44,-275,+28,-87
132224,9.150,-4.424,3.951,-0.930783,0.232320,1.065313,99779.44,-275,+26,-87
132233,9.052,-5.196,4.161,-0.961645,0.180173,1.166414,99783.10,-275,+22,-85
132243,9.379,-5.601,4.247,-1.088819,0.178045,1.243038,99784.51,-275,+20,-85
132253,10.092,-5.577,4.358,-1.233021,0.154632,1.310084,99782.01,-275,+20,-85
132263,11.004,-5.449,3.553,-1.325608,0.083861,1.386708,99782.01,-275,+16,-84
132273,11.016,-5.795,3.010,-1.371370,0.031182,1.479827,99782.01,-275,+11,-86
132283,11.248,-6.055,2.612,-1.420856,-0.022561,1.577203,99783.40,-273,+8,-86
132293,11.586,-6.390,2.506,-1.459700,-0.092267,1.657019,99781.63,-272,+8,-86
132303,11.901,-6.926,3.084,-1.529938,-0.118873,1.724065,99783.20,-272,+3,-86
132308,12.356,-7.006,3.478,-1.649131,-0.132708,1.766102,99779.60,-270,-1,-87
132318,12.849,-6.828,3.850,-1.813553,-0.139093,1.809203,99779.60,-270,-1,-87
132328,13.354,-6.441,4.204,-1.996067,-0.128451,1.857093,99785.00,-269,-5,-89
132338,15.007,-6.518,4.382,-2.143461,-0.136432,1.913496,99780.73,-267,-9,-90
132348,17.514,-5.163,5.592,-2.328635,-0.144946,1.956597,99783.44,-265,-14,-92
132358,18.576,-3.918,6.466,-2.535094,-0.067790,2.052377,99781.30,-265,-14,-92
132368,18.567,-2.571,5.920,-2.652158,-0.034799,2.167312,99781.30,-261,-16,-93
132378,18.651,-1.720,6.163,-2.672910,-0.033735,2.207753,99780.81,-260,-20,-95
132388,19.265,-0.671,7.137,-2.575002,-0.059808,2.238615,99779.94,-257,-24,-96
132398,17.453,-0.396,8.136,-2.348855,-0.114084,2.281716,99778.22,-257,-24,-96
132408,14.381,-1.138,8.661,-1.907204,-0.383863,2.315239,99779.47,-253,-27,-100
132418,10.645,-4.876,8.030,-1.697553,-0.558395,2.328542,99779.47,-249,-31,-101
132428,8.677,-9.585,6.747,-1.277186,-0.830303,2.552028,99781.34,-243,-38,-104
132439,7.292,-8.490,4.051,-0.610453,-1.059111,2.524890,99779.98,-243,-38,-104
132448,7.223,-5.364,4.208,-0.351847,-0.950560,2.355679,99778.63,-238,-45,-107
132458,7.001,-3.086,5.478,-0.109737,-0.928212,2.057698,99779.57,-233,-51,-109
132468,4.601,-2.126,3.284,0.195161,-1.068156,1.806542,99779.57,-227,-57,-112
132478,0.429,-3.853,2.757,0.377675,-0.963331,1.599019,99782.76,-227,-57,-112
132488,-0.712,-4.357,4.101,0.577748,-0.727606,1.203130,99780.62,-222,-61,-112
132498,0.413,-3.750,3.438,0.453235,-0.505716,0.669424,99777.71,-219,-64,-113
132508,1.783,-2.218,4.045,0.104703,-0.177937,0.157534,99778.96,-217,-63,-112
132518,3.302,0.207,2.564,-0.328435,0.033843,-0.335732,99778.96,-217,-63,-112
132529,3.222,2.248,0.775,-0.879700,0.112595,-0.899768,99781.05,-217,-58,-111
132538,2.531,2.824,-0.428,-1.126067,0.153568,-1.368557,99782.39,-218,-51,-112
132548,2.027,2.533,-0.731,-0.894067,0.158889,-1.668667,99779.48,-219,-40,-112
132558,2.347,1.984,-0.269,-0.427939,0.191347,-1.921951,99777.30,-221,-31,-112
132568,3.000,0.924,0.621,0.108960,0.231788,-2.159804,99777.30,-221,-31,-112
132578,3.116,-0.604,1.374,0.511767,0.292448,-2.344446,99780.05,-222,-23,-109
132588,3.033,-1.582,2.173,0.749088,0.407916,-2.564208,99776.81,-224,-13,-107
132598,3.173,-2.204,2.745,0.829968,0.569677,-2.833987,99778.73,-226,-2,-105
132609,4.060,-1.920,2.744,0.740042,0.737292,-3.148996,99775.36,-226,-2,-105
132618,5.423,-1.011,2.488,0.682042,0.836264,-3.461877,99775.36,-227,+10,-102
132628,6.136,-0.595,2.193,0.930005,0.854356,-3.660886,99776.65,-230,+23,-100
132638,6.575,-1.676,2.481,1.351436,0.896925,-3.771564,99776.12,-229,+36,-96
132648,7.354,-2.698,2.867,1.709546,0.953328,-3.863620,99775.45,-229,+36,-96
132658,8.305,-3.164,2.827,1.935692,0.985787,-3.967381,99776.43,-229,+48,-93
132664,8.863,-4.100,2.544,2.039454,1.013457,-4.031766,99776.43,-229,+48,-93
132673,9.438,-5.040,2.229,2.108628,1.041659,-4.073802,99776.43,-227,+61,-90
132683,9.813,-6.216,2.295,2.104371,1.079971,-4.146702,99778.45,-226,+74,-89
132694,10.149,-6.455,2.343,2.154922,1.114026,-4.293564,99779.19,-223,+86,-87
132704,10.911,-6.569,2.989,2.095325,1.141695,-4.459582,99780.17,-223,+86,-87
132713,11.689,-7.052,3.754,1.996885,1.137971,-4.575050,99776.26,-220,+99,-86
132723,12.181,-7.506,4.095,1.941546,1.141163,-4.635711,99781.26,-216,+112,-86
132733,12.508,-8.672,4.986,1.963894,1.219915,-4.656463,99780.74,-211,+124,-84
132743,14.303,-9.469,5.816,2.075637,1.305585,-4.642628,99780.74,-211,+124,-84
132753,14.770,-9.457,4.522,2.209729,1.248649,-4.640500,99779.70,-205,+136,-82
132763,14.111,-10.363,4.338,2.291674,1.232154,-4.465968,99778.34,-199,+146,-84
132773,14.477,-11.944,4.093,2.447582,1.194906,-4.238225,99778.34,-195,+154,-84
132784,14.570,-13.914,2.902,2.484830,1.007071,-4.009950,99780.64,-189,+161,-85
132793,14.182,-15.236,1.556,2.384793,0.751659,-3.736977,99781.53,-189,+161,-85
132803,12.059,-15.475,0.824,2.212922,0.512209,-3.372482,99781.47,-183,+168,-88
132813,10.233,-16.106,0.911,1.949527,0.394081,-2.940409,99784.19,-178,+173,-90
132824,7.931,-16.553,2.179,1.693583,0.331292,-2.453529,99784.35,-174,+175,-93
132834,5.357,-17.433,2.194,1.317381,0.325971,-1.858098,99782.63,-174,+175,-93
132843,3.702,-17.833,1.488,0.785803,0.358962,-1.196153,99782.74,-171,+177,-93
132853,3.612,-17.369,0.524,0.216978,0.380246,-0.515585,99781.23,-171,+177,-92
132864,5.469,-15.640,0.823,-0.246490,0.395677,0.182011,99781.23,-172,+175,-92
132873,6.437,-14.452,0.953,-0.403994,0.304687,0.776910,99781.23,-172,+175,-92
132883,6.612,-13.435,0.929,-0.510948,0.115256,1.417038,99784.79,-175,+173,-90
132893,7.466,-11.942,1.007,-0.429003,-0.158249,1.982670,99782.38,-177,+167,-90
132903,12.096,-6.125,2.197,-0.263517,-0.436542,2.263092,99781.13,-180,+160,-90
132914,21.985,7.349,3.390,0.144079,-0.857441,1.758652,99781.87,-180,+160,-90
132923,25.390,15.727,-7.133,-0.327902,-0.854780,0.814157,99781.87,-180,+155,-94
132933,16.960,-4.075,0.117,-1.375095,0.235512,1.854432,99786.12,-183,+151,-91
132943,9.485,-11.146,5.701,0.096189,-0.354065,2.692505,99780.76,-186,+142,-93
132954,5.361,-14.725,6.170,1.366335,-0.655239,2.944725,99781.07,-186,+142,-93
132964,9.899,-9.970,1.820,1.174775,-0.588726,2.983569,99781.07,-189,+130,-96
132973,9.188,0.511,1.607,0.886372,-0.533918,2.698358,99785.01,-191,+120,-98
132983,4.692,1.681,3.614,1.238096,-0.490285,2.475404,99785.01,-192,+109,-101
132994,2.222,-4.192,5.817,1.613234,-0.476450,2.200835,99782.91,-192,+109,-101
133004,4.188,-9.603,5.671,1.357289,-0.516359,1.962450,99780.90,-193,+99,-103
133013,7.647,-11.231,3.076,0.528794,-0.341295,1.596359,99784.16,-194,+92,-104
133023,9.037,-9.652,0.733,-0.393352,-0.030010,1.226542,99784.16,-194,+89,-104
133033,9.339,-6.767,1.616,-1.060086,0.344063,0.991350,99785.68,-194,+89,-104
133044,9.188,-4.070,3.535,-1.367113,0.507953,0.867368,99779.85,-195,+89,-102
133054,8.841,-2.720,4.009,-1.319755,0.431861,0.840231,99783.29,-197,+88,-100
133063,8.391,-2.694,3.517,-1.010599,0.298301,0.835442,99781.56,-198,+86,-98
133073,8.500,-2.113,3.635,-0.570544,0.149311,0.843423,99780.67,-198,+86,-98
133084,8.666,-1.940,3.603,-0.062380,-0.005533,0.901956,99782.23,-199,+85,-98
133094,8.568,-2.552,3.211,0.325528,-0.081625,0.979644,99783.22,-200,+81,-98
133103,8.090,-3.870,3.694,0.404813,-0.012983,0.984433,99783.22,-199,+77,-99
133113,7.762,-5.281,4.075,0.274978,0.058852,0.889717,99782.03,-199,+77,-99
133124,7.644,-5.746,4.009,-0.018747,0.117384,0.731148,99782.03,-200,+73,-99
133134,7.616,-5.445,4.040,-0.327370,0.186026,0.569919,99786.49,-202,+72,-97
133143,7.653,-5.077,3.852,-0.583315,0.262118,0.435827,99780.24,-201,+72,-96
133153,7.817,-4.798,3.704,-0.804673,0.332889,0.335791,99780.55,-201,+72,-96
133164,8.122,-4.235,3.565,-0.954196,0.374925,0.285772,99784.15,-202,+72,-95
133174,8.383,-3.336,3.536,-0.977608,0.383439,0.288965,99784.15,-203,+72,-93
133184,8.369,-2.779,3.590,-0.847242,0.346191,0.336323,99784.37,-204,+73,-93
133193,8.428,-2.882,3.401,-0.603535,0.261054,0.407093,99780.02,-204,+73,-93
133203,8.440,-3.389,3.267,-0.376324,0.162081,0.466690,99780.71,-206,+73,-91
133214,8.337,-3.682,3.420,-0.235315,0.112595,0.512451,99780.71,-205,+71,-90
133223,8.001,-3.983,3.945,-0.222545,0.125898,0.526286,99780.71,-205,+70,-91
133233,7.655,-4.402,4.077,-0.318857,0.167934,0.506598,99786.15,-206,+70,-91
133243,7.636,-4.561,4.349,-0.464123,0.219017,0.469350,99781.73,-206,+68,-89
133254,7.772,-4.546,4.357,-0.595554,0.245090,0.423412,99781.85,-206,+67,-89
133263,7.978,-4.238,4.062,-0.627480,0.225402,0.409222,99781.85,-207,+67,-88
133273,7.912,-4.743,3.509,-0.649829,0.207843,0.439552,99781.85,-207,+68,-87
133283,8.539,-4.106,3.467,-0.703040,0.200925,0.437424,99782.48,-207,+68,-87
133294,8.257,-3.816,3.419,-0.559902,0.116852,0.467754,99783.88,-208,+66,-86
133304,8.354,-4.107,3.383,-0.418893,0.079072,0.530011,99782.63,-207,+66,-86
133314,8.403,-5.084,3.436,-0.419425,0.088650,0.538525,99782.63,-208,+63,-86
133323,8.205,-5.023,3.490,-0.538086,0.112595,0.556084,99783.12,-208,+63,-86
133334,8.044,-4.706,3.927,-0.615774,0.139201,0.564066,99783.12,-209,+62,-85
133344,7.972,-4.609,4.496,-0.684948,0.148779,0.593332,99782.09,-208,+62,-84
133353,7.907,-4.587,4.446,-0.748801,0.169531,0.618341,99784.37,-209,+61,-84
133363,8.055,-4.818,4.086,-0.842453,0.196668,0.649736,99778.60,-209,+61,-84
133373,8.202,-4.894,3.868,-0.942489,0.211567,0.691772,99778.60,-209,+59,-82
133384,8.361,-4.793,3.747,-1.057957,0.221145,0.759882,99784.37,-209,+59,-81
133394,8.760,-4.598,3.693,-1.126599,0.201457,0.842359,99780.37,-211,+57,-80
133403,9.115,-4.500,3.790,-1.169168,0.153035,0.948249,99780.41,-211,+57,-80
133413,9.674,-4.469,3.869,-1.177682,0.067898,1.075423,99783.90,-211,+55,-79
133424,10.151,-4.496,4.039,-1.165443,-0.051295,1.217497,99782.39,-211,+54,-80
133434,10.725,-4.720,3.585,-1.157994,-0.157185,1.347864,99780.63,-211,+49,-80
133444,10.908,-5.310,3.120,-1.177682,-0.235405,1.471313,99783.38,-211,+49,-80
133453,11.347,-5.825,2.797,-1.251645,-0.289148,1.595827,99783.38,-211,+46,-80
133464,11.767,-5.983,2.824,-1.350617,-0.344487,1.707570,99780.83,-209,+43,-82
133474,11.968,-5.892,3.280,-1.435223,-0.411533,1.821441,99780.83,-209,+37,-83
133484,12.387,-5.876,3.988,-1.537388,-0.469533,1.943294,99782.14,-209,+37,-83
133493,12.802,-6.140,4.657,-1.654984,-0.500927,2.037478,99779.95,-207,+33,-84
133504,13.376,-6.365,5.039,-1.803443,-0.490817,2.119423,99781.16,-206,+29,-87
133514,14.884,-6.923,5.148,-1.987021,-0.461019,2.165184,99781.88,-204,+24,-88
133524,17.684,-5.587,6.205,-2.244030,-0.451441,2.188065,99781.88,-204,+24,-88
133534,19.362,-3.740,7.380,-2.491993,-0.354597,2.270542,99781.21,-203,+21,-90
133543,19.282,-2.402,7.178,-2.572341,-0.342359,2.392927,99779.74,-200,+18,-92
133554,18.453,-2.275,7.324,-2.472837,-0.393973,2.483918,99778.85,-199,+12,-93
133564,18.546,-1.569,8.598,-2.275956,-0.326928,2.495624,99778.85,-199,+12,-93
133573,17.272,-1.161,10.101,-1.970525,-0.347148,2.523294,99778.85,-195,+9,-96
133583,13.055,-2.745,8.773,-1.746507,-0.610542,2.528083,99779.09,-192,+3,-99
133594,9.496,-7.974,7.925,-1.626250,-0.767514,2.759551,99779.87,-188,-3,-102
133604,8.466,-9.945,4.932,-1.090416,-0.961735,2.848945,99778.26,-188,-3,-102
133609,8.458,-7.591,3.162,-0.740287,-0.950028,2.664303,99777.90,-183,-10,-105
133618,8.327,-4.700,4.095,-0.604599,-0.799973,2.389734,99777.90,-179,-16,-109
133628,7.586,-2.234,4.732,-0.391224,-0.781881,2.052377,99782.55,-179,-16,-109
133639,4.700,-2.042,3.471,-0.178380,-0.808487,1.779937,99780.11,-175,-22,-110
133649,1.378,-2.337,3.698,0.044042,-0.689826,1.481955,99779.58,-170,-27,-112
133658,0.805,-2.357,3.328,0.197290,-0.520083,1.049350,99778.02,-168,-29,-113
133668,0.312,-2.539,2.476,0.082886,-0.331184,0.521497,99778.02,-168,-29,-113
133679,1.291,-2.333,2.708,-0.149646,-0.032139,0.071864,99781.21,-165,-32,-114
133689,2.520,-0.706,1.546,-0.441242,0.136008,-0.359677,99780.43,-164,-31,-115
133699,2.999,1.169,0.945,-0.701443,0.171659,-0.836447,99780.43,-165,-26,-115
133708,2.817,1.954,0.377,-0.661003,0.161549,-1.248300,99780.95,-165,-26,-115
133719,2.401,2.098,0.113,-0.378453,0.144522,-1.593107,99780.95,-165,-24,-116
133729,2.223,1.250,0.338,0.107895,0.134412,-1.906520,99779.60,-167,-18,-116
133739,2.107,0.107,0.920,0.552739,0.198797,-2.151822,99779.60,-168,-13,-115
133748,2.306,-1.040,1.927,0.840078,0.346191,-2.364134,99776.79,-168,-13,-115
133758,2.590,-1.321,2.698,0.957675,0.536687,-2.613162,99775.55,-169,-10,-114
133769,3.229,-0.700,3.008,0.979491,0.693659,-2.869638,99775.55,-172,-3,-112
133779,4.455,0.279,2.734,1.031638,0.802741,-3.148996,99778.65,-175,+2,-110
133788,5.532,0.272,2.315,1.247142,0.866595,-3.378335,99777.24,-175,+2,-110
133798,6.139,-1.035,2.041,1.538206,0.928851,-3.536372,99779.90,-177,+7,-108
133809,6.772,-2.760,2.086,1.744665,1.032613,-3.692812,99777.71,-180,+15,-106
133819,7.425,-3.710,2.144,1.831399,1.107640,-3.891821,99777.71,-183,+22,-103
133829,8.114,-4.828,1.730,1.764885,1.158191,-4.044537,99777.83,-183,+22,-103
133838,9.042,-4.786,1.085,1.856940,1.223108,-4.207362,99777.78,-185,+31,-100
133844,9.665,-4.866,1.115,1.836188,1.270998,-4.328683,99779.19,-187,+40,-96
133854,9.875,-5.351,1.440,1.759032,1.311970,-4.405307,99779.19,-187,+40,-96
133864,10.183,-5.607,2.355,1.612702,1.333255,-4.515454,99777.42,-189,+51,-93
133874,10.822,-6.089,2.988,1.532353,1.352411,-4.660188,99777.42,-189,+62,-90
133883,11.621,-6.608,3.685,1.569069,1.378484,-4.767142,99781.18,-189,+73,-87
133894,12.234,-7.302,4.127,1.650482,1.417860,-4.805454,99778.49,-189,+73,-87
133904,13.020,-7.890,4.595,1.768610,1.490759,-4.778848,99777.79,-188,+86,-85
133914,14.367,-8.219,4.923,1.969215,1.547163,-4.717124,99777.79,-187,+95,-82
133923,15.715,-8.679,4.838,2.285821,1.523750,-4.638903,99777.79,-185,+105,-80
133934,16.458,-9.653,4.434,2.640206,1.407218,-4.493637,99781.48,-185,+105,-80
133944,16.354,-12.348,3.375,2.960004,1.169897,-4.253124,99781.69,-184,+113,-78
133954,15.296,-15.651,1.323,3.022261,0.802209,-3.951418,99780.97,-180,+118,-78
133963,13.645,-16.162,0.192,2.845600,0.448356,-3.617253,99779.41,-177,+124,-80
133974,12.299,-16.449,-0.298,2.639142,0.184430,-3.212849,99779.41,-177,+124,-80
133984,10.378,-16.549,1.177,2.421509,0.066302,-2.759492,99783.55,-173,+129,-82
133994,7.211,-17.188,2.716,2.223564,-0.034267,-2.177896,99781.83,-172,+131,-84
134004,4.235,-18.536,2.977,1.887270,-0.011387,-1.479236,99780.47,-170,+132,-86
134013,2.876,-20.182,1.728,1.370060,0.017347,-0.711933,99781.29,-170,+132,-86
134024,3.722,-20.104,0.386,0.725143,0.069494,0.038874,99784.62,-169,+131,-87
134034,6.037,-16.999,1.440,0.128648,0.173256,0.615680,99781.18,-170,+127,-87
134044,6.493,-15.117,1.389,-0.178380,0.118448,1.195148,99781.18,-172,+123,-86
134053,6.728,-13.018,2.351,-0.370471,-0.052891,1.802285,99782.23,-172,+123,-86
134064,8.375,-10.088,2.335,-0.344930,-0.276377,2.268945,99780.76,-174,+119,-86
134074,13.292,-1.631,4.410,-0.124104,-0.556267,2.320028,99780.76,-176,+112,-86
134084,22.028,12.474,3.145,0.298923,-0.962267,1.603276,99784.10,-175,+105,-89
134093,22.932,17.461,-7.186,-0.198068,-0.768579,0.933350,99780.35,-175,+105,-89
134104,15.006,-3.926,-1.569,-0.778067,-0.105570,2.100267,99781.60,-176,+104,-89
134114,7.268,-10.674,6.514,0.970977,-0.644065,2.914927,99780.77,-178,+93,-90
134124,6.692,-13.462,6.261,2.233674,-0.963331,2.984101,99783.90,-178,+79,-93
134134,9.356,-12.615,1.698,1.663784,-0.717496,2.946853,99784.01,-178,+79,-93
134144,9.286,-2.267,1.331,1.321106,-0.453570,2.770193,99782.87,-178,+68,-95
134154,5.865,-0.074,3.116,1.623344,-0.359918,2.583422,99779.79,-178,+57,-96
134164,2.719,-5.152,6.396,1.760096,-0.441863,2.280120,99779.79,-178,+49,-97
134173,4.371,-10.923,6.225,1.459986,-0.550414,2.009276,99779.79,-178,+49,-97
134183,8.284,-12.019,3.366,0.574024,-0.360451,1.617111,99783.95,-177,+40,-98
134194,8.845,-9.261,1.439,-0.547664,-0.028946,1.238781,99781.65,-177,+35,-98
134199,8.786,-6.841,1.783,-1.072324,0.257861,1.057332,99783.57,-177,+35,-98
134209,8.568,-4.738,3.441,-1.379884,0.396210,0.931222,99783.48,-177,+35,-97
134218,8.513,-2.863,4.304,-1.565058,0.385035,0.859387,99783.48,-179,+35,-96
134228,8.556,-2.512,3.261,-1.443737,0.290852,0.843956,99784.63,-178,+34,-95
134239,8.566,-2.693,2.686,-1.048379,0.196668,0.838634,99784.84,-178,+34,-95
134249,8.950,-2.019,3.011,-0.500838,0.057256,0.873754,99783.07,-178,+33,-95
134259,8.901,-2.252,3.139,0.064262,-0.078432,0.941864,99781.71,-179,+31,-95
134268,8.405,-3.343,2.789,0.450574,-0.138029,0.980708,99781.71,-178,+25,-96
134279,8.107,-3.951,2.595,0.546886,-0.055020,0.974322,99783.63,-178,+25,-96
134289,7.586,-5.125,3.433,0.370758,0.097164,0.904084,99781.49,-178,+24,-95
134299,7.475,-6.162,3.668,0.093528,0.187623,0.744983,99782.85,-178,+20,-95
134308,7.718,-6.052,3.747,-0.244893,0.250412,0.561937,99780.93,-178,+18,-93
134319,7.782,-5.550,3.930,-0.534361,0.335017,0.402837,99780.93,-178,+18,-93
134329,7.656,-5.049,3.861,-0.800948,0.421219,0.287901,99780.38,-179,+20,-92
134339,7.748,-4.525,3.520,-1.019113,0.489861,0.222451,99782.10,-180,+20,-92
134349,8.110,-3.829,3.388,-1.119682,0.504760,0.204360,99781.37,-181,+21,-91
134359,8.566,-2.849,3.588,-1.046783,0.450485,0.224048,99781.68,-181,+21,-91
134369,8.854,-2.364,3.533,-0.767425,0.327035,0.300672,99781.68,-181,+22,-90
134379,8.885,-2.618,3.222,-0.432196,0.185494,0.398048,99782.76,-182,+22,-90
134389,8.530,-3.366,2.995,-0.183701,0.088118,0.488506,99783.23,-181,+20,-90
134398,8.282,-3.862,3.438,-0.095903,0.068430,0.547038,99782.66,-181,+20,-90
134409,7.958,-4.381,3.981,-0.149646,0.081201,0.556616,99781.35,-180,+19,-89
134419,7.893,-4.374,4.241,-0.272031,0.110999,0.546506,99781.35,-182,+18,-89
134429,7.755,-4.500,4.494,-0.408251,0.147714,0.528947,99784.12,-182,+16,-88
134438,7.645,-4.928,3.906,-0.519462,0.158889,0.516176,99784.74,-182,+16,-88
134449,8.117,-4.734,3.316,-0.668985,0.190815,0.500213,99782.98,-182,+16,-88
134459,8.114,-3.894,3.609,-0.698251,0.172191,0.517772,99780.41,-182,+16,-87
134469,8.717,-3.927,3.436,-0.604067,0.153035,0.567258,99780.41,-182,+14,-88
134479,8.333,-4.301,3.193,-0.568948,0.135476,0.585350,99782.74,-182,+14,-87
134489,8.350,-3.941,3.578,-0.564159,0.122705,0.652396,99780.80,-182,+14,-87
134499,8.204,-4.269,3.741,-0.543939,0.121641,0.689112,99781.38,-182,+14,-87
134509,8.266,-4.549,4.030,-0.590765,0.112063,0.735937,99780.13,-182,+11,-87
134519,8.064,-4.788,4.319,-0.671113,0.118980,0.768396,99780.13,-182,+11,-87
134529,8.053,-5.107,4.253,-0.773810,0.141861,0.794469,99782.34,-182,+11,-87
134539,8.412,-5.139,3.851,-0.911627,0.170063,0.838634,99783.66,-182,+9,-87
134549,8.964,-4.870,3.633,-1.030819,0.188155,0.909405,99780.94,-181,+7,-87
134554,9.200,-4.943,3.614,-1.119150,0.186558,0.971130,99779.69,-181,+7,-87
134563,9.458,-4.945,3.825,-1.197370,0.158357,1.039772,99779.69,-181,+8,-87
134574,9.963,-4.502,4.013,-1.257498,0.081201,1.150983,99779.69,-181,+5,-87
134584,10.504,-4.373,3.823,-1.220783,-0.039056,1.299442,99780.32,-181,+5,-87
134594,11.034,-4.673,3.441,-1.171829,-0.147074,1.435662,99781.60,-180,+3,-88
134604,10.981,-5.465,2.994,-1.216526,-0.204010,1.551129,99781.84,-178,+1,-90
134615,11.534,-5.724,2.931,-1.339443,-0.213588,1.678304,99781.84,-177,-2,-90
134624,12.188,-5.718,3.138,-1.454911,-0.252964,1.794836,99783.56,-177,-2,-90
134634,12.751,-5.815,3.460,-1.539516,-0.325331,1.916157,99783.56,-177,-5,-92
134644,13.178,-6.264,3.886,-1.607094,-0.384928,2.041203,99784.03,-174,-7,-95
134654,13.506,-6.906,4.226,-1.722562,-0.385460,2.128469,99781.69,-173,-12,-96
134664,14.155,-7.351,4.572,-1.941259,-0.347148,2.184872,99781.28,-173,-12,-96
134674,15.890,-6.915,4.558,-2.204121,-0.298194,2.188597,99781.28,-169,-15,-98
134684,18.430,-4.619,6.469,-2.552653,-0.226891,2.202964,99781.69,-168,-16,-101
134694,19.413,-2.274,8.234,-2.745809,-0.139093,2.293955,99777.84,-166,-18,-104
134705,18.352,-1.560,7.956,-2.704837,-0.157185,2.451991,99780.55,-163,-20,-107
134714,17.897,-1.841,8.229,-2.545204,-0.122597,2.546707,99779.81,-163,-20,-107
134724,17.655,-0.936,10.478,-2.421222,0.040228,2.475936,99781.75,-162,-22,-109
134734,15.277,-0.916,11.936,-2.078011,-0.079497,2.474340,99779.03,-159,-26,-112
134745,12.025,-3.447,8.885,-1.749168,-0.464212,2.416340,99779.72,-156,-29,-115
134754,8.833,-9.031,5.374,-1.653920,-0.760597,2.539789,99779.72,-156,-29,-115
134764,7.002,-9.787,3.176,-1.093608,-0.927679,2.540321,99778.00,-152,-33,-119
134774,7.302,-6.117,4.006,-0.601407,-0.698340,2.285973,99778.00,-147,-40,-122
134785,8.138,-2.802,5.540,-0.383774,-0.611074,1.939037,99781.86,-145,-44,-125
134790,7.124,-0.513,5.783,-0.196471,-0.723349,1.715019,99780.50,-145,-44,-125
134799,3.925,-0.716,3.831,-0.009169,-0.843074,1.535166,99778.42,-141,-48,-128
134809,-0.061,-2.600,2.986,0.254758,-0.723349,1.231864,99780.19,-141,-48,-128
134819,-1.371,-4.864,2.793,0.451638,-0.487625,0.846084,99780.19,-138,-54,-129
134830,-0.948,-6.082,3.120,0.310629,-0.240194,0.468818,99780.23,-138,-57,-130
134839,1.729,-4.354,2.574,-0.002783,-0.005533,-0.001567,99778.62,-138,-58,-131
134849,3.527,-0.936,0.632,-0.475829,0.132815,-0.558686,99778.98,-138,-58,-131
134859,3.039,1.841,-0.345,-0.977076,0.202522,-1.113676,99777.26,-140,-57,-132
134870,2.410,3.147,-0.840,-1.191517,0.267439,-1.510098,99777.26,-142,-53,-134
134879,2.326,4.372,-0.555,-0.977076,0.268503,-1.801694,99779.66,-147,-47,-137
134889,2.560,3.680,-0.070,-0.318324,0.249879,-2.064024,99777.37,-147,-47,-137
134899,2.875,2.251,0.941,0.495803,0.267439,-2.235364,99778.77,-151,-44,-138
134909,3.169,0.655,2.424,1.186482,0.347255,-2.329547,99778.05,-155,-43,-137
134919,2.939,-1.174,3.206,1.581307,0.467512,-2.465767,99778.05,-161,-42,-136
134929,2.861,-2.422,3.073,1.615894,0.660136,-2.731822,99778.20,-161,-42,-136
134939,3.950,-2.283,2.696,1.429124,0.878833,-3.079290,99778.82,-168,-42,-134
134949,5.501,-1.209,2.719,1.375913,0.971420,-3.402812,99776.54,-177,-39,-132
134959,6.497,-0.765,2.477,1.624408,0.995365,-3.634812,99778.46,-189,-35,-131
134969,7.008,-1.924,2.331,1.916536,1.066668,-3.824775,99778.46,-200,-35,-128
134979,7.959,-3.203,2.391,2.016573,1.206613,-4.017931,99777.71,-200,-31,-128
134989,9.271,-3.543,1.865,1.964426,1.274191,-4.117435,99776.68,-214,-25,-123
135000,9.961,-3.881,1.209,2.116610,1.323145,-4.198848,99778.87,-229,-16,-118
135009,10.509,-4.607,1.523,2.281564,1.304521,-4.272280,99776.41,-244,-5,-112
135019,10.560,-5.866,2.154,2.282628,1.255567,-4.376041,99776.41,-244,-5,-112
135029,11.167,-6.865,2.915,2.081491,1.248649,-4.508536,99780.48,-257,+11,-106
135040,11.961,-7.860,3.546,1.831931,1.301328,-4.689454,99780.73,-268,+32,-99
135049,12.661,-8.521,4.172,1.760628,1.333255,-4.825141,99779.23,-275,+55,-92
135059,13.300,-8.735,4.755,1.929839,1.364117,-4.890059,99778.65,-275,+55,-92
135069,13.623,-9.004,5.095,2.159179,1.389126,-4.873564,99778.65,-278,+81,-84
135079,14.278,-9.304,4.959,2.334775,1.381145,-4.785233,99778.73,-276,+109,-78
135089,14.738,-10.029,4.462,2.519417,1.317291,-4.604316,99781.49,-270,+131,-73
135099,15.472,-11.915,3.395,2.681710,1.181604,-4.348372,99781.43,-270,+131,-73
135109,15.575,-13.812,1.930,2.672665,0.973017,-4.063160,99780.60,-260,+153,-70
135119,15.062,-14.713,0.712,2.526866,0.675035,-3.731656,99780.60,-248,+169,-71
135130,13.734,-15.708,-0.116,2.312426,0.398338,-3.311290,99782.34,-236,+182,-72
135139,10.440,-17.129,1.044,2.116610,0.226999,-2.816427,99782.02,-236,+182,-72
135149,6.315,-18.472,2.476,1.859601,0.135476,-2.223125,99783.27,-226,+191,-75
135159,3.142,-19.820,2.271,1.389748,0.190283,-1.506373,99781.40,-217,+197,-77
