119752,8.872,-4.464,2.231,0.010010,-0.027642,0.004356,100134.23,-111,+82,-249
119762,8.868,-4.495,2.238,0.006817,-0.025513,0.001163,100134.23,-111,+82,-249
119773,8.878,-4.545,2.130,-0.001164,-0.019660,0.001163,100132.05,-111,+82,-248
119783,8.821,-4.488,2.114,-0.008614,-0.018596,0.001163,100135.37,-111,+83,-248
119792,8.865,-4.441,2.154,-0.002229,-0.016467,0.000099,100132.05,-111,+82,-248
119802,8.911,-4.411,2.199,0.019056,-0.014871,-0.000965,100131.80,-111,+82,-248
119813,8.903,-4.422,2.224,0.035019,-0.014339,-0.000433,100131.80,-111,+82,-248
119823,8.953,-4.453,2.167,0.033955,-0.009550,0.000099,100136.11,-110,+82,-248
119832,8.905,-4.489,2.228,0.027037,-0.009018,0.001163,100130.86,-110,+82,-249
119842,8.825,-4.492,2.177,0.022781,-0.005293,0.003824,100132.91,-110,+82,-249
119853,8.850,-4.487,2.157,0.016395,0.006413,0.007549,100131.50,-110,+81,-249
119863,8.939,-4.514,2.213,0.013203,0.012267,0.008613,100131.50,-111,+81,-249
119873,8.944,-4.429,2.224,0.014267,0.006413,0.010209,100135.12,-111,+81,-249
119882,8.889,-4.408,2.230,0.026505,-0.000504,0.011806,100133.23,-111,+81,-249
119892,8.889,-4.496,2.165,0.037147,-0.001568,0.011806,100131.66,-110,+81,-249
119903,8.867,-4.577,2.189,0.032358,0.000028,0.011806,100132.34,-110,+82,-248
119913,8.896,-4.494,2.230,0.021184,0.002157,0.010741,100132.34,-111,+82,-249
119922,8.893,-4.506,2.193,0.015863,0.008542,0.009145,100131.95,-111,+82,-249
119932,8.850,-4.536,2.185,0.010542,0.013863,0.007017,100132.52,-110,+81,-248
119943,8.849,-4.458,2.179,0.008414,0.019184,0.006484,100128.96,-110,+81,-248
119953,8.899,-4.462,2.171,0.010542,0.018120,0.005952,100129.65,-111,+81,-248
119958,8.893,-4.494,2.230,0.014799,0.012267,0.005952,100129.65,-111,+81,-248
119967,8.843,-4.502,2.208,0.021184,0.010670,0.003824,100129.65,-110,+81,-249
119977,8.865,-4.530,2.195,0.017459,0.012799,0.000631,100133.20,-111,+81,-249
119988,8.866,-4.510,2.263,0.008946,0.017056,-0.003094,100133.51,-111,+81,-249
119998,8.892,-4.457,2.214,0.011606,0.014927,-0.004690,100133.13,-111,+80,-249
120008,8.899,-4.499,2.213,0.016927,0.008010,-0.003626,100132.38,-111,+81,-248
120017,8.895,-4.417,2.207,0.017459,0.003753,-0.002029,100135.20,-111,+81,-248
120028,8.896,-4.425,2.234,0.017459,0.003221,-0.000433,100132.69,-111,+81,-248
120038,8.906,-4.478,2.276,0.024377,-0.002100,0.001163,100132.69,-111,+81,-248
120048,8.939,-4.429,2.269,0.029698,-0.014339,-0.000433,100130.44,-111,+80,-248
120057,8.906,-4.401,2.270,0.036615,-0.019660,0.002228,100131.17,-111,+81,-249
120068,8.974,-4.472,2.275,0.045661,-0.032963,0.001695,100131.17,-111,+81,-249
120078,8.948,-4.448,2.252,0.047790,-0.052119,-0.000433,100133.83,-111,+81,-248
120088,8.825,-4.391,2.191,0.044065,-0.061164,0.000631,100132.25,-111,+81,-250
120098,8.814,-4.466,2.135,0.039276,-0.051054,0.003292,100132.61,-111,+81,-249
120108,8.856,-4.508,2.079,0.038744,-0.040944,0.005952,100131.36,-111,+81,-249
120118,8.855,-4.506,2.099,0.045661,-0.028706,0.005952,100131.36,-110,+80,-250
120128,8.884,-4.511,2.121,0.054175,-0.013275,0.007017,100133.10,-111,+81,-249
120138,8.915,-4.484,2.067,0.057900,0.000560,0.007017,100130.59,-110,+80,-250
120147,8.881,-4.458,2.105,0.069074,0.015991,0.010209,100131.21,-110,+80,-250
120158,8.921,-4.432,2.109,0.085037,0.028762,0.009677,100131.21,-110,+80,-250
120168,8.964,-4.362,2.122,0.093551,0.030891,0.007549,100131.21,-110,+80,-250
120178,8.909,-4.092,2.304,0.110047,0.014395,0.008613,100134.95,-110,+80,-250
120187,8.853,-3.887,2.312,0.146762,-0.018064,0.015530,100133.54,-110,+80,-250
120198,8.926,-4.035,2.258,0.195184,-0.043073,0.027769,100132.80,-111,+79,-250
120208,8.936,-4.062,2.176,0.227111,-0.075531,0.034154,100132.96,-110,+78,-250
120218,8.829,-4.117,2.179,0.276597,-0.086706,0.044264,100132.96,-110,+78,-250
120228,8.762,-4.606,2.031,0.328744,-0.066486,0.047989,100133.63,-110,+78,-250
120238,8.686,-5.236,1.604,0.315441,-0.026577,0.036815,100131.95,-110,+77,-252
120248,8.461,-5.258,1.526,0.244670,0.021313,0.024044,100132.41,-110,+76,-251
120258,8.328,-4.810,1.605,0.190927,0.068670,0.013402,100132.41,-111,+76,-251
120268,8.613,-4.397,1.960,0.168046,0.108046,0.000631,100132.06,-111,+76,-251
120278,9.103,-3.843,2.424,0.179753,0.120285,-0.005754,100132.06,-111,+75,-250
120288,8.842,-3.986,2.711,0.249991,0.088890,-0.014800,100131.86,-111,+75,-251
120298,8.516,-4.334,2.482,0.337257,0.053239,-0.027571,100132.86,-111,+75,-252
120308,8.764,-4.293,2.673,0.369184,-0.007421,-0.054708,100132.13,-111,+75,-252
120317,8.753,-4.153,3.014,0.444744,-0.075531,-0.075460,100132.13,-112,+74,-251
120328,8.866,-4.517,2.765,0.503808,-0.123421,-0.101002,100134.58,-111,+73,-252
120338,8.776,-5.108,2.510,0.504872,-0.118100,-0.111644,100133.02,-110,+72,-253
120348,8.857,-5.534,2.076,0.397918,-0.062761,-0.123882,100133.17,-111,+72,-253
120358,9.118,-5.303,2.309,0.218065,-0.002100,-0.140378,100131.77,-111,+72,-253
120368,9.171,-4.747,2.615,0.046193,0.045257,-0.151020,100133.60,-110,+72,-252
120378,9.165,-4.475,2.809,-0.038412,0.062817,-0.154745,100134.71,-110,+73,-253
120388,9.355,-4.093,2.930,-0.069274,0.069735,-0.153681,100134.71,-110,+74,-253
120397,9.375,-4.299,2.694,-0.077256,0.072395,-0.141442,100133.13,-110,+74,-253
120408,9.293,-4.484,2.444,-0.087898,0.078248,-0.116965,100132.93,-110,+74,-252
120418,8.914,-4.228,2.578,-0.108651,0.087826,-0.096745,100132.93,-111,+74,-252
120428,9.031,-4.118,2.883,-0.131531,0.085166,-0.066947,100134.46,-110,+75,-252
120438,8.930,-4.085,2.993,-0.130999,0.073991,-0.046194,100133.04,-110,+75,-252
120448,8.918,-4.095,2.967,-0.161329,0.048982,-0.028103,100132.30,-110,+74,-252
120458,8.993,-4.100,2.998,-0.203366,0.026634,-0.006286,100131.88,-111,+76,-251
120468,9.021,-4.166,2.707,-0.242210,0.033551,0.018191,100131.88,-111,+76,-251
120478,9.102,-4.580,2.455,-0.317238,0.051111,0.005952,100134.86,-111,+76,-251
120488,8.922,-4.527,2.379,-0.363531,0.058560,-0.017993,100132.02,-111,+76,-250
120498,8.699,-4.379,2.288,-0.344907,0.080909,-0.023314,100131.64,-112,+78,-250
120508,8.893,-4.719,2.285,-0.339586,0.071331,-0.058965,100131.64,-112,+79,-249
120518,8.813,-4.469,2.081,-0.361403,0.046322,-0.095149,100131.64,-112,+79,-249
120528,8.565,-4.249,1.963,-0.348632,0.035147,-0.120158,100135.23,-111,+80,-248
120538,8.681,-3.923,1.830,-0.310320,0.009606,-0.141974,100133.35,-111,+80,-249
120549,8.859,-4.025,1.883,-0.200528,-0.016113,-0.154035,100133.37,-112,+82,-250
120558,8.994,-4.171,2.055,-0.093219,-0.042009,-0.156341,100133.37,-112,+82,-250
120567,9.074,-4.173,2.390,-0.018192,-0.110651,-0.190928,100133.37,-110,+82,-248
120579,9.038,-3.958,2.412,0.010542,-0.159605,-0.207956,100135.42,-111,+83,-249
120588,9.018,-3.796,2.651,0.064817,-0.190999,-0.209552,100133.31,-109,+83,-250
120598,8.831,-4.355,2.487,0.080248,-0.190999,-0.231901,100131.33,-109,+83,-250
120608,8.914,-4.612,2.214,0.057900,-0.144706,-0.267552,100131.33,-108,+84,-251
120619,9.069,-4.258,1.951,0.005221,-0.105862,-0.250525,100137.49,-108,+85,-251
120628,9.118,-3.739,1.939,-0.018724,-0.089366,-0.192525,100137.49,-108,+85,-251
120638,9.072,-3.402,2.177,0.056836,-0.093623,-0.141974,100131.16,-108,+85,-251
120648,9.059,-3.643,2.236,0.142505,-0.103201,-0.098341,100130.63,-107,+86,-252
120658,9.014,-4.088,2.264,0.149423,-0.085642,-0.046727,100130.74,-107,+86,-252
120668,9.184,-4.302,2.641,0.115368,-0.071807,-0.003094,100130.74,-108,+85,-253
120678,9.244,-3.713,2.706,0.019588,-0.104797,0.029365,100136.00,-108,+85,-253
120688,8.957,-3.121,2.828,-0.062357,-0.128210,0.069805,100134.64,-106,+85,-253
120698,9.056,-3.350,2.704,-0.050119,-0.160137,0.115567,100132.97,-106,+84,-253
120709,9.260,-3.241,2.679,-0.018724,-0.194192,0.175695,100132.83,-106,+84,-253
120718,9.400,-3.645,2.426,0.052047,-0.232504,0.198044,100134.92,-106,+84,-253
120728,9.339,-3.661,2.260,0.129202,-0.269219,0.237952,100134.45,-106,+83,-254
120738,9.133,-3.879,2.409,0.191991,-0.291568,0.254980,100132.41,-105,+82,-254
120748,9.232,-4.122,2.439,0.212212,-0.302742,0.260301,100132.41,-105,+81,-256
120758,9.322,-4.239,2.499,0.161129,-0.313385,0.298081,100132.94,-105,+81,-256
120768,9.589,-4.165,2.363,0.076524,-0.319770,0.344906,100132.94,-105,+80,-257
120778,9.868,-3.972,2.424,0.037680,-0.347440,0.392264,100135.58,-105,+78,-257
120783,9.992,-3.424,2.603,0.077588,-0.370852,0.435897,100131.95,-105,+78,-257
120793,9.993,-3.814,2.653,0.073331,-0.363935,0.499750,100132.48,-105,+78,-258
120803,9.970,-5.197,2.883,-0.075128,-0.314981,0.562539,100131.48,-104,+76,-259
120813,10.466,-5.126,2.718,-0.422595,-0.294229,0.620007,100131.48,-104,+76,-259
120823,10.643,-3.989,2.469,-0.680137,-0.286247,0.679071,100133.70,-104,+76,-259
120833,11.232,-3.901,2.483,-0.747182,-0.294761,0.765273,100133.32,-104,+74,-259
120843,12.179,-4.905,2.568,-0.847751,-0.324559,0.838172,100132.70,-104,+74,-260
120853,14.125,-4.879,2.686,-1.037182,-0.371384,0.882869,100135.21,-105,+74,-258
120863,16.396,-3.865,3.325,-1.156375,-0.429917,0.912667,100135.21,-105,+74,-258
120873,17.723,-3.888,3.308,-1.157971,-0.496962,0.984502,100136.29,-103,+74,-260
120883,17.875,-3.701,3.545,-1.267586,-0.543256,1.007915,100133.30,-104,+74,-260
120893,17.260,-2.932,3.451,-1.333035,-0.631586,1.063787,100130.90,-103,+74,-260
120903,15.724,-1.979,3.828,-1.233531,-0.738008,1.103163,100131.05,-103,+74,-260
120913,13.924,-1.183,3.643,-0.905219,-0.905091,1.090392,100131.05,-103,+74,-262
120923,11.984,-1.763,3.154,-0.477935,-1.007256,1.018557,100135.36,-101,+72,-262
120933,10.675,-5.065,2.456,-0.055972,-1.003531,0.967475,100131.27,-99,+69,-265
120943,10.703,-10.251,1.683,0.282450,-0.919457,1.102631,100132.42,-99,+69,-265
120953,12.064,-13.849,0.217,0.407496,-0.875292,1.263328,100132.20,-98,+65,-267
120963,13.323,-12.973,-0.040,0.036615,-0.904558,1.172869,100132.20,-98,+61,-270
120973,12.862,-8.547,0.543,-0.363531,-0.906687,0.937676,100132.47,-96,+60,-271
120983,10.986,-6.348,0.521,-0.605641,-0.959898,0.923842,100136.34,-96,+60,-271
120993,9.249,-7.877,0.508,-0.411421,-1.015769,1.102098,100135.94,-94,+59,-272
121004,8.499,-9.236,0.672,-0.190063,-0.980118,1.177126,100133.05,-93,+56,-273
121013,8.171,-8.353,0.605,-0.143238,-0.919457,1.134557,100133.05,-91,+53,-276
121019,7.936,-7.310,0.192,-0.133128,-0.891256,1.126575,100134.43,-91,+53,-276
121028,7.325,-7.168,-0.202,-0.032027,-0.856669,1.166484,100134.43,-89,+51,-277
121038,6.129,-7.336,-0.613,0.166450,-0.802925,1.186172,100131.35,-88,+46,-279
121049,5.039,-6.905,-0.981,0.278193,-0.753439,1.165952,100131.91,-88,+46,-279
121058,3.929,-6.073,-1.286,0.310120,-0.718320,1.145199,100129.57,-87,+43,-280
121068,2.700,-5.365,-1.333,0.334065,-0.682669,1.122851,100132.72,-86,+39,-283
121078,1.659,-4.750,-1.133,0.356413,-0.635843,1.077089,100132.09,-85,+36,-283
121089,0.797,-4.324,-0.980,0.349496,-0.581568,1.013768,100130.69,-85,+36,-283
121098,-0.091,-4.032,-0.757,0.339918,-0.513990,0.937144,100130.69,-84,+32,-285
121108,-0.876,-3.839,-0.584,0.304267,-0.443219,0.834979,100130.11,-83,+29,-285
121118,-1.511,-3.512,-0.455,0.233496,-0.363935,0.707273,100130.11,-82,+27,-286
121128,-1.832,-3.020,-0.351,0.146230,-0.281990,0.553493,100134.67,-82,+27,-286
121138,-2.089,-2.375,-0.330,0.054707,-0.216541,0.408227,100133.58,-82,+24,-287
121148,-2.290,-2.058,-0.550,-0.023513,-0.164394,0.284246,100130.69,-81,+25,-287
121158,-2.488,-1.915,-0.641,-0.044797,-0.103733,0.161328,100133.94,-81,+23,-287
121168,-2.613,-1.744,-0.641,-0.037348,-0.036687,0.035218,100133.94,-81,+23,-287
121179,-2.539,-1.518,-0.479,-0.036816,0.030358,-0.088763,100133.61,-82,+24,-287
121188,-2.276,-1.668,-0.651,-0.032027,0.097936,-0.198910,100131.17,-82,+25,-287
121198,-2.543,-2.072,-0.390,-0.001697,0.180945,-0.298414,100130.36,-82,+27,-286
121208,-2.352,-2.441,-0.427,-0.016596,0.268211,-0.405901,100130.36,-82,+27,-286
121219,-1.730,-2.896,-0.528,-0.067146,0.368780,-0.533607,100130.36,-82,+27,-286
121228,-1.214,-3.127,-0.442,-0.091091,0.482120,-0.670891,100130.53,-84,+28,-285
121238,-0.171,-3.016,-0.445,-0.084706,0.605569,-0.819350,100130.48,-85,+32,-284
121248,0.570,-3.839,-0.779,-0.013403,0.708266,-0.859258,100131.75,-85,+32,-284
121259,1.443,-3.918,-0.645,0.124413,0.835440,-1.192359,100129.28,-87,+34,-281
121268,2.711,-5.710,-0.810,0.109514,0.890780,-1.282817,100129.28,-89,+35,-281
121278,3.545,-7.278,-0.856,0.100469,0.941862,-1.413716,100134.88,-90,+39,-279
121288,4.786,-7.843,-0.354,0.147294,1.025936,-1.611661,100133.16,-91,+44,-277
121298,6.603,-7.869,-0.226,0.176560,1.078615,-1.782469,100133.01,-91,+44,-277
121309,7.944,-8.814,-0.126,0.257441,1.068505,-1.868138,100133.01,-94,+48,-275
121319,8.983,-9.734,0.472,0.547441,1.094578,-1.933056,100131.30,-96,+52,-273
121328,10.949,-9.585,0.957,0.748578,1.126505,-2.014468,100133.82,-97,+56,-271
121338,12.785,-9.385,1.146,0.760285,1.121183,-2.072469,100133.82,-97,+56,-271
121349,13.107,-9.984,1.414,0.835312,1.161092,-1.987863,100131.98,-98,+60,-268
121358,8.701,-18.965,13.352,1.256743,1.482486,-1.695735,100132.98,-100,+62,-267
121368,20.836,-26.932,9.998,2.896173,2.113036,-0.696965,100132.98,-104,+56,-264
121374,31.487,-18.694,2.424,2.396522,1.017954,-0.828396,100130.59,-104,+56,-264
121383,22.781,-1.016,-1.232,0.684193,0.796064,-1.490340,100133.78,-105,+59,-263
121394,19.932,9.355,3.252,-0.634907,1.230266,-1.966046,100131.91,-105,+59,-263
121403,24.816,4.536,0.635,-0.732815,0.759881,-1.884102,100132.53,-106,+66,-259
121413,45.860,0.055,0.011,-0.163990,0.100597,-0.997607,100132.53,-105,+72,-260
121423,26.954,6.323,0.184,0.539991,-0.077128,-0.199974,100134.83,-105,+71,-260
121434,1.931,0.401,-1.568,0.260634,0.349624,0.645548,100131.38,-105,+71,-260
121443,-0.590,-4.733,-1.702,0.690046,0.435826,0.738135,100131.94,-106,+67,-259
121453,2.239,-7.183,1.468,0.899697,0.270872,0.703548,100130.58,-108,+64,-258
121463,6.260,-8.352,7.127,1.061991,0.170303,0.938741,100130.58,-109,+58,-259
121474,6.973,-8.437,9.172,0.713991,0.195312,0.586484,100132.77,-109,+58,-259
121484,7.689,-9.141,6.643,0.113239,0.228835,-0.002561,100132.09,-110,+56,-258
121493,9.029,-7.823,2.193,-0.593403,0.136780,-0.255314,100133.70,-111,+58,-258
121503,9.759,-3.545,-0.232,-0.766338,0.125606,-0.314378,100132.83,-111,+60,-257
121513,11.247,-2.166,-0.153,-0.325751,0.149551,-0.258506,100132.83,-111,+60,-257
121524,11.333,-2.567,0.635,0.293624,0.101129,-0.052048,100133.70,-110,+62,-255
121533,9.577,-3.215,1.533,0.678872,0.061221,0.067677,100132.02,-111,+60,-257
121543,9.601,-4.996,2.307,0.728358,0.038872,0.170374,100131.81,-112,+58,-257
121553,9.098,-6.618,3.280,0.595863,-0.022320,0.404503,100132.81,-112,+55,-257
121564,7.861,-7.871,3.687,0.276597,-0.051586,0.442282,100132.81,-112,+55,-257
121573,7.525,-6.294,3.843,-0.118761,0.025037,0.179952,100134.34,-112,+54,-257
121583,8.429,-5.506,2.959,-0.317770,0.053239,0.127805,100134.24,-112,+54,-257
121593,8.801,-5.010,2.052,-0.364063,0.063881,-0.054176,100133.55,-112,+56,-257
121604,9.269,-4.379,1.704,-0.522632,0.053771,-0.048855,100134.02,-112,+56,-257
121609,9.308,-3.682,1.382,-0.477935,0.051643,0.095347,100134.02,-112,+57,-256
121618,8.842,-3.851,1.358,-0.367788,0.052175,0.211347,100134.02,-112,+57,-256
121628,8.173,-3.928,2.297,-0.174100,0.113368,0.241677,100135.08,-113,+57,-256
121638,8.292,-4.616,2.908,-0.107054,0.134652,0.233695,100132.88,-113,+56,-255
121649,8.750,-5.601,2.922,-0.273605,0.082505,0.307659,100132.56,-113,+56,-254
121659,9.007,-5.203,3.062,-0.410357,-0.009018,0.427915,100130.66,-113,+56,-254
121668,8.772,-4.454,3.089,-0.426852,-0.071807,0.550833,100133.65,-114,+56,-255
121678,8.640,-4.717,2.831,-0.536467,-0.042009,0.559879,100134.49,-114,+55,-255
121689,9.448,-5.137,2.120,-0.528485,-0.025513,0.436429,100134.49,-114,+54,-254
121699,8.997,-5.161,2.545,-0.312449,-0.055311,0.781768,100133.45,-114,+54,-254
121708,8.407,-4.341,2.744,-0.281054,-0.120229,0.483787,100129.15,-115,+53,-254
121718,9.214,-4.839,2.656,-0.246999,-0.238889,0.417805,100129.15,-114,+52,-254
121729,9.075,-4.738,3.001,-0.203898,-0.279329,0.532741,100136.16,-114,+52,-255
121739,9.456,-5.710,2.504,-0.197513,-0.286247,0.725365,100132.92,-114,+52,-255
121749,9.351,-6.166,2.249,-0.299678,-0.280926,0.958961,100132.23,-114,+50,-256
121758,8.507,-5.877,1.800,-0.465164,-0.251660,0.637567,100132.59,-115,+48,-257
121768,9.041,-5.409,1.675,-0.476338,-0.173440,0.099604,100133.70,-113,+48,-257
121779,10.738,-5.927,1.472,-0.464632,-0.212284,0.214539,100133.74,-113,+49,-257
121789,10.719,-6.129,1.592,-0.427384,-0.295293,0.535402,100132.59,-113,+49,-257
121798,10.489,-6.383,1.412,-0.576375,-0.319770,0.522631,100133.95,-113,+48,-257
121808,11.274,-6.323,1.564,-0.632247,-0.335733,0.631181,100133.95,-113,+47,-257
121819,10.651,-5.840,2.012,-0.629586,-0.379366,0.754631,100133.95,-113,+48,-258
121829,10.733,-5.738,2.250,-0.732283,-0.462375,0.787089,100134.47,-113,+48,-258
121838,10.682,-5.280,1.927,-0.760485,-0.562944,0.892979,100133.20,-111,+47,-259
121844,10.641,-5.243,1.856,-0.722705,-0.627329,0.999933,100132.73,-111,+47,-259
121853,10.171,-5.616,1.932,-0.682797,-0.680008,1.041970,100132.16,-110,+45,-260
121864,9.765,-5.913,1.910,-0.759953,-0.707146,0.971731,100132.16,-110,+43,-262
121874,10.406,-5.763,1.921,-0.829659,-0.727898,0.895108,100133.96,-108,+43,-263
121883,10.790,-5.473,2.214,-0.913201,-0.800797,0.864245,100134.60,-108,+43,-263
121893,11.177,-5.187,2.533,-0.973861,-0.894448,0.938209,100131.87,-106,+43,-265
121904,11.399,-5.374,2.348,-1.064320,-0.952448,1.035585,100127.84,-105,+43,-266
121914,12.177,-5.319,2.296,-1.187769,-0.994485,1.151053,100127.84,-103,+42,-269
121923,13.258,-4.810,2.815,-1.347934,-1.035990,1.280355,100135.30,-103,+42,-269
121933,15.093,-4.129,3.781,-1.495329,-1.103035,1.416575,100132.89,-101,+42,-270
121944,17.168,-3.083,5.257,-1.454888,-1.200411,1.545346,100133.20,-99,+42,-273
121954,17.955,-1.595,6.297,-1.221292,-1.295659,1.711364,100130.91,-96,+40,-275
121963,16.424,-0.532,6.850,-0.808375,-1.398888,1.917823,100130.91,-96,+40,-275
121973,13.312,-0.433,7.267,-0.182082,-1.548411,2.162061,100133.45,-94,+37,-277
121984,11.232,-3.755,5.835,0.204230,-1.602686,2.411620,100131.58,-91,+30,-282
121994,11.513,-10.506,5.096,0.622468,-1.588852,2.713859,100132.63,-87,+22,-285
122004,13.200,-13.399,4.280,0.820413,-1.655365,2.796868,100131.47,-84,+22,-285
122013,13.883,-11.307,3.323,0.518707,-1.745292,2.627125,100131.47,-84,+12,-288
122023,11.668,-7.284,2.177,-0.066082,-1.749549,2.302538,100135.29,-79,+6,-292
122034,8.904,-5.486,2.155,-0.602448,-1.598430,2.068942,100134.60,-75,+3,-295
122044,7.539,-5.596,2.276,-0.991953,-1.419641,1.741694,100130.68,-72,+1,-298
122053,8.116,-2.550,2.385,-1.158503,-1.269586,1.278227,100126.70,-72,+1,-298
122063,7.772,1.345,2.184,-1.236191,-1.076430,0.831255,100126.70,-68,+3,-300
122074,6.480,3.121,1.873,-1.008980,-0.998742,0.647677,100130.38,-66,+4,-301
122084,4.822,3.105,2.220,-0.434302,-0.923182,0.446007,100132.42,-64,+4,-303
122093,3.845,2.412,2.819,0.152083,-0.788026,0.152282,100128.13,-64,+4,-303
122103,3.549,1.867,3.078,0.517110,-0.621476,-0.163791,100129.48,-62,+4,-304
122114,3.626,1.488,2.765,0.694303,-0.474614,-0.472946,100129.48,-61,+2,-306
122124,3.345,1.069,2.285,0.842230,-0.344247,-0.766671,100132.35,-60,+2,-306
122134,2.728,0.515,2.033,1.044963,-0.190467,-1.031662,100130.01,-60,+2,-306
122143,2.691,0.154,2.081,1.249293,-0.016999,-1.332304,100129.32,-60,+2,-305
122153,3.340,0.067,2.214,1.402009,0.140505,-1.634542,100129.85,-61,+1,-305
122164,4.134,-0.012,2.255,1.518009,0.268744,-1.900597,100129.85,-62,+0,-305
122174,4.695,-0.556,2.298,1.619110,0.382083,-2.141111,100133.92,-62,+0,-305
122183,5.161,-1.332,2.339,1.663807,0.493826,-2.381624,100129.11,-64,+1,-303
122193,5.835,-2.071,2.167,1.589844,0.607165,-2.615752,100131.09,-66,+3,-303
122204,6.336,-2.661,2.104,1.424358,0.726890,-2.854138,100129.52,-70,+4,-302
122214,6.832,-3.068,1.987,1.267917,0.853000,-3.078688,100129.52,-70,+4,-302
122223,7.475,-3.546,2.082,1.172670,0.993477,-3.302174,100130.76,-72,+10,-299
122233,8.175,-4.342,2.300,1.132229,1.125440,-3.523532,100132.65,-75,+15,-298
122244,8.821,-5.332,2.613,1.032193,1.255807,-3.731055,100127.88,-79,+21,-295
122254,9.507,-5.771,3.156,0.823606,1.393624,-3.931660,100128.04,-79,+21,-295
122263,10.110,-5.582,3.666,0.592670,1.527183,-4.113641,100128.04,-82,+29,-293
122273,10.523,-5.055,3.989,0.532542,1.681495,-4.254118,100132.94,-85,+38,-290
122284,11.238,-4.702,4.018,0.686321,1.848045,-4.343513,100130.64,-89,+47,-287
122294,12.220,-5.055,4.053,1.052413,1.987990,-4.358412,100129.91,-89,+47,-287
122304,13.108,-6.165,3.886,1.562174,2.085898,-4.294027,100129.02,-91,+56,-283
122313,13.800,-7.495,3.351,2.002761,2.157201,-4.184944,100129.02,-94,+62,-280
122323,14.329,-9.408,2.657,2.302339,2.187531,-4.034357,100132.10,-96,+68,-276
122334,14.651,-12.136,1.703,2.542852,2.139642,-3.870467,100132.88,-96,+68,-276
122344,14.861,-14.167,0.848,2.572650,2.051311,-3.723605,100131.41,-98,+71,-273
122353,14.949,-15.244,-0.297,2.455586,1.919348,-3.582064,100130.79,-100,+76,-270
122363,14.582,-16.339,-1.259,2.319898,1.684688,-3.395293,100130.79,-101,+78,-268
122374,13.806,-17.550,-1.035,2.226779,1.395220,-3.136156,100135.10,-101,+78,-268
122384,11.528,-18.797,-0.014,1.983605,1.144064,-2.823807,100133.01,-101,+82,-267
122394,8.841,-19.721,1.374,1.631348,1.006248,-2.332138,100134.68,-101,+86,-267
122403,7.927,-20.017,2.539,1.304101,0.934413,-1.732982,100134.90,-101,+88,-265
122414,7.876,-20.559,0.775,0.898633,0.781165,-1.166285,100134.90,-101,+88,-265
122424,6.822,-23.021,-1.782,0.429844,0.563000,-0.524561,100135.96,-102,+89,-264
122434,6.949,-23.442,-4.240,-0.056504,0.419508,0.113793,100132.20,-102,+89,-263
122443,8.623,-21.532,-7.101,-0.527953,0.100597,0.733878,100134.91,-105,+88,-263
122454,12.953,-16.258,-6.213,-0.713127,-0.453861,1.496392,100131.66,-105,+88,-263
122464,21.433,6.673,3.326,0.356413,-1.120595,1.799162,100131.66,-105,+84,-263
122474,22.302,22.964,1.158,0.181349,-0.907219,0.829126,100136.66,-103,+79,-268
122483,18.586,0.658,-2.257,-0.972265,-0.164394,1.473511,100134.72,-105,+78,-267
122493,13.476,-18.772,2.610,2.258706,-0.778981,2.717052,100134.78,-105,+62,-271
122504,8.538,-14.564,-0.131,3.563971,-0.689054,2.753235,100133.78,-105,+62,-271
122514,5.684,-6.373,-1.712,1.106156,-0.371917,2.433969,100133.78,-105,+51,-272
122524,4.708,-0.966,3.107,0.733147,0.062817,2.193455,100135.44,-107,+43,-273
122533,5.104,-7.928,6.862,1.023679,0.113368,1.935382,100132.14,-108,+34,-273
122544,9.625,-13.602,4.223,0.942798,-0.287843,1.583658,100134.61,-108,+34,-273
122554,10.688,-13.470,0.949,-0.932889,-0.331476,1.076557,100131.56,-108,+31,-275
122564,10.805,-6.891,2.547,-2.353090,-0.051586,0.994612,100131.56,-108,+34,-273
122573,9.630,-1.474,3.952,-2.812832,0.121349,0.923310,100136.85,-108,+38,-272
122584,8.763,-0.160,2.460,-2.338191,0.183606,0.815823,100133.18,-108,+38,-272
122594,9.038,-0.499,1.260,-1.517677,0.179349,0.768466,100132.34,-109,+41,-271
122604,9.699,0.657,1.807,-0.482192,0.096872,0.833383,100132.29,-110,+39,-272
122613,9.497,-1.888,2.503,0.309056,-0.010614,0.937144,100132.29,-110,+35,-272
122624,9.463,-6.053,2.737,0.690578,-0.152155,0.898300,100136.52,-110,+35,-272
122634,9.188,-8.377,3.774,0.118560,-0.100008,0.796667,100132.69,-110,+33,-272
122644,8.933,-7.441,5.270,-0.507733,-0.023917,0.652998,100132.38,-110,+31,-271
122654,8.617,-5.693,4.570,-1.213843,0.032487,0.517310,100133.47,-110,+33,-270
122663,8.842,-2.714,3.530,-1.492136,0.075056,0.465695,100133.47,-110,+33,-270
122670,9.068,-1.549,2.407,-1.451696,0.049514,0.461438,100137.57,-110,+35,-269
122679,9.400,-1.587,1.606,-1.185641,0.006413,0.477934,100137.57,-110,+35,-269
122689,9.604,-3.121,1.230,-0.798265,-0.035091,0.497622,100133.43,-111,+37,-269
122699,9.715,-4.707,1.829,-0.650870,-0.060100,0.533805,100133.38,-111,+35,-270
122708,9.608,-4.769,2.562,-0.704614,-0.078724,0.537530,100132.43,-111,+37,-270
122719,9.273,-4.077,2.904,-0.749843,-0.128210,0.539658,100137.17,-110,+37,-270
122729,9.082,-3.687,3.063,-0.705678,-0.179825,0.569457,100132.25,-110,+37,-270
122739,8.954,-3.810,3.016,-0.652467,-0.214944,0.619475,100133.61,-110,+37,-270
122748,9.194,-4.150,2.785,-0.672687,-0.249531,0.688649,100133.61,-110,+37,-270
122759,9.480,-3.862,2.748,-0.705678,-0.300082,0.749842,100132.31,-110,+35,-271
122769,9.480,-3.747,2.650,-0.702485,-0.362339,0.804117,100132.31,-110,+35,-271
122779,9.463,-4.119,2.458,-0.636504,-0.400118,0.855732,100132.63,-109,+36,-272
122788,9.545,-4.708,2.216,-0.575843,-0.417146,0.890319,100136.41,-108,+34,-273
122799,9.517,-5.006,1.902,-0.576907,-0.423531,0.897768,100134.36,-107,+33,-273
122809,9.379,-5.081,1.772,-0.634907,-0.419274,0.891915,100132.73,-107,+33,-273
122819,9.474,-5.066,1.928,-0.688118,-0.413953,0.878080,100132.73,-106,+31,-274
122829,9.457,-5.187,1.969,-0.728558,-0.419806,0.839768,100133.35,-106,+31,-275
122839,9.419,-5.485,1.872,-0.774852,-0.423531,0.791878,100135.26,-105,+31,-277
122849,9.360,-5.638,1.912,-0.825935,-0.425128,0.828594,100133.80,-105,+31,-277
122859,9.188,-5.227,2.073,-0.973861,-0.458118,0.840833,100133.80,-105,+31,-276
122869,9.659,-5.671,1.873,-1.210118,-0.513990,0.963750,100133.80,-103,+31,-278
122878,8.744,-3.900,2.129,-0.972797,-0.577311,0.875420,100136.11,-103,+31,-279
122889,9.689,-4.275,1.960,-0.913201,-0.706082,0.767933,100134.44,-103,+31,-279
122899,10.555,-4.025,1.719,-0.875953,-0.824742,0.922245,100134.39,-101,+32,-279
122909,10.433,-3.582,1.708,-0.746650,-0.946063,1.078153,100134.50,-98,+31,-283
122918,10.925,-2.860,2.328,-0.537531,-1.111549,1.108484,100134.50,-96,+29,-285
122929,11.356,-2.759,2.898,-0.374173,-1.252558,1.310686,100133.08,-96,+29,-285
122939,11.979,-3.271,2.960,-0.260834,-1.335035,1.459144,100132.88,-92,+27,-288
122949,13.036,-4.392,2.292,-0.246467,-1.394099,1.591107,100132.58,-90,+23,-292
122959,13.460,-4.821,1.859,-0.328944,-1.450503,1.803951,100132.58,-86,+19,-294
122970,14.220,-4.482,2.360,-0.562008,-1.473384,1.842263,100133.27,-86,+19,-294
122979,15.675,-4.064,2.597,-0.863714,-1.551072,1.951878,100136.30,-82,+17,-297
122989,17.587,-3.269,3.496,-1.097311,-1.623971,2.056171,100136.30,-78,+15,-302
122999,20.515,-1.451,6.109,-1.338888,-1.716558,2.068942,100134.69,-73,+15,-305
123009,22.195,1.403,8.224,-1.489475,-1.807017,2.138116,100128.77,-73,+15,-305
123019,20.712,1.378,8.601,-1.424026,-1.911842,2.352024,100128.77,-67,+14,-308
123029,18.565,0.141,8.769,-1.156907,-2.029971,2.420666,100133.40,-61,+11,-312
123039,16.186,-3.029,7.663,-1.000999,-2.158741,2.381290,100131.15,-56,+11,-317
123049,13.924,-8.495,7.189,-0.503476,-2.232704,2.422795,100131.62,-56,+11,-317
123059,14.149,-10.721,5.665,0.010542,-2.191732,2.463235,100132.71,-47,+7,-320
123069,13.848,-9.304,4.938,0.513386,-2.130539,2.465896,100131.98,-42,+0,-324
123079,12.137,-5.448,4.141,0.581496,-2.155549,2.280189,100131.71,-34,-5,-327
123089,10.162,-2.451,3.843,0.757092,-2.259310,2.118960,100131.24,-34,-5,-327
123099,6.827,-2.248,3.058,1.165752,-2.252924,1.865676,100131.24,-26,-11,-330
123109,2.747,-3.863,4.296,1.419569,-2.075732,1.670392,100132.71,-19,-19,-333
123119,-0.717,-6.278,3.895,1.181715,-1.779879,1.277163,100132.71,-12,-24,-335
123129,0.711,-5.843,4.598,0.720376,-1.529255,0.714723,100132.67,-12,-24,-335
123139,3.474,-0.752,2.513,0.400046,-1.574485,-0.104727,100132.83,-7,-27,-335
123149,4.228,3.669,2.097,0.075459,-1.397292,-0.691112,100132.92,-3,-26,-338
123159,3.918,4.608,1.820,0.151551,-1.181788,-0.874157,100130.09,+0,-25,-339
123169,2.689,3.185,2.240,0.605441,-0.973733,-1.001864,100130.09,+3,-25,-340
123180,1.469,1.013,2.427,1.078486,-0.799201,-1.232267,100131.84,+3,-27,-340
123189,0.970,-0.534,2.799,1.336560,-0.581036,-1.607937,100131.34,+4,-29,-340
123199,1.575,-1.316,2.898,1.302504,-0.309660,-1.941569,100127.23,+4,-31,-340
123209,2.575,-1.998,2.664,1.102431,-0.098944,-2.159202,100127.23,+3,-32,-339
123219,3.083,-3.157,2.837,0.928431,0.074524,-2.333734,100127.23,+3,-32,-339
123229,3.103,-3.432,3.359,0.899165,0.222450,-2.577441,100134.57,+1,-31,-338
123239,3.120,-2.140,3.494,0.918321,0.398578,-2.948321,100132.95,+0,-31,-337
123249,3.903,-0.764,3.272,1.051881,0.619936,-3.290468,100129.74,-5,-29,-337
123259,5.073,-0.446,3.287,1.431985,0.847679,-3.534351,100131.03,-5,-29,-337
123269,5.826,-1.800,3.412,1.831954,1.013165,-3.675715,100131.03,-10,-29,-335
123279,6.766,-3.788,3.095,2.196981,1.143000,-3.839605,100128.52,-15,-30,-333
123289,7.621,-5.172,2.904,2.345440,1.252614,-4.005623,100130.50,-22,-31,-329
123299,8.061,-5.786,3.283,2.349164,1.367550,-4.106724,100130.41,-22,-31,-329
123310,8.411,-6.631,4.305,2.279458,1.470247,-4.180687,100130.81,-29,-32,-327
123319,8.515,-7.638,5.190,2.060761,1.566027,-4.267953,100131.39,-36,-30,-323
123329,9.160,-7.718,5.169,1.827697,1.765036,-4.384485,100131.14,-44,-28,-320
123339,10.139,-8.001,5.324,1.761183,2.005550,-4.511660,100131.14,-44,-28,-320
123350,11.234,-8.974,5.401,1.991055,2.250320,-4.580302,100129.03,-52,-23,-315
123359,12.351,-9.971,5.473,2.174100,2.450394,-4.590944,100129.41,-61,-20,-311
123369,13.423,-11.018,4.729,2.222522,2.607898,-4.513788,100129.41,-70,-17,-305
123379,14.088,-13.615,3.570,2.157073,2.633439,-4.372779,100132.13,-70,-17,-305
123389,14.745,-15.390,1.383,2.064486,2.529146,-4.261036,100132.23,-78,-13,-298
123400,15.793,-16.627,-0.182,1.851642,2.434430,-4.105128,100131.55,-85,-7,-294
123409,16.587,-18.173,-1.469,1.701055,2.267880,-3.844394,100134.80,-92,-3,-288
123419,15.549,-19.780,-1.607,1.447238,1.967770,-3.501715,100135.70,-92,-3,-288
123429,12.717,-21.147,0.305,0.998670,1.657018,-3.091991,100134.66,-97,+1,-285
123440,11.855,-21.259,1.311,0.586285,1.497917,-2.509863,100134.39,-101,+6,-282
123449,10.442,-22.563,-1.521,0.111111,1.104156,-1.704248,100133.19,-103,+10,-280
123459,8.155,-26.388,-4.018,0.205294,0.766798,-0.770396,100133.19,-103,+10,-280
123469,8.717,-26.169,-6.419,-0.001697,0.465092,0.146961,100133.19,-105,+11,-278
123480,12.950,-21.518,-10.135,-0.201770,-0.083513,1.098374,100136.32,-105,+9,-278
123489,23.494,-4.881,-6.759,0.114835,-1.042375,1.825236,100136.73,-102,+3,-280
123495,31.827,18.203,-0.481,1.119459,-1.745824,1.625695,100130.76,-102,+3,-280
123504,25.974,18.431,-4.036,0.585221,-1.109953,1.193089,100135.32,-99,-1,-284
123514,17.777,-8.733,-3.224,0.068542,-0.405972,2.241877,100135.32,-97,-9,-285
123525,10.408,-19.880,2.895,2.999935,-0.979054,3.140611,100134.71,-97,-9,-285
123534,8.316,-8.200,0.157,2.607770,-0.816228,3.069840,100135.82,-94,-27,-285
123544,4.489,-0.802,1.772,0.483055,-0.532082,2.665969,100132.93,-92,-35,-286
123554,0.674,4.432,6.739,2.100137,-0.312852,2.498354,100132.57,-89,-48,-285
123565,2.089,-7.433,8.342,2.861586,-0.357550,2.228575,100132.57,-89,-48,-285
123574,9.223,-19.872,4.001,1.847917,-0.691182,1.874722,100133.78,-86,-61,-284
123584,13.277,-18.609,0.717,-1.044632,-0.468761,1.422428,100133.38,-83,-62,-286
123594,12.257,-8.565,2.784,-3.654630,-0.097880,1.001530,100132.48,-82,-56,-290
123604,10.162,0.244,1.023,-3.719015,-0.078192,0.947254,100129.91,-82,-56,-290
123614,9.954,2.675,0.099,-2.238154,-0.093091,1.120722,100129.91,-80,-47,-291
123624,9.146,3.212,1.152,-0.636504,-0.171843,1.015365,100137.34,-79,-48,-292
123634,8.152,0.938,1.092,0.680468,-0.332540,1.079218,100135.19,-78,-54,-293
123644,9.334,-2.664,1.776,1.427550,-0.411825,1.267053,100133.94,-78,-54,-293
123655,9.182,-7.143,4.292,1.331771,-0.362871,1.271842,100132.31,-76,-61,-292
123664,8.177,-11.170,5.884,0.443679,-0.277733,1.029199,100132.31,-75,-66,-292
123674,7.541,-9.542,5.127,-0.911072,-0.135128,0.760484,100135.08,-73,-64,-293
123684,7.894,-3.971,4.003,-1.795439,0.004817,0.602447,100134.50,-73,-64,-293
123695,9.166,-0.123,1.766,-1.523530,-0.038284,0.590209,100132.98,-71,-60,-295
123704,10.307,0.364,0.080,-0.544981,-0.172375,0.693438,100137.22,-71,-60,-297
123714,10.105,-2.563,0.578,0.329276,-0.279329,0.794007,100137.22,-70,-64,-296
123724,9.604,-5.454,1.569,0.499019,-0.295825,0.839236,100133.57,-70,-64,-296
123729,9.449,-6.692,2.316,0.249991,-0.258045,0.829658,100133.51,-68,-65,-296
123739,9.175,-6.243,3.014,-0.091091,-0.210687,0.791878,100133.51,-67,-68,-296
123749,8.705,-4.816,3.491,-0.411421,-0.160137,0.761548,100134.93,-67,-68,-296
123759,8.847,-4.207,3.163,-0.506669,-0.138320,0.757291,100135.35,-66,-67,-297
123769,9.225,-4.423,2.626,-0.490173,-0.145770,0.737603,100135.35,-64,-68,-297
123780,9.472,-4.419,2.060,-0.486981,-0.154816,0.728557,100135.48,-63,-68,-298
123790,9.942,-4.211,1.605,-0.528485,-0.168651,0.738667,100133.98,-63,-68,-298
123799,9.967,-4.332,1.614,-0.550302,-0.176632,0.798796,100134.72,-61,-68,-299
123809,9.861,-4.474,1.570,-0.575843,-0.185146,0.863713,100134.72,-61,-68,-300
123820,9.908,-4.263,1.811,-0.538595,-0.209623,0.916924,100134.72,-59,-68,-302
123830,9.937,-4.387,2.039,-0.439623,-0.252724,0.972264,100137.53,-59,-68,-302
123839,9.772,-5.035,2.140,-0.366724,-0.286779,1.018025,100134.55,-57,-70,-302
123850,9.776,-5.606,1.994,-0.400602,-0.293874,1.038600,100132.25,-56,-70,-304
123859,9.896,-5.862,1.809,-0.496027,-0.284118,1.030264,100132.25,-54,-72,-304
123870,9.832,-5.941,1.557,-0.634375,-0.267623,1.004190,100132.25,-54,-72,-304
123880,9.590,-5.929,1.322,-0.783366,-0.237825,0.979181,100136.99,-52,-71,-306
123889,9.242,-5.606,1.356,-0.925971,-0.219201,0.963218,100135.79,-49,-70,-307
123899,9.094,-4.756,1.304,-0.996742,-0.247403,0.969071,100133.59,-48,-69,-308
123910,9.351,-4.451,1.380,-0.933421,-0.307531,0.995144,100133.59,-48,-69,-308
123920,10.090,-4.793,1.211,-0.829127,-0.406504,1.096245,100135.41,-45,-68,-310
123929,10.557,-5.607,1.157,-0.868503,-0.476742,1.247364,100135.41,-43,-68,-310
123939,11.114,-5.708,2.291,-1.155311,-0.538999,1.294190,100133.63,-40,-67,-314
123950,12.170,-3.789,3.197,-1.350595,-0.673623,1.327181,100134.73,-40,-67,-314
123960,12.061,-2.172,3.205,-1.206925,-0.778981,1.414447,100131.38,-36,-65,-315
123969,12.719,-3.225,2.692,-0.963219,-0.906687,1.606006,100131.38,-31,-65,-318
123979,13.093,-4.228,2.171,-0.943531,-1.007788,1.783731,100133.02,-26,-66,-320
123990,13.878,-5.353,2.257,-1.185641,-1.004595,1.927933,100133.54,-26,-66,-320
124000,15.279,-5.321,2.869,-1.540558,-0.977990,1.999768,100132.18,-21,-64,-323
124010,17.310,-3.282,3.801,-1.952411,-0.964687,2.019456,100131.77,-15,-62,-325
124019,19.453,-1.013,5.611,-2.308924,-0.977457,2.075327,100134.48,-9,-58,-329
124029,20.328,1.269,7.672,-2.494099,-1.043439,2.210483,100133.33,-9,-58,-329
124040,20.637,2.330,8.410,-2.486649,-1.153054,2.362666,100131.39,-3,-52,-332
124049,20.515,1.901,8.556,-2.386612,-1.253090,2.421731,100131.39,+3,-48,-337
124059,18.262,-0.494,8.362,-2.179090,-1.344613,2.397254,100128.05,+10,-44,-339
124069,15.288,-5.654,6.615,-1.630484,-1.517017,2.488244,100128.05,+10,-44,-339
124080,14.697,-10.009,3.779,-1.324521,-1.636741,2.477070,100133.56,+19,-41,-342
124085,15.058,-10.427,3.300,-1.122852,-1.692613,2.468556,100132.67,+26,-41,-343
124094,13.823,-8.555,4.802,-0.588081,-1.760191,2.441419,100133.66,+26,-41,-343
124104,11.078,-4.629,5.554,-0.028834,-1.840539,2.218465,100130.67,+35,-42,-344
124114,8.430,-0.712,5.421,0.447936,-1.845861,1.811933,100130.67,+43,-44,-346
124125,5.145,1.446,3.354,0.890652,-1.749017,1.369750,100132.86,+50,-50,-345
124134,1.292,0.223,2.772,0.836376,-1.531916,1.029732,100132.70,+50,-50,-345
124144,-2.623,-3.299,2.507,0.843294,-1.281824,0.773787,100130.92,+57,-55,-345
124154,-2.992,-7.503,3.100,0.778376,-0.820485,0.424191,100130.98,+62,-57,-345
124165,0.565,-6.949,4.989,1.120523,-0.399054,0.006484,100130.98,+63,-62,-344
124175,2.782,-4.560,4.395,1.202468,-0.195256,-0.275534,100132.68,+63,-62,-344
124184,3.502,-1.841,1.780,0.403771,-0.230907,-0.681001,100131.84,+63,-66,-343
124194,3.189,1.088,-0.023,-0.724302,-0.405439,-1.247698,100130.95,+64,-64,-343
124205,2.781,3.352,-0.888,-1.197347,-0.349036,-1.645184,100129.16,+64,-60,-345
124215,2.519,4.041,-0.400,-0.834448,-0.202174,-1.981478,100129.16,+64,-60,-345
124224,2.790,3.479,0.659,0.108982,0.021845,-2.303404,100132.63,+64,-57,-345
124234,3.158,1.526,1.899,0.911404,0.275129,-2.498688,100131.31,+62,-58,-344
124244,3.622,-0.731,2.541,1.400413,0.461367,-2.642890,100128.69,+57,-64,-341
124255,4.372,-2.399,2.785,1.546211,0.655055,-2.848284,100130.73,+57,-64,-341
124264,5.612,-3.397,2.996,1.379128,0.867899,-3.020156,100130.73,+53,-68,-340
124274,6.405,-3.060,3.297,1.060927,0.991881,-3.181385,100129.34,+47,-71,-338
124284,6.207,-1.584,3.037,1.013037,1.036578,-3.461275,100132.16,+40,-72,-335
124295,6.531,-0.522,2.816,1.516945,1.180780,-3.820449,100128.38,+40,-72,-335
124305,7.667,-0.954,3.215,2.143238,1.372339,-4.087568,100130.48,+31,-75,-332
124314,9.134,-2.155,2.999,2.596063,1.482486,-4.276999,100130.48,+23,-81,-327
124320,10.208,-3.271,2.826,2.833916,1.519202,-4.391403,100131.69,+23,-81,-327
124329,10.836,-4.664,2.834,3.023347,1.557513,-4.464834,100131.69,+12,-87,-322
124340,11.487,-6.276,3.390,3.196815,1.609660,-4.523366,100129.97,+1,-93,-315
124350,12.091,-7.624,4.064,3.281953,1.619238,-4.572320,100129.02,-10,-98,-308
124359,13.241,-8.476,4.237,3.328779,1.610724,-4.647880,100128.08,-10,-98,-308
124369,14.741,-9.618,4.607,3.377733,1.653825,-4.721843,100133.13,-21,-102,-302
124380,16.107,-10.958,4.606,3.503310,1.727789,-4.687788,100133.13,-33,-105,-293
124390,16.179,-12.673,4.328,3.492668,1.718743,-4.611164,100129.88,-46,-109,-285
124399,15.510,-14.050,3.108,3.391035,1.654889,-4.544651,100129.88,-46,-109,-285
124409,15.440,-15.603,1.624,3.177127,1.596357,-4.396192,100130.66,-58,-109,-277
124420,15.566,-17.408,-0.097,3.045164,1.502706,-4.109385,100130.66,-69,-108,-268
124430,14.641,-19.223,0.166,2.949916,1.374468,-3.716156,100134.34,-79,-107,-261
124439,12.384,-20.268,1.750,2.910008,1.222284,-3.211715,100133.61,-79,-107,-261
124449,11.204,-20.583,1.981,2.665238,1.020083,-2.642890,100133.30,-86,-107,-253
124460,10.120,-23.177,1.177,2.307128,0.797661,-2.043735,100131.25,-92,-107,-248
124470,8.582,-25.563,0.877,1.940504,0.635899,-1.383386,100131.25,-96,-107,-244
124480,8.369,-25.095,-0.212,1.221624,0.502872,-0.707607,100134.04,-96,-107,-244
124489,7.022,-23.897,-0.965,0.455386,0.217129,0.198044,100132.02,-98,-109,-242
124499,7.059,-22.428,-0.777,0.037147,-0.060632,1.116465,100131.07,-98,-112,-242
124510,9.175,-19.728,-1.284,-0.253917,-0.411825,1.911437,100131.07,-94,-115,-243
124520,14.838,-4.120,5.859,0.270212,-0.829531,2.432373,100131.07,-94,-115,-243
124529,22.752,24.791,1.006,0.576707,-0.959366,1.473511,100131.89,-87,-123,-244
124539,20.169,14.023,-4.809,-2.212080,-0.235164,0.818484,100132.16,-86,-122,-247
124550,19.133,-13.807,-1.275,-0.254981,-0.380430,2.540391,100131.73,-81,-127,-247
124560,15.100,-24.732,1.464,2.976522,-0.774192,3.307161,100133.67,-81,-127,-247
124569,10.770,-12.639,-2.022,1.724468,-0.910412,3.095914,100133.67,-73,-141,-243
124579,5.248,0.846,1.352,0.400046,-0.641696,2.672354,100135.26,-67,-148,-244
124590,1.370,3.774,3.203,0.695367,-0.360742,2.342978,100130.96,-61,-156,-242
124600,2.873,-3.863,3.811,2.658852,-0.262302,2.202501,100132.62,-56,-166,-236
124610,9.473,-12.894,3.376,2.249128,-0.576779,1.815658,100132.62,-56,-166,-236
124620,11.903,-14.814,0.808,0.584688,-0.621476,1.489474,100135.97,-52,-171,-236
124630,12.208,-9.387,1.894,-1.225017,-0.388944,1.386245,100131.98,-47,-172,-238
124640,10.349,-3.187,2.729,-1.988594,-0.256449,1.338355,100131.98,-44,-170,-244
124650,8.567,-1.833,2.418,-1.873127,-0.158541,1.336227,100133.92,-44,-170,-244
124659,7.989,-0.931,1.521,-1.320265,-0.107990,1.259071,100131.45,-40,-169,-247
124669,8.686,-0.589,1.556,-0.657788,-0.103733,1.128704,100131.45,-38,-169,-249
124676,9.415,-0.709,1.689,0.045661,-0.164394,1.045695,100136.06,-38,-169,-249
124685,9.211,-1.647,1.550,0.632578,-0.215476,1.072300,100134.55,-34,-172,-248
124695,8.900,-4.243,1.550,0.945459,-0.217073,1.079218,100133.70,-32,-176,-246
124704,8.887,-6.557,1.383,0.845422,-0.181953,0.986631,100130.88,-32,-176,-246
124715,8.769,-7.573,1.517,0.452193,-0.103201,0.895108,100130.88,-29,-179,-245
124725,8.827,-7.477,2.146,-0.085238,0.002157,0.772722,100133.95,-27,-181,-245
124735,8.950,-6.794,2.567,-0.643421,0.095808,0.601383,100131.23,-26,-180,-246
124744,8.988,-5.004,2.598,-1.053678,0.120817,0.446007,100132.32,-26,-180,-246
124754,8.923,-2.552,2.386,-1.040907,0.077716,0.393328,100131.27,-24,-178,-249
124765,9.249,-1.342,1.680,-0.633311,-0.001568,0.423658,100131.27,-24,-178,-250
124775,9.707,-2.006,1.435,-0.125678,-0.069146,0.499750,100131.71,-22,-178,-251
124785,9.762,-3.707,1.719,0.113771,-0.081917,0.596594,100132.76,-22,-178,-251
124794,9.548,-5.289,2.085,0.027037,-0.046265,0.627456,100133.34,-21,-179,-251
124805,9.256,-5.442,2.266,-0.233164,-0.009550,0.646080,100132.18,-19,-180,-251
124815,9.351,-4.931,2.419,-0.451861,0.014395,0.661512,100132.18,-18,-180,-252
124825,9.541,-4.796,2.317,-0.536999,0.012267,0.692374,100133.42,-18,-180,-252
124834,9.602,-4.639,1.968,-0.587549,0.002689,0.728025,100133.36,-15,-179,-253
124845,9.814,-4.505,1.861,-0.639164,-0.018064,0.768466,100132.69,-14,-179,-255
124855,10.002,-4.211,2.037,-0.654063,-0.069678,0.808906,100134.83,-12,-180,-256
124865,9.789,-4.125,1.958,-0.593935,-0.114908,0.871695,100134.83,-9,-180,-256
124874,10.350,-4.300,1.086,-0.510394,-0.159073,0.945126,100135.81,-9,-179,-258
124884,10.563,-4.911,1.134,-0.452926,-0.195256,0.994080,100134.03,-7,-180,-259
124895,10.582,-5.090,1.203,-0.472082,-0.221330,1.033456,100131.09,-3,-180,-260
124905,10.440,-4.980,1.507,-0.551366,-0.241550,1.045695,100130.20,-1,-180,-262
124914,10.214,-4.827,1.934,-0.642357,-0.260706,1.043566,100130.20,-1,-180,-262
124924,10.007,-4.676,2.199,-0.742925,-0.268155,1.053676,100132.80,+2,-179,-264
124935,10.312,-4.287,2.201,-0.805182,-0.302742,1.107952,100130.54,+6,-178,-266
124945,10.724,-4.006,2.299,-0.799329,-0.376706,1.202135,100133.85,+8,-178,-268
124955,11.095,-3.609,2.572,-0.773256,-0.486320,1.327181,100132.27,+8,-178,-268
124964,11.522,-3.492,2.474,-0.768467,-0.629458,1.470850,100132.27,+14,-178,-270
124975,12.476,-3.694,2.299,-0.767935,-0.739604,1.624630,100133.58,+20,-177,-273
124985,13.057,-4.148,1.790,-0.826467,-0.817825,1.790648,100133.42,+27,-177,-276
124995,13.568,-4.444,1.133,-0.932357,-0.879017,1.961988,100131.38,+27,-177,-276
125004,13.616,-4.317,0.875,-1.057934,-0.932760,2.062024,100132.20,+34,-177,-279
125015,14.291,-4.444,1.158,-1.242044,-0.968412,2.147694,100132.20,+42,-175,-283
125025,15.246,-5.435,1.894,-1.505439,-0.977990,2.266355,100132.89,+49,-172,-286
125035,17.360,-5.162,4.276,-1.827365,-1.019494,2.246666,100128.81,+49,-172,-286
125045,20.657,-1.282,7.776,-2.159402,-1.045035,2.154611,100131.89,+57,-167,-291
125054,20.907,1.237,9.969,-2.272741,-1.023219,2.314244,100131.89,+65,-162,-297
125065,17.737,1.110,10.700,-2.081182,-1.071109,2.621804,100131.89,+74,-156,-300
125075,17.301,0.370,11.182,-1.914631,-1.117402,2.746317,100132.03,+74,-156,-300
125085,17.324,-1.878,10.497,-1.972631,-1.056742,2.675547,100131.14,+82,-152,-305
125094,14.969,-6.187,8.007,-1.835879,-1.010448,2.671290,100129.36,+92,-146,-309
125105,13.914,-10.539,3.649,-1.677842,-1.156778,2.683528,100129.30,+100,-142,-312
125115,14.098,-10.908,2.827,-1.670925,-1.258411,2.513786,100129.30,+100,-142,-312
125125,13.144,-6.436,4.141,-1.456485,-1.304173,2.244006,100134.30,+108,-136,-314
125134,11.149,-1.651,4.240,-0.693439,-1.378136,1.979015,100131.27,+115,-133,-315
125145,8.455,1.621,4.430,0.096744,-1.366430,1.607071,100132.48,+122,-133,-314
125155,4.647,2.605,2.612,0.529881,-1.330778,1.273970,100131.05,+122,-133,-314
125165,0.447,-0.336,1.207,0.480395,-1.123255,1.092520,100131.05,+127,-134,-313
125175,-1.658,-6.634,0.645,0.296285,-0.719384,0.871163,100132.61,+131,-135,-312
125185,-0.221,-9.474,2.820,0.584156,-0.295293,0.609365,100130.61,+133,-137,-309
125195,2.816,-7.259,2.692,1.046028,-0.214412,0.323622,100131.72,+133,-137,-309
125205,2.959,-3.727,1.226,0.882670,-0.274008,-0.072268,100129.36,+134,-140,-307
125215,2.846,-1.371,-0.445,0.161661,-0.283586,-0.406965,100129.36,+134,-142,-307
125224,2.685,0.606,-1.837,-0.690779,-0.446412,-0.860855,100133.61,+133,-140,-307
125235,2.102,2.194,-1.131,-0.950980,-0.424595,-1.366891,100130.11,+133,-140,-307
125245,1.543,3.278,-0.089,-0.480063,-0.284651,-1.744157,100131.63,+130,-138,-308
125255,1.319,3.406,0.914,0.469753,-0.070742,-2.004890,100129.63,+127,-138,-306
125264,1.413,2.081,1.865,1.353587,0.189991,-2.203367,100129.63,+121,-144,-303
125275,1.688,-0.184,2.415,1.817055,0.436890,-2.351826,100131.41,+121,-144,-303
125285,2.166,-2.351,2.315,1.797899,0.628982,-2.571587,100126.38,+115,-151,-298
125295,2.838,-2.999,2.245,1.545146,0.797661,-2.866376,100126.12,+106,-156,-295
125305,4.031,-2.089,2.033,1.300376,0.970064,-3.113807,100126.27,+95,-161,-292
125315,5.138,-0.989,2.099,1.220560,1.116927,-3.358046,100126.27,+95,-161,-292
125325,5.844,-0.332,1.782,1.399881,1.246761,-3.581532,100132.97,+85,-164,-287
125335,6.384,-0.799,1.825,1.710101,1.395752,-3.827899,100131.70,+71,-168,-283
125345,6.880,-1.745,2.203,1.968174,1.535165,-4.054045,100129.14,+59,-172,-278
125355,8.119,-2.467,2.439,2.080981,1.651165,-4.280192,100129.03,+44,-176,-271
125365,9.855,-3.312,2.286,2.188999,1.712357,-4.508467,100129.03,+44,-176,-271
125375,11.044,-4.375,2.685,2.460907,1.707036,-4.719182,100130.30,+28,-177,-263
125385,11.440,-5.768,2.955,2.845091,1.740027,-4.879347,100130.20,+12,-180,-255
125394,12.832,-7.298,4.027,3.106889,1.826761,-5.001201,100130.41,-4,-180,-245
125405,14.653,-8.991,5.172,3.300045,1.895403,-5.023017,100125.38,-4,-180,-245
125415,16.311,-10.075,6.133,3.396356,1.954467,-5.016632,100125.38,-21,-181,-233
125425,17.438,-11.473,5.928,3.433604,1.958724,-4.995347,100130.92,-37,-179,-221
125435,17.952,-13.872,4.401,3.499053,1.910302,-4.844228,100131.55,-52,-178,-210
125445,18.074,-16.320,2.641,3.519274,1.826229,-4.602650,100130.92,-52,-178,-210
125455,17.981,-19.540,1.212,3.547476,1.778339,-4.281788,100129.83,-66,-174,-198
125465,17.293,-22.051,0.982,3.399549,1.660211,-3.863550,100129.83,-76,-170,-186
125475,15.170,-22.941,1.555,2.771127,1.443110,-3.399550,100135.21,-85,-166,-179
125485,12.189,-22.670,1.414,1.705312,1.124908,-2.873826,100133.43,-85,-166,-179
125495,10.246,-25.030,1.905,1.030064,0.984431,-2.208156,100132.27,-94,-161,-175
125501,8.233,-27.272,1.040,0.739532,0.855129,-1.631881,100132.54,-98,-161,-171
125510,6.759,-28.576,-0.891,0.277129,0.614615,-0.912469,100132.54,-98,-158,-171
125519,7.169,-27.083,-3.352,-0.320962,0.346432,0.072466,100132.54,-98,-158,-170
125531,9.808,-22.798,-4.799,-0.813164,-0.006889,1.094117,100136.29,-94,-160,-171
125540,14.010,-14.882,-4.342,-0.863182,-0.574650,1.852905,100135.71,-94,-160,-171
125550,20.298,8.904,2.255,0.120689,-1.184448,1.990190,100130.63,-90,-164,-175
125560,22.746,30.178,-2.322,-0.391733,-1.050889,0.798264,100130.63,-85,-168,-176
125571,16.229,7.026,-3.039,-1.955071,-0.347972,1.135621,100134.06,-82,-168,-181
125580,13.737,-14.255,1.685,1.301972,-0.673091,2.639895,100134.06,-82,-168,-181
125590,11.620,-19.747,2.446,2.931824,-0.636907,2.961822,100130.19,-75,-177,-177
125600,12.675,-11.802,-0.949,1.681899,-0.629990,3.226280,100132.53,-66,-187,-173
125611,8.285,1.365,-0.394,1.412651,-0.565072,2.675547,100131.48,-59,-195,-170
125620,2.425,3.776,5.470,1.752669,-0.224522,2.268483,100131.48,-53,-201,-165
125630,1.629,-7.640,7.842,2.840834,-0.269219,2.239217,100132.51,-53,-201,-165
125640,8.322,-15.549,2.874,2.154412,-0.701293,1.614520,100132.09,-48,-207,-159
125650,12.457,-15.797,-0.452,-0.190063,-0.555494,1.367621,100131.99,-43,-210,-161
125660,12.801,-7.865,2.335,-2.131200,-0.137256,1.350062,100130.77,-39,-209,-167
125670,10.742,-0.383,3.579,-2.740998,-0.002100,1.254814,100132.65,-39,-209,-167
125680,8.297,-0.159,2.912,-2.285512,0.085698,1.234062,100133.87,-35,-209,-175
125690,8.228,-0.934,1.563,-1.335696,0.039936,1.147328,100133.23,-33,-210,-178
125700,8.721,0.187,1.132,-0.454522,-0.031366,1.082410,100133.23,-29,-211,-178
125710,8.975,-1.726,1.053,0.296285,-0.105330,1.119658,100130.93,-29,-211,-178
125720,9.816,-4.471,0.955,0.746450,-0.165990,1.169144,100130.93,-26,-214,-177
125730,9.847,-6.750,1.669,0.560743,-0.187274,1.107420,100131.39,-22,-217,-175
125735,9.066,-7.664,3.046,0.202101,-0.145238,0.971199,100134.80,-22,-217,-175
125745,8.302,-7.379,3.943,-0.274137,-0.107458,0.812631,100133.42,-19,-217,-176
125755,7.770,-6.013,4.076,-0.788155,-0.084577,0.624796,100129.92,-17,-217,-178
125765,7.785,-4.474,3.163,-0.947788,-0.050522,0.466759,100129.92,-17,-217,-178
125775,8.377,-3.042,1.607,-0.902026,-0.055843,0.338521,100133.99,-15,-217,-181
125785,9.021,-2.672,1.134,-0.597127,-0.087770,0.298081,100130.74,-15,-217,-182
125795,9.726,-2.755,1.671,-0.264559,-0.126082,0.326282,100131.52,-13,-217,-183
125805,9.907,-2.850,2.108,-0.111311,-0.112779,0.401310,100130.48,-13,-217,-183
125815,9.376,-3.628,2.635,-0.151219,-0.073935,0.468888,100130.48,-12,-217,-183
125826,9.133,-3.997,2.662,-0.175696,-0.047330,0.513053,100134.06,-10,-217,-185
125835,9.233,-4.056,3.301,-0.210816,-0.034027,0.612557,100133.64,-8,-219,-185
125845,9.258,-5.195,3.143,-0.381623,-0.031366,0.620539,100130.77,-7,-219,-186
125855,9.661,-5.174,2.535,-0.566265,-0.046798,0.610429,100130.97,-7,-219,-186
125865,9.686,-4.465,2.099,-0.712595,-0.075531,0.623732,100130.97,-5,-219,-189
125875,9.695,-3.715,1.972,-0.709935,-0.108522,0.682264,100134.40,-2,-218,-191
125885,9.689,-3.520,1.938,-0.626926,-0.173440,0.777511,100133.46,+0,-219,-192
125895,9.839,-3.739,2.079,-0.516779,-0.259109,0.892447,100130.05,+0,-219,-192
125905,9.992,-4.191,2.246,-0.443348,-0.345311,1.002062,100128.54,+3,-219,-194
125915,10.064,-4.589,2.169,-0.433238,-0.392137,1.113805,100128.54,+7,-219,-196
125925,10.214,-4.847,2.117,-0.499219,-0.426192,1.132429,100132.50,+10,-220,-198
125935,9.862,-4.853,2.317,-0.602448,-0.460247,1.023346,100131.14,+10,-220,-198
125945,9.784,-4.399,2.130,-0.695568,-0.479935,0.924374,100129.05,+15,-221,-200
125956,10.016,-4.173,2.061,-0.718980,-0.504412,0.944062,100132.34,+18,-220,-203
125965,10.299,-4.203,1.963,-0.683861,-0.555494,1.029732,100132.34,+22,-220,-205
125975,10.397,-4.091,1.788,-0.673219,-0.610834,1.167016,100134.45,+22,-220,-205
125985,10.575,-4.112,1.703,-0.660448,-0.687458,1.331438,100137.38,+27,-220,-206
125996,12.151,-4.555,1.695,-0.674283,-0.772595,1.468722,100133.35,+33,-220,-210
126005,11.232,-3.578,1.520,-0.607770,-0.861990,1.483621,100131.93,+39,-220,-213
126015,12.621,-4.379,1.520,-0.731219,-0.923182,1.512887,100131.93,+39,-220,-213
126025,13.800,-5.189,1.458,-0.829659,-1.060999,1.679438,100134.34,+45,-220,-215
126035,14.164,-4.863,1.197,-1.004191,-1.151457,1.755529,100132.91,+53,-220,-220
126045,14.902,-4.682,1.711,-1.245769,-1.212118,1.885896,100131.51,+61,-218,-224
126055,15.252,-3.739,2.504,-1.405402,-1.325989,2.007749,100127.52,+61,-218,-224
126065,15.858,-2.696,3.386,-1.460209,-1.445182,2.076923,100127.52,+70,-217,-228
126075,17.732,-2.826,4.661,-1.500118,-1.559586,2.149822,100134.35,+78,-213,-233
126086,20.978,-1.478,7.576,-1.683163,-1.708044,2.141309,100131.84,+88,-212,-238
126091,22.380,0.591,9.379,-1.915695,-1.747952,2.162061,100131.30,+88,-212,-238
126100,21.125,1.869,9.996,-2.142906,-1.741035,2.315841,100131.30,+99,-206,-244
126110,19.326,2.242,10.553,-2.074264,-1.806484,2.515382,100129.79,+110,-202,-250
126120,18.773,1.787,10.517,-1.885897,-1.850117,2.552097,100129.79,+110,-202,-250
126131,16.257,-2.662,9.272,-1.641127,-1.838943,2.580831,100131.23,+121,-197,-253
126140,13.357,-9.403,7.357,-0.971201,-1.871934,2.695235,100129.19,+134,-193,-256
126150,13.472,-11.349,2.917,-0.653531,-1.833622,2.621272,100132.39,+144,-189,-257
126160,13.641,-8.796,3.654,-0.491770,-1.721879,2.414281,100132.39,+144,-189,-257
126171,11.497,-3.856,4.784,-0.004889,-1.733053,2.124813,100132.39,+155,-188,-257
126180,8.911,0.576,5.190,0.610230,-1.764980,1.820979,100133.12,+163,-187,-254
126190,5.094,2.108,3.704,1.198743,-1.703255,1.528850,100133.74,+171,-188,-250
126200,-0.200,0.831,3.386,1.212578,-1.617586,1.240447,100129.40,+171,-188,-250
126211,-4.254,-4.562,1.929,0.925771,-1.273311,0.955768,100132.02,+176,-190,-246
126220,-3.670,-8.848,3.907,0.983239,-0.714595,0.561475,100132.02,+180,-191,-242
126230,0.233,-7.836,4.121,1.312615,-0.441623,0.174099,100130.49,+180,-194,-240
126240,3.214,-3.603,1.516,0.712927,-0.543256,-0.418671,100131.54,+180,-194,-240
126251,4.057,0.534,0.349,-0.615219,-0.644889,-1.101900,100131.51,+179,-195,-238
126261,3.135,3.041,-0.306,-1.378265,-0.648082,-1.473313,100131.51,+176,-194,-242
126270,1.684,4.284,-0.368,-0.964283,-0.539531,-1.705313,100134.27,+172,-193,-243
126280,0.979,3.984,0.713,0.229771,-0.315513,-1.982542,100132.02,+172,-193,-243
126290,1.091,2.371,2.009,1.309422,-0.063825,-2.243276,100132.02,+167,-198,-240
126301,1.771,-0.199,2.929,1.919220,0.168707,-2.450799,100132.18,+160,-204,-235
126310,2.647,-2.459,3.718,2.115036,0.381019,-2.607239,100127.62,+151,-211,-230
126320,3.947,-3.085,3.752,1.898999,0.594927,-2.739734,100127.62,+151,-211,-230
126326,4.529,-2.152,3.568,1.563238,0.707202,-2.910009,100131.10,+141,-217,-226
126336,4.593,-0.696,3.159,1.317404,0.817349,-3.160101,100130.21,+129,-221,-223
126346,5.110,0.423,2.737,1.483954,0.994009,-3.471917,100128.10,+129,-221,-223
126355,5.867,-0.230,2.974,2.145366,1.171734,-3.701788,100128.59,+115,-225,-217
126365,6.513,-2.690,3.507,2.737072,1.328174,-3.902926,100128.59,+100,-232,-208
126375,7.561,-4.979,3.351,2.987696,1.444706,-4.144504,100129.35,+85,-237,-199
126386,9.202,-5.861,2.747,2.872760,1.502706,-4.403641,100131.13,+85,-237,-199
126395,10.679,-5.860,2.249,2.628522,1.559642,-4.566999,100128.98,+67,-240,-191
126405,10.819,-6.286,3.289,2.558284,1.653825,-4.557421,100126.52,+49,-242,-181
126415,11.355,-6.903,4.818,2.457183,1.753862,-4.602650,100126.52,+31,-241,-173
126426,12.645,-8.164,6.250,2.270944,1.870394,-4.730889,100130.51,+31,-241,-173
126435,14.252,-9.316,6.506,2.312449,2.018321,-4.837311,100127.52,+13,-240,-164
126445,15.580,-10.292,6.695,2.515182,2.215201,-4.868173,100131.18,-5,-236,-155
126455,16.248,-11.758,6.630,2.790815,2.381752,-4.742063,100130.45,-22,-231,-143
126466,16.291,-13.508,5.493,2.927036,2.459972,-4.506339,100130.45,-22,-231,-143
126476,15.932,-16.976,3.175,2.790815,2.351953,-4.224853,100131.38,-38,-226,-131
126485,15.828,-18.974,0.733,2.510926,2.151348,-4.071073,100132.42,-51,-219,-120
126495,16.020,-18.297,-0.771,2.095880,1.966174,-3.887495,100131.42,-63,-213,-111
126505,15.554,-17.226,-0.950,1.654761,1.869862,-3.523532,100131.84,-63,-213,-111
126516,13.764,-17.500,0.219,0.977917,1.659146,-3.063789,100131.84,-73,-205,-105
126525,11.504,-20.679,1.947,0.507532,1.473972,-2.549239,100136.01,-80,-200,-101
126535,9.424,-23.699,1.784,0.222322,1.314871,-1.957000,100131.60,-85,-195,-98
126545,7.368,-23.936,-1.304,-0.239018,1.042963,-1.165221,100130.13,-85,-195,-98
126556,8.532,-22.231,-4.101,-0.564137,0.750835,-0.131332,100131.55,-87,-193,-97
126565,10.621,-20.116,-5.862,-0.799329,0.318230,0.853071,100131.55,-85,-194,-98
126575,12.795,-17.496,-8.246,-0.737604,-0.291568,1.662942,100132.18,-80,-199,-101
126585,17.773,-5.699,-3.707,-0.115568,-1.067916,2.359474,100130.82,-80,-199,-101
126596,26.124,25.168,0.191,1.213642,-1.592576,1.924740,100128.77,-73,-204,-101
126606,22.326,20.636,-7.079,-0.679604,-0.952980,1.021750,100131.66,-71,-207,-105
126615,14.710,-10.113,-4.174,-0.151752,-0.722045,2.172703,100131.66,-64,-212,-105
126625,10.518,-20.311,2.811,3.477237,-0.940742,2.987363,100134.39,-64,-212,-105
126636,10.825,-13.358,2.203,2.646082,-0.742265,3.086336,100133.50,-56,-217,-97
126646,10.229,0.114,0.567,1.603146,-0.699696,2.843161,100130.09,-47,-222,-93
126655,3.192,6.418,6.267,2.869035,-0.417678,2.637767,100132.34,-39,-226,-85
126665,-1.296,-3.238,11.480,3.995512,-0.466632,2.235492,100132.34,-39,-226,-85
126675,5.850,-16.805,4.700,3.082412,-0.930632,1.784263,100132.34,-33,-230,-74
126686,12.390,-20.782,-0.270,0.141441,-0.829531,1.648043,100130.46,-29,-232,-74
126695,14.647,-12.607,1.266,-2.613291,-0.359678,1.471915,100128.73,-23,-235,-82
126705,12.300,-3.514,1.511,-3.831823,-0.160137,1.262264,100131.13,-23,-235,-82
126715,8.938,-0.217,0.912,-3.207658,-0.095752,1.344208,100131.13,-19,-238,-93
126726,7.866,1.893,0.969,-2.000301,-0.143641,1.312282,100132.23,-14,-240,-101
126736,8.115,2.675,1.508,-0.640760,-0.296357,1.182447,100130.98,-11,-242,-103
126745,8.663,0.452,1.459,0.768266,-0.451201,1.190961,100132.19,-11,-242,-103
126755,8.975,-2.915,1.525,1.610064,-0.483660,1.197346,100131.77,-7,-243,-99
126766,8.499,-6.639,2.358,1.711165,-0.400651,1.022814,100131.77,-3,-244,-95
126776,8.812,-8.393,3.095,1.209917,-0.226118,0.822209,100135.84,+0,-246,-91
126785,8.999,-9.087,4.277,0.010542,-0.042009,0.775383,100132.53,-160,-246,-91
126795,8.344,-8.335,4.183,-1.337824,0.130395,0.611493,100132.80,+2,-246,-92
126806,8.461,-4.851,3.563,-2.014136,0.223514,0.465163,100130.70,+3,-247,-98
126816,8.968,-1.360,2.902,-1.881640,0.220322,0.385347,100130.70,+5,-247,-105
126826,10.011,-0.346,1.572,-1.309622,0.157001,0.363530,100133.34,+7,-248,-108
126835,10.754,-0.869,1.079,-0.620540,0.055368,0.486447,100133.13,+7,-248,-108
126845,10.245,-3.075,2.058,-0.210816,-0.001568,0.605108,100130.98,+8,-248,-108
126856,9.765,-5.585,2.564,-0.274137,0.007478,0.664172,100133.34,+10,-250,-109
126866,9.487,-6.586,2.701,-0.691843,0.088358,0.691310,100133.34,+13,-250,-112
126875,9.363,-5.819,2.732,-1.202668,0.182542,0.682264,100134.77,+13,-250,-112
126885,9.618,-4.265,3.046,-1.520870,0.224578,0.711530,100132.90,+15,-250,-116
126896,9.907,-2.785,2.952,-1.480430,0.179881,0.767933,100130.70,+18,-250,-121
126906,10.210,-2.576,2.232,-1.233531,0.051643,0.873291,100130.96,+21,-251,-125
126915,10.737,-3.373,1.568,-0.968540,-0.134596,0.948851,100130.96,+21,-251,-125
126925,10.307,-4.275,1.894,-0.796669,-0.287843,0.971731,100133.13,+24,-252,-127
126936,9.716,-4.532,1.782,-0.704614,-0.361274,0.996741,100132.59,+28,-252,-130
126946,9.491,-5.139,1.452,-0.705146,-0.377238,0.972796,100132.13,+32,-252,-133
126956,9.427,-5.347,1.471,-0.764742,-0.390008,0.920649,100131.50,+32,-252,-133
126965,9.424,-5.324,1.692,-0.839769,-0.387880,0.887126,100131.50,+36,-252,-135
126976,9.583,-5.213,2.094,-0.881806,-0.406504,0.824869,100135.02,+38,-253,-138
126986,9.852,-5.031,2.353,-0.939806,-0.438962,0.837640,100133.34,+41,-253,-142
126996,9.861,-4.749,2.296,-0.956834,-0.477806,0.954704,100129.37,+41,-253,-142
127005,9.540,-4.694,2.021,-0.976522,-0.512394,1.020154,100129.99,+46,-253,-146
127015,9.557,-4.367,1.713,-0.999934,-0.549109,1.033988,100129.99,+49,-253,-150
127026,11.246,-4.768,1.647,-0.991421,-0.635843,1.218631,100135.17,+54,-252,-153
127036,10.163,-3.542,1.657,-0.889788,-0.732155,1.094649,100133.34,+54,-252,-153
127045,11.413,-3.589,1.857,-0.823274,-0.852944,1.144667,100133.14,+59,-252,-156
127055,11.985,-3.822,1.922,-0.730155,-0.983843,1.354318,100132.66,+64,-252,-158
127066,12.567,-3.763,1.813,-0.751439,-1.095586,1.488410,100132.66,+70,-252,-161
127076,13.054,-3.751,1.649,-0.851476,-1.176999,1.635272,100133.66,+70,-252,-161
127086,13.879,-3.736,2.147,-0.916393,-1.250962,1.755529,100133.51,+78,-250,-166
127095,15.122,-2.686,2.871,-1.099439,-1.355255,1.855566,100131.32,+85,-250,-168
127106,16.350,-2.473,3.649,-1.206925,-1.438264,2.011474,100131.21,+92,-249,-173
127116,18.416,-2.668,5.017,-1.288338,-1.507971,2.116300,100131.21,+92,-249,-173
127126,19.854,-1.341,6.689,-1.610796,-1.516485,2.206226,100132.76,+102,-247,-177
127135,19.451,1.235,8.173,-1.965182,-1.510099,2.371712,100132.07,+112,-244,-184
127145,19.163,2.407,8.863,-1.967310,-1.541494,2.523364,100130.66,+122,-240,-189
127156,18.687,1.227,9.211,-1.867273,-1.550540,2.587749,100128.77,+122,-240,-189
127166,16.519,-1.688,8.700,-1.752338,-1.557989,2.582428,100128.77,+133,-236,-195
127175,15.319,-6.648,5.615,-1.548007,-1.675586,2.617015,100131.71,+143,-232,-199
127185,16.127,-10.390,4.033,-1.296852,-1.863952,2.577106,100130.82,+155,-227,-201
127196,16.445,-8.623,4.578,-0.897769,-1.960796,2.414281,100132.55,+155,-227,-201
127206,14.062,-5.060,5.981,-0.216137,-2.010283,2.292428,100129.62,+166,-224,-202
127215,11.350,-1.352,6.406,0.552230,-2.066154,2.089162,100129.62,+174,-221,-200
127225,8.407,1.113,6.052,1.330174,-2.016668,1.740098,100132.42,+182,-222,-195
127236,4.053,1.015,4.492,1.667532,-1.924613,1.371346,100130.11,+182,-222,-195
127246,-0.922,-1.598,4.161,1.661679,-1.756466,1.076557,100127.91,+188,-222,-187
127256,-3.165,-6.777,3.168,1.390303,-1.312155,0.646612,100131.47,+192,-223,-182
127265,-0.450,-8.592,3.572,1.403073,-0.919990,0.102264,100131.47,+193,-224,-177
127276,2.385,-6.718,3.511,1.394560,-0.820485,-0.354286,100132.13,+192,-224,-172
127286,3.059,-3.429,2.373,0.700688,-0.824210,-0.841699,100132.28,+192,-226,-172
127296,2.637,-0.236,1.379,-0.349696,-0.868375,-1.362102,100129.36,+189,-227,-171
127305,1.546,2.017,0.363,-0.995678,-0.802925,-1.711698,100129.72,+184,-228,-174
127315,1.080,3.050,-0.282,-0.948320,-0.608173,-1.930395,100129.72,+178,-229,-175
127326,1.153,2.496,0.113,-0.347568,-0.408632,-2.186340,100128.38,+178,-229,-175
127336,1.470,0.376,1.007,0.475074,-0.197917,-2.410358,100129.27,+171,-232,-175
127346,1.650,-2.236,2.359,1.145000,0.041533,-2.568395,100130.58,+162,-235,-171
127355,1.842,-4.147,3.404,1.547807,0.274065,-2.720046,100126.64,+152,-240,-166
127366,2.595,-4.707,3.683,1.702119,0.523092,-2.910009,100126.64,+152,-240,-166
127376,3.865,-4.392,4.021,1.558449,0.797661,-3.110082,100130.23,+141,-243,-162
127386,4.396,-2.405,4.102,1.278560,0.966339,-3.319734,100130.13,+129,-246,-158
127395,4.256,-0.345,3.657,1.321660,1.172798,-3.574614,100128.81,+115,-248,-153
127406,5.127,-0.396,4.156,1.945293,1.478761,-3.865146,100127.23,+115,-248,-153
127416,6.512,-1.987,4.830,2.675348,1.674578,-4.096082,100127.23,+100,-250,-146
127426,8.301,-3.087,4.522,3.128173,1.802284,-4.363201,100130.51,+84,-252,-136
127435,9.954,-4.545,3.756,3.227678,1.883165,-4.640962,100130.87,+67,-252,-125
127446,10.731,-6.695,3.526,3.137219,1.948614,-4.727164,100130.55,+67,-252,-125
127456,11.003,-8.253,4.100,3.133494,2.053440,-4.698430,100127.88,+50,-250,-114
127466,11.994,-8.946,4.971,2.941935,2.147623,-4.709072,100127.88,+34,-247,-104
127476,13.701,-9.379,5.781,2.663641,2.195513,-4.754834,100130.56,+18,-243,-94
127485,15.042,-10.526,6.663,2.563072,2.246063,-4.802192,100129.56,+18,-243,-94
127496,15.423,-12.055,6.890,2.525825,2.354082,-4.833054,100127.89,+3,-236,-84
127506,14.930,-13.461,7.404,2.430045,2.563733,-4.773458,100128.09,-10,-230,-75
127516,14.471,-14.875,6.700,2.212944,2.754228,-4.568595,100128.09,-22,-222,-66
127525,14.870,-16.963,4.341,1.809073,2.815421,-4.348834,100130.77,-22,-222,-66
127536,16.101,-17.465,1.013,1.256743,2.711659,-4.200908,100129.63,-33,-215,-58
127546,16.582,-17.514,-1.019,0.627257,2.567458,-3.949752,100130.41,-42,-207,-53
127556,15.756,-17.314,-1.368,0.072799,2.347164,-3.551733,100130.93,-50,-201,-50
127565,13.524,-18.471,-0.861,-0.388540,2.029495,-3.087202,100130.93,-50,-201,-50
127576,10.733,-21.858,0.057,-0.506669,1.776743,-2.518909,100134.93,-56,-197,-48
127586,9.015,-22.919,-1.811,-0.707806,1.453752,-1.706909,100130.43,-59,-193,-49
127596,8.984,-21.489,-5.094,-0.921714,1.093514,-0.725166,100131.41,-60,-193,-49
127606,12.178,-19.398,-5.532,-0.855733,0.736468,0.349163,100131.10,-60,-193,-49
127616,12.920,-16.033,-7.960,-0.675348,0.100597,1.225548,100131.10,-57,-195,-51
127626,13.227,-13.019,-8.386,-0.057036,-0.599660,2.086501,100135.25,-53,-199,-53
127636,15.728,-0.590,-2.486,0.748578,-1.246173,2.727694,100130.69,-45,-204,-53
127646,18.827,25.359,4.229,1.652633,-1.385586,2.161529,100126.77,-45,-204,-53
127655,21.093,31.724,-6.427,0.303202,-0.970540,0.854667,100129.13,-42,-206,-51
127666,20.417,2.048,-9.160,0.650670,-0.993421,1.790116,100129.13,-39,-208,-53
127676,15.228,-23.023,3.904,4.145035,-1.054613,2.847418,100134.08,-31,-209,-43
127686,12.792,-23.686,2.397,4.242943,-0.584760,3.043767,100130.98,-31,-209,-43
127695,15.814,-9.189,0.598,2.165586,-0.523568,3.251822,100129.78,-22,-212,-35
127706,7.420,3.971,4.711,2.316706,-0.383623,3.201803,100130.67,-14,-215,-30
127716,-3.133,-0.822,13.090,2.837109,-0.210687,2.555290,100130.67,-7,-215,-23
127726,-0.928,-12.816,6.516,2.576375,-0.532082,1.918887,100130.59,-7,-215,-23
127736,9.865,-17.567,0.696,0.116964,-0.679476,1.893878,100131.84,-1,-215,-18
127746,14.493,-14.401,2.092,-2.522833,-0.629458,1.659217,100130.33,+3,-219,-25
127756,14.862,-7.620,1.671,-3.760520,-0.600192,1.306961,100129.91,+6,-225,-36
127766,10.975,-3.041,1.143,-3.809474,-0.462907,1.186704,100129.91,+9,-225,-36
127776,7.732,0.566,1.041,-2.995878,-0.375641,1.247897,100134.70,+9,-230,-46
127785,7.089,4.236,0.980,-1.755530,-0.392669,1.165952,100130.66,+13,-232,-53
127796,8.428,3.292,1.200,-0.116100,-0.485788,1.220227,100134.45,+16,-234,-53
127806,9.075,-1.583,2.208,1.200339,-0.598063,1.316539,100130.66,+20,-234,-50
127816,8.588,-5.138,3.105,1.659550,-0.611366,1.284080,100130.66,+20,-234,-50
127826,8.082,-7.665,3.122,1.290798,-0.481531,1.080814,100132.26,+24,-234,-46
127836,8.678,-8.188,3.654,0.637367,-0.293696,0.846154,100132.57,+26,-234,-45
127846,8.605,-7.331,4.654,-0.269348,-0.200045,0.761016,100131.32,+28,-237,-46
127856,7.974,-6.513,4.560,-1.207989,-0.055843,0.688117,100130.85,+28,-237,-46
127865,8.079,-5.267,3.359,-1.839072,0.050579,0.517310,100130.85,+30,-237,-51
127876,8.742,-2.715,2.104,-1.913567,0.073459,0.394925,100135.30,+32,-240,-58
127886,9.449,-0.587,1.313,-1.475641,-0.001036,0.388539,100131.73,+34,-240,-61
127896,9.965,0.133,1.027,-0.642357,-0.128742,0.471548,100129.86,+34,-240,-61
127906,9.905,-0.918,1.161,0.195184,-0.233568,0.643420,100129.80,+35,-240,-62
127916,9.373,-3.626,2.158,0.618211,-0.237293,0.761016,100129.80,+37,-242,-60
127926,9.076,-6.525,2.880,0.486780,-0.198449,0.744521,100132.10,+40,-241,-58
127936,8.839,-7.788,3.560,0.001496,-0.159073,0.693970,100130.32,+40,-241,-58
127946,8.681,-7.108,3.575,-0.554559,-0.115440,0.643420,100131.05,+42,-242,-59
127955,9.069,-5.298,3.265,-0.923311,-0.082981,0.618411,100130.85,+44,-243,-63
127966,9.312,-3.895,2.604,-0.990889,-0.084045,0.674282,100130.85,+46,-244,-66
127976,9.688,-3.232,1.629,-0.801458,-0.112247,0.784961,100136.67,+46,-244,-66
127986,9.998,-3.697,1.070,-0.535403,-0.156944,0.898833,100134.94,+49,-245,-68
127996,10.054,-4.452,1.311,-0.443880,-0.180357,0.988227,100131.84,+52,-246,-70
128006,9.843,-5.151,1.890,-0.519971,-0.170779,1.024410,100131.84,+56,-247,-71
128016,9.885,-5.546,1.758,-0.692375,-0.118632,1.034521,100131.84,+56,-247,-71
128026,10.608,-5.696,0.612,-0.861054,-0.080320,1.036117,100132.78,+59,-247,-74
128036,10.421,-5.683,0.493,-1.020687,-0.019660,1.004722,100135.20,+62,-248,-77
128046,10.590,-5.014,0.997,-1.176063,0.003221,1.053144,100132.38,+66,-249,-81
128056,10.782,-4.277,2.149,-1.199476,-0.079788,1.131364,100129.22,+66,-249,-81
128066,11.969,-4.051,2.839,-1.135090,-0.278797,1.231401,100129.22,+70,-250,-85
128076,10.408,-2.986,3.464,-0.813164,-0.537403,1.358043,100133.90,+75,-250,-88
128086,10.326,-3.832,3.305,-0.598724,-0.693311,1.192025,100132.76,+78,-251,-91
128097,11.141,-5.156,2.637,-0.562363,-0.795831,1.243994,100134.43,+78,-251,-91
128106,11.787,-5.174,2.510,-0.719513,-0.865714,1.306429,100132.23,+82,-250,-92
128116,12.724,-4.677,2.570,-0.911072,-0.946595,1.461273,100132.23,+87,-252,-95
128126,13.189,-4.281,2.474,-1.032925,-1.035457,1.634740,100133.34,+93,-251,-98
128136,13.353,-3.638,2.353,-1.091457,-1.118999,1.738502,100129.94,+93,-251,-98
128146,13.687,-3.663,2.276,-1.164889,-1.182320,1.861419,100131.66,+100,-251,-102
128156,14.471,-3.928,2.443,-1.304833,-1.209989,1.977951,100129.41,+106,-250,-106
128166,15.516,-4.213,3.143,-1.552796,-1.206797,2.106189,100129.41,+113,-251,-111
128176,17.239,-4.114,4.460,-1.841732,-1.194026,2.198244,100133.75,+113,-251,-111
128186,20.117,-1.863,6.918,-2.147163,-1.178595,2.187602,100132.55,+121,-249,-116
128196,20.867,1.118,9.138,-2.483989,-1.137090,2.233896,100129.14,+129,-248,-125
128206,18.919,2.695,9.792,-2.506337,-1.224356,2.457914,100130.03,+138,-246,-132
128216,18.348,2.432,9.770,-2.261567,-1.332375,2.531345,100130.03,+138,-246,-132
128226,17.109,0.341,9.393,-2.130668,-1.377604,2.453125,100131.25,+147,-242,-138
128236,14.426,-4.779,7.378,-1.575677,-1.494668,2.553694,100129.98,+157,-240,-143
128246,13.406,-9.985,3.622,-1.179788,-1.650576,2.569125,100130.52,+166,-237,-146
128257,14.104,-11.162,3.143,-1.005788,-1.669200,2.513253,100127.16,+176,-234,-148
128266,13.250,-8.016,4.988,-0.421531,-1.710705,2.400446,100127.16,+176,-234,-148
128276,11.168,-2.928,5.226,0.151019,-1.763384,2.067345,100128.48,+184,-230,-146
128286,8.432,1.193,5.781,0.602780,-1.660686,1.675713,100129.06,+191,-230,-143
128296,4.724,4.272,4.949,0.857661,-1.543622,1.213309,100130.73,+196,-230,-139
128306,0.474,4.939,4.240,0.801257,-1.438797,0.762080,100125.50,+196,-230,-139
128316,-2.653,1.295,1.655,0.710798,-1.276503,0.465695,100125.50,+197,-230,-136
128326,-3.071,-5.662,-0.078,0.314377,-0.858265,0.140044,100131.52,+199,-230,-134
128331,-0.597,-10.029,1.090,0.173368,-0.376173,-0.004690,100129.38,+199,-230,-134
128342,3.356,-11.224,1.677,0.420799,-0.181421,-0.084506,100129.38,+199,-231,-133
128352,4.853,-8.303,0.672,0.810303,-0.526228,-0.587350,100128.11,+197,-233,-129
128361,2.916,-5.282,0.155,1.185440,-0.828467,-1.018359,100129.58,+197,-233,-129
128371,1.093,-4.004,1.249,1.494064,-0.821017,-1.186506,100129.58,+194,-234,-125
128381,-0.303,-3.066,2.412,1.523330,-0.577311,-1.349331,100130.95,+190,-239,-119
128392,-1.288,-1.908,3.913,0.731551,0.118689,-1.513753,100127.17,+185,-240,-116
128401,1.599,1.392,0.238,-0.264559,0.359202,-1.749478,100127.02,+185,-240,-116
128411,3.192,4.907,0.191,-0.432705,0.229367,-2.495496,100127.02,+178,-242,-120
128421,3.576,3.444,1.947,0.235092,0.428909,-2.788156,100127.02,+168,-246,-118
128432,4.103,0.475,1.917,1.345605,0.608230,-2.855202,100129.20,+159,-249,-115
128441,4.012,-1.335,3.004,2.101201,0.895037,-3.182981,100130.24,+159,-249,-115
128451,4.130,-3.648,3.647,2.095348,1.182908,-3.461275,100127.99,+147,-252,-108
128461,4.757,-4.768,3.524,1.930394,1.400541,-3.781605,100126.37,+134,-257,-103
128472,6.840,-2.981,2.864,1.746284,1.634669,-4.143972,100126.37,+119,-258,-97
128482,9.342,-1.504,1.993,1.500449,1.689477,-4.461641,100129.17,+103,-260,-93
128491,10.349,-1.787,1.131,1.498321,1.638394,-4.611696,100128.61,+103,-260,-93
128501,9.954,-4.148,0.846,1.956467,1.653825,-4.544651,100128.86,+86,-260,-87
128512,10.207,-6.334,2.036,2.504008,1.687348,-4.450999,100128.86,+70,-259,-78
128522,10.968,-6.581,3.347,2.638632,1.665532,-4.495696,100128.97,+54,-257,-68
128531,12.349,-6.855,4.304,2.623733,1.659678,-4.608503,100128.97,+54,-257,-68
128541,13.587,-8.213,4.425,2.899898,1.680963,-4.697366,100129.28,+39,-252,-58
128551,14.390,-9.445,4.417,3.204797,1.736302,-4.669164,100130.28,+22,-246,-46
128562,14.813,-10.922,4.747,3.358577,1.762376,-4.542522,100129.08,+8,-238,-35
128571,14.967,-12.904,4.461,3.407531,1.768761,-4.429715,100129.08,+8,-238,-35
128581,15.523,-14.291,3.414,3.234063,1.760247,-4.362669,100127.93,-4,-228,-23
128591,16.415,-14.882,2.145,2.944595,1.703311,-4.231770,100129.87,-17,-217,-13
128602,16.859,-15.487,1.526,2.597660,1.562835,-3.988596,100128.91,-28,-207,-5
128612,15.676,-17.234,1.848,2.238486,1.327110,-3.618779,100127.94,-28,-207,-5
128621,12.889,-20.205,3.357,1.873990,1.216431,-3.156908,100131.50,-35,-198,+2
128631,9.956,-22.796,3.562,1.560046,1.175459,-2.605643,100133.08,-42,-189,+6
128642,8.681,-24.368,1.528,1.096046,1.157899,-2.103863,100131.03,-45,-183,+10
128651,8.265,-23.084,-1.453,0.306927,1.013165,-1.549937,100131.03,-45,-183,+10
128661,9.469,-20.605,-2.044,-0.401843,0.819477,-0.835313,100130.61,-47,-180,+11
128671,9.304,-18.927,-3.264,-0.708870,0.451789,0.022448,100130.61,-47,-181,+10
128681,8.909,-19.259,-3.509,-0.582760,-0.028174,0.948851,100135.36,-44,-183,+8
128692,9.934,-18.445,-4.271,-0.253384,-0.450137,1.743823,100130.80,-44,-183,+8
128701,14.829,-6.554,2.655,0.336193,-0.923182,2.433437,100129.17,-42,-188,+6
128711,24.075,24.578,1.262,1.102431,-1.165292,1.715621,100128.59,-36,-190,+8
128721,22.486,20.448,-7.505,-1.669861,-0.545916,0.589677,100128.59,-37,-193,+1
128732,17.884,-8.990,-1.937,-0.509861,-0.539531,2.090226,100131.36,-37,-193,+1
128742,12.323,-25.031,3.469,3.262797,-0.793880,3.046427,100130.52,-30,-195,+4
128751,12.086,-16.435,0.025,2.566797,-0.490577,2.929895,100130.98,-23,-195,+11
128761,8.908,-1.438,0.135,0.688450,-0.511861,2.610630,100130.98,-17,-199,+11
128772,3.114,5.344,5.310,0.998670,-0.208559,2.440354,100130.98,-17,-199,+11
128781,0.056,-2.519,8.112,2.042669,-0.098412,2.234428,100134.33,-10,-199,+15
128791,6.427,-12.734,3.839,1.635073,-0.432577,1.872593,100129.20,-6,-198,+20
128801,11.841,-16.433,-0.054,-0.083641,-0.444816,1.617713,100131.50,-2,-201,+18
128812,13.677,-10.585,1.790,-1.737971,-0.185146,1.433603,100129.67,-2,-201,+18
128821,12.263,-3.994,2.820,-2.623933,-0.179293,1.277163,100129.67,+0,-206,+11
128832,9.513,-0.830,1.863,-2.372778,-0.207495,1.202667,100130.18,+3,-212,+5
128841,7.872,-0.032,0.758,-1.710301,-0.138852,1.166484,100132.85,+7,-215,+1
128851,7.774,-0.322,1.185,-0.867439,-0.118632,1.066447,100131.26,+7,-215,+1
128862,8.607,-0.116,1.212,0.151551,-0.185678,1.032924,100131.26,+10,-218,+0
128872,9.424,-2.393,1.503,0.790083,-0.174504,1.087199,100130.20,+12,-218,+1
128881,9.975,-5.550,2.129,0.857661,-0.156412,1.089328,100130.20,+15,-218,+3
128891,9.230,-8.086,3.344,0.365459,-0.161201,0.973860,100133.56,+15,-218,+3
128902,8.230,-8.071,4.331,-0.396522,-0.089366,0.795603,100133.66,+17,-219,+3
128911,7.957,-6.077,4.309,-1.148925,0.003221,0.658851,100127.64,+19,-220,+0
128922,8.118,-4.340,3.850,-1.528674,0.110175,0.574955,100131.73,+22,-222,-3
128931,8.498,-2.382,3.045,-1.499586,0.131991,0.552429,100131.73,+22,-222,-3
128942,9.116,-0.692,1.894,-1.169145,0.105386,0.572117,100133.82,+24,-225,-6
128952,10.076,-1.137,1.300,-0.586485,0.044725,0.641291,100130.52,+26,-227,-9
128961,10.960,-3.572,1.553,-0.092687,-0.038816,0.699823,100129.10,+28,-229,-10
128971,10.587,-5.977,1.823,-0.013935,-0.105862,0.681200,100131.41,+30,-228,-10
128982,9.567,-6.929,2.250,-0.355017,-0.106394,0.628521,100133.45,+30,-228,-10
128992,8.884,-5.728,2.736,-0.685458,-0.097348,0.568392,100130.05,+31,-230,-11
129001,8.642,-4.502,3.052,-0.853604,-0.098412,0.505603,100130.05,+33,-232,-15
129011,8.725,-4.116,2.912,-0.854136,-0.119697,0.460374,100129.16,+35,-233,-16
129021,9.414,-4.094,2.446,-0.813164,-0.164394,0.471548,100129.16,+35,-233,-16
129032,10.032,-4.299,1.893,-0.798265,-0.294761,0.477402,100131.90,+36,-235,-20
129041,9.859,-4.040,1.781,-0.754632,-0.384687,0.513585,100131.01,+36,-236,-22
129051,9.403,-3.903,1.971,-0.669494,-0.409696,0.597658,100129.85,+38,-238,-25
129061,9.404,-4.245,1.916,-0.577439,-0.417146,0.655126,100129.49,+38,-238,-25
129072,9.541,-4.512,1.922,-0.521036,-0.427788,0.709934,100129.49,+40,-238,-26
129082,9.628,-4.854,1.973,-0.532210,-0.426192,0.756227,100130.56,+41,-239,-28
129092,9.760,-5.209,1.924,-0.585421,-0.464504,0.760484,100127.25,+44,-240,-30
129101,9.782,-5.002,2.017,-0.650338,-0.514522,0.765273,100129.25,+44,-240,-30
129112,9.794,-4.867,2.021,-0.718980,-0.543788,0.795071,100129.25,+45,-242,-32
129122,10.034,-4.719,1.897,-0.772724,-0.569329,0.823805,100129.25,+48,-242,-35
129131,10.137,-4.518,1.824,-0.814228,-0.612962,0.831255,100133.58,+50,-244,-37
129141,10.794,-4.162,1.684,-0.859457,-0.685861,0.874888,100132.06,+50,-244,-37
129152,11.639,-3.462,1.486,-0.824870,-0.825806,0.993548,100130.02,+52,-245,-41
129157,11.754,-3.402,1.614,-0.811036,-0.940210,1.110612,100130.91,+55,-246,-43
129167,11.302,-3.314,1.520,-0.741861,-1.030668,1.224484,100130.91,+55,-246,-43
129176,11.539,-2.984,1.471,-0.539660,-1.124320,1.297915,100132.70,+57,-248,-46
129186,11.945,-3.649,1.195,-0.466228,-1.225953,1.402208,100130.80,+61,-248,-48
129197,12.463,-4.014,1.341,-0.529549,-1.295127,1.534172,100129.91,+66,-248,-48
129207,13.203,-3.898,1.891,-0.693439,-1.380797,1.672520,100132.74,+66,-250,-51
129216,13.865,-3.111,3.041,-0.822210,-1.460081,1.802355,100132.74,+71,-250,-53
129226,14.594,-3.214,4.059,-0.894045,-1.548411,1.958795,100130.55,+77,-251,-57
129236,16.142,-3.595,5.113,-1.032925,-1.621310,2.075859,100129.50,+82,-252,-61
129247,18.471,-2.963,6.433,-1.335696,-1.693677,2.135455,100126.72,+82,-252,-61
129257,20.342,-0.788,8.050,-1.617714,-1.744228,2.186538,100133.06,+89,-254,-66
129266,19.446,1.264,8.289,-1.742760,-1.762319,2.360538,100133.06,+96,-253,-72
129277,17.631,0.826,8.526,-1.429347,-1.832026,2.570721,100129.91,+104,-254,-77
129287,16.615,-0.954,8.707,-1.136155,-1.873530,2.614354,100129.18,+104,-254,-77
129297,14.890,-5.638,8.024,-0.781769,-1.937383,2.639364,100130.38,+112,-252,-80
129306,13.380,-10.793,6.955,-0.304999,-2.007622,2.642556,100126.18,+120,-254,-82
129316,13.981,-10.912,4.205,-0.207091,-1.954943,2.524960,100126.18,+129,-252,-83
129327,14.082,-8.060,3.256,-0.239018,-1.862356,2.329144,100130.87,+129,-252,-83
129337,12.254,-4.045,3.381,0.071202,-1.886301,2.107254,100129.24,+136,-250,-83
129346,10.177,-0.510,4.326,0.594799,-1.872998,1.783199,100128.45,+142,-250,-82
129356,7.362,2.154,4.530,1.200871,-1.936319,1.396355,100128.87,+145,-250,-76
129367,2.666,2.108,3.493,1.292394,-2.059769,1.088264,100128.87,+145,-250,-76
129377,-1.676,-1.129,2.188,1.138615,-1.882044,0.910007,100129.81,+148,-248,-73
129387,-2.740,-7.266,2.230,1.280156,-1.373347,0.807310,100128.88,+150,-248,-68
129392,-0.734,-9.407,2.905,1.796302,-1.018962,0.668961,100126.88,+150,-248,-68
129401,1.739,-9.323,2.917,2.136320,-0.898705,0.414613,100126.88,+152,-247,-62
129412,2.881,-7.596,2.339,1.837275,-0.903494,-0.018525,100127.98,+150,-246,-56
129422,3.412,-4.445,1.404,0.759220,-0.993421,-0.451662,100127.98,+150,-246,-56
129432,3.277,-0.189,0.647,-0.465164,-1.129109,-0.998671,100130.97,+149,-247,-55
129441,2.325,3.463,0.702,-0.979714,-0.998742,-1.516414,100128.95,+143,-249,-58
129452,1.962,5.207,1.036,-0.401843,-0.744925,-1.860689,100127.61,+137,-251,-60
129462,2.049,4.925,1.641,0.743257,-0.506008,-2.062358,100127.61,+129,-253,-56
129472,2.272,2.349,2.427,1.636669,-0.254320,-2.151753,100127.61,+129,-253,-56
129481,2.683,-0.740,2.766,2.101733,-0.057972,-2.303936,100126.56,+122,-254,-50
129491,3.251,-3.025,2.632,2.154412,0.135716,-2.479532,100129.39,+113,-254,-43
129502,4.146,-4.128,3.126,1.889954,0.388468,-2.662046,100127.55,+104,-254,-37
129512,5.079,-3.847,3.859,1.536278,0.580560,-2.922425,100124.98,+104,-254,-37
129521,5.598,-2.802,3.886,1.437660,0.679532,-3.225550,100124.98,+94,-252,-33
129531,6.018,-2.327,3.876,1.549935,0.818413,-3.585789,100126.41,+83,-252,-28
129542,6.326,-2.841,4.082,1.910174,0.954633,-3.926339,100127.19,+70,-250,-21
129552,7.197,-3.492,4.059,2.322559,1.106284,-4.253054,100126.56,+70,-250,-21
129562,8.742,-3.655,3.256,2.609366,1.237183,-4.560614,100125.80,+56,-247,-13
129571,10.120,-4.410,2.598,2.729623,1.323385,-4.715990,100131.36,+41,-242,-3
129582,11.326,-5.294,2.900,2.843494,1.338284,-4.723971,100125.80,+28,-234,+5
129592,11.237,-7.114,4.478,2.929164,1.402137,-4.723971,100125.80,+28,-234,+5
129602,12.342,-7.670,6.818,2.601917,1.550596,-4.865512,100126.38,+14,-226,+16
129611,13.244,-8.101,7.424,2.209219,1.796431,-4.946393,100124.59,+1,-217,+23
129622,14.428,-8.380,6.788,2.124082,2.044926,-4.918191,100124.59,-9,-208,+32
129632,15.573,-9.825,6.171,2.236357,2.271605,-4.852210,100126.48,-9,-208,+32
129642,16.623,-11.610,6.339,2.434302,2.507861,-4.727696,100129.63,-17,-197,+41
129652,17.795,-14.016,5.295,2.571586,2.687715,-4.460045,100125.06,-24,-184,+51
129661,18.149,-16.828,3.351,2.365660,2.653127,-4.257311,100125.27,-29,-172,+61
129672,18.245,-16.773,0.153,1.888357,2.425385,-4.226449,100132.14,-29,-172,+61
129682,17.214,-18.079,-1.660,1.421165,2.126339,-3.993917,100130.14,-33,-161,+68
129692,13.892,-21.010,-0.950,1.168413,1.877843,-3.495330,100129.98,-37,-152,+74
129701,10.824,-21.798,-0.337,0.786890,1.625091,-2.932890,100127.95,-39,-144,+78
129712,8.599,-22.176,0.293,0.314909,1.437257,-2.377899,100127.95,-39,-144,+78
129722,7.720,-22.852,-0.477,0.008414,1.199404,-1.676579,100127.95,-39,-140,+81
129732,7.665,-23.400,-2.281,-0.415146,0.911000,-0.891185,100130.77,-39,-139,+81
129741,8.235,-22.395,-3.583,-0.756760,0.663569,-0.023846,100132.34,-37,-141,+81
129747,10.691,-20.233,-3.018,-0.881274,0.513514,0.594466,100130.52,-37,-141,+81
129757,11.121,-17.245,-5.221,-0.883402,0.175092,1.046759,100129.47,-35,-145,+81
129767,11.475,-14.485,-6.777,-0.683861,-0.443219,1.829492,100129.47,-32,-150,+78
129777,14.250,-1.297,-1.401,-0.060229,-1.007256,2.359474,100134.25,-32,-150,+78
129786,19.120,25.656,2.714,0.754964,-1.131769,1.714557,100129.59,-30,-152,+78
129797,18.927,27.263,-5.821,-1.009512,-0.722045,0.500282,100127.77,-31,-156,+76
129807,18.575,-0.408,-5.562,-0.736540,-0.584760,1.248961,100129.06,-29,-158,+75
129817,16.461,-20.165,3.740,2.850944,-0.623604,2.399914,100129.06,-29,-158,+75
129826,13.856,-19.698,2.316,3.086136,-0.367128,2.633510,100132.19,-25,-153,+82
129837,13.556,-6.260,1.104,1.730853,-0.350632,2.747914,100129.89,-21,-152,+85
129847,6.636,4.412,5.226,2.003293,-0.240485,2.639895,100132.77,-14,-150,+88
129857,-0.655,-1.493,10.997,2.478467,-0.177696,2.186006,100126.00,-14,-150,+88
129867,3.007,-11.865,5.159,2.075837,-0.520907,1.692031,100126.00,-12,-146,+93
129876,9.923,-13.156,1.905,0.144102,-0.602852,1.581529,100132.66,-10,-146,+93
129887,12.839,-10.339,2.339,-1.794374,-0.504944,1.442117,100130.10,-9,-154,+88
129897,12.972,-6.849,1.049,-2.715988,-0.529421,1.193621,100128.37,-9,-154,+88
129907,10.677,-4.555,0.453,-2.645750,-0.407568,1.058465,100130.20,-7,-164,+82
129916,8.619,-1.858,0.520,-2.148227,-0.305403,1.004722,100130.20,-7,-172,+78
129927,8.004,1.721,0.568,-1.248962,-0.258045,0.923310,100130.51,-5,-175,+75
129937,8.577,1.462,0.623,-0.066614,-0.217605,0.968539,100133.76,-5,-175,+75
129947,9.043,-1.062,1.465,0.878413,-0.150559,1.088796,100133.40,-2,-176,+76
129956,8.841,-3.469,3.087,1.098174,-0.033495,1.134025,100133.29,+0,-174,+78
129967,8.905,-5.233,4.542,0.820945,-0.076596,1.044631,100133.29,+1,-174,+80
129977,8.490,-5.977,5.280,0.387808,-0.210687,0.896172,100132.27,+1,-174,+80
129987,7.786,-6.305,4.787,-0.234229,-0.255385,0.762080,100130.90,+3,-174,+79
129996,8.037,-6.516,3.852,-0.869035,-0.211219,0.598190,100131.54,+4,-177,+78
130007,8.751,-4.999,2.862,-1.281420,-0.158008,0.486980,100128.13,+4,-181,+74
130017,9.525,-2.316,1.510,-1.237255,-0.151623,0.513585,100128.13,+4,-181,+74
130027,10.090,-0.945,0.842,-0.799329,-0.180357,0.577970,100133.35,+5,-185,+73
130037,10.178,-0.918,0.903,-0.194852,-0.266559,0.670557,100132.57,+6,-186,+71
130046,9.814,-2.131,1.648,0.311716,-0.349036,0.773255,100130.27,+8,-186,+71
130057,9.519,-3.230,2.606,0.520303,-0.377238,0.852539,100130.27,+8,-186,+71
130067,9.012,-4.659,3.485,0.347367,-0.368724,0.869034,100130.27,+9,-186,+73
130077,8.634,-5.485,3.799,0.010010,-0.364467,0.830722,100131.59,+10,-187,+73
130086,8.683,-5.110,3.664,-0.369916,-0.353293,0.806245,100131.70,+12,-189,+71
130097,8.942,-4.070,3.258,-0.596595,-0.352228,0.811566,100130.60,+12,-189,+71
130107,9.279,-3.066,2.497,-0.601384,-0.372449,0.875420,100129.55,+13,-191,+69
130117,9.746,-2.521,1.783,-0.439091,-0.383623,0.969071,100129.55,+14,-193,+67
130127,9.954,-3.218,1.454,-0.206027,-0.400118,1.049420,100132.54,+16,-195,+68
130137,9.925,-4.432,1.246,-0.045330,-0.408632,1.107420,100131.43,+16,-195,+68
130147,9.949,-5.356,1.473,-0.040541,-0.392669,1.128172,100129.60,+18,-197,+68
130157,9.882,-5.845,1.783,-0.170907,-0.387880,1.126575,100129.87,+20,-197,+66
130167,9.937,-5.911,2.136,-0.376834,-0.382559,1.114869,100129.87,+22,-200,+65
130177,10.123,-5.510,2.450,-0.583292,-0.373513,1.108484,100131.86,+25,-202,+63
130187,10.762,-4.706,2.331,-0.747182,-0.366063,1.127640,100128.97,+25,-202,+63
130197,10.920,-4.532,1.856,-0.834980,-0.370320,1.190961,100129.86,+26,-205,+60
130207,10.726,-4.422,1.489,-0.906283,-0.387880,1.281952,100130.44,+29,-208,+58
130216,11.066,-4.233,1.382,-0.972797,-0.432577,1.338887,100130.44,+33,-211,+55
130227,11.953,-3.497,2.080,-0.948852,-0.571990,1.416043,100131.48,+33,-211,+55
130237,12.225,-3.272,2.647,-0.791880,-0.770999,1.559181,100130.74,+35,-215,+51
130247,12.712,-3.960,2.929,-0.721641,-0.924779,1.682098,100130.21,+38,-218,+50
130256,13.353,-4.421,2.650,-0.761549,-1.020026,1.775749,100128.59,+42,-220,+46
130267,13.867,-4.642,2.231,-0.881274,-1.082283,1.910905,100128.59,+42,-220,+46
130277,14.360,-4.782,2.030,-1.008980,-1.154118,2.091822,100131.05,+45,-223,+43
130287,14.935,-5.039,2.299,-1.221824,-1.183384,2.216868,100129.59,+50,-228,+40
130297,16.271,-5.709,2.552,-1.553861,-1.178595,2.321162,100131.99,+55,-232,+34
130307,19.223,-5.036,3.828,-1.979016,-1.200944,2.307859,100131.21,+55,-232,+34
130317,21.426,-1.196,6.558,-2.499952,-1.214778,2.273804,100131.21,+59,-238,+27
130327,21.365,3.554,8.586,-2.713328,-1.253090,2.381822,100131.36,+65,-243,+18
130337,20.001,3.925,9.787,-2.403108,-1.342839,2.551565,100129.31,+71,-247,+10
130347,18.960,3.298,10.700,-2.087567,-1.431347,2.593070,100128.05,+71,-247,+10
130357,16.813,1.792,9.526,-1.814595,-1.466466,2.589345,100126.22,+77,-251,+5
130367,12.734,-4.676,7.463,-1.505439,-1.381861,2.557419,100126.22,+85,-254,+0
130377,10.324,-10.890,3.773,-1.016962,-1.363237,2.513253,100132.15,+92,-256,-3
130387,11.226,-12.228,1.619,-1.010045,-1.374943,2.358942,100132.10,+92,-256,-3
130397,11.843,-8.692,3.450,-0.784430,-1.411659,2.171639,100128.12,+97,-256,-6
130407,10.564,-3.367,3.841,-0.145366,-1.532980,1.992850,100126.49,+103,-257,-6
130417,7.050,-1.316,3.039,0.205294,-1.460081,1.752869,100126.49,+106,-256,-6
130427,1.747,-2.394,3.779,0.284046,-1.212118,1.548539,100131.98,+106,-256,-6
130437,-3.250,-5.576,4.541,0.204230,-0.791219,1.213309,100129.82,+110,-255,-5
130447,-4.087,-6.015,5.645,0.114835,-0.317641,0.708869,100131.24,+112,-254,-4
130457,0.269,-2.807,2.243,-0.318834,-0.213348,0.093218,100128.46,+111,-255,-4
130467,3.788,2.069,0.148,-1.129237,-0.300082,-0.762414,100128.46,+111,-255,-4
130477,4.581,4.409,-1.128,-1.570888,-0.312320,-1.157240,100130.99,+107,-257,-10
130487,3.710,5.106,-1.784,-1.094118,-0.297953,-1.322726,100129.41,+103,-259,-14
130497,2.449,4.259,-0.925,-0.104394,-0.186742,-1.517478,100129.01,+96,-260,-12
130507,1.453,2.160,0.655,0.851275,-0.059036,-1.734047,100126.34,+96,-260,-12
130516,1.064,-0.092,2.158,1.529183,0.101129,-1.986799,100126.34,+89,-258,-8
130527,1.690,-1.568,2.521,1.825568,0.321955,-2.241147,100129.20,+82,-256,-2
130537,3.241,-2.677,2.425,1.735110,0.553422,-2.442817,100128.47,+73,-252,+3
130547,4.772,-3.121,2.440,1.454156,0.702413,-2.598193,100126.64,+73,-252,+3
130557,5.018,-2.316,2.559,1.193954,0.795532,-2.789752,100125.48,+64,-250,+8
130567,4.829,-0.567,2.446,1.288670,0.924303,-3.044101,100125.48,+57,-247,+13
130573,5.266,0.433,2.316,1.616449,1.055202,-3.254816,100128.64,+57,-247,+13
130582,6.129,0.303,2.693,2.029898,1.199404,-3.448504,100128.64,+47,-241,+18
130592,7.135,-1.045,3.274,2.511458,1.355312,-3.644853,100127.11,+38,-236,+26
130603,7.896,-2.843,3.436,2.852540,1.475569,-3.805018,100127.80,+28,-228,+36
130612,8.819,-4.480,3.154,3.013237,1.584119,-3.959330,100125.91,+28,-228,+36
130622,9.568,-5.585,2.924,3.010045,1.658614,-4.124284,100126.67,+19,-217,+46
130632,9.946,-6.570,2.958,2.886063,1.737367,-4.273274,100130.23,+9,-207,+56
130642,10.505,-7.487,3.998,2.647678,1.828889,-4.416944,100128.03,+1,-196,+63
130652,11.441,-7.855,5.069,2.270412,1.880504,-4.591476,100128.03,+1,-196,+63
130662,12.608,-7.943,5.664,1.905917,1.951275,-4.765476,100128.72,-7,-186,+72
130672,14.061,-8.485,6.139,1.789917,2.081641,-4.875623,100128.72,-15,-174,+78
130682,15.255,-9.105,6.667,1.936247,2.226375,-4.902760,100130.94,-20,-162,+85
130692,15.810,-10.179,7.363,2.188467,2.386008,-4.808577,100127.11,-20,-162,+85
130702,16.364,-12.149,6.074,2.398118,2.520632,-4.583494,100124.75,-24,-147,+93
130712,17.307,-16.557,2.868,2.236889,2.475935,-4.320100,100125.38,-26,-133,+101
130722,17.652,-17.678,-1.152,1.945293,2.155073,-4.196118,100125.38,-28,-121,+107
130733,16.612,-17.284,-1.861,1.788321,1.969898,-3.861953,100130.01,-28,-121,+107
130742,15.523,-17.206,-0.397,1.883568,1.820908,-3.292596,100129.49,-27,-107,+113
130752,13.763,-19.017,1.146,1.701055,1.493660,-2.712596,100128.54,-27,-97,+117
130762,11.519,-22.835,1.584,1.389771,1.188761,-2.142707,100128.54,-26,-88,+121
130772,8.880,-24.748,-0.974,0.772523,0.859918,-1.447772,100128.54,-26,-88,+121
130782,7.416,-24.384,-3.988,0.143569,0.592266,-0.554359,100132.20,-26,-85,+122
130792,8.387,-21.968,-4.754,-0.243274,0.364523,0.514117,100130.53,-23,-85,+122
130802,10.584,-17.828,-4.821,-0.246467,-0.026045,1.436263,100129.13,-22,-88,+123
130812,13.162,-12.844,-6.006,0.042469,-0.572522,2.141841,100128.28,-22,-88,+123
130822,15.947,-0.231,0.632,0.834248,-1.165824,2.662244,100128.28,-21,-91,+122
130832,20.825,25.720,2.025,1.729257,-1.326522,2.046061,100131.15,-22,-89,+122
130842,19.300,20.145,-6.545,-0.379494,-0.830063,1.062190,100130.04,-23,-91,+121
130852,15.242,-7.508,-3.518,0.129202,-0.744393,2.007217,100131.65,-23,-91,+121
130863,12.894,-21.957,3.046,3.552264,-0.776320,2.991620,100131.65,-24,-91,+122
130873,12.821,-17.120,1.971,3.340485,-0.575715,3.123583,100135.48,-21,-83,+125
130882,11.891,-4.227,-0.526,1.881440,-0.751843,2.891051,100130.30,-20,-81,+126
130892,4.842,3.513,4.231,1.846853,-0.483128,2.643620,100130.30,-20,-81,+126
130903,-0.261,-1.702,8.649,2.642357,-0.384155,2.454189,100129.78,-18,-79,+128
130912,5.071,-13.554,5.503,2.425256,-0.784834,2.038611,100130.56,-17,-72,+130
130922,11.526,-17.870,0.638,0.280854,-0.880081,1.790116,100130.56,-18,-72,+129
130928,13.773,-14.614,0.345,-1.472980,-0.570926,1.718282,100132.50,-18,-72,+129
130937,13.610,-8.466,2.160,-2.754300,-0.335733,1.513951,100131.08,-19,-84,+125
130948,9.991,-1.529,2.594,-3.345474,-0.192596,1.379328,100132.34,-17,-97,+121
130957,7.766,1.562,1.726,-2.587218,-0.063293,1.468190,100131.88,-17,-97,+121
130967,7.825,0.979,0.306,-1.476173,-0.055843,1.296851,100131.88,-16,-107,+119
130977,9.068,1.751,0.684,-0.058100,-0.165458,1.217566,100132.63,-14,-110,+119
130988,8.929,-1.632,2.002,1.030064,-0.257513,1.324520,100130.85,-13,-109,+120
130997,9.084,-6.336,1.714,1.355715,-0.271348,1.272374,100129.85,-13,-109,+120
131007,9.348,-9.303,2.300,0.844358,-0.162797,1.134557,100130.96,-12,-106,+121
131017,9.184,-10.280,4.481,-0.262962,-0.047862,0.936612,100130.96,-10,-107,+121
131027,8.380,-7.412,4.940,-1.398485,0.008010,0.679071,100130.96,-10,-113,+119
131038,8.401,-3.715,2.932,-1.791182,0.037808,0.556686,100129.49,-10,-113,+119
131047,9.280,-1.297,0.859,-1.402742,0.003221,0.538594,100132.37,-9,-119,+117
131057,9.784,-0.540,-0.178,-0.597127,-0.091495,0.579567,100129.43,-8,-123,+115
131067,9.887,-2.789,0.264,0.141973,-0.189403,0.647145,100129.43,-7,-123,+116
131078,9.788,-5.836,1.843,0.361202,-0.219733,0.648741,100132.67,-7,-123,+116
131087,9.406,-6.673,2.823,0.088762,-0.202706,0.598190,100132.25,-7,-123,+116
131097,8.855,-5.768,3.135,-0.337990,-0.137256,0.545512,100132.05,-7,-125,+115
131107,8.929,-5.019,3.232,-0.620008,-0.082449,0.499750,100129.69,-6,-128,+114
131118,9.571,-4.168,3.046,-0.755164,-0.086174,0.471016,100129.69,-6,-128,+114
131127,9.689,-3.699,2.612,-0.758889,-0.125550,0.464099,100131.09,-5,-131,+113
131137,9.665,-3.411,2.064,-0.662577,-0.169715,0.489108,100129.72,-5,-132,+111
131147,9.762,-3.693,1.754,-0.565733,-0.233036,0.537530,100132.08,-5,-135,+110
131158,9.709,-3.885,1.930,-0.506137,-0.279862,0.607236,100132.34,-4,-137,+109
131163,9.504,-4.082,2.062,-0.478999,-0.303807,0.656190,100132.34,-4,-137,+109
131172,9.355,-4.113,1.988,-0.455586,-0.319770,0.697695,100132.34,-3,-140,+108
131182,9.339,-4.222,1.918,-0.410357,-0.335201,0.764741,100133.32,-3,-140,+108
131192,9.637,-4.781,1.853,-0.377366,-0.352228,0.808374,100131.65,-3,-143,+107
131203,9.823,-5.119,1.835,-0.406100,-0.388944,0.831787,100131.29,-3,-144,+105
131213,9.797,-4.960,1.959,-0.483788,-0.433641,0.847750,100130.22,-2,-148,+104
131222,9.732,-4.852,2.081,-0.530614,-0.458118,0.867970,100132.16,-2,-148,+104
131232,9.651,-5.150,1.880,-0.577971,-0.475678,0.882337,100133.36,-2,-150,+103
131243,9.773,-5.253,1.794,-0.692375,-0.488449,0.881805,100133.36,-1,-153,+101
131253,9.705,-5.052,1.896,-0.787623,-0.522504,0.989291,100129.69,-1,-156,+98
131262,9.676,-4.863,1.856,-0.989824,-0.533678,0.933952,100130.84,-1,-156,+98
131272,10.276,-3.486,1.760,-0.905219,-0.606577,1.040906,100130.84,+0,-161,+96
131282,10.702,-3.349,1.890,-0.680846,-0.713886,1.174111,100132.17,+0,-164,+94
131293,11.297,-3.691,2.116,-0.579568,-0.793347,1.316007,100132.17,+0,-168,+91
131303,12.103,-3.921,1.869,-0.633843,-0.873164,1.502245,100129.84,+0,-168,+91
131312,12.509,-3.958,1.568,-0.765806,-0.964687,1.627291,100132.72,+1,-171,+89
131322,13.133,-3.230,1.539,-0.903090,-1.088668,1.727859,100131.63,+2,-176,+86
131333,13.902,-2.747,1.801,-0.996210,-1.207861,1.865676,100134.50,+4,-181,+82
131343,14.601,-2.917,2.495,-1.033457,-1.257347,2.004556,100129.89,+4,-181,+82
131352,15.852,-3.767,3.497,-1.161164,-1.267989,2.122153,100129.38,+5,-186,+80
131362,18.480,-4.396,5.652,-1.402742,-1.289274,2.149822,100129.38,+7,-192,+75
131373,21.657,-2.670,7.908,-1.783200,-1.307898,2.079052,100129.38,+10,-198,+68
131383,21.336,0.300,8.864,-2.267420,-1.278100,2.138116,100131.38,+12,-198,+61
131392,18.554,2.788,9.718,-2.436099,-1.310026,2.240281,100131.64,+12,-206,+61
131402,17.406,2.935,9.976,-2.281255,-1.357384,2.231235,100128.08,+15,-214,+54
131412,15.453,-0.639,9.263,-1.885897,-1.398356,2.236024,100129.28,+19,-219,+47
131423,12.586,-6.400,6.209,-1.193622,-1.548943,2.352024,100129.28,+22,-224,+43
131433,12.249,-10.774,1.842,-0.969072,-1.698466,2.369052,100131.79,+22,-224,+43
131442,13.087,-11.507,3.119,-0.743990,-1.744760,2.397254,100130.80,+26,-227,+40
131452,12.069,-7.465,4.125,-0.030963,-1.921952,2.318501,100129.38,+30,-229,+38
131463,9.191,-3.937,3.517,0.405367,-1.901200,2.101933,100129.38,+32,-230,+38
131473,5.352,-3.372,4.727,0.443147,-1.682503,1.851309,100132.62,+32,-230,+38
131482,0.873,-4.093,4.444,0.552762,-1.366962,1.561309,100132.62,+35,-230,+38
131492,-1.380,-5.364,5.272,0.210615,-0.951916,1.113805,100128.16,+35,-230,+38
131503,0.254,-4.214,3.797,-0.052779,-0.670962,0.619475,100128.48,+36,-230,+37
131513,3.049,-0.931,1.963,-0.436962,-0.731091,-0.045662,100127.23,+36,-230,+37
131518,3.751,1.436,1.576,-0.637568,-0.753971,-0.484653,100127.23,+33,-230,+36
131527,3.851,2.571,0.592,-0.609366,-0.749714,-0.681001,100129.75,+33,-230,+36
131537,3.452,3.207,-0.343,-0.249128,-0.748650,-0.921515,100128.39,+28,-231,+33
131548,2.592,2.239,-0.507,0.351624,-0.676815,-1.208854,100127.03,+23,-228,+33
131558,1.832,0.211,0.125,0.943862,-0.595935,-1.484487,100127.39,+17,-225,+36
131567,1.377,-1.537,1.283,1.415312,-0.450137,-1.769166,100127.39,+17,-225,+36
131577,1.822,-1.937,2.286,1.648908,-0.206963,-2.066615,100128.82,+10,-219,+40
131588,3.206,-1.563,3.288,1.627624,0.056432,-2.348101,100132.49,+3,-213,+44
131598,4.116,-0.278,3.594,1.498853,0.255973,-2.568395,100127.26,-4,-207,+48
131607,4.272,1.798,3.440,1.330706,0.401239,-2.799330,100128.66,-4,-207,+48
131617,4.779,1.975,2.776,1.635605,0.526285,-3.028670,100128.66,-12,-199,+53
131628,5.436,-0.293,2.777,2.408229,0.671551,-3.213312,100124.74,-18,-190,+58
131638,5.971,-3.208,3.384,3.005256,0.854596,-3.363899,100126.95,-26,-176,+66
131647,6.564,-5.113,3.694,3.147329,1.037110,-3.516082,100126.57,-32,-162,+75
131657,7.769,-5.240,3.161,2.959494,1.153642,-3.689018,100123.85,-32,-162,+75
131667,9.048,-4.709,2.571,2.672687,1.238248,-3.810339,100123.85,-36,-146,+81
131678,9.819,-4.846,3.099,2.568926,1.314339,-3.871531,100129.33,-40,-131,+88
131688,10.338,-5.641,3.736,2.558815,1.332963,-3.989660,100128.80,-43,-117,+93
131697,10.849,-7.237,4.571,2.480595,1.394156,-4.157806,100127.44,-43,-117,+93
131707,11.681,-8.238,5.441,2.370449,1.552724,-4.356816,100126.97,-45,-101,+100
131718,12.455,-7.869,6.184,2.298614,1.752798,-4.557421,100126.97,-46,-84,+105
131728,13.278,-7.887,6.431,2.330540,1.958192,-4.686724,100127.27,-45,-66,+110
131737,14.079,-9.762,6.109,2.433770,2.122082,-4.680871,100125.74,-45,-66,+110
131747,14.337,-12.096,5.926,2.620540,2.264687,-4.535604,100126.43,-42,-49,+115
131758,14.729,-13.980,4.853,2.847751,2.403568,-4.311054,100127.63,-35,-32,+120
131768,15.757,-16.879,2.608,2.817421,2.365256,-4.071073,100127.63,-30,-14,+124
131778,16.455,-18.177,-0.197,2.616816,2.136449,-3.935917,100130.41,-30,-14,+124
131787,16.461,-17.656,-1.773,2.216669,1.886357,-3.764045,100129.27,-23,+1,+127
131798,15.124,-18.413,-1.631,1.837275,1.680963,-3.410724,100125.91,-17,+13,+128
131808,12.244,-19.635,-0.093,1.306229,1.423954,-2.952578,100128.69,-12,+22,+129
131818,9.530,-21.481,1.665,0.836376,1.228137,-2.393331,100128.69,-12,+22,+129
131827,8.332,-23.853,1.826,0.818817,1.100431,-1.689881,100131.51,-6,+28,+131
131837,8.069,-25.067,-0.314,0.613422,0.839697,-0.847020,100127.79,-3,+33,+131
131848,8.398,-23.275,-3.158,0.168579,0.567257,-0.031827,100131.98,-1,+33,+132
131858,9.428,-20.828,-5.514,-0.236357,0.223514,0.793475,100130.57,-1,+33,+132
131867,12.088,-17.219,-8.220,-0.375770,-0.283586,1.541089,100130.57,-1,+30,+132
131877,18.550,-2.054,-4.216,0.024377,-0.989164,2.032226,100129.99,-5,+27,+131
131888,26.144,25.602,-3.208,0.639496,-1.451035,1.302704,100132.46,-10,+27,+128
131898,19.735,12.453,-5.174,-1.031329,-0.596467,0.950979,100129.37,-10,+27,+128
131907,15.936,-14.328,-1.012,-0.112907,-0.593806,2.258373,100132.04,-11,+20,+128
131917,11.612,-19.898,4.134,3.317604,-0.736944,2.872960,100132.04,-14,+25,+126
131928,11.593,-8.082,0.106,2.333201,-0.747054,2.965015,100131.93,-17,+28,+126
131938,8.838,2.584,-0.391,1.541422,-0.617219,2.709602,100132.77,-17,+28,+126
131948,1.749,6.827,4.582,3.003127,-0.369788,2.549437,100130.05,-20,+31,+123
131957,-0.807,-4.341,9.194,3.911971,-0.151091,2.193455,100129.57,-20,+40,+122
131968,8.154,-16.995,5.853,3.041971,-0.434706,1.932190,100129.57,-23,+48,+120
131978,13.029,-19.777,0.301,0.191459,-0.474614,1.767236,100130.28,-23,+48,+120
131988,12.680,-10.910,2.889,-2.780906,-0.010082,1.440875,100130.08,-25,+41,+120
131997,10.835,-3.120,3.387,-3.686024,-0.007953,1.190429,100129.34,-26,+27,+121
132007,8.683,-0.126,1.225,-3.090062,-0.022853,1.187768,100128.55,-26,+13,+122
132018,8.442,0.296,0.770,-2.055108,-0.041476,1.158502,100128.55,-26,+13,+122
132028,8.916,0.857,1.187,-1.132430,-0.170247,1.061126,100133.04,-26,+6,+123
132038,9.367,-0.011,1.662,-0.061825,-0.286247,1.133493,100132.15,-27,+3,+122
132047,8.889,-2.557,1.444,0.793275,-0.322962,1.178722,100132.05,-28,+3,+122
132058,8.602,-4.876,1.747,1.073697,-0.203770,1.103163,100128.38,-28,+3,+122
132068,8.965,-6.278,2.782,0.762413,-0.016467,0.999401,100128.38,-28,+5,+121
132078,9.045,-7.192,4.308,0.028634,0.110175,0.844557,100130.62,-28,+4,+121
132087,8.505,-6.546,5.990,-0.756228,0.196377,0.709401,100131.10,-28,+0,+121
132098,8.273,-6.251,4.935,-1.424558,0.248523,0.544979,100129.73,-28,+0,+121
132108,8.912,-4.595,2.816,-1.726796,0.242670,0.397585,100128.48,-26,-4,+123
132118,9.558,-2.152,1.659,-1.612393,0.166046,0.354484,100128.48,-26,-11,+122
132127,10.033,-0.420,1.191,-1.054742,0.026634,0.409824,100131.84,-26,-16,+122
132137,10.064,-1.340,1.422,-0.356082,-0.129807,0.518906,100130.95,-26,-17,+121
132148,9.732,-4.019,1.532,0.048854,-0.210687,0.602447,100129.90,-26,-17,+121
132158,9.406,-6.543,2.240,-0.058632,-0.190999,0.630649,100130.27,-26,-18,+121
132167,9.394,-6.566,3.004,-0.475274,-0.145770,0.602979,100130.27,-27,-21,+121
132177,9.121,-4.778,3.272,-0.804650,-0.107990,0.587548,100129.07,-27,-25,+121
132188,9.139,-3.849,3.053,-0.904155,-0.095219,0.624264,100129.80,-27,-25,+121
132198,9.469,-3.484,2.305,-0.797733,-0.126614,0.685989,100129.23,-27,-29,+120
132208,9.916,-4.012,1.586,-0.661513,-0.169715,0.771658,100130.12,-28,-33,+120
132217,10.234,-4.618,1.462,-0.602448,-0.190999,0.846154,100130.12,-28,-36,+120
132228,10.270,-4.642,1.794,-0.663109,-0.277201,0.869566,100131.74,-28,-36,+120
132238,9.922,-4.210,2.002,-0.668962,-0.394265,0.866374,100131.01,-28,-39,+119
132248,9.366,-4.211,1.873,-0.591806,-0.440027,0.896704,100129.27,-28,-43,+118
132257,9.316,-5.115,1.831,-0.558283,-0.437366,0.878080,100131.90,-30,-46,+116
132268,9.485,-5.521,1.987,-0.632247,-0.438430,0.850943,100131.90,-30,-46,+116
132278,9.547,-5.322,2.282,-0.756760,-0.418742,0.830722,100133.66,-31,-50,+116
132288,10.003,-5.327,2.339,-0.837109,-0.444816,0.871695,100130.78,-32,-55,+114
132298,9.639,-4.638,2.388,-0.822210,-0.482063,0.894576,100130.47,-32,-59,+113
132307,10.829,-5.703,2.142,-1.002595,-0.552834,1.124979,100131.14,-32,-59,+113
132318,9.218,-3.693,2.313,-0.891916,-0.599127,1.003658,100131.14,-33,-64,+111
132328,10.585,-4.120,2.041,-0.877017,-0.667237,0.983438,100131.99,-33,-68,+110
132338,11.150,-3.765,1.979,-0.820613,-0.772063,1.080814,100131.41,-36,-73,+106
132343,11.587,-3.316,1.973,-0.802522,-0.873164,1.184043,100129.52,-36,-73,+106
132353,11.955,-3.068,2.209,-0.749843,-0.973201,1.359640,100129.52,-38,-78,+105
132363,12.076,-3.067,1.960,-0.607237,-1.088136,1.545346,100130.30,-38,-82,+103
132373,12.716,-3.019,1.707,-0.485384,-1.178595,1.679970,100130.30,-38,-82,+103
132383,13.645,-3.517,1.739,-0.513586,-1.266393,1.804483,100131.41,-40,-88,+100
132392,14.702,-4.071,2.211,-0.652467,-1.347806,1.924208,100129.31,-41,-93,+97
132403,15.875,-4.638,3.010,-0.901494,-1.381861,2.034355,100128.42,-43,-99,+94
132413,17.785,-4.429,4.399,-1.270246,-1.407402,2.104061,100128.42,-43,-99,+94
132423,20.208,-2.343,6.612,-1.742228,-1.449439,2.112575,100128.42,-44,-108,+89
132432,20.837,1.037,8.571,-2.160466,-1.479769,2.160465,100129.84,-45,-117,+83
132443,19.684,2.868,8.840,-2.166851,-1.560650,2.372777,100127.90,-45,-128,+77
132453,19.021,2.416,9.514,-2.042337,-1.609072,2.480795,100131.68,-45,-128,+77
132463,17.874,1.137,10.251,-1.991787,-1.594173,2.423327,100130.95,-45,-138,+71
132472,14.973,-3.390,9.075,-1.588980,-1.582466,2.509529,100130.95,-43,-146,+65
132483,13.849,-10.220,4.225,-1.105824,-1.712301,2.662244,100128.97,-42,-154,+60
132493,14.730,-12.804,2.767,-0.832852,-1.806484,2.580831,100131.23,-42,-154,+60
132503,14.479,-9.297,5.127,-0.513054,-1.781475,2.341382,100128.89,-40,-160,+56
132513,12.312,-3.377,5.560,-0.018192,-1.847989,2.102997,100128.89,-40,-164,+53
132523,9.592,0.839,6.059,0.636303,-1.808081,1.832685,100129.74,-39,-164,+51
132533,5.672,2.398,4.309,1.159899,-1.688356,1.507034,100125.45,-39,-164,+51
132543,0.514,1.010,4.025,1.059862,-1.539897,1.199475,100125.45,-40,-164,+51
132553,-3.282,-4.735,2.252,0.827863,-1.198283,0.917456,100126.91,-40,-163,+50
132562,-2.517,-9.103,3.251,0.885863,-0.707146,0.485915,100127.55,-40,-162,+51
132573,1.250,-9.100,3.913,1.374339,-0.451733,0.075127,100127.55,-40,-162,+51
132583,2.805,-6.907,2.960,1.178523,-0.442155,-0.370781,100129.66,-42,-158,+53
132593,2.904,-4.032,1.605,0.121221,-0.521972,-0.829460,100127.57,-43,-156,+51
132603,2.034,-0.290,0.096,-1.134558,-0.624137,-1.357845,100128.93,-49,-155,+48
132613,1.501,3.493,-0.416,-1.739035,-0.442155,-1.769166,100126.41,-49,-155,+48
132623,1.292,5.746,0.521,-1.344209,-0.223990,-2.099074,100130.86,-53,-155,+43
132633,1.393,5.890,1.320,-0.050651,0.001624,-2.305001,100125.05,-58,-151,+43
132643,1.676,3.770,2.498,1.239183,0.243202,-2.400780,100126.20,-63,-143,+45
132653,2.026,0.141,3.166,2.070871,0.466688,-2.548175,100126.67,-63,-143,+45
132663,2.592,-3.105,3.621,2.327880,0.698156,-2.772725,100126.67,-66,-132,+50
132673,3.727,-5.136,3.696,2.060229,0.964743,-2.953642,100126.67,-69,-121,+55
132683,4.663,-4.857,3.798,1.534504,1.158431,-3.175000,100127.28,-71,-110,+58
132692,4.869,-2.658,3.665,1.237055,1.303165,-3.492669,100126.66,-71,-110,+58
132699,5.249,-1.271,3.702,1.364229,1.447899,-3.760321,100124.34,-72,-98,+63
132708,5.764,-0.992,3.974,1.740431,1.634137,-4.006155,100121.42,-73,-85,+68
132718,7.022,-1.715,3.860,2.248596,1.861880,-4.258907,100121.42,-73,-85,+68
132728,8.725,-2.860,3.033,2.625861,1.982137,-4.479733,100125.80,-72,-68,+74
132738,10.239,-3.761,2.172,2.879678,2.026834,-4.591476,100128.01,-71,-49,+80
132748,11.092,-4.766,2.327,3.149457,2.074724,-4.546779,100126.34,-68,-30,+85
132758,11.817,-5.892,3.154,3.304301,2.098669,-4.512192,100125.34,-68,-30,+85
132768,13.240,-7.155,4.304,3.168613,2.045458,-4.595733,100125.34,-64,-10,+90
132777,14.959,-9.187,5.234,2.997806,2.014596,-4.661715,100127.92,-57,+7,+93
132788,16.307,-11.570,5.352,2.961623,2.042265,-4.628191,100128.39,-51,+27,+96
132798,16.391,-14.629,5.395,3.001531,2.047586,-4.549972,100126.50,-51,+27,+96
132808,15.206,-16.235,4.859,3.234595,2.026834,-4.486650,100125.83,-43,+44,+100
132817,14.910,-16.524,3.738,3.413384,2.074724,-4.330742,100125.83,-34,+64,+100
132828,16.075,-17.402,1.796,3.377733,2.100797,-4.087568,100127.31,-24,+81,+100
132838,16.947,-18.833,-0.077,3.003127,2.000761,-3.777880,100128.09,-24,+81,+100
132848,16.154,-20.305,-0.151,2.310853,1.778339,-3.402211,100127.36,-13,+95,+100
132858,13.958,-21.087,0.634,1.588780,1.491000,-2.945128,100126.73,-4,+106,+98
132868,11.307,-22.137,0.756,0.973661,1.242504,-2.368854,100126.73,+1,+111,+100
132878,9.721,-25.003,0.729,0.642156,1.120651,-1.704780,100127.34,+1,+111,+100
132888,8.523,-25.276,-1.834,0.031294,0.851936,-0.977919,100129.07,+6,+115,+101
132898,8.387,-23.488,-3.976,-0.588614,0.512450,-0.086103,100129.70,+8,+113,+101
132908,9.744,-20.079,-4.747,-0.815292,0.171367,0.861053,100128.02,+8,+110,+103
132918,12.116,-15.798,-5.603,-0.750375,-0.357550,1.669327,100128.02,+8,+110,+103
132928,16.429,-1.466,-0.046,-0.120889,-1.000870,2.151419,100132.09,+3,+105,+103
132933,20.120,19.302,4.025,0.910872,-1.264797,1.858759,100129.84,-3,+105,+101
132943,22.113,32.238,-2.692,0.197845,-1.125384,0.887658,100129.84,-3,+105,+101
132954,18.168,8.694,-5.670,-1.174999,-0.633182,1.235126,100130.78,-6,+101,+101
132963,15.543,-16.271,1.322,2.163458,-0.901366,2.776116,100131.63,-12,+101,+98
132973,12.383,-21.702,2.461,4.014136,-0.854540,2.949583,100131.63,-17,+109,+92
132983,12.951,-12.419,-1.418,2.216669,-0.700760,2.992152,100133.05,-17,+109,+92
132994,9.821,0.988,-0.831,1.399881,-0.619348,2.656923,100128.65,-23,+107,+91
133003,1.710,4.363,6.172,2.033623,-0.296889,2.473877,100127.87,-28,+109,+87
133013,-0.636,-6.203,9.218,2.896705,-0.286779,2.224850,100127.87,-31,+115,+82
133023,7.714,-13.263,3.785,2.474742,-0.563476,1.920483,100127.87,-31,+115,+82
133033,12.187,-15.813,-0.192,0.007881,-0.719916,1.666135,100131.38,-35,+115,+81
133043,13.235,-10.967,2.934,-1.913035,-0.459715,1.432539,100133.36,-39,+108,+81
133053,11.331,-4.180,3.083,-3.000667,-0.367660,1.209585,100131.38,-42,+96,+85
133063,8.231,-1.536,1.671,-2.876153,-0.253788,1.197346,100131.27,-42,+96,+85
133073,7.377,-0.144,1.364,-1.990191,-0.165458,1.144135,100131.27,-43,+86,+86
133084,8.453,0.853,0.988,-1.024412,-0.163330,1.022282,100131.42,-45,+81,+89
133093,9.646,0.183,1.219,0.101001,-0.214944,1.036649,100130.13,-47,+78,+88
133103,9.327,-2.373,1.739,0.873092,-0.223990,1.122319,100129.97,-47,+78,+88
133113,8.898,-4.387,2.036,1.048156,-0.172908,1.146264,100129.97,-49,+80,+86
133124,9.139,-5.417,2.870,0.772523,-0.125550,1.102098,100132.91,-50,+80,+85
133133,8.892,-6.175,3.755,0.234028,-0.109054,1.009511,100132.91,-51,+79,+85
133143,8.359,-6.401,3.836,-0.351293,-0.064889,0.896172,100129.14,-51,+79,+85
133153,8.437,-7.033,3.542,-0.944595,-0.007953,0.771126,100129.92,-52,+76,+86
133164,8.795,-5.643,3.001,-1.371347,0.001092,0.644484,100127.78,-52,+69,+86
133169,9.011,-3.419,2.582,-1.484686,-0.007953,0.616814,100127.78,-52,+69,+86
133178,9.395,-1.639,2.476,-1.314411,-0.046798,0.647145,100131.43,-54,+64,+88
133188,9.677,-0.674,2.052,-0.795072,-0.126082,0.715787,100129.34,-54,+60,+88
133198,9.673,-1.125,1.380,-0.220926,-0.171843,0.817420,100128.07,-55,+58,+88
133209,9.883,-3.063,1.440,0.145166,-0.163862,0.900429,100128.29,-55,+58,+88
133218,9.803,-5.703,1.994,0.153147,-0.124486,0.927566,100128.29,-56,+56,+87
133228,9.413,-6.743,2.645,-0.199641,-0.092027,0.894576,100129.18,-57,+54,+87
133238,9.136,-5.765,3.299,-0.624797,-0.074999,0.809438,100127.55,-58,+50,+88
133249,8.936,-4.340,3.440,-0.828063,-0.057440,0.781768,100126.04,-58,+50,+88
133258,9.147,-4.177,2.703,-0.803054,-0.090963,0.774851,100124.73,-58,+46,+88
133268,9.555,-4.408,1.778,-0.673751,-0.142045,0.794007,100124.73,-59,+42,+88
133278,9.876,-4.901,1.509,-0.594999,-0.161201,0.842961,100130.27,-59,+39,+88
133288,9.819,-5.249,1.681,-0.638632,-0.164926,0.866374,100129.06,-59,+39,+88
133298,10.404,-4.840,1.238,-0.757292,-0.197385,0.886594,100129.48,-61,+34,+90
133308,10.617,-4.792,1.371,-0.733347,-0.220797,0.913199,100126.75,-62,+30,+88
133318,10.458,-5.310,1.216,-0.695036,-0.244742,0.933952,100126.75,-63,+26,+88
133328,10.186,-5.380,1.458,-0.750907,-0.273476,0.939805,100130.73,-63,+26,+88
133339,9.929,-5.204,1.771,-0.842430,-0.290504,0.884466,100129.73,-64,+22,+88
133348,10.058,-5.058,1.817,-0.939274,-0.314981,0.942998,100128.30,-65,+17,+88
133358,10.116,-5.119,1.853,-1.011109,-0.345311,1.068576,100129.84,-66,+11,+87
133368,9.616,-4.456,1.693,-0.975457,-0.380962,1.132429,100129.84,-66,+11,+87
133379,10.805,-4.778,1.520,-1.066448,-0.427788,1.211713,100132.51,-67,+6,+86
133388,11.704,-4.869,1.624,-1.149457,-0.515054,1.285676,100129.10,-68,+0,+85
133398,12.479,-3.891,2.529,-1.159035,-0.689586,1.360704,100127.59,-71,-5,+83
133408,12.561,-2.847,2.541,-1.078155,-0.879017,1.438392,100129.01,-71,-5,+83
133419,12.841,-3.575,2.099,-0.889256,-0.986503,1.557584,100129.01,-72,-11,+81
133429,13.239,-4.702,1.635,-0.933421,-1.051953,1.683162,100127.83,-76,-18,+80
133438,14.003,-4.993,1.981,-1.275567,-1.083347,1.806612,100127.45,-77,-26,+76
133448,15.155,-3.900,2.805,-1.664540,-1.138155,1.861419,100129.97,-77,-26,+76
133458,16.216,-2.458,3.853,-1.849714,-1.219035,1.938043,100123.38,-79,-35,+74
133469,17.807,-1.573,4.918,-1.801292,-1.323329,2.031162,100123.38,-82,-44,+70
133478,19.293,-0.629,6.534,-1.946558,-1.372815,2.087034,100131.33,-83,-54,+65
133488,19.034,1.089,8.191,-2.237622,-1.385586,2.211547,100126.66,-83,-54,+65
133498,18.473,2.420,8.681,-2.195585,-1.421237,2.385015,100125.83,-85,-66,+61
133509,17.970,1.257,9.040,-2.075860,-1.409531,2.489841,100123.78,-85,-78,+56
133518,16.668,-1.285,8.833,-1.860356,-1.415916,2.503143,100123.78,-85,-88,+51
133524,15.329,-4.745,6.841,-1.598558,-1.461677,2.539859,100125.25,-85,-88,+51
133533,15.068,-9.662,4.529,-1.292595,-1.609604,2.640428,100125.25,-85,-97,+46
133543,15.707,-11.932,3.980,-0.773788,-1.829365,2.651602,100125.41,-85,-106,+41
133554,14.637,-8.083,5.218,-0.521036,-1.885237,2.399382,100121.63,-85,-106,+41
133564,11.994,-3.618,5.734,0.027569,-1.933659,2.224318,100120.38,-85,-111,+37
133573,9.597,-0.007,5.762,0.698560,-1.950154,1.918355,100124.27,-85,-116,+33
133583,6.638,2.206,5.070,1.384449,-1.895347,1.550667,100124.16,-87,-116,+32
133594,2.291,1.811,3.178,1.414248,-1.861824,1.234594,100125.31,-87,-116,+32
133603,-2.440,-2.830,2.513,1.221624,-1.697402,1.100502,100125.31,-89,-117,+31
133613,-3.926,-8.669,3.260,1.238651,-1.132833,0.822209,100123.53,-89,-117,+31
133623,-0.503,-9.868,4.753,1.453624,-0.701825,0.332668,100123.53,-91,-115,+31
133634,1.826,-8.207,4.138,1.461073,-0.667237,-0.120690,100127.44,-91,-115,+31
133644,2.436,-5.015,1.613,0.541055,-0.677348,-0.590543,100124.08,-92,-111,+31
133653,2.735,-1.234,-0.525,-0.947788,-0.828467,-1.138616,100122.45,-95,-109,+28
133663,1.968,2.017,-1.650,-1.836943,-0.794944,-1.531845,100123.30,-99,-109,+25
133673,1.531,3.900,-0.909,-1.664007,-0.578375,-1.858560,100123.30,-99,-109,+25
133684,1.482,4.033,-0.041,-0.681201,-0.374577,-2.190065,100127.55,-103,-107,+21
133694,1.803,2.501,1.062,0.454322,-0.130339,-2.408762,100126.16,-106,-100,+21
133703,2.120,-0.314,2.200,1.276963,0.106450,-2.547110,100123.38,-110,-90,+24
133713,2.649,-2.823,2.832,1.660614,0.344835,-2.711000,100123.38,-110,-90,+24
133724,3.865,-4.590,3.080,1.543018,0.623129,-2.862119,100123.38,-112,-80,+26
133733,4.797,-4.743,3.011,1.110413,0.834908,-3.006321,100125.27,-113,-69,+30
133743,4.943,-3.327,2.454,0.815092,1.014761,-3.259073,100121.95,-114,-57,+33
133753,5.910,-1.384,2.558,1.250358,1.232926,-3.562376,100121.38,-114,-57,+33
133764,7.259,-1.046,3.523,1.976155,1.421293,-3.797036,100119.55,-114,-43,+39
133773,8.610,-2.061,3.110,2.501348,1.523991,-3.977953,100119.55,-113,-27,+43
133783,9.904,-3.369,1.878,2.773256,1.594761,-4.154082,100126.36,-110,-7,+47
133793,10.557,-4.906,1.187,2.881806,1.667660,-4.245072,100124.48,-106,-7,+47
133804,10.970,-6.050,1.644,2.943531,1.713422,-4.245605,100124.22,-106,+9,+51
133814,11.371,-6.141,2.430,2.817421,1.699055,-4.269550,100124.22,-102,+27,+55
133824,11.892,-6.402,2.823,2.555623,1.717678,-4.332870,100130.06,-96,+46,+58
133833,13.027,-8.361,3.305,2.376834,1.746944,-4.395659,100128.28,-89,+64,+61
133843,14.508,-9.815,4.521,2.323623,1.827293,-4.463238,100128.28,-89,+64,+61
133854,14.430,-9.092,4.955,2.085238,1.954999,-4.614889,100127.88,-80,+81,+63
133863,13.549,-8.198,4.724,1.744156,2.157201,-4.692045,100129.17,-68,+98,+66
133873,13.685,-9.286,5.564,1.840999,2.387605,-4.587219,100129.17,-57,+113,+69
133879,14.237,-10.961,5.512,2.095348,2.525953,-4.435036,100125.03,-57,+113,+69
133889,15.161,-13.005,4.752,2.149091,2.562669,-4.270082,100127.59,-43,+129,+71
133899,16.053,-14.891,2.216,2.040541,2.481256,-4.095017,100124.30,-43,+129,+71
133908,16.585,-16.437,-0.477,1.793110,2.328008,-3.891752,100129.22,-30,+142,+73
133918,16.812,-17.573,-2.608,1.433936,2.023642,-3.651770,100129.22,-17,+153,+72
133928,15.462,-18.024,-3.393,0.992817,1.674578,-3.309624,100132.36,-6,+161,+73
133939,12.801,-19.294,-1.898,0.623532,1.443642,-2.809973,100131.78,-6,+161,+73
133948,10.646,-22.698,-0.654,0.585753,1.285073,-2.183147,100131.78,+3,+168,+73
133958,8.407,-25.252,-1.781,0.343111,0.933881,-1.421698,100128.06,+10,+170,+74
133968,7.213,-25.176,-3.977,0.013735,0.586945,-0.504341,100128.06,+12,+172,+75
133979,8.547,-23.512,-5.399,-0.315109,0.265019,0.544979,100133.92,+12,+172,+75
133989,10.774,-20.285,-6.658,-0.490173,-0.190467,1.440520,100135.23,+10,+169,+76
133998,14.697,-11.909,-3.947,-0.217201,-0.782705,2.127474,100131.77,+4,+166,+76
134008,21.300,13.370,5.148,1.067312,-1.272246,2.160997,100130.47,-2,+166,+72
134019,22.271,29.033,-2.487,0.199441,-1.012577,0.933952,100130.47,-2,+166,+72
134029,15.337,1.387,-2.340,-1.420833,-0.383623,1.470318,100135.28,-6,+163,+74
134038,11.092,-19.047,4.513,2.075660,-0.785898,2.779840,100132.72,-12,+160,+71
134048,12.293,-18.006,3.326,3.287806,-0.469825,2.941602,100132.19,-19,+164,+63
134059,15.007,-7.767,-1.083,1.363165,-0.544320,2.991088,100131.72,-27,+164,+63
134069,8.304,2.018,0.494,1.292926,-0.638504,2.712795,100131.72,-27,+162,+62
134079,-0.168,1.136,6.538,2.415146,-0.318173,2.483987,100132.50,-33,+162,+56
134088,2.304,-8.995,7.104,2.720577,-0.332008,2.121089,100134.23,-38,+165,+51
134098,10.263,-15.542,1.630,1.172138,-0.669898,1.856630,100133.23,-43,+164,+50
134109,12.474,-14.053,0.332,-1.165953,-0.748118,1.590043,100133.13,-43,+164,+50
134114,12.236,-8.691,2.541,-2.292429,-0.502816,1.388373,100133.13,-47,+154,+52
134123,11.164,-3.599,2.764,-2.827731,-0.408632,1.288337,100133.13,-47,+154,+52
134133,8.952,-1.725,1.985,-2.645218,-0.312852,1.274502,100135.46,-51,+145,+56
134144,7.750,-1.419,1.807,-1.761916,-0.275073,1.200007,100134.35,-54,+137,+60
134154,8.244,0.211,1.253,-1.012173,-0.240485,1.126043,100132.88,-56,+132,+61
134164,9.432,-0.309,1.468,-0.278926,-0.220797,1.130832,100131.49,-56,+132,+61
134173,9.616,-2.009,2.094,0.410689,-0.294229,1.153713,100134.79,-59,+130,+61
134183,8.734,-3.752,2.310,0.660780,-0.334137,1.148392,100132.43,-62,+129,+60
134194,8.491,-5.064,2.300,0.580964,-0.274008,1.091456,100132.43,-64,+128,+58
134204,9.067,-5.394,3.014,0.237221,-0.172375,1.036649,100131.54,-64,+128,+58
134213,8.867,-5.438,3.787,-0.276265,-0.048394,0.992484,100133.59,-65,+126,+57
134223,8.399,-6.674,3.380,-0.782302,0.021313,0.849346,100133.59,-67,+122,+58
134234,8.430,-6.608,2.661,-1.084008,0.044725,0.699291,100134.38,-68,+118,+60
134244,8.632,-4.887,2.325,-1.327714,0.079845,0.634374,100131.70,-68,+118,+60
134254,9.602,-2.701,1.675,-1.385182,0.099001,0.599787,100132.91,-68,+113,+63
134263,10.211,-1.144,1.300,-1.060063,0.088358,0.626392,100129.66,-70,+109,+64
134274,10.193,-1.037,1.572,-0.471017,0.047918,0.721108,100136.54,-70,+105,+65
134284,9.859,-3.336,2.054,0.047258,-0.015403,0.765273,100133.87,-71,+105,+65
134294,9.392,-6.121,2.062,0.150487,-0.041476,0.758888,100132.24,-71,+103,+65
134303,9.159,-7.317,2.457,-0.169311,-0.010082,0.689713,100130.79,-73,+103,+65
134313,8.831,-6.729,2.992,-0.614687,0.052175,0.605640,100130.79,-74,+99,+66
134324,8.893,-5.729,3.174,-0.946191,0.138377,0.573713,100130.79,-73,+99,+68
134334,9.309,-4.914,2.784,-1.143604,0.209147,0.564135,100133.26,-73,+95,+68
134343,10.102,-3.839,1.635,-1.173402,0.215533,0.585952,100132.37,-73,+90,+69
134353,10.696,-3.898,1.513,-1.110613,0.182542,0.655126,100130.96,-74,+86,+70
134364,11.254,-3.479,1.045,-0.924375,0.023441,0.730154,100130.48,-75,+82,+71
134374,10.776,-3.837,1.519,-0.784430,-0.122889,0.761548,100130.48,-75,+82,+71
134384,10.071,-4.282,1.786,-0.687586,-0.233036,0.842961,100134.28,-77,+78,+73
134393,9.735,-5.192,2.211,-0.696100,-0.317641,0.857860,100130.75,-78,+74,+72
134404,9.531,-5.647,2.665,-0.814760,-0.356485,0.866906,100130.45,-80,+70,+71
134414,9.597,-5.747,2.991,-1.003659,-0.350100,0.838172,100130.45,-80,+70,+71
134424,9.819,-5.574,3.059,-1.203200,-0.368192,0.880741,100131.94,-81,+65,+72
134433,10.386,-4.925,2.437,-1.459677,-0.396394,0.929695,100131.94,-83,+58,+72
134444,10.895,-3.482,1.890,-1.403806,-0.469825,1.071768,100129.83,-85,+52,+71
134454,11.981,-3.208,1.999,-1.356448,-0.597531,1.146796,100128.22,-85,+52,+71
134464,12.584,-2.386,2.364,-1.240980,-0.866247,1.244172,100130.05,-88,+44,+72
134473,12.886,-2.148,2.568,-1.037182,-1.067916,1.433603,100130.05,-91,+39,+70
134483,13.059,-2.140,2.382,-0.798797,-1.263200,1.536832,100135.09,-94,+33,+66
134494,13.189,-2.577,2.159,-0.618412,-1.423365,1.646979,100132.95,-94,+33,+66
134504,13.749,-3.401,2.063,-0.617348,-1.504246,1.820979,100129.48,-100,+27,+64
134514,14.667,-4.278,2.448,-0.823806,-1.531384,1.963052,100130.61,-103,+19,+61
134523,15.427,-4.347,3.321,-1.132430,-1.509035,2.093951,100129.36,-107,+10,+56
134534,17.043,-3.691,4.480,-1.482558,-1.456356,2.151419,100131.77,-107,+10,+56
134544,19.484,-1.616,6.669,-1.866741,-1.416980,2.157804,100131.77,-110,+0,+53
134554,20.005,1.689,8.277,-2.225915,-1.426558,2.251987,100127.67,-113,-9,+50
134563,19.063,3.191,8.133,-2.203567,-1.510631,2.444611,100129.05,-116,-21,+45
134574,18.303,2.335,8.417,-1.978484,-1.601090,2.504208,100129.05,-116,-21,+45
134584,17.111,-0.359,7.955,-1.709769,-1.746356,2.476538,100130.12,-119,-33,+41
134594,14.967,-5.546,7.145,-1.137751,-1.956007,2.511125,100129.01,-121,-43,+35
134604,14.704,-10.014,5.844,-0.676412,-2.013475,2.579767,100129.16,-123,-52,+30
134614,15.829,-10.478,5.349,-0.064485,-2.072007,2.721308,100130.43,-123,-52,+30
134624,14.370,-7.435,6.136,0.536266,-2.161402,2.594134,100130.43,-124,-59,+25
134634,11.967,-2.783,6.044,0.897037,-2.214081,2.270079,100128.95,-127,-65,+21
134644,9.353,0.579,5.370,1.306761,-2.167255,1.892281,100129.23,-129,-67,+16
134653,5.624,1.223,4.334,1.444046,-2.191732,1.565566,100129.70,-129,-67,+16
134664,0.607,-2.247,3.264,1.474376,-2.103934,1.362300,100129.70,-130,-68,+11
134674,-2.453,-7.968,3.815,1.406266,-1.582998,1.022814,100129.70,-133,-69,+8
134684,-0.460,-10.090,4.523,1.429679,-1.083347,0.597658,100130.75,-133,-69,+6
134693,2.546,-7.499,2.946,1.130633,-1.127512,0.079916,100131.23,-133,-69,+6
134705,3.108,-2.379,1.570,0.053111,-1.234644,-0.640384,100130.39,-136,-66,+4
134714,2.879,1.017,0.677,-0.805182,-1.179659,-1.055074,100130.39,-138,-63,+0
134724,1.738,2.873,0.189,-0.964815,-1.048228,-1.321661,100130.39,-141,-60,-2
134734,0.778,3.299,0.379,-0.318834,-0.818357,-1.610065,100129.90,-141,-60,-2
134744,0.577,2.583,1.509,0.492101,-0.528357,-1.923478,100124.80,-143,-55,-4
134754,0.764,0.701,2.665,1.099771,-0.275605,-2.169312,100124.68,-146,-46,-5
134764,1.160,-1.182,3.149,1.442449,-0.060632,-2.397055,100124.68,-147,-35,-4
134774,1.884,-2.413,3.189,1.488211,0.159129,-2.638633,100128.37,-148,-35,-3
134784,3.109,-3.005,3.312,1.287605,0.389000,-2.855202,100128.37,-148,-24,-3
134794,4.004,-2.749,3.694,0.980578,0.581092,-3.024945,100126.16,-148,-11,-1
134804,3.844,-1.590,3.494,0.827863,0.714652,-3.275569,100126.32,-147,+0,+0
134814,4.099,-0.612,3.259,1.127972,0.912596,-3.595899,100126.84,-145,+15,+2
134823,5.349,-0.833,3.520,1.751605,1.140339,-3.853440,100126.84,-145,+15,+2
134834,6.686,-2.202,3.903,2.287440,1.342009,-4.032761,100125.38,-142,+33,+6
134844,7.780,-3.881,3.605,2.595531,1.480358,-4.158871,100128.74,-137,+50,+9
134854,8.662,-4.834,3.070,2.777513,1.572945,-4.284449,100129.79,-132,+70,+11
134864,9.863,-4.891,2.657,2.904155,1.642119,-4.419073,100127.38,-132,+70,+11
134874,10.189,-5.652,3.378,3.037182,1.656486,-4.513256,100131.58,-124,+90,+14
134884,10.762,-6.458,4.388,3.078687,1.723000,-4.620210,100129.69,-115,+111,+14
134894,11.903,-7.035,5.852,2.809971,1.837403,-4.810705,100127.64,-103,+129,+15
