100012,8.692,-3.669,2.674,-0.020153,0.001326,0.010799,99717.08,-91,-176,-21
100022,8.723,-3.660,2.677,-0.015896,0.001858,0.007606,99717.08,-91,-176,-20
100032,8.694,-3.636,2.654,-0.010042,-0.000802,0.009734,99723.66,-91,-176,-21
100042,8.687,-3.649,2.671,-0.005253,-0.001334,0.009734,99720.52,-91,-176,-21
100051,8.688,-3.587,2.683,-0.004721,-0.001866,0.013991,99719.44,-92,-176,-20
100062,8.719,-3.604,2.711,-0.003125,-0.002931,0.015056,99719.44,-91,-176,-20
100072,8.719,-3.655,2.713,-0.004721,-0.003463,0.016652,99721.39,-90,-176,-21
100081,8.687,-3.678,2.675,-0.005253,-0.002931,0.018248,99721.39,-90,-176,-21
100091,8.660,-3.658,2.711,-0.004721,-0.003463,0.016652,99722.13,-91,-176,-21
100102,8.681,-3.681,2.699,-0.004189,-0.002398,0.016120,99718.88,-91,-176,-21
100112,8.712,-3.665,2.696,-0.002593,-0.000802,0.013991,99718.56,-90,-177,-21
100121,8.705,-3.675,2.676,-0.003657,0.001858,0.013459,99718.56,-90,-177,-21
100131,8.664,-3.657,2.651,-0.000997,0.003455,0.012395,99722.25,-91,-177,-20
100142,8.692,-3.648,2.732,0.000600,0.005583,0.013459,99719.53,-90,-176,-20
100152,8.687,-3.671,2.744,-0.001529,0.007179,0.014523,99720.00,-90,-177,-21
100162,8.700,-3.693,2.714,-0.002593,0.007179,0.013459,99721.30,-90,-177,-21
100172,8.697,-3.653,2.767,-0.006318,0.004519,0.012395,99720.74,-91,-176,-19
100182,8.678,-3.647,2.753,-0.005786,0.002923,0.011331,99721.21,-90,-176,-20
100192,8.694,-3.685,2.693,-0.007382,0.001326,0.012927,99720.90,-90,-177,-21
100202,8.674,-3.622,2.727,-0.004189,-0.002398,0.014523,99720.90,-90,-177,-21
100211,8.701,-3.622,2.744,0.001132,-0.003463,0.016652,99720.16,-90,-176,-19
100221,8.688,-3.688,2.688,0.006453,-0.003995,0.019312,99720.16,-90,-177,-21
100232,8.673,-3.725,2.698,0.010710,-0.003995,0.018780,99719.68,-90,-176,-20
100242,8.681,-3.711,2.714,0.012838,-0.003463,0.017184,99719.90,-90,-176,-20
100252,8.675,-3.731,2.696,0.011242,-0.004527,0.015588,99720.79,-91,-176,-20
100261,8.684,-3.708,2.736,0.012306,-0.007720,0.009202,99718.32,-90,-176,-20
100272,8.657,-3.648,2.814,0.018159,-0.017298,0.001753,99718.32,-90,-177,-21
100282,8.626,-3.605,2.834,0.031462,-0.026343,0.000157,99720.30,-90,-177,-21
100292,8.649,-3.667,2.708,0.036251,-0.030600,0.003349,99719.81,-91,-176,-19
100302,8.700,-3.675,2.676,0.036251,-0.029536,0.004945,99717.61,-90,-177,-21
100312,8.705,-3.722,2.622,0.033058,-0.023151,0.009202,99717.61,-90,-178,-21
100322,8.680,-3.781,2.581,0.025077,-0.014105,0.009202,99717.61,-90,-178,-21
100332,8.709,-3.708,2.653,0.021884,-0.007720,0.007074,99722.89,-90,-176,-21
100341,8.718,-3.637,2.674,0.028269,-0.001334,0.007606,99720.17,-90,-177,-20
100353,8.680,-3.714,2.638,0.029334,0.002745,0.011331,99719.78,-90,-178,-20
100362,8.691,-3.687,2.763,0.024013,0.004519,0.009734,99719.78,-90,-178,-20
100372,8.704,-3.569,2.778,0.023480,-0.001866,0.009734,99719.78,-90,-177,-19
100382,8.681,-3.554,2.818,0.031994,-0.008784,0.013459,99721.88,-90,-178,-19
100391,8.688,-3.614,2.781,0.043169,-0.015169,0.017184,99719.78,-90,-177,-19
100402,8.646,-3.678,2.698,0.047425,-0.020490,0.019312,99718.66,-90,-177,-19
100412,8.689,-3.697,2.675,0.049022,-0.021022,0.023037,99718.66,-90,-177,-19
100422,8.779,-3.756,2.665,0.045297,-0.019426,0.021441,99721.38,-90,-177,-20
100431,8.751,-3.772,2.648,0.035719,-0.015701,0.017716,99721.38,-90,-177,-19
100442,8.719,-3.736,2.677,0.024013,-0.010380,0.012927,99720.13,-90,-177,-19
100452,8.660,-3.699,2.566,0.017627,-0.005591,0.013459,99720.44,-90,-177,-19
100462,8.672,-3.581,2.417,0.014967,-0.002931,0.017716,99719.97,-88,-178,-20
100471,8.760,-3.478,2.494,0.028802,-0.003995,0.028358,99719.97,-88,-177,-19
100482,8.786,-3.387,2.783,0.067113,-0.010912,0.044322,99720.86,-90,-178,-19
100492,8.728,-3.495,2.797,0.102233,-0.022087,0.056028,99718.30,-90,-178,-19
100502,8.613,-3.532,2.668,0.106490,-0.029536,0.061881,99720.34,-89,-177,-19
100512,8.492,-3.664,2.844,0.088930,-0.030068,0.060817,99720.50,-88,-178,-19
100523,8.383,-3.837,2.765,0.102765,-0.033793,0.042725,99720.12,-89,-178,-19
100532,8.364,-3.666,2.548,0.132031,-0.039646,0.029423,99720.74,-89,-178,-19
100542,8.497,-3.603,2.537,0.180453,-0.042307,0.017716,99719.45,-88,-178,-18
100552,8.548,-3.722,2.634,0.235260,-0.030600,0.008670,99719.45,-90,-179,-18
100561,8.278,-3.974,2.298,0.253884,-0.016765,-0.004632,99718.60,-89,-179,-16
100572,8.265,-3.926,2.354,0.238453,0.007712,-0.026981,99718.60,-89,-179,-16
100582,8.340,-3.781,2.552,0.235792,0.024739,-0.047733,99722.55,-88,-178,-16
100592,8.382,-3.737,2.373,0.231003,0.045491,-0.055715,99720.08,-89,-179,-15
100601,8.652,-3.879,2.361,0.216636,0.068372,-0.064229,99721.44,-90,-179,-14
100612,8.837,-3.835,2.556,0.212379,0.099767,-0.073275,99717.98,-90,-179,-14
100622,8.983,-3.751,2.889,0.217701,0.112537,-0.080192,99717.98,-90,-179,-14
100632,8.970,-3.833,3.106,0.213976,0.111473,-0.091366,99721.56,-89,-179,-14
100642,8.881,-3.957,3.204,0.185242,0.111473,-0.107862,99719.59,-92,-180,-13
100652,8.855,-3.898,3.338,0.137352,0.108812,-0.129146,99717.92,-92,-180,-13
100662,8.857,-3.861,3.485,0.091058,0.096574,-0.150963,99717.92,-90,-178,-12
100672,8.836,-3.746,3.500,0.065517,0.077950,-0.167990,99717.92,-92,-178,-11
100682,8.786,-3.587,3.395,0.059664,0.048152,-0.179697,99721.23,-93,-178,-11
100691,8.804,-3.574,3.411,0.061792,0.025271,-0.185550,99720.27,-93,-178,-11
100702,8.785,-3.658,3.343,0.053279,0.005583,-0.188210,99720.70,-92,-178,-11
100712,8.698,-3.724,3.208,0.035719,-0.002398,-0.194064,99717.77,-94,-178,-11
100722,8.605,-3.734,3.246,0.000068,0.000262,-0.205238,99717.77,-94,-177,-11
100732,8.589,-3.719,3.145,-0.047290,0.006115,-0.217476,99721.37,-94,-177,-11
100742,8.675,-3.640,2.827,-0.102097,0.015161,-0.221733,99720.96,-94,-176,-12
100752,8.689,-3.453,2.714,-0.150519,0.023143,-0.219073,99720.30,-95,-176,-11
100762,8.776,-3.302,2.525,-0.178721,0.031124,-0.208431,99720.30,-97,-175,-11
100772,8.824,-3.190,2.483,-0.180850,0.044959,-0.193531,99722.51,-97,-175,-11
100782,8.736,-3.035,2.597,-0.167015,0.056134,-0.172779,99722.51,-96,-175,-13
100792,8.727,-3.168,2.672,-0.155308,0.065712,-0.154155,99718.99,-97,-174,-13
100802,8.794,-3.313,2.604,-0.140409,0.074757,-0.148834,99720.30,-98,-174,-13
100812,8.760,-3.331,2.754,-0.116464,0.070501,-0.147770,99718.52,-98,-174,-13
100823,8.710,-3.475,2.972,-0.092342,0.066244,-0.149012,99723.71,-97,-174,-13
100832,8.684,-3.573,3.029,-0.096244,0.067840,-0.156816,99723.71,-98,-173,-13
100842,8.676,-3.478,2.930,-0.116997,0.074225,-0.164798,99721.93,-99,-174,-14
100852,8.699,-3.283,2.817,-0.160630,0.080611,-0.160541,99718.38,-99,-174,-14
100862,8.843,-3.038,2.705,-0.196813,0.086996,-0.147770,99720.68,-99,-173,-14
100872,9.045,-2.744,2.998,-0.172868,0.078482,-0.125953,99721.34,-99,-172,-14
100882,9.013,-2.662,3.125,-0.092519,0.043895,-0.090834,99719.67,-99,-172,-14
100892,8.839,-2.871,3.287,-0.008446,0.003455,-0.055183,99719.67,-99,-172,-14
100902,8.846,-3.104,3.283,0.035719,-0.034325,-0.030174,99719.67,-99,-172,-14
100912,8.877,-3.278,3.320,0.014967,-0.064123,-0.011550,99716.80,-100,-172,-14
100922,8.989,-3.263,3.452,-0.038244,-0.085940,-0.001440,99716.80,-100,-172,-14
100932,8.983,-3.093,3.489,-0.085602,-0.124252,0.009734,99723.20,-99,-172,-15
100942,8.947,-2.929,3.388,-0.103162,-0.165756,0.016120,99720.90,-99,-172,-15
100952,8.869,-2.762,3.205,-0.102097,-0.205132,0.044322,99720.52,-99,-172,-16
100962,8.930,-2.685,3.087,-0.084006,-0.245041,0.101789,99719.43,-99,-172,-16
100972,9.007,-2.722,2.944,-0.063786,-0.286013,0.168835,99719.43,-97,-172,-18
100982,9.107,-2.713,3.101,-0.052611,-0.324857,0.244927,99724.09,-97,-172,-18
100993,9.232,-2.517,3.361,-0.037180,-0.371151,0.332193,99721.48,-97,-173,-18
101002,9.337,-2.467,3.658,-0.015364,-0.432343,0.435422,99717.96,-95,-173,-18
101012,9.832,-2.219,3.795,-0.013235,-0.523334,0.552486,99717.96,-93,-176,-20
101022,10.213,-1.110,3.811,-0.005786,-0.598361,0.706798,99717.96,-93,-176,-20
101032,9.709,-2.506,4.679,-0.109015,-0.653701,0.861642,99721.77,-90,-176,-21
101042,9.973,-3.439,4.735,-0.257473,-0.740435,0.980835,99722.28,-87,-178,-22
101052,10.416,-2.876,4.436,-0.481492,-0.777682,1.090449,99718.25,-84,-179,-26
101057,10.580,-3.521,3.741,-0.676244,-0.775554,1.159624,99720.08,-84,-179,-26
101067,10.810,-3.926,3.866,-0.806079,-0.795242,1.200064,99720.08,-80,-181,-29
101078,11.943,-4.068,3.957,-0.869400,-0.847921,1.224009,99723.30,-80,-181,-29
101087,14.349,-5.213,3.984,-0.881106,-0.844196,1.225073,99719.37,-76,-181,-32
101097,19.177,-6.355,5.245,-0.892813,-0.842600,1.163880,99716.45,-70,-183,-36
101107,24.312,-5.341,6.729,-0.850244,-0.850581,1.114394,99718.16,-67,-183,-39
101117,21.524,-4.636,5.735,-0.732648,-0.831958,1.197403,99718.16,-67,-183,-39
101127,14.507,-3.082,3.270,-0.907180,-0.682435,1.193679,99721.79,-63,-183,-42
101137,11.677,-2.148,2.329,-1.160996,-0.533444,1.098963,99718.71,-58,-183,-45
101147,10.766,-3.312,1.681,-1.251987,-0.471719,1.040963,99720.07,-56,-183,-50
101157,8.938,-7.174,-0.020,-1.126941,-0.442985,1.064376,99719.18,-56,-183,-50
101167,7.802,-12.042,-0.260,-0.893345,-0.438728,1.225073,99719.18,-51,-184,-53
101177,9.895,-11.458,0.727,-0.659216,-0.483426,1.231458,99720.95,-47,-185,-56
101187,9.901,-10.739,-0.354,-0.869932,-0.555793,1.166541,99721.58,-44,-185,-59
101197,9.343,-9.651,-0.539,-1.152482,-0.526527,1.096303,99719.02,-39,-185,-59
101208,8.089,-10.186,-0.902,-1.524959,-0.488747,1.075550,99721.05,-39,-183,-63
101217,6.973,-9.637,-0.474,-1.738867,-0.477040,1.080339,99721.05,-35,-183,-68
101227,6.902,-7.613,0.051,-1.794739,-0.471187,1.063844,99722.22,-32,-180,-74
101237,6.824,-5.542,-0.099,-1.690977,-0.494600,1.087257,99718.66,-28,-178,-79
101248,6.446,-4.582,-0.478,-1.395124,-0.535572,1.150046,99718.03,-28,-178,-79
101257,5.613,-4.650,-0.897,-1.014666,-0.580802,1.209642,99719.28,-21,-178,-83
101267,4.927,-4.361,-0.873,-0.683693,-0.582930,1.230394,99719.28,-18,-177,-85
101277,4.152,-3.505,-0.665,-0.459143,-0.567499,1.207513,99721.16,-13,-176,-86
101287,3.262,-2.965,-0.969,-0.296318,-0.571224,1.150046,99718.76,-13,-176,-86
101293,2.595,-3.136,-1.461,-0.198409,-0.582930,1.100027,99719.65,-8,-177,-88
101302,2.037,-3.252,-1.409,-0.136685,-0.577609,1.035110,99719.65,-8,-177,-88
101312,1.666,-2.703,-0.812,-0.104226,-0.536637,0.907404,99715.20,-5,-178,-88
101322,1.536,-1.838,-0.452,-0.103162,-0.500453,0.772248,99715.20,-1,-177,-90
101332,1.135,-1.668,-0.599,-0.087730,-0.488215,0.667954,99716.13,+1,-178,-90
101343,0.639,-1.964,-0.752,-0.066978,-0.453095,0.564193,99719.48,+1,-178,-90
101352,0.221,-2.179,-1.025,-0.057932,-0.411059,0.448193,99717.13,+3,-178,-90
101362,-0.187,-2.037,-0.997,-0.054208,-0.353591,0.318890,99717.13,+5,-177,-91
101372,-0.124,-1.252,-0.567,-0.029198,-0.286013,0.182670,99717.13,+6,-176,-90
101383,0.032,-0.697,-0.578,0.040508,-0.236527,0.068267,99719.05,+6,-176,-90
101392,-0.094,-0.726,-0.830,0.137352,-0.197151,-0.028045,99721.52,+5,-177,-90
101402,-0.192,-0.969,-1.047,0.246434,-0.169481,-0.111054,99718.38,+6,-178,-90
101412,0.012,-1.329,-1.424,0.397022,-0.155114,-0.188210,99717.65,+6,-179,-88
101423,-0.109,-1.902,-1.836,0.576875,-0.140215,-0.261642,99717.65,+5,-179,-86
101433,0.129,-2.227,-1.622,0.739700,-0.098178,-0.359550,99722.64,+5,-179,-86
101442,0.341,-2.646,-1.359,0.880177,-0.059866,-0.468100,99721.02,+4,-181,-85
101452,0.435,-3.192,-1.033,0.961058,-0.029536,-0.578779,99717.91,+3,-182,-81
101463,1.063,-3.562,-0.653,0.986067,0.017822,-0.705953,99717.91,+0,-184,-78
101473,1.631,-3.877,-0.605,0.906251,0.074225,-0.815568,99722.41,+0,-184,-78
101482,2.336,-4.132,-0.460,0.823241,0.129565,-0.915072,99720.01,-1,-185,-76
101492,3.421,-4.417,-0.006,0.817388,0.210978,-1.019898,99720.01,-7,-186,-73
101502,4.239,-4.325,0.326,0.758856,0.290794,-1.142283,99719.05,-11,-187,-71
101513,4.745,-4.280,0.266,0.626361,0.408390,-1.267329,99718.90,-11,-187,-71
101522,5.067,-4.539,-0.354,0.502911,0.528115,-1.379072,99718.90,-15,-186,-70
101532,5.714,-4.771,-0.985,0.458746,0.640390,-1.518485,99721.02,-21,-187,-67
101542,6.455,-4.309,-1.203,0.400746,0.755326,-1.701531,99720.44,-28,-186,-65
101553,6.929,-3.618,-1.070,0.372544,0.852170,-1.882448,99720.28,-28,-186,-65
101563,7.300,-3.317,-1.358,0.458746,0.968170,-2.037292,99717.03,-35,-185,-63
101572,-3.486,-43.111,-22.635,-0.003125,1.190592,-1.357788,99727.38,-42,-185,-62
101582,19.552,-31.741,10.138,0.436930,0.831950,0.143294,99716.18,-42,-185,-60
101593,24.701,-11.061,-1.972,1.298948,0.326445,-1.871274,99721.79,-42,-185,-60
101602,12.283,-5.638,1.747,0.054343,0.898995,-1.155054,99721.79,-47,-183,-56
101612,9.597,10.432,4.470,-0.125510,0.531308,-1.280100,99717.29,-52,-183,-57
101622,11.986,7.754,14.957,0.327847,1.494958,-1.399292,99717.29,-58,-181,-53
101633,12.982,-3.432,10.079,1.037150,1.254977,-1.280632,99718.82,-58,-181,-53
101643,18.459,-8.081,9.830,1.383553,1.219858,-1.312558,99717.51,-62,-181,-49
101652,30.552,-9.423,-0.207,0.994049,1.091087,-1.276907,99718.66,-67,-181,-44
101662,34.991,-3.281,-1.990,0.435866,0.569619,-1.067256,99718.13,-70,-180,-42
101672,19.524,1.773,5.210,0.381058,0.641454,-0.751182,99718.13,-70,-180,-42
101683,7.409,-4.820,1.771,0.221425,0.822372,-0.408504,99722.58,-72,-179,-40
101693,2.453,-5.310,0.810,0.046361,0.815454,-0.472889,99722.36,-76,-179,-39
101702,3.713,-1.810,1.796,-0.024409,0.662207,-0.531953,99718.95,-78,-178,-38
101712,8.150,-0.830,2.696,0.397022,0.502042,-0.431917,99718.95,-78,-178,-38
101723,9.087,-3.554,2.965,0.848783,0.318996,-0.285586,99718.95,-79,-178,-36
101733,7.810,-6.971,4.032,0.922746,0.272170,-0.290908,99721.23,-81,-178,-33
101742,6.876,-7.193,4.068,0.455021,0.378592,-0.401586,99717.67,-82,-178,-31
101752,7.863,-5.567,2.864,-0.120189,0.540886,-0.505880,99720.77,-82,-178,-31
101763,9.680,-3.000,1.465,-0.342434,0.566782,-0.507654,99721.79,-84,-178,-32
101772,9.816,-1.848,1.271,-0.178189,0.498317,-0.444687,99721.79,-86,-177,-31
101783,9.160,-2.206,1.951,0.150123,0.411583,-0.361678,99722.88,-88,-176,-30
101792,9.037,-2.825,2.471,0.416177,0.336555,-0.294100,99722.35,-88,-176,-30
101803,9.616,-3.488,3.026,0.635407,0.265253,-0.272816,99719.62,-87,-176,-29
101813,9.519,-3.286,2.475,0.787058,0.193418,-0.257917,99719.62,-89,-176,-26
101823,9.198,-3.224,2.792,0.699792,0.149253,-0.179164,99720.77,-90,-176,-24
101832,8.700,-3.494,3.041,0.657755,0.088060,-0.122761,99723.02,-90,-176,-24
101842,8.624,-3.156,3.448,0.493333,0.047620,-0.048265,99723.02,-90,-176,-22
101853,8.704,-2.885,4.016,0.372012,0.000794,0.036340,99718.41,-90,-176,-22
101863,8.689,-2.947,4.091,0.303370,-0.026343,0.112964,99718.36,-90,-178,-20
101872,8.663,-3.132,3.497,0.227278,-0.055609,0.181074,99718.36,-90,-178,-20
101882,8.845,-3.283,3.167,0.141077,-0.080087,0.231092,99723.23,-88,-178,-20
101893,8.980,-3.517,2.621,0.124049,-0.112545,0.262487,99721.96,-88,-178,-20
101903,8.833,-3.440,2.307,0.110214,-0.150857,0.310909,99720.82,-88,-179,-19
101913,8.812,-2.993,2.724,0.145334,-0.177463,0.363587,99718.98,-86,-180,-19
101922,8.851,-3.019,2.702,0.240049,-0.196619,0.413606,99724.15,-86,-180,-19
101933,8.774,-3.473,2.443,0.319866,-0.211518,0.464156,99719.87,-85,-181,-19
101943,8.699,-3.740,2.552,0.378398,-0.217903,0.481184,99720.70,-83,-181,-19
101953,8.450,-4.121,2.537,0.415645,-0.215774,0.470009,99719.80,-81,-183,-17
101962,8.297,-4.669,2.500,0.395425,-0.189169,0.435422,99719.80,-81,-183,-17
101972,8.350,-4.720,2.419,0.323590,-0.155646,0.377422,99719.80,-81,-183,-16
101983,8.296,-4.875,2.341,0.255480,-0.117334,0.321019,99722.80,-79,-185,-16
101993,8.369,-4.357,2.461,0.206526,-0.087536,0.278982,99719.34,-78,-185,-16
102002,8.508,-4.203,2.451,0.199609,-0.063059,0.247055,99718.97,-78,-185,-16
102012,8.615,-4.314,2.219,0.205462,-0.046031,0.225771,99721.17,-78,-185,-15
102023,8.651,-4.052,2.225,0.212379,-0.040710,0.215661,99721.17,-77,-186,-14
102033,8.743,-3.785,2.450,0.244838,-0.039114,0.219918,99719.30,-76,-187,-14
102043,8.698,-3.665,2.785,0.277297,-0.043903,0.235349,99719.88,-76,-187,-14
102052,8.620,-3.693,2.994,0.290600,-0.054545,0.255037,99716.89,-76,-187,-13
102063,8.512,-3.979,3.166,0.285811,-0.061463,0.267276,99716.89,-76,-187,-13
102073,8.403,-4.537,3.102,0.236324,-0.056674,0.264083,99716.89,-72,-189,-12
102082,8.387,-4.586,3.123,0.142673,-0.054013,0.240138,99721.29,-72,-189,-12
102092,8.333,-4.753,2.913,0.053279,-0.053481,0.204487,99720.82,-73,-188,-11
102103,8.452,-4.563,2.893,-0.026538,-0.064123,0.179477,99718.73,-72,-189,-11
102113,8.654,-4.217,2.998,-0.070171,-0.073169,0.173092,99720.18,-72,-189,-12
102122,8.688,-4.017,2.956,-0.093052,-0.085408,0.178945,99720.18,-72,-189,-12
102132,8.612,-4.005,2.852,-0.111143,-0.092857,0.189588,99723.80,-71,-190,-12
102142,8.576,-4.119,2.810,-0.126575,-0.096582,0.197569,99718.88,-70,-190,-13
102153,8.458,-4.165,2.811,-0.140409,-0.098710,0.201294,99719.98,-70,-190,-14
102163,8.306,-4.448,2.646,-0.152116,-0.093921,0.197037,99719.27,-70,-190,-14
102173,8.297,-4.539,2.364,-0.186171,-0.090197,0.185331,99723.19,-70,-189,-14
102182,8.441,-4.243,2.487,-0.212244,-0.080087,0.175221,99721.20,-69,-189,-15
102193,8.499,-4.168,2.440,-0.209584,-0.073701,0.179477,99721.20,-68,-190,-15
102203,8.469,-4.094,2.514,-0.193620,-0.075830,0.192248,99720.09,-68,-190,-15
102212,8.433,-4.229,2.472,-0.161162,-0.080619,0.206083,99718.84,-68,-191,-16
102222,8.383,-4.495,2.318,-0.134556,-0.089132,0.216725,99718.84,-66,-191,-16
102234,8.386,-4.643,2.264,-0.144489,-0.089132,0.216725,99719.47,-65,-191,-17
102243,8.419,-4.619,2.303,-0.179785,-0.084343,0.211936,99719.47,-65,-191,-17
102253,8.364,-4.611,2.423,-0.226079,-0.074233,0.204487,99721.33,-66,-191,-18
102262,8.494,-4.311,2.429,-0.265455,-0.076362,0.202890,99721.75,-64,-191,-19
102273,8.452,-4.044,2.692,-0.258538,-0.082215,0.221514,99721.75,-63,-191,-19
102283,8.460,-4.277,2.469,-0.226611,-0.098178,0.245459,99720.10,-63,-191,-19
102293,8.436,-4.378,2.519,-0.223951,-0.109353,0.262487,99719.29,-63,-191,-20
102303,8.330,-4.632,2.419,-0.230868,-0.109885,0.273661,99719.80,-62,-191,-21
102312,8.320,-4.928,2.207,-0.261198,-0.114674,0.267808,99719.80,-61,-191,-22
102323,8.381,-4.635,2.386,-0.298978,-0.112013,0.259826,99719.80,-61,-191,-22
102333,8.487,-4.169,2.596,-0.334629,-0.109353,0.278982,99723.72,-61,-192,-22
102342,8.353,-4.479,2.567,-0.366024,-0.105096,0.307184,99721.69,-59,-192,-24
102352,8.493,-4.479,2.164,-0.392629,-0.094986,0.324211,99718.28,-58,-192,-26
102363,8.390,-4.896,2.469,-0.431473,-0.085408,0.336450,99719.69,-57,-192,-26
102373,8.254,-5.279,2.024,-0.443712,-0.081151,0.318890,99719.69,-57,-191,-26
102383,8.390,-5.021,2.458,-0.539492,-0.043371,0.307184,99722.68,-55,-193,-28
102393,8.565,-5.352,2.502,-0.671455,-0.000270,0.283239,99719.62,-55,-193,-30
102403,8.755,-5.416,1.662,-0.780537,0.028464,0.259294,99719.12,-55,-192,-32
102413,8.990,-5.155,2.286,-0.887491,0.039638,0.259294,99719.12,-55,-192,-32
102423,9.052,-5.201,2.380,-0.894409,0.026335,0.260890,99721.83,-53,-190,-35
102432,9.197,-5.463,2.116,-0.910372,-0.022087,0.274193,99721.83,-52,-191,-37
102443,9.470,-5.458,2.559,-0.964115,-0.081683,0.292285,99719.67,-52,-189,-40
102453,9.786,-5.257,2.471,-0.997638,-0.147132,0.327404,99721.52,-52,-189,-40
102463,10.164,-5.228,2.534,-1.068941,-0.220031,0.381147,99720.05,-49,-189,-44
102472,10.336,-5.043,2.779,-1.113638,-0.300380,0.437019,99720.05,-49,-189,-47
102482,10.664,-4.904,2.730,-1.135987,-0.370086,0.497147,99720.46,-47,-187,-51
102493,11.096,-5.240,2.633,-1.192922,-0.441921,0.555147,99720.66,-47,-187,-51
102503,11.539,-4.853,2.440,-1.286574,-0.527059,0.627514,99720.26,-43,-187,-55
102513,11.554,-4.613,2.852,-1.340317,-0.624435,0.716908,99718.63,-41,-186,-60
102522,11.918,-4.480,3.346,-1.350427,-0.717554,0.811092,99721.77,-39,-184,-63
102533,12.533,-4.089,3.717,-1.341381,-0.806948,0.927092,99723.02,-39,-184,-63
102543,14.139,-3.872,3.917,-1.341381,-0.918691,1.071293,99723.02,-33,-183,-68
102553,17.067,-2.975,5.294,-1.256776,-1.127811,1.225605,99719.10,-28,-183,-73
102562,18.585,-2.303,6.314,-1.144500,-1.315113,1.470908,99718.84,-22,-183,-77
102573,17.048,-1.905,4.679,-1.073730,-1.416214,1.774210,99718.84,-22,-183,-77
102583,15.511,-1.150,4.092,-1.113638,-1.529021,2.006742,99720.30,-13,-182,-81
102593,15.353,-0.422,5.383,-1.176427,-1.647682,2.196173,99720.23,-4,-181,-85
102603,15.348,-1.131,6.182,-1.063088,-1.757297,2.372302,99718.88,+5,-180,-89
102612,14.382,-4.272,5.411,-0.869400,-1.887663,2.479788,99717.00,+5,-180,-89
102623,12.961,-8.234,5.067,-0.760849,-2.028140,2.502137,99717.00,+16,-180,-93
102633,14.881,-5.929,8.025,-0.491602,-2.017498,2.372834,99717.97,+26,-180,-93
102643,14.724,-3.636,7.679,-0.184574,-1.990361,2.186596,99715.83,+37,-180,-94
102653,10.607,-3.744,6.958,-0.113804,-1.908948,2.170100,99716.67,+37,-180,-94
102663,8.044,-4.849,7.800,-0.143602,-1.606709,2.007275,99716.67,+46,-179,-94
102673,7.804,-3.009,7.758,-0.202666,-1.271480,1.670449,99716.67,+52,-178,-94
102683,7.509,-1.279,6.915,-0.311749,-0.964453,1.343734,99718.60,+58,-177,-93
102692,6.731,-0.114,6.155,-0.444244,-0.678710,1.026596,99717.35,+58,-177,-93
102703,6.082,1.354,5.591,-0.539492,-0.407866,0.702009,99717.66,+62,-176,-95
102713,5.442,2.342,4.798,-0.530978,-0.158307,0.365184,99713.68,+62,-174,-95
102723,4.636,2.567,3.826,-0.486281,0.092317,0.016120,99713.68,+62,-172,-96
102733,3.890,2.567,3.058,-0.438391,0.347730,-0.340394,99715.13,+62,-172,-96
102743,3.528,2.541,2.753,-0.388905,0.616977,-0.703825,99717.20,+60,-170,-96
102753,3.243,1.578,1.746,-0.391565,0.869729,-1.031072,99714.35,+54,-170,-96
102763,2.969,0.768,0.980,-0.477235,1.111839,-1.329586,99714.35,+47,-169,-96
102773,3.510,1.064,0.908,-0.487877,1.344903,-1.627035,99716.86,+47,-169,-96
102782,4.761,1.590,1.020,-0.379327,1.539123,-1.906393,99716.86,+40,-166,-96
102793,5.499,1.285,0.909,-0.185107,1.683325,-2.105934,99716.34,+28,-165,-95
102803,6.135,1.046,1.026,0.120324,1.809967,-2.262906,99716.39,+19,-164,-93
102813,6.747,0.384,1.046,0.473113,1.922775,-2.412429,99718.13,+19,-164,-93
102822,7.545,-0.327,1.099,0.841865,2.020683,-2.515126,99718.13,+8,-162,-88
102833,8.315,-0.842,1.302,1.167516,2.097839,-2.625273,99717.08,-3,-163,-84
102843,9.149,-1.523,1.340,1.422929,2.157435,-2.726374,99715.72,-12,-161,-77
102853,9.890,-2.369,1.346,1.587351,2.200536,-2.830135,99716.23,-22,-161,-70
102863,10.321,-2.971,1.184,1.668232,2.211710,-2.937089,99717.65,-22,-160,-70
102873,10.047,-4.392,0.594,1.703883,2.186169,-3.030740,99718.54,-34,-158,-62
102883,9.797,-5.826,0.731,1.693773,2.160095,-3.132374,99717.87,-44,-156,-55
102893,10.015,-6.048,1.461,1.599057,2.152646,-3.273383,99715.82,-54,-153,-49
102903,10.472,-5.051,2.512,1.487314,2.168609,-3.423970,99715.82,-54,-153,-49
102913,11.103,-4.463,3.014,1.466562,2.216499,-3.527731,99718.27,-66,-149,-43
102923,11.468,-4.976,3.131,1.425590,2.298976,-3.576685,99718.27,-76,-146,-36
102933,11.938,-5.252,3.237,1.328214,2.417637,-3.608612,99719.98,-87,-141,-29
102943,12.499,-5.517,2.827,1.234030,2.532572,-3.617658,99717.94,-87,-141,-29
102953,12.617,-6.473,2.756,1.242012,2.610260,-3.581474,99715.69,-99,-134,-22
102963,12.717,-7.571,2.741,1.370782,2.656554,-3.500593,99715.48,-109,-127,-14
102973,12.660,-8.813,2.544,1.507535,2.686884,-3.385658,99715.48,-118,-121,-5
102983,12.823,-9.865,1.931,1.613957,2.664536,-3.234007,99718.76,-118,-121,-5
102993,12.937,-11.073,0.506,1.669828,2.568224,-3.079163,99717.41,-127,-112,+4
103003,12.763,-12.276,-1.034,1.652801,2.375600,-2.926447,99716.59,-132,-104,+11
103013,12.998,-13.062,-1.788,1.563406,2.171802,-2.762557,99716.59,-136,-96,+19
103023,12.389,-14.423,-2.355,1.385149,1.965343,-2.596007,99716.59,-136,-96,+19
103033,11.029,-14.652,-1.073,1.147828,1.675876,-2.252264,99722.98,-140,-87,+25
103043,10.792,-13.065,-1.118,0.934452,1.306592,-1.842540,99720.22,-140,-83,+29
103053,10.283,-12.978,-1.576,0.758324,0.966041,-1.403017,99714.25,-141,-79,+32
103063,9.311,-14.854,-1.975,0.692875,0.687748,-0.885806,99718.75,-141,-79,+32
103073,8.069,-17.113,-2.937,0.538031,0.473308,-0.325495,99718.75,-141,-77,+34
103084,7.488,-17.823,-4.238,0.278361,0.254078,0.248120,99719.03,-138,-77,+34
103093,8.317,-16.704,-4.554,0.055939,-0.010912,0.869092,99721.81,-137,-80,+34
103103,9.871,-14.459,-2.832,0.000600,-0.293463,1.368743,99718.67,-137,-80,+34
103113,10.052,-13.008,-3.695,0.059132,-0.681903,1.822632,99718.67,-133,-83,+32
103123,11.226,-8.337,-1.371,0.190563,-1.137921,2.149880,99723.92,-129,-89,+31
103133,18.600,10.825,12.162,0.770030,-1.309792,1.724192,99723.92,-126,-91,+29
103143,26.962,25.952,9.995,1.169645,-0.618582,0.410945,99721.88,-126,-91,+29
103153,20.652,2.192,-4.349,-0.930592,-1.039480,2.124339,99721.34,-126,-93,+29
103163,9.972,-12.977,-5.814,0.396489,-1.647682,2.995402,99721.19,-118,-101,+25
103173,8.819,-20.479,1.627,1.983773,-1.160802,2.895898,99721.19,-111,-107,+26
103183,13.462,-11.911,-0.480,1.426122,-1.010214,2.764467,99720.39,-111,-107,+26
103193,9.630,-0.108,-2.460,0.434269,-0.876123,2.465953,99721.59,-107,-112,+27
103203,4.057,-1.148,3.830,0.696599,-0.672325,2.399440,99720.48,-101,-118,+27
103214,3.801,-8.012,7.382,1.391535,-0.648380,2.166375,99717.58,-97,-121,+28
103223,6.604,-11.574,6.018,1.090361,-0.765976,1.759311,99721.92,-97,-121,+28
103233,7.841,-8.499,0.854,-0.049419,-0.745224,1.231458,99723.75,-94,-123,+29
103243,8.813,-5.025,0.843,-1.085436,-0.382857,0.953165,99719.41,-90,-125,+25
103252,8.612,-4.313,2.489,-1.590408,-0.129573,0.862706,99719.41,-88,-127,+22
103263,8.383,-4.469,3.277,-1.838372,0.036978,0.731275,99718.25,-88,-127,+22
103273,7.787,-4.699,2.010,-1.640959,0.092317,0.555679,99718.25,-87,-127,+19
103283,8.956,-1.387,1.994,-1.085968,0.119455,0.453514,99720.91,-85,-129,+16
103288,9.677,0.448,2.853,-0.663473,0.129033,0.488101,99718.30,-85,-129,+16
103298,9.720,-0.608,3.161,-0.254281,0.109877,0.573771,99718.81,-86,-129,+16
103308,9.041,-3.003,3.021,0.167150,0.022079,0.654119,99720.33,-84,-131,+16
103318,8.786,-3.782,2.483,0.263462,0.003455,0.634431,99720.33,-82,-133,+16
103328,8.938,-4.836,3.741,0.042636,0.069968,0.566321,99721.70,-82,-133,+16
103339,8.605,-6.281,4.145,-0.323987,0.098702,0.429037,99722.79,-81,-133,+16
103348,7.964,-6.590,4.970,-0.866739,0.162556,0.271532,99720.23,-81,-133,+14
103358,7.594,-5.380,5.991,-1.344042,0.220023,0.124670,99720.02,-80,-133,+11
103368,7.762,-3.345,5.712,-1.535601,0.243968,0.023569,99720.02,-80,-133,+11
103378,8.211,-1.510,4.917,-1.499950,0.239711,0.025166,99721.17,-80,-133,+9
103388,8.924,-1.107,3.656,-1.234427,0.185436,0.083698,99720.13,-80,-131,+6
103398,9.662,-1.665,2.761,-0.888556,0.098702,0.169900,99720.39,-79,-132,+4
103408,9.450,-2.821,3.088,-0.681033,0.025803,0.255569,99720.91,-79,-132,+4
103418,8.579,-3.772,3.977,-0.686886,-0.005591,0.302927,99720.91,-79,-132,+3
103429,8.175,-4.030,4.481,-0.830556,-0.007720,0.321019,99721.98,-78,-132,+1
103438,8.516,-3.178,4.749,-0.968904,-0.017298,0.361991,99720.52,-76,-133,+0
103448,8.278,-3.058,4.707,-0.977950,-0.060931,0.405092,99719.31,-76,-133,+0
103458,8.006,-3.606,4.418,-1.053510,-0.094986,0.456707,99717.42,-76,-133,-3
103469,8.363,-3.423,4.432,-1.203565,-0.102967,0.518964,99717.42,-75,-133,-5
103478,8.451,-2.935,4.421,-1.284445,-0.118398,0.583349,99723.10,-73,-134,-8
103488,8.585,-2.968,4.008,-1.287106,-0.147664,0.650927,99722.05,-73,-134,-8
103498,8.748,-3.361,3.482,-1.252519,-0.176398,0.711055,99720.21,-72,-133,-11
103508,9.097,-3.776,2.978,-1.232299,-0.205132,0.758945,99719.80,-69,-133,-14
103518,9.393,-3.904,2.716,-1.224317,-0.241316,0.797789,99719.80,-67,-134,-17
103524,9.610,-3.948,2.599,-1.211546,-0.278563,0.828651,99721.92,-67,-134,-17
103533,9.940,-4.273,2.386,-1.196647,-0.316875,0.854193,99721.92,-65,-136,-21
103543,10.358,-4.632,2.192,-1.222721,-0.361573,0.882394,99722.13,-63,-135,-23
103554,10.619,-4.657,2.089,-1.319565,-0.399352,0.909532,99722.70,-63,-135,-23
103564,10.474,-4.173,2.264,-1.402574,-0.458417,0.951569,99721.28,-59,-135,-27
103573,10.213,-3.946,2.506,-1.402042,-0.529187,1.003183,99722.16,-57,-136,-31
103583,10.503,-3.785,2.467,-1.358409,-0.624967,1.071293,99721.16,-54,-136,-35
103593,10.958,-3.785,2.809,-1.311583,-0.746820,1.152174,99721.63,-54,-136,-35
103603,11.388,-3.885,3.442,-1.249858,-0.885701,1.229330,99721.63,-49,-137,-39
103613,11.858,-3.851,4.329,-1.213143,-1.007554,1.325110,99719.28,-46,-137,-43
103623,12.420,-4.054,4.649,-1.181748,-1.111315,1.425146,99719.28,-40,-137,-47
103633,12.709,-4.362,4.225,-1.199308,-1.199113,1.544339,99720.66,-40,-137,-47
103644,13.030,-4.110,3.902,-1.292959,-1.280526,1.652357,99721.18,-35,-137,-50
103653,13.660,-3.646,3.737,-1.388207,-1.378434,1.768357,99719.77,-30,-138,-55
103663,14.278,-3.530,3.490,-1.466959,-1.463040,1.889678,99720.13,-23,-137,-59
103673,14.949,-3.465,3.337,-1.566996,-1.531682,2.005146,99720.13,-23,-137,-59
103684,15.788,-3.321,3.715,-1.730885,-1.571058,2.104651,99720.72,-15,-137,-66
103694,17.286,-2.530,4.743,-1.967674,-1.576379,2.182339,99717.92,-7,-137,-70
103703,19.764,-0.585,6.644,-2.231601,-1.567865,2.270669,99717.23,+0,-135,-77
103713,22.139,2.403,10.343,-2.368353,-1.602985,2.379219,99717.23,+0,-135,-77
103724,22.339,3.351,10.645,-2.103362,-1.774324,2.556412,99717.23,+9,-132,-84
103734,19.552,0.173,6.818,-1.645748,-2.100507,2.759146,99718.36,+19,-130,-88
103743,16.630,-6.856,6.620,-1.403638,-2.342617,2.879402,99719.41,+30,-128,-92
103753,17.245,-11.945,10.314,-1.233895,-2.375076,3.052870,99717.58,+30,-128,-92
103763,18.052,-10.298,9.280,-0.800225,-2.598562,3.141732,99713.39,+42,-127,-96
103773,15.014,-5.556,9.920,-0.389437,-2.566635,2.858118,99713.39,+52,-125,-96
103784,12.141,-1.564,10.001,-0.086134,-2.263333,2.385072,99718.70,+62,-123,-96
103793,11.154,0.226,8.246,0.207058,-1.878085,1.846045,99721.11,+62,-123,-96
103803,8.840,0.251,5.331,0.296453,-1.735480,1.558706,99719.02,+70,-124,-96
103814,4.744,-2.136,4.663,0.392765,-1.572122,1.453348,99719.02,+76,-124,-95
103824,0.300,-3.761,4.187,0.733315,-1.078857,0.920174,99721.97,+81,-123,-94
103833,-2.959,-4.545,5.487,0.586985,-0.574416,0.299734,99719.20,+81,-125,-93
103843,-0.845,-3.677,7.446,0.463535,-0.200875,-0.317513,99719.20,+81,-125,-93
103854,1.460,-1.644,5.726,0.087334,-0.002931,-0.932100,99716.78,+79,-125,-93
103864,1.956,2.129,4.229,-0.608134,0.034849,-1.509971,99716.53,+76,-125,-95
103873,1.788,4.539,2.200,-1.092354,0.041235,-1.892558,99716.53,+72,-123,-97
103883,1.294,4.235,1.115,-1.306794,0.199803,-2.076668,99719.72,+72,-123,-97
103894,0.916,3.817,1.351,-1.142904,0.398280,-2.324631,99715.75,+67,-121,-100
103904,0.662,3.137,0.935,-0.699125,0.657418,-2.555567,99716.73,+60,-120,-102
103914,0.943,1.882,1.746,-0.118593,0.995839,-2.743933,99715.80,+53,-121,-103
103923,1.836,0.886,2.694,0.546012,1.313509,-2.959970,99717.78,+53,-121,-103
103933,3.004,-0.112,3.733,1.147828,1.573178,-3.220704,99715.22,+44,-123,-101
103944,3.966,-1.452,4.603,1.444746,1.775912,-3.470795,99711.77,+32,-126,-98
103953,4.076,-1.528,4.565,1.353755,1.961619,-3.716098,99711.77,+21,-127,-96
103963,4.285,-0.417,3.757,1.246801,2.237783,-3.956079,99713.44,+21,-127,-96
103973,5.431,-0.180,4.226,1.474544,2.543747,-4.119969,99713.44,+7,-128,-92
103984,7.065,-1.280,4.769,1.927901,2.803416,-4.175841,99714.27,-5,-131,-88
103994,8.661,-2.667,5.032,2.325565,3.042866,-4.227810,99713.30,-21,-133,-81
104003,9.754,-3.385,5.089,2.544084,3.125875,-4.251400,99713.30,-21,-133,-81
104013,10.558,-3.843,4.250,2.763314,3.131196,-4.212025,99714.36,-35,-133,-73
104024,11.080,-4.740,3.604,3.140047,3.203031,-4.165199,99714.36,-50,-137,-65
104034,12.185,-5.823,3.899,3.433240,3.257306,-4.158281,99719.17,-66,-139,-55
104044,13.941,-6.776,4.572,3.497093,3.219526,-4.204043,99718.44,-66,-139,-55
104053,15.643,-8.310,5.198,3.491772,3.121086,-4.271089,99716.30,-82,-139,-44
104064,16.643,-10.392,5.439,3.620542,3.084902,-4.338666,99716.30,-97,-138,-31
104074,16.917,-12.360,5.429,3.685992,3.085967,-4.378043,99716.30,-113,-136,-19
104083,17.204,-14.007,3.988,3.513588,2.989655,-4.430190,99718.35,-113,-136,-19
104093,17.928,-15.406,1.563,3.077790,2.815655,-4.430190,99724.27,-129,-130,-6
104103,18.038,-17.130,-1.006,2.540359,2.644315,-4.295033,99718.20,-143,-124,+5
104114,16.967,-18.739,-1.523,1.985901,2.458609,-3.970446,99717.79,-156,-116,+14
104123,14.941,-19.560,-0.624,1.507002,2.202664,-3.454832,99717.79,-156,-116,+14
104133,12.782,-21.769,-1.011,1.131865,1.893509,-2.817897,99719.49,-166,-108,+24
104143,10.385,-26.552,-2.764,0.749278,1.592334,-2.152760,99719.23,-173,-102,+31
104154,8.500,-28.682,-6.144,-0.033455,1.322023,-1.423237,99720.04,-177,-98,+34
104164,8.346,-26.810,-8.401,-0.960923,1.045326,-0.561751,99720.04,-177,-98,+34
104174,9.743,-23.339,-7.619,-1.581895,0.644647,0.358798,99721.96,-179,-98,+36
104183,12.242,-19.449,-4.860,-1.650005,0.068904,1.170266,99722.85,-178,-100,+35
104194,12.512,-16.067,-3.304,-1.091822,-0.562178,1.924797,99722.85,-175,-108,+32
104204,14.000,-6.806,-1.989,-0.636868,-1.274673,2.507990,99722.32,-175,-108,+32
104213,26.975,30.452,15.025,0.348067,-1.560416,1.625220,99718.87,-171,-115,+28
104223,38.246,37.247,3.266,0.162893,-0.859627,0.449257,99718.87,-172,-114,+29
104229,25.503,0.879,-19.528,-2.143803,-1.815297,2.954962,99723.21,-172,-114,+29
104239,9.987,-12.642,-5.758,0.323590,-2.042507,4.029292,99725.26,-165,-125,+22
104249,5.980,-23.494,5.793,4.059001,-1.818489,3.724393,99718.91,-157,-134,+27
104258,10.735,-16.576,1.652,3.178891,-1.389609,3.447696,99716.24,-150,-142,+31
104268,9.458,-0.550,-3.336,1.848617,-1.128875,3.374797,99716.24,-150,-142,+31
104279,3.342,-0.278,6.303,2.229075,-0.710637,3.229531,99722.90,-142,-150,+35
104289,1.467,-10.929,11.160,2.527057,-1.026710,2.789476,99716.40,-136,-156,+39
104299,7.026,-20.435,5.044,1.425058,-1.473150,2.260559,99719.34,-130,-162,+39
104308,6.617,-13.730,-1.760,-0.828427,-1.234765,1.547532,99719.45,-130,-162,+39
104318,8.777,-6.099,1.034,-2.557252,-0.455224,1.119715,99719.45,-126,-164,+32
104329,9.574,-4.352,2.891,-3.207490,-0.469059,0.997862,99719.50,-124,-166,+24
104339,8.203,-3.518,1.584,-3.185674,-0.325921,0.902615,99722.42,-121,-168,+14
104348,8.290,-0.749,-0.173,-2.590243,0.003987,0.845679,99720.23,-121,-168,+14
104358,10.247,3.366,1.356,-1.518574,0.100299,0.931349,99719.34,-118,-170,+9
104369,10.042,1.585,3.326,-0.160097,-0.096050,1.105348,99719.34,-115,-172,+9
104379,8.524,-3.456,3.143,0.552398,-0.228013,1.224009,99720.26,-112,-174,+10
104388,8.140,-5.164,2.447,0.628489,-0.196619,1.136743,99720.41,-112,-174,+10
104398,8.335,-4.813,2.470,0.340618,-0.091261,1.038303,99720.84,-110,-176,+11
104409,8.135,-5.612,3.322,-0.020685,0.022611,0.922303,99717.85,-106,-178,+12
104419,7.012,-7.541,5.305,-0.516611,0.122115,0.689239,99717.85,-105,-179,+10
104429,6.549,-7.125,6.060,-1.092886,0.248757,0.364652,99722.05,-105,-179,+10
104438,6.957,-5.896,5.080,-1.521766,0.366354,0.191716,99721.96,-104,-180,+7
104449,8.068,-3.485,3.814,-1.777711,0.408390,0.167771,99720.34,-104,-180,+3
104459,9.766,-0.118,2.432,-1.601051,0.330170,0.228964,99717.35,-102,-179,+0
104464,10.970,1.133,1.836,-1.153014,0.201400,0.341239,99717.35,-102,-179,+0
104473,11.067,-0.211,1.943,-0.561308,0.040170,0.485441,99717.35,-101,-181,-1
104483,9.465,-3.628,2.635,-0.116464,-0.099775,0.632835,99724.44,-99,-180,-1
104494,8.559,-5.462,3.781,-0.233529,-0.085408,0.619532,99721.56,-99,-180,-1
104504,8.299,-5.743,4.737,-0.591638,-0.021022,0.556211,99720.39,-98,-181,-2
104514,7.996,-5.066,5.053,-0.833748,0.005051,0.494486,99720.39,-97,-182,-5
104524,7.813,-4.419,4.740,-0.956134,-0.014105,0.472138,99724.59,-95,-182,-8
104534,8.251,-3.562,4.263,-1.027968,-0.050288,0.505661,99721.02,-95,-182,-8
104544,8.603,-3.257,3.557,-0.999767,-0.098710,0.580688,99721.02,-93,-183,-11
104554,8.680,-3.356,3.095,-0.969436,-0.140747,0.670615,99720.87,-91,-183,-14
104563,8.722,-3.664,2.932,-0.963583,-0.190233,0.746174,99720.98,-89,-183,-16
104573,8.917,-4.058,2.966,-0.966244,-0.235463,0.793000,99720.98,-89,-183,-16
104584,9.198,-4.510,2.729,-0.955069,-0.259940,0.831312,99722.09,-85,-185,-19
104594,9.596,-4.923,2.188,-0.947088,-0.256747,0.858982,99722.45,-83,-184,-23
104604,9.950,-5.115,1.471,-0.991785,-0.252490,0.870156,99722.71,-80,-184,-26
104613,10.140,-4.993,1.650,-1.066280,-0.265793,0.879202,99720.68,-80,-184,-26
104624,10.352,-4.735,2.095,-1.106721,-0.299848,0.903147,99722.60,-77,-185,-29
104634,10.752,-4.581,2.750,-1.139179,-0.361573,0.935605,99720.62,-74,-185,-32
104644,10.897,-4.417,2.990,-1.141308,-0.447774,0.990945,99719.52,-71,-185,-37
104654,11.135,-4.308,3.016,-1.177491,-0.540894,1.071293,99719.73,-71,-185,-37
104664,11.342,-4.255,3.520,-1.215271,-0.657958,1.152706,99719.73,-67,-185,-40
104674,11.407,-4.003,4.407,-1.241344,-0.783004,1.247954,99719.73,-62,-185,-44
104684,12.099,-4.157,4.935,-1.251454,-0.889958,1.362890,99720.89,-57,-185,-49
104693,12.859,-4.345,4.667,-1.276996,-0.994783,1.490064,99721.61,-57,-185,-49
104704,13.212,-4.592,3.898,-1.370647,-1.070875,1.615642,99721.41,-51,-185,-54
104714,13.659,-4.544,2.963,-1.532408,-1.118233,1.728449,99719.05,-46,-183,-58
104724,14.510,-3.876,2.399,-1.704812,-1.174104,1.811990,99719.05,-37,-182,-64
104734,15.202,-3.282,2.474,-1.834115,-1.242746,1.908834,99720.63,-37,-182,-64
104743,15.730,-3.043,3.143,-1.938408,-1.285315,1.998229,99720.48,-30,-180,-71
104754,16.862,-2.249,5.040,-2.098573,-1.277333,2.077513,99719.74,-24,-178,-78
104764,18.866,-0.808,7.132,-2.342280,-1.253389,2.162118,99719.74,-15,-174,-85
104774,20.766,1.597,10.801,-2.524793,-1.287444,2.253641,99719.74,-15,-174,-85
104783,21.236,3.327,12.487,-2.381124,-1.384288,2.440412,99720.63,-7,-170,-91
104794,19.578,1.687,9.929,-2.052812,-1.574251,2.648999,99720.16,+1,-166,-98
104804,18.058,-3.080,8.794,-1.767601,-1.730159,2.824595,99717.87,+12,-162,-102
104814,15.907,-10.292,7.423,-1.445143,-2.040379,2.928889,99719.38,+23,-158,-105
104823,16.356,-13.249,6.878,-1.416409,-2.172342,2.959219,99719.38,+23,-158,-105
104834,15.332,-9.502,7.694,-1.381289,-2.179792,2.867696,99720.68,+33,-152,-108
104844,13.479,-4.526,8.988,-1.126941,-1.877553,2.449458,99718.27,+43,-147,-109
104854,12.560,-0.786,9.699,-0.808739,-1.566801,2.012596,99716.02,+49,-143,-109
104864,10.383,2.218,7.102,-0.389969,-1.316710,1.581587,99716.88,+49,-143,-109
104873,5.502,1.043,3.391,-0.279290,-1.049058,1.393220,99721.01,+55,-139,-108
104884,1.400,-2.202,3.715,-0.170740,-0.682435,1.265513,99717.46,+59,-133,-108
104894,-1.746,-6.093,2.799,-0.167015,-0.377536,0.937202,99717.46,+61,-130,-107
104904,-1.352,-5.814,5.189,-0.021749,-0.303041,0.498743,99717.66,+61,-130,-107
104913,0.923,-4.490,4.356,0.411388,-0.345077,-0.236632,99716.51,+62,-126,-105
104924,2.114,-3.186,3.138,0.374673,-0.158839,-0.833659,99716.51,+61,-123,-103
104934,2.697,-0.588,2.863,-0.103694,0.204060,-1.158779,99717.63,+60,-120,-103
104944,2.566,3.094,1.256,-0.667198,0.367950,-1.531255,99720.26,+60,-120,-103
104954,2.053,5.126,0.397,-1.050849,0.439253,-1.872338,99717.48,+57,-114,-104
104964,1.074,5.489,0.686,-1.035950,0.591436,-2.119769,99717.85,+54,-109,-106
104974,0.717,4.371,0.761,-0.562904,0.827161,-2.302282,99718.87,+50,-105,-106
104984,1.485,2.330,1.298,0.182049,1.229436,-2.531622,99717.35,+50,-105,-106
104994,2.541,0.637,2.447,0.785994,1.606701,-2.757236,99715.99,+43,-102,-105
105004,3.202,-0.708,3.279,1.064819,1.864242,-2.937089,99715.46,+38,-102,-103
105014,3.842,-1.176,3.352,1.087700,2.053674,-3.139823,99715.46,+31,-101,-103
105024,4.096,-0.751,3.296,1.062691,2.285141,-3.371291,99715.46,+31,-101,-103
105034,5.128,0.756,3.058,1.181351,2.483618,-3.632557,99714.73,+25,-100,-100
105043,6.599,1.730,2.280,1.563406,2.635269,-3.831566,99714.69,+17,-100,-99
105050,7.400,0.903,2.446,1.891718,2.767233,-3.922024,99714.84,+17,-100,-99
105059,8.071,-0.672,2.599,2.185974,2.863013,-4.003970,99713.00,+8,-103,-98
105069,8.621,-2.207,2.251,2.420103,2.948682,-4.145511,99713.00,+0,-106,-95
105079,9.316,-2.687,2.129,2.550470,3.021581,-4.281199,99716.96,-9,-109,-91
105089,10.128,-3.060,2.259,2.692543,3.076921,-4.387621,99716.02,-9,-109,-91
105099,11.108,-3.967,2.840,2.887295,3.105654,-4.483932,99715.45,-21,-114,-86
105109,12.432,-5.524,3.288,3.062891,3.085434,-4.604722,99713.82,-34,-118,-81
105119,13.922,-7.279,3.980,3.154946,3.082774,-4.726043,99713.82,-47,-123,-73
105128,15.454,-9.205,4.402,3.225717,3.106719,-4.822354,99716.26,-47,-123,-73
105139,16.678,-11.257,4.800,3.261368,3.101930,-4.889932,99718.71,-65,-127,-67
105149,18.129,-13.473,4.306,3.206029,3.064150,-4.905364,99718.87,-81,-128,-57
105159,19.363,-16.260,2.632,3.043735,2.982737,-4.813309,99718.04,-99,-129,-47
105168,19.957,-18.206,0.160,2.833020,2.850242,-4.629199,99718.04,-99,-129,-47
105179,19.419,-19.396,-1.719,2.592506,2.660811,-4.332281,99719.66,-115,-127,-38
105189,17.383,-20.745,-1.714,2.256213,2.393160,-3.856043,99717.04,-131,-122,-27
105199,14.446,-21.598,-1.470,1.678874,2.018554,-3.194098,99719.35,-142,-118,-19
105209,11.563,-25.449,-2.727,1.159003,1.577435,-2.471493,99716.84,-142,-118,-19
105219,8.581,-28.772,-4.838,0.553994,1.239014,-1.761659,99716.84,-150,-115,-14
105229,6.626,-27.698,-6.704,-0.327180,0.960188,-0.958173,99722.72,-155,-113,-12
105239,8.059,-23.945,-6.284,-1.075326,0.648372,-0.057311,99721.42,-157,-114,-13
105249,10.328,-19.993,-3.697,-1.380225,0.257803,0.775440,99719.22,-157,-114,-13
105259,10.951,-15.887,-3.567,-1.287638,-0.340820,1.600743,99720.73,-156,-116,-14
105269,13.927,-5.979,-1.284,-0.945491,-1.024049,2.240871,99720.73,-151,-121,-19
105279,28.469,29.550,11.387,0.172471,-1.647682,1.620431,99718.49,-148,-126,-21
105284,37.491,43.553,7.594,0.827498,-1.172508,0.311441,99718.65,-148,-126,-21
105294,30.510,9.288,-11.961,-0.981675,-1.486985,2.432430,99718.65,-143,-131,-26
105305,9.214,-16.965,-3.021,1.008948,-1.924911,4.122943,99724.24,-134,-143,-23
105314,7.142,-24.016,3.470,4.106891,-1.757829,3.655751,99722.26,-134,-143,-23
105324,11.050,-11.906,0.637,2.823974,-1.396526,3.455145,99722.26,-125,-153,-18
105334,8.628,2.221,-0.264,2.119993,-0.997444,3.481751,99721.35,-115,-162,-14
105345,0.690,0.232,10.098,2.676579,-0.712233,3.349787,99717.95,-107,-170,-7
105354,0.142,-12.755,10.859,2.947423,-1.151224,2.845880,99716.54,-107,-170,-7
105364,7.640,-21.611,5.616,1.518709,-1.630654,2.190852,99716.54,-101,-176,-3
105374,7.745,-16.336,-3.270,-1.201436,-1.526893,1.574669,99716.54,-95,-178,-8
105384,9.009,-7.116,0.492,-3.268151,-0.435004,1.128761,99724.34,-91,-178,-19
105394,8.909,-3.227,1.988,-3.892848,-0.257279,0.972853,99723.36,-91,-178,-19
105404,8.627,-1.604,-0.489,-3.196848,-0.026343,0.825459,99720.06,-87,-178,-30
105414,10.472,1.395,-0.829,-2.146995,0.142335,0.803642,99718.33,-86,-176,-35
105424,10.079,3.437,2.893,-0.891216,-0.033793,0.932945,99718.33,-83,-177,-36
105435,9.044,-0.882,2.808,0.392233,-0.267921,1.050009,99721.77,-83,-177,-36
105444,9.158,-3.576,1.508,0.914232,-0.348802,1.061715,99719.59,-79,-180,-34
105454,8.737,-4.807,2.071,0.792911,-0.263664,1.031917,99720.03,-75,-182,-32
105464,7.604,-6.646,4.577,0.337957,-0.149261,0.895697,99720.03,-72,-184,-32
105475,6.326,-8.711,6.144,-0.335694,-0.055609,0.612083,99723.81,-72,-184,-32
105484,6.574,-7.011,5.914,-1.107785,0.119987,0.267808,99723.81,-72,-183,-34
105494,7.260,-4.848,4.755,-1.593069,0.262592,0.120945,99719.16,-73,-183,-39
105504,8.403,-2.127,3.112,-1.710665,0.306757,0.129991,99718.58,-71,-181,-42
105515,10.327,1.019,1.583,-1.342445,0.241840,0.240670,99720.20,-71,-181,-42
105520,11.688,1.392,1.491,-0.743290,0.108812,0.378487,99720.20,-70,-180,-45
105529,10.696,-1.404,1.818,-0.173400,-0.067848,0.530670,99723.27,-69,-180,-45
105539,9.025,-4.315,2.937,0.023480,-0.130637,0.622725,99721.59,-69,-181,-45
105549,8.254,-5.509,4.147,-0.263327,-0.044435,0.596652,99722.53,-68,-181,-45
105560,8.366,-6.183,4.749,-0.708703,0.067308,0.514175,99718.66,-65,-182,-47
105569,8.759,-4.614,5.089,-1.075858,0.094445,0.472138,99718.66,-64,-181,-50
105579,8.712,-2.862,5.380,-1.154078,0.017290,0.479055,99721.80,-64,-181,-50
105589,8.563,-2.273,4.224,-0.992849,-0.105628,0.546101,99719.60,-62,-180,-54
105600,9.043,-2.800,3.182,-0.808207,-0.195554,0.650927,99721.16,-59,-180,-55
105609,9.269,-3.454,2.866,-0.744354,-0.267921,0.746174,99719.87,-58,-180,-58
105619,9.474,-3.864,2.875,-0.777345,-0.275903,0.816945,99719.87,-58,-180,-58
105629,10.021,-4.007,2.331,-0.850244,-0.265793,0.860578,99724.17,-55,-181,-60
105639,10.490,-4.484,1.697,-0.892280,-0.266857,0.879202,99722.81,-52,-181,-63
105649,10.753,-4.581,0.908,-0.909840,-0.260472,0.894101,99719.27,-48,-180,-66
105659,10.635,-4.641,0.551,-0.960923,-0.258343,0.898358,99721.67,-48,-180,-66
105669,10.520,-4.601,1.168,-1.019987,-0.277499,0.887716,99721.67,-46,-179,-68
105679,10.589,-4.116,2.419,-1.037014,-0.346141,0.887716,99722.78,-42,-180,-72
105690,10.154,-3.724,3.170,-0.969968,-0.448306,0.934009,99721.11,-39,-178,-75
105699,9.512,-3.948,3.236,-0.896005,-0.543554,1.014890,99721.84,-39,-178,-75
105709,9.257,-4.291,3.321,-0.903987,-0.636673,1.081936,99720.00,-35,-177,-78
105719,9.705,-4.809,3.567,-1.004556,-0.702123,1.143128,99720.00,-30,-177,-81
105730,10.370,-4.601,3.795,-1.139711,-0.771297,1.208046,99721.55,-26,-176,-85
105739,11.139,-3.999,4.037,-1.272739,-0.842068,1.305954,99718.31,-26,-176,-85
105749,11.768,-4.004,3.891,-1.354684,-0.913370,1.409715,99721.50,-20,-174,-89
105759,12.446,-3.552,3.622,-1.417473,-1.010746,1.519330,99718.47,-12,-173,-93
105769,12.918,-3.102,3.216,-1.456849,-1.117168,1.659275,99718.47,-7,-171,-98
105780,13.325,-3.478,2.506,-1.424390,-1.224123,1.776339,99717.85,-7,-171,-98
105789,13.608,-3.981,2.486,-1.461106,-1.289040,1.870522,99718.59,+0,-168,-103
105799,13.880,-4.373,2.997,-1.631913,-1.288508,1.948210,99719.90,+8,-167,-106
105809,14.718,-4.041,4.296,-1.892115,-1.232636,1.991843,99721.10,+15,-163,-113
105820,15.666,-2.932,5.931,-2.250225,-1.145902,2.040265,99721.10,+15,-163,-113
105829,17.380,-1.012,7.286,-2.596628,-1.089499,2.109972,99721.18,+23,-158,-118
105839,19.612,0.967,10.366,-2.770096,-1.110783,2.184467,99717.30,+31,-152,-126
105849,20.864,1.813,11.119,-2.640793,-1.225187,2.320687,99720.55,+39,-146,-132
105860,19.005,-0.274,9.351,-2.388041,-1.428985,2.499476,99717.73,+39,-146,-132
105869,16.796,-5.152,7.475,-1.975656,-1.678544,2.661770,99717.73,+49,-141,-137
105879,14.788,-11.504,6.391,-1.580298,-1.960030,2.797990,99721.41,+60,-137,-139
105889,15.320,-12.576,6.245,-1.430776,-2.060067,2.817146,99719.73,+71,-132,-142
105900,13.890,-7.851,6.978,-1.264225,-2.036122,2.643146,99718.22,+71,-132,-142
105909,11.707,-3.069,7.683,-0.968904,-1.808911,2.181807,99715.28,+81,-128,-142
105919,10.118,-0.831,7.530,-0.563437,-1.544453,1.684284,99715.28,+88,-125,-143
105929,7.474,-0.457,4.449,-0.277694,-1.351829,1.378321,99719.20,+94,-123,-142
105939,3.070,-3.077,2.680,-0.280354,-1.162930,1.402798,99721.23,+94,-123,-142
105950,-0.660,-5.768,1.455,-0.078153,-0.748948,1.226137,99720.35,+99,-122,-142
105959,-1.833,-5.877,3.127,-0.133492,-0.368490,0.802046,99718.93,+101,-121,-141
105969,0.680,-4.394,5.010,0.088398,-0.169481,0.206615,99718.93,+101,-123,-140
105979,2.666,-2.115,4.685,-0.037712,-0.061995,-0.407972,99720.10,+101,-123,-140
105990,2.733,1.623,2.548,-0.711363,-0.065010,-1.142638,99717.90,+99,-121,-140
105999,2.439,3.610,1.427,-1.280721,0.015161,-1.556265,99717.74,+95,-121,-142
106009,1.953,4.806,-0.112,-1.507399,0.132225,-1.780815,99717.48,+90,-118,-145
106019,1.145,4.974,-0.480,-1.205693,0.329106,-1.939916,99717.48,+84,-118,-145
106030,1.273,4.334,0.636,-0.445840,0.677638,-2.085714,99721.66,+84,-117,-147
106040,2.111,2.741,1.897,0.437462,0.988390,-2.263438,99718.20,+76,-117,-147
106049,2.642,0.679,2.662,1.053645,1.209215,-2.463512,99714.69,+67,-121,-145
106059,2.715,-1.152,3.221,1.285645,1.442279,-2.658264,99714.22,+57,-125,-141
106070,2.371,-1.346,3.120,1.251590,1.718976,-2.914209,99714.22,+57,-125,-141
106080,3.046,-0.020,3.531,1.252654,2.042499,-3.229218,99718.34,+44,-128,-138
106089,4.903,1.309,3.326,1.542654,2.304297,-3.489951,99718.50,+30,-132,-134
106099,6.073,0.679,3.401,1.935883,2.529380,-3.657034,99712.42,+15,-135,-129
106109,6.765,-1.304,3.607,2.210984,2.725196,-3.787401,99715.63,+15,-135,-129
106120,7.576,-2.628,3.094,2.266323,2.888554,-3.934795,99715.63,+0,-139,-122
106129,8.624,-2.979,2.732,2.253020,3.055104,-4.072612,99719.14,-17,-141,-115
106139,9.611,-2.768,1.892,2.354121,3.162590,-4.162538,99715.58,-35,-143,-107
106149,10.550,-2.749,1.905,2.546745,3.229636,-4.196593,99717.31,-35,-143,-107
106160,11.989,-3.286,2.556,2.712231,3.196113,-4.207235,99713.48,-51,-143,-98
106169,13.388,-5.464,3.185,2.855901,3.055104,-4.219474,99713.48,-67,-143,-88
106179,14.561,-8.167,3.843,2.967112,2.969967,-4.316850,99716.41,-83,-143,-77
106189,15.317,-9.518,4.425,2.955405,2.979012,-4.423804,99716.20,-83,-143,-77
106200,15.530,-10.277,4.897,2.908047,3.066811,-4.436043,99715.73,-99,-139,-66
106210,15.821,-11.806,5.216,2.925607,3.197710,-4.335474,99716.52,-115,-135,-54
106219,16.751,-14.250,4.130,2.963387,3.289764,-4.166263,99716.52,-130,-129,-42
106225,17.564,-16.177,2.377,2.952744,3.299342,-4.006098,99718.22,-130,-129,-42
106234,17.956,-17.440,0.215,2.883570,3.213141,-3.839015,99718.22,-143,-123,-28
106245,18.131,-18.817,-3.116,2.668066,2.903985,-3.579346,99719.89,-152,-116,-18
106255,17.225,-20.479,-4.899,2.257809,2.410187,-3.180264,99721.78,-152,-116,-18
106264,14.618,-21.675,-4.882,1.744856,1.817417,-2.590154,99717.84,-159,-110,-9
106274,11.032,-23.976,-4.546,1.452195,1.275729,-1.923952,99720.59,-165,-104,-4
106285,8.672,-26.464,-4.717,1.090893,0.891014,-1.300852,99722.62,-167,-101,+0
106295,7.708,-26.368,-4.830,0.440654,0.619106,-0.593146,99721.84,-167,-101,+0
106304,7.822,-23.402,-5.953,-0.145730,0.307822,0.332193,99721.84,-166,-101,+0
106314,10.005,-18.636,-5.111,-0.406464,-0.109353,1.219220,99722.99,-165,-102,+0
106324,14.664,-8.672,-3.198,-0.282483,-0.703719,1.876375,99722.99,-161,-109,-1
106335,29.290,24.806,6.662,0.501847,-1.469957,1.346926,99721.76,-161,-109,-1
106344,31.395,25.233,2.115,0.328379,-1.169315,0.932945,99715.43,-159,-110,-4
106354,16.435,-5.258,-4.613,-0.667198,-1.260306,3.262522,99723.23,-152,-118,-8
106364,6.040,-21.672,-1.376,1.797534,-1.267223,3.232191,99720.66,-143,-127,-6
106375,11.739,-17.481,1.365,2.672855,-1.198581,3.381714,99720.66,-143,-127,-6
106385,13.258,-1.766,-1.596,1.755498,-1.133132,3.049145,99721.30,-136,-135,-3
106395,6.621,5.025,1.143,1.852342,-0.706380,3.053935,99717.21,-128,-143,+0
106404,-0.090,-2.115,11.353,2.684029,-0.665407,3.028393,99714.02,-120,-151,+4
106415,3.428,-14.723,12.098,2.841534,-1.161866,2.502137,99714.02,-120,-151,+4
106425,6.864,-16.868,1.917,1.311718,-1.740269,1.740687,99714.02,-113,-156,+7
106434,8.334,-13.115,-3.235,-1.238152,-1.104398,1.352247,99721.19,-110,-159,+2
106444,10.909,-7.631,2.028,-2.857894,-0.396692,1.017018,99720.81,-107,-158,-6
106455,9.454,-3.825,1.460,-3.150022,-0.264196,0.824395,99719.92,-107,-158,-6
106460,8.695,-1.508,1.017,-2.772756,-0.000802,0.771184,99718.61,-105,-159,-13
106470,9.002,0.612,1.386,-2.163491,0.154042,0.744046,99718.61,-105,-159,-13
106479,9.366,3.943,2.524,-1.152482,0.057730,0.792468,99720.98,-102,-159,-17
106489,8.456,1.582,3.252,0.078288,-0.175866,0.898358,99719.73,-101,-160,-19
106500,9.006,-2.923,2.058,0.851975,-0.308362,0.938798,99719.31,-97,-163,-16
106510,9.335,-5.184,1.431,0.922746,-0.298784,0.913257,99718.16,-96,-165,-15
106519,8.468,-6.003,3.419,0.569425,-0.158307,0.774908,99718.16,-96,-165,-15
106529,6.818,-7.807,5.016,0.002728,-0.044967,0.533863,99723.31,-94,-166,-14
106540,6.457,-7.301,4.921,-0.761381,0.134354,0.231092,99718.39,-94,-167,-16
106550,7.513,-5.080,3.478,-1.315308,0.281216,0.052835,99719.38,-92,-166,-19
106560,8.685,-2.031,2.613,-1.418537,0.316867,0.033679,99720.48,-92,-166,-19
106569,9.735,0.373,2.578,-1.027436,0.268977,0.109239,99720.48,-93,-165,-22
106579,10.138,-0.469,2.888,-0.450629,0.150317,0.230560,99720.23,-92,-165,-22
106590,9.543,-2.776,3.151,-0.108483,0.056666,0.330597,99721.75,-92,-166,-24
106600,8.885,-3.701,3.780,-0.149987,0.061455,0.379019,99721.66,-92,-166,-24
106609,8.441,-4.307,4.357,-0.400079,0.094978,0.396578,99718.61,-90,-166,-22
106619,8.266,-4.271,4.022,-0.722537,0.096042,0.405624,99718.61,-89,-166,-25
106630,8.785,-2.630,4.648,-0.969436,0.062519,0.419991,99721.20,-88,-166,-28
106640,9.246,-0.910,4.806,-0.909840,-0.090197,0.493954,99723.45,-88,-166,-28
106649,9.420,-0.735,3.848,-0.594299,-0.262600,0.631239,99718.95,-86,-166,-30
106659,9.267,-2.061,2.887,-0.303767,-0.412123,0.775440,99719.06,-83,-167,-32
106670,9.235,-3.053,2.818,-0.235657,-0.485022,0.891972,99719.06,-80,-169,-32
106680,8.925,-3.246,3.094,-0.309620,-0.508967,0.972321,99721.16,-80,-169,-32
106690,8.640,-2.803,4.223,-0.409657,-0.494068,1.042560,99719.64,-77,-170,-34
106695,8.743,-2.861,4.163,-0.424024,-0.505242,1.084064,99718.28,-74,-170,-36
106704,8.876,-3.069,3.901,-0.412850,-0.513756,1.128229,99718.28,-74,-170,-36
106715,8.846,-4.267,3.452,-0.378795,-0.517481,1.150578,99718.48,-70,-171,-37
106725,8.601,-5.600,2.893,-0.429877,-0.504710,1.115458,99718.48,-67,-174,-39
106735,8.356,-6.032,2.305,-0.608134,-0.449371,1.043624,99721.67,-63,-174,-42
106744,8.630,-5.534,2.504,-0.786923,-0.386582,0.947312,99721.20,-63,-174,-42
106755,8.712,-4.865,3.145,-0.803950,-0.390839,0.861110,99716.55,-59,-174,-45
106765,8.417,-4.752,2.862,-0.704446,-0.397756,0.827055,99716.55,-56,-174,-47
106775,8.469,-5.643,2.131,-0.640060,-0.379664,0.782890,99716.55,-55,-175,-49
106784,8.766,-5.935,1.980,-0.691143,-0.362105,0.733404,99718.91,-55,-175,-49
106795,8.946,-5.904,2.469,-0.840134,-0.339224,0.699881,99722.79,-51,-174,-51
106805,8.949,-5.061,2.719,-0.985932,-0.328050,0.708927,99720.80,-49,-174,-54
106815,8.965,-3.873,2.981,-1.076390,-0.354123,0.765330,99721.16,-46,-173,-58
106824,9.280,-3.769,3.483,-1.093950,-0.406802,0.858450,99721.16,-46,-173,-58
106834,9.926,-4.416,2.969,-1.082776,-0.459481,0.957954,99722.74,-42,-173,-62
106845,10.491,-4.833,2.499,-1.157271,-0.491939,1.060119,99722.95,-39,-173,-65
106855,10.841,-5.438,2.161,-1.287638,-0.512692,1.126633,99718.90,-34,-171,-68
106865,11.243,-5.341,2.177,-1.457381,-0.522270,1.170798,99718.90,-34,-171,-68
106874,11.813,-4.274,2.087,-1.596262,-0.569627,1.240504,99721.65,-29,-170,-73
106885,12.268,-4.059,1.348,-1.527619,-0.649976,1.326706,99722.96,-25,-170,-78
106895,12.283,-4.414,0.521,-1.402042,-0.737242,1.410247,99722.96,-19,-168,-83
106905,12.398,-4.389,0.622,-1.377032,-0.819187,1.484743,99720.29,-19,-168,-83
106914,12.424,-4.428,1.292,-1.373308,-0.884636,1.558174,99719.66,-13,-166,-85
106925,12.550,-4.147,2.547,-1.374372,-0.945829,1.637990,99719.66,-7,-164,-91
106935,13.022,-4.207,3.439,-1.387675,-0.995315,1.737495,99721.52,+0,-164,-95
106945,13.288,-5.063,3.903,-1.453656,-1.004893,1.806137,99721.16,+0,-164,-95
106955,13.642,-5.288,4.254,-1.668629,-0.971370,1.867330,99719.95,+7,-161,-99
106964,15.048,-4.377,4.803,-2.015032,-0.929334,1.908302,99719.33,+15,-158,-105
106975,18.332,-2.141,7.351,-2.353454,-0.946893,1.951935,99720.79,+22,-153,-111
106985,20.598,-0.538,10.242,-2.495527,-1.010214,2.082834,99719.95,+22,-153,-111
106995,19.606,-0.533,9.274,-2.414647,-1.179425,2.365384,99720.01,+31,-149,-117
107004,18.970,-1.505,9.804,-2.167748,-1.342251,2.685182,99720.01,+41,-143,-122
107015,19.590,-6.483,6.673,-1.798995,-1.641297,3.050210,99719.79,+53,-139,-127
107025,20.507,-11.522,6.750,-1.598922,-1.875425,3.240173,99719.79,+53,-139,-127
107035,19.352,-8.127,7.381,-1.624996,-2.016966,2.982100,99720.52,+64,-133,-130
107045,14.947,-1.779,8.650,-1.504561,-1.972091,2.708773,99719.16,+77,-129,-133
107055,11.651,0.325,8.957,-0.981675,-1.917994,2.432962,99719.16,+87,-124,-135
107065,8.557,0.680,6.687,-0.434134,-1.788159,1.986522,99718.23,+87,-124,-135
107075,5.794,0.112,5.287,0.153315,-1.647682,1.638522,99718.23,+95,-123,-134
107085,2.813,-3.226,0.858,0.515682,-1.574783,1.470376,99719.49,+102,-121,-132
107095,-0.798,-5.165,2.777,0.489609,-1.209756,1.167605,99718.65,+107,-122,-131
107105,-2.630,-6.515,0.234,0.735975,-0.909646,0.656780,99716.24,+107,-122,-131
107115,-0.182,-6.278,0.461,0.706709,-0.439261,0.400303,99716.24,+110,-123,-128
107125,2.825,-1.201,2.492,0.454489,-0.075298,-0.162137,99716.24,+110,-125,-126
107134,2.680,3.666,2.368,0.039444,-0.330178,-1.140155,99720.05,+108,-125,-128
107145,1.731,4.532,1.577,-0.090923,-0.455224,-1.706852,99716.55,+108,-125,-128
107155,1.167,4.493,0.006,0.072435,-0.419040,-2.012815,99718.38,+104,-127,-126
107165,0.684,3.283,0.161,0.510361,-0.094453,-2.190539,99716.60,+98,-129,-127
107174,0.596,0.459,1.697,1.075461,0.279620,-2.204374,99716.60,+92,-133,-125
107185,0.384,-2.590,1.967,1.495296,0.473840,-2.299090,99719.34,+85,-133,-121
107195,0.240,-4.727,2.316,1.744323,0.643583,-2.572062,99716.88,+85,-138,-121
107205,1.131,-4.131,3.254,1.833186,0.885161,-3.044043,99715.47,+76,-143,-117
107215,2.910,-1.669,3.921,1.657590,1.191124,-3.453768,99715.47,+63,-148,-114
107225,4.911,0.326,4.427,1.355883,1.510389,-3.717694,99716.48,+51,-151,-111
107235,7.892,0.199,2.099,1.135590,1.726958,-3.790593,99715.43,+51,-151,-111
107245,9.563,-2.217,-1.413,0.894544,1.823270,-3.718226,99715.43,+36,-152,-109
107255,8.223,-6.052,-1.977,0.572618,1.881802,-3.662887,99716.95,+22,-153,-108
107265,7.355,-7.576,-0.518,0.379462,1.887655,-3.809749,99713.70,+7,-152,-106
107275,8.081,-6.363,0.439,0.246967,1.983435,-4.053988,99713.70,+7,-152,-106
107280,9.557,-4.958,0.667,0.277297,2.096774,-4.135933,99719.48,-7,-151,-104
107290,10.191,-4.775,0.618,0.490673,2.176591,-4.054520,99717.07,-7,-151,-104
107300,9.950,-5.983,0.391,0.906251,2.215967,-3.864024,99716.34,-23,-148,-101
107310,10.048,-6.283,0.771,1.333003,2.216499,-3.725144,99715.04,-36,-145,-97
107320,11.189,-5.961,0.810,1.795938,2.138279,-3.630960,99715.04,-49,-145,-90
107330,12.296,-6.011,0.159,2.273772,2.016426,-3.571896,99717.22,-49,-145,-90
107340,12.721,-6.047,-0.243,2.646781,1.890316,-3.538905,99719.42,-61,-145,-82
107350,12.831,-6.120,-0.006,2.878249,1.742921,-3.557529,99716.22,-72,-143,-74
107360,13.021,-6.143,0.789,2.964451,1.585949,-3.620318,99718.53,-83,-143,-65
107370,13.189,-6.126,1.579,2.961790,1.436426,-3.674593,99718.53,-83,-143,-65
107380,13.448,-6.198,2.471,2.911772,1.337454,-3.701199,99721.21,-94,-139,-56
107389,13.508,-6.514,3.190,2.855368,1.287968,-3.668740,99719.23,-103,-136,-48
107401,13.674,-7.137,3.931,2.862641,1.268457,-3.579700,99718.38,-113,-133,-40
107410,13.815,-7.710,4.034,2.908047,1.269876,-3.487823,99719.32,-113,-133,-40
107420,13.596,-9.558,3.332,2.910176,1.263491,-3.338832,99719.32,-122,-129,-31
107430,13.011,-11.194,2.834,2.835148,1.270408,-3.189309,99718.31,-131,-125,-23
107440,12.289,-12.247,2.402,2.680304,1.288500,-3.042447,99718.47,-138,-120,-14
107450,11.955,-12.634,1.259,2.404671,1.241674,-2.889731,99718.38,-145,-115,-7
107460,11.411,-11.634,0.461,1.999736,1.083105,-2.780649,99718.95,-145,-115,-7
107470,10.509,-11.744,1.376,1.549571,0.964445,-2.577915,99718.95,-152,-109,-2
107480,9.951,-12.630,2.519,1.151553,0.880904,-2.216613,99723.63,-156,-104,+1
107490,9.772,-13.188,1.875,0.791315,0.774482,-1.803696,99722.27,-160,-100,+4
107500,8.894,-13.259,0.088,0.425755,0.663803,-1.356723,99717.98,-160,-100,+4
107510,8.066,-12.884,-0.161,0.046893,0.538757,-0.785770,99718.45,-162,-98,+5
107515,8.174,-12.741,-0.334,-0.146263,0.384445,-0.327091,99718.45,-162,-98,+5
107525,8.456,-12.825,-0.791,-0.298446,0.199271,0.106578,99718.45,-163,-97,+6
107535,8.639,-11.820,-0.908,-0.432005,-0.021022,0.569514,99720.69,-163,-99,+5
107545,8.870,-8.590,-0.763,-0.407528,-0.203004,0.890908,99720.38,-161,-101,+4
107555,8.832,-6.113,0.287,-0.215437,-0.354655,1.127697,99720.53,-161,-101,+4
107566,8.032,-5.317,0.243,0.201737,-0.479701,1.358633,99717.20,-158,-104,+3
107575,7.688,-5.860,-1.448,0.663608,-0.711701,1.651293,99723.79,-154,-108,+3
107585,12.051,-0.271,2.578,1.440489,-0.952214,1.724724,99721.38,-150,-113,+4
107595,26.522,20.416,8.118,2.373277,-1.138985,0.904211,99721.38,-150,-113,+4
107606,29.841,9.087,-6.685,1.302672,-0.826104,1.199532,99716.82,-149,-116,+6
107615,15.767,-13.889,-3.022,0.979682,-0.855903,2.687843,99722.99,-143,-121,+5
107625,7.169,-17.592,2.640,2.353589,-0.731389,2.306320,99722.99,-138,-127,+10
107635,8.596,-9.352,2.291,1.295755,-0.124784,1.925330,99719.30,-134,-127,+10
107645,9.812,-3.906,0.212,0.061260,0.228537,1.932779,99721.66,-134,-133,+12
107656,9.422,-1.169,7.008,0.260269,0.209913,1.998761,99721.09,-129,-137,+12
107665,5.936,-3.739,12.223,1.040342,-0.105096,1.838596,99714.60,-125,-143,+14
107675,5.257,-7.510,9.678,0.991920,-0.194490,1.474100,99718.20,-122,-145,+16
107685,6.449,-6.366,2.973,0.022416,-0.261004,1.013826,99720.82,-122,-145,+16
107696,7.798,-3.768,0.471,-0.839069,-0.156178,0.802578,99718.88,-120,-146,+14
107705,10.956,-2.482,-0.556,-1.084904,-0.059334,0.734468,99719.77,-118,-148,+11
107715,11.492,-2.111,-1.424,-1.120023,0.090721,0.601973,99719.77,-117,-149,+9
107725,10.370,-1.442,-0.092,-0.889088,0.239711,0.543973,99719.77,-117,-149,+9
107736,9.706,0.242,2.002,-0.477235,0.267913,0.531202,99721.24,-115,-149,+8
107745,9.544,0.906,2.292,-0.176593,0.267913,0.570578,99721.20,-114,-151,+8
107751,9.189,0.264,2.489,-0.061125,0.253546,0.625385,99719.84,-114,-151,+8
107760,9.431,-0.681,3.039,0.082013,0.240776,0.660505,99719.46,-112,-152,+9
107770,9.062,-2.106,5.251,0.147994,0.193950,0.641349,99719.46,-111,-154,+9
107781,7.624,-3.494,6.904,-0.022813,0.139143,0.532266,99721.00,-111,-154,+9
107790,7.182,-2.741,6.701,-0.390501,0.125840,0.396578,99719.33,-110,-154,+9
107800,7.521,-1.792,5.772,-0.700721,0.145528,0.325808,99718.75,-108,-155,+8
107810,9.009,-0.545,4.473,-0.772024,0.174794,0.331661,99718.22,-108,-155,+6
107821,10.310,0.664,2.586,-0.654427,0.112537,0.415202,99718.22,-108,-155,+6
107830,10.896,1.296,1.049,-0.327712,0.012501,0.550890,99720.98,-106,-156,+5
107840,10.863,0.761,1.152,0.042636,-0.070509,0.699881,99722.03,-104,-157,+5
107850,10.144,-0.368,2.019,0.271444,-0.141279,0.822798,99719.69,-102,-160,+6
107860,9.396,-1.095,3.576,0.367223,-0.165224,0.893569,99719.05,-102,-160,+6
107870,8.865,-1.436,4.717,0.319866,-0.175866,0.911661,99719.05,-100,-161,+7
107880,8.506,-1.912,4.918,0.224086,-0.220031,0.918046,99721.33,-97,-162,+7
107890,8.274,-2.170,5.134,0.138948,-0.245041,0.894101,99719.19,-95,-164,+6
107900,8.281,-2.619,4.710,0.032526,-0.281224,0.838762,99717.81,-92,-164,+6
107911,8.444,-2.851,3.270,0.002196,-0.336563,0.768523,99720.06,-92,-166,+7
107920,8.929,-3.059,1.983,-0.011107,-0.344545,0.737128,99720.06,-90,-167,+5
107930,9.600,-3.416,1.058,-0.043033,-0.360508,0.718505,99721.83,-88,-168,+6
107940,9.893,-3.675,0.463,-0.081345,-0.374875,0.680193,99718.27,-86,-170,+4
107951,10.011,-3.805,0.593,-0.181382,-0.362105,0.653587,99718.31,-86,-170,+4
107960,9.762,-2.992,2.026,-0.255877,-0.364765,0.613679,99721.98,-84,-171,+3
107970,9.232,-1.642,3.485,-0.218097,-0.387114,0.593991,99721.98,-82,-171,+3
107980,8.719,-1.899,3.914,-0.104758,-0.416912,0.612615,99723.13,-79,-173,+1
107985,8.719,-2.655,3.706,-0.047290,-0.449903,0.623257,99719.73,-79,-173,+1
107995,8.909,-3.244,3.351,-0.085070,-0.480765,0.619532,99719.73,-79,-173,+1
108005,9.013,-3.574,3.269,-0.207455,-0.486618,0.601441,99720.93,-79,-173,+1
108015,8.964,-3.339,2.891,-0.329308,-0.489279,0.579092,99718.63,-76,-174,-1
108025,8.970,-2.664,2.991,-0.435198,-0.495664,0.573771,99718.63,-75,-175,-2
108036,8.743,-2.867,2.950,-0.486813,-0.497793,0.567918,99719.98,-73,-175,-4
108046,8.942,-3.257,2.821,-0.502776,-0.505774,0.551954,99719.51,-73,-175,-4
108055,9.191,-2.958,2.573,-0.554391,-0.503114,0.551422,99718.88,-71,-175,-6
108065,9.317,-2.731,2.240,-0.593235,-0.503646,0.564193,99718.88,-69,-176,-8
108076,9.488,-1.414,2.251,-0.514482,-0.529187,0.608358,99718.88,-66,-176,-10
108086,9.547,-1.308,3.364,-0.344207,-0.541426,0.688174,99722.24,-66,-176,-10
108095,9.281,-2.772,2.838,-0.084538,-0.643591,0.713184,99720.15,-64,-178,-12
108105,8.877,-3.417,2.482,0.057003,-0.710104,0.704138,99720.21,-62,-178,-13
108115,8.676,-4.395,2.392,0.052746,-0.722875,0.661569,99717.74,-60,-179,-14
108126,8.497,-4.933,2.423,-0.064850,-0.708508,0.594523,99717.74,-58,-179,-14
108136,8.607,-4.389,2.118,-0.219694,-0.666471,0.537055,99720.74,-58,-180,-14
108145,8.956,-3.817,1.760,-0.279290,-0.651572,0.493954,99720.23,-55,-180,-16
108155,9.108,-3.621,1.427,-0.212776,-0.662215,0.467881,99720.34,-54,-181,-17
108166,9.152,-3.579,1.092,-0.123382,-0.676049,0.462560,99720.34,-52,-181,-18
108176,9.020,-3.799,1.265,-0.084006,-0.680838,0.450853,99722.42,-52,-181,-18
108185,9.124,-3.921,1.620,-0.090923,-0.659022,0.436487,99722.42,-49,-181,-19
108195,9.450,-3.839,1.980,-0.107419,-0.645719,0.427973,99720.86,-48,-182,-20
108206,9.681,-4.088,2.083,-0.106886,-0.651572,0.405092,99718.72,-46,-183,-21
108215,9.612,-4.244,1.826,-0.141474,-0.658490,0.376890,99717.88,-46,-183,-21
108221,9.689,-4.256,1.690,-0.178189,-0.656361,0.348688,99717.88,-44,-183,-22
108230,9.749,-4.076,1.582,-0.204263,-0.667004,0.312505,99719.82,-44,-183,-22
108240,9.997,-4.084,1.765,-0.229272,-0.665939,0.252909,99720.51,-43,-183,-24
108251,10.183,-4.340,1.619,-0.258006,-0.657426,0.221514,99719.87,-42,-183,-24
108260,10.497,-4.273,1.140,-0.309088,-0.651572,0.222578,99718.35,-40,-183,-26
108270,10.824,-4.085,0.752,-0.366024,-0.671260,0.227367,99718.35,-40,-183,-26
108280,10.415,-3.691,0.631,-0.397418,-0.681903,0.248652,99719.33,-39,-183,-28
108291,10.298,-3.141,0.343,-0.418171,-0.718618,0.266744,99721.47,-39,-183,-30
108301,10.108,-3.277,0.532,-0.451161,-0.780343,0.322615,99719.80,-36,-182,-31
108310,10.212,-2.913,0.701,-0.504905,-0.852178,0.390193,99718.80,-36,-182,-31
108320,10.580,-2.343,1.333,-0.492134,-0.970838,0.472670,99718.80,-34,-183,-35
108331,10.849,-2.457,1.746,-0.341547,-1.132600,0.571642,99723.20,-31,-182,-36
108341,10.959,-2.438,2.033,-0.183510,-1.272545,0.689239,99719.23,-28,-183,-38
108350,10.897,-3.332,2.385,-0.034520,-1.408233,0.811624,99718.70,-28,-183,-38
108360,10.901,-4.108,2.620,0.017095,-1.526893,0.915385,99720.59,-24,-183,-39
108370,10.816,-4.203,2.885,-0.091455,-1.606177,0.999991,99720.59,-19,-184,-41
108381,10.696,-4.540,2.993,-0.278226,-1.667370,1.068633,99722.01,-14,-185,-42
108390,10.996,-5.462,2.593,-0.557051,-1.715260,1.125036,99720.70,-9,-185,-45
108400,11.589,-4.420,3.275,-0.941235,-1.761553,1.151642,99719.54,-9,-185,-45
108410,12.723,-3.547,3.893,-1.220592,-1.756232,1.214963,99717.93,-3,-183,-50
108421,15.026,-4.520,3.880,-1.394060,-1.841370,1.250614,99717.93,+1,-183,-54
108431,18.455,-4.411,5.980,-1.611161,-1.951517,1.218156,99721.08,+8,-181,-60
108440,21.853,-4.290,8.883,-1.803784,-2.000471,1.159624,99720.14,+8,-181,-60
108450,21.271,-2.767,10.066,-1.993748,-2.077627,1.122376,99716.89,+15,-178,-66
108456,17.683,-1.161,11.266,-2.033124,-2.132434,1.077679,99718.56,+15,-178,-66
108466,15.241,-0.175,9.951,-1.734610,-2.261204,1.036706,99718.56,+21,-176,-72
108475,13.006,-3.997,2.714,-1.493564,-2.579938,1.047881,99718.56,+28,-173,-77
108485,10.950,-7.455,4.816,-1.095014,-2.792782,1.263385,99719.42,+36,-172,-80
108495,13.053,-6.567,5.486,-0.243107,-2.927406,1.420889,99718.05,+36,-172,-80
108506,11.764,-5.007,4.005,0.264526,-2.994984,1.253275,99719.00,+46,-172,-80
108516,8.463,-4.909,2.975,0.592306,-2.996580,1.045752,99719.00,+53,-172,-78
108526,5.834,-6.121,2.059,1.133461,-3.129076,1.010101,99722.32,+62,-173,-74
108535,5.994,-4.283,2.954,1.735278,-3.295626,0.889312,99722.32,+62,-173,-74
108546,6.613,-2.931,1.703,2.244506,-3.407901,0.712651,99718.98,+69,-176,-67
108556,6.219,-1.778,3.400,2.751607,-3.441424,0.503532,99718.76,+75,-179,-60
108565,5.611,-1.725,4.727,3.336396,-3.364268,0.279514,99716.93,+80,-183,-49
108575,4.837,-1.811,5.189,3.742928,-3.305736,0.133716,99716.93,+80,-183,-49
108585,4.339,-1.420,5.377,4.023350,-3.245608,0.016120,99717.09,+83,-187,-36
108596,4.180,-1.161,5.674,4.280359,-3.167919,-0.147238,99719.09,+86,-191,-22
108606,4.249,-1.246,5.937,4.497992,-3.062030,-0.375513,99717.09,+85,-195,-8
108615,4.357,-1.483,5.958,4.615056,-2.973167,-0.622412,99714.10,+85,-197,+7
108625,4.380,-1.976,5.630,4.621973,-2.899204,-0.866118,99717.40,+85,-197,+7
108636,4.214,-2.625,6.105,4.538432,-2.795443,-1.109825,99717.30,+81,-199,+21
108646,4.325,-2.583,6.786,4.485221,-2.681571,-1.332246,99716.73,+77,-200,+36
108655,4.379,-2.578,7.777,4.466597,-2.567700,-1.573292,99716.73,+71,-201,+50
108665,4.774,-4.012,8.559,4.453826,-2.399021,-1.850521,99716.62,+71,-201,+50
108676,4.422,-4.690,8.907,4.169147,-2.143608,-2.074007,99716.62,+62,-199,+63
108686,4.366,-4.021,9.468,3.854671,-1.878085,-2.286851,99717.29,+54,-198,+76
108691,4.252,-4.074,9.488,3.687056,-1.650342,-2.449145,99714.04,+54,-198,+76
108700,3.775,-5.250,9.440,3.506139,-1.411425,-2.568337,99713.77,+44,-197,+86
108710,3.924,-6.129,9.686,3.152286,-0.995315,-2.749787,99714.30,+35,-194,+96
108721,3.751,-5.951,9.984,2.836745,-0.557921,-2.925915,99714.30,+35,-194,+96
108731,3.437,-5.613,10.037,2.627625,-0.139151,-3.075970,99713.07,+23,-191,+103
108740,3.888,-5.856,9.719,2.486616,0.291858,-3.233474,99713.80,+13,-187,+110
108750,4.479,-5.810,9.310,2.383919,0.695197,-3.354795,99712.23,+3,-183,+116
108761,5.368,-5.418,8.357,2.354121,1.071399,-3.472392,99713.23,+3,-183,+116
108771,7.199,-5.391,5.961,2.424360,1.297014,-3.557529,99713.23,-5,-179,+124
108781,6.055,-6.815,7.116,2.588249,1.530610,-3.544759,99713.23,-14,-174,+131
108790,6.403,-8.197,9.279,2.723405,2.074426,-3.706520,99715.38,-22,-166,+139
108801,7.817,-6.955,9.453,2.422231,2.482022,-3.875199,99711.71,-22,-166,+139
108811,9.336,-5.801,8.065,2.286011,2.718811,-3.950226,99714.49,-28,-160,+148
108820,10.984,-7.326,6.029,2.349864,2.874719,-3.926281,99714.49,-35,-152,+155
108830,12.191,-8.904,5.070,2.374873,2.940168,-3.881584,99717.51,-40,-145,+162
108840,12.860,-9.463,5.088,2.444048,2.999765,-3.835290,99714.99,-40,-145,+162
108851,13.637,-10.532,5.088,2.648378,3.091820,-3.753878,99715.77,-44,-135,+172
108861,14.602,-13.195,3.622,2.792579,3.081177,-3.734722,99713.95,-48,-126,+180
108870,14.825,-13.765,1.997,2.692543,2.952939,-3.813474,99713.95,-50,-116,+189
108880,14.995,-14.579,0.090,2.425956,2.800756,-3.726740,99720.22,-51,-105,+197
108891,14.841,-16.197,-1.971,2.035919,2.582591,-3.527199,99715.88,-51,-105,+197
108901,13.900,-17.298,-2.425,1.550635,2.324517,-3.276043,99718.95,-53,-96,+203
108911,12.899,-18.234,-1.594,1.101535,2.043563,-2.902502,99718.06,-54,-88,+207
108920,11.518,-19.907,-0.902,0.773755,1.790811,-2.408704,99718.06,-53,-83,+211
108931,9.780,-21.485,-1.013,0.491737,1.597123,-1.865420,99719.70,-53,-83,+211
108941,8.288,-21.995,-4.271,0.158104,1.374169,-1.254558,99720.99,-52,-79,+214
108951,8.372,-21.947,-6.539,-0.119657,1.126738,-0.572926,99718.34,-49,-78,+214
108960,9.677,-20.600,-7.519,-0.281951,0.748408,0.150211,99717.65,-46,-79,+216
108971,11.117,-17.694,-6.953,-0.244703,0.220023,0.885055,99717.65,-46,-79,+216
108981,14.865,-10.836,-6.004,0.033591,-0.467462,1.523587,99720.87,-45,-81,+216
108991,29.779,12.837,0.726,0.687021,-1.392801,1.417165,99721.34,-46,-81,+214
109000,35.910,21.619,-2.098,0.779608,-1.665774,1.208578,99717.26,-49,-81,+214
109010,17.623,-3.964,-5.820,-0.296318,-1.675352,3.130558,99722.65,-49,-81,+214
109021,6.581,-13.991,-1.928,1.743791,-1.662581,3.224742,99722.65,-46,-85,+213
109031,8.418,-14.203,2.415,2.469057,-1.453462,3.133751,99722.42,-45,-80,+216
109041,8.873,-3.321,1.366,2.000268,-1.209224,3.211439,99721.80,-42,-79,+216
109050,5.488,2.116,2.919,2.189167,-0.900068,2.993274,99721.84,-42,-79,+216
109061,2.862,-5.639,5.237,2.803754,-1.035224,2.758614,99715.05,-40,-75,+220
109071,6.259,-16.705,6.579,2.604213,-1.242214,2.320687,99715.05,-39,-68,+222
109081,8.480,-17.748,2.176,1.190397,-1.471021,1.792302,99721.70,-40,-68,+221
109090,7.400,-9.504,0.252,-1.259968,-0.838343,1.216559,99722.48,-40,-68,+221
109101,8.543,-4.635,1.509,-2.724334,-0.394031,0.955294,99721.54,-40,-75,+218
109111,8.333,-3.448,0.191,-2.955802,-0.249830,0.850468,99717.66,-40,-85,+213
109121,8.689,-1.139,0.046,-2.389105,0.125308,0.809495,99717.66,-39,-92,+210
109130,10.417,2.731,1.473,-1.329143,0.237051,0.856853,99719.70,-39,-92,+210
109140,10.089,1.374,3.682,-0.139345,0.037510,1.008504,99719.23,-36,-95,+209
109151,8.413,-2.937,3.638,0.425223,-0.114142,1.128229,99718.18,-35,-95,+209
109161,8.413,-4.316,2.338,0.438349,-0.105805,1.055330,99720.05,-33,-96,+211
109170,8.514,-5.003,2.397,0.250159,-0.057206,0.957954,99720.05,-33,-96,+211
109180,7.969,-6.277,4.594,-0.055804,0.009308,0.800450,99719.31,-31,-95,+210
109191,7.052,-6.840,6.071,-0.619308,0.097638,0.554615,99720.25,-30,-97,+209
109201,6.797,-6.576,4.997,-1.218464,0.248757,0.302927,99715.59,-28,-100,+208
109211,7.812,-4.656,3.513,-1.636702,0.391895,0.205019,99719.58,-28,-100,+208
109220,9.462,-1.715,2.723,-1.742060,0.458409,0.221514,99719.58,-28,-106,+205
109231,10.883,-0.084,1.906,-1.364262,0.400409,0.307184,99720.90,-25,-110,+203
109241,10.608,-1.095,1.969,-0.801290,0.224280,0.434358,99720.59,-24,-113,+202
109251,9.457,-3.597,2.783,-0.444776,0.090721,0.505129,99718.96,-24,-113,+202
109260,8.682,-4.978,3.701,-0.452758,0.047088,0.487569,99717.80,-23,-114,+201
109271,8.004,-5.537,4.229,-0.659216,0.049748,0.421055,99717.80,-21,-116,+199
109281,8.196,-5.108,4.472,-0.953473,0.061987,0.366248,99721.84,-20,-118,+198
109291,8.336,-3.669,4.814,-1.139711,0.041235,0.349753,99720.43,-20,-118,+198
109301,8.741,-2.455,4.881,-1.111510,-0.007720,0.403496,99724.40,-19,-121,+196
109310,8.672,-2.721,4.214,-0.949216,-0.076894,0.470009,99718.74,-18,-125,+194
109321,9.006,-3.562,3.600,-0.886427,-0.118931,0.539716,99718.74,-17,-127,+191
109331,8.918,-4.018,3.331,-0.950813,-0.140747,0.592395,99719.25,-16,-127,+190
109341,8.857,-4.139,3.363,-1.056702,-0.154582,0.635496,99719.30,-16,-130,+190
109350,9.143,-3.969,2.941,-1.098739,-0.193426,0.670083,99719.92,-15,-133,+187
109361,9.713,-3.876,2.435,-1.069473,-0.222160,0.710523,99719.56,-14,-137,+185
109371,9.934,-3.971,2.055,-1.029033,-0.262600,0.752560,99719.56,-12,-139,+183
109381,10.162,-3.859,1.870,-0.994978,-0.289206,0.793000,99721.73,-12,-139,+183
109390,10.401,-3.819,1.951,-0.973693,-0.335499,0.827587,99719.63,-11,-142,+180
109401,10.516,-3.591,2.562,-0.919950,-0.435004,0.858982,99721.30,-10,-144,+177
109411,10.525,-3.640,3.212,-0.858225,-0.520141,0.940394,99718.85,-8,-147,+176
109421,10.467,-4.440,2.901,-0.826299,-0.569095,1.015954,99718.85,-8,-147,+176
109431,10.685,-4.758,2.382,-0.909840,-0.618050,1.075018,99721.97,-6,-149,+173
109441,10.868,-4.490,2.334,-1.060959,-0.685627,1.136211,99720.72,-5,-152,+170
109451,10.990,-3.711,2.903,-1.181216,-0.773426,1.218688,99720.45,-3,-156,+167
109461,11.385,-2.808,3.695,-1.219528,-0.914967,1.336816,99716.94,-3,-156,+167
109471,12.293,-2.716,3.999,-1.155675,-1.071407,1.486339,99716.94,-1,-158,+163
109480,13.144,-3.181,3.739,-1.076390,-1.213480,1.643311,99723.78,+0,-162,+160
109491,13.480,-3.718,2.860,-1.086501,-1.310324,1.782192,99722.31,+3,-165,+157
109501,13.691,-3.806,2.232,-1.187069,-1.378434,1.900853,99720.06,+3,-165,+157
109511,14.160,-3.223,2.194,-1.320097,-1.447077,1.997697,99720.27,+7,-167,+153
109520,14.770,-3.041,2.821,-1.430243,-1.510398,2.087623,99720.27,+10,-170,+148
109531,15.385,-3.013,3.989,-1.547307,-1.539664,2.166375,99721.40,+14,-174,+144
109541,16.987,-2.420,5.677,-1.738335,-1.528489,2.221715,99719.37,+14,-174,+144
109551,19.413,-0.922,9.365,-1.953839,-1.518379,2.253641,99719.88,+19,-176,+139
109561,20.019,0.653,13.242,-2.048023,-1.476875,2.386137,99716.32,+24,-180,+132
109571,18.727,0.576,11.460,-1.977784,-1.550838,2.592063,99716.32,+30,-183,+126
109581,17.481,-1.929,10.318,-1.990023,-1.579572,2.717109,99717.79,+30,-183,+126
109591,17.094,-6.615,7.740,-1.819216,-1.793480,2.886852,99718.68,+37,-186,+121
109601,16.568,-11.131,6.219,-1.694702,-2.088801,2.971457,99719.09,+44,-187,+116
109611,16.426,-10.363,7.645,-1.761748,-2.134030,2.899091,99717.57,+52,-190,+112
109621,15.275,-6.262,9.109,-1.505271,-1.990361,2.682522,99717.57,+52,-190,+112
109631,13.162,-1.886,8.869,-1.190971,-1.711358,2.184467,99716.92,+57,-190,+108
109641,11.855,0.257,7.971,-0.817253,-1.494434,1.826357,99720.84,+63,-191,+106
109650,8.276,-1.027,3.715,-0.677840,-1.332673,1.713550,99719.33,+67,-191,+104
109661,3.905,-3.608,4.251,-0.506501,-0.957536,1.668853,99715.45,+67,-191,+104
109671,-0.332,-4.898,3.777,-0.248960,-0.521205,1.166009,99715.45,+72,-190,+104
109681,-0.345,-3.432,6.352,0.068710,-0.139683,0.587074,99719.62,+73,-190,+105
109691,2.050,-1.990,6.148,0.140545,0.131161,0.001221,99718.26,+73,-190,+105
109701,2.942,1.127,4.200,-0.527785,0.194482,-0.738412,99717.21,+73,-190,+105
109711,2.593,3.521,2.297,-1.265289,0.151381,-1.273714,99715.59,+72,-190,+103
109721,1.883,5.086,0.411,-1.543583,0.224280,-1.590852,99715.59,+67,-193,+99
109731,1.285,5.373,-0.730,-1.378097,0.434464,-1.824980,99717.95,+62,-195,+95
109741,1.375,4.796,-0.074,-0.785326,0.775546,-2.006962,99715.48,+62,-195,+95
109751,1.986,3.087,1.062,0.033591,1.087894,-2.171383,99716.68,+58,-196,+94
109761,2.284,0.746,1.976,0.775884,1.293821,-2.306539,99716.52,+51,-195,+96
109771,2.374,-0.940,3.015,1.285113,1.476334,-2.481071,99716.52,+45,-195,+99
109782,2.603,-1.436,3.515,1.534672,1.666298,-2.727438,99716.95,+45,-195,+99
109791,2.745,-0.506,3.543,1.596929,1.903619,-3.007328,99713.28,+39,-194,+104
109801,3.823,0.903,3.644,1.703351,2.160628,-3.238263,99713.28,+32,-191,+109
109811,5.512,1.629,3.199,2.109351,2.304829,-3.382465,99713.48,+24,-191,+115
109821,6.344,0.376,3.646,2.675515,2.448499,-3.499529,99713.48,+18,-191,+115
109831,7.191,-1.484,3.777,3.050121,2.625692,-3.641071,99715.41,+18,-185,+123
109841,7.966,-2.740,3.573,3.186341,2.768297,-3.814006,99717.88,+10,-181,+132
109851,9.025,-3.314,3.378,3.187405,2.845453,-3.970978,99715.83,+4,-176,+141
109861,10.109,-3.892,2.762,3.211882,2.867801,-4.113584,99713.95,-2,-170,+150
109871,10.907,-5.080,3.149,3.254983,2.872591,-4.282263,99713.95,-2,-170,+150
109881,11.778,-6.446,3.638,3.211350,2.850774,-4.503621,99719.39,-8,-163,+160
109891,12.797,-7.151,4.158,2.983607,2.857159,-4.731896,99715.89,-17,-156,+170
109901,13.826,-7.381,5.037,2.682433,2.913031,-4.901639,99715.09,-24,-149,+178
109912,15.050,-8.136,5.889,2.506305,3.002957,-4.988905,99712.91,-24,-149,+178
109921,16.535,-10.181,6.110,2.428084,3.088627,-5.041584,99712.91,-31,-140,+187
109931,17.449,-12.237,5.421,2.255149,3.146627,-5.064996,99718.39,-38,-131,+195
109941,18.099,-14.006,3.734,2.029534,3.208352,-4.965492,99715.73,-42,-123,+203
109952,19.083,-16.041,1.145,1.802323,3.202498,-4.693584,99714.94,-42,-123,+203
109961,19.498,-17.909,-1.498,1.513920,3.067875,-4.284391,99717.83,-45,-114,+211
109971,18.145,-18.816,-3.738,1.177094,2.773086,-3.790061,99717.83,-46,-107,+216
109981,15.359,-21.369,-5.602,0.928599,2.309973,-3.112863,99722.30,-47,-100,+221
109991,12.154,-25.966,-5.892,0.839205,1.887123,-2.466172,99722.68,-47,-100,+221
110001,8.837,-28.863,-6.782,0.440654,1.387472,-1.617457,99719.43,-47,-94,+226
110011,7.747,-28.457,-8.032,-0.167015,0.887821,-0.609641,99721.01,-46,-94,+227
110021,9.300,-25.730,-7.760,-0.747014,0.384977,0.451386,99721.01,-45,-98,+226
110031,11.255,-21.893,-6.795,-0.826831,-0.150857,1.417165,99723.84,-45,-98,+226
110042,12.696,-16.344,-6.712,-0.529914,-0.917095,2.358467,99722.41,-44,-103,+224
110051,19.167,5.617,1.911,0.111811,-1.677480,2.668687,99721.68,-42,-107,+223
110061,36.086,50.892,16.759,1.393131,-1.529021,0.719037,99718.49,-46,-103,+226
110071,33.826,13.316,-12.524,-0.728391,-1.339058,2.084963,99718.49,-46,-103,+226
110082,8.458,-15.917,-4.407,0.513554,-1.987168,4.257566,99724.23,-44,-110,+221
110091,5.099,-27.480,5.527,4.135093,-1.727498,3.839861,99720.67,-41,-104,+227
110101,11.891,-18.028,0.987,2.943166,-1.405572,3.651494,99720.47,-39,-99,+231
110111,9.468,-0.626,-3.415,1.845424,-1.168251,3.542943,99721.67,-39,-99,+231
110121,2.041,-0.688,7.876,2.648910,-0.707976,3.203457,99721.67,-34,-96,+234
110131,0.459,-15.017,12.678,2.877717,-1.067682,2.641017,99719.52,-32,-90,+237
110141,7.392,-21.875,3.805,1.181883,-1.673755,2.054632,99719.63,-33,-89,+237
110151,7.849,-12.429,-4.404,-1.872959,-1.148031,1.355440,99724.08,-33,-89,+237
110161,9.470,-5.449,1.313,-3.412352,-0.393499,1.068633,99720.20,-34,-98,+232
110171,9.276,-3.719,1.991,-3.582628,-0.398288,0.940927,99720.20,-33,-111,+226
110181,8.844,-2.341,0.837,-3.016995,-0.184380,0.787147,99721.48,-32,-120,+219
110191,9.003,0.871,0.247,-2.210849,-0.030068,0.738725,99720.66,-32,-120,+219
110201,9.632,3.868,2.584,-0.915693,-0.087536,0.872284,99720.23,-31,-125,+216
110212,9.553,0.188,2.759,0.360838,-0.198215,1.035110,99718.88,-28,-127,+216
110217,9.146,-2.932,3.224,0.745553,-0.218967,1.107477,99718.88,-28,-127,+216
110226,8.484,-4.283,2.987,0.774819,-0.222160,1.071826,99718.88,-27,-125,+217
110236,8.278,-4.764,2.798,0.564104,-0.163096,0.972321,99721.60,-25,-123,+219
110246,8.203,-5.940,4.036,0.154379,-0.103499,0.853661,99720.66,-23,-125,+219
110257,7.149,-7.394,5.897,-0.420831,-0.044967,0.647734,99721.98,-23,-125,+219
110267,6.681,-6.691,6.662,-1.065748,0.047088,0.360927,99720.67,-23,-128,+218
110276,6.999,-5.288,5.639,-1.493032,0.150317,0.202358,99720.63,-21,-131,+214
110286,7.854,-3.211,4.004,-1.740996,0.260996,0.170432,99720.52,-20,-136,+211
110297,9.714,-0.329,1.459,-1.619142,0.281748,0.235349,99720.52,-20,-136,+211
110306,11.553,0.807,0.263,-1.034886,0.140207,0.401899,99719.36,-19,-141,+209
110316,10.702,-1.625,1.481,-0.393161,-0.056674,0.595587,99718.47,-17,-143,+207
110326,8.991,-4.405,3.683,-0.212244,-0.127444,0.672743,99718.47,-16,-144,+206
110337,8.363,-5.366,4.954,-0.479363,-0.113077,0.646138,99721.99,-16,-144,+206
110346,8.262,-4.849,5.976,-0.790647,-0.116802,0.599844,99722.84,-14,-145,+205
110356,8.002,-4.024,6.186,-0.950813,-0.157242,0.559404,99720.52,-14,-148,+203
110366,8.159,-3.321,5.683,-1.056170,-0.190765,0.597184,99721.26,-12,-152,+200
110376,8.557,-3.725,4.694,-1.107253,-0.202472,0.651459,99721.16,-12,-152,+200
110387,8.887,-3.860,3.491,-1.114702,-0.214710,0.717440,99720.06,-12,-154,+198
110397,9.367,-3.997,2.603,-1.130666,-0.230141,0.778101,99721.42,-10,-158,+195
110406,9.896,-4.311,1.959,-1.126409,-0.253022,0.812688,99720.73,-8,-162,+192
110416,10.333,-4.520,1.293,-1.111510,-0.274307,0.830248,99720.73,-8,-162,+192
110427,10.526,-4.744,1.281,-1.131198,-0.276967,0.834505,99720.73,-5,-165,+190
110436,10.409,-5.009,1.091,-1.178023,-0.271114,0.833973,99723.87,-4,-168,+186
110446,10.261,-4.989,0.938,-1.264225,-0.248233,0.835569,99722.71,-2,-171,+182
110452,10.204,-4.826,1.172,-1.350959,-0.246637,0.833973,99723.13,-2,-171,+182
110461,10.347,-4.236,1.890,-1.428115,-0.287609,0.840358,99721.24,-1,-175,+179
110472,10.267,-3.199,2.573,-1.422794,-0.398288,0.898358,99721.24,+0,-178,+175
110481,10.189,-2.938,2.654,-1.297748,-0.520673,1.010633,99723.18,+0,-178,+175
110491,10.573,-3.201,2.608,-1.156207,-0.666471,1.126101,99721.02,+3,-180,+172
110501,11.238,-3.623,2.850,-1.102464,-0.805352,1.240504,99722.54,+4,-184,+167
110512,11.956,-3.739,3.717,-1.139179,-0.930930,1.357568,99720.24,+7,-187,+164
110521,12.565,-3.418,4.518,-1.189730,-1.061297,1.499110,99720.24,+7,-187,+164
110531,12.938,-3.365,4.482,-1.224849,-1.187939,1.669385,99719.55,+10,-189,+160
110541,13.264,-3.707,4.008,-1.280188,-1.292233,1.828486,99723.02,+12,-191,+157
110552,13.661,-3.983,3.265,-1.414280,-1.353957,1.974284,99720.29,+17,-195,+152
110562,14.450,-3.883,3.215,-1.597858,-1.397590,2.085495,99721.91,+17,-195,+152
110571,15.424,-3.593,3.830,-1.795803,-1.424728,2.179146,99721.91,+21,-198,+147
110581,16.753,-3.375,5.299,-2.004390,-1.401315,2.260559,99721.63,+26,-202,+140
110592,19.410,-2.050,7.363,-2.294390,-1.358214,2.313238,99720.27,+32,-205,+134
110602,21.856,-0.152,11.590,-2.599289,-1.305003,2.382944,99719.96,+32,-205,+134
110611,21.332,1.159,12.596,-2.626958,-1.369388,2.589935,99715.09,+38,-208,+126
110621,19.107,0.979,11.738,-2.377399,-1.499755,2.784155,99715.09,+45,-211,+118
110631,18.074,-2.452,10.669,-2.260867,-1.589150,2.894302,99720.66,+54,-213,+111
110642,17.189,-9.519,9.283,-2.054408,-1.889792,3.008705,99720.02,+54,-213,+111
110651,17.809,-12.850,7.885,-1.889454,-2.129241,3.038503,99718.56,+62,-213,+106
110661,16.359,-9.457,7.810,-1.687785,-2.173406,2.964540,99715.36,+70,-214,+101
110671,13.466,-4.237,9.216,-1.254115,-1.907351,2.540449,99715.36,+77,-212,+99
110682,11.524,-0.683,9.489,-0.814060,-1.522636,1.993972,99719.12,+77,-212,+99
110687,10.431,0.843,7.718,-0.405932,-1.268288,1.620431,99718.23,+82,-212,+98
110696,7.337,-0.045,2.970,-0.316006,-1.098545,1.402798,99718.23,+85,-211,+98
110706,1.613,-3.111,3.130,-0.436794,-0.813866,1.499110,99717.80,+85,-211,+98
110716,-1.956,-5.407,1.930,-0.240978,-0.500453,1.216027,99716.76,+90,-209,+98
110727,-2.743,-4.531,4.919,-0.010042,-0.328050,0.763734,99720.20,+92,-209,+98
110737,0.028,-3.471,5.199,0.440122,-0.123720,0.048578,99720.78,+92,-209,+99
110746,2.134,-1.546,3.822,0.032526,0.182244,-0.704357,99718.95,+92,-209,+99
110756,2.490,1.656,1.463,-0.797033,0.252482,-1.319476,99715.50,+89,-209,+98
110767,2.007,4.159,-0.269,-1.394592,0.281216,-1.686631,99715.50,+84,-211,+95
110777,1.667,5.431,-1.535,-1.549436,0.450959,-1.859035,99715.50,+79,-212,+90
110786,1.192,5.800,-1.296,-1.209950,0.739895,-1.951622,99720.18,+79,-212,+90
110796,1.698,4.406,-0.029,-0.390501,1.098004,-2.052723,99718.40,+73,-214,+86
110807,2.332,2.058,1.384,0.552930,1.366188,-2.172447,99716.20,+67,-216,+88
110817,2.457,-0.535,2.238,1.174966,1.541784,-2.287383,99716.04,+60,-215,+93
110827,2.590,-1.878,2.596,1.450599,1.768995,-2.509273,99716.04,+60,-215,+93
110836,3.091,-0.743,2.619,1.450067,2.028664,-2.818961,99718.60,+53,-214,+96
110846,4.494,1.791,2.235,1.495296,2.259600,-3.123860,99716.65,+46,-214,+101
110857,6.684,3.276,1.614,1.798066,2.405930,-3.327658,99714.74,+37,-212,+106
110867,7.865,2.249,1.181,2.261534,2.511288,-3.438337,99714.74,+37,-212,+106
110877,7.811,-0.354,1.286,2.583460,2.628884,-3.523474,99716.34,+28,-209,+114
110886,8.095,-2.164,1.307,2.728194,2.696462,-3.685236,99716.34,+20,-205,+123
110897,9.038,-2.822,1.241,2.760121,2.702847,-3.844337,99717.81,+11,-201,+132
110907,9.996,-3.457,0.838,2.815992,2.642719,-3.991731,99713.67,+11,-201,+132
110916,10.551,-4.280,0.898,2.915497,2.587912,-4.163602,99716.34,+2,-194,+140
110922,10.879,-4.920,1.326,2.966579,2.556517,-4.289180,99716.34,-7,-187,+150
110931,11.316,-5.402,2.042,2.934653,2.538425,-4.411034,99714.72,-7,-187,+150
110942,12.076,-5.785,3.310,2.789387,2.550132,-4.583969,99716.70,-14,-179,+160
110952,13.012,-6.157,4.686,2.624433,2.616646,-4.780318,99715.97,-23,-170,+168
110961,14.278,-6.682,5.607,2.489809,2.728921,-4.972409,99714.41,-29,-161,+176
110971,15.798,-7.423,6.182,2.379662,2.880040,-5.096391,99714.41,-29,-161,+176
110982,17.439,-9.284,6.629,2.351993,3.059361,-5.086813,99717.19,-37,-151,+185
110992,18.891,-11.342,6.509,2.416910,3.221654,-4.967620,99719.08,-42,-140,+191
111001,20.185,-13.578,4.566,2.444580,3.286040,-4.765951,99715.89,-44,-129,+199
111011,19.890,-15.938,1.781,2.353057,3.179086,-4.546189,99716.63,-44,-129,+199
111022,19.758,-16.879,-0.314,2.134360,2.940168,-4.243419,99716.63,-44,-120,+206
111032,19.291,-16.978,-3.125,1.727828,2.574609,-3.883713,99721.03,-46,-111,+212
111042,15.781,-19.639,-4.417,1.288837,2.157967,-3.423970,99721.70,-47,-104,+215
111051,10.883,-24.077,-3.045,0.889755,1.838701,-2.846098,99721.39,-47,-104,+215
111062,7.352,-27.074,-3.236,0.167682,1.454518,-2.029310,99719.83,-48,-101,+218
111072,6.834,-26.326,-5.331,-0.636868,1.041601,-1.041714,99719.83,-47,-102,+217
111082,8.038,-22.890,-6.493,-1.300941,0.607931,0.050175,99724.35,-46,-107,+215
111091,11.674,-18.377,-5.272,-1.463766,0.097106,1.023404,99721.32,-46,-107,+215
111101,12.026,-14.721,-4.422,-1.099271,-0.549407,1.876908,99720.37,-44,-112,+213
111112,12.434,-9.200,-4.394,-0.594831,-1.314049,2.617604,99719.07,-42,-118,+209
111122,18.232,12.896,7.165,0.291664,-1.845095,2.476063,99719.07,-42,-121,+209
111131,33.410,44.807,14.441,1.368122,-1.202838,0.516835,99718.41,-42,-121,+209
111141,30.070,7.151,-17.597,-1.381289,-1.411425,2.444137,99721.13,-44,-118,+208
111152,10.974,-16.773,-5.700,0.528453,-2.027608,3.978741,99723.43,-40,-127,+204
111162,6.549,-24.540,11.317,3.632781,-1.560416,3.679696,99719.46,-35,-121,+211
111171,14.297,-11.712,3.453,2.688286,-1.233701,3.338081,99719.46,-35,-121,+211
111181,11.191,0.749,-1.923,1.543186,-1.288508,3.620631,99725.98,-32,-119,+214
111192,1.066,1.887,9.667,2.910176,-1.019792,3.643512,99718.34,-27,-116,+217
111202,-2.927,-7.269,13.169,3.720047,-1.179957,2.985292,99717.67,-24,-108,+224
111212,4.269,-20.864,5.304,2.418506,-1.438031,2.301531,99718.03,-24,-108,+224
111221,10.686,-18.575,-2.191,-0.143602,-1.566269,1.937568,99718.03,-25,-105,+225
111232,10.528,-9.039,-1.893,-2.491802,-0.973499,1.332027,99722.70,-25,-112,+221
111242,9.438,-5.395,1.595,-3.487380,-0.644123,1.129825,99719.30,-24,-123,+213
111252,8.017,-4.855,0.516,-3.759288,-0.476508,1.032982,99720.92,-24,-123,+213
111261,7.539,-2.157,-1.210,-3.317105,-0.096582,0.816413,99719.98,-23,-134,+206
111271,9.506,2.937,0.267,-2.182115,0.107216,0.781294,99719.98,-21,-142,+200
111282,11.045,4.103,2.593,-0.395822,-0.065187,0.939330,99722.39,-19,-144,+199
111292,9.371,-1.078,2.923,0.820049,-0.230674,1.143128,99719.88,-17,-142,+201
111302,8.102,-4.228,3.084,0.916361,-0.203536,1.179312,99722.19,-17,-142,+201
111311,7.800,-5.088,3.105,0.623168,-0.126912,1.076082,99720.41,-14,-141,+203
111322,8.383,-4.823,2.912,0.301774,-0.042839,0.929220,99720.41,-12,-141,+204
111332,8.361,-5.407,3.741,-0.033987,0.013565,0.786615,99724.96,-10,-142,+203
111342,7.316,-6.297,5.829,-0.364960,0.033785,0.583349,99721.62,-10,-142,+203
111351,6.862,-6.148,6.228,-0.949216,0.080079,0.345496,99719.21,-9,-144,+201
111362,7.204,-5.500,4.789,-1.559546,0.165748,0.197037,99720.62,-8,-148,+198
111372,8.206,-3.663,3.770,-1.899032,0.251950,0.147019,99720.62,-7,-152,+194
111382,9.508,-1.376,3.208,-1.852738,0.249822,0.177349,99721.88,-7,-152,+194
111391,10.644,0.253,2.050,-1.337656,0.132757,0.306652,99719.78,-6,-157,+190
111401,10.749,0.441,1.601,-0.622501,-0.022087,0.512578,99720.09,-5,-159,+188
111412,9.474,-1.921,1.995,-0.121786,-0.162564,0.696156,99717.02,-4,-159,+188
111422,8.742,-4.741,3.160,-0.086666,-0.201408,0.746174,99717.02,-4,-159,+188
111432,8.579,-4.870,4.679,-0.350593,-0.215242,0.731807,99721.19,-3,-160,+187
111441,8.033,-5.118,5.062,-0.553859,-0.255683,0.667422,99721.14,-1,-162,+186
111452,7.990,-4.345,5.082,-0.803418,-0.278031,0.630174,99719.83,+0,-164,+183
111462,8.492,-2.879,4.779,-0.978482,-0.297719,0.672743,99719.05,+0,-164,+183
111472,8.894,-2.557,4.360,-1.007748,-0.306233,0.767991,99719.05,+1,-168,+182
111481,9.301,-2.658,3.354,-0.943363,-0.321664,0.871220,99724.05,+3,-170,+178
111492,9.600,-3.580,2.348,-0.858225,-0.334435,0.959550,99720.49,+5,-173,+176
111502,9.590,-4.985,1.995,-0.814592,-0.340288,0.990945,99722.01,+5,-173,+176
111512,9.476,-5.831,1.927,-0.858757,-0.333371,0.962211,99719.29,+7,-175,+174
111521,9.732,-6.233,2.229,-0.979546,-0.297187,0.910596,99719.29,+9,-178,+172
111532,10.206,-6.452,2.541,-1.127473,-0.265261,0.853661,99722.08,+10,-180,+167
111542,11.166,-5.601,1.935,-1.288702,-0.264729,0.801514,99721.92,+10,-180,+167
111552,11.492,-4.378,1.990,-1.439821,-0.325389,0.791936,99720.72,+12,-183,+164
111562,11.337,-2.792,2.632,-1.481858,-0.444050,0.872284,99722.23,+14,-185,+160
111571,11.588,-1.958,2.735,-1.384482,-0.602086,1.017018,99722.23,+16,-189,+155
111582,11.942,-2.313,2.300,-1.229638,-0.800031,1.197403,99720.10,+16,-189,+155
111592,12.507,-3.132,2.789,-1.130134,-0.995315,1.365550,99719.52,+18,-192,+152
111602,13.325,-4.015,3.836,-1.175895,-1.138453,1.516669,99720.26,+21,-194,+148
111611,14.173,-4.046,4.180,-1.308922,-1.228912,1.668321,99719.57,+24,-197,+144
111622,14.794,-3.424,3.849,-1.431840,-1.320966,1.817311,99719.57,+24,-197,+144
111632,15.248,-3.014,3.229,-1.482390,-1.429517,1.969495,99722.36,+28,-200,+140
111642,15.727,-2.965,2.997,-1.536133,-1.542324,2.105715,99723.05,+31,-203,+136
111652,16.121,-3.276,3.528,-1.653197,-1.609370,2.216394,99719.80,+37,-205,+130
111662,16.997,-3.325,5.304,-1.888390,-1.598196,2.293018,99721.05,+37,-205,+130
111672,18.660,-2.311,7.639,-2.300775,-1.511994,2.351550,99721.05,+42,-209,+124
111682,20.663,-0.135,10.821,-2.725931,-1.446012,2.402632,99721.74,+47,-212,+115
111692,21.612,2.025,14.616,-2.920151,-1.399187,2.506926,99715.93,+53,-215,+107
111702,20.803,2.593,14.398,-2.650903,-1.548710,2.701146,99718.82,+53,-215,+107
111712,17.996,-0.422,11.493,-2.314610,-1.740801,2.908136,99719.07,+61,-218,+99
111722,16.396,-8.324,7.674,-1.887858,-2.062195,3.084265,99719.07,+70,-219,+92
111732,15.586,-13.169,5.986,-1.639895,-2.298984,3.034779,99718.06,+78,-219,+88
111741,14.709,-10.377,6.659,-1.551564,-2.231406,2.843751,99718.64,+78,-219,+88
111752,13.678,-4.396,8.531,-1.262097,-1.904159,2.382412,99714.39,+85,-220,+85
111762,12.278,-0.500,8.177,-0.908776,-1.566801,1.829550,99716.91,+91,-220,+82
111772,9.481,1.797,5.122,-0.561840,-1.344379,1.453348,99716.91,+94,-220,+80
111782,3.623,-0.727,2.636,-0.545345,-1.192728,1.526247,99720.91,+98,-220,+80
111792,-1.157,-3.107,3.269,-0.181914,-0.862288,1.415568,99716.41,+98,-220,+80
111802,-3.771,-4.361,3.293,0.074031,-0.590380,0.896761,99720.75,+101,-220,+80
111812,-1.639,-3.960,4.736,0.486416,-0.455756,0.244927,99716.41,+101,-220,+82
111822,1.440,-3.761,3.810,0.518343,-0.274839,-0.438302,99716.41,+97,-222,+83
111832,2.651,-0.740,2.365,-0.142006,-0.082215,-1.074173,99722.95,+97,-222,+83
111842,2.111,3.175,0.801,-0.759253,-0.049224,-1.521677,99719.91,+92,-223,+81
111852,1.490,5.067,0.036,-1.014666,0.094978,-1.763787,99718.66,+85,-226,+78
111862,0.724,5.753,0.385,-0.759785,0.269510,-1.953218,99715.10,+76,-228,+77
111872,0.872,4.831,0.944,-0.000464,0.560574,-2.141053,99715.10,+76,-228,+77
111882,1.581,2.874,2.087,0.927003,0.889417,-2.331548,99717.97,+67,-229,+78
111892,1.810,0.508,3.020,1.603846,1.152812,-2.483200,99716.92,+58,-229,+83
111902,2.085,-1.374,3.512,1.899167,1.403967,-2.648154,99718.13,+47,-228,+90
111912,2.483,-2.403,3.270,1.866709,1.624793,-2.872172,99714.88,+47,-228,+90
111922,2.600,-2.115,2.982,1.670892,1.861050,-3.173878,99714.88,+37,-227,+96
111932,3.796,-0.669,3.316,1.577773,2.152646,-3.491015,99714.09,+24,-224,+102
111942,5.364,0.736,3.342,1.678874,2.408059,-3.719823,99715.76,+13,-222,+108
111952,6.383,0.557,3.538,1.920452,2.640591,-3.849125,99716.02,+13,-222,+108
111962,7.540,-1.000,3.393,2.139681,2.834279,-3.941713,99715.02,+1,-216,+117
111972,8.643,-2.363,2.494,2.224286,2.948682,-4.055584,99715.02,-9,-210,+126
111978,9.445,-2.849,1.788,2.257809,2.993912,-4.108263,99713.36,-9,-210,+126
111987,10.191,-2.869,1.344,2.390837,3.021581,-4.138593,99713.36,-20,-203,+134
111997,11.162,-3.244,1.694,2.619644,3.034884,-4.181694,99716.08,-29,-195,+145
112007,12.082,-4.702,2.817,2.778745,2.977948,-4.281731,99714.61,-38,-185,+155
112017,13.136,-6.189,3.765,2.804818,2.910370,-4.464244,99714.45,-38,-185,+155
112027,14.353,-7.078,4.408,2.787258,2.922077,-4.651015,99716.54,-46,-172,+167
112037,15.494,-7.584,4.962,2.833552,3.019453,-4.762758,99717.38,-53,-160,+176
112048,16.689,-9.215,5.652,3.012873,3.147691,-4.752116,99719.32,-58,-145,+188
112057,17.330,-12.130,5.325,3.216139,3.216866,-4.671767,99719.32,-58,-145,+188
112067,17.711,-14.733,3.527,3.199111,3.247196,-4.562153,99717.27,-60,-130,+198
112077,18.853,-16.482,0.728,2.972965,3.191856,-4.434446,99717.27,-60,-116,+207
112088,20.067,-18.154,-2.509,2.573882,2.983801,-4.234373,99717.00,-60,-104,+215
112097,20.014,-19.196,-4.620,2.029002,2.637398,-3.907657,99721.66,-60,-104,+215
112107,17.939,-19.494,-4.642,1.370250,2.182444,-3.424502,99720.14,-60,-94,+221
112117,13.805,-23.210,-3.359,1.107920,1.728022,-2.802998,99721.28,-58,-87,+226
112128,9.598,-28.218,-3.311,0.920085,1.357142,-2.088374,99721.28,-56,-82,+227
112138,7.026,-29.810,-6.324,0.248031,0.957528,-1.215714,99722.07,-56,-82,+227
112147,8.225,-27.119,-7.932,-0.669859,0.610592,-0.199917,99723.37,-55,-82,+229
112157,10.448,-22.613,-7.253,-1.329675,0.225344,0.782358,99722.01,-53,-88,+228
112167,12.262,-17.128,-6.509,-1.448335,-0.450967,1.632137,99722.01,-51,-93,+225
112177,14.742,-5.649,-1.936,-1.059363,-1.231572,2.204687,99722.01,-51,-93,+225
112187,24.969,29.096,15.606,0.097444,-1.556159,1.386835,99721.09,-51,-98,+223
112197,33.878,34.297,4.233,-0.072299,-0.586655,0.185331,99714.55,-54,-96,+222
112207,18.420,-4.299,-14.997,-2.279491,-1.427921,2.999659,99721.56,-51,-107,+217
112212,7.221,-15.485,1.436,0.475242,-1.573719,3.616907,99721.56,-51,-107,+217
112222,7.076,-19.911,8.228,2.864414,-1.355554,3.301898,99721.56,-47,-103,+221
112232,13.240,-12.671,3.208,2.610598,-1.152820,3.180044,99721.70,-44,-103,+224
112242,12.089,0.081,-2.054,1.876287,-1.393866,3.286466,99720.91,-44,-100,+224
112252,4.241,3.314,4.906,2.912304,-0.901132,3.243898,99719.49,-41,-97,+227
112262,-0.414,-6.199,14.167,3.411423,-1.024049,2.945384,99714.95,-37,-90,+232
112272,2.891,-18.708,6.228,2.422231,-1.433242,2.324412,99714.95,-38,-87,+234
112282,7.369,-19.059,-4.128,0.125113,-1.374710,1.700779,99724.30,-38,-87,+234
112292,10.704,-10.591,-1.654,-2.237454,-0.580802,1.267110,99721.01,-38,-92,+230
112303,11.548,-5.937,2.124,-3.142573,-0.242380,0.941459,99721.74,-37,-102,+226
112312,9.346,-4.158,2.261,-2.984536,-0.288674,0.709459,99717.40,-37,-112,+219
112322,8.333,-1.260,1.472,-2.547674,-0.102435,0.571642,99717.40,-37,-112,+219
112332,8.292,2.810,2.213,-1.953839,-0.008784,0.588138,99721.36,-36,-119,+215
112343,8.832,3.937,3.295,-0.765638,-0.169481,0.699349,99721.47,-35,-123,+214
112352,9.203,-0.064,2.470,0.448104,-0.314215,0.807899,99719.17,-33,-121,+214
112362,9.623,-3.283,1.998,0.920618,-0.334967,0.850468,99720.16,-33,-121,+214
112372,9.349,-4.484,2.281,0.857829,-0.260472,0.851000,99720.16,-32,-120,+216
112382,8.297,-5.706,4.631,0.476306,-0.148729,0.757881,99722.45,-31,-119,+217
112392,6.639,-7.688,6.355,-0.166483,-0.113609,0.504597,99719.40,-30,-120,+216
112402,6.410,-6.733,5.818,-1.047657,0.000262,0.222046,99717.73,-30,-120,+216
112412,7.319,-4.131,4.775,-1.621803,0.151381,0.089551,99722.29,-31,-123,+214
112422,8.794,-1.274,3.677,-1.695234,0.182244,0.082101,99722.29,-30,-129,+209
112433,9.976,0.856,2.252,-1.271143,0.090721,0.176817,99722.93,-29,-133,+208
112442,10.397,0.509,1.964,-0.575143,-0.060398,0.347624,99718.10,-29,-133,+208
112448,9.952,-1.051,2.149,-0.134556,-0.188105,0.480652,99721.04,-28,-134,+207
112457,9.438,-2.533,2.669,0.046361,-0.249830,0.563661,99721.04,-28,-134,+208
112467,8.803,-3.825,3.446,-0.013235,-0.269518,0.616340,99718.68,-28,-135,+208
112478,8.593,-4.535,3.878,-0.289400,-0.255151,0.617936,99718.68,-26,-135,+207
112488,8.827,-3.456,4.438,-0.573015,-0.256747,0.624321,99721.52,-25,-137,+205
112497,8.535,-2.972,4.451,-0.651767,-0.324857,0.659973,99720.59,-25,-139,+204
112507,8.667,-2.387,4.205,-0.709235,-0.400417,0.723826,99716.91,-25,-139,+204
112518,9.082,-1.765,3.600,-0.678372,-0.467462,0.820138,99716.91,-24,-141,+201
112527,9.322,-2.183,3.531,-0.596427,-0.480233,0.917514,99716.91,-23,-144,+200
112537,9.313,-3.478,2.716,-0.508629,-0.499921,0.973385,99722.66,-22,-146,+198
112547,9.045,-4.347,2.152,-0.502776,-0.503114,0.988816,99721.45,-22,-146,+198
112558,8.881,-4.705,2.269,-0.571418,-0.476508,0.967532,99723.28,-20,-148,+196
112567,8.709,-4.769,2.417,-0.677840,-0.433407,0.932413,99718.94,-19,-151,+195
112577,8.663,-4.631,2.483,-0.778941,-0.394563,0.900486,99718.94,-17,-153,+193
112587,8.728,-4.481,2.488,-0.901326,-0.363701,0.892505,99723.23,-17,-153,+193
112598,9.008,-4.594,2.449,-1.006684,-0.336031,0.897294,99718.77,-15,-156,+190
112608,9.208,-4.653,2.403,-1.113106,-0.323261,0.913789,99720.13,-14,-160,+188
112617,9.514,-4.814,2.164,-1.218464,-0.331774,0.936138,99720.13,-12,-163,+185
112627,9.650,-4.735,2.007,-1.289766,-0.375407,0.973917,99719.59,-12,-163,+185
112637,9.917,-4.559,2.511,-1.355748,-0.431279,1.001587,99720.44,-10,-167,+181
112648,10.478,-3.764,2.779,-1.387143,-0.542490,1.035110,99720.44,-8,-170,+177
112657,10.890,-3.211,3.264,-1.327014,-0.662215,1.123972,99718.70,-6,-174,+173
112667,11.375,-3.430,3.198,-1.223253,-0.780343,1.253807,99719.55,-6,-174,+173
112677,11.959,-4.270,2.672,-1.154078,-0.877719,1.367679,99719.55,-4,-178,+170
112688,12.244,-5.225,2.020,-1.199308,-0.940508,1.461330,99720.89,-1,-181,+166
112698,12.298,-5.425,1.630,-1.362133,-0.970306,1.535293,99719.78,+1,-185,+162
112707,12.641,-5.135,1.274,-1.534005,-1.001168,1.600743,99721.41,+1,-185,+162
112717,13.176,-4.671,1.642,-1.659583,-1.054380,1.675770,99718.89,+5,-188,+157
112728,13.838,-4.449,2.477,-1.737803,-1.121425,1.759843,99724.54,+8,-192,+151
112738,14.486,-5.097,3.148,-1.803784,-1.167719,1.839660,99722.09,+12,-197,+145
112747,15.343,-5.003,4.420,-1.967674,-1.188471,1.922137,99718.26,+12,-197,+145
112757,16.270,-4.129,5.784,-2.241711,-1.178361,2.026963,99718.26,+17,-200,+139
112768,18.234,-3.081,7.433,-2.501380,-1.167719,2.140302,99718.16,+23,-205,+132
112778,20.882,-1.887,9.534,-2.655692,-1.194857,2.265880,99718.16,+29,-209,+123
112787,21.301,-1.294,9.968,-2.682830,-1.298086,2.431898,99719.45,+29,-209,+123
112797,19.844,-0.899,10.621,-2.655160,-1.372049,2.544173,99718.40,+36,-212,+114
112807,18.296,-1.095,11.161,-2.452426,-1.474746,2.569715,99719.55,+45,-215,+108
112818,16.885,-4.380,10.006,-1.906482,-1.747719,2.586742,99719.60,+53,-216,+102
112828,14.166,-9.581,4.323,-1.598390,-2.072305,2.545770,99719.60,+53,-216,+102
112837,12.429,-10.347,3.525,-1.523895,-2.051553,2.564394,99722.46,+60,-218,+97
112847,10.816,-6.992,3.988,-1.076390,-1.934489,2.307917,99717.77,+67,-217,+94
112858,8.970,-3.737,4.783,-0.843858,-1.725370,1.922137,99718.70,+74,-218,+93
112868,5.582,-3.347,2.273,-0.446905,-1.584361,1.708761,99718.70,+74,-218,+93
112877,1.182,-5.190,2.845,-0.205859,-1.349700,1.685880,99718.70,+78,-218,+92
112887,-1.166,-3.811,3.415,0.342214,-0.968710,1.194211,99718.06,+84,-216,+94
112898,-2.207,-1.831,4.217,0.347535,-0.573352,0.427441,99718.64,+85,-215,+96
112908,-0.408,1.876,3.694,0.018691,-0.463206,-0.292504,99718.91,+83,-215,+95
112917,0.100,4.877,1.660,-0.419235,-0.458949,-1.002870,99716.61,+83,-216,+95
112927,0.159,5.554,0.379,-0.542152,-0.205132,-1.328522,99716.61,+78,-218,+95
112937,-0.143,5.025,0.448,-0.280354,0.088060,-1.487090,99717.32,+73,-219,+93
112948,-0.240,3.978,0.867,0.271444,0.328574,-1.637145,99718.32,+67,-220,+95
112958,0.479,2.610,1.067,0.858893,0.530775,-1.830301,99717.63,+67,-220,+95
112967,0.925,1.353,1.392,1.284048,0.753729,-2.047402,99715.16,+61,-219,+99
112977,1.777,0.604,1.898,1.539993,0.997968,-2.265035,99713.69,+55,-218,+104
112988,2.362,0.198,1.594,1.844360,1.179949,-2.491714,99715.00,+46,-216,+111
112998,3.179,0.318,0.828,2.288671,1.358206,-2.694447,99715.00,+46,-216,+111
113007,4.695,-0.055,-0.608,2.769167,1.515178,-2.892392,99716.94,+38,-214,+120
113017,5.717,-2.207,-1.734,3.027772,1.564133,-3.077566,99715.78,+30,-209,+129
113028,7.134,-4.234,-2.815,2.928267,1.595527,-3.271254,99715.78,+19,-205,+139
113038,7.943,-6.196,-1.746,2.541424,1.621600,-3.497401,99720.52,+19,-205,+139
113047,7.636,-9.235,0.478,1.804452,1.563600,-3.767713,99718.27,+10,-199,+147
113057,7.637,-10.311,0.751,1.053113,1.606701,-4.109859,99713.87,+0,-196,+152
113068,8.917,-9.082,1.232,0.550801,1.838169,-4.292905,99715.96,-11,-191,+154
113078,10.662,-8.076,0.834,0.465664,1.992481,-4.205107,99719.77,-11,-191,+154
113088,11.828,-8.309,-0.837,0.788122,2.039307,-3.939584,99717.89,-19,-186,+159
113097,12.452,-8.182,-2.413,1.370250,1.964279,-3.617126,99718.09,-26,-180,+165
113107,12.790,-8.044,-2.887,2.070507,1.767931,-3.340429,99717.16,-32,-170,+173
113118,13.088,-7.946,-2.246,2.725002,1.494426,-3.154190,99717.16,-32,-170,+173
113128,12.677,-8.609,-1.262,3.235827,1.236885,-3.036062,99717.16,-37,-160,+183
113137,11.773,-9.434,0.127,3.549240,1.042665,-2.959438,99719.63,-40,-147,+192
113147,11.187,-9.613,1.460,3.564671,0.930922,-2.917401,99720.98,-46,-135,+201
113158,10.762,-9.364,1.813,3.299148,0.876647,-2.897181,99719.47,-46,-135,+201
113168,10.571,-9.637,2.140,3.032561,0.885161,-2.808319,99716.53,-49,-123,+209
113178,10.914,-9.751,2.534,2.852708,0.921344,-2.730631,99716.53,-51,-110,+215
113187,11.252,-10.146,1.681,2.614323,0.905381,-2.690722,99721.34,-51,-100,+221
113198,11.585,-9.993,1.383,2.319534,0.876115,-2.615695,99717.85,-51,-100,+221
113208,11.680,-9.105,1.108,2.067314,0.852702,-2.536411,99716.68,-54,-89,+227
113218,11.286,-8.919,0.846,1.897571,0.825032,-2.404979,99716.68,-55,-80,+231
113227,11.205,-8.444,1.151,1.869369,0.775014,-2.238961,99716.68,-55,-71,+235
113238,11.166,-7.714,1.667,1.947589,0.714353,-2.093163,99720.59,-55,-71,+235
113248,11.267,-7.453,2.136,1.972598,0.677106,-1.953218,99721.52,-55,-61,+239
113258,11.444,-7.503,2.250,1.857131,0.637197,-1.831365,99719.23,-55,-52,+242
113267,11.291,-7.529,2.206,1.610232,0.610060,-1.738778,99719.96,-54,-45,+245
113277,10.915,-7.575,2.398,1.246801,0.618042,-1.637677,99719.96,-54,-45,+245
113288,10.673,-7.605,2.712,0.793975,0.653693,-1.503586,99721.96,-54,-38,+248
113298,10.525,-7.592,2.877,0.290600,0.686152,-1.333843,99721.54,-52,-35,+250
113308,10.312,-7.017,2.553,-0.203730,0.678170,-1.135366,99718.09,-51,-34,+250
113317,9.996,-5.983,1.934,-0.610262,0.635601,-0.892192,99719.15,-51,-34,+250
113328,9.696,-5.246,1.571,-0.898134,0.624427,-0.653274,99722.76,-49,-34,+250
113338,9.572,-5.116,1.661,-1.033290,0.605803,-0.423935,99720.76,-48,-36,+250
113347,9.104,-4.684,1.439,-1.068409,0.558977,-0.247807,99720.76,-46,-40,+250
113357,8.731,-4.078,1.122,-1.056170,0.502574,-0.111587,99720.29,-46,-40,+250
113368,8.694,-3.282,1.400,-0.972097,0.422757,0.009734,99718.41,-44,-43,+251
113378,9.001,-2.370,1.890,-0.828959,0.340280,0.140101,99718.41,-43,-45,+250
113388,9.095,-1.136,1.516,-0.712427,0.251950,0.277918,99720.91,-42,-48,+250
113397,9.168,-0.198,0.780,-0.542152,0.155106,0.378487,99721.43,-39,-50,+250
113408,9.126,0.032,0.374,-0.379859,0.020482,0.475331,99720.70,-39,-50,+250
113418,9.071,0.378,0.269,-0.121786,-0.126912,0.558340,99718.76,-40,-50,+250
113428,9.395,0.445,0.390,0.181517,-0.254619,0.634431,99718.76,-39,-50,+250
113438,9.754,-0.366,0.908,0.502911,-0.349334,0.730743,99720.93,-40,-49,+250
113447,10.266,-1.216,0.982,0.788122,-0.433407,0.896761,99719.99,-40,-49,+250
113458,9.918,-1.717,0.005,0.958929,-0.562710,1.023404,99718.90,-39,-46,+250
113468,9.069,-4.161,0.753,1.074397,-0.622306,1.209110,99718.90,-40,-44,+252
113477,9.488,-6.849,3.307,1.322892,-0.678178,1.596486,99718.90,-39,-42,+253
113487,10.164,-8.020,2.312,1.724103,-1.014471,1.769421,99724.66,-39,-42,+253
113498,10.389,-8.573,-0.448,1.990690,-1.440691,1.944486,99721.32,-42,-36,+253
113508,10.614,-8.986,-0.985,2.151387,-1.591278,2.262687,99721.48,-44,-32,+253
113518,10.950,-8.166,1.400,1.972598,-1.543388,2.485109,99722.10,-47,-29,+253
113527,10.016,-8.372,4.864,1.353755,-1.335333,2.627182,99722.10,-47,-29,+253
113538,9.014,-4.838,6.786,0.488012,-1.082581,2.612815,99719.30,-48,-29,+253
113548,8.630,2.063,6.333,-0.128171,-0.825040,2.327605,99719.83,-49,-32,+251
113558,9.615,9.110,4.828,-0.205327,-0.563774,1.830082,99718.67,-49,-36,+250
113568,8.115,9.993,5.581,-0.065382,-0.216839,1.222413,99718.67,-49,-36,+250
113577,7.946,9.291,2.388,0.082545,-0.076894,0.534927,99719.88,-48,-36,+250
113588,10.417,6.284,-2.121,0.002728,-0.031665,0.100193,99719.88,-49,-36,+250
113598,12.527,0.090,-2.517,-0.051015,-0.036454,0.185863,99720.51,-48,-36,+250
113608,14.748,-4.211,-0.500,0.210251,-0.019958,0.449257,99721.45,-48,-36,+250
113617,14.845,-3.412,1.274,0.626361,0.005051,0.560468,99720.15,-48,-36,+249
113628,12.347,-0.458,2.258,1.113241,0.050812,0.517367,99720.15,-47,-33,+252
113638,9.759,-0.365,3.185,1.356415,-0.010912,0.508321,99720.86,-46,-29,+252
113648,7.866,-2.926,3.727,1.210085,-0.086472,0.487569,99723.11,-46,-29,+252
113658,7.155,-4.997,4.678,0.840801,-0.064655,0.401367,99723.38,-46,-25,+253
113668,7.562,-5.407,5.229,0.276233,0.092317,0.269404,99720.05,-46,-25,+253
113678,8.220,-4.236,4.894,-0.294189,0.210445,0.126267,99719.94,-44,-26,+254
113688,8.297,-2.701,3.746,-0.672519,0.254611,0.020909,99721.09,-44,-26,+254
113697,8.379,-1.685,2.524,-0.874189,0.288666,-0.025385,99721.09,-43,-29,+253
113708,9.095,-1.028,1.801,-0.857693,0.305161,-0.026449,99718.73,-42,-31,+253
113718,10.454,-0.125,0.897,-0.710831,0.275363,0.012395,99718.42,-42,-34,+253
113728,11.039,-0.020,0.471,-0.462868,0.207253,0.100725,99718.42,-42,-34,+253
113738,10.845,-0.494,0.915,-0.126042,0.164684,0.202890,99722.33,-40,-36,+252
113747,10.374,-0.554,1.832,0.154912,0.143932,0.281110,99719.28,-40,-36,+253
113758,9.605,-0.836,2.751,0.318269,0.126904,0.342303,99720.02,-39,-34,+253
113768,9.178,-1.681,3.953,0.364031,0.127968,0.402964,99719.59,-39,-34,+253
113778,8.984,-2.395,4.800,0.262398,0.113069,0.439679,99719.59,-38,-34,+254
113788,8.606,-2.598,4.405,0.030930,0.089657,0.430633,99720.34,-38,-34,+254
113798,8.560,-2.445,3.686,-0.291529,0.085400,0.419991,99716.58,-37,-36,+254
113808,8.845,-2.288,3.488,-0.595363,0.077418,0.431165,99722.81,-37,-36,+254
113818,9.289,-1.944,2.960,-0.770427,0.065179,0.452982,99722.81,-36,-38,+254
113827,9.757,-1.169,1.921,-0.787987,0.050812,0.492890,99722.81,-35,-41,+253
113838,10.004,-0.284,1.819,-0.633143,0.052409,0.588138,99724.27,-34,-44,+252
113848,9.845,-0.313,2.082,-0.364960,-0.009848,0.695092,99721.34,-34,-44,+252
113858,9.239,-0.828,2.347,-0.006850,-0.089664,0.749899,99721.71,-34,-46,+252
113868,9.061,-0.889,3.158,0.274636,-0.126380,0.799385,99720.35,-33,-46,+252
113878,8.934,-2.345,3.555,0.420966,-0.164692,0.828651,99720.35,-32,-46,+253
113888,8.627,-4.162,3.686,0.438526,-0.204068,0.787679,99722.17,-32,-44,+253
113898,8.601,-4.777,3.756,0.275700,-0.220563,0.683385,99720.75,-32,-44,+253
113908,8.729,-4.769,3.612,0.028802,-0.196086,0.566853,99721.84,-31,-44,+252
113918,8.771,-4.371,3.214,-0.190960,-0.175866,0.454578,99721.84,-31,-46,+252
113928,9.113,-2.835,3.164,-0.356978,-0.121059,0.383276,99720.16,-31,-48,+252
113938,9.317,-2.670,3.422,-0.443712,-0.073701,0.362523,99720.16,-31,-48,+252
113948,9.419,-3.104,2.848,-0.370813,-0.109885,0.335386,99722.61,-32,-49,+251
113958,9.348,-2.835,3.137,-0.309620,-0.156178,0.303459,99719.78,-32,-51,+251
113968,9.177,-2.997,3.093,-0.218629,-0.177995,0.281110,99723.92,-33,-52,+250
113974,9.143,-3.272,2.812,-0.160097,-0.187041,0.256101,99723.92,-33,-52,+250
113983,9.108,-3.603,3.016,-0.182978,-0.176930,0.218854,99721.11,-32,-52,+250
113993,8.952,-3.964,2.530,-0.256941,-0.168417,0.160854,99720.89,-32,-52,+250
114002,9.149,-3.679,2.158,-0.326648,-0.146068,0.109771,99721.67,-33,-54,+250
114013,9.310,-2.980,1.985,-0.336226,-0.141811,0.069863,99718.53,-33,-55,+249
114023,8.984,-2.652,1.662,-0.276629,-0.162031,0.068267,99718.53,-33,-56,+249
114033,8.710,-2.542,1.735,-0.181914,-0.185976,0.081037,99721.75,-33,-56,+249
114043,8.822,-2.697,1.766,-0.117529,-0.207261,0.098065,99720.75,-35,-57,+249
114053,9.049,-2.991,2.162,-0.122850,-0.221628,0.117753,99719.66,-35,-56,+247
114063,9.119,-2.640,2.944,-0.188831,-0.230141,0.147019,99719.55,-35,-58,+248
114073,9.703,-1.859,4.014,-0.228740,-0.222692,0.202358,99719.55,-35,-58,+248
114083,9.809,-1.995,4.306,-0.194152,-0.295059,0.243331,99721.59,-36,-59,+247
114093,9.490,-2.015,3.501,-0.111143,-0.366362,0.300266,99722.11,-37,-60,+247
114103,9.635,-2.652,2.147,0.018691,-0.419573,0.348688,99720.59,-37,-60,+246
114113,9.865,-2.865,1.251,0.107554,-0.504178,0.385404,99720.19,-39,-60,+246
114123,9.788,-2.887,1.674,0.168746,-0.569627,0.408285,99720.19,-39,-58,+247
114134,9.646,-3.246,2.326,0.170875,-0.620710,0.422120,99722.95,-40,-59,+245
114143,9.627,-3.524,2.379,0.148526,-0.635609,0.422652,99720.81,-41,-60,+246
114153,9.682,-3.272,1.873,0.104893,-0.655297,0.423716,99719.92,-44,-60,+245
114163,10.037,-3.035,1.945,0.099040,-0.696802,0.435954,99716.98,-44,-60,+245
114172,10.122,-2.925,2.088,0.124049,-0.734582,0.454578,99716.98,-44,-59,+243
114183,9.920,-3.078,2.028,0.132031,-0.745756,0.485441,99722.05,-47,-60,+244
114193,9.966,-3.180,1.619,0.101701,-0.751077,0.507257,99719.91,-48,-60,+244
114203,10.072,-3.309,1.061,0.045829,-0.756398,0.520560,99719.96,-48,-60,+244
114213,9.985,-3.083,0.708,0.030930,-0.775554,0.532266,99716.66,-49,-61,+242
114223,10.036,-3.155,0.692,0.057003,-0.814930,0.549294,99716.66,-52,-61,+242
114233,9.799,-3.350,1.158,0.061260,-0.856435,0.555679,99720.92,-53,-61,+240
114243,9.470,-3.378,2.142,0.052746,-0.899003,0.562597,99723.13,-53,-61,+240
114253,9.337,-3.690,2.859,0.050086,-0.953279,0.584945,99717.94,-56,-61,+239
114263,9.245,-3.748,3.200,0.017627,-0.996912,0.608890,99718.41,-58,-62,+239
114273,9.033,-3.725,3.319,-0.055804,-1.057572,0.645074,99718.41,-60,-63,+237
114283,9.146,-3.393,3.295,-0.138813,-1.112912,0.696688,99720.93,-60,-63,+237
114293,9.421,-3.573,3.113,-0.155308,-1.175701,0.747771,99718.77,-63,-65,+236
114304,9.986,-3.671,2.955,-0.173400,-1.220398,0.797257,99719.77,-66,-66,+234
114313,10.667,-4.163,2.322,-0.212776,-1.258710,0.831844,99720.82,-68,-68,+232
114323,11.085,-4.279,1.925,-0.294721,-1.295425,0.851000,99720.82,-68,-68,+232
114333,11.342,-3.634,2.197,-0.389437,-1.352361,0.871220,99719.66,-70,-70,+231
114343,11.428,-3.007,2.470,-0.412850,-1.440691,0.926027,99721.71,-74,-73,+228
114353,11.345,-2.802,2.577,-0.385712,-1.544453,1.013826,99716.37,-76,-75,+226
114363,11.284,-2.948,2.925,-0.359639,-1.672691,1.112798,99718.30,-76,-75,+226
114373,11.291,-2.809,3.579,-0.362831,-1.798269,1.235715,99718.30,-79,-78,+222
114383,11.385,-3.214,4.348,-0.354317,-1.905223,1.376724,99720.82,-83,-81,+220
114393,11.774,-3.652,4.837,-0.395290,-1.987168,1.493788,99719.04,-87,-85,+216
114403,12.539,-4.072,5.556,-0.495859,-2.045700,1.567220,99717.52,-87,-85,+216
114413,14.392,-4.565,7.691,-0.705510,-2.072305,1.570944,99715.43,-89,-88,+213
114423,16.739,-4.248,10.221,-0.936446,-2.059003,1.532100,99715.43,-93,-93,+208
114434,17.335,-3.907,10.404,-1.097675,-2.038783,1.498577,99716.95,-96,-98,+203
114444,15.164,-3.543,9.684,-1.241699,-2.046942,1.412553,99717.58,-96,-98,+203
114453,12.301,-3.556,7.542,-1.440886,-2.078691,1.280945,99717.47,-99,-103,+197
114463,10.494,-5.097,4.802,-1.629252,-2.218636,1.161752,99716.73,-102,-108,+191
114473,10.278,-6.613,3.514,-1.448867,-2.394232,1.203789,99716.73,-105,-114,+185
114483,11.159,-7.035,2.688,-0.903455,-2.568232,1.359697,99718.56,-105,-114,+185
114493,11.650,-6.590,2.937,-0.220226,-2.716690,1.294247,99718.81,-108,-116,+179
114503,10.515,-3.362,2.604,0.403407,-2.845461,0.856321,99718.50,-113,-117,+175
114513,9.229,-1.192,2.987,1.052581,-2.937516,0.590798,99715.52,-118,-114,+172
114523,8.096,1.090,4.069,1.822544,-2.907718,0.343367,99715.52,-118,-114,+172
114533,7.021,2.022,5.306,2.496194,-2.809810,0.215661,99718.25,-124,-108,+170
114543,5.937,2.326,5.939,3.131001,-2.778415,0.090083,99715.69,-131,-100,+171
114553,5.242,1.715,5.799,3.656726,-2.775223,-0.057311,99716.69,-136,-90,+171
114564,4.915,0.476,5.653,4.048359,-2.720947,-0.242486,99713.48,-136,-90,+171
114573,4.542,-0.992,5.598,4.289937,-2.625168,-0.460651,99713.48,-143,-78,+172
114583,4.340,-1.982,5.967,4.392634,-2.496929,-0.705421,99716.55,-149,-64,+172
114593,4.756,-2.519,6.109,4.410193,-2.368159,-0.986907,99715.24,-156,-50,+171
114604,5.375,-2.770,6.164,4.383588,-2.291535,-1.250834,99715.62,-162,-50,+170
114613,5.730,-2.705,6.575,4.396358,-2.258544,-1.472191,99715.62,-162,-33,+170
114623,5.582,-2.735,6.925,4.498524,-2.215443,-1.661622,99715.62,-168,-14,+166
114633,5.467,-2.968,7.109,4.582597,-2.109021,-1.853182,99717.48,-172,+2,+161
114643,5.439,-3.473,7.205,4.588450,-1.973865,-2.058044,99714.13,-177,+22,+157
114654,5.532,-4.062,7.559,4.485221,-1.803590,-2.263970,99716.38,-177,+22,+157
114663,5.577,-4.964,8.429,4.352193,-1.605645,-2.487457,99711.99,-178,+42,+150
114673,5.630,-5.548,9.466,4.258010,-1.367792,-2.688594,99711.99,-178,+61,+144
114679,5.530,-5.784,10.005,4.208524,-1.169315,-2.803530,99714.03,-178,+61,+144
114689,5.390,-6.447,10.297,4.150524,-0.938380,-2.898245,99714.03,-176,+80,+138
114699,5.374,-7.574,10.390,3.999936,-0.597829,-3.045640,99713.41,-172,+98,+131
114708,5.596,-8.267,10.385,3.707276,-0.215774,-3.222832,99713.61,-172,+98,+131
114718,5.874,-8.390,10.333,3.345442,0.190757,-3.390979,99712.45,-166,+114,+126
114728,6.046,-8.151,10.225,3.004359,0.614317,-3.534117,99715.82,-159,+128,+122
114739,6.401,-7.817,9.966,2.699992,1.034151,-3.640538,99714.73,-151,+142,+120
114748,6.905,-7.484,9.284,2.463736,1.407160,-3.716098,99714.04,-151,+142,+120
114758,7.617,-7.167,8.459,2.308892,1.755692,-3.743768,99714.04,-141,+154,+119
114768,8.583,-7.141,8.020,2.280690,2.091453,-3.722483,99713.57,-132,+164,+119
114779,9.573,-7.539,7.716,2.319534,2.383049,-3.690557,99713.57,-121,+173,+121
114788,10.412,-8.135,7.543,2.350396,2.620370,-3.656502,99716.29,-121,+173,+121
114798,11.109,-9.093,7.354,2.377534,2.828425,-3.599034,99716.02,-110,+181,+124
114808,11.930,-10.351,7.121,2.417974,3.001893,-3.496869,99715.40,-99,+190,+126
114819,13.132,-11.900,6.377,2.497791,3.166847,-3.348942,99711.48,-87,+197,+127
114829,15.135,-15.197,1.904,2.360506,3.160994,-3.252630,99711.48,-76,+197,+130
114838,14.578,-14.861,-1.855,1.903956,2.915159,-3.420777,99719.91,-76,+204,+130
114848,14.451,-13.486,-3.794,1.483590,2.650701,-3.352667,99718.00,-65,+211,+133
114859,13.799,-14.760,-3.360,1.340452,2.317600,-3.044043,99719.09,-56,+214,+134
114869,12.205,-17.452,-2.084,1.341516,1.894573,-2.530025,99719.09,-48,+219,+136
114878,10.030,-19.993,-1.647,1.337792,1.385344,-1.939384,99719.09,-48,+219,+136
114888,7.807,-21.721,-2.797,1.230305,1.003821,-1.338100,99720.20,-43,+223,+136
114898,6.839,-23.265,-4.819,0.937645,0.815454,-0.755971,99719.77,-40,+224,+136
114909,7.923,-23.926,-6.289,0.405003,0.776610,-0.243018,99720.82,-39,+225,+138
114918,8.956,-22.325,-8.640,-0.182978,0.645179,0.290156,99719.77,-39,+225,+138
114928,9.964,-18.653,-8.877,-0.603345,0.225344,0.899422,99719.77,-39,+224,+140
114938,12.852,-12.937,-7.357,-0.462336,-0.416380,1.516669,99724.48,-45,+221,+142
114949,24.209,8.879,2.701,0.367755,-1.235829,1.513477,99724.84,-51,+221,+139
114959,34.221,27.476,3.787,1.085039,-1.290636,0.452450,99718.91,-51,+221,+139
114968,20.449,0.016,-2.226,-0.661877,-1.141113,2.529274,99718.91,-55,+219,+138
114978,6.950,-16.377,-4.484,1.075461,-1.286379,2.951237,99721.61,-64,+215,+135
114989,9.566,-22.707,-0.214,2.039112,-1.134728,2.952302,99722.70,-72,+213,+129
114999,13.443,-8.182,0.151,1.226581,-1.121957,2.901751,99722.70,-72,+213,+129
115008,7.716,2.476,-0.225,0.807810,-0.706912,2.565458,99722.70,-80,+211,+127
115018,2.534,-1.410,4.427,1.376103,-0.543022,2.409017,99720.03,-86,+209,+124
115028,3.492,-10.198,7.273,1.880543,-0.808545,2.156797,99720.03,-90,+207,+119
115039,7.832,-13.536,3.291,1.002562,-1.008086,1.595954,99722.44,-90,+207,+119
115049,8.587,-10.648,-1.385,-0.830556,-0.686160,1.115458,99718.88,-95,+204,+117
115058,9.764,-4.891,1.290,-2.173069,-0.121059,0.955294,99718.83,-97,+199,+122
115068,9.616,-2.275,3.137,-2.451894,-0.014637,0.849404,99718.78,-99,+194,+126
115079,8.773,-2.251,1.819,-1.874023,0.032721,0.704670,99725.93,-99,+194,+126
115089,9.202,0.096,1.265,-1.101400,0.041767,0.655716,99720.29,-100,+191,+129
115098,9.147,0.998,2.687,-0.453822,-0.000802,0.742450,99720.34,-102,+187,+130
115108,8.795,-1.471,3.756,0.171939,-0.084875,0.797789,99720.34,-103,+187,+129
115119,8.967,-2.934,3.484,0.490673,-0.191297,0.782358,99716.73,-103,+187,+129
115129,8.864,-3.931,2.945,0.418306,-0.206729,0.749367,99716.73,-105,+185,+128
115138,8.727,-4.938,3.545,0.181517,-0.170013,0.668486,99721.38,-107,+184,+127
115148,8.067,-5.390,4.527,-0.121253,-0.155114,0.543441,99719.34,-108,+183,+127
115159,7.489,-5.497,4.916,-0.486813,-0.116270,0.407220,99720.91,-108,+183,+127
115169,7.640,-4.970,4.257,-0.869932,-0.055609,0.282707,99719.34,-109,+181,+129
115179,8.115,-3.667,3.850,-1.149822,0.007712,0.216725,99719.34,-110,+179,+130
115188,8.571,-1.908,3.349,-1.208354,0.046023,0.231092,99718.79,-110,+176,+132
115198,9.471,-0.484,2.566,-1.041803,0.040702,0.333257,99720.34,-110,+176,+132
115209,9.963,-0.349,2.682,-0.652831,-0.028472,0.484909,99720.04,-110,+174,+134
115219,9.818,-0.459,3.265,-0.213840,-0.134894,0.646670,99720.04,-111,+172,+135
115228,9.014,-0.628,4.107,0.050618,-0.206729,0.821734,99720.04,-113,+170,+134
115238,8.354,-2.737,4.549,0.069774,-0.243976,0.924431,99722.15,-113,+170,+134
115249,8.300,-4.158,4.042,-0.007382,-0.318472,0.973385,99722.73,-115,+168,+134
115259,8.448,-4.612,3.757,-0.179785,-0.343481,0.996266,99723.46,-118,+166,+134
115268,8.849,-4.665,3.492,-0.392097,-0.354655,0.989881,99720.59,-120,+162,+132
115278,9.043,-3.341,3.130,-0.575675,-0.336563,1.017018,99720.59,-120,+162,+132
115289,9.064,-2.930,3.562,-0.677840,-0.293995,1.073422,99720.78,-122,+160,+134
115299,9.058,-3.564,2.804,-0.632079,-0.303041,1.125569,99718.69,-124,+156,+134
115309,9.393,-3.933,1.831,-0.577271,-0.325921,1.178247,99717.75,-127,+152,+135
115318,9.590,-4.231,1.705,-0.565033,-0.346673,1.205385,99717.75,-129,+148,+136
115329,9.131,-4.855,1.903,-0.583125,-0.363701,1.207513,99723.47,-129,+148,+136
115339,9.069,-4.882,2.027,-0.674648,-0.349334,1.202724,99722.89,-131,+145,+135
115349,9.575,-4.650,2.561,-0.785859,-0.327518,1.222413,99722.89,-133,+140,+136
115358,10.296,-4.587,2.642,-0.799161,-0.330710,1.243165,99718.44,-136,+135,+136
115368,10.723,-5.294,2.702,-0.797565,-0.348270,1.284137,99721.95,-136,+135,+136
