39994,8.919,-2.632,3.068,-0.017245,0.012023,-0.001682,100257.38,-116,+10,-259
40004,8.897,-2.555,3.119,-0.006603,0.017876,0.001511,100261.84,-116,+10,-259
40013,8.909,-2.590,3.067,0.009360,0.021069,0.005236,100263.49,-116,+11,-259
40024,9.005,-2.639,3.149,0.020002,0.018409,0.010557,100260.79,-117,+11,-258
40034,8.962,-2.661,3.129,0.021599,0.014152,0.013217,100261.52,-117,+10,-258
40044,8.970,-2.662,3.119,0.021067,0.018941,0.016410,100261.84,-117,+10,-258
40054,8.925,-2.714,3.146,0.019470,0.022665,0.016942,100262.93,-117,+11,-258
40064,8.934,-2.682,3.139,0.013617,0.027987,0.013749,100262.93,-117,+10,-259
40074,8.928,-2.669,3.133,0.009360,0.031179,0.012153,100259.02,-117,+11,-258
40084,8.902,-2.628,3.196,0.008828,0.033840,0.011621,100261.32,-117,+11,-258
40093,8.931,-2.611,3.167,0.012021,0.035436,0.011089,100261.32,-115,+10,-257
40103,8.980,-2.597,3.150,0.016278,0.031711,0.014282,100261.83,-116,+11,-257
40114,8.938,-2.616,3.133,0.023195,0.031711,0.018006,100261.63,-117,+11,-257
40124,8.931,-2.655,3.159,0.026388,0.034372,0.020135,100261.31,-117,+11,-257
40134,9.004,-2.621,3.153,0.023727,0.031179,0.021731,100259.95,-117,+11,-258
40143,8.969,-2.586,3.146,0.030113,0.026390,0.024924,100259.95,-117,+11,-257
40154,8.904,-2.716,3.207,0.043415,0.032243,0.027052,100263.28,-117,+10,-258
40164,8.894,-2.862,3.239,0.027984,0.035436,0.021731,100260.70,-118,+9,-259
40174,8.857,-2.762,3.139,-0.002878,0.032776,0.013749,100257.47,-118,+9,-259
40183,8.909,-2.623,3.141,-0.011924,0.040225,0.008428,100257.47,-118,+9,-257
40194,8.901,-2.678,3.183,-0.005539,0.035968,0.007896,100257.47,-117,+9,-257
40204,8.882,-2.678,3.222,0.001911,0.027987,0.008428,100262.55,-118,+10,-258
40214,8.907,-2.634,3.161,0.009360,0.024262,0.012685,100258.38,-118,+10,-258
40223,8.940,-2.616,3.162,0.021067,0.022133,0.016410,100260.41,-117,+10,-257
40233,8.909,-2.644,3.186,0.033305,0.019473,0.022263,100260.52,-118,+9,-257
40244,8.896,-2.653,3.228,0.037562,0.018409,0.025988,100260.52,-118,+9,-257
40254,8.913,-2.693,3.168,0.034902,0.021069,0.026520,100263.05,-118,+9,-257
40264,8.915,-2.693,3.238,0.031709,0.024794,0.024392,100258.77,-117,+9,-257
40273,8.922,-2.694,3.286,0.025856,0.023730,0.021731,100262.68,-118,+9,-257
40284,8.871,-2.723,3.232,0.017874,0.026390,0.020135,100262.68,-118,+9,-258
40294,8.885,-2.717,3.153,0.011489,0.030647,0.019603,100261.62,-118,+9,-258
40304,8.852,-2.731,3.186,0.004571,0.034372,0.019603,100261.62,-118,+9,-256
40313,8.878,-2.740,3.216,0.000314,0.037032,0.018538,100256.98,-118,+9,-256
40324,8.872,-2.690,3.192,0.001379,0.041289,0.019071,100258.91,-118,+8,-257
40334,8.909,-2.716,3.227,-0.003410,0.048207,0.021199,100257.60,-118,+8,-257
40339,8.950,-2.724,3.198,-0.008731,0.054060,0.022263,100257.60,-118,+9,-256
40349,8.939,-2.652,3.155,-0.016181,0.057253,0.022795,100262.29,-118,+9,-256
40358,8.919,-2.538,3.255,-0.012456,0.050867,0.027584,100260.46,-118,+9,-257
40369,8.937,-2.432,3.288,0.003507,0.024794,0.039823,100261.34,-118,+8,-256
40379,8.904,-2.510,3.293,0.026920,0.000849,0.052593,100259.37,-118,+8,-257
40389,8.889,-2.617,3.250,0.039158,-0.002344,0.063768,100259.37,-118,+8,-257
40398,9.000,-2.665,3.214,0.045012,0.007766,0.067493,100261.72,-118,+7,-255
40409,8.951,-2.684,3.268,0.045012,0.013620,0.072814,100261.77,-118,+8,-257
40419,8.884,-2.628,3.215,0.046076,0.017344,0.076538,100260.98,-118,+7,-256
40429,8.878,-2.677,3.241,0.046608,0.023198,0.078135,100257.28,-118,+7,-255
40438,8.884,-2.817,3.156,0.043415,0.023730,0.078135,100257.28,-118,+7,-255
40449,8.853,-2.671,3.251,0.043947,0.025858,0.080263,100263.52,-118,+6,-256
40459,8.852,-2.530,3.247,0.064168,0.015748,0.082924,100256.69,-119,+6,-255
40469,8.854,-2.470,3.188,0.090773,-0.011390,0.093566,100256.73,-119,+5,-255
40479,8.819,-2.311,3.311,0.121635,-0.055023,0.110061,100257.89,-119,+5,-255
40488,8.774,-2.282,2.959,0.156223,-0.081628,0.133474,100257.89,-118,+6,-256
40499,8.842,-2.274,2.694,0.206773,-0.063004,0.157951,100260.52,-118,+4,-256
40509,8.947,-2.222,3.156,0.258388,-0.064068,0.182960,100258.78,-118,+3,-256
40519,9.003,-2.051,3.274,0.325433,-0.076839,0.214355,100259.94,-118,+3,-256
40528,9.083,-2.385,3.480,0.402057,-0.062472,0.236171,100258.47,-118,+2,-257
40539,8.971,-3.150,3.548,0.412699,-0.059279,0.240428,100258.47,-118,+0,-257
40549,8.918,-3.479,3.329,0.329690,-0.042252,0.215951,100263.19,-118,+0,-257
40559,8.703,-3.575,3.343,0.214223,-0.016711,0.182428,100261.78,-118,+0,-257
40568,7.998,-3.233,3.065,0.119507,-0.001812,0.144116,100261.31,-118,+0,-257
40579,7.685,-2.869,3.119,0.108865,0.013087,0.108465,100260.53,-118,-1,-257
40589,7.900,-2.896,3.082,0.174314,-0.003940,0.082392,100260.53,-118,-3,-257
40599,8.206,-3.235,3.346,0.256791,-0.007133,0.055254,100261.41,-118,-3,-257
40609,8.244,-3.503,3.683,0.284993,-0.016711,0.020135,100263.28,-118,-2,-256
40619,8.354,-3.951,3.720,0.211562,-0.009793,-0.029351,100259.42,-118,-4,-256
40629,9.090,-4.184,4.000,0.055122,0.015216,-0.102783,100257.13,-118,-3,-256
40639,9.984,-3.998,4.315,-0.103979,-0.006068,-0.175682,100257.13,-118,-3,-256
40649,9.744,-3.969,4.052,-0.198163,-0.025757,-0.239535,100261.98,-118,-2,-256
40658,9.159,-3.736,3.745,-0.263080,-0.037463,-0.298067,100261.82,-117,-1,-257
40669,9.132,-3.440,3.751,-0.308309,-0.054490,-0.353406,100261.91,-118,+0,-257
40679,9.181,-3.281,3.687,-0.342364,-0.075243,-0.393314,100258.63,-118,+0,-257
40689,9.226,-2.971,3.554,-0.384401,-0.083224,-0.415663,100258.63,-117,+2,-257
40694,9.113,-2.664,3.550,-0.401428,-0.088546,-0.423645,100265.76,-117,+5,-257
40704,9.048,-2.186,3.610,-0.400364,-0.086417,-0.417259,100265.76,-117,+5,-257
40714,8.903,-2.200,3.462,-0.387594,-0.085885,-0.391718,100262.95,-117,+6,-258
40724,8.805,-2.154,3.019,-0.403557,-0.075775,-0.360856,100261.95,-117,+7,-259
40734,8.934,-1.659,2.961,-0.422181,-0.055023,-0.319883,100258.93,-116,+10,-258
40744,9.164,-1.625,2.868,-0.359392,-0.063004,-0.266140,100261.62,-116,+10,-258
40754,8.944,-1.744,2.636,-0.271594,-0.078435,-0.201223,100259.27,-116,+11,-259
40764,8.725,-1.940,2.763,-0.189649,-0.084289,-0.142691,100260.73,-116,+11,-259
40774,8.754,-2.280,2.849,-0.120475,-0.089078,-0.102250,100260.73,-117,+12,-259
40784,8.610,-2.574,3.069,-0.110897,-0.077371,-0.075113,100259.12,-117,+12,-259
40794,8.676,-2.615,3.127,-0.154530,-0.056087,-0.060746,100259.12,-116,+13,-260
40804,8.859,-2.591,3.073,-0.206144,-0.026821,-0.051168,100258.27,-115,+14,-260
40814,8.873,-2.493,2.941,-0.274254,0.005638,-0.035205,100259.32,-115,+14,-259
40824,9.077,-1.972,2.951,-0.311502,0.019473,-0.009131,100261.55,-115,+14,-259
40835,9.214,-1.712,2.988,-0.248713,0.016280,0.035034,100259.05,-116,+15,-260
40844,9.223,-1.909,2.845,-0.150805,0.002445,0.089841,100259.05,-116,+15,-259
40854,9.228,-2.192,2.897,-0.095997,-0.005004,0.133474,100261.02,-116,+14,-259
40864,9.219,-2.281,3.065,-0.066199,-0.025224,0.169658,100261.46,-116,+14,-259
40875,9.131,-2.099,3.247,-0.034805,-0.055555,0.209566,100258.18,-116,+15,-258
40884,9.071,-2.031,3.389,0.006168,-0.083224,0.253199,100258.18,-116,+14,-259
40894,9.100,-2.212,3.385,0.023727,-0.104509,0.297364,100258.18,-116,+13,-260
40904,9.163,-2.161,3.325,0.014149,-0.119940,0.338869,100261.65,-116,+13,-260
40914,9.327,-2.038,3.305,0.017342,-0.134839,0.385694,100262.37,-116,+11,-260
40924,9.356,-1.961,3.361,0.062571,-0.154527,0.435713,100261.80,-116,+11,-260
40930,9.292,-2.185,3.189,0.109397,-0.168362,0.472428,100261.18,-116,+11,-260
40939,9.189,-2.543,2.875,0.120039,-0.166234,0.510740,100261.18,-115,+9,-261
40949,8.970,-2.647,2.674,0.090773,-0.149206,0.554373,100264.06,-115,+7,-262
40958,8.901,-2.069,2.724,0.090241,-0.145481,0.603327,100265.16,-113,+5,-261
40969,9.094,-1.636,2.721,0.182828,-0.171023,0.680483,100263.53,-113,+5,-261
40979,9.530,-1.624,2.585,0.320644,-0.184325,0.790630,100260.30,-114,+2,-262
40989,10.093,-2.287,2.991,0.423342,-0.149738,0.895455,100260.30,-113,-1,-262
40999,10.583,-3.100,3.208,0.398332,-0.121004,0.980593,100262.30,-113,-4,-262
41009,10.809,-3.399,3.941,0.265837,-0.084821,1.042318,100256.88,-113,-4,-262
41019,11.348,-3.775,4.281,0.097690,-0.049701,1.094464,100258.28,-113,-7,-263
41029,11.634,-4.830,3.863,-0.171025,-0.010325,1.123198,100257.66,-113,-10,-262
41039,12.520,-4.838,3.370,-0.517960,0.041821,1.135969,100257.66,-112,-12,-262
41049,15.085,-4.376,3.595,-0.839887,0.096629,1.150336,100261.89,-112,-12,-262
41059,19.207,-4.317,3.575,-1.063905,0.085454,1.179070,100260.84,-113,-14,-262
41069,21.226,-3.576,3.523,-1.108602,-0.008197,1.208336,100258.70,-112,-16,-263
41079,20.008,-2.086,3.847,-0.983557,-0.164637,1.298262,100259.39,-111,-17,-264
41089,18.455,-1.247,2.778,-0.795190,-0.425903,1.319015,100259.39,-111,-17,-264
41099,16.301,-0.678,1.203,-0.981960,-0.562123,1.305712,100258.95,-109,-18,-265
41109,12.672,-1.399,1.142,-0.842547,-0.611609,1.264740,100259.59,-108,-19,-267
41119,7.449,-6.477,1.697,-0.384933,-0.594050,1.284428,100259.48,-106,-23,-269
41129,6.176,-12.449,5.045,0.204112,-0.417389,1.467473,100260.26,-106,-23,-269
41139,9.086,-14.395,6.767,0.464846,-0.292876,1.465345,100260.26,-104,-29,-269
41149,10.321,-11.918,5.672,0.236039,-0.246582,1.193969,100258.32,-102,-33,-269
41159,9.830,-10.824,3.652,0.009892,-0.268399,1.071584,100260.57,-101,-36,-270
41169,8.036,-11.678,4.474,-0.028420,-0.177408,1.133308,100262.07,-101,-36,-270
41179,7.197,-11.293,5.279,-0.266273,-0.093334,1.187584,100260.82,-102,-40,-270
41189,7.178,-9.428,5.435,-0.669080,0.049271,1.135437,100260.82,-101,-42,-270
41199,7.481,-7.530,5.092,-0.939391,0.190280,1.060941,100262.38,-101,-42,-271
41209,7.608,-6.504,4.307,-0.986217,0.272225,1.062006,100255.76,-101,-42,-271
41219,7.227,-6.325,3.377,-0.914914,0.328629,1.104042,100258.52,-101,-43,-270
41229,6.478,-6.089,2.672,-0.815410,0.395142,1.122666,100256.54,-101,-44,-271
41239,5.371,-5.208,1.810,-0.788272,0.430794,1.072116,100256.54,-101,-46,-270
41249,4.187,-4.036,0.863,-0.838291,0.422280,1.002941,100260.83,-101,-46,-270
41260,3.182,-2.973,0.084,-0.832437,0.375454,0.969419,100260.30,-101,-47,-270
41269,2.344,-2.550,-0.256,-0.688236,0.321711,0.951327,100259.05,-101,-48,-270
41279,1.543,-2.012,-0.425,-0.479116,0.264243,0.893859,100258.47,-101,-49,-270
41285,1.011,-1.381,-0.491,-0.334383,0.214757,0.823621,100258.47,-101,-49,-270
41294,0.357,-0.889,-0.680,-0.198163,0.170592,0.756043,100258.47,-101,-51,-269
41305,-0.413,-0.688,-0.944,-0.020970,0.132280,0.674630,100259.09,-101,-53,-270
41314,-1.051,-0.805,-1.094,0.104608,0.099821,0.576190,100261.45,-101,-53,-270
41324,-1.689,-0.845,-1.093,0.160479,0.080665,0.468171,100257.02,-101,-54,-269
41334,-1.844,-0.536,-0.902,0.188149,0.070555,0.349511,100256.93,-101,-56,-269
41345,-1.927,-0.398,-0.975,0.205177,0.038097,0.229786,100260.38,-101,-58,-268
41355,-2.093,-0.758,-1.043,0.205709,0.007234,0.129749,100258.40,-101,-58,-268
41364,-2.206,-0.816,-0.847,0.186553,-0.012454,0.014814,100258.40,-101,-58,-268
41374,-1.987,-0.659,-0.782,0.147709,-0.039059,-0.123535,100254.32,-101,-58,-267
41384,-1.763,-0.627,-0.763,0.098223,-0.074179,-0.241663,100259.54,-101,-58,-269
41394,-1.466,-0.695,-0.794,0.054590,-0.118344,-0.352874,100259.54,-101,-58,-269
41404,-1.489,-1.005,-0.711,0.042883,-0.154527,-0.453443,100259.71,-101,-57,-267
41414,-1.326,-1.400,-0.525,0.045544,-0.179536,-0.560397,100260.18,-101,-56,-268
41424,-0.504,-1.914,-0.353,-0.024695,-0.217848,-0.679590,100259.40,-101,-54,-269
41435,0.054,-1.732,-0.278,-0.106640,-0.249243,-0.841351,100256.05,-101,-54,-269
41444,0.351,-1.771,0.089,-0.158254,-0.216252,-0.956819,100256.05,-101,-50,-270
41454,0.817,-2.463,0.370,-0.109300,-0.152399,-1.071754,100260.04,-101,-46,-269
41464,1.760,-3.202,1.011,-0.051832,-0.071518,-1.242562,100260.40,-102,-42,-270
41475,3.218,-3.877,1.369,-0.067796,-0.025757,-1.446892,100259.82,-102,-42,-270
41484,4.918,-3.900,1.642,-0.183263,-0.010325,-1.674103,100259.82,-103,-38,-270
41494,6.794,-3.439,2.347,-0.179007,0.008831,-1.865662,100259.82,-104,-32,-270
41504,8.889,-3.040,2.784,0.009360,-0.048637,-2.048176,100261.77,-104,-27,-270
41515,10.201,-3.301,3.262,0.327030,-0.130050,-2.169497,100257.18,-104,-27,-270
41524,11.640,-4.279,4.029,0.656406,-0.218380,-2.205680,100259.32,-105,-21,-270
41534,12.523,-5.696,4.780,0.952259,-0.301922,-2.246121,100262.49,-104,-17,-270
41544,13.420,-6.704,5.652,1.206075,-0.362050,-2.295075,100262.49,-104,-12,-272
41554,14.804,-6.586,6.074,1.367304,-0.418986,-2.385534,100259.50,-104,-12,-272
41565,4.882,-16.461,19.954,1.956882,0.183363,-2.203020,100258.30,-103,-9,-272
41574,14.210,-31.228,25.589,4.266238,1.703068,-0.825920,100255.44,-108,-14,-267
41584,33.337,-26.139,7.826,2.568276,-0.323738,-1.036635,100255.44,-107,-17,-267
41594,17.182,-8.815,-6.402,-1.283134,-1.034105,-1.863534,100262.76,-107,-17,-267
41605,15.230,13.840,-5.872,-2.246253,0.186023,-2.555276,100262.76,-105,-6,-270
41614,17.000,15.954,4.107,-2.211666,0.383436,-1.878433,100261.71,-108,+4,-269
41624,43.310,-2.228,-1.297,-0.914382,-0.839352,-0.424177,100255.04,-104,+9,-272
41634,38.979,-5.785,-6.407,0.392479,-0.434417,-0.126727,100258.27,-104,+9,-272
41645,2.209,-0.355,-4.825,1.458295,0.315858,-0.953094,100258.27,-104,+8,-272
41655,-6.392,-3.045,-2.445,2.140992,0.503693,0.049933,100266.03,-106,+4,-270
41664,-2.597,0.153,1.797,1.864827,0.405252,0.251070,100261.44,-107,+0,-269
41674,6.829,2.431,4.401,2.179304,0.097161,0.142520,100262.17,-107,+0,-269
41684,13.118,-1.527,9.711,2.919468,0.150904,0.367070,100261.84,-107,-6,-267
41695,11.279,-6.598,11.862,2.654478,-0.101848,0.425070,100263.89,-108,-14,-267
41704,6.103,-9.332,7.515,0.876699,-0.238600,0.220208,100258.92,-107,-18,-267
41714,7.252,-7.541,4.072,-1.115520,-0.076307,0.008961,100259.72,-106,-13,-268
41724,9.940,-3.109,1.326,-1.944547,0.036500,-0.140030,100259.72,-106,-13,-268
41735,11.779,-1.006,-0.353,-1.615171,0.089179,-0.109700,100256.33,-107,-8,-269
41744,12.435,0.236,-0.610,-0.689300,0.113124,0.018006,100256.33,-108,-7,-268
41754,10.263,1.352,0.650,0.520718,0.126427,0.210098,100262.95,-108,-9,-268
41764,8.221,-0.287,2.402,1.540772,0.143986,0.450612,100263.66,-108,-9,-268
41775,8.198,-3.017,4.349,1.925487,0.138665,0.594813,100258.98,-108,-16,-267
41785,8.610,-5.702,5.174,1.559396,0.107803,0.585768,100256.79,-108,-21,-265
41794,8.269,-7.740,5.133,0.638314,0.148243,0.463382,100256.79,-108,-25,-265
41804,8.119,-7.558,4.966,-0.571704,0.237106,0.265970,100261.70,-108,-25,-265
41815,8.424,-4.675,4.210,-1.549721,0.278610,0.103144,100258.78,-109,-21,-264
41825,8.940,-1.606,3.085,-1.813648,0.287124,0.095694,100262.69,-108,-17,-265
41834,9.429,0.070,2.056,-1.435850,0.254665,0.209034,100262.69,-109,-15,-264
41844,9.376,0.286,1.356,-0.707392,0.213161,0.377713,100262.69,-109,-15,-264
41854,8.837,-0.859,1.651,0.099287,0.173785,0.558098,100263.19,-109,-15,-264
41865,8.603,-2.862,2.386,0.659066,0.130152,0.681547,100260.11,-109,-18,-263
41874,8.489,-4.632,3.282,0.787305,0.112060,0.713474,100259.38,-110,-23,-262
41884,8.351,-5.368,3.730,0.475488,0.141326,0.683144,100259.06,-110,-23,-262
41894,8.156,-4.886,4.154,-0.050768,0.215289,0.630465,100259.06,-111,-25,-262
41905,8.116,-4.176,4.212,-0.511043,0.253069,0.577786,100261.39,-111,-25,-261
41915,8.479,-3.260,3.739,-0.744639,0.243491,0.569272,100257.53,-110,-26,-261
41924,8.744,-2.297,3.239,-0.723355,0.190280,0.596942,100258.81,-110,-26,-261
41934,8.774,-2.169,2.386,-0.524878,0.179106,0.649621,100258.81,-111,-25,-261
41945,8.847,-2.634,2.169,-0.270529,0.271161,0.707621,100261.90,-111,-27,-260
41955,8.792,-4.304,2.614,-0.127924,0.338739,0.734758,100261.90,-111,-29,-259
41964,8.573,-5.663,2.664,-0.168897,0.349913,0.742740,100261.38,-111,-29,-259
41974,8.300,-5.396,3.228,-0.363117,0.365344,0.721456,100260.85,-113,-31,-259
41985,8.096,-4.791,3.723,-0.548291,0.374922,0.689529,100257.99,-113,-31,-258
41995,8.502,-4.332,3.705,-0.653294,0.340690,0.661150,100261.70,-113,-31,-257
42004,8.803,-4.038,3.822,-0.653648,0.296702,0.653878,100261.70,-113,-31,-257
42014,8.794,-4.754,3.452,-0.579153,0.264243,0.656006,100259.05,-114,-33,-257
42024,8.633,-5.724,3.079,-0.592988,0.267436,0.642703,100259.14,-113,-33,-257
42035,8.599,-6.156,3.063,-0.741447,0.298830,0.610245,100260.19,-114,-33,-256
42045,8.932,-6.170,3.213,-0.950034,0.365344,0.586300,100261.23,-114,-33,-256
42054,9.252,-6.306,3.312,-1.153832,0.443564,0.563419,100259.88,-115,-33,-255
42064,9.674,-5.957,3.419,-1.325703,0.487197,0.561290,100258.98,-115,-31,-256
42075,9.990,-4.946,3.664,-1.370400,0.490390,0.601199,100258.98,-116,-30,-255
42085,10.696,-4.632,3.071,-1.328364,0.406317,0.667180,100259.92,-116,-30,-255
42094,10.615,-4.621,3.000,-1.233648,0.339803,0.749657,100259.92,-117,-29,-254
42104,10.725,-5.008,2.855,-1.175116,0.278078,0.844373,100262.99,-116,-29,-254
42115,11.046,-5.184,2.816,-1.203318,0.237106,0.926850,100259.40,-117,-30,-254
42125,11.503,-4.995,2.890,-1.272492,0.198794,1.022630,100259.98,-117,-30,-254
42135,11.690,-4.308,3.038,-1.355501,0.141326,1.135437,100260.07,-116,-30,-255
42144,12.008,-3.674,2.797,-1.379978,0.068959,1.280171,100260.07,-115,-31,-255
42155,12.295,-3.216,2.332,-1.358694,-0.011922,1.465877,100263.19,-115,-31,-255
42165,12.709,-3.354,2.120,-1.311868,-0.104509,1.673400,100262.92,-115,-31,-255
42175,13.384,-3.277,2.125,-1.317189,-0.188582,1.870281,100260.22,-115,-35,-257
42184,13.957,-3.022,2.617,-1.346988,-0.260417,2.045877,100260.22,-113,-37,-257
42194,14.598,-2.412,3.444,-1.376786,-0.325866,2.199656,100260.22,-110,-40,-259
42205,16.165,-2.088,4.400,-1.398070,-0.377481,2.343858,100262.07,-110,-40,-259
42215,17.652,-1.485,4.955,-1.408180,-0.383866,2.447619,100256.49,-108,-44,-260
42224,18.344,-0.812,4.853,-1.382639,-0.379077,2.540739,100257.84,-104,-48,-263
42230,18.338,0.278,4.920,-1.345391,-0.373756,2.577454,100258.68,-104,-48,-263
42240,17.507,0.975,5.946,-1.223006,-0.382270,2.633858,100258.68,-103,-50,-265
42250,15.551,0.502,6.396,-0.984089,-0.439206,2.780720,100258.91,-100,-56,-267
42260,13.844,-5.034,7.715,-0.518493,-0.538178,3.075509,100259.70,-95,-64,-269
42269,14.624,-9.866,7.808,-0.390786,-0.596710,3.311766,100261.20,-95,-64,-269
42279,15.621,-8.518,6.398,-0.804236,-0.503059,3.099986,100254.16,-91,-70,-270
42290,14.842,-4.383,6.097,-0.605759,-0.482839,2.849894,100254.16,-87,-76,-272
42300,13.076,-3.008,5.063,0.008296,-0.628105,2.830739,100261.41,-82,-83,-274
42309,11.148,-3.136,4.740,0.366938,-0.692490,2.672170,100258.12,-82,-83,-274
42319,8.576,-3.186,3.185,0.622883,-0.713774,2.309271,100259.95,-76,-90,-275
42330,5.063,-4.071,3.891,0.592020,-0.451976,1.945308,100258.43,-73,-96,-276
42340,2.541,-5.030,3.616,0.385030,-0.234344,1.470666,100258.43,-70,-100,-275
42349,1.632,-5.590,2.597,-0.190713,-0.034270,0.870446,100259.34,-70,-100,-275
42359,2.336,-4.131,3.285,-0.954823,0.152500,0.288850,100257.13,-68,-101,-277
42370,3.575,-0.467,2.770,-1.734363,0.057785,-0.167700,100257.09,-69,-97,-279
42380,3.634,2.383,0.901,-2.106308,-0.143353,-0.632764,100259.18,-68,-89,-283
42389,3.264,3.655,0.197,-2.072785,-0.111426,-0.986085,100259.18,-68,-89,-283
42399,2.711,3.388,-0.133,-1.673171,-0.067261,-1.158488,100260.52,-70,-81,-285
42409,2.177,2.633,-0.033,-0.962804,-0.034270,-1.321846,100260.94,-71,-74,-287
42420,1.977,1.839,0.346,-0.217318,0.016812,-1.532561,100261.30,-72,-69,-288
42430,2.270,0.740,1.193,0.269562,0.085454,-1.785846,100256.19,-72,-69,-288
42439,3.149,-0.408,1.898,0.471764,0.142922,-2.082231,100256.19,-73,-66,-287
42449,3.988,-0.675,2.013,0.468571,0.196665,-2.444598,100259.33,-76,-61,-287
42460,4.595,-0.031,2.220,0.448351,0.277014,-2.820799,100252.97,-78,-55,-286
42470,5.458,0.538,2.151,0.548387,0.363748,-3.162414,100255.94,-78,-55,-286
42479,6.443,0.422,1.503,0.732497,0.408977,-3.476358,100255.31,-81,-48,-285
42489,6.995,0.051,1.026,0.888938,0.458463,-3.772744,100255.31,-85,-40,-285
42500,7.536,-0.597,0.692,1.070919,0.531362,-4.017514,100255.34,-88,-33,-282
42510,8.026,-1.530,0.695,1.242259,0.617032,-4.199496,100254.61,-92,-33,-281
42520,8.554,-2.746,0.868,1.396038,0.676628,-4.329330,100255.28,-92,-25,-281
42529,9.254,-3.431,0.732,1.493414,0.689931,-4.472468,100254.23,-94,-17,-279
42540,10.254,-3.251,0.492,1.490754,0.661729,-4.621459,100254.23,-97,-7,-277
42550,11.102,-2.771,0.447,1.566845,0.589362,-4.752357,100256.36,-98,+1,-276
42560,11.886,-2.828,1.150,1.749891,0.504757,-4.833770,100262.05,-98,+1,-276
42569,12.576,-4.090,1.665,1.843010,0.415895,-4.893367,100257.50,-98,+10,-276
42579,13.252,-5.526,2.421,1.780754,0.385032,-5.002450,100256.61,-97,+19,-274
42590,13.765,-6.168,3.297,1.580148,0.400995,-5.155697,100256.61,-97,+31,-274
42600,14.595,-6.005,4.042,1.376350,0.410041,-5.345128,100259.98,-97,+31,-274
42609,15.353,-5.621,4.206,1.299194,0.414298,-5.524449,100256.55,-95,+42,-274
42619,15.961,-5.851,4.914,1.474790,0.481876,-5.587238,100257.48,-92,+55,-274
42630,16.866,-7.267,5.115,1.803634,0.528702,-5.515403,100258.58,-87,+65,-273
42640,17.106,-8.656,4.978,2.069157,0.562757,-5.371734,100258.58,-87,+65,-273
42650,16.585,-10.085,4.822,2.251671,0.571803,-5.131752,100260.34,-83,+74,-274
42659,15.807,-12.449,4.497,2.388423,0.513803,-4.783220,100259.09,-80,+81,-275
42670,15.552,-15.838,3.961,2.404386,0.335546,-4.385202,100257.42,-76,+85,-277
42680,14.625,-18.262,3.569,2.235175,0.096097,-3.991973,100258.56,-76,+85,-277
42690,12.095,-18.698,3.433,1.862166,-0.037463,-3.539680,100258.56,-71,+89,-279
42699,8.216,-20.178,5.469,1.563653,0.099289,-2.979900,100261.88,-66,+93,-280
42710,4.901,-21.937,7.935,1.079965,0.310005,-2.319020,100263.13,-64,+95,-281
42720,2.356,-22.671,9.029,0.255727,0.484537,-1.458066,100260.21,-64,+95,-281
42730,2.239,-22.967,7.346,-0.613740,0.637252,-0.385333,100255.15,-64,+97,-279
42739,4.036,-22.116,5.484,-1.156492,0.784114,0.758703,100255.15,-66,+99,-277
42749,6.812,-20.406,5.576,-1.233116,0.766555,1.794189,100261.74,-69,+99,-274
42760,9.043,-16.404,3.391,-1.030382,0.480280,2.576390,100259.98,-69,+99,-274
42770,11.549,-7.617,2.825,-0.852125,0.028519,3.256426,100256.27,-74,+94,-274
42780,22.271,17.149,-0.734,-0.434419,-0.739316,2.846170,100259.55,-76,+88,-274
42789,26.110,37.778,-10.817,-0.534456,-0.784545,1.093400,100259.55,-75,+87,-274
42800,17.813,15.329,-8.913,1.029947,-0.265738,1.971381,100266.20,-75,+87,-274
42810,14.757,-13.570,0.979,4.169394,-0.654710,3.947637,100261.60,-76,+75,-277
42820,9.866,-25.767,6.719,4.461523,-0.653646,3.947105,100258.73,-78,+52,-282
42829,6.544,-10.913,3.465,2.545395,0.082262,2.877032,100260.09,-80,+39,-281
42840,7.479,-0.221,5.605,2.479946,0.819766,2.598207,100260.09,-80,+39,-281
42850,4.434,-4.279,12.404,3.355798,0.696849,2.604592,100261.64,-83,+25,-280
42860,4.810,-11.914,8.502,2.471432,-0.009793,2.390152,100259.23,-84,+11,-280
42869,9.404,-15.794,3.371,0.387690,0.034904,2.145913,100258.88,-84,+5,-280
42880,10.829,-13.099,1.794,-1.583776,0.458995,1.775033,100259.81,-84,+5,-280
42890,9.748,-7.230,3.348,-2.815078,0.793692,1.481308,100259.81,-85,+7,-279
42900,9.217,-4.095,3.432,-3.293977,0.794225,1.266336,100261.05,-88,+11,-276
42910,8.792,-2.321,0.987,-2.966197,0.752188,1.116813,100260.94,-89,+17,-275
42919,9.058,-0.276,0.631,-2.021703,0.785711,1.019437,100260.94,-89,+17,-275
42930,9.311,1.392,2.328,-0.704731,0.683014,0.950263,100259.17,-91,+17,-273
42940,9.310,-1.124,2.136,0.567721,0.487907,1.028660,100259.17,-92,+13,-272
42950,9.467,-3.799,1.692,1.072515,0.497307,1.105107,100261.69,-94,+8,-270
42959,8.981,-6.204,3.537,1.027818,0.600005,1.017841,100261.38,-94,+8,-270
42970,8.277,-8.856,7.351,0.066296,0.702702,0.816703,100260.33,-95,+3,-269
42980,7.279,-8.288,7.743,-1.566749,0.770812,0.439437,100257.05,-97,+4,-266
42990,7.867,-3.021,5.959,-2.686308,0.870848,0.065896,100257.05,-100,+10,-265
43000,9.010,0.434,3.827,-2.715574,0.869252,-0.040526,100259.51,-100,+10,-265
43010,9.826,1.649,1.883,-2.041923,0.714408,0.106337,100259.40,-101,+17,-262
43020,10.500,0.719,1.575,-1.071355,0.503693,0.408575,100260.18,-102,+19,-261
43030,10.185,-2.043,2.403,-0.312566,0.365344,0.601199,100263.10,-102,+17,-260
43040,9.183,-4.556,3.795,-0.198163,0.360023,0.668244,100263.10,-104,+16,-259
43049,8.807,-5.004,4.670,-0.590327,0.415895,0.650685,100261.43,-104,+16,-259
43060,8.519,-3.828,4.628,-1.047942,0.469638,0.571401,100261.07,-106,+17,-258
43070,8.348,-2.431,4.607,-1.308143,0.514867,0.550648,100261.38,-106,+19,-256
43080,8.658,-1.439,4.486,-1.339538,0.503161,0.607584,100260.70,-108,+19,-255
43089,8.882,-1.527,3.890,-1.177245,0.406849,0.693786,100260.70,-108,+19,-255
43100,8.866,-2.204,3.219,-0.933006,0.291913,0.790630,100262.75,-108,+19,-254
43110,8.774,-3.093,2.717,-0.757942,0.212097,0.868318,100262.95,-109,+18,-253
43120,8.816,-4.017,2.819,-0.714841,0.179638,0.916740,100260.45,-109,+17,-254
43129,9.107,-4.230,2.973,-0.788804,0.146647,0.940153,100260.50,-109,+17,-254
43140,9.180,-3.692,3.162,-0.847336,0.074280,0.961969,100260.50,-109,+16,-252
43150,9.043,-3.089,3.111,-0.784548,0.017876,1.011455,100261.14,-110,+15,-252
43160,9.023,-2.875,3.082,-0.640346,0.003509,1.089143,100263.13,-110,+13,-252
43170,9.086,-3.167,2.955,-0.508382,0.027987,1.167363,100261.56,-110,+13,-252
43180,9.374,-3.878,3.113,-0.483373,0.055656,1.241327,100263.86,-110,+11,-252
43190,9.568,-4.048,2.757,-0.559997,0.025858,1.301987,100263.86,-111,+7,-252
43200,9.696,-3.651,2.534,-0.603098,0.019473,1.386061,100263.04,-109,+5,-252
43210,9.645,-3.604,2.673,-0.577025,0.002977,1.499400,100263.93,-109,+5,-252
43219,9.888,-3.704,3.030,-0.565318,-0.048637,1.631895,100260.96,-110,+2,-250
43230,10.309,-3.743,3.295,-0.619593,-0.095995,1.777161,100257.98,-109,-1,-252
43240,11.057,-3.848,4.143,-0.717502,-0.163573,1.908060,100257.98,-108,-5,-252
43250,11.673,-3.272,4.178,-0.846804,-0.296600,2.028317,100261.45,-108,-5,-252
43259,12.181,-3.493,3.965,-0.846272,-0.322142,2.185289,100261.45,-108,-9,-253
43270,12.790,-4.927,3.384,-0.825520,-0.305646,2.313528,100260.82,-107,-13,-254
43280,13.507,-5.795,2.807,-0.971850,-0.275848,2.407711,100261.91,-105,-19,-254
43290,14.226,-5.960,2.641,-1.281538,-0.211995,2.471564,100261.91,-105,-19,-254
43300,15.429,-5.204,2.590,-1.669978,-0.104509,2.500830,100264.77,-104,-23,-255
43310,17.017,-3.141,2.923,-2.169629,0.045546,2.550317,100259.98,-102,-25,-256
43320,18.280,-0.625,3.171,-2.528271,0.147179,2.636518,100260.87,-101,-26,-256
43330,19.881,1.279,3.366,-2.636822,0.228060,2.777528,100261.23,-101,-26,-256
43340,21.935,2.693,3.874,-2.683115,0.279674,2.907894,100261.23,-100,-29,-257
43350,22.229,3.988,4.978,-2.605427,0.255730,3.011656,100262.55,-99,-30,-257
43360,19.879,2.023,7.012,-2.161648,0.104610,3.130316,100260.01,-97,-33,-258
43370,17.313,-3.894,8.682,-1.348584,-0.167830,3.362316,100257.40,-97,-33,-258
43380,17.196,-10.565,9.118,-0.692492,-0.451976,3.624646,100257.34,-93,-40,-259
43389,18.347,-11.059,9.191,-0.611080,-0.526472,3.579417,100257.34,-89,-48,-260
43400,16.968,-5.907,9.316,-0.252438,-0.596710,3.400628,100259.81,-85,-56,-262
43410,15.099,-0.740,8.055,0.194002,-0.735591,3.073380,100261.06,-85,-56,-262
43420,13.487,3.629,5.657,0.547855,-1.069756,2.467839,100259.13,-78,-63,-262
43430,9.338,5.374,3.297,0.833598,-1.290049,1.911785,100260.91,-74,-69,-265
43440,3.297,2.562,4.571,1.334314,-1.193205,1.656904,100260.91,-68,-76,-266
43450,-1.458,-3.288,6.043,2.198992,-0.928215,1.463217,100262.28,-68,-76,-266
43460,-0.446,-5.433,7.714,2.468239,-0.593518,0.867254,100261.19,-63,-83,-264
43470,3.082,-5.273,5.923,1.606754,-0.790398,0.073878,100261.30,-60,-89,-264
43480,4.376,-3.114,3.190,0.462186,-0.978233,-0.571039,100255.70,-57,-87,-265
43490,4.349,-0.640,0.530,-0.678126,-0.951627,-1.074947,100255.70,-57,-87,-265
43500,3.916,1.055,-0.790,-1.482676,-0.914380,-1.491589,100263.45,-55,-83,-267
43510,3.125,2.038,-0.962,-1.774804,-0.860105,-1.856084,100261.52,-54,-75,-272
43520,2.690,2.317,-0.326,-1.352309,-0.757940,-2.191846,100258.91,-51,-66,-274
43530,2.788,2.870,0.404,-0.604694,-0.672270,-2.589864,100260.73,-50,-66,-275
43540,2.857,2.528,1.369,0.069489,-0.568509,-2.963405,100260.73,-50,-59,-275
43550,3.054,1.338,2.523,0.603195,-0.488692,-3.245423,100256.25,-51,-53,-277
43560,3.510,-0.268,2.702,0.867121,-0.416325,-3.456138,100254.17,-50,-47,-276
43570,4.358,-1.927,2.979,0.797415,-0.202417,-3.675368,100255.05,-50,-42,-277
43580,5.023,-2.447,3.156,0.423342,0.032243,-3.937698,100251.88,-50,-42,-277
43590,5.312,-0.621,3.253,0.024259,0.182298,-4.300597,100251.88,-52,-35,-276
43600,6.005,1.212,3.117,0.049801,0.197730,-4.621459,100253.65,-51,-25,-276
43610,7.131,1.189,2.498,0.627672,0.156225,-4.824725,100254.34,-51,-18,-275
43620,8.574,0.171,2.687,1.321543,0.186023,-4.993936,100253.91,-51,-18,-275
43630,10.236,-0.884,2.816,1.866955,0.193473,-5.180706,100254.23,-51,-11,-275
43640,11.162,-1.867,2.711,2.275616,0.183895,-5.313201,100254.23,-50,-8,-274
43651,11.627,-3.277,2.787,2.652172,0.188152,-5.352755,100257.42,-52,-5,-274
43660,11.821,-5.197,3.021,2.857744,0.172188,-5.407917,100257.47,-52,-5,-274
43670,12.420,-7.818,3.694,2.728973,0.119509,-5.526045,100260.30,-51,-2,-274
43680,14.047,-9.440,3.962,2.233047,0.019473,-5.686742,100253.05,-50,+0,-274
43691,15.949,-9.089,4.587,1.678589,0.015216,-5.883623,100253.05,-51,+7,-274
43700,17.235,-8.104,5.660,1.431157,0.062042,-6.037935,100259.95,-51,+7,-274
43710,17.743,-8.099,7.134,1.600901,0.109399,-6.089550,100257.91,-52,+15,-275
43720,17.424,-11.108,7.995,1.875469,0.149308,-6.011329,100256.55,-52,+21,-275
43730,16.043,-14.098,7.429,1.739781,0.113124,-5.918210,100257.38,-52,+27,-276
43740,14.212,-15.636,6.324,1.437011,0.137069,-5.644174,100257.38,-52,+27,-276
43750,13.022,-17.207,4.685,1.202882,0.279142,-5.163679,100259.69,-52,+35,-277
43760,12.095,-19.057,3.844,0.880956,0.499436,-4.583679,100256.14,-52,+41,-277
43770,10.503,-22.111,5.296,0.589892,0.687271,-3.947276,100257.91,-54,+48,-277
43780,6.920,-23.308,6.791,0.015746,0.656940,-3.261918,100258.44,-54,+48,-277
43790,3.286,-24.292,6.744,-0.657905,0.586702,-2.333919,100258.44,-55,+55,-277
43800,2.508,-24.605,5.089,-1.260786,0.634592,-1.116452,100261.59,-55,+60,-275
43810,4.555,-23.366,4.443,-1.514602,0.737821,0.179236,100261.48,-58,+64,-272
43821,7.421,-20.924,4.533,-1.402859,0.676096,1.346684,100260.70,-58,+64,-272
43830,9.169,-17.283,2.265,-1.105942,0.456867,2.213491,100258.98,-61,+62,-270
43840,11.743,-10.801,0.106,-0.868089,-0.018307,3.083491,100258.98,-64,+58,-270
43850,21.567,9.958,-1.486,-0.497208,-0.798380,2.914280,100265.84,-64,+52,-272
43860,29.326,33.564,-11.079,-0.688768,-0.985150,1.287620,100263.49,-64,+52,-272
43870,24.879,14.969,-13.397,-0.155594,-0.080564,1.555272,100265.68,-63,+53,-274
43880,18.966,-14.486,10.576,2.993964,-0.033738,3.996591,100263.80,-65,+40,-273
43890,9.631,-29.175,14.525,4.729174,-0.307243,4.200921,100263.80,-67,+19,-275
43900,8.378,-20.269,5.510,2.673102,0.411106,3.446389,100259.76,-67,+19,-275
43910,12.301,-1.435,2.121,1.484368,0.516463,3.385729,100262.52,-69,+6,-274
43920,1.797,2.529,6.014,2.674166,0.165271,2.830739,100259.02,-69,-5,-272
43930,-3.598,-2.728,11.026,3.302588,-0.057151,2.413032,100257.62,-70,-19,-272
43940,4.855,-15.074,4.210,1.683910,-0.296068,2.610445,100257.62,-70,-19,-272
43951,12.068,-20.934,0.067,-1.144786,0.181766,2.365142,100262.82,-69,-27,-272
43960,13.438,-12.312,1.400,-3.049207,0.751124,1.654244,100262.98,-69,-25,-272
43970,11.318,-2.255,3.662,-3.871848,0.952261,1.322739,100261.95,-71,-19,-270
43980,7.755,0.203,2.635,-3.325372,0.755381,1.156721,100260.63,-71,-19,-270
43991,8.162,-0.291,1.527,-2.012657,0.569674,1.066795,100260.63,-72,-14,-270
44000,8.323,1.078,1.202,-0.752089,0.521784,1.007730,100262.93,-73,-14,-269
44010,8.602,0.321,3.540,0.386094,0.559564,1.063070,100260.84,-74,-17,-269
44020,9.486,-2.210,4.374,1.136369,0.265307,1.131712,100262.77,-74,-17,-269
44030,9.108,-4.562,2.678,1.179470,0.145583,1.140758,100258.45,-74,-23,-267
44040,8.459,-5.434,2.154,0.727176,0.387693,1.078501,100258.45,-74,-27,-266
44050,8.813,-6.313,4.574,-0.073117,0.625546,0.924721,100263.55,-76,-30,-265
44060,8.718,-7.002,6.779,-1.053795,0.675032,0.678887,100261.52,-76,-29,-264
44070,8.003,-5.664,6.396,-2.036602,0.717601,0.386758,100259.38,-76,-29,-264
44081,7.846,-2.565,5.606,-2.630436,0.830408,0.150502,100259.53,-78,-23,-264
44090,8.137,0.321,4.369,-2.550088,0.791564,0.056850,100259.53,-80,-18,-263
44100,9.076,1.607,2.455,-1.822162,0.592555,0.228722,100263.51,-81,-15,-263
44110,10.255,0.236,1.767,-0.846804,0.373858,0.502226,100263.66,-81,-15,-263
44121,10.255,-2.464,2.487,-0.095465,0.174317,0.681547,100262.20,-82,-16,-262
44130,9.222,-4.637,3.408,0.049268,0.093436,0.765088,100259.90,-81,-18,-262
44140,8.151,-5.046,4.457,-0.316291,0.144519,0.759767,100259.90,-81,-17,-262
44150,8.256,-3.833,5.117,-0.769116,0.133876,0.682079,100264.17,-81,-17,-262
44161,8.552,-2.816,5.069,-0.993667,0.114188,0.637382,100263.55,-81,-17,-262
44170,8.730,-2.257,4.820,-1.022933,0.137069,0.666116,100256.39,-82,-17,-261
44180,8.657,-2.090,4.284,-0.974511,0.139730,0.717199,100258.58,-81,-16,-262
44190,8.500,-2.335,3.285,-0.879263,0.060977,0.803932,100258.58,-81,-16,-262
44200,8.661,-2.494,2.746,-0.696217,0.008298,0.926318,100264.09,-81,-17,-262
44211,8.846,-3.392,2.013,-0.564254,0.005638,1.027419,100263.57,-81,-18,-262
44220,9.568,-4.166,2.127,-0.493483,0.046610,1.104042,100259.71,-81,-20,-262
44230,9.973,-4.402,2.291,-0.490291,0.068427,1.159382,100260.85,-81,-20,-262
44240,10.078,-4.538,2.528,-0.527006,0.083858,1.204256,100260.85,-81,-22,-262
44251,9.991,-4.432,2.644,-0.587667,0.080133,1.240263,100265.71,-81,-23,-262
44260,9.990,-4.194,2.739,-0.653648,0.078537,1.296134,100263.63,-81,-25,-262
44270,9.953,-3.973,2.740,-0.719098,0.065234,1.368501,100258.30,-81,-25,-262
44280,10.221,-3.635,2.837,-0.760070,0.008298,1.468005,100258.46,-80,-27,-262
44291,10.554,-3.410,2.925,-0.714309,-0.076839,1.596776,100258.46,-80,-29,-262
44301,10.945,-3.665,3.262,-0.628639,-0.144949,1.727143,100261.09,-79,-33,-264
44310,12.172,-4.207,3.884,-0.644071,-0.214656,1.849528,100262.67,-79,-33,-264
44320,13.184,-4.641,3.865,-0.779759,-0.267334,1.989473,100258.33,-77,-35,-264
44331,13.506,-4.326,3.660,-0.992070,-0.282233,2.109730,100262.30,-76,-38,-265
44341,13.974,-3.621,3.177,-1.175116,-0.363646,2.251803,100262.30,-73,-40,-265
44350,14.739,-3.598,2.937,-1.287923,-0.434417,2.420482,100264.68,-73,-40,-265
44360,15.559,-4.053,3.465,-1.458199,-0.442931,2.574794,100262.23,-71,-42,-267
44370,16.891,-4.232,3.713,-1.767886,-0.395041,2.684408,100265.82,-69,-46,-269
44381,19.001,-2.792,4.127,-2.313299,-0.223169,2.703032,100258.10,-66,-45,-272
44390,20.599,0.678,4.963,-2.893831,-0.076839,2.700372,100258.10,-66,-45,-272
44400,21.615,4.256,5.509,-3.023133,-0.061940,2.796151,100263.01,-65,-44,-274
44410,21.692,5.641,5.664,-2.710253,-0.025224,2.989307,100264.30,-63,-44,-276
44421,19.525,4.072,6.138,-2.356932,0.057253,3.135105,100258.46,-61,-44,-277
44431,16.607,-0.575,6.302,-2.002547,0.076941,3.217582,100258.77,-61,-44,-277
44440,14.749,-8.490,7.049,-1.631666,-0.088546,3.410206,100258.77,-60,-47,-279
44450,17.118,-12.081,6.666,-1.590162,-0.215720,3.580481,100261.84,-57,-52,-279
44461,19.274,-7.202,8.473,-1.342199,-0.401426,3.485234,100261.78,-54,-55,-282
44471,17.059,-1.326,8.494,-0.720162,-0.620655,3.296335,100263.72,-54,-55,-282
44476,14.897,1.861,7.719,-0.233282,-0.735591,2.993564,100257.56,-50,-61,-282
44485,13.502,5.032,6.239,0.387690,-0.983022,2.591821,100257.56,-46,-68,-284
44495,9.722,5.870,0.744,0.980461,-1.301224,2.068225,100257.56,-46,-68,-284
44506,3.434,2.712,2.629,1.334314,-1.079866,1.775033,100262.63,-41,-74,-284
44516,-1.671,-4.005,4.362,2.117579,-0.802105,1.578152,100258.81,-39,-83,-284
44525,-1.246,-6.728,6.779,2.600735,-0.548288,1.069455,100257.39,-37,-92,-282
44535,2.136,-6.369,7.297,2.405450,-0.749426,0.318116,100257.39,-37,-92,-282
44546,3.036,-4.001,3.918,1.697212,-1.216086,-0.523681,100263.63,-35,-97,-282
44556,2.085,-1.654,0.680,0.372791,-1.134141,-1.168598,100263.63,-34,-98,-283
44565,2.123,-0.193,-0.936,-0.852125,-0.854784,-1.504892,100257.98,-34,-92,-286
44575,1.553,1.194,-1.227,-1.441703,-0.719096,-1.841185,100258.66,-34,-92,-286
44585,1.587,2.590,0.349,-1.327299,-0.456233,-2.131185,100260.22,-36,-85,-290
44596,1.387,3.428,2.152,-0.625447,-0.349279,-2.488763,100260.22,-38,-79,-292
44606,1.399,3.336,3.174,0.219544,-0.257224,-2.888909,100259.61,-40,-74,-293
44615,1.924,2.353,3.644,0.833066,-0.083757,-3.234781,100256.91,-40,-74,-293
44625,2.486,0.343,3.875,1.062937,0.129087,-3.494982,100258.31,-43,-72,-292
44636,3.691,-1.550,3.510,0.882552,0.300427,-3.737624,100255.22,-48,-68,-292
44646,5.234,-2.856,2.651,0.420149,0.393546,-3.999422,100257.11,-54,-61,-293
44655,6.064,-2.555,1.655,-0.076309,0.514867,-4.305386,100257.83,-54,-61,-293
44665,6.742,-0.944,1.646,-0.366309,0.732500,-4.637954,100255.59,-59,-51,-292
44676,7.309,-0.179,1.637,-0.109300,0.857014,-4.937000,100255.59,-64,-40,-292
44686,8.126,-0.697,1.867,0.377580,0.967160,-5.151972,100252.56,-70,-29,-292
44695,9.406,-1.486,2.031,0.913415,1.029417,-5.322247,100252.56,-70,-29,-292
44705,10.827,-2.407,1.987,1.389121,1.041124,-5.500504,100260.31,-74,-20,-289
44716,12.125,-3.081,1.755,1.754680,0.991105,-5.632467,100256.88,-80,-11,-287
44726,13.057,-3.543,1.688,2.096827,0.912353,-5.736228,100259.53,-83,-3,-285
44736,13.651,-3.982,2.061,2.374056,0.799546,-5.841587,100256.66,-83,-3,-285
44745,14.967,-4.578,2.649,2.458129,0.641509,-5.917146,100256.66,-86,+4,-284
44755,17.003,-6.094,3.359,2.365010,0.474427,-5.922999,100257.09,-87,+13,-284
44766,18.769,-8.544,4.011,2.217084,0.305216,-5.918742,100257.47,-87,+22,-284
44776,19.565,-10.540,4.050,1.948368,0.109931,-5.961311,100253.13,-87,+22,-284
44785,19.270,-12.043,4.260,1.852056,-0.018839,-5.917146,100253.13,-86,+32,-284
44795,18.940,-14.870,3.981,1.948900,-0.102380,-5.636724,100253.13,-83,+42,-286
44806,17.061,-18.645,4.134,1.945708,-0.080564,-5.208908,100257.24,-80,+49,-287
44816,12.351,-20.435,4.792,1.689231,0.057785,-4.677862,100257.45,-78,+49,-287
44825,8.752,-23.870,6.760,1.466277,0.370665,-3.946211,100256.73,-78,+56,-288
44835,5.913,-27.467,6.803,0.998552,0.509014,-3.167203,100256.04,-76,+61,-287
44846,2.794,-27.735,5.936,0.466975,0.456335,-2.179075,100256.04,-76,+66,-287
44856,3.388,-28.918,4.706,-0.148144,0.446225,-0.950965,100261.13,-77,+68,-286
44866,5.011,-28.020,5.713,-0.800511,0.507417,0.416024,100258.26,-77,+68,-286
44875,6.462,-25.202,6.812,-1.042089,0.329693,1.716501,100258.37,-78,+68,-284
44886,9.437,-19.013,4.255,-0.961740,0.021069,2.827014,100258.37,-81,+63,-284
44896,23.634,4.473,-1.132,-1.333685,-0.911719,3.165436,100261.99,-81,+59,-286
44906,32.520,34.026,-16.663,-1.599740,-1.377847,1.518024,100265.80,-81,+59,-286
44915,21.615,10.996,-8.635,-0.376419,0.019473,1.895290,100265.80,-81,+59,-285
44925,13.214,-15.180,10.179,3.027487,-0.253500,3.987013,100265.70,-82,+42,-287
44936,10.184,-26.776,10.314,4.134275,-0.470600,4.402059,100260.16,-83,+22,-288
44946,9.866,-16.802,2.747,2.241561,0.250408,3.858242,100260.16,-83,+22,-288
44955,7.725,1.374,1.180,2.016478,0.535619,3.391050,100264.55,-86,+9,-287
44965,-1.923,1.933,7.945,3.593119,0.401528,2.774335,100264.33,-87,-6,-285
44976,-2.790,-10.254,12.222,3.655908,-0.130050,2.626408,100262.61,-85,-23,-284
44986,9.759,-23.625,2.026,0.832534,-0.429096,2.741344,100256.72,-85,-23,-284
44996,14.447,-18.607,0.426,-2.431427,0.310537,1.920299,100262.50,-85,-27,-285
45005,12.214,-4.560,2.820,-3.786179,0.799546,1.153529,100260.67,-87,-19,-285
45016,9.082,2.177,3.318,-3.883023,0.867124,1.317418,100262.08,-87,-13,-284
45026,7.965,-0.057,3.349,-2.802840,0.797949,1.354666,100262.08,-87,-13,-284
45036,8.021,-0.794,2.150,-1.760969,0.606922,1.208336,100260.83,-88,-11,-282
45045,8.845,1.264,2.923,-0.580217,0.487197,1.082226,100260.83,-90,-11,-282
45056,9.565,-0.524,4.667,0.553176,0.134408,1.072116,100262.41,-89,-16,-282
45066,9.885,-2.122,3.194,1.243323,-0.218380,1.115217,100258.55,-89,-16,-282
45076,8.381,-4.376,1.843,1.212992,-0.204545,1.203547,100261.41,-89,-22,-280
45086,7.923,-6.913,3.191,0.763360,-0.020435,1.108299,100261.31,-88,-27,-281
45095,8.667,-6.798,5.377,-0.163575,0.072684,0.902373,100261.31,-88,-29,-281
45106,8.111,-4.972,6.815,-1.067630,0.183363,0.719859,100264.02,-88,-29,-281
45116,7.618,-2.974,6.276,-1.616767,0.262647,0.587364,100260.98,-88,-27,-280
45126,7.597,-0.846,4.334,-1.713611,0.257858,0.513401,100263.04,-88,-24,-281
45135,8.303,-0.117,2.077,-1.285263,0.195069,0.530960,100263.04,-88,-23,-281
45146,9.754,-0.961,0.990,-0.532860,0.070555,0.657070,100263.04,-88,-23,-281
45156,10.380,-2.995,1.029,0.191874,-0.060876,0.783712,100263.87,-88,-24,-282
45166,9.540,-5.439,1.864,0.475488,-0.091738,0.840648,100263.66,-88,-27,-281
45175,8.287,-6.197,3.049,0.184956,-0.005536,0.797015,100260.10,-88,-30,-281
45187,8.038,-4.894,3.913,-0.334383,0.112237,0.698397,100261.23,-88,-30,-281
45196,8.484,-4.226,4.209,-0.605759,0.184427,0.641639,100261.23,-88,-30,-280
45206,8.949,-3.973,3.785,-0.705795,0.254665,0.617694,100264.05,-88,-31,-281
45216,9.210,-3.627,3.018,-0.764859,0.329161,0.649089,100261.28,-88,-30,-280
45225,9.418,-3.301,2.754,-0.846804,0.364812,0.708685,100261.19,-88,-30,-280
45236,9.443,-2.702,2.562,-0.802639,0.354702,0.794354,100259.09,-90,-30,-280
45246,9.991,-3.143,2.260,-0.691428,0.330225,0.901309,100262.58,-90,-30,-279
45256,10.386,-3.797,1.791,-0.618529,0.294574,1.013584,100266.34,-90,-31,-279
45265,10.362,-4.292,1.618,-0.571171,0.302023,1.103510,100266.34,-90,-31,-279
45276,10.216,-4.885,1.354,-0.541905,0.336078,1.167896,100261.44,-90,-33,-279
45286,10.070,-5.574,1.042,-0.569575,0.406849,1.209932,100258.83,-90,-34,-277
45296,9.979,-5.943,0.589,-0.672804,0.516995,1.245052,100258.83,-91,-36,-275
45305,10.026,-5.724,0.894,-0.905869,0.614904,1.281767,100262.91,-93,-37,-275
45316,10.649,-3.460,2.736,-1.186290,0.553711,1.313161,100259.68,-93,-37,-275
45326,11.479,-0.247,4.265,-1.170327,0.267436,1.477583,100259.88,-92,-37,-275
45336,11.708,0.144,4.759,-0.631300,-0.021500,1.780886,100262.09,-91,-40,-275
45346,11.837,-2.580,4.728,-0.159319,-0.247114,2.052262,100259.81,-90,-45,-275
45356,12.319,-4.746,4.482,-0.177410,-0.324802,2.232115,100257.30,-90,-45,-275
45366,12.564,-5.611,4.516,-0.626511,-0.238600,2.320977,100261.42,-87,-50,-276
45376,13.232,-4.783,3.986,-1.165006,-0.163573,2.380574,100259.28,-85,-53,-278
45385,14.646,-4.153,3.579,-1.534822,-0.108766,2.513069,100259.28,-83,-56,-279
45395,15.842,-4.459,3.340,-1.766822,-0.061408,2.643968,100259.28,-83,-56,-279
45406,16.871,-4.545,3.106,-2.133446,0.027987,2.725381,100262.80,-80,-56,-280
45416,19.277,-2.424,3.445,-2.686308,0.125363,2.738151,100261.70,-77,-58,-282
45426,21.868,1.638,4.733,-3.227996,0.182298,2.724317,100260.51,-75,-54,-284
45435,22.925,5.584,7.128,-3.488729,0.165803,2.795619,100260.13,-75,-54,-284
45446,22.197,8.196,9.541,-3.122638,0.082262,2.997289,100260.13,-73,-52,-285
45456,20.596,6.762,10.416,-2.383005,0.082262,3.184592,100259.71,-70,-54,-287
45466,16.566,-1.079,11.979,-1.719464,0.071620,3.317087,100258.84,-67,-57,-288
45476,15.227,-11.183,8.938,-0.869685,-0.210931,3.561325,100258.09,-67,-57,-288
45486,17.664,-15.375,5.759,-1.067098,-0.333316,3.644866,100258.09,-63,-63,-287
45496,17.911,-10.177,7.898,-1.179373,-0.283298,3.421912,100259.50,-59,-68,-289
45506,16.726,-1.973,7.340,-0.727080,-0.523811,3.075509,100259.50,-55,-73,-289
45516,15.025,4.910,5.072,-0.235410,-0.779756,2.428463,100259.44,-55,-73,-289
45526,9.100,7.833,2.213,0.089709,-0.884050,1.818134,100256.83,-50,-77,-289
45536,1.005,3.235,2.588,0.807525,-0.701536,1.632427,100261.02,-47,-82,-290
45541,-3.672,-2.817,3.469,1.637616,-0.497206,1.568574,100261.02,-47,-82,-290
45551,-3.926,-6.762,5.921,2.143120,-0.026289,1.272721,100261.17,-47,-90,-287
45560,0.674,-8.996,5.894,1.819598,0.035436,0.615566,100264.05,-45,-97,-284
45571,3.461,-7.424,3.124,0.752185,-0.472729,-0.250709,100259.72,-45,-97,-284
45581,2.577,-4.530,-0.175,-0.511043,-0.663756,-1.012690,100261.33,-44,-97,-283
45591,2.010,-1.497,-1.476,-1.709354,-0.431756,-1.437314,100261.33,-45,-91,-287
45601,1.261,1.548,-2.758,-2.205813,-0.278509,-1.796488,100259.75,-47,-83,-290
45611,1.381,4.739,-2.064,-2.139831,-0.041720,-2.172158,100257.30,-50,-73,-292
45621,1.861,6.297,0.311,-1.316657,0.093968,-2.487166,100262.41,-50,-73,-292
45631,2.184,5.346,1.509,0.114186,-0.012454,-2.781955,100262.36,-54,-65,-293
45641,1.949,2.698,1.992,1.264607,0.005106,-3.044285,100262.36,-56,-64,-292
45650,1.953,-0.652,3.306,1.698809,0.227528,-3.235845,100255.21,-61,-61,-290
45661,2.689,-3.058,3.372,1.483836,0.426537,-3.464120,100254.12,-61,-61,-290
45671,3.873,-2.837,2.444,0.871378,0.612775,-3.823294,100254.07,-66,-56,-289
45681,5.399,-0.610,1.872,0.402589,0.747931,-4.237808,100251.71,-71,-48,-288
45690,7.200,1.599,1.242,0.462718,0.775601,-4.533660,100251.71,-77,-39,-287
45701,8.470,1.739,0.790,1.056552,0.759637,-4.670413,100254.63,-77,-39,-287
45711,8.896,0.428,0.969,1.821194,0.764959,-4.808761,100255.63,-82,-32,-285
45721,9.503,-1.407,1.328,2.342129,0.743142,-4.948174,100258.08,-86,-27,-282
45731,10.424,-2.637,1.446,2.639047,0.643105,-5.101422,100252.64,-90,-20,-280
45741,11.247,-3.833,1.514,2.723652,0.513803,-5.212633,100252.64,-90,-20,-280
45751,11.806,-5.009,1.612,2.702900,0.348317,-5.345128,100257.40,-94,-13,-279
45761,12.431,-6.102,2.113,2.520918,0.194537,-5.483477,100258.65,-95,-6,-279
45771,13.590,-7.117,2.662,2.151102,0.085454,-5.589899,100256.66,-98,+2,-278
45780,14.767,-7.034,3.590,1.694020,0.048739,-5.712284,100253.84,-98,+2,-278
45791,15.767,-6.580,4.604,1.367304,0.079601,-5.845311,100253.84,-97,+15,-279
45801,16.713,-6.372,5.749,1.278974,0.131216,-5.964504,100255.17,-96,+27,-279
45811,17.792,-7.882,6.899,1.492350,0.183363,-6.006008,100257.88,-95,+39,-280
45820,18.223,-11.101,7.228,1.773836,0.207840,-5.919274,100254.70,-95,+39,-280
45831,17.520,-14.732,7.052,1.889304,0.264243,-5.730907,100255.95,-93,+50,-279
45841,16.337,-18.035,6.183,1.808955,0.343528,-5.458467,100255.95,-89,+61,-280
45851,14.879,-20.187,3.771,1.515231,0.407381,-5.038633,100259.15,-87,+71,-280
45861,12.730,-20.963,2.160,1.172552,0.496775,-4.444798,100263.16,-87,+71,-280
45871,9.842,-24.587,3.923,1.129983,0.641509,-3.656212,100263.01,-85,+79,-280
45881,5.696,-26.982,6.312,0.640975,0.587234,-2.801643,100258.21,-83,+85,-279
45891,2.543,-27.747,6.585,-0.295007,0.437711,-1.704433,100258.21,-83,+89,-278
45896,2.349,-26.989,5.054,-1.015483,0.407381,-0.720562,100265.55,-83,+89,-278
45905,4.348,-24.430,4.877,-1.306015,0.502096,0.345254,100265.55,-85,+92,-275
45916,8.658,-19.888,5.322,-1.037300,0.468041,1.522813,100263.95,-87,+90,-272
45926,7.742,-15.880,2.637,-0.418988,0.094500,2.608317,100260.38,-87,+90,-272
45936,13.153,-4.942,0.972,0.137067,-0.415261,3.464481,100265.22,-91,+81,-274
45946,23.993,21.213,-2.879,0.132278,-1.145848,2.708353,100270.39,-92,+74,-276
45957,25.997,33.407,-15.215,-0.107172,-0.894692,1.073712,100268.61,-89,+71,-277
45966,19.618,2.968,-9.916,0.933103,-0.121536,2.399197,100268.20,-89,+71,-277
45976,16.179,-21.472,14.123,4.051266,-0.081096,4.245086,100268.20,-94,+56,-279
45986,11.095,-30.427,8.333,3.933138,-0.122068,3.988609,100262.92,-96,+33,-280
45996,12.466,-13.770,3.895,1.622185,0.708023,3.314426,100262.92,-99,+21,-279
46006,9.741,2.255,1.562,1.870680,0.588830,3.283564,100259.66,-99,+21,-279
46016,-0.812,2.615,11.082,3.179138,0.564885,2.682280,100264.26,-101,+6,-276
46026,-2.358,-7.650,10.150,2.760368,-0.167298,2.552977,100262.32,-101,-7,-276
46036,6.911,-19.450,0.688,0.365874,-0.199756,2.615766,100258.93,-100,-14,-275
46046,12.657,-18.236,0.998,-2.068528,0.580849,2.004904,100258.93,-100,-14,-275
46056,13.554,-8.531,3.292,-3.274821,0.804335,1.341895,100264.95,-102,-11,-274
46066,11.198,-1.423,3.473,-3.524381,0.677693,1.157786,100261.92,-102,-6,-274
46076,8.290,0.615,1.765,-2.757078,0.627142,1.008263,100265.58,-105,-1,-273
46086,6.854,-0.481,1.355,-1.779061,0.660133,0.908226,100265.58,-105,-1,-273
46096,8.236,0.264,2.146,-0.739850,0.611711,0.924189,100265.58,-106,-1,-272
46106,9.375,-0.406,3.544,0.423874,0.418555,0.933235,100262.59,-106,-4,-270
46116,9.844,-2.841,3.162,1.207671,0.206775,0.939620,100264.89,-108,-10,-269
46126,8.952,-4.935,2.840,1.234809,0.249876,0.936960,100263.17,-108,-10,-269
46136,8.060,-6.178,3.489,0.590956,0.423876,0.827345,100264.17,-108,-15,-269
46146,8.410,-6.461,5.540,-0.372162,0.556904,0.609712,100264.17,-109,-17,-267
46156,8.533,-6.486,7.047,-1.398070,0.591491,0.347382,100262.67,-109,-15,-264
46167,8.353,-4.724,6.471,-2.298932,0.644702,0.097823,100260.28,-109,-15,-264
46176,8.157,-1.490,5.538,-2.718234,0.707491,-0.093737,100259.56,-112,-9,-264
46186,8.660,1.311,4.282,-2.403758,0.612243,-0.118746,100259.56,-113,-2,-264
46196,9.946,1.985,2.053,-1.586969,0.395142,0.099419,100264.79,-113,+0,-262
46206,10.549,0.590,1.224,-0.674401,0.242959,0.381969,100263.43,-113,+0,-262
46216,10.119,-2.172,2.274,-0.053961,0.149840,0.593749,100263.43,-115,+0,-262
46226,9.072,-4.052,3.535,-0.066731,0.146647,0.699107,100260.66,-114,-2,-262
46236,8.133,-3.819,4.580,-0.527006,0.254133,0.710813,100264.48,-114,-2,-261
46246,7.948,-2.345,5.140,-1.010694,0.367473,0.698575,100264.48,-114,-2,-261
46256,8.372,-1.347,5.008,-1.258657,0.409509,0.733694,100261.70,-115,-3,-260
46266,8.895,-1.242,4.281,-1.243758,0.377583,0.829474,100262.64,-117,-1,-259
46276,9.267,-1.686,3.355,-1.091575,0.315858,0.939088,100262.22,-116,-1,-259
46286,9.495,-2.457,2.529,-0.867557,0.267968,1.047639,100260.66,-116,-1,-259
46297,9.873,-3.756,1.971,-0.649392,0.222739,1.149272,100260.45,-118,-4,-257
46306,10.335,-4.875,1.690,-0.557337,0.176445,1.205675,100263.10,-116,-5,-258
46316,10.536,-5.277,1.909,-0.612144,0.166867,1.223235,100259.66,-118,-9,-257
46326,10.309,-5.227,2.490,-0.715373,0.159950,1.214189,100259.66,-118,-9,-257
46337,9.844,-4.686,2.852,-0.843612,0.148775,1.220042,100262.48,-119,-10,-257
46346,9.724,-3.962,3.068,-0.965465,0.112592,1.251969,100262.48,-118,-11,-256
46356,9.720,-3.233,3.496,-1.056988,-0.023096,1.325932,100264.19,-117,-14,-257
46366,9.659,-2.505,3.729,-1.039428,-0.144417,1.450978,100262.47,-118,-15,-257
46376,10.123,-1.996,3.996,-0.953226,-0.279573,1.606886,100262.47,-118,-15,-257
46387,10.899,-2.305,4.173,-0.790933,-0.386527,1.773969,100260.44,-115,-18,-259
46396,12.199,-3.184,4.071,-0.712181,-0.426967,1.961803,100260.44,-114,-23,-260
46406,13.155,-4.103,3.992,-0.829777,-0.423243,2.102812,100264.70,-113,-27,-260
46416,13.511,-3.489,3.358,-1.080401,-0.448252,2.216684,100260.79,-113,-27,-260
46427,14.363,-2.507,2.789,-1.227795,-0.509444,2.359821,100261.26,-110,-30,-263
46436,15.304,-2.479,2.287,-1.185226,-0.625444,2.564152,100261.26,-108,-35,-264
46446,15.821,-3.534,2.156,-1.192676,-0.663224,2.769546,100261.26,-104,-40,-266
46456,16.559,-4.344,2.362,-1.450217,-0.606288,2.885014,100264.98,-104,-40,-266
46467,18.552,-2.762,2.834,-2.039794,-0.459958,2.895656,100260.48,-101,-43,-268
46476,20.236,1.071,4.162,-2.679923,-0.309371,2.879693,100265.86,-98,-44,-271
46486,21.478,4.970,5.472,-2.881592,-0.298197,2.964298,100264.92,-95,-45,-273
46496,22.305,7.347,6.280,-2.576693,-0.310967,3.165436,100264.92,-95,-45,-273
46507,20.497,5.010,7.197,-2.006272,-0.301389,3.384133,100266.96,-92,-48,-274
46517,17.405,-1.413,8.314,-1.318254,-0.364710,3.602298,100263.04,-88,-54,-276
46526,16.561,-9.192,10.193,-0.624382,-0.554674,3.839618,100262.84,-84,-62,-277
46536,18.445,-12.907,8.429,-0.453043,-0.693022,3.891233,100260.84,-84,-62,-277
46546,18.627,-8.926,9.560,-0.394511,-0.604160,3.673068,100263.76,-79,-70,-278
46557,16.415,-2.924,8.873,0.046608,-0.639279,3.408077,100265.01,-74,-78,-279
46566,14.907,2.238,6.664,0.544663,-0.843609,2.840848,100265.01,-67,-87,-280
46576,11.545,5.898,3.462,0.869250,-1.127224,2.129950,100261.51,-67,-87,-280
46586,4.586,4.091,3.373,1.172552,-1.051664,1.794721,100266.99,-62,-93,-280
46597,-1.618,-3.594,5.093,2.042019,-0.812747,1.823987,100266.99,-59,-102,-279
46606,-1.746,-7.639,9.071,2.655010,-0.383866,1.382868,100266.55,-56,-111,-274
46616,1.897,-7.378,6.482,1.798845,-0.698875,0.311199,100266.81,-56,-111,-274
46626,2.876,-4.826,3.563,0.147177,-0.862765,-0.556672,100260.70,-55,-113,-274
46637,3.205,-1.024,0.461,-1.341134,-0.710582,-1.117516,100264.31,-54,-109,-277
46647,3.219,2.208,-1.166,-2.369703,-0.582343,-1.501699,100265.33,-55,-99,-281
46656,2.126,3.647,-1.150,-2.435684,-0.502527,-1.747002,100261.25,-55,-99,-281
46666,1.393,3.977,-0.814,-1.576859,-0.464747,-1.998690,100262.36,-57,-89,-285
46676,1.315,3.946,0.625,-0.484438,-0.353004,-2.375423,100257.55,-59,-82,-286
46686,1.326,2.768,2.336,0.447819,-0.285958,-2.753221,100257.55,-62,-77,-286
46696,1.455,0.582,3.110,1.080497,-0.243922,-3.021405,100257.55,-62,-77,-286
46706,2.110,-1.402,3.529,1.224699,-0.125261,-3.264047,100263.36,-65,-72,-285
46716,3.522,-3.030,3.318,0.884681,0.038097,-3.535955,100259.44,-69,-68,-284
46722,4.276,-2.786,2.837,0.379709,0.181766,-3.778065,100256.36,-69,-68,-284
46731,4.238,-0.675,2.682,-0.022034,0.311601,-4.105844,100256.42,-74,-59,-284
46741,4.816,2.037,2.664,0.012553,0.390353,-4.484174,100256.42,-79,-48,-284
46751,6.242,3.227,2.168,0.651617,0.396739,-4.763532,100258.46,-85,-38,-283
46761,7.797,2.702,2.698,1.373690,0.463784,-5.006174,100253.91,-85,-38,-283
46772,9.031,0.506,2.805,1.888240,0.463784,-5.154633,100252.82,-90,-29,-283
46781,9.612,-1.790,2.687,2.150570,0.470702,-5.244559,100254.38,-93,-19,-281
46791,9.837,-3.635,2.764,2.329359,0.528170,-5.307348,100254.38,-96,-13,-280
46801,10.226,-4.925,2.913,2.558166,0.576060,-5.407917,100260.27,-96,-13,-280
46812,11.020,-5.627,3.356,2.570937,0.589362,-5.557972,100259.34,-99,-4,-279
46821,12.320,-6.351,4.193,2.260185,0.537748,-5.684082,100256.84,-101,+5,-278
46831,13.681,-6.883,5.122,1.750955,0.464317,-5.803807,100257.62,-102,+17,-277
46841,15.206,-7.510,6.723,1.310901,0.478684,-5.942687,100257.62,-102,+17,-277
46852,16.841,-8.138,8.304,1.204479,0.552647,-6.109770,100258.76,-102,+32,-277
46861,17.835,-9.282,8.947,1.440735,0.665986,-6.253972,100262.30,-101,+45,-277
46871,18.020,-13.029,8.643,1.604625,0.761766,-6.238008,100258.02,-99,+58,-277
46881,17.309,-15.662,6.085,1.211396,0.707491,-6.126265,100260.12,-99,+58,-277
46892,16.902,-17.345,4.223,0.738351,0.774004,-5.741018,100260.12,-95,+72,-275
46902,15.638,-19.218,2.472,0.437176,0.854353,-5.209440,100260.90,-93,+85,-275
46911,12.773,-20.654,3.700,0.334479,0.925656,-4.556009,100262.99,-89,+96,-273
46921,10.273,-24.390,6.398,0.439305,0.857546,-3.746670,100260.43,-89,+96,-273
46931,5.318,-26.338,7.081,0.134938,0.736757,-2.809093,100259.23,-87,+105,-272
46942,2.067,-27.132,4.465,-0.503594,0.728775,-1.578855,100259.23,-85,+110,-270
46951,3.393,-26.786,2.090,-0.925557,0.813381,-0.095333,100263.48,-88,+114,-267
46961,9.862,-23.472,2.108,-0.801043,0.735160,1.180666,100262.13,-88,+114,-267
46971,9.554,-19.480,-1.218,-0.356731,0.332353,2.267234,100262.81,-91,+111,-265
46982,14.216,-10.575,-3.209,0.060975,-0.252967,3.395839,100262.50,-95,+102,-265
46991,26.108,19.852,-5.789,0.053525,-1.137866,2.983986,100262.50,-97,+94,-269
47001,30.234,39.104,-15.326,0.013085,-1.033572,1.325400,100263.76,-97,+94,-269
47011,23.094,9.330,-12.371,1.349745,-0.419518,2.488592,100266.79,-97,+90,-270
47022,17.370,-23.320,9.536,4.743541,-0.580215,4.583508,100261.77,-100,+70,-275
47032,9.217,-31.356,10.476,4.330624,-0.467940,4.327563,100261.24,-102,+47,-277
47041,10.263,-8.890,7.118,2.413432,0.377583,3.434683,100261.24,-102,+47,-277
47051,8.628,4.327,8.027,3.031212,0.352041,3.545362,100262.43,-106,+31,-277
47062,-2.588,0.296,10.951,4.167798,-0.124729,3.157986,100259.62,-106,+12,-277
47072,-4.175,-9.061,10.954,3.672404,-0.404619,2.893528,100261.96,-105,-3,-277
47077,3.369,-15.916,6.138,2.069689,-0.439738,2.816904,100261.34,-105,-3,-277
47086,10.443,-20.167,0.927,-0.149208,-0.191243,2.579051,100261.34,-104,-11,-278
47096,14.427,-17.491,0.702,-2.521886,0.345124,1.942115,100261.34,-105,-9,-277
47107,14.102,-9.014,2.740,-4.103848,0.599472,1.465345,100264.66,-105,-9,-277
47117,8.968,-2.167,1.197,-4.529536,0.520188,1.227492,100264.46,-106,-3,-276
47127,6.748,0.657,-0.222,-3.414234,0.585105,1.076373,100261.30,-106,+3,-277
47136,7.412,2.215,1.057,-1.710951,0.678225,1.077437,100261.30,-109,+3,-274
47147,8.199,2.847,2.485,0.084388,0.610115,1.141822,100263.74,-109,+3,-274
47157,8.689,-0.471,4.129,1.439671,0.412702,1.275382,100263.74,-109,-1,-272
47166,9.273,-4.929,4.017,1.902075,0.186555,1.259418,100261.13,-111,-9,-271
47176,9.121,-7.571,2.625,1.426901,0.206243,1.117877,100264.90,-110,-15,-270
47186,9.048,-6.270,3.361,0.443030,0.436115,0.931639,100263.49,-110,-15,-270
47197,8.586,-5.319,6.389,-0.441869,0.570206,0.742208,100263.49,-113,-18,-269
47207,7.512,-6.768,7.285,-1.437446,0.591491,0.501694,100262.79,-113,-17,-267
47216,7.325,-5.012,6.295,-2.557005,0.739417,0.186153,100260.23,-115,-11,-265
47226,7.876,-1.283,4.927,-3.121042,0.843179,-0.033076,100261.05,-115,-11,-265
47237,8.983,1.137,3.268,-2.731537,0.766555,0.014814,100260.87,-116,-4,-265
47247,10.166,2.130,1.315,-1.698180,0.541472,0.278740,100263.85,-118,+0,-264
47257,10.827,0.963,0.846,-0.453043,0.301491,0.606520,100263.79,-117,-1,-263
47266,10.063,-2.356,2.183,0.487727,0.105142,0.824685,100260.93,-117,-1,-263
47277,8.888,-5.361,3.771,0.641507,-0.022564,0.907694,100260.93,-119,-5,-263
47287,8.162,-6.446,5.565,0.055122,-0.027353,0.878428,100259.77,-118,-8,-263
47296,8.035,-5.276,6.286,-0.753685,0.032776,0.730501,100259.77,-118,-9,-263
47306,8.493,-3.701,5.798,-1.327299,0.124298,0.607584,100261.45,-118,-9,-263
47316,8.815,-2.801,4.750,-1.593354,0.178574,0.591089,100263.85,-119,-7,-263
47327,9.073,-1.819,3.747,-1.557171,0.215821,0.667180,100262.65,-119,-5,-263
47337,9.414,-1.754,2.567,-1.283134,0.164207,0.812446,100259.77,-118,-5,-262
47346,9.757,-2.503,1.761,-0.961208,0.054592,0.965162,100259.77,-118,-5,-262
47356,10.261,-3.307,1.453,-0.699942,-0.037463,1.093932,100262.84,-118,-7,-263
47367,10.665,-4.429,1.919,-0.556272,-0.058215,1.178006,100259.40,-118,-9,-262
47377,10.681,-5.227,2.350,-0.550419,-0.051298,1.214189,100262.95,-117,-11,-262
47387,10.494,-5.471,2.652,-0.691428,-0.004472,1.234409,100262.95,-117,-11,-262
47396,10.404,-5.089,2.765,-0.911722,0.046078,1.248244,100262.95,-117,-12,-262
47407,10.198,-4.092,2.583,-1.128290,0.068959,1.291877,100265.03,-117,-15,-263
47417,9.922,-2.837,2.532,-1.172988,0.032243,1.394042,100263.31,-117,-16,-263
47426,10.209,-1.948,2.602,-1.002180,-0.076307,1.562721,100261.95,-116,-18,-262
47436,10.807,-2.056,3.070,-0.733465,-0.203481,1.755877,100264.41,-116,-18,-262
47447,12.169,-3.018,3.619,-0.553612,-0.302986,1.949565,100264.41,-115,-22,-265
47457,13.629,-4.049,3.762,-0.563190,-0.329591,2.073014,100263.55,-115,-27,-265
47467,14.328,-3.780,3.382,-0.761667,-0.330123,2.231583,100262.56,-111,-32,-267
47476,14.455,-3.283,2.887,-0.955355,-0.342894,2.411968,100261.48,-111,-32,-267
47486,15.010,-2.961,2.609,-1.125098,-0.393444,2.590757,100261.48,-109,-36,-268
47497,16.130,-3.360,3.051,-1.288988,-0.440270,2.765289,100260.14,-107,-40,-269
47507,17.723,-3.701,3.656,-1.553446,-0.379077,2.880225,100260.14,-104,-45,-271
47516,20.063,-2.019,4.252,-2.149409,-0.203481,2.890335,100258.73,-104,-45,-271
47526,21.066,1.730,5.553,-2.798051,-0.055555,2.857876,100261.86,-101,-46,-273
47537,21.257,5.525,6.777,-3.010895,-0.009261,2.925986,100259.25,-99,-46,-275
47547,21.333,7.232,8.309,-2.856051,0.099821,3.084023,100259.25,-97,-48,-277
47556,19.386,4.802,9.663,-2.589996,0.219546,3.238867,100260.07,-97,-48,-277
47566,16.198,-2.013,9.805,-2.060547,0.246684,3.402756,100255.38,-95,-50,-277
47577,16.978,-10.587,8.201,-1.502896,0.016812,3.709784,100258.62,-92,-54,-278
47587,20.477,-11.912,7.632,-1.520455,-0.205610,3.715637,100257.57,-88,-61,-280
47597,19.365,-5.439,9.731,-1.303887,-0.289683,3.394775,100262.55,-88,-61,-280
47606,17.294,1.478,8.551,-0.593520,-0.554674,3.079234,100259.20,-83,-66,-282
47617,15.709,6.108,5.002,0.347782,-1.000582,2.572665,100259.25,-78,-72,-283
47627,9.973,6.704,2.031,0.830938,-1.163407,2.013950,100259.25,-73,-79,-284
47637,2.185,1.135,3.642,1.496607,-0.831371,1.821326,100261.77,-73,-79,-284
47646,-1.976,-5.494,7.048,2.321377,-0.483371,1.581345,100261.77,-68,-87,-282
47656,0.745,-7.330,8.560,2.632661,-0.557334,0.791694,100262.63,-66,-96,-280
47667,3.138,-6.064,4.665,1.854717,-1.198172,-0.271816,100259.91,-64,-100,-280
47677,2.423,-3.982,1.018,0.532956,-1.319847,-0.984488,100259.91,-64,-100,-280
47687,1.857,-2.257,-1.026,-0.993667,-0.979829,-1.447956,100259.76,-61,-96,-282
47696,1.446,-0.173,-2.499,-1.942418,-0.793059,-1.898653,100259.76,-61,-86,-286
47707,0.861,2.461,-2.020,-2.332455,-0.537114,-2.315295,100263.31,-62,-75,-290
47717,0.544,4.389,-0.411,-1.849299,-0.309371,-2.619130,100257.41,-62,-75,-290
47727,0.518,5.000,0.998,-0.754217,-0.191243,-2.995863,100255.73,-63,-64,-292
47736,0.737,3.737,2.672,0.325966,-0.072582,-3.351313,100255.73,-65,-56,-291
47747,1.005,1.493,3.330,1.084222,0.063638,-3.594487,100255.73,-67,-50,-290
47757,1.522,-1.133,3.726,1.249176,0.296702,-3.803074,100259.57,-67,-50,-290
47767,2.815,-3.002,3.246,0.883084,0.528702,-4.058486,100257.12,-71,-42,-288
47776,3.692,-2.103,2.194,0.266901,0.727179,-4.404358,100257.01,-75,-33,-287
47787,4.224,0.384,1.864,-0.066199,0.901179,-4.794927,100256.18,-79,-19,-285
47797,5.701,1.580,1.937,0.158883,1.008133,-5.059917,100256.18,-79,-19,-285
47807,7.542,0.945,2.089,0.820296,1.062408,-5.231789,100256.25,-81,-7,-284
47817,9.414,-0.715,2.407,1.464680,1.111894,-5.390889,100256.61,-84,+4,-281
47826,10.941,-1.574,2.453,1.933469,1.107637,-5.601605,100256.77,-85,+14,-280
47837,11.880,-1.764,2.101,2.280405,1.028885,-5.713880,100254.41,-85,+14,-280
47847,12.535,-3.074,1.342,2.677359,0.910224,-5.704834,100259.85,-85,+23,-278
47857,12.924,-4.723,1.562,3.045046,0.819766,-5.666522,100257.18,-85,+32,-279
47866,14.927,-6.466,2.698,3.236606,0.714408,-5.616504,100257.18,-83,+39,-279
47877,17.789,-8.671,4.313,3.162643,0.560628,-5.596284,100254.21,-83,+39,-279
47887,19.368,-10.322,5.949,2.841248,0.368005,-5.660669,100253.90,-78,+45,-279
47897,19.330,-11.471,7.245,2.630533,0.219014,-5.767623,100253.90,-74,+51,-282
47906,18.445,-13.610,7.720,2.637450,0.140794,-5.820834,100261.09,-69,+58,-284
47917,17.213,-15.148,7.599,2.449615,0.091840,-5.776137,100260.00,-64,+58,-286
47927,15.697,-17.652,7.467,2.224001,0.132812,-5.456871,100257.48,-64,+62,-286
47937,14.179,-20.574,5.772,1.941983,0.280739,-4.932211,100260.36,-59,+67,-288
47947,11.828,-21.607,4.258,1.332185,0.549986,-4.332523,100263.34,-57,+70,-288
47956,9.352,-24.983,5.951,0.963965,0.819766,-3.602468,100263.02,-55,+72,-287
47967,6.159,-27.906,6.954,0.321177,0.724518,-2.761203,100261.82,-55,+72,-287
47977,3.217,-29.047,5.850,-0.639814,0.610115,-1.704965,100257.23,-55,+76,-287
47986,3.799,-27.037,4.149,-1.583244,0.696316,-0.402360,100257.23,-57,+80,-284
47996,7.661,-23.091,3.791,-1.839721,0.764426,0.831070,100257.23,-59,+81,-282
48007,8.047,-19.282,1.843,-1.534822,0.461656,2.029913,100260.25,-59,+81,-282
48017,13.405,-10.373,-1.686,-1.089979,-0.123133,3.119142,100262.75,-62,+77,-280
48027,26.064,17.321,-3.685,-1.023465,-1.055921,2.814243,100262.48,-61,+72,-282
48037,30.787,38.135,-15.423,-0.757410,-0.943646,1.075841,100261.55,-61,+71,-282
48047,21.427,7.515,-8.765,0.466975,-0.048105,2.212959,100261.55,-61,+71,-282
48057,13.999,-18.627,16.198,4.541871,-0.306178,4.279673,100264.49,-64,+56,-284
48067,9.131,-31.568,8.376,5.104843,-0.524876,4.408976,100260.09,-65,+29,-287
48077,14.009,-16.135,3.189,2.460258,0.424408,3.825784,100258.45,-67,+15,-285
48087,9.089,1.753,0.572,2.161212,0.437179,3.484169,100258.45,-67,+15,-285
48097,-3.016,4.079,11.942,3.295138,0.525509,2.684408,100258.45,-69,+0,-284
48107,-5.251,-7.582,12.535,2.971083,-0.181665,2.591821,100260.80,-68,-14,-282
48117,6.915,-19.967,1.679,0.258388,-0.199224,2.687069,100257.00,-67,-19,-283
48126,12.876,-18.408,0.098,-2.559666,0.562757,1.995326,100262.53,-67,-19,-283
48137,14.386,-9.088,2.811,-3.737757,0.949601,1.323804,100262.47,-69,-15,-282
48147,12.178,-1.872,4.048,-4.228894,0.864995,1.191841,100262.47,-71,-7,-282
48157,8.436,0.011,1.986,-3.556839,0.720261,1.042850,100263.80,-73,+0,-281
48167,6.623,1.580,0.717,-2.354271,0.696849,0.954520,100263.95,-73,+0,-281
48177,8.051,2.537,2.005,-0.896291,0.731436,0.993364,100256.91,-74,+1,-280
48187,9.521,0.306,4.542,0.606387,0.469106,1.071052,100261.80,-76,-2,-278
48197,9.565,-2.638,3.806,1.527469,0.071087,1.113620,100260.76,-75,-9,-277
48207,8.613,-5.796,2.697,1.539176,0.112592,1.115217,100261.70,-75,-9,-277
48217,8.281,-8.038,3.247,0.735158,0.349913,0.982721,100261.70,-76,-16,-276
48227,8.463,-7.462,5.352,-0.440273,0.515931,0.658667,100260.71,-77,-17,-276
48237,8.369,-6.320,7.798,-1.527373,0.551583,0.340997,100257.26,-78,-14,-274
48246,8.324,-4.775,6.603,-2.312235,0.565949,0.080263,100257.26,-78,-14,-274
48258,7.975,-1.829,5.369,-2.680987,0.693301,-0.160073,100261.24,-80,-7,-275
48267,8.022,0.666,4.169,-2.516033,0.615436,-0.162911,100261.24,-81,+0,-273
48277,9.619,1.958,1.957,-1.792363,0.370133,0.098355,100260.30,-81,+3,-273
48287,11.124,1.004,1.251,-0.719098,0.155693,0.393676,100261.77,-81,+3,-273
48297,10.409,-2.202,2.313,0.135470,-0.006068,0.596942,100261.77,-82,+1,-273
48307,9.046,-4.949,3.798,0.202516,-0.036399,0.695914,100264.30,-81,+0,-272
48317,8.271,-4.648,5.269,-0.396639,0.021069,0.692189,100259.96,-81,+0,-272
48327,8.221,-2.219,6.146,-1.047942,0.006170,0.656006,100259.49,-81,+0,-272
48336,8.192,-0.460,5.831,-1.310272,-0.035867,0.695382,100259.49,-82,+0,-273
48347,8.278,-0.321,5.008,-1.218749,-0.019903,0.798079,100259.49,-81,+1,-272
48357,8.527,-1.292,3.749,-0.973979,0.010959,0.923657,100263.20,-82,+1,-273
48367,9.095,-2.840,2.453,-0.738254,-0.002876,1.065198,100262.83,-82,+1,-273
48377,9.842,-3.872,1.305,-0.649746,-0.041365,1.196452,100259.63,-82,+0,-274
48387,10.239,-4.134,1.241,-0.619061,-0.046509,1.270061,100259.63,-81,+0,-273
48397,10.552,-4.208,1.405,-0.562126,-0.064601,1.337106,100259.63,-81,-3,-273
48407,10.698,-4.372,1.786,-0.499869,-0.068325,1.398831,100262.30,-81,-3,-273
48417,10.787,-4.569,1.975,-0.481245,-0.066729,1.449382,100260.95,-81,-5,-274
48428,10.652,-4.759,2.029,-0.534456,-0.073646,1.487694,100258.05,-81,-9,-274
48437,10.509,-4.743,2.409,-0.643538,-0.097059,1.510574,100258.05,-80,-11,-274
48447,10.366,-3.944,2.551,-0.732401,-0.136967,1.560593,100264.16,-80,-13,-274
48457,10.564,-3.241,2.692,-0.707392,-0.194967,1.652115,100264.16,-80,-13,-274
48466,10.736,-3.010,2.984,-0.582346,-0.273720,1.782482,100261.87,-78,-16,-275
48477,11.445,-3.324,3.584,-0.505190,-0.339169,1.920831,100262.24,-77,-20,-276
48487,12.584,-3.878,3.597,-0.537649,-0.379077,2.011822,100256.70,-76,-25,-277
48497,13.435,-3.872,3.013,-0.696749,-0.406747,2.156555,100256.70,-76,-25,-277
48507,14.048,-3.834,2.309,-0.881924,-0.448252,2.328427,100261.69,-74,-27,-279
48518,14.854,-3.364,2.181,-1.052199,-0.502527,2.472096,100262.48,-71,-31,-279
48527,15.644,-2.898,2.933,-1.160217,-0.548820,2.614170,100261.44,-69,-35,-282
48537,16.496,-3.345,3.633,-1.313465,-0.497738,2.738683,100262.11,-69,-35,-282
48547,18.168,-2.452,4.204,-1.777996,-0.359389,2.783381,100263.83,-66,-38,-284
48558,19.719,0.520,5.097,-2.436216,-0.214123,2.741876,100259.97,-64,-39,-284
48567,20.801,4.005,6.281,-2.781023,-0.124729,2.804665,100262.31,-62,-39,-287
48577,21.135,6.370,7.176,-2.758143,0.029583,2.986115,100262.31,-62,-39,-287
48587,20.110,5.884,8.745,-2.588400,0.224335,3.173949,100258.39,-61,-39,-288
48596,17.513,2.187,9.217,-2.186125,0.308408,3.234078,100258.39,-59,-41,-290
48607,15.435,-7.153,8.208,-1.482676,0.137601,3.503325,100260.73,-57,-48,-291
48613,17.653,-13.007,8.569,-0.976107,-0.040656,3.870481,100256.81,-57,-48,-291
48622,19.991,-11.858,8.245,-1.036768,-0.200821,3.789068,100259.42,-53,-54,-291
48632,17.989,-5.827,9.204,-1.077208,-0.215720,3.355931,100256.92,-53,-54,-291
48642,15.874,0.799,8.197,-0.720162,-0.316288,2.924922,100256.92,-50,-60,-291
48652,14.349,5.629,5.248,-0.123667,-0.658435,2.364078,100260.59,-47,-66,-294
48662,8.865,5.983,1.592,0.126424,-0.837224,1.797914,100259.34,-41,-72,-295
48672,0.974,0.247,3.146,0.733562,-0.484967,1.657436,100256.77,-41,-72,-295
48683,-2.843,-5.939,6.369,1.710515,-0.074711,1.435015,100256.15,-40,-79,-294
48692,-0.172,-6.027,8.593,1.852588,-0.142289,0.509676,100256.15,-39,-89,-292
48702,2.573,-4.256,5.652,1.270992,-0.602031,-0.435883,100259.96,-37,-93,-291
48712,2.361,-1.732,1.951,0.029580,-0.655774,-1.192543,100256.41,-38,-91,-292
48722,2.638,-0.282,-0.879,-1.404455,-0.312564,-1.681020,100260.54,-38,-91,-292
48732,2.581,2.072,-2.487,-2.298932,-0.210399,-2.157259,100259.65,-40,-83,-295
48742,1.936,4.272,-1.592,-2.264877,-0.030013,-2.380212,100259.65,-43,-74,-297
48752,1.761,5.222,-0.054,-1.216621,0.076941,-2.599974,100260.73,-46,-68,-299
48762,2.041,5.087,1.830,0.103544,0.145051,-3.004909,100257.34,-46,-68,-299
48772,2.256,3.132,3.185,1.063470,0.221142,-3.351845,100256.97,-50,-65,-298
48782,2.544,-0.045,3.628,1.474258,0.336610,-3.614707,100251.95,-55,-64,-297
48792,3.813,-3.093,3.531,1.222570,0.526573,-3.866395,100251.95,-60,-59,-294
48802,5.083,-3.669,2.505,0.457397,0.732500,-4.162780,100252.50,-60,-59,-294
48813,5.410,-0.839,1.847,-0.203484,0.944812,-4.600707,100257.14,-67,-50,-293
48822,6.273,1.732,1.548,-0.117282,1.050169,-4.942853,100255.94,-73,-40,-291
48832,7.656,1.662,1.221,0.579782,1.098059,-5.107275,100254.64,-80,-31,-288
48842,8.932,0.271,1.749,1.368901,1.136371,-5.245091,100254.64,-80,-31,-288
48847,9.893,-0.634,1.798,1.819598,1.116151,-5.374394,100257.45,-86,-24,-285
48857,10.816,-1.504,1.692,2.068093,1.074646,-5.492522,100257.45,-86,-24,-285
48867,12.040,-2.878,1.269,2.254864,0.995894,-5.588302,100254.79,-91,-15,-282
48877,12.595,-4.284,1.267,2.508148,0.920335,-5.673972,100256.24,-96,-7,-279
48887,13.195,-5.311,1.702,2.746533,0.828280,-5.784119,100255.10,-100,+0,-277
48898,15.194,-6.667,2.263,2.751322,0.712812,-5.868724,100256.36,-100,+0,-277
48908,17.521,-8.116,3.238,2.552313,0.597876,-5.913953,100258.72,-102,+9,-274
48917,19.088,-9.537,5.028,2.347450,0.524445,-5.979935,100254.95,-102,+19,-273
48927,19.526,-12.104,6.948,2.289983,0.464849,-6.042192,100254.95,-103,+31,-273
48937,18.901,-13.910,6.681,2.131414,0.326500,-6.124669,100255.16,-103,+31,-273
48947,17.995,-15.309,6.219,1.987744,0.332885,-6.010265,100255.16,-101,+43,-273
48957,17.032,-18.768,5.333,1.940919,0.423344,-5.566485,100257.34,-99,+54,-274
48967,14.951,-21.284,3.251,1.581745,0.537748,-4.968394,100261.10,-97,+64,-273
48977,11.940,-23.548,3.511,1.260350,0.770812,-4.256964,100259.27,-96,+72,-273
48988,8.910,-26.546,5.500,1.113488,0.850096,-3.431661,100258.18,-96,+72,-273
48997,4.682,-28.298,5.685,0.620222,0.622885,-2.433955,100258.18,-95,+78,-272
49007,2.203,-29.589,3.478,-0.142823,0.477087,-1.120176,100260.25,-96,+83,-270
49017,4.050,-27.362,3.058,-0.872346,0.563289,0.379841,100260.03,-98,+82,-268
49028,9.514,-22.244,4.847,-0.865428,0.472830,1.620721,100255.97,-98,+82,-268
49037,8.904,-16.741,1.312,-0.380676,0.026390,2.612041,100255.97,-101,+78,-267
49047,12.384,-7.010,1.217,0.207837,-0.383866,3.537380,100255.97,-104,+68,-269
49057,21.883,17.802,-2.057,0.302021,-1.005371,3.011656,100256.91,-102,+59,-271
49068,26.940,34.809,-13.677,-0.117814,-1.047939,1.326464,100262.86,-102,+59,-271
49077,20.713,8.329,-14.921,0.676094,-0.348747,2.045344,100262.55,-102,+57,-273
49087,18.311,-20.145,10.265,3.623450,-0.189646,4.279141,100263.95,-106,+37,-273
49097,12.533,-30.321,8.912,4.197064,-0.358325,4.247747,100263.95,-106,+15,-274
49107,10.474,-12.520,3.156,2.099487,0.477619,3.335178,100259.70,-106,+15,-274
49118,8.805,5.010,5.863,2.296368,0.699509,3.410206,100259.66,-108,+2,-272
49127,-2.368,1.706,13.748,3.285560,0.413234,3.009527,100257.56,-109,-13,-270
49137,-3.818,-8.712,6.923,2.736423,-0.317885,2.672170,100257.56,-106,-27,-269
49147,7.239,-18.499,2.514,0.411103,-0.032142,2.730170,100262.41,-106,-27,-269
49158,14.095,-18.034,1.296,-1.758841,0.307876,2.158684,100259.69,-108,-33,-269
49167,15.190,-8.938,3.984,-3.016216,0.481344,1.640409,100259.69,-107,-30,-270
49177,10.702,-2.397,2.714,-3.511610,0.396206,1.356262,100258.08,-108,-25,-269
49187,7.567,0.699,-0.010,-2.822528,0.542537,1.199290,100258.39,-108,-25,-269
49198,7.900,0.914,1.161,-1.675831,0.573931,1.243987,100258.39,-108,-23,-269
49203,8.497,1.916,2.406,-0.662162,0.425473,1.236538,100262.17,-109,-25,-269
49212,8.428,0.884,3.285,0.411103,0.201454,1.270061,100259.16,-109,-25,-269
49222,9.235,-2.409,2.400,1.327928,-0.066729,1.397767,100258.63,-109,-31,-267
49232,9.422,-5.431,2.532,1.497671,-0.066197,1.432886,100260.45,-108,-40,-267
49243,8.439,-9.491,6.083,0.703231,0.120042,1.269529,100260.45,-108,-44,-266
49252,7.073,-9.725,7.024,-0.950566,0.363748,0.825749,100260.70,-108,-44,-266
49262,7.129,-4.760,6.028,-2.264877,0.623417,0.366006,100261.37,-107,-40,-266
49272,8.009,-1.775,4.302,-2.530932,0.668115,0.148905,100258.76,-110,-35,-266
49283,8.714,0.056,2.455,-2.177611,0.551583,0.111126,100259.96,-110,-31,-266
49292,10.310,1.406,1.437,-1.320382,0.320647,0.342593,100259.96,-110,-31,-266
49302,10.848,-0.148,1.745,-0.217318,0.078537,0.618226,100262.59,-111,-32,-266
49312,9.727,-3.800,2.551,0.416956,-0.043848,0.758703,100264.30,-111,-34,-264
49323,8.794,-6.057,3.444,0.269562,-0.011390,0.790098,100262.59,-110,-37,-265
49333,8.752,-5.566,4.000,-0.295007,0.100886,0.732630,100256.16,-110,-37,-265
49342,8.859,-3.944,4.149,-0.736658,0.189216,0.646428,100256.16,-109,-37,-265
49352,8.872,-2.778,4.205,-0.926089,0.233913,0.644832,100259.08,-110,-38,-265
49362,8.973,-2.195,3.889,-0.952694,0.231252,0.702300,100257.98,-110,-37,-265
49373,9.080,-2.147,3.201,-0.835098,0.218482,0.793290,100256.36,-110,-37,-265
49382,9.232,-2.986,2.536,-0.700474,0.186023,0.892263,100255.58,-110,-37,-264
49392,9.217,-3.634,2.224,-0.643538,0.131748,0.973675,100255.58,-110,-39,-265
49402,9.271,-3.904,2.255,-0.626511,0.098757,1.028483,100259.96,-109,-40,-264
49413,9.526,-4.050,2.485,-0.616401,0.084390,1.067327,100262.05,-109,-40,-264
49422,9.823,-4.421,2.559,-0.594584,0.068427,1.101914,100260.85,-108,-41,-264
49432,9.887,-4.705,2.338,-0.614804,0.059381,1.131712,100259.71,-108,-44,-265
49442,9.914,-4.550,2.297,-0.694621,0.051399,1.158850,100259.71,-108,-45,-265
49453,9.861,-3.983,2.673,-0.791465,0.010959,1.199290,100261.69,-108,-45,-265
49463,9.809,-3.358,2.854,-0.829245,-0.044380,1.272721,100261.17,-107,-46,-266
49472,10.026,-3.039,2.844,-0.777630,-0.105573,1.383932,100261.06,-106,-49,-267
49482,10.350,-3.297,3.159,-0.698878,-0.170490,1.512171,100259.23,-105,-51,-268
49492,10.792,-3.604,3.362,-0.715373,-0.216252,1.631895,100259.23,-105,-51,-268
49503,12.067,-3.175,3.792,-0.836162,-0.225298,1.710647,100262.84,-102,-54,-269
49512,12.800,-2.662,3.666,-0.940988,-0.257756,1.922427,100262.20,-101,-58,-270
49522,13.479,-2.816,3.209,-0.998988,-0.288087,2.134207,100258.97,-98,-60,-271
49532,13.973,-2.995,2.876,-1.116052,-0.329059,2.326830,100258.56,-98,-60,-271
49543,14.330,-3.198,3.067,-1.262382,-0.387059,2.510941,100258.56,-95,-64,-273
49553,15.400,-3.648,3.444,-1.422547,-0.387059,2.653546,100260.94,-92,-68,-275
49562,17.381,-3.264,3.960,-1.788639,-0.266802,2.738683,100258.91,-88,-70,-278
49572,19.150,-1.352,4.595,-2.378216,-0.123665,2.767950,100259.69,-88,-70,-278
49583,19.925,1.590,5.141,-2.814546,-0.035335,2.807326,100260.63,-85,-70,-280
49593,20.789,4.226,5.989,-2.893298,0.063106,2.933436,100260.63,-82,-70,-282
49602,20.901,5.184,7.192,-2.782620,0.204647,3.089344,100262.09,-81,-70,-285
49612,19.227,3.609,9.296,-2.523482,0.304684,3.176610,100257.54,-81,-70,-285
49623,16.676,-1.601,9.490,-1.986051,0.265307,3.271858,100259.37,-77,-72,-287
49633,16.607,-10.564,8.213,-1.281538,0.019473,3.565582,100253.52,-74,-76,-287
49642,18.858,-13.268,7.054,-1.263446,-0.148142,3.598573,100253.52,-70,-81,-289
49652,17.281,-7.206,8.916,-1.179373,-0.179536,3.307509,100259.10,-70,-81,-289
49662,15.152,-0.793,7.771,-0.676529,-0.381206,3.012188,100259.84,-66,-86,-290
49673,13.141,3.751,5.029,-0.065667,-0.672802,2.522647,100258.12,-61,-91,-292
49682,8.059,5.540,2.314,0.371727,-0.683444,1.920299,100259.16,-57,-97,-294
49692,1.051,1.331,3.259,0.999084,-0.326931,1.610079,100259.16,-57,-97,-294
49702,-2.893,-4.934,5.670,1.678056,-0.011390,1.319547,100257.84,-54,-102,-290
49713,-0.495,-7.657,7.148,1.827579,-0.126325,0.652813,100258.00,-54,-112,-288
49723,2.137,-6.807,4.267,1.079965,-0.587132,-0.250709,100256.06,-52,-114,-286
49732,2.472,-4.042,0.815,-0.255098,-0.712710,-1.020672,100256.02,-53,-114,-289
49742,2.532,-1.386,-0.760,-1.515666,-0.495609,-1.503828,100256.02,-53,-110,-289
49753,2.420,1.911,-2.155,-2.096730,-0.373224,-1.880561,100261.88,-54,-101,-293
49763,2.088,4.789,-1.849,-1.902510,-0.260417,-2.122671,100258.06,-55,-91,-296
49772,2.020,5.795,-0.502,-0.731337,-0.194435,-2.386066,100258.48,-59,-85,-297
49782,2.221,5.355,1.015,0.687268,-0.229555,-2.753753,100257.70,-59,-85,-297
49793,1.740,2.686,2.166,1.726478,-0.211463,-3.007038,100257.70,-62,-83,-295
49803,1.779,-0.513,2.933,2.138331,-0.080564,-3.196469,100258.87,-66,-81,-293
49813,3.242,-2.561,2.491,1.929212,0.092372,-3.422616,100257.04,-70,-80,-290
49822,4.604,-2.473,2.156,1.340167,0.286060,-3.738689,100255.43,-70,-80,-290
49832,5.029,-0.160,2.460,0.918736,0.429197,-4.153734,100255.16,-76,-74,-288
49843,5.586,1.496,2.930,1.038993,0.481344,-4.463954,100255.16,-81,-65,-285
49853,6.455,0.344,3.277,1.565249,0.481876,-4.681055,100255.23,-87,-58,-283
49862,7.676,-1.357,3.634,1.957414,0.511142,-4.931147,100259.63,-87,-58,-283
49872,9.214,-2.360,3.075,2.018075,0.498372,-5.144523,100255.97,-92,-48,-280
49883,10.268,-2.942,1.743,1.887176,0.490390,-5.284999,100254.92,-97,-40,-278
49893,10.331,-4.042,0.620,2.006900,0.503693,-5.360559,100254.92,-101,-30,-276
49902,10.256,-4.997,0.617,2.371927,0.542537,-5.391421,100255.30,-101,-30,-276
49913,12.125,-6.085,1.816,2.392857,0.542537,-5.403837,100258.43,-105,-21,-273
49923,14.300,-7.433,2.979,1.900478,0.448885,-5.449954,100254.32,-108,-9,-273
49933,15.415,-7.943,4.386,1.189580,0.376518,-5.637256,100256.87,-109,+3,-272
49942,16.136,-8.786,6.178,0.906497,0.373858,-5.866064,100256.87,-109,+3,-272
49952,16.395,-10.290,7.043,1.162442,0.389289,-6.031549,100256.10,-109,+19,-271
49963,16.326,-11.727,7.370,1.605157,0.435583,-6.038999,100261.21,-108,+33,-273
49973,16.378,-13.312,7.200,1.989341,0.464849,-5.824027,100257.40,-107,+44,-272
49983,16.864,-16.413,5.796,2.209102,0.485601,-5.402064,100256.30,-107,+44,-272
49992,16.493,-19.292,3.592,2.085120,0.532427,-4.920505,100256.30,-104,+55,-273
50002,14.931,-19.809,1.947,1.549286,0.513803,-4.398505,100257.48,-102,+62,-274
50013,12.257,-20.847,3.619,1.143818,0.451546,-3.662597,100261.19,-101,+70,-274
50023,8.368,-24.237,6.069,1.038993,0.393014,-2.863900,100256.44,-101,+70,-274
50032,4.834,-25.348,6.381,0.355232,0.378115,-2.047644,100259.84,-99,+76,-275
50042,3.436,-23.764,4.939,-0.542970,0.462188,-1.010030,100259.84,-98,+79,-273
50053,4.847,-20.715,3.830,-1.019740,0.582445,0.212759,100261.86,-100,+82,-271
50063,8.946,-17.860,4.304,-0.904804,0.574995,1.267932,100260.34,-100,+82,-271
50073,9.916,-13.480,0.534,-0.562658,0.294041,1.957014,100257.36,-102,+79,-269
50082,10.271,-9.254,-0.744,-0.272126,-0.057151,2.792427,100256.31,-105,+73,-269
50093,14.697,4.155,0.343,0.130149,-0.412600,2.925986,100256.31,-107,+64,-270
50103,21.677,25.944,-3.276,0.057782,-0.725481,1.813345,100261.37,-107,+64,-270
50113,22.457,27.048,-11.118,0.158351,-0.521683,0.958776,100260.41,-105,+62,-272
50122,19.489,1.993,-3.999,1.945176,-0.362582,2.515729,100262.24,-106,+53,-273
50132,14.877,-20.143,10.822,4.415761,-0.326931,3.877398,100256.20,-108,+31,-276
50143,10.209,-27.411,5.912,3.916642,-0.069390,3.495876,100256.20,-108,+31,-276
50148,12.022,-14.642,3.924,2.561359,0.526573,2.955252,100260.77,-109,+15,-275
50157,11.739,-1.374,1.452,2.244753,0.435583,2.929179,100260.77,-111,+0,-274
50167,3.043,1.917,7.383,2.662459,0.472830,2.644500,100259.83,-111,+0,-274
50178,-1.160,-4.982,9.866,2.492184,0.197730,2.347583,100259.00,-113,-12,-270
50188,5.333,-12.452,3.839,0.987910,-0.104509,2.367271,100257.91,-111,-22,-271
50198,11.212,-14.991,2.570,-0.896291,0.157821,2.107601,100255.41,-110,-26,-271
50208,12.978,-10.109,2.715,-2.054693,0.318518,1.642005,100258.87,-110,-26,-271
50217,11.459,-4.189,3.663,-2.914051,0.482940,1.344556,100258.96,-111,-25,-271
50228,9.050,-0.074,2.111,-2.875207,0.552647,1.200886,100258.96,-111,-20,-270
50238,7.614,0.678,1.266,-1.989776,0.588830,1.137565,100258.87,-112,-20,-270
50247,8.927,1.235,1.895,-0.781355,0.451546,1.160978,100258.87,-112,-20,-270
50257,9.032,0.021,2.576,0.490920,0.220610,1.201419,100259.43,-113,-22,-269
50268,9.137,-2.523,2.251,1.299726,0.107271,1.286024,100256.82,-113,-27,-269
50278,8.909,-4.886,2.988,1.403488,0.183363,1.283895,100260.73,-113,-36,-267
50288,8.108,-7.767,4.984,0.817103,0.319051,1.102446,100258.79,-113,-36,-267
50297,7.323,-8.805,6.215,-0.514236,0.504757,0.749657,100258.79,-114,-39,-265
50308,7.494,-5.590,6.053,-1.884418,0.696316,0.378777,100258.49,-115,-37,-265
50318,8.554,-1.966,5.359,-2.396308,0.722922,0.163804,100257.21,-116,-32,-264
50328,8.985,0.120,3.633,-2.141428,0.555839,0.093566,100256.16,-116,-32,-264
50337,9.341,1.007,2.087,-1.474162,0.380775,0.206373,100256.16,-116,-28,-264
50348,10.038,0.027,1.739,-0.620126,0.210500,0.437841,100256.16,-117,-27,-264
50358,9.887,-2.480,2.420,0.017874,0.103546,0.591089,100261.53,-117,-29,-262
50368,9.040,-4.442,3.343,0.115782,0.097161,0.646960,100256.83,-117,-29,-262
50377,8.321,-4.659,4.090,-0.190181,0.172720,0.608116,100262.58,-117,-31,-263
50387,7.956,-3.792,4.741,-0.582346,0.251473,0.522979,100258.92,-117,-31,-262
50398,7.984,-2.820,4.743,-0.860107,0.263711,0.471896,100258.92,-117,-31,-262
50408,8.315,-1.996,4.503,-0.953226,0.266904,0.471364,100261.82,-117,-31,-262
50418,8.543,-1.696,4.030,-0.872878,0.257326,0.532024,100257.43,-118,-31,-263
50427,8.612,-1.880,3.410,-0.720162,0.240830,0.612373,100259.99,-118,-30,-262
50438,8.876,-2.464,2.692,-0.566382,0.209968,0.700171,100259.99,-118,-31,-262
50448,9.007,-3.494,3.074,-0.483373,0.201986,0.779455,100260.84,-118,-31,-262
50458,9.241,-3.489,2.791,-0.473263,0.194537,0.825749,100259.38,-118,-32,-261
50467,9.371,-3.892,2.733,-0.525410,0.200922,0.867786,100259.38,-118,-34,-262
50478,9.388,-3.595,2.773,-0.572236,0.199326,0.909290,100257.30,-118,-35,-260
50488,9.328,-3.366,2.613,-0.564254,0.199858,0.962501,100258.39,-118,-35,-261
50498,9.109,-2.974,2.720,-0.534988,0.201454,1.032208,100258.39,-118,-37,-261
50507,9.167,-2.716,2.864,-0.443997,0.183363,1.127987,100260.64,-118,-39,-260
50518,9.299,-2.992,2.840,-0.335447,0.147711,1.238666,100259.86,-118,-41,-259
50528,9.431,-3.627,2.845,-0.293410,0.114720,1.349345,100258.56,-118,-45,-259
50538,9.602,-3.860,2.910,-0.355135,0.089179,1.463749,100258.34,-118,-45,-259
50548,9.765,-3.651,3.516,-0.426438,0.060445,1.587730,100260.48,-117,-48,-260
50557,10.009,-3.376,4.533,-0.467410,0.007766,1.727675,100257.97,-115,-52,-260
50568,10.477,-3.265,5.166,-0.552016,-0.118344,1.850592,100259.91,-113,-56,-260
50578,11.210,-4.293,4.927,-0.665887,-0.166234,1.978299,100259.91,-113,-56,-260
50588,11.846,-5.681,4.307,-0.849997,-0.136435,2.059179,100255.58,-111,-60,-262
50597,12.702,-6.326,3.981,-1.145318,-0.068325,2.090574,100255.58,-109,-64,-264
50608,13.614,-6.623,3.899,-1.515666,-0.008729,2.185822,100261.83,-108,-66,-264
50618,15.363,-6.324,3.840,-1.989776,0.067895,2.283730,100263.81,-108,-66,-264
50628,18.093,-4.779,4.549,-2.583611,0.082262,2.378977,100255.25,-105,-68,-266
50638,20.923,-0.830,4.909,-3.114124,0.006702,2.542867,100260.48,-101,-68,-269
50648,23.824,1.254,4.459,-3.198730,-0.075243,2.844041,100260.48,-99,-67,-272
50658,27.953,1.502,3.808,-3.149776,-0.161977,3.105839,100260.83,-99,-67,-272
50668,28.566,4.048,4.119,-3.265775,-0.391848,3.238867,100257.78,-96,-67,-275
50678,26.259,7.303,6.038,-2.920436,-0.783481,3.388389,100258.27,-90,-67,-280
50688,20.492,3.587,7.671,-1.412437,-1.249609,3.699674,100258.27,-83,-74,-285
50698,14.782,-6.753,9.181,0.153562,-1.504490,3.939123,100258.27,-83,-74,-285
50708,11.673,-11.422,11.086,1.109763,-1.248013,3.845472,100260.24,-74,-85,-286
50718,12.492,-8.144,7.079,1.382735,-1.112325,3.495343,100258.57,-67,-96,-287
50727,11.557,-4.166,5.903,0.743140,-1.197462,3.200555,100258.57,-59,-104,-289
50738,9.226,-1.529,5.391,0.872442,-1.418288,2.894592,100259.30,-59,-104,-289
50748,4.440,-1.778,5.235,1.352937,-1.587499,2.403986,100259.30,-51,-112,-290
50758,-2.290,-3.457,5.467,1.891432,-1.593352,1.640409,100259.91,-43,-119,-290
50768,-4.844,-1.976,4.729,1.685506,-1.437976,0.817235,100258.77,-38,-125,-291
50778,-0.659,-0.303,2.390,0.344589,-1.399132,0.249474,100259.87,-38,-125,-291
50788,3.452,1.756,0.552,-0.758474,-1.452875,-0.418324,100256.51,-34,-124,-294
50798,4.566,3.072,-0.953,-1.092639,-1.470967,-0.953094,100256.46,-32,-118,-299
50808,3.186,2.966,-1.238,-0.762731,-1.476288,-1.217020,100257.80,-30,-115,-302
50818,1.123,2.583,-0.802,-0.102383,-1.497572,-1.384635,100257.80,-30,-115,-302
50828,0.167,1.926,-0.203,0.598938,-1.581645,-1.620892,100256.24,-26,-112,-305
50838,0.761,0.985,0.468,1.185323,-1.676893,-1.976873,100257.55,-24,-112,-307
50848,1.621,-0.608,1.283,1.498203,-1.780122,-2.333387,100257.55,-24,-112,-306
50857,2.341,-1.854,2.126,1.543433,-1.865260,-2.656377,100253.21,-24,-112,-306
50868,3.331,-2.146,2.250,1.385396,-1.934434,-2.937863,100257.29,-22,-113,-307
50878,4.090,-2.079,2.447,1.138497,-1.910489,-3.145386,100258.80,-20,-111,-309
50888,3.649,-1.120,2.770,0.994828,-1.853022,-3.409313,100256.46,-20,-109,-310
50898,3.555,-0.311,3.026,1.065066,-1.841847,-3.732835,100256.46,-20,-109,-310
50908,4.406,-0.624,3.451,1.402956,-1.885480,-3.953661,100257.41,-20,-105,-312
50918,6.045,-2.122,3.893,2.031909,-1.922196,-4.080303,100255.28,-22,-105,-310
50928,7.590,-3.914,4.422,2.636918,-1.998287,-4.181404,100253.72,-22,-105,-310
50938,8.307,-6.309,4.435,3.146147,-2.120141,-4.176083,100253.72,-22,-105,-310
50948,8.539,-8.921,4.314,3.510642,-2.210067,-4.088284,100253.72,-22,-109,-309
50958,8.373,-9.978,4.752,3.725615,-2.305315,-4.029221,100257.56,-22,-114,-305
50968,8.433,-9.346,5.388,3.793725,-2.471333,-3.956854,100259.02,-22,-118,-304
50978,9.417,-9.519,6.069,3.838422,-2.660232,-3.788707,100258.03,-21,-118,-300
50988,10.531,-10.251,6.848,3.893761,-2.825186,-3.621092,100257.08,-21,-124,-300
50998,10.790,-10.341,6.838,3.900147,-2.935865,-3.456671,100257.08,-19,-129,-298
51008,10.544,-10.565,7.067,3.995926,-2.923094,-3.184230,100258.08,-18,-135,-295
51018,10.431,-9.716,8.127,4.168330,-2.901278,-2.886781,100258.34,-14,-142,-291
51028,11.317,-8.076,9.067,4.652550,-2.891700,-2.570176,100257.56,-14,-142,-291
51038,12.532,-6.758,9.632,5.508183,-2.887975,-2.193442,100257.56,-13,-153,-284
51048,12.699,-6.945,10.382,6.579852,-2.841681,-1.720928,100264.14,-12,-167,-274
51058,11.585,-7.465,11.026,7.587135,-2.783149,-1.229259,100264.14,-7,-185,-259
51068,9.959,-7.984,12.424,8.364548,-2.656507,-0.786544,100260.17,-7,-185,-259
51078,8.613,-9.266,13.685,8.796088,-2.479315,-0.380012,100259.14,-5,-202,-240
51088,7.628,-11.990,12.870,8.775336,-2.294141,-0.033076,100256.42,-2,-218,-218
51093,7.892,-12.909,11.413,8.168732,-2.339370,0.122300,100256.42,-2,-218,-218
51103,7.395,-11.407,10.270,7.355135,-2.386195,0.298960,100262.19,+0,-231,-199
51113,7.005,-9.668,11.693,6.837393,-2.083957,0.627804,100258.78,+5,-241,-181
51123,5.744,-10.822,12.786,6.333485,-1.702434,0.980061,100261.39,+5,-241,-181
51133,3.373,-12.285,13.034,5.291081,-1.284728,1.232281,100256.70,+10,-249,-164
51143,-0.511,-17.314,17.609,4.206642,-0.499866,1.433418,100256.70,+15,-253,-151
51153,2.347,-15.191,8.907,3.079633,0.148243,1.303584,100261.97,+18,-257,-140
51163,4.298,-14.025,6.432,1.173084,0.600005,1.363712,100261.03,+18,-257,-140
51173,7.957,-4.315,5.801,-0.047043,1.346022,0.907694,100258.78,+23,-259,-138
51183,11.035,2.177,5.136,-1.228859,1.600371,0.334080,100253.72,+24,-258,-140
51193,7.635,0.591,4.223,-1.197465,1.396573,0.323437,100253.72,+24,-259,-143
51203,7.986,0.611,6.058,-0.367373,1.445527,0.599602,100260.80,+24,-259,-143
51213,13.471,2.033,3.277,0.386094,1.090610,0.759767,100257.77,+26,-260,-141
51223,16.653,-0.102,-2.815,0.876699,0.545729,0.707621,100259.59,+27,-260,-139
51233,17.684,-4.937,-2.822,1.576423,0.366408,0.889602,100259.66,+31,-262,-133
51243,15.678,-5.006,-1.748,2.088845,0.183363,0.843309,100259.66,+31,-262,-133
51253,10.769,-6.100,-0.065,2.302221,0.194005,0.732630,100256.08,+34,-264,-124
51263,8.454,-9.796,2.036,2.044680,0.269032,0.664520,100260.61,+36,-264,-118
51273,9.438,-8.307,2.115,1.061873,0.356298,0.425602,100260.41,+37,-266,-114
51283,9.315,-5.482,3.463,0.036498,0.627674,0.250006,100257.84,+37,-265,-115
51293,8.904,-3.357,4.022,-0.448254,0.665986,0.168593,100257.84,+37,-265,-115
51303,8.762,-1.815,2.280,-0.548823,0.549986,0.157951,100257.50,+38,-266,-116
51313,9.599,-0.752,2.298,-0.283832,0.476555,0.237236,100260.48,+39,-267,-117
51323,10.299,-0.281,2.271,0.258388,0.338739,0.348447,100261.22,+40,-267,-115
51329,10.018,-1.290,1.661,0.667048,0.250941,0.438373,100258.59,+40,-267,-115
51338,9.273,-3.283,1.496,0.903837,0.201986,0.511804,100258.59,+43,-265,-111
51348,8.415,-5.294,1.977,0.934167,0.178574,0.512336,100258.59,+43,-265,-111
51358,8.482,-5.258,2.396,0.669176,0.197730,0.429327,100258.42,+43,-267,-109
51368,8.842,-5.049,2.557,0.367470,0.259986,0.337804,100261.86,+45,-268,-108
51379,8.894,-5.069,2.795,0.108333,0.312133,0.246281,100256.06,+46,-267,-106
51388,8.822,-4.190,2.137,-0.115153,0.314262,0.166465,100256.06,+46,-267,-106
51398,8.959,-3.755,1.634,-0.230621,0.331821,0.134006,100259.31,+47,-267,-106
51408,9.088,-3.497,0.919,-0.256695,0.319583,0.123364,100259.31,+47,-268,-108
51419,8.664,-3.090,1.251,-0.127392,0.295106,0.140924,100253.30,+48,-267,-108
51428,8.543,-2.330,2.160,0.136534,0.234445,0.172850,100261.70,+48,-267,-108
51438,8.762,-2.933,2.551,0.387690,0.154097,0.212759,100254.66,+48,-268,-106
51448,8.939,-4.576,2.856,0.448883,0.121638,0.211694,100254.66,+49,-269,-106
51459,8.508,-5.230,2.726,0.237635,0.141326,0.161144,100263.39,+50,-268,-105
51468,8.396,-4.396,2.415,-0.005007,0.179638,0.093566,100259.36,+50,-268,-105
51478,8.625,-3.400,2.563,-0.051300,0.182830,0.062171,100257.59,+49,-268,-104
51488,8.640,-3.060,2.329,0.088645,0.137069,0.082392,100258.95,+50,-268,-105
51499,8.768,-3.879,1.785,0.214755,0.097161,0.104740,100261.03,+50,-269,-104
51509,8.915,-4.502,1.922,0.224865,0.079069,0.090905,100259.83,+50,-269,-103
51518,8.858,-3.971,2.149,0.208369,0.072152,0.056850,100261.70,+50,-269,-103
51528,8.768,-3.823,2.207,0.223800,0.058317,0.044612,100261.70,+51,-269,-103
51538,8.750,-3.998,2.620,0.242956,0.041289,0.040355,100258.98,+51,-268,-101
51548,8.780,-3.906,2.807,0.248278,0.012555,0.022795,100258.98,+51,-268,-100
51558,8.684,-3.811,2.637,0.232846,-0.004472,0.014282,100262.56,+51,-268,-100
51568,8.563,-4.046,2.400,0.221672,-0.013518,0.012685,100262.20,+52,-269,-100
51578,8.703,-3.937,2.293,0.189213,-0.028949,0.009493,100258.34,+51,-268,-99
51589,8.751,-3.683,2.291,0.166333,-0.041720,0.005236,100259.75,+51,-269,-99
51598,8.582,-3.551,2.359,0.194534,-0.068325,0.021199,100259.75,+51,-269,-99
51608,8.568,-3.514,2.593,0.234975,-0.115683,0.048869,100260.09,+51,-269,-98
51618,8.772,-3.300,3.210,0.372259,-0.203481,0.085584,100259.30,+52,-268,-97
51629,8.983,-2.911,2.473,0.559562,-0.343958,0.124960,100254.55,+52,-269,-95
51639,8.787,-3.087,2.542,0.487727,-0.336509,0.188814,100254.55,+52,-269,-95
51648,9.082,-3.119,2.775,0.399397,-0.350343,0.234575,100254.55,+53,-269,-93
51658,9.208,-2.695,2.469,0.259452,-0.353536,0.285658,100259.34,+55,-269,-93
51668,9.396,-1.927,2.770,0.156223,-0.349279,0.396868,100258.52,+54,-269,-93
51679,9.712,-1.430,2.969,0.152498,-0.364710,0.528832,100254.95,+54,-269,-93
51684,9.836,-1.508,2.882,0.174314,-0.393976,0.648024,100259.92,+58,-269,-92
51693,10.024,-1.287,2.672,0.188149,-0.403022,0.787969,100259.92,+58,-269,-92
51703,10.042,-1.224,3.623,0.226461,-0.376417,0.983253,100262.73,+61,-269,-91
51714,10.008,-2.195,3.888,0.221140,-0.436545,1.179602,100257.20,+65,-271,-91
51723,10.687,-2.653,4.202,0.118975,-0.457830,1.359987,100252.66,+69,-270,-91
51733,11.674,-2.359,4.312,-0.068860,-0.549885,1.552079,100254.02,+69,-270,-91
51743,12.727,-0.886,4.229,-0.314695,-0.630765,1.752684,100254.02,+76,-271,-91
51753,13.959,-2.268,5.135,-0.447722,-0.724417,1.937858,100260.38,+82,-271,-93
51764,15.854,-4.087,4.283,-0.480181,-0.857976,2.136335,100258.40,+90,-271,-95
51773,18.409,-5.712,3.529,-0.467410,-0.987811,2.269363,100257.10,+99,-271,-96
51783,19.685,-6.011,2.236,-0.633428,-1.145315,2.360353,100258.24,+99,-271,-96
51793,18.612,-3.567,2.826,-0.842547,-1.290049,2.443362,100258.24,+108,-271,-99
51804,16.601,-1.347,4.273,-0.727612,-1.479480,2.547124,100262.59,+117,-270,-101
51813,14.835,-0.275,5.454,-0.393447,-1.641774,2.686005,100258.79,+127,-267,-102
51823,12.377,0.026,7.185,0.041287,-1.650820,2.751454,100260.04,+127,-267,-102
51833,10.305,0.119,7.351,0.655874,-1.652416,2.705161,100257.59,+137,-267,-100
51844,8.542,-2.319,5.488,1.069323,-1.708820,2.659399,100257.59,+147,-265,-95
51854,7.391,-5.805,4.129,1.193304,-1.715205,2.581711,100260.23,+155,-263,-90
51863,7.370,-6.666,3.335,1.197561,-1.691792,2.356629,100256.10,+155,-263,-90
51873,7.006,-4.407,1.396,0.971947,-1.692324,1.920299,100257.46,+162,-261,-85
51884,7.614,-1.630,3.298,0.813910,-1.541737,1.504721,100255.01,+167,-259,-81
51893,7.856,3.022,4.106,1.009727,-1.588563,1.017308,100255.01,+170,-257,-76
51903,6.704,4.788,3.678,1.521084,-1.629003,0.788501,100258.60,+170,-257,-76
51913,5.353,3.396,3.498,2.241561,-1.687535,0.745400,100261.26,+172,-257,-68
51923,5.017,1.734,3.890,2.778991,-1.699242,0.549052,100255.04,+172,-254,-58
51934,5.089,1.331,4.113,3.043982,-1.666783,0.212226,100255.98,+172,-251,-46
51943,4.947,1.118,4.032,3.154129,-1.635921,-0.119278,100255.98,+172,-251,-46
51953,5.183,0.523,3.836,3.160514,-1.624746,-0.418324,100256.98,+169,-250,-35
51963,5.332,0.305,3.684,3.090808,-1.624214,-0.735993,100250.56,+163,-247,-23
51974,5.317,0.460,3.701,2.964166,-1.596545,-1.047809,100254.27,+158,-244,-14
51984,5.441,0.031,3.568,2.830606,-1.516196,-1.302690,100253.91,+158,-244,-14
51993,5.811,-1.222,3.589,2.655542,-1.389022,-1.531497,100253.91,+151,-242,-3
52003,6.478,-2.620,3.489,2.369267,-1.260783,-1.768818,100256.19,+143,-239,+4
52014,7.067,-3.287,3.587,2.001047,-1.122435,-2.001350,100259.42,+134,-237,+10
52024,7.468,-3.344,3.511,1.671139,-0.980361,-2.211001,100257.81,+134,-237,+10
52033,8.027,-3.349,3.633,1.428497,-0.827114,-2.382873,100252.33,+125,-237,+16
52043,8.783,-3.478,3.711,1.267800,-0.690362,-2.512708,100252.33,+115,-235,+20
52054,9.455,-3.530,3.857,1.197029,-0.571701,-2.621790,100258.82,+105,-233,+23
52064,9.872,-3.685,3.897,1.209268,-0.476454,-2.715441,100255.05,+105,-233,+23
52073,10.236,-3.929,3.844,1.289616,-0.409940,-2.798451,100254.90,+95,-232,+27
52083,10.546,-4.123,3.913,1.403488,-0.341830,-2.876671,100255.63,+85,-230,+31
52093,10.744,-4.055,3.986,1.536515,-0.285958,-2.936267,100255.63,+74,-226,+35
52104,10.991,-4.034,4.073,1.659965,-0.239133,-2.971386,100256.26,+74,-226,+35
52113,10.989,-4.366,4.179,1.783946,-0.196564,-2.985753,100255.74,+64,-222,+40
52123,10.882,-5.019,4.133,1.846203,-0.161445,-2.992671,100256.99,+56,-216,+44
52133,10.844,-5.834,3.999,1.819598,-0.147610,-2.992139,100257.37,+46,-210,+50
52144,10.957,-6.392,3.967,1.696680,-0.146545,-2.974047,100257.37,+46,-210,+50
52154,11.035,-6.464,4.021,1.560460,-0.117279,-2.940524,100257.28,+36,-205,+53
52163,10.978,-6.368,4.139,1.477983,-0.041720,-2.896359,100257.86,+29,-198,+56
52173,10.783,-6.227,3.930,1.374222,0.007234,-2.845276,100254.47,+20,-193,+60
52184,10.182,-6.351,3.701,1.284827,0.062574,-2.754286,100256.28,+20,-193,+60
52194,9.368,-7.450,3.593,1.259286,0.129619,-2.581882,100256.28,+12,-187,+63
52203,8.585,-9.551,3.207,1.222570,0.191876,-2.354139,100255.73,+8,-181,+66
52213,7.341,-11.684,2.949,1.177873,0.189216,-2.096598,100254.33,+3,-175,+69
52224,6.083,-13.036,2.621,1.189580,0.147711,-1.791699,100259.91,+3,-175,+69
52234,6.016,-13.755,2.141,1.148607,0.143454,-1.436782,100259.13,-1,-170,+72
52243,6.249,-13.774,1.621,0.946406,0.138665,-1.128158,100259.13,-3,-165,+74
52253,5.791,-13.671,1.769,0.650553,0.133344,-0.814213,100259.38,-5,-162,+75
52263,4.689,-13.560,2.693,0.354699,0.135473,-0.476324,100256.97,-6,-162,+76
52274,4.533,-13.257,4.979,0.194889,0.175736,-0.103669,100255.97,-6,-161,+76
52284,4.314,-13.433,4.969,0.191342,0.176977,0.272355,100256.61,-5,-161,+76
52293,4.578,-14.782,5.411,0.373855,0.150904,0.942813,100256.61,-2,-159,+77
52303,9.144,-11.840,6.465,0.517525,0.066298,1.505785,100258.00,+0,-162,+78
52314,20.659,3.949,4.747,0.092369,-0.626508,1.341895,100256.64,+0,-162,+78
52324,24.584,12.618,-3.995,-0.418456,-0.985150,0.607052,100263.02,-1,-163,+76
52333,19.878,0.363,-2.039,0.641507,-0.054490,1.628170,100258.42,+1,-164,+77
52343,12.004,-13.834,3.767,2.372992,0.112592,2.996225,100258.42,+9,-161,+83
52354,6.341,-14.138,1.033,2.402790,0.109399,2.473161,100259.16,+9,-161,+83
52364,3.225,-5.447,2.070,0.434516,0.412170,1.861767,100260.00,+15,-159,+86
52373,2.481,-1.679,3.180,0.145580,0.195601,1.566446,100256.34,+19,-161,+87
52383,6.256,-5.519,2.386,0.716002,-0.048105,1.390317,100258.33,+22,-159,+88
52393,11.740,-7.318,2.241,0.719195,-0.043848,1.279639,100258.33,+22,-159,+88
52404,12.371,-6.970,1.364,0.268498,0.114188,0.997620,100258.19,+25,-158,+89
52414,9.903,-5.985,1.689,-0.007135,0.321711,0.809254,100257.72,+27,-160,+90
52423,7.829,-2.452,2.868,-0.239135,0.418023,0.781052,100258.97,+30,-161,+89
52433,8.150,-0.749,3.421,-0.452511,0.454739,0.808189,100258.34,+30,-161,+89
52444,9.394,-2.497,3.380,-0.420052,0.381307,0.812446,100258.34,+33,-163,+89
52454,9.351,-3.269,3.206,-0.198163,0.322243,0.718795,100258.48,+36,-165,+88
52463,9.613,-2.045,3.204,0.049801,0.294041,0.611841,100258.37,+38,-166,+89
52473,9.082,-1.147,3.118,0.397800,0.238170,0.588960,100258.37,+38,-166,+89
52484,8.512,-2.611,2.824,0.581378,0.224335,0.651749,100258.79,+41,-164,+90
52494,9.101,-4.286,2.455,0.347250,0.292445,0.687400,100258.79,+42,-165,+91
52504,9.333,-4.606,2.475,-0.126328,0.397271,0.628868,100261.18,+45,-165,+91
52509,9.386,-4.113,2.686,-0.422713,0.438243,0.554373,100258.99,+45,-165,+91
52518,9.190,-3.161,3.045,-0.541373,0.427601,0.497437,100258.99,+48,-165,+90
52529,8.594,-2.434,3.277,-0.503061,0.408445,0.484135,100260.76,+50,-168,+89
52539,8.579,-2.457,3.250,-0.451979,0.391950,0.502758,100261.96,+50,-168,+89
52549,8.787,-2.493,2.945,-0.469539,0.379711,0.511804,100261.96,+53,-170,+88
52558,9.158,-2.628,2.912,-0.469006,0.389289,0.526703,100259.36,+54,-171,+87
52569,9.322,-2.870,3.050,-0.456236,0.387693,0.552245,100259.00,+57,-173,+87
52579,8.947,-2.462,3.275,-0.474860,0.393014,0.572465,100255.30,+57,-173,+87
52589,8.743,-2.312,3.326,-0.525410,0.401528,0.611841,100255.30,+61,-175,+85
52598,9.115,-2.528,3.494,-0.579685,0.400995,0.657070,100255.30,+62,-177,+85
52609,9.103,-2.558,3.615,-0.599373,0.393546,0.690061,100263.19,+64,-179,+84
52619,8.795,-2.992,3.742,-0.603098,0.390885,0.715602,100262.61,+64,-179,+84
52629,8.742,-3.270,3.727,-0.632364,0.382372,0.751254,100257.02,+67,-181,+82
52638,8.959,-3.454,3.654,-0.683979,0.383436,0.769877,100261.09,+71,-184,+80
52648,8.892,-3.206,3.602,-0.741979,0.395142,0.791162,100261.09,+74,-185,+80
52659,8.997,-2.400,3.534,-0.815942,0.432390,0.828410,100259.03,+74,-185,+80
52669,9.237,-1.858,3.464,-0.854786,0.465913,0.877896,100260.13,+78,-188,+77
52679,9.398,-1.976,3.128,-0.745703,0.501032,0.927382,100258.66,+81,-189,+75
52688,9.554,-3.679,2.297,-0.610016,0.545729,0.989107,100258.66,+85,-193,+74
52699,9.501,-5.226,1.362,-0.581814,0.607986,1.019969,100257.40,+85,-193,+74
52709,9.168,-5.613,1.124,-0.643538,0.703766,1.044446,100257.40,+90,-194,+72
52719,8.884,-5.153,2.591,-0.679190,0.813913,1.030611,100260.85,+95,-195,+71
52728,9.349,-4.478,3.726,-0.766988,0.796885,1.029015,100261.01,+99,-197,+68
52739,9.835,-4.322,3.887,-0.797850,0.695784,1.078501,100260.90,+99,-197,+68
52749,10.730,-5.013,3.173,-0.789869,0.594683,1.121070,100260.90,+104,-200,+67
52759,10.519,-4.587,3.356,-0.830309,0.519656,1.162575,100259.64,+109,-201,+65
52769,10.298,-4.034,3.440,-0.810089,0.469106,1.240263,100260.00,+113,-204,+62
52779,10.598,-3.879,3.196,-0.726548,0.404720,1.345088,100258.34,+113,-204,+62
52789,10.933,-3.821,3.607,-0.645667,0.352041,1.476519,100259.34,+118,-204,+60
52799,11.472,-4.425,3.902,-0.660034,0.342996,1.612207,100259.50,+123,-204,+58
52809,12.138,-5.439,3.257,-0.842547,0.411106,1.750024,100259.19,+130,-206,+56
52818,12.937,-5.610,2.647,-1.207043,0.493583,1.856446,100258.98,+130,-206,+56
52829,13.657,-4.326,2.727,-1.543336,0.489326,1.965528,100258.98,+137,-208,+53
52839,14.161,-3.499,3.046,-1.655611,0.432922,2.120372,100256.06,+143,-210,+47
52849,14.594,-3.786,2.937,-1.640180,0.363216,2.286922,100256.06,+150,-213,+43
52858,14.890,-4.828,2.813,-1.710418,0.375986,2.415693,100257.74,+150,-213,+43
52865,15.637,-5.176,3.411,-1.913684,0.430794,2.446555,100260.46,+161,-213,+38
52874,17.696,-3.612,4.330,-2.246785,0.468573,2.423675,100255.02,+167,-216,+31
52884,20.379,0.268,5.998,-2.662895,0.480812,2.427399,100255.96,+167,-216,+31
52893,20.193,3.273,6.458,-2.803372,0.472298,2.480610,100255.96,+176,-219,+23
52903,19.183,3.592,6.171,-2.679390,0.405784,2.639179,100260.35,+185,-221,+15
52914,19.573,4.052,5.897,-2.528271,0.291913,2.707821,100254.45,+193,-221,+7
52924,18.315,0.746,6.559,-2.244657,0.109399,2.823289,100256.38,+193,-221,+7
52934,16.573,-6.088,6.364,-1.634327,-0.211463,3.057949,100251.52,+203,-220,+1
52943,16.131,-9.971,5.952,-1.548125,-0.376417,3.114885,100251.52,+212,-218,-2
52954,15.921,-8.732,8.160,-0.951098,-0.400894,3.168096,100257.97,+221,-214,-3
52964,14.865,-4.722,7.583,-0.445061,-0.543499,3.039858,100256.77,+221,-214,-3
52974,13.463,-0.278,6.701,-0.193374,-0.668013,2.636518,100257.81,+229,-210,-3
52983,11.417,3.938,3.119,0.087580,-0.804765,2.060776,100256.45,+234,-205,-2
52994,6.349,3.754,2.308,0.092369,-0.607885,1.677657,100256.45,+237,-202,+0
53004,1.090,-1.052,3.864,0.750057,-0.371628,1.500464,100257.98,+237,-202,+0
53014,-0.591,-4.212,6.196,1.423708,0.027987,1.137033,100257.24,+240,-197,+2
53024,2.401,-4.165,5.575,1.211928,0.009363,0.484135,100257.76,+244,-194,+6
53033,4.505,-2.713,4.242,0.609580,-0.151867,-0.173021,100251.65,+241,-194,+6
53044,4.940,0.222,1.181,-0.289685,-0.264142,-0.840819,100251.65,+241,-194,+6
53054,4.942,1.844,-0.945,-1.163410,-0.320013,-1.259057,100256.25,+238,-197,+5
53064,4.053,2.863,-1.643,-1.559299,-0.340233,-1.631534,100257.92,+232,-201,+2
53073,2.948,3.174,-1.178,-1.242162,-0.246050,-1.861405,100256.20,+226,-208,+0
53084,2.943,3.258,-0.358,-0.286493,-0.246050,-2.138103,100254.64,+226,-208,+0
53094,3.059,2.431,0.877,0.611709,-0.241793,-2.539845,100254.64,+219,-210,+1
53099,2.969,1.078,1.779,1.067194,-0.238600,-2.796854,100256.11,+209,-213,+5
53108,3.119,-0.441,2.419,1.290681,-0.239133,-2.983625,100256.11,+209,-213,+5
53118,3.830,-2.227,2.366,1.311433,-0.211995,-3.204450,100252.30,+200,-216,+8
53129,4.658,-2.972,2.102,0.995892,-0.091738,-3.479551,100251.52,+189,-220,+12
53139,5.113,-1.590,2.234,0.532424,0.058849,-3.842982,100250.69,+176,-224,+14
53149,5.679,0.663,2.289,0.321177,0.103014,-4.209074,100253.47,+176,-224,+14
53159,6.429,1.857,1.913,0.575525,0.067363,-4.527807,100255.39,+162,-227,+15
53169,7.389,0.873,2.114,1.108167,0.054060,-4.757147,100252.94,+147,-230,+19
53179,8.185,-1.243,2.400,1.517891,0.046078,-4.892303,100252.94,+131,-230,+23
53189,9.210,-2.768,2.682,1.716368,0.062042,-5.054064,100249.44,+131,-230,+23
53198,9.948,-4.008,2.711,1.778093,0.101418,-5.205183,100249.44,+114,-228,+29
53209,10.406,-4.797,2.776,1.759469,0.157289,-5.328101,100255.73,+98,-225,+35
53220,10.698,-5.447,2.870,1.682313,0.183185,-5.491458,100256.30,+81,-222,+38
53229,11.510,-6.059,3.141,1.472130,0.172720,-5.628743,100256.30,+81,-222,+38
53239,13.277,-6.424,3.411,1.091139,0.137601,-5.763898,100255.73,+64,-218,+43
53249,15.125,-6.370,4.011,0.811782,0.172188,-5.879366,100255.73,+47,-213,+45
53259,16.172,-6.600,5.668,0.872974,0.319583,-5.948009,100256.44,+30,-207,+48
53269,16.812,-8.124,7.139,1.190112,0.462188,-5.958651,100255.89,+30,-207,+48
53279,17.166,-11.700,7.441,1.491818,0.522317,-5.868724,100254.39,+13,-198,+51
53289,16.647,-14.120,5.979,1.450313,0.453142,-5.752192,100254.39,+0,-189,+56
53299,16.146,-15.830,5.152,1.412534,0.462720,-5.468577,100254.39,-13,-177,+59
53309,15.074,-17.755,4.435,1.525873,0.488261,-4.998724,100258.68,-13,-177,+59
53319,13.007,-18.606,3.815,1.467341,0.463252,-4.416064,100253.55,-24,-166,+63
53329,10.932,-21.298,5.152,1.299194,0.451014,-3.637056,100254.91,-31,-157,+66
53339,8.287,-25.562,6.639,1.013983,0.428665,-2.755882,100255.02,-36,-148,+68
53349,4.730,-26.871,6.207,0.274351,0.394078,-1.870983,100255.02,-36,-148,+68
53359,2.464,-25.947,4.644,-0.489227,0.458995,-0.754085,100262.60,-38,-146,+69
53369,4.916,-24.108,4.599,-0.838823,0.574995,0.502758,100261.02,-36,-149,+69
53380,5.934,-21.593,2.545,-0.761667,0.462188,1.584005,100257.29,-31,-154,+68
53389,8.525,-18.102,1.050,-0.276915,0.140794,2.716867,100257.29,-31,-154,+68
53399,17.939,-0.368,1.674,-0.100254,-0.420582,3.117546,100257.66,-24,-159,+67
53409,28.156,29.600,-4.315,-0.247117,-1.078270,1.805363,100263.40,-22,-165,+67
53419,24.322,26.267,-15.494,-0.675465,-0.292876,0.770942,100263.40,-20,-167,+64
53429,18.276,-6.923,2.114,1.438075,0.129619,3.132445,100261.99,-20,-167,+64
53439,13.040,-24.455,13.504,4.169394,-0.163573,4.108334,100258.34,-12,-166,+71
53449,9.042,-25.803,4.506,2.698111,0.288188,3.492683,100258.34,-3,-161,+79
53454,13.018,-11.714,3.091,1.112956,0.945876,3.327729,100261.42,-3,-161,+79
53464,11.285,0.004,0.620,1.215653,0.671307,3.389454,100259.55,+6,-163,+81
53474,1.995,3.677,10.793,2.430459,0.642041,2.783913,100260.02,+15,-160,+86
53484,-1.928,-5.018,12.266,2.287322,0.066298,2.519986,100253.80,+20,-157,+90
53494,3.545,-16.359,1.388,0.175379,-0.090674,2.559362,100253.80,+20,-157,+90
53504,10.979,-16.201,-0.324,-2.073849,0.456335,2.012354,100263.08,+26,-161,+88
53514,14.660,-8.397,2.566,-3.005574,0.755913,1.552079,100260.31,+32,-171,+82
53524,12.972,-1.614,3.408,-2.947574,0.640445,1.299859,100260.00,+37,-181,+77
53534,9.145,0.104,0.555,-2.058418,0.546261,1.055620,100260.88,+37,-181,+77
53543,7.400,1.620,2.387,-0.974511,0.635656,1.115749,100260.88,+41,-186,+73
53554,7.707,1.821,2.922,0.297232,0.422812,1.182795,100259.91,+45,-186,+75
53564,8.965,-2.021,2.631,1.257690,0.208372,1.297730,100262.52,+50,-183,+77
53574,9.558,-5.567,3.144,1.471066,0.182830,1.366905,100259.38,+50,-183,+77
53584,8.534,-7.541,5.970,0.907562,0.344060,1.226960,100260.27,+54,-181,+80
53594,7.645,-8.105,7.583,-0.310970,0.386096,0.835327,100260.27,+57,-181,+80
53604,7.640,-5.364,6.548,-1.454474,0.408445,0.402190,100260.29,+59,-186,+77
53614,8.545,-2.937,5.346,-1.956785,0.481876,0.224997,100259.66,+59,-186,+77
53624,8.596,-1.188,3.884,-2.043519,0.507417,0.105272,100259.71,+61,-191,+72
53634,9.277,0.132,2.138,-1.778529,0.494647,0.147309,100261.54,+61,-197,+67
53644,10.650,-0.270,1.399,-1.134676,0.405252,0.369199,100261.54,+64,-200,+65
53654,10.974,-2.310,2.032,-0.471135,0.269564,0.555437,100260.72,+64,-200,+65
53664,9.626,-3.763,3.048,-0.215190,0.182298,0.644300,100261.28,+66,-200,+65
53675,8.627,-4.042,4.166,-0.398236,0.193473,0.665052,100261.19,+68,-202,+64
53684,8.026,-3.437,5.025,-0.696217,0.226463,0.630465,100256.91,+71,-203,+63
53690,7.954,-2.966,5.056,-0.876070,0.222207,0.601199,100256.91,+71,-203,+63
53699,7.995,-2.686,4.903,-0.992602,0.231785,0.594281,100256.91,+74,-206,+60
53709,7.989,-2.421,4.599,-1.084657,0.248280,0.616098,100261.41,+75,-209,+57
53720,8.185,-2.239,4.175,-1.110199,0.256262,0.654410,100258.69,+75,-209,+57
53729,8.722,-2.238,3.458,-1.089446,0.264775,0.706024,100257.17,+77,-212,+55
53739,9.223,-3.052,2.899,-1.031979,0.258390,0.773070,100256.44,+81,-214,+51
53749,9.338,-3.787,2.763,-0.966529,0.251473,0.847565,100261.83,+84,-216,+49
53760,9.186,-4.226,2.244,-0.984089,0.240298,0.896520,100261.56,+84,-216,+49
53769,9.109,-4.380,2.442,-1.049006,0.270096,0.936428,100261.56,+88,-218,+46
53779,9.106,-4.161,2.425,-1.115520,0.286060,0.968354,100255.14,+90,-220,+43
53789,9.295,-4.302,2.591,-1.166070,0.313729,0.997620,100259.78,+94,-223,+40
53799,9.559,-4.196,2.879,-1.237905,0.281271,1.016776,100259.78,+94,-223,+40
53810,9.536,-3.707,2.961,-1.297856,0.173252,1.051718,100261.65,+98,-226,+36
53819,9.632,-3.503,3.083,-1.273556,0.091308,1.120006,100261.65,+102,-228,+33
53829,9.854,-3.062,3.386,-1.241098,-0.121004,1.212593,100261.29,+105,-230,+29
53839,10.116,-3.074,3.439,-1.141593,-0.270527,1.316354,100259.87,+105,-230,+29
53850,10.523,-3.628,3.337,-1.024529,-0.320545,1.453639,100259.87,+109,-232,+26
53859,11.422,-4.104,3.253,-1.052731,-0.339701,1.556868,100260.39,+114,-234,+23
53869,12.594,-3.570,3.137,-1.141593,-0.387059,1.668079,100261.36,+119,-236,+20
53879,13.136,-2.443,2.887,-1.142125,-0.421646,1.808024,100258.86,+119,-236,+20
53890,13.531,-1.760,2.432,-1.068694,-0.517426,1.992133,100258.86,+125,-236,+17
53899,14.170,-1.625,2.231,-0.945777,-0.650985,2.241161,100258.86,+130,-237,+14
53909,14.903,-2.069,2.450,-0.848933,-0.742508,2.484335,100264.35,+137,-238,+11
53919,15.773,-3.166,2.919,-0.871281,-0.752086,2.678023,100261.34,+137,-238,+11
53929,17.418,-3.084,3.282,-1.206511,-0.666417,2.799876,100259.71,+146,-237,+9
53939,19.498,-0.597,3.974,-1.838657,-0.522747,2.845638,100256.73,+153,-237,+3
53949,20.929,2.875,4.745,-2.311702,-0.454637,2.913215,100256.73,+163,-239,-3
53959,22.367,5.790,5.162,-2.363317,-0.465811,3.092004,100260.54,+163,-239,-3
53969,22.811,6.934,5.846,-2.016382,-0.442931,3.321876,100257.54,+172,-238,-9
53980,20.067,3.076,7.561,-1.354437,-0.439738,3.523013,100257.62,+183,-236,-13
53989,16.632,-5.154,8.324,-0.512639,-0.582875,3.720426,100257.62,+195,-233,-13
53999,16.308,-12.959,9.367,-0.040126,-0.785609,4.022132,100259.01,+207,-233,-13
54009,18.328,-12.482,10.789,-0.266273,-0.706857,3.948169,100259.01,+207,-227,-13
54020,18.002,-5.480,11.027,-0.215190,-0.633958,3.659233,100254.41,+218,-221,-13
54029,16.136,0.342,9.347,0.014149,-0.649389,3.304316,100257.80,+227,-216,-13
54039,14.749,4.750,6.510,0.596277,-0.954820,2.706225,100256.55,+233,-210,-9
54044,12.283,6.312,3.455,0.900112,-1.307077,2.228390,100256.55,+233,-210,-9
54054,7.287,5.360,3.676,1.184259,-1.267169,2.027253,100258.65,+237,-204,-4
54065,1.270,-0.643,4.449,1.947836,-1.066031,1.976702,100255.15,+237,-204,-4
54074,-1.018,-5.681,7.859,2.725248,-0.625976,1.643602,100254.84,+242,-198,+3
54084,2.118,-6.452,7.470,2.331487,-0.791462,0.646960,100256.13,+242,-191,+10
54094,3.447,-4.930,4.339,0.969818,-1.224600,-0.226232,100256.13,+239,-191,+15
54105,3.520,-1.928,0.531,-0.364713,-1.241095,-0.820066,100260.24,+239,-191,+15
54114,3.085,0.300,-1.397,-1.489061,-1.088380,-1.294176,100257.59,+234,-195,+15
54124,2.313,1.900,-1.347,-1.913684,-0.954288,-1.656543,100259.10,+227,-201,+11
54134,1.807,2.483,-0.881,-1.581116,-0.842545,-1.981662,100256.16,+220,-207,+8
54145,1.759,3.168,0.349,-0.818070,-0.741976,-2.354139,100256.16,+220,-207,+8
54155,1.958,3.455,1.413,0.018938,-0.683444,-2.747368,100256.52,+211,-212,+9
54164,2.220,2.449,2.529,0.735158,-0.627041,-3.071423,100255.98,+200,-216,+11
54174,2.717,0.635,3.471,1.173084,-0.536050,-3.307680,100254.73,+189,-216,+16
54184,3.610,-1.311,3.441,1.193837,-0.404087,-3.532762,100251.19,+189,-216,+16
54195,4.806,-2.342,3.025,0.814442,-0.219445,-3.777000,100251.19,+176,-221,+19
54204,5.175,-0.546,2.479,0.508479,-0.020968,-4.197367,100254.12,+164,-223,+21
54214,5.784,1.987,2.445,0.661195,0.075876,-4.618798,100250.30,+149,-226,+23
54224,7.355,2.937,2.010,1.321011,0.024262,-4.828449,100249.99,+149,-226,+23
54235,8.610,1.722,2.456,2.244221,-0.009261,-4.950303,100250.57,+132,-226,+28
54244,9.502,-1.195,3.379,2.927982,-0.069922,-5.086523,100250.57,+118,-222,+36
54254,10.584,-4.280,3.829,3.253633,-0.222637,-5.315862,100254.97,+99,-216,+45
54264,11.722,-5.730,3.790,3.165835,-0.412600,-5.598412,100254.39,+99,-216,+45
54275,11.985,-6.454,3.334,2.996624,-0.555738,-5.832008,100249.38,+81,-210,+53
54284,11.840,-7.336,3.876,2.879560,-0.578619,-5.975678,100250.53,+64,-200,+60
54294,13.009,-8.334,5.363,2.628937,-0.538710,-6.044852,100250.53,+46,-191,+67
54304,15.048,-9.612,7.828,2.269763,-0.399298,-6.080503,100256.84,+29,-181,+71
54315,16.409,-11.650,10.205,1.980295,-0.280637,-6.178944,100254.86,+29,-181,+71
54325,17.014,-14.483,10.017,1.696148,-0.309371,-6.340173,100255.22,+12,-170,+75
54334,17.067,-16.674,8.774,1.434882,-0.231151,-6.356136,100254.13,-2,-158,+78
54344,15.377,-19.166,7.812,1.131580,0.017876,-6.110834,100254.13,-15,-148,+80
54354,12.354,-21.908,7.449,0.635653,0.311601,-5.638853,100256.73,-15,-148,+80
54365,11.380,-22.198,6.123,-0.146548,0.582445,-5.072155,100258.05,-24,-137,+80
54374,10.889,-21.627,6.409,-0.871281,0.890004,-4.451184,100257.78,-29,-132,+80
54384,8.254,-23.648,6.845,-1.273556,0.992702,-3.708890,100255.38,-34,-129,+80
54394,4.106,-24.510,6.551,-1.672107,1.002812,-2.775570,100255.38,-34,-129,+80
54400,2.699,-25.012,4.960,-1.858345,1.002280,-1.916745,100259.99,-35,-130,+78
54410,3.143,-25.648,3.973,-1.913684,1.013454,-0.918507,100259.99,-35,-130,+78
54420,5.256,-24.122,3.012,-1.825886,0.920867,0.340997,100260.57,-34,-134,+76
54429,9.575,-19.978,2.450,-1.466712,0.748995,1.396171,100262.29,-30,-141,+74
54439,10.413,-16.315,-1.987,-0.963336,0.386096,2.232647,100259.26,-23,-148,+73
54450,16.930,-1.650,-1.900,-0.562658,-0.156123,2.949931,100263.07,-23,-148,+73
54460,28.239,29.544,-6.656,-0.677593,-0.929279,1.987877,100263.43,-17,-153,+71
54469,26.337,35.681,-14.878,-0.647263,-0.341298,0.628336,100261.35,-19,-157,+70
54479,17.619,1.298,-4.110,1.599304,0.017344,2.589161,100261.35,-12,-156,+74
54490,11.402,-24.192,18.692,5.382605,-0.212527,4.255728,100258.84,-12,-156,+74
54499,8.757,-30.189,8.114,4.540275,-0.075775,3.889105,100258.84,-3,-146,+85
54509,14.607,-11.466,2.626,2.038827,0.685142,3.353270,100264.39,+3,-144,+90
54519,8.339,0.293,3.020,2.429928,0.563821,3.210665,100258.84,+13,-140,+95
54530,-1.039,-2.068,14.137,3.046643,0.573399,2.624812,100260.42,+19,-140,+95
54540,-0.062,-18.554,10.686,1.168295,-0.244986,2.493913,100253.58,+19,-134,+100
54549,9.636,-20.546,-1.718,-2.597445,-0.241261,1.980427,100253.58,+22,-140,+96
54559,12.229,-9.184,-0.004,-4.666821,0.654812,1.264207,100260.38,+26,-155,+89
54569,13.226,0.623,2.963,-4.397573,0.887876,1.249308,100259.01,+31,-167,+81
54580,10.820,2.592,2.976,-2.912987,0.684610,1.329125,100255.66,+31,-167,+81
54590,7.069,1.210,1.465,-1.370932,0.437179,1.173749,100255.66,+36,-174,+78
54599,6.908,1.108,1.449,-0.088548,0.396206,1.087547,100255.66,+40,-175,+78
54609,8.660,-0.427,2.966,0.927782,0.350977,1.177474,100260.06,+43,-174,+81
54620,9.351,-2.895,4.133,1.631231,0.270096,1.203547,100260.75,+43,-174,+81
54630,8.915,-6.206,4.196,1.583341,0.263179,1.145547,100256.09,+47,-169,+85
54635,8.143,-8.077,4.190,1.038460,0.343528,1.033272,100259.86,+47,-169,+85
54644,7.716,-8.136,5.487,0.103544,0.498372,0.861400,100259.86,+51,-167,+86
54654,7.793,-5.902,6.741,-1.172988,0.601601,0.576722,100264.10,+53,-170,+85
54665,8.056,-3.610,5.854,-1.995629,0.605326,0.334612,100260.23,+55,-176,+81
54675,8.824,-1.414,3.656,-2.188253,0.601069,0.180300,100255.27,+55,-176,+81
54684,9.642,0.163,2.332,-1.784382,0.554243,0.182428,100257.57,+57,-181,+76
54694,10.008,0.701,1.834,-0.944713,0.430262,0.373988,100257.57,+59,-185,+73
54705,9.507,-1.108,2.311,-0.026291,0.255197,0.601199,100259.91,+62,-186,+74
54715,8.904,-3.500,2.770,0.411635,0.148775,0.729437,100262.05,+62,-186,+74
54724,8.757,-4.663,3.836,0.208369,0.204647,0.752850,100255.72,+65,-184,+75
54734,8.955,-4.605,5.340,-0.313098,0.290849,0.660263,100255.41,+67,-185,+74
54745,8.681,-4.095,6.014,-0.832969,0.335014,0.522979,100255.41,+69,-188,+73
54755,8.379,-3.352,5.618,-1.188419,0.351509,0.411768,100261.27,+69,-188,+73
54764,8.490,-2.702,4.732,-1.398602,0.371729,0.380373,100260.70,+71,-191,+70
54774,8.900,-2.274,4.030,-1.391153,0.396206,0.441034,100257.88,+74,-195,+65
54785,9.210,-2.632,3.149,-1.266107,0.367473,0.542667,100257.62,+75,-199,+64
54795,9.273,-3.357,2.479,-1.182034,0.349381,0.634722,100257.62,+75,-199,+64
54805,9.331,-3.631,2.113,-1.201190,0.364280,0.712410,100261.97,+78,-201,+61
54814,9.280,-3.352,2.119,-1.261850,0.403656,0.784244,100263.11,+81,-204,+57
54824,9.185,-3.200,2.661,-1.275685,0.448885,0.852354,100261.97,+85,-208,+54
54835,9.441,-3.568,3.149,-1.270364,0.439307,0.895455,100258.05,+88,-210,+51
54845,9.697,-3.862,3.061,-1.301226,0.413234,0.955584,100258.05,+88,-210,+51
54854,9.548,-3.653,3.057,-1.383171,0.389821,1.037529,100260.05,+93,-214,+47
54864,9.344,-2.876,3.100,-1.444364,0.344592,1.146079,100258.85,+97,-218,+43
54875,9.444,-2.155,3.520,-1.431061,0.275418,1.258886,100259.63,+101,-220,+39
54885,10.594,-1.782,4.417,-1.277813,0.107271,1.424372,100260.01,+101,-220,+39
54894,11.455,-1.884,4.479,-1.074015,-0.186454,1.614868,100260.01,+106,-222,+37
54904,12.189,-2.720,4.439,-0.837226,-0.299793,1.743638,100265.52,+110,-223,+35
54915,13.141,-4.047,3.974,-0.843612,-0.391848,1.902739,100260.93,+116,-224,+31
54925,13.672,-3.603,3.623,-1.037300,-0.530729,2.107069,100259.21,+116,-224,+31
54935,13.658,-2.783,2.984,-1.076676,-0.623848,2.329491,100259.37,+122,-225,+28
54944,13.772,-3.214,2.948,-0.930878,-0.649389,2.539675,100259.37,+129,-226,+25
54955,14.358,-4.229,3.207,-0.859043,-0.653114,2.687069,100261.41,+137,-226,+23
54965,15.400,-5.349,3.390,-1.066034,-0.582875,2.774867,100261.62,+137,-226,+23
54975,17.570,-4.808,3.459,-1.657740,-0.457830,2.794555,100258.43,+144,-227,+21
54984,20.025,-1.360,3.669,-2.413336,-0.351408,2.807858,100260.21,+153,-228,+13
54990,21.531,1.777,4.314,-2.757611,-0.335444,2.873307,100260.21,+153,-228,+13
55000,22.992,4.546,4.707,-2.767189,-0.367371,3.018573,100260.21,+162,-231,+5
55010,23.641,6.224,5.431,-2.484106,-0.351940,3.251637,100260.79,+171,-232,-1
55020,21.661,5.261,6.757,-2.041391,-0.330655,3.415527,100257.87,+171,-232,-1
55029,17.810,1.110,8.548,-1.407116,-0.314160,3.517160,100256.82,+183,-231,-6
55040,14.710,-6.835,10.460,-0.675465,-0.406215,3.732132,100254.23,+193,-226,-8
55050,16.081,-12.532,8.910,-0.478584,-0.504655,3.895490,100255.90,+205,-222,-10
55060,18.909,-10.299,9.353,-0.694621,-0.413132,3.701802,100258.20,+216,-216,-11
55069,18.036,-3.856,9.702,-0.314162,-0.422178,3.427766,100258.20,+216,-216,-11
55079,16.132,1.879,7.944,0.363745,-0.592986,2.989839,100257.20,+225,-211,-10
55090,13.811,6.139,4.094,0.821360,-1.018141,2.319913,100257.41,+231,-206,-6
55100,7.407,5.967,3.329,0.976736,-1.069224,1.941051,100257.41,+235,-200,-2
55109,-0.039,-1.343,4.534,1.755212,-0.832967,1.936262,100260.18,+235,-200,-2
55119,-2.554,-6.798,8.585,2.598074,-0.287555,1.703730,100257.99,+239,-192,+3
55130,1.366,-7.456,8.395,2.170258,-0.412068,0.836923,100254.74,+241,-187,+10
55140,3.389,-5.119,4.589,0.614901,-0.771242,-0.129388,100253.91,+238,-187,+11
55150,3.227,-1.665,1.038,-1.012823,-0.730802,-0.870617,100259.13,+238,-187,+11
55160,3.171,0.481,-0.588,-2.253703,-0.463683,-1.362286,100258.24,+234,-191,+8
55170,2.573,2.187,-1.934,-2.725684,-0.529664,-1.720928,100253.80,+229,-200,+2
55180,1.220,2.410,-1.998,-2.269666,-0.590857,-1.972616,100259.09,+223,-206,-1
55190,1.243,2.526,-0.539,-1.221942,-0.471665,-2.257827,100259.09,+223,-206,-1
55199,1.515,3.026,1.078,-0.221575,-0.365775,-2.670212,100259.09,+214,-210,-2
55209,1.452,2.537,2.657,0.561690,-0.285958,-3.036304,100259.52,+205,-214,+0
55220,1.628,0.994,3.234,1.060809,-0.221573,-3.294377,100252.68,+194,-217,+2
55225,2.141,-0.488,3.016,1.178937,-0.142821,-3.500304,100254.82,+194,-217,+2
55235,3.019,-1.981,2.647,0.979928,-0.015646,-3.724322,100253.57,+183,-220,+5
55244,3.709,-1.715,2.211,0.426002,0.176445,-4.037202,100253.57,+183,-220,+5
55255,3.707,0.764,2.442,0.133342,0.331821,-4.422982,100254.13,+171,-224,+7
55265,4.732,2.724,2.424,0.440901,0.356830,-4.722027,100253.71,+156,-228,+7
55275,6.407,2.553,2.523,1.173084,0.358427,-4.905073,100250.52,+141,-229,+11
55284,7.756,1.106,3.056,1.861634,0.380243,-5.095569,100250.37,+141,-229,+11
55294,8.888,-1.335,2.795,2.312863,0.343528,-5.237110,100250.37,+127,-228,+18
55305,9.789,-3.192,2.418,2.590625,0.331289,-5.412706,100253.35,+111,-225,+25
55315,10.676,-4.236,1.865,2.781120,0.332885,-5.524981,100254.46,+95,-220,+31
55325,11.040,-5.055,1.947,3.031212,0.325436,-5.562761,100252.21,+78,-214,+41
55334,11.721,-6.063,2.844,3.113156,0.234977,-5.648430,100250.54,+78,-214,+41
55345,14.188,-8.015,4.108,2.757707,0.075344,-5.784119,100250.54,+64,-205,+48
55355,16.821,-10.117,5.388,2.259652,-0.044913,-5.943219,100256.51,+48,-197,+53
55365,18.166,-11.396,6.567,1.975506,-0.070454,-6.122008,100256.45,+31,-188,+58
55374,18.942,-11.869,7.379,1.887708,-0.143885,-6.308247,100258.02,+31,-188,+58
55385,17.897,-12.738,7.635,1.837689,-0.178472,-6.260357,100256.55,+15,-178,+61
55395,16.304,-15.436,7.814,1.846203,-0.126325,-5.968228,100256.55,+1,-165,+64
55405,15.746,-19.809,7.271,1.797781,0.034904,-5.472834,100259.96,-9,-156,+68
55414,14.944,-21.850,6.331,1.416790,0.276482,-4.917312,100258.09,-9,-156,+68
