229979,9.054,-2.183,3.240,0.044979,-0.008177,0.024454,100134.05,+14,+75,+125
229989,9.026,-2.264,3.205,0.034336,-0.006048,0.014344,100132.94,+14,+75,+125
229999,9.078,-2.179,3.220,0.029547,-0.004984,0.007427,100135.94,+14,+75,+125
230009,9.129,-2.070,3.212,0.026887,-0.003388,0.007959,100132.31,+14,+76,+125
230019,9.094,-2.173,3.175,0.029015,-0.006580,0.015409,100132.31,+14,+76,+126
230029,9.098,-2.161,3.159,0.030612,-0.006580,0.018069,100138.48,+14,+76,+126
230039,9.145,-2.152,3.260,0.024758,-0.008177,0.016473,100137.90,+14,+76,+127
230049,9.112,-2.116,3.210,0.019969,-0.011902,0.019665,100134.27,+14,+76,+126
230060,9.058,-2.215,3.206,0.019437,-0.006048,0.019665,100134.27,+14,+76,+126
230069,9.080,-2.134,3.241,0.008263,-0.001791,0.012216,100134.27,+14,+76,+126
230079,9.050,-2.168,3.253,0.000813,-0.000195,0.010087,100136.84,+15,+76,+125
230089,9.063,-2.160,3.201,-0.005040,0.001401,0.009555,100134.89,+14,+76,+126
230099,9.074,-2.170,3.193,-0.004508,0.005126,0.007427,100134.53,+14,+76,+126
230109,9.080,-2.170,3.153,0.000813,0.005126,0.012216,100137.09,+14,+76,+126
230119,9.058,-2.198,3.187,0.009327,0.005658,0.015409,100137.09,+15,+76,+126
230129,9.048,-2.227,3.106,0.015180,0.007254,0.018069,100135.58,+14,+76,+126
230139,9.106,-2.112,3.165,0.020502,0.009915,0.020198,100133.58,+15,+76,+126
230150,9.107,-2.099,3.216,0.023162,0.007787,0.025519,100134.16,+15,+76,+126
230159,9.058,-2.159,3.184,0.023162,0.007254,0.032968,100132.42,+14,+77,+127
230169,9.070,-2.136,3.214,0.022630,0.010979,0.032968,100132.42,+15,+76,+126
230179,9.093,-2.203,3.172,0.010924,0.012043,0.024987,100135.04,+16,+77,+126
230190,9.058,-2.202,3.174,0.009327,0.013108,0.023390,100134.30,+16,+77,+126
230199,9.046,-2.182,3.185,0.013052,0.015768,0.020198,100133.15,+15,+76,+126
230209,9.052,-2.194,3.166,0.019437,0.014704,0.020730,100135.20,+14,+76,+126
230219,9.032,-2.149,3.147,0.027951,0.017365,0.027115,100135.20,+14,+76,+125
230230,9.139,-2.104,3.171,0.043914,0.015768,0.038289,100139.22,+14,+76,+125
230239,9.103,-2.089,3.303,0.054024,0.005126,0.048931,100135.66,+14,+77,+127
230245,9.063,-2.166,3.280,0.046043,-0.000195,0.055849,100134.03,+14,+76,+126
230254,9.029,-2.220,3.262,0.039125,0.001401,0.055317,100134.03,+14,+76,+126
230264,9.036,-2.239,3.356,0.030079,-0.000195,0.047335,100134.55,+15,+76,+125
230275,9.023,-2.251,3.299,0.013052,-0.001259,0.037757,100134.55,+15,+76,+126
230285,9.016,-2.257,3.252,0.007199,0.001401,0.030308,100132.41,+15,+76,+125
230294,8.987,-2.288,3.263,0.002942,-0.000195,0.022326,100134.13,+15,+76,+125
230304,8.980,-2.258,3.215,0.000813,-0.001259,0.018069,100135.14,+14,+77,+126
230315,8.986,-2.215,3.139,0.008263,-0.001791,0.015941,100135.14,+16,+76,+125
230324,8.998,-2.218,3.101,0.023162,-0.000195,0.015409,100135.14,+14,+78,+125
230334,9.059,-2.165,3.072,0.040190,0.003530,0.018601,100136.45,+14,+78,+125
230344,9.148,-1.920,3.129,0.050300,0.004594,0.031904,100138.03,+14,+77,+125
230354,9.301,-1.721,3.120,0.076905,-0.001259,0.071280,100131.73,+15,+78,+125
230365,9.293,-1.505,3.440,0.137034,-0.042232,0.134069,100135.25,+14,+78,+125
230374,9.030,-1.702,3.078,0.166300,-0.058727,0.203775,100135.25,+14,+78,+125
230384,8.924,-2.631,2.815,0.202483,-0.032654,0.250069,100138.45,+14,+78,+125
230394,8.969,-2.291,2.851,0.215786,-0.032654,0.242087,100138.34,+14,+78,+125
230405,9.048,-2.300,2.689,0.215786,0.004062,0.244748,100132.96,+13,+78,+125
230415,8.978,-2.333,2.907,0.263144,0.007787,0.263904,100132.96,+13,+78,+125
230424,8.944,-1.969,3.427,0.312630,-0.012434,0.299555,100135.30,+13,+80,+125
230434,8.945,-2.093,3.624,0.373822,-0.049681,0.334674,100134.30,+12,+80,+124
230445,8.963,-2.289,3.704,0.371162,-0.068305,0.330418,100134.30,+12,+80,+124
230455,8.907,-2.529,3.773,0.332850,-0.083736,0.280931,100134.72,+12,+80,+124
230464,8.785,-2.874,3.997,0.246648,-0.080544,0.203243,100132.58,+12,+82,+124
230474,8.650,-2.567,4.107,0.133309,-0.085865,0.111188,100132.58,+12,+82,+123
230484,8.905,-2.568,3.821,0.050300,-0.088525,0.020730,100136.46,+12,+82,+123
230495,9.171,-2.626,3.685,0.001878,-0.107681,-0.042059,100132.63,+12,+82,+123
230505,9.178,-2.504,3.645,-0.046544,-0.141736,-0.083564,100133.84,+12,+82,+123
230514,8.996,-2.567,3.491,-0.093370,-0.166745,-0.117619,100134.63,+10,+82,+123
230524,8.889,-2.579,3.311,-0.126893,-0.180048,-0.156463,100137.02,+10,+82,+122
230535,9.093,-2.374,3.467,-0.148177,-0.196544,-0.191582,100134.91,+10,+82,+123
230545,9.254,-2.076,3.473,-0.160948,-0.235920,-0.185729,100135.24,+10,+82,+123
230554,9.266,-2.234,3.265,-0.162012,-0.273167,-0.153802,100131.55,+8,+82,+122
230564,9.343,-2.349,3.315,-0.175315,-0.301901,-0.141032,100131.55,+8,+81,+123
230575,9.234,-2.276,3.204,-0.217352,-0.309883,-0.147949,100131.55,+7,+81,+122
230585,9.077,-2.537,2.792,-0.240764,-0.290195,-0.159656,100138.22,+7,+81,+122
230594,8.871,-2.541,2.826,-0.265241,-0.250287,-0.201692,100139.53,+6,+80,+122
230604,8.764,-2.581,2.500,-0.309407,-0.194415,-0.253307,100136.28,+6,+79,+122
230615,8.692,-2.736,2.209,-0.323774,-0.127369,-0.286298,100132.39,+6,+78,+123
230625,8.888,-2.497,2.626,-0.288654,-0.094379,-0.316628,100132.39,+6,+78,+123
230635,8.926,-2.258,2.805,-0.272159,-0.081076,-0.335784,100136.43,+5,+78,+123
230644,8.869,-2.352,2.865,-0.274287,-0.056599,-0.354940,100135.74,+6,+78,+122
230654,8.834,-2.337,2.919,-0.280673,-0.049149,-0.404958,100135.12,+6,+77,+123
230665,8.841,-2.532,2.731,-0.279076,-0.023076,-0.442206,100135.12,+6,+77,+123
230674,9.109,-2.329,2.679,-0.271095,-0.031590,-0.485307,100135.12,+5,+76,+123
230684,9.281,-2.122,2.643,-0.245021,-0.036379,-0.485839,100133.14,+7,+76,+123
230694,9.416,-1.836,2.458,-0.211498,-0.032122,-0.451252,100134.20,+7,+77,+123
230705,9.404,-1.773,2.589,-0.164141,-0.033718,-0.408151,100133.30,+7,+77,+123
230715,9.426,-1.792,2.695,-0.130263,-0.019706,-0.324787,100133.22,+8,+76,+124
230724,9.327,-1.740,2.707,-0.125297,-0.023608,-0.272463,100133.22,+7,+76,+123
230734,9.143,-1.861,2.774,-0.114122,-0.010837,-0.204353,100137.11,+7,+76,+123
230745,9.227,-1.735,2.796,-0.127957,0.001401,-0.162316,100134.06,+7,+76,+123
230755,9.433,-1.568,2.627,-0.144985,-0.000727,-0.174555,100132.95,+7,+76,+123
230765,9.293,-1.608,2.755,-0.142856,-0.006580,-0.142096,100135.85,+7,+76,+124
230774,9.361,-1.410,2.826,-0.138067,-0.002856,-0.096334,100137.84,+7,+75,+123
230785,9.489,-1.352,2.732,-0.123700,-0.006048,-0.033546,100134.48,+7,+75,+123
230795,9.636,-1.596,2.553,-0.099755,-0.010837,0.038821,100134.48,+8,+75,+125
230804,9.628,-1.576,2.392,-0.113058,0.007787,0.109060,100136.37,+8,+74,+125
230814,9.676,-1.460,2.662,-0.123168,0.038649,0.181959,100132.23,+7,+73,+125
230824,9.856,-1.232,3.019,-0.144985,0.039181,0.254326,100132.23,+7,+73,+125
230835,9.837,-1.240,3.056,-0.198196,0.024814,0.337867,100134.87,+8,+73,+124
230845,9.882,-1.332,3.087,-0.266838,-0.005516,0.423537,100133.65,+7,+72,+125
230855,10.103,-1.383,3.148,-0.331223,-0.055002,0.510271,100132.34,+6,+70,+125
230864,10.422,-1.426,3.393,-0.407315,-0.105553,0.535812,100132.87,+6,+70,+125
230875,10.811,-1.342,3.224,-0.550452,-0.116727,0.553904,100133.30,+7,+67,+125
230885,11.084,-0.513,3.312,-0.746801,-0.197608,0.600197,100134.61,+5,+64,+125
230895,11.439,0.021,3.321,-0.879296,-0.207186,0.692252,100131.67,+3,+60,+127
230904,11.983,0.487,3.783,-0.995296,-0.121516,0.759298,100129.69,+3,+60,+127
230915,12.774,-0.994,4.892,-1.081498,-0.085865,0.687463,100129.69,+2,+55,+127
230925,15.152,-2.713,3.457,-1.299131,0.043970,0.543261,100129.69,+2,+51,+127
230935,19.159,-2.827,0.386,-1.814745,-0.119388,0.393207,100136.10,+1,+43,+128
230944,20.477,-1.200,0.478,-1.933405,-0.423222,0.492179,100134.79,+0,+37,+129
230950,19.918,1.413,2.190,-1.455571,-0.257736,0.651812,100136.68,+0,+37,+129
230960,20.758,3.038,-1.420,-0.519590,0.029603,0.974270,100134.27,+0,+33,+129
230970,20.555,3.782,0.126,-0.113590,-0.707369,1.700600,100134.27,+0,+33,+129
230980,15.381,-0.761,0.750,0.438208,-0.664800,2.137462,100136.67,-3,+31,+127
230989,9.585,-8.962,4.064,0.740978,-0.318929,1.808618,100134.27,-5,+31,+127
231000,8.553,-14.934,10.330,-0.197663,0.522869,0.863059,100132.42,-3,+29,+127
231010,10.514,-15.474,12.264,0.191309,0.182319,0.111188,100129.44,-3,+29,+127
231019,14.360,-7.970,4.916,1.284794,-0.481222,0.873169,100129.44,-4,+31,+127
231029,11.094,-7.430,3.919,0.690960,-0.177388,1.543628,100133.34,-5,+33,+127
231040,7.273,-13.329,7.526,-0.037498,0.129640,1.624509,100131.77,-5,+31,+126
231050,7.091,-10.911,8.115,-0.380177,0.101970,1.073243,100133.61,-5,+31,+126
231060,9.343,-6.425,6.168,-0.652617,0.130704,0.982252,100130.72,-5,+27,+127
231069,8.724,-4.861,3.865,-0.868122,0.205199,1.159445,100130.72,-5,+23,+126
231079,7.012,-6.000,2.977,-1.069791,0.388245,1.332912,100134.33,-3,+17,+127
231090,6.318,-5.104,2.313,-1.081498,0.478704,1.219573,100128.88,-3,+17,+127
231100,5.946,-2.904,1.450,-0.998489,0.503181,1.231279,100133.59,-1,+11,+128
231109,5.183,-1.861,0.562,-0.782984,0.522869,1.355793,100131.81,+0,+7,+128
231119,3.635,-1.222,-0.160,-0.557902,0.501584,1.438270,100131.81,+1,+3,+130
231130,2.665,-1.230,-0.290,-0.371663,0.479768,1.412197,100131.22,+1,+3,+130
231140,2.443,-1.463,-0.199,-0.175315,0.437731,1.304711,100131.05,+3,+0,+130
231150,2.382,-1.714,0.310,0.038593,0.401548,1.167958,100130.16,+4,-1,+130
231159,1.893,-0.563,0.208,0.250905,0.350465,0.992362,100131.42,+6,-1,+130
231170,1.432,0.177,-0.215,0.380740,0.321199,0.821023,100131.42,+8,-1,+130
231180,1.207,-0.222,-0.133,0.402024,0.314814,0.700766,100133.30,+8,-1,+131
231190,1.051,-0.188,0.102,0.441932,0.296722,0.581573,100133.82,+8,+0,+131
231199,0.736,-0.533,0.268,0.520685,0.281823,0.435243,100130.46,+9,+1,+131
231209,0.699,-1.320,0.721,0.622850,0.266924,0.269757,100131.77,+11,+2,+131
231220,0.685,-1.274,0.989,0.779290,0.233933,0.058509,100131.77,+11,+2,+131
231230,0.532,-0.770,0.648,0.881455,0.187640,-0.153802,100134.43,+12,+5,+131
231240,0.571,-0.870,0.428,0.870813,0.137621,-0.305454,100130.87,+13,+9,+132
231249,0.653,-0.721,0.321,0.720226,0.065786,-0.439545,100131.60,+13,+11,+132
231260,1.071,-0.457,0.184,0.577088,-0.019351,-0.582683,100131.38,+13,+11,+132
231270,1.550,-0.987,0.035,0.471198,-0.109278,-0.686976,100131.38,+13,+15,+132
231280,1.546,-1.469,0.041,0.420116,-0.198140,-0.766261,100134.73,+12,+17,+132
231289,1.685,-1.797,0.106,0.419584,-0.283277,-0.891306,100134.99,+11,+20,+131
231300,1.948,-2.281,0.228,0.419052,-0.366287,-1.025930,100132.57,+11,+20,+131
231310,2.263,-2.754,0.612,0.408942,-0.430140,-1.133416,100132.63,+10,+23,+130
231320,2.540,-3.263,0.819,0.319547,-0.485479,-1.231857,100132.63,+8,+25,+130
231329,3.415,-3.678,1.249,0.234942,-0.522727,-1.307416,100134.23,+7,+28,+130
231340,4.908,-3.773,1.710,0.248244,-0.557846,-1.371802,100134.55,+7,+28,+130
231350,5.962,-4.563,1.900,0.291877,-0.591369,-1.407453,100135.70,+5,+31,+130
231360,6.890,-4.989,2.042,0.270061,-0.624892,-1.466517,100131.71,+3,+34,+128
231369,7.809,-4.984,2.491,0.228556,-0.640323,-1.517600,100131.71,+1,+37,+127
231379,8.404,-5.195,2.685,0.215786,-0.633406,-1.547398,100135.17,+1,+37,+127
231390,8.758,-5.071,2.856,0.137566,-0.606800,-1.563361,100133.77,+0,+39,+127
231400,9.521,-4.766,3.001,0.005070,-0.569020,-1.578260,100131.77,+0,+42,+125
231410,10.748,-4.934,3.281,-0.138599,-0.530709,-1.590499,100132.86,-1,+43,+126
231419,11.596,-4.484,3.533,-0.260985,-0.478562,-1.619233,100132.86,-1,+43,+126
231430,11.874,-3.722,3.812,-0.307278,-0.394488,-1.643178,100134.45,-2,+45,+125
231440,11.997,-3.090,4.192,-0.273755,-0.288066,-1.663398,100132.49,-3,+47,+125
231450,11.882,-2.518,4.108,-0.226930,-0.196011,-1.635728,100132.18,-2,+47,+125
231459,11.353,-2.174,3.841,-0.266838,-0.099168,-1.568682,100134.18,-2,+47,+125
231470,11.213,-1.463,3.481,-0.413700,-0.020415,-1.519728,100134.18,-2,+49,+126
231480,11.492,-0.774,3.029,-0.444562,0.016300,-1.492058,100136.61,-2,+49,+125
231490,11.744,-0.386,2.849,-0.432324,0.028539,-1.489930,100133.03,-1,+50,+126
231500,12.102,-0.835,2.890,-0.450948,0.040245,-1.526646,100132.25,-1,+50,+126
231510,12.203,-2.337,3.342,-0.590360,0.105163,-1.555380,100134.19,+0,+51,+127
231520,11.056,-5.517,4.914,-0.689333,0.210520,-1.453746,100134.19,+1,+50,+127
231530,26.726,-18.981,12.700,-0.270563,0.933125,-1.114793,100133.55,+4,+51,+128
231535,14.320,-5.398,4.831,1.328427,0.434006,-2.196040,100135.34,+4,+51,+128
231544,10.149,-4.029,2.811,0.654776,0.820850,-0.989747,100135.34,+7,+56,+129
231555,14.275,-0.574,-3.643,-0.104544,0.513291,-1.219086,100133.45,+10,+56,+129
231565,24.304,3.038,-6.118,-0.356232,0.242979,-1.378187,100136.91,+10,+56,+129
231575,22.319,4.866,-0.721,-0.155627,0.350465,-0.760940,100136.91,+12,+57,+130
231585,12.813,5.409,2.778,0.129584,0.552667,-0.092610,100136.43,+14,+58,+130
231595,8.006,-0.324,3.089,0.430226,0.547346,0.193665,100134.73,+16,+59,+130
231605,7.152,-3.428,3.880,0.459492,0.437731,0.048399,100136.04,+16,+59,+130
231615,6.970,-4.320,5.148,0.503657,0.301511,-0.054830,100136.04,+16,+60,+130
231625,7.502,-1.583,5.613,0.533987,0.206796,-0.094206,100136.04,+17,+64,+130
231634,8.555,1.382,4.862,0.598905,0.148796,-0.088885,100135.02,+18,+65,+130
231645,9.664,0.714,4.791,0.886244,0.135493,-0.019711,100132.92,+18,+65,+130
231655,10.076,-0.497,3.206,0.672336,0.150392,0.083519,100134.55,+19,+68,+129
231665,9.762,-0.709,1.290,0.498868,0.194557,0.171317,100130.77,+19,+70,+129
231675,10.022,-2.220,0.926,0.706923,0.248832,0.252730,100130.77,+21,+72,+129
231685,9.737,-2.768,0.712,0.850061,0.307896,0.222399,100138.51,+21,+72,+129
231695,9.831,-1.487,1.660,0.877730,0.366961,0.159078,100134.59,+21,+75,+128
231705,9.837,-0.865,2.750,0.934666,0.399419,0.191005,100137.82,+23,+78,+128
231715,9.380,-0.902,3.983,0.983620,0.401548,0.222931,100137.82,+24,+82,+127
231726,9.233,-0.777,5.017,0.882519,0.370685,0.197390,100138.14,+24,+82,+127
231735,9.144,-0.663,5.485,0.570703,0.316410,0.139922,100138.14,+25,+84,+127
231745,9.264,-1.388,5.203,0.187584,0.233933,0.076069,100135.98,+26,+85,+127
231755,9.302,-1.602,4.125,-0.130618,0.180190,-0.008536,100134.31,+26,+85,+127
231764,9.505,-1.310,3.381,-0.331223,0.166355,-0.017582,100135.45,+26,+85,+127
231771,9.475,-1.184,3.033,-0.358361,0.165823,0.024987,100135.45,+26,+84,+128
231780,9.601,-0.745,2.714,-0.296636,0.164759,0.085647,100132.59,+28,+82,+129
231790,9.544,-0.168,2.437,-0.144453,0.178594,0.197922,100134.17,+28,+82,+129
231800,9.512,-0.414,2.826,0.024758,0.216906,0.326693,100132.59,+28,+82,+129
231810,9.211,-0.991,3.269,0.084355,0.234465,0.417684,100134.55,+28,+82,+128
231820,9.290,-1.090,3.779,0.044979,0.230741,0.440032,100134.55,+29,+81,+129
231830,9.077,-0.787,4.820,-0.081664,0.258942,0.397996,100135.09,+29,+81,+129
231840,8.996,-1.066,4.623,-0.345590,0.247768,0.423537,100133.58,+29,+80,+129
231849,8.989,-0.703,4.189,-0.543003,0.262135,0.456528,100134.05,+30,+78,+130
231860,8.965,-0.819,3.296,-0.568544,0.278098,0.477812,100134.78,+30,+75,+130
231870,9.137,-1.478,2.680,-0.534489,0.321199,0.526234,100134.78,+30,+75,+130
231880,9.291,-1.152,2.753,-0.449351,0.391970,0.512931,100135.02,+31,+73,+131
231890,9.370,-1.775,3.088,-0.372195,0.453695,0.525170,100133.04,+32,+70,+132
231900,9.264,-1.936,3.284,-0.398801,0.523933,0.548050,100132.30,+33,+70,+134
231910,9.366,-1.173,3.623,-0.463186,0.595768,0.564546,100131.04,+33,+70,+134
231920,9.601,-0.760,4.122,-0.610581,0.664410,0.702894,100131.04,+35,+67,+134
231930,9.525,-1.326,4.313,-0.888874,0.717089,0.947665,100134.02,+37,+62,+135
231940,9.272,-1.577,4.211,-1.104378,0.725603,1.084417,100134.64,+39,+58,+136
231950,8.902,-2.185,4.205,-1.176745,0.712832,1.133903,100134.44,+39,+58,+136
231960,8.647,-2.513,3.733,-1.121406,0.642594,1.084417,100133.28,+40,+54,+138
231970,9.132,-1.951,4.170,-1.035204,0.604814,1.019500,100133.28,+42,+48,+139
231981,9.724,-2.078,4.425,-1.201222,0.563309,1.108362,100135.41,+42,+43,+140
231990,9.429,-1.745,4.343,-1.394910,0.546814,1.387187,100133.30,+42,+43,+140
232000,9.038,-2.621,4.247,-1.288488,0.553731,1.597903,100134.15,+46,+37,+142
232006,9.144,-3.370,3.732,-1.181002,0.543621,1.728802,100130.90,+46,+31,+142
232015,9.099,-3.848,3.622,-1.052232,0.449970,1.780949,100130.90,+46,+31,+142
232025,8.831,-4.144,4.080,-0.855883,0.259474,1.658031,100130.90,+47,+26,+143
232035,9.460,-4.903,3.531,-1.079369,-0.003388,1.684637,100133.80,+47,+21,+143
232045,9.034,-4.584,2.600,-1.678525,-0.720672,1.722949,100132.96,+44,+13,+142
232055,9.266,-4.091,3.229,-1.563589,-0.554121,1.353132,100133.60,+44,+13,+142
232066,10.123,-4.427,2.940,-0.912287,0.159970,0.981188,100133.60,+42,+7,+142
232075,10.368,-4.201,3.167,-0.746269,0.167952,1.008857,100137.50,+44,+4,+143
232085,10.340,-4.359,3.050,-0.623351,0.210520,1.117940,100137.50,+44,+1,+142
232095,10.462,-4.517,3.385,-0.555773,0.228080,1.231811,100130.30,+44,+1,+142
232105,10.691,-4.429,3.673,-0.616434,0.262135,1.354197,100134.19,+46,-1,+143
232115,10.943,-4.147,3.552,-0.769149,0.253621,1.484564,100132.67,+46,-5,+144
232125,10.965,-3.610,3.211,-0.858012,0.282887,1.537242,100132.67,+49,-9,+143
232135,10.802,-4.041,2.738,-0.884085,0.304704,1.576086,100136.68,+49,-9,+143
232145,11.067,-4.273,2.560,-0.952195,0.272245,1.675591,100134.84,+49,-14,+143
232156,11.251,-4.222,2.669,-1.020837,0.245640,1.776160,100134.63,+51,-19,+143
232165,11.664,-4.449,2.380,-1.080966,0.291933,1.842141,100135.73,+53,-24,+143
232175,11.998,-4.036,2.516,-1.160782,0.359511,1.801701,100137.05,+53,-24,+143
232185,12.463,-3.739,2.511,-1.184727,0.442520,1.814472,100136.05,+55,-29,+143
232196,13.245,-3.226,2.237,-1.186323,0.511694,1.804894,100135.84,+58,-35,+142
232205,13.739,-1.958,2.290,-1.263479,0.469126,1.802233,100135.84,+61,-41,+142
232215,15.440,-1.079,2.546,-1.288488,0.295126,1.777756,100133.47,+61,-41,+142
232225,18.052,-0.697,2.446,-1.404488,0.370153,1.372288,100133.47,+63,-47,+141
232236,18.459,0.690,2.179,-1.836561,0.459016,1.026949,100136.38,+65,-53,+140
232241,18.953,0.831,2.667,-2.165405,0.426557,1.169022,100134.71,+65,-53,+140
232250,18.697,0.839,4.466,-2.085589,0.471254,1.188711,100135.13,+68,-61,+139
232260,17.268,-0.515,5.464,-1.739185,0.518612,1.304178,100129.99,+71,-69,+137
232270,18.031,-3.288,6.862,-1.651919,0.793181,1.843738,100129.99,+75,-74,+136
232281,20.183,-5.361,7.548,-0.920269,1.122556,2.600398,100132.67,+75,-74,+136
232290,18.945,-3.977,7.046,-0.411040,0.507970,3.079297,100135.03,+83,-77,+137
232300,14.571,-2.139,5.513,-0.226930,0.079621,2.889333,100130.73,+86,-78,+135
232310,10.854,-1.059,4.186,0.181199,-0.077883,2.476416,100130.27,+89,-79,+135
232321,9.172,0.159,3.125,0.526006,-0.175791,1.841077,100130.27,+89,-79,+135
232330,7.648,0.904,2.925,0.497272,-0.172599,1.291940,100132.85,+91,-78,+136
232340,4.471,0.210,5.289,0.419052,0.051952,1.242986,100132.91,+91,-75,+136
232350,3.567,-1.247,8.443,0.183859,-0.051278,1.001408,100132.85,+92,-75,+136
232360,4.832,-1.765,7.593,0.252501,-0.458342,0.102675,100131.54,+92,-75,+136
232370,8.044,-0.640,4.772,-0.037498,-1.226708,-0.677398,100131.54,+90,-75,+137
232380,8.616,3.550,-1.181,-0.711681,-2.233992,-1.335618,100135.52,+80,-76,+135
232390,3.417,9.212,-7.612,-1.768451,-1.274598,-1.294114,100134.01,+74,-81,+133
232400,2.385,7.342,-1.189,-1.343828,-0.437589,-0.773178,100133.95,+74,-81,+133
232411,2.553,4.582,-0.715,-0.361553,-0.628085,-1.289857,100130.23,+71,-85,+132
232420,3.304,3.040,-0.202,0.215254,-0.758984,-1.887948,100130.23,+66,-84,+132
232430,4.011,1.989,0.506,0.481841,-0.809002,-2.251379,100131.99,+61,-81,+133
232440,4.590,1.517,1.112,0.667015,-0.841461,-2.505195,100130.52,+61,-81,+133
232451,5.208,1.231,1.661,0.858574,-0.851571,-2.771250,100130.99,+54,-77,+133
232460,5.991,1.353,1.869,0.933602,-0.850506,-3.083599,100126.12,+48,-72,+133
232470,6.475,1.983,1.691,0.890501,-0.853167,-3.404461,100126.12,+41,-66,+134
232476,6.604,2.318,1.714,0.870813,-0.839864,-3.627415,100128.77,+41,-66,+134
232485,6.634,2.319,1.987,0.905932,-0.826562,-3.846112,100128.77,+35,-60,+134
232496,7.211,1.842,2.177,0.981492,-0.796763,-4.137176,100127.88,+29,-53,+134
232506,8.277,0.697,2.383,1.020868,-0.760580,-4.486772,100130.88,+29,-53,+134
232515,9.296,-0.588,2.583,0.952758,-0.705241,-4.796992,100125.37,+22,-45,+134
232525,10.213,-1.411,2.228,0.793125,-0.644048,-4.984294,100132.60,+16,-37,+134
232536,11.190,-1.711,1.724,0.731400,-0.607332,-5.062515,100129.15,+12,-29,+134
232546,12.143,-2.232,1.317,0.776097,-0.582855,-5.111469,100129.82,+12,-29,+134
232555,12.867,-2.743,1.179,0.860703,-0.578598,-5.186496,100129.82,+6,-20,+132
232565,13.754,-3.018,1.210,0.872409,-0.611589,-5.264184,100126.41,+3,-9,+132
232576,14.840,-3.488,1.917,0.781951,-0.675442,-5.292918,100126.41,-1,+0,+130
232586,15.962,-3.522,2.764,0.583474,-0.733442,-5.306753,100131.73,-1,+0,+130
232595,16.850,-3.215,3.503,0.385529,-0.741424,-5.308349,100131.52,-4,+7,+130
232605,17.437,-3.303,4.086,0.405217,-0.696727,-5.307817,100129.32,-7,+17,+129
232615,17.949,-4.049,4.617,0.550483,-0.645112,-5.260992,100126.70,-8,+27,+127
232626,18.574,-5.563,5.152,0.830905,-0.585516,-5.302496,100126.70,-8,+27,+127
232636,18.478,-8.767,4.717,1.074611,-0.559975,-5.333890,100128.23,-7,+38,+126
232645,17.921,-12.411,4.146,1.191143,-0.572213,-5.155634,100128.76,-8,+50,+124
232655,17.347,-14.196,4.249,1.429528,-0.611589,-4.934276,100131.12,-7,+63,+122
232666,16.752,-13.958,4.716,1.555638,-0.651497,-4.607028,100131.12,-7,+63,+122
232675,16.332,-13.478,5.652,1.585968,-0.623296,-4.126534,100131.12,-6,+75,+119
232685,15.187,-14.456,7.496,1.483271,-0.439718,-3.478956,100130.36,-3,+86,+116
232695,12.901,-15.924,9.582,0.993198,-0.069901,-2.720700,100131.78,+0,+94,+115
232706,10.711,-17.441,10.621,-0.119443,0.520740,-1.960315,100129.11,+0,+94,+115
232711,8.680,-20.752,11.458,-0.922397,0.804355,-1.436187,100134.14,+3,+95,+118
232720,4.987,-30.495,11.113,-1.374690,0.990061,0.054253,100134.14,+5,+90,+119
232730,4.391,-33.691,7.420,-1.116085,0.312685,1.422839,100131.19,+5,+90,+119
232740,10.097,-22.149,7.613,-1.051700,0.342484,0.375647,100134.70,+5,+85,+120
232751,14.045,-14.739,6.437,-0.891535,0.426557,0.235170,100131.59,+5,+81,+122
232761,6.666,-12.510,3.551,-0.034306,0.261603,2.009224,100131.59,+3,+79,+120
232770,5.219,-2.340,-0.686,0.394043,-0.150250,2.600398,100131.59,+3,+79,+120
232780,17.476,12.003,-5.571,0.571767,-0.608929,2.346581,100135.44,+1,+76,+121
232791,22.821,31.662,-8.999,0.580813,-0.336488,1.324399,100134.38,-1,+76,+120
232801,20.470,15.589,-4.449,-0.077939,0.652171,1.966655,100138.64,-1,+74,+120
232810,20.266,-13.541,7.313,2.270262,0.773492,4.179700,100134.02,-1,+74,+120
232820,13.755,-16.822,9.969,3.714940,0.758061,4.287186,100134.02,-3,+80,+118
232830,8.997,-11.701,8.550,2.131913,1.089566,2.994159,100134.45,-2,+84,+117
232841,10.496,-5.329,2.825,0.838354,0.953346,2.281132,100135.39,-1,+83,+117
232850,9.712,-0.211,4.536,0.938923,0.999639,2.195994,100133.77,-1,+83,+117
232860,9.313,-1.582,5.116,0.736721,0.882575,2.346581,100134.13,+0,+83,+118
232870,7.420,-3.801,3.183,0.317419,0.850116,2.275279,100134.13,+0,+81,+119
232881,9.916,-5.652,1.120,0.065731,0.724538,1.686233,100135.73,+1,+79,+120
232891,10.038,-3.773,2.207,-0.066764,0.772960,1.403151,100137.04,+1,+79,+120
232900,9.610,-0.379,2.427,-0.366874,0.717089,1.211591,100135.99,+2,+76,+121
232910,9.724,2.664,2.402,-0.667516,0.692612,1.084949,100132.84,+4,+72,+122
232921,9.731,0.697,2.201,-0.618030,0.570759,1.195096,100132.84,+5,+69,+123
232931,9.411,-0.823,1.479,-0.237040,0.421768,1.248839,100136.15,+5,+69,+123
232940,9.452,-1.133,2.284,0.176942,0.357915,1.204142,100136.93,+5,+66,+125
232946,9.630,-1.433,3.028,0.278043,0.320135,1.193500,100134.79,+5,+66,+125
232955,9.702,-0.536,3.664,0.204611,0.325456,1.173811,100134.79,+5,+66,+125
232966,9.020,-0.635,4.289,0.107235,0.354190,1.096656,100130.54,+5,+66,+125
232976,8.714,-2.079,4.697,-0.021535,0.383988,0.931702,100130.54,+6,+64,+125
232986,8.583,-1.827,4.011,-0.313663,0.382924,0.688527,100132.23,+7,+61,+125
232995,9.206,-1.495,3.010,-0.456801,0.391438,0.532619,100134.23,+7,+61,+125
233006,9.518,-1.395,2.239,-0.508416,0.393566,0.614564,100133.59,+8,+60,+127
233016,9.676,-2.341,1.718,-0.586636,0.393034,0.843371,100133.59,+8,+56,+128
233025,9.469,-3.385,1.754,-0.583975,0.370685,0.910949,100133.59,+9,+53,+129
233035,9.423,-2.070,2.062,-0.413700,0.315346,0.734821,100138.06,+9,+53,+129
233046,9.690,-0.148,2.995,-0.246085,0.257346,0.566142,100136.66,+10,+53,+129
233056,9.635,-0.263,3.727,-0.255663,0.220098,0.487390,100136.39,+10,+50,+130
233066,9.341,-1.272,4.128,-0.359957,0.206796,0.467702,100136.75,+10,+49,+130
233075,9.408,-1.630,4.007,-0.475957,0.247768,0.649683,100136.75,+10,+49,+130
233085,9.472,-1.826,3.621,-0.593553,0.266924,0.980124,100132.66,+12,+45,+130
233096,9.283,-2.007,3.129,-0.693590,0.281291,1.208931,100136.75,+11,+41,+131
233106,8.872,-2.178,2.867,-0.818103,0.294062,1.151463,100133.94,+12,+37,+133
233115,8.872,-1.711,2.705,-0.711681,0.261603,0.860931,100133.94,+12,+37,+133
233125,9.297,-1.347,2.932,-0.614838,0.235530,0.677353,100134.77,+13,+33,+132
233136,9.490,-1.540,2.779,-0.869718,0.258410,0.730564,100132.81,+14,+31,+134
233146,9.497,-1.230,3.217,-1.225167,0.312685,0.988105,100132.81,+14,+25,+134
233155,9.191,-1.545,2.807,-1.148544,0.615988,1.472325,100134.55,+14,+25,+134
233165,9.697,-1.511,2.874,-0.672305,0.501584,1.808618,100134.50,+16,+19,+135
233176,9.604,-1.123,3.440,-0.257260,0.529786,2.136398,100134.50,+17,+15,+135
233181,9.532,-1.510,2.755,-0.117847,0.687291,2.242820,100134.47,+17,+15,+135
233191,9.412,-1.761,2.444,-0.116251,0.709639,2.190141,100134.94,+20,+13,+137
233200,9.052,-3.145,2.571,-0.214159,0.666006,2.048068,100135.83,+23,+9,+137
233210,9.040,-5.493,2.397,-0.583975,0.659621,1.846398,100132.38,+24,+5,+138
233221,9.962,-6.052,1.820,-0.886746,0.839474,1.768710,100132.38,+24,+5,+138
233231,10.916,-4.797,1.544,-0.887278,0.932061,1.857040,100137.70,+28,+0,+139
233241,10.848,-4.101,1.893,-0.800012,0.816061,2.032104,100134.08,+32,-3,+140
233250,10.388,-3.986,1.880,-0.776067,0.719217,2.215150,100132.92,+34,-9,+140
233261,10.301,-3.556,1.902,-0.848966,0.523401,2.225260,100135.44,+34,-9,+140
233271,10.345,-3.508,2.963,-0.898984,0.328649,2.098086,100135.44,+36,-13,+140
233281,11.009,-3.639,4.048,-1.010195,0.297786,2.026251,100134.48,+37,-19,+140
233290,12.149,-3.557,4.064,-1.104911,0.373878,2.056049,100136.41,+39,-25,+140
233300,12.458,-4.137,3.857,-1.096397,0.371750,2.066159,100132.90,+39,-25,+140
233311,12.337,-5.353,3.402,-1.147479,0.404208,2.054985,100133.37,+43,-30,+140
233321,13.055,-5.698,2.934,-1.283699,0.489878,2.078398,100133.37,+45,-37,+140
233330,13.554,-5.411,2.659,-1.390653,0.634080,2.103939,100133.00,+49,-43,+140
233340,14.122,-5.646,2.226,-1.523149,0.845327,2.106600,100135.73,+49,-43,+140
233351,15.410,-4.445,1.581,-1.662030,1.089033,2.124160,100135.98,+53,-50,+139
233361,16.879,-2.599,1.095,-1.758873,1.186942,2.135866,100130.64,+60,-58,+139
233370,18.351,-0.398,0.743,-1.852525,0.970373,1.970380,100130.64,+65,-65,+138
233380,21.082,1.486,-0.093,-1.981295,0.672924,1.583004,100137.55,+65,-65,+138
233391,22.652,2.343,-0.503,-2.115387,0.651639,1.139756,100133.40,+68,-72,+136
233401,20.828,2.181,1.034,-2.029185,0.527126,0.926913,100134.82,+71,-80,+134
233411,17.595,0.835,4.046,-1.687571,0.291401,1.106766,100131.15,+73,-87,+132
233420,16.867,-1.578,5.711,-1.583277,0.510098,1.410600,100131.15,+73,-87,+132
233431,19.546,-4.991,8.877,-1.100122,1.328483,2.067756,100135.88,+77,-93,+131
233441,20.456,-8.599,10.368,0.212061,2.200611,3.204875,100131.21,+88,-95,+130
233451,18.069,-6.905,9.707,0.641474,0.556392,3.682709,100131.37,+96,-92,+132
233460,13.406,-2.002,7.325,0.351474,-0.809534,2.972875,100130.74,+96,-92,+132
233470,10.265,1.565,4.484,0.180667,-0.747809,1.899609,100130.74,+96,-92,+132
233481,9.257,4.856,1.187,-0.247682,-0.746745,0.978527,100133.73,+95,-91,+132
233491,7.031,5.382,2.182,-0.220012,-0.429608,1.461151,100132.52,+94,-93,+132
233501,1.586,2.980,7.508,-0.553113,-0.374268,1.985811,100130.15,+96,-95,+131
233510,0.882,-0.024,8.136,-0.642507,-1.518304,0.517720,100130.48,+96,-95,+131
233521,1.180,-0.858,6.398,-0.132214,-2.094579,-1.125967,100130.48,+87,-96,+130
233531,0.981,-0.035,4.687,0.162575,-1.552359,-2.004480,100132.80,+78,-96,+130
233541,2.049,2.566,0.499,-0.097095,-0.332764,-2.009801,100134.64,+76,-95,+130
233550,5.134,3.496,-6.637,-1.582745,0.206796,-1.658609,100135.27,+76,-95,+130
233561,3.445,4.726,-2.210,-1.841350,-0.724396,-1.691067,100133.22,+71,-101,+127
233571,2.748,5.389,-1.011,-0.896856,-0.506764,-1.952865,100133.22,+67,-105,+125
233581,2.681,5.094,0.219,-0.387627,-0.670653,-2.305122,100132.70,+61,-105,+125
233590,3.699,4.046,1.329,0.121070,-0.656286,-2.587672,100132.43,+61,-105,+125
233601,4.343,2.167,2.336,0.541437,-0.662672,-2.908002,100128.60,+55,-101,+125
233611,4.945,0.560,3.192,0.857510,-0.650433,-3.194278,100128.24,+48,-97,+126
233621,5.774,0.078,3.618,1.015015,-0.611589,-3.455543,100128.24,+40,-90,+125
233631,6.767,0.207,3.539,0.943712,-0.581791,-3.746075,100130.34,+40,-90,+125
233640,7.214,0.715,2.718,0.765455,-0.539754,-4.045121,100130.34,+35,-84,+127
233651,7.413,1.594,2.311,0.764391,-0.502507,-4.340442,100130.50,+26,-76,+127
233661,8.380,1.934,2.042,0.892097,-0.511553,-4.659708,100127.56,+20,-68,+128
233671,9.792,1.152,2.063,1.086850,-0.503571,-4.935340,100127.56,+20,-68,+128
233680,11.006,-0.082,2.233,1.247547,-0.517938,-5.106680,100133.05,+14,-58,+127
233691,11.942,-1.189,2.388,1.331620,-0.529112,-5.258331,100130.42,+8,-48,+129
233701,12.773,-2.322,2.637,1.525308,-0.520066,-5.359432,100130.53,+2,-35,+128
233711,13.575,-3.097,2.497,1.797216,-0.536562,-5.429138,100129.06,+2,-35,+128
233720,14.487,-3.340,2.194,1.992500,-0.602011,-5.475432,100129.06,-1,-21,+128
233731,15.844,-3.327,2.140,1.972280,-0.712158,-5.524918,100131.28,-4,-6,+127
233741,17.478,-3.460,2.845,1.880757,-0.840396,-5.591432,100130.34,-8,+7,+127
233751,19.116,-3.976,4.279,1.895124,-0.924470,-5.603138,100128.03,-8,+7,+127
233761,20.063,-5.388,5.769,1.900977,-0.946818,-5.519065,100129.55,-10,+23,+124
233766,19.983,-6.998,6.698,1.831803,-0.938837,-5.373799,100129.55,-11,+37,+122
233776,19.616,-8.917,7.388,1.643436,-0.913828,-5.212570,100129.55,-11,+37,+122
233786,19.359,-12.055,7.411,1.309271,-0.808470,-5.165744,100132.49,-11,+51,+120
233796,18.729,-15.327,6.472,0.913914,-0.624360,-5.054001,100129.13,-10,+62,+118
233806,17.912,-19.386,5.142,0.402024,-0.403534,-4.717175,100132.96,-7,+70,+116
233816,16.008,-21.727,5.534,-0.117847,-0.119920,-4.452185,100133.86,-7,+70,+116
233826,13.140,-22.276,7.433,-0.104012,-0.020415,-3.929653,100133.91,-3,+76,+117
233836,10.258,-22.140,8.941,0.017309,0.100906,-3.072424,100135.84,+0,+81,+117
233846,7.938,-23.543,10.153,-0.481278,0.420704,-1.794829,100135.84,+3,+81,+117
233856,5.737,-25.122,10.901,-1.071920,0.598428,-0.536389,100134.53,+3,+81,+117
233866,8.268,-26.959,8.872,-0.945810,0.390373,0.577316,100133.33,+5,+77,+120
233876,6.369,-26.090,7.188,-1.130984,0.581401,1.534582,100133.33,+5,+72,+120
233886,6.009,-20.588,2.989,-0.752122,0.380263,2.228985,100131.65,+5,+66,+122
233895,13.571,-10.096,-0.939,0.498336,0.162098,2.818563,100132.12,+5,+66,+122
233906,20.515,7.347,-6.642,1.652482,-0.704708,2.186416,100135.90,+3,+67,+120
233916,21.811,27.064,-11.726,1.284262,-0.484947,1.486160,100135.70,+0,+70,+118
233926,20.802,12.285,-8.724,-0.009829,0.772960,2.530691,100137.48,+0,+67,+120
233936,22.480,-20.697,10.998,2.573564,1.045401,5.360983,100134.28,+0,+67,+120
233946,12.090,-16.802,11.572,5.170260,0.573951,5.221570,100130.98,+0,+73,+118
233956,5.183,-4.101,6.501,3.029050,0.779346,3.316617,100134.19,-1,+80,+115
233966,8.804,3.141,2.436,1.805198,0.837878,2.659462,100134.19,+0,+83,+115
233976,8.760,0.476,6.014,1.747730,0.948024,3.068122,100134.19,+0,+83,+115
233986,8.005,-5.013,6.969,1.635987,0.714960,3.186251,100138.67,+0,+84,+115
233996,8.741,-8.173,2.401,0.746299,0.583529,2.878159,100136.25,-1,+84,+115
234001,7.624,-8.211,-0.151,-0.036966,0.670263,2.499297,100134.36,-1,+84,+115
234011,8.753,-7.385,1.140,-0.240232,0.828300,1.918765,100131.31,-1,+80,+117
234021,9.750,-3.958,2.200,-0.172122,0.835749,1.369096,100131.31,+0,+77,+117
234031,9.325,-0.629,2.494,-0.338140,0.857566,1.161041,100134.31,+1,+74,+118
234041,9.585,-1.153,2.153,-0.254067,0.794777,1.138692,100135.31,+1,+74,+118
234051,9.183,-2.208,2.316,-0.059315,0.724006,1.207334,100136.67,+3,+72,+120
234061,9.564,-1.095,2.442,0.200887,0.621309,1.233940,100137.41,+5,+70,+120
234071,9.580,-1.466,2.707,0.383932,0.547878,1.364307,100137.41,+5,+70,+120
234081,9.086,-2.676,2.777,0.315822,0.537768,1.385591,100136.59,+5,+70,+120
234091,8.949,-2.455,2.880,0.172685,0.588318,1.209463,100137.10,+5,+70,+121
234101,9.103,-2.149,3.463,0.017309,0.654300,1.013646,100137.26,+8,+67,+122
234112,8.983,-2.101,4.498,-0.198728,0.716025,0.868913,100135.54,+10,+66,+122
234121,8.911,-1.759,4.649,-0.479150,0.779878,0.685867,100135.54,+10,+66,+122
234131,8.729,-0.959,4.121,-0.748397,0.858630,0.572527,100137.44,+12,+64,+124
234141,9.448,-1.481,3.305,-0.866525,0.814465,0.587427,100136.13,+14,+60,+125
234151,9.406,-2.554,1.877,-0.960177,0.749548,0.743335,100134.86,+16,+56,+127
234161,9.283,-2.932,1.429,-0.828214,0.720281,0.818894,100133.81,+16,+56,+127
234171,9.540,-2.664,2.297,-0.513737,0.675584,0.840179,100133.81,+17,+53,+129
234181,9.078,-3.169,3.143,-0.448287,0.639933,0.885940,100137.48,+19,+49,+129
234191,8.774,-3.145,3.824,-0.486067,0.631419,0.791225,100134.38,+22,+47,+131
234201,8.772,-2.616,4.515,-0.521186,0.611199,0.662986,100134.43,+22,+47,+131
234211,8.792,-2.644,4.469,-0.662727,0.588850,0.615096,100131.02,+23,+45,+131
234221,8.845,-2.799,3.706,-0.879828,0.602153,0.615096,100131.02,+24,+41,+132
234231,9.080,-2.789,3.263,-0.938360,0.593107,0.652344,100135.28,+26,+37,+134
234236,9.039,-2.583,3.078,-0.901113,0.563841,0.702894,100134.66,+26,+37,+134
234246,8.929,-2.489,2.764,-0.881425,0.566502,0.799738,100134.66,+28,+33,+134
234256,9.448,-3.475,3.296,-0.842048,0.601089,0.917335,100134.81,+31,+29,+135
234266,10.420,-2.412,3.214,-0.734030,0.549474,1.059940,100131.97,+31,+29,+135
234276,9.907,-3.345,4.584,-0.908562,0.554263,1.383995,100131.97,+32,+25,+136
234287,9.992,-4.777,3.587,-1.436415,0.530318,1.380270,100136.15,+33,+19,+136
234296,11.182,-5.530,1.236,-2.025460,0.372282,2.118306,100136.51,+34,+9,+137
234306,8.761,-3.860,1.448,-1.326800,-0.524323,2.324765,100133.63,+34,+9,+137
234316,8.738,-4.340,5.459,-0.837259,-0.347663,1.788930,100133.63,+32,+5,+136
234326,9.169,-5.556,2.220,-0.655278,0.724006,1.604820,100133.63,+35,+1,+137
234336,10.463,-4.802,1.792,-0.547260,0.547878,1.728802,100134.99,+35,-3,+137
234346,10.064,-5.000,2.767,-0.723920,0.377071,2.029976,100136.99,+35,-3,+137
234356,9.886,-4.551,2.552,-0.845773,0.382924,2.329022,100134.05,+38,-7,+138
234366,10.423,-3.935,2.604,-0.767553,0.289805,2.404581,100134.84,+40,-12,+139
234377,11.121,-4.272,3.108,-0.691993,0.247768,2.451939,100134.84,+42,-17,+138
234386,11.712,-4.545,3.117,-0.558434,0.350465,2.523774,100132.77,+42,-17,+138
234396,12.068,-4.602,3.021,-0.581315,0.502649,2.520049,100135.53,+44,-21,+138
234406,12.894,-4.491,2.773,-0.833535,0.554795,2.468967,100131.20,+47,-25,+139
234417,13.323,-3.856,2.700,-1.075112,0.542025,2.418948,100131.20,+50,-31,+137
234426,13.218,-4.323,2.129,-1.140030,0.622905,2.418948,100137.83,+50,-31,+137
234436,14.100,-5.549,2.214,-1.324672,0.776685,2.320508,100137.83,+53,-37,+139
234446,15.758,-5.288,2.169,-1.680653,0.962924,2.218343,100133.89,+58,-44,+137
234457,18.571,-3.454,2.369,-2.167002,1.094887,2.009224,100137.67,+64,-53,+136
234466,21.614,-0.545,2.746,-2.377717,1.062960,1.602160,100134.31,+64,-53,+136
234476,22.339,1.759,2.845,-2.389956,1.024116,1.098252,100134.31,+69,-62,+135
234486,21.616,3.108,2.373,-2.373460,0.888428,0.974802,100137.15,+73,-71,+134
234497,19.547,2.749,3.507,-2.386231,0.847988,1.127518,100134.99,+77,-78,+131
234507,17.214,0.187,5.124,-2.386763,0.752740,1.281830,100128.49,+77,-78,+131
234516,16.870,-3.293,8.040,-2.337809,1.290171,1.595775,100135.27,+81,-88,+129
234526,20.137,-9.277,8.974,-1.513571,1.818024,1.949628,100135.22,+89,-95,+127
234536,20.474,-12.491,8.280,-0.138599,0.684630,3.108031,100136.27,+97,-95,+127
234546,16.165,-6.051,8.184,0.517492,-0.089590,3.088875,100136.27,+100,-95,+127
234556,12.396,-0.124,4.965,0.199823,-0.838268,1.853848,100132.53,+100,-94,+127
234566,10.040,3.403,2.349,-0.357296,-1.128268,0.815170,100132.48,+99,-92,+126
234576,6.432,4.926,2.944,-0.405186,-0.721204,1.014711,100132.48,+97,-94,+126
234587,2.148,3.168,6.958,-0.674434,-0.530709,1.617059,100134.81,+97,-96,+125
234596,1.820,1.313,6.030,-0.292379,-1.244800,0.606050,100133.08,+97,-96,+125
234606,2.317,1.515,5.828,0.435547,-1.469350,-0.781160,100133.77,+93,-95,+125
234616,3.833,2.068,3.934,0.638813,-0.873387,-1.385104,100130.92,+87,-92,+126
234627,6.196,2.153,-5.883,-0.411040,-0.620635,-1.293581,100130.92,+85,-92,+125
234637,3.964,3.726,-2.984,-1.027223,-0.678103,-1.182903,100134.87,+85,-92,+125
234646,2.252,4.378,-1.688,-0.575994,-0.574874,-1.463324,100131.73,+80,-95,+123
234656,1.959,4.994,-0.111,-0.217884,-0.569020,-1.950737,100130.41,+77,-95,+123
234667,2.772,4.551,0.703,0.098190,-0.618507,-2.393452,100130.41,+72,-92,+124
234676,3.745,2.828,1.641,0.419052,-0.607864,-2.723892,100130.41,+72,-92,+124
234686,4.115,0.696,2.685,0.690428,-0.586580,-3.012296,100129.74,+67,-88,+123
234696,4.492,-0.767,3.177,0.767052,-0.555186,-3.279415,100130.54,+62,-83,+125
234706,5.483,-0.824,3.064,0.595180,-0.499846,-3.635929,100124.65,+56,-77,+123
234717,6.527,0.544,2.404,0.239731,-0.401406,-4.044056,100128.16,+56,-77,+123
234726,7.162,2.521,1.831,0.028483,-0.288599,-4.351084,100128.16,+51,-72,+123
234736,8.413,2.955,1.655,0.181731,-0.225810,-4.591065,100129.69,+48,-68,+124
234746,9.347,0.951,1.584,0.614336,-0.205057,-4.675139,100129.14,+43,-62,+123
234757,8.507,-0.835,1.989,0.749492,-0.215167,-4.655983,100128.28,+43,-62,+123
234767,9.861,-1.758,1.679,0.736721,-0.224213,-4.927891,100128.28,+41,-54,+123
234776,11.799,-2.349,1.130,0.808556,-0.205589,-5.267377,100129.33,+38,-45,+124
234786,12.453,-3.651,1.452,1.003308,-0.165149,-5.376460,100129.33,+38,-37,+123
234797,12.987,-4.517,1.572,1.209767,-0.229534,-5.560037,100130.22,+38,-37,+123
234807,14.188,-5.356,2.248,1.183161,-0.338085,-5.726588,100131.73,+36,-27,+123
234816,15.225,-6.486,3.366,1.027253,-0.414176,-5.722331,100129.53,+37,-19,+123
234826,16.110,-6.509,4.328,0.838354,-0.445571,-5.676037,100129.53,+36,-12,+122
234836,16.934,-5.092,5.346,0.802703,-0.414709,-5.750000,100130.74,+36,-12,+122
234847,18.138,-4.210,6.357,1.109198,-0.378525,-5.740422,100130.70,+37,-6,+121
234857,18.698,-5.762,7.394,1.511473,-0.345534,-5.458936,100127.85,+37,+0,+120
234866,17.963,-9.577,7.566,1.693987,-0.331167,-5.048148,100127.62,+37,+5,+120
234876,17.024,-13.962,6.086,1.459326,-0.305094,-4.827322,100131.60,+37,+5,+120
234887,16.881,-17.308,4.939,1.086317,-0.252947,-4.924166,100131.40,+37,+9,+120
234897,17.300,-19.299,3.649,0.889437,-0.276892,-4.981634,100131.98,+35,+15,+119
234906,16.237,-19.894,4.004,0.878795,-0.281149,-4.545304,100131.98,+34,+17,+120
234916,13.290,-20.226,6.844,1.106005,-0.140140,-3.837066,100131.35,+34,+17,+120
234927,10.140,-21.371,10.142,0.908593,0.223291,-3.041562,100131.35,+33,+23,+120
234937,7.352,-24.060,11.619,0.251969,0.762318,-2.000755,100130.71,+35,+25,+121
234946,5.352,-27.194,12.176,-0.469039,0.926208,-0.533197,100132.29,+37,+23,+122
234956,7.550,-30.528,8.377,-0.616434,0.796905,0.568271,100133.60,+37,+23,+122
234967,5.966,-25.917,5.953,-0.188618,0.646318,1.723481,100132.02,+39,+18,+123
234977,6.825,-18.756,0.575,0.090208,0.386117,2.255059,100132.02,+40,+16,+123
234987,15.254,-7.974,-3.702,1.318849,0.057805,2.988306,100137.85,+40,+16,+123
234996,21.503,10.702,-11.539,2.096262,-0.898928,2.421077,100136.73,+36,+21,+121
235006,24.879,28.680,-15.489,1.492849,-0.491865,1.884178,100136.57,+36,+21,+121
235017,23.483,-2.317,-7.124,0.997455,0.736777,3.545957,100136.57,+37,+22,+122
235026,19.066,-23.525,9.422,3.097692,0.713896,6.527900,100136.57,+38,+25,+122
235036,7.964,-14.336,10.764,3.699508,0.633548,4.568140,100134.51,+40,+33,+122
235046,4.826,0.791,5.155,2.326665,0.795309,2.343921,100136.45,+40,+33,+122
235057,9.232,4.355,3.993,2.048904,0.891089,2.521113,100133.35,+42,+38,+122
235067,9.092,-2.216,7.896,2.316023,0.713364,3.397498,100132.57,+44,+43,+121
235076,7.219,-5.893,7.305,1.851491,0.439328,3.186251,100132.57,+43,+47,+121
235086,9.603,-9.090,1.310,0.700538,0.365364,2.673297,100134.30,+43,+47,+121
235097,8.069,-8.386,0.664,-0.140728,0.647382,2.216747,100136.45,+44,+44,+122
235107,9.227,-5.780,1.851,-0.222673,0.751144,1.502655,100136.50,+46,+43,+123
235117,9.495,-1.267,2.105,-0.470636,0.840538,1.104105,100136.50,+47,+39,+123
235126,9.248,-2.784,1.996,-0.367939,0.826703,1.134967,100135.34,+47,+39,+123
235137,8.705,-3.838,1.673,-0.164673,0.759126,1.129114,100135.34,+50,+38,+125
235147,10.062,-0.998,2.081,0.133841,0.645786,1.017371,100136.77,+51,+37,+124
235156,9.958,-0.873,2.445,0.414263,0.524997,1.308435,100133.45,+53,+38,+124
235166,9.236,-1.989,2.469,0.501529,0.487750,1.444655,100133.83,+53,+38,+124
235176,9.223,-1.711,2.737,0.392978,0.553199,1.329188,100133.83,+54,+38,+126
235187,9.038,-1.972,4.100,0.273254,0.625034,1.208931,100136.11,+56,+39,+125
235197,8.750,-1.492,5.246,0.006667,0.688887,0.977463,100134.53,+58,+37,+125
235206,8.754,-1.158,5.625,-0.382838,0.783070,0.714601,100135.38,+58,+37,+125
235216,8.875,-1.539,4.596,-0.767553,0.825639,0.564546,100134.95,+60,+36,+126
235227,9.283,-2.517,2.728,-1.001681,0.807548,0.552839,100135.59,+64,+32,+127
235237,9.437,-3.200,1.183,-1.016580,0.757529,0.648619,100134.70,+65,+28,+128
235247,9.272,-3.483,1.083,-0.737223,0.662814,0.769408,100136.59,+65,+28,+128
235256,9.513,-3.405,2.133,-0.378581,0.578208,0.808784,100136.59,+68,+25,+128
235267,8.913,-3.561,3.051,-0.271627,0.542025,0.777922,100132.96,+68,+24,+129
235277,8.596,-3.185,4.109,-0.349847,0.562777,0.663518,100132.96,+71,+22,+129
235287,8.990,-2.343,5.022,-0.502030,0.571823,0.554436,100134.70,+71,+22,+129
235292,9.060,-2.003,4.963,-0.654214,0.560649,0.547518,100137.48,+73,+21,+129
235301,9.278,-1.779,4.503,-0.826085,0.571291,0.597537,100135.63,+74,+17,+129
235312,9.473,-2.076,4.128,-1.043718,0.587254,0.721518,100133.59,+74,+17,+129
235322,9.367,-2.531,3.732,-0.982525,0.521805,0.782711,100133.59,+76,+13,+130
235331,10.457,-2.573,3.448,-1.052764,0.559584,1.034399,100133.80,+78,+9,+130
235341,9.257,-3.731,2.261,-1.314030,0.577144,1.220637,100134.49,+80,+3,+130
235352,9.412,-4.409,1.532,-1.246984,0.561181,1.254160,100134.70,+80,+3,+130
235362,9.630,-4.139,1.918,-0.994764,0.462740,1.323866,100134.38,+81,+0,+131
235371,9.818,-4.078,2.322,-1.059149,0.329181,1.406343,100134.38,+83,-4,+130
235381,11.134,-4.696,2.233,-1.171424,0.277034,1.328123,100137.45,+82,-9,+130
235392,11.613,-3.945,1.365,-1.517828,-0.202397,2.029444,100135.92,+82,-9,+130
235402,9.482,-3.400,4.344,-0.551516,-0.092250,2.097554,100135.03,+83,-13,+131
235412,9.762,-5.352,3.081,-0.557370,0.423364,2.276875,100131.94,+85,-15,+130
235421,10.273,-4.799,2.419,-0.318452,0.522869,2.779187,100131.94,+87,-17,+130
235431,10.359,-4.308,2.522,-0.108269,0.426025,3.250636,100136.08,+87,-17,+130
235442,10.110,-4.223,2.663,-0.161480,0.331841,3.450709,100131.88,+90,-17,+130
235452,10.028,-3.660,3.189,-0.387627,0.198282,3.251168,100134.88,+92,-21,+130
235461,10.600,-4.381,3.165,-0.523847,0.233401,2.911150,100134.66,+95,-22,+130
235471,11.191,-5.155,3.160,-0.566416,0.376006,2.728104,100134.66,+95,-22,+130
235482,11.529,-5.123,2.825,-0.495113,0.525529,2.716398,100133.26,+96,-25,+130
235492,12.035,-4.927,2.509,-0.588764,0.671860,2.642967,100133.48,+99,-27,+130
235502,12.656,-6.326,2.454,-0.944746,0.801162,2.475352,100132.84,+103,-31,+130
235511,13.892,-6.368,2.651,-1.436947,1.041144,2.352435,100133.90,+103,-31,+130
235522,15.986,-4.963,2.185,-1.913717,1.356685,2.248673,100133.90,+109,-37,+129
235532,18.398,-2.367,2.541,-2.304818,1.430116,2.050196,100133.18,+114,-44,+128
235542,21.491,-0.665,3.015,-2.521387,1.354024,1.493077,100134.49,+119,-53,+126
235551,21.805,1.139,3.708,-2.628341,1.219933,0.790160,100130.66,+119,-53,+126
235561,21.695,2.147,3.360,-2.653350,1.189070,0.557096,100130.45,+123,-64,+125
235572,19.733,1.860,4.217,-2.809790,1.300813,0.558160,100130.45,+128,-74,+122
235582,17.767,-0.533,5.329,-2.993900,1.147033,0.811977,100132.72,+131,-85,+119
235591,17.682,-4.976,7.068,-3.155129,1.636042,1.263738,100134.14,+131,-85,+119
235601,20.539,-11.319,8.847,-2.355368,1.930299,1.815004,100129.83,+138,-96,+115
235612,20.221,-13.032,7.924,-0.402526,0.860226,2.896783,100130.78,+146,-99,+113
235622,15.121,-5.382,7.776,0.227492,-0.188562,2.805792,100130.78,+149,-98,+113
235632,11.830,0.391,4.839,-0.002911,-0.574342,1.696875,100129.82,+149,-98,+113
235641,11.391,4.674,2.713,-0.701571,-0.810066,0.843371,100127.51,+148,-98,+114
235652,6.936,6.999,4.975,-1.202819,-0.231663,1.472857,100130.35,+147,-102,+113
235662,0.102,4.335,6.296,-1.581149,-0.182709,1.633022,100125.73,+149,-108,+111
235672,0.247,1.084,5.565,-0.378581,-0.571149,0.370858,100125.73,+146,-108,+113
235681,2.559,0.635,5.540,1.158152,-1.188396,-1.360627,100132.14,+146,-109,+113
235692,4.982,0.909,3.321,1.024061,-1.133057,-2.228498,100128.00,+137,-107,+115
235702,7.659,2.649,-6.403,-0.378581,-0.927662,-1.872517,100125.22,+130,-109,+115
235712,5.060,4.899,-3.923,-0.995828,-0.607332,-1.561233,100126.16,+126,-114,+114
235721,2.604,5.469,-3.021,-0.559498,-0.481754,-1.834205,100126.16,+126,-114,+114
235731,1.898,5.844,-1.248,-0.007168,-0.523791,-2.283306,100129.46,+120,-116,+113
235742,3.174,4.578,0.216,0.423309,-0.621167,-2.735067,100129.46,+113,-117,+115
235752,4.540,2.501,1.679,0.711712,-0.635534,-3.105415,100132.46,+105,-116,+117
235762,5.141,0.849,2.892,0.898483,-0.616910,-3.368277,100123.90,+105,-116,+117
235771,5.789,-0.096,3.235,1.039492,-0.608397,-3.594424,100123.90,+97,-113,+118
235782,8.110,-1.080,3.064,1.177840,-0.550397,-3.833874,100125.75,+89,-110,+120
235792,7.926,0.265,2.134,1.126758,-0.534965,-4.102589,100122.06,+79,-107,+122
235802,6.955,1.255,1.801,1.090574,-0.529644,-4.430901,100118.08,+79,-107,+122
235811,7.836,1.516,1.751,1.238501,-0.594562,-4.678331,100112.36,+70,-100,+125
235822,8.997,1.016,2.121,1.350244,-0.639259,-4.838496,100112.36,+60,-96,+125
235832,10.287,0.227,2.533,1.481675,-0.713222,-4.931616,100118.03,+49,-88,+127
235842,11.702,-1.249,2.772,1.675363,-0.777075,-5.018882,100124.17,+49,-88,+127
235851,12.850,-2.895,2.853,1.854684,-0.795167,-5.119982,100121.66,+40,-79,+129
235862,13.484,-3.895,2.895,2.030280,-0.813791,-5.279083,100120.08,+30,-67,+131
235872,14.251,-4.121,2.840,2.110097,-0.874451,-5.508955,100120.08,+23,-54,+132
235882,15.326,-4.316,2.977,2.073381,-0.987259,-5.730312,100123.13,+23,-54,+132
235892,16.461,-4.891,3.721,2.021766,-1.117626,-5.831413,100121.03,+14,-41,+132
235901,18.184,-5.112,5.339,2.157454,-1.197974,-5.909633,100123.03,+5,-27,+131
235912,19.910,-5.271,7.347,2.427766,-1.188928,-5.945817,100124.23,+0,-9,+130
235922,19.000,-7.045,7.085,2.610280,-1.186800,-5.775010,100124.23,+0,-9,+130
235932,16.808,-8.612,6.866,2.302188,-1.304396,-5.183303,100124.52,-5,+6,+129
235941,17.996,-10.833,6.465,2.520353,-1.371442,-4.140368,100124.09,-10,+21,+125
235952,18.059,-14.563,5.817,2.284096,-1.083039,-3.288461,100125.98,-12,+35,+124
235962,16.397,-20.012,9.040,1.204978,-0.701516,-2.901617,100126.56,-12,+35,+124
235972,15.613,-27.449,10.522,1.002244,-0.984066,-2.575434,100126.56,-14,+43,+122
235982,9.575,-28.428,11.584,1.218281,-0.947350,-2.978773,100131.93,-16,+51,+119
235992,5.940,-28.511,14.506,1.081528,-0.375332,-2.639287,100131.88,-16,+60,+118
235998,3.264,-30.789,14.547,0.666483,-0.019351,-1.603269,100129.99,-16,+60,+118
236007,0.143,-31.949,13.467,0.221639,0.161034,-0.371967,100129.99,-15,+62,+118
236017,1.228,-32.310,10.219,0.013584,0.401548,0.819959,100126.43,-14,+60,+119
236027,10.975,-22.417,10.119,-0.349847,0.764979,0.859335,100126.43,-14,+60,+119
236037,10.293,-21.046,8.190,0.257290,0.596300,1.484564,100130.16,-12,+58,+120
236047,5.992,-14.066,-0.090,1.050134,0.203603,2.946269,100128.96,-14,+56,+120
236057,15.853,5.639,-11.076,0.548886,-0.012434,2.285921,100134.05,-14,+55,+120
236067,25.562,27.488,-13.079,-1.095333,0.365896,1.551609,100134.05,-14,+55,+120
236077,22.825,16.920,-9.546,-1.242195,1.014006,1.923554,100134.05,-13,+47,+123
236087,19.160,-19.086,3.764,1.262978,0.930997,4.709681,100134.37,-12,+43,+123
236097,11.306,-18.934,10.419,3.350444,0.634612,5.115149,100131.43,-11,+47,+123
236107,8.408,-9.193,10.559,2.020702,0.943768,3.125058,100128.96,-11,+47,+123
236116,9.253,0.842,6.256,1.105473,1.127877,2.458857,100129.45,-8,+48,+123
236127,10.438,-3.276,5.589,1.576391,0.986336,3.207003,100129.45,-7,+48,+124
236137,7.308,-5.518,5.856,1.761033,0.638869,3.532122,100134.34,-6,+49,+124
236147,7.601,-8.396,3.918,0.741510,0.710171,3.020232,100130.66,-6,+49,+124
236157,8.446,-8.787,0.851,-0.214159,0.853309,2.379572,100130.51,-5,+46,+125
236167,7.948,-4.651,1.681,-0.283865,0.950685,1.621316,100130.51,-2,+43,+127
236177,10.110,-2.261,2.449,-0.224801,0.905456,1.280766,100133.80,+0,+40,+128
236187,9.785,-1.196,2.294,-0.221608,0.871933,1.308435,100130.97,+0,+40,+128
236197,9.228,-3.233,1.168,-0.123168,0.795309,1.389316,100130.97,+1,+37,+129
236207,9.029,-3.070,1.517,0.081162,0.745291,1.312160,100132.33,+4,+35,+130
236217,9.376,-2.647,2.360,0.343492,0.639933,1.287683,100131.06,+6,+34,+131
236227,8.911,-3.943,2.463,0.443529,0.531915,1.308435,100131.06,+6,+34,+131
236237,8.544,-4.140,2.667,0.427033,0.513823,1.126454,100135.69,+7,+35,+131
236248,8.537,-3.656,2.956,0.283364,0.555327,0.860399,100131.48,+9,+35,+132
236257,8.485,-3.708,3.658,0.043914,0.616520,0.613500,100131.81,+10,+33,+132
236267,9.086,-2.390,4.771,-0.233315,0.693144,0.320307,100129.34,+10,+33,+132
236277,9.426,-1.619,4.681,-0.532360,0.747419,0.170785,100133.95,+13,+33,+133
236288,9.411,-2.073,3.434,-0.755315,0.785731,0.175574,100133.41,+15,+31,+135
236297,9.494,-2.522,2.398,-0.774470,0.782538,0.242619,100133.05,+19,+26,+135
236307,9.546,-2.919,1.478,-0.641443,0.716025,0.366601,100133.05,+19,+26,+135
236317,9.460,-3.495,1.582,-0.405186,0.642594,0.521445,100131.52,+21,+24,+137
236327,9.245,-3.524,2.776,-0.271627,0.611199,0.611904,100131.52,+23,+23,+137
236337,9.208,-3.469,3.828,-0.375920,0.598960,0.637445,100133.58,+25,+21,+137
236347,9.483,-2.902,4.165,-0.703700,0.522869,0.741206,100132.31,+27,+17,+138
236357,8.866,-2.757,3.827,-1.116085,0.499456,0.799206,100133.09,+27,+17,+138
236367,8.588,-2.900,3.746,-1.369369,0.425493,0.792821,100128.75,+28,+11,+139
236378,8.871,-3.232,3.580,-1.315094,0.494135,0.815170,100128.75,+29,+5,+140
236387,9.166,-3.290,3.337,-1.498140,0.668667,1.003536,100136.01,+32,+0,+140
236397,9.567,-3.660,2.461,-1.622653,0.794245,1.159977,100133.77,+32,+0,+140
236407,9.168,-3.850,2.082,-1.850396,0.893749,1.606417,100134.27,+36,-7,+140
236418,8.571,-3.564,1.882,-1.169828,0.936850,1.387187,100134.27,+40,-14,+142
236427,10.268,-6.929,2.562,-2.081864,0.495199,1.659628,100134.27,+41,-23,+141
236437,8.094,-3.078,2.263,-0.177443,0.840538,1.734123,100135.48,+41,-23,+141
236447,9.227,-4.929,2.505,-0.504691,0.561181,1.246178,100136.53,+45,-23,+142
236457,10.032,-5.805,2.120,-0.461590,0.686226,1.323334,100133.75,+48,-27,+142
236467,10.454,-4.660,2.823,-0.187553,0.853841,1.762325,100133.75,+53,-29,+142
236477,9.937,-4.072,2.864,-0.332287,0.758061,2.034233,100133.75,+53,-29,+142
236487,9.172,-3.570,1.999,-0.382838,0.628227,1.944306,100135.43,+55,-31,+142
236497,10.340,-4.612,2.266,-0.406251,0.481896,1.762857,100134.01,+58,-33,+142
236508,12.421,-5.288,3.107,-0.579718,0.336098,1.903866,100133.43,+61,-37,+142
236517,12.684,-4.752,3.331,-0.684544,0.292997,2.198655,100131.12,+61,-37,+142
236527,12.217,-5.006,2.844,-0.607920,0.395162,2.426930,100135.59,+63,-40,+142
236537,12.745,-5.647,2.225,-0.601535,0.587254,2.546123,100132.27,+67,-44,+142
236547,13.372,-5.402,1.795,-0.734030,0.667603,2.685003,100132.27,+71,-48,+142
236557,13.876,-4.873,1.815,-0.862269,0.744759,2.727572,100132.01,+71,-48,+142
236567,14.711,-4.731,1.550,-1.087883,1.020923,2.630728,100131.59,+77,-53,+142
236577,16.729,-3.812,1.610,-1.494947,1.262501,2.466838,100131.59,+83,-58,+140
236582,18.170,-2.655,2.015,-1.841883,1.275804,2.260912,100137.42,+83,-58,+140
236592,20.333,-1.787,1.918,-2.154763,1.155015,1.893756,100132.95,+90,-65,+139
236602,22.632,-0.303,1.825,-2.504359,1.073602,1.190839,100131.39,+94,-74,+137
236612,23.384,1.753,2.155,-2.795423,1.065621,0.903500,100133.38,+99,-84,+134
236622,22.485,2.373,3.684,-2.789038,1.095951,1.285022,100133.38,+99,-84,+134
236633,19.078,-0.165,3.957,-2.604928,1.004960,1.864490,100131.41,+104,-94,+130
236642,17.686,-4.497,7.248,-2.389956,1.148098,2.373719,100135.13,+110,-102,+127
236652,19.666,-9.557,10.721,-1.344892,1.626997,2.757370,100133.51,+122,-105,+125
236662,20.815,-11.050,8.848,-0.115186,0.943768,2.816434,100128.99,+122,-105,+125
236673,17.435,-4.783,8.094,0.348813,-0.235388,2.556765,100128.99,+126,-103,+125
236682,14.468,0.995,5.269,0.254630,-0.648305,1.718692,100133.45,+126,-102,+126
236692,12.916,4.303,2.433,-0.287058,-1.168708,0.756105,100133.61,+122,-102,+125
236702,9.406,5.688,2.439,-0.346122,-0.876580,0.882747,100134.14,+122,-102,+125
236712,1.177,3.517,8.244,-0.838856,-0.407791,1.323866,100131.05,+122,-103,+125
236722,-0.404,1.047,6.574,-0.235975,-0.687681,0.249537,100131.05,+121,-105,+124
236732,2.071,-0.178,4.841,1.026189,-0.990451,-0.937600,100134.37,+115,-101,+126
236742,4.495,-0.466,4.103,1.438574,-1.355479,-1.708627,100132.16,+115,-101,+126
236752,5.965,1.698,-2.925,0.256758,-1.601313,-1.697985,100130.07,+106,-98,+128
236763,3.712,3.390,-5.098,-1.099057,-0.913828,-1.247820,100134.37,+101,-101,+126
236772,1.392,3.888,-2.402,-1.122470,-0.577534,-1.496847,100134.37,+97,-104,+123
236782,0.842,5.380,-0.965,-0.727645,-0.623296,-2.122608,100132.41,+97,-104,+123
236792,2.278,5.638,0.263,-0.347718,-0.663204,-2.619599,100128.59,+90,-106,+123
236803,3.694,3.689,1.841,0.025823,-0.652562,-2.878204,100128.85,+83,-106,+123
236812,3.932,1.875,2.695,0.421180,-0.648837,-3.099030,100124.29,+76,-103,+124
236822,4.079,0.727,2.764,0.582942,-0.615846,-3.309213,100124.29,+76,-103,+124
236832,6.891,-0.940,2.603,0.588795,-0.519002,-3.564094,100130.70,+67,-100,+124
236843,8.119,-0.275,1.329,0.579217,-0.432268,-3.815250,100127.55,+61,-94,+124
236853,5.597,1.009,1.151,0.447254,-0.323186,-4.089286,100127.66,+55,-90,+125
236862,5.488,1.718,1.373,0.530263,-0.339149,-4.371836,100126.30,+55,-90,+125
236872,7.332,2.076,1.168,0.692556,-0.401406,-4.655451,100126.30,+48,-85,+127
236882,8.783,1.654,1.370,0.772905,-0.433865,-4.850735,100124.73,+39,-79,+126
236893,10.102,0.404,1.526,0.878795,-0.484947,-5.030056,100125.46,+32,-71,+127
236902,11.494,-1.064,1.813,1.021400,-0.536030,-5.210973,100123.48,+32,-71,+127
236912,12.763,-2.541,2.103,1.187950,-0.568488,-5.399872,100124.79,+24,-62,+128
236922,13.878,-3.697,2.352,1.401858,-0.613718,-5.607927,100124.79,+18,-51,+129
236933,15.254,-4.335,2.626,1.670574,-0.713754,-5.802679,100127.41,+11,-38,+129
236942,17.130,-4.840,3.337,2.051564,-0.874984,-5.916551,100124.31,+11,-38,+129
236952,18.823,-5.232,4.681,2.397968,-1.051644,-6.001156,100123.94,+5,-23,+129
236962,19.141,-6.872,6.346,2.561326,-1.172433,-6.099064,100123.67,+0,-5,+127
236973,18.752,-9.399,6.819,2.264941,-1.274598,-6.105982,100123.67,-3,+11,+126
236983,19.233,-11.272,8.076,2.193638,-1.279387,-5.917083,100128.48,-3,+11,+126
236992,19.667,-13.384,8.734,2.036665,-1.260231,-5.235450,100130.84,-7,+27,+124
237002,18.568,-15.836,8.359,1.770611,-1.202763,-4.057359,100130.64,-8,+41,+120
237012,16.747,-19.286,8.737,1.464115,-0.825497,-2.952700,100128.75,-10,+51,+119
237023,16.071,-23.000,10.151,1.120372,-0.346599,-2.475929,100128.75,-9,+51,+118
237032,10.520,-26.027,13.921,0.603694,-0.123112,-1.659673,100133.02,-9,+58,+118
237042,5.416,-30.628,15.160,0.223767,0.015236,-1.069563,100132.55,-8,+61,+118
237052,0.998,-32.229,14.458,-0.175847,0.372282,-0.568316,100129.35,-7,+62,+118
237063,-0.546,-31.796,12.701,-0.490856,0.568630,-0.066004,100130.87,-5,+60,+119
237072,3.379,-26.830,8.390,-0.251939,0.472850,0.586894,100130.87,-5,+60,+119
237082,15.378,-25.010,7.293,0.486630,0.283419,1.346747,100132.55,-4,+59,+120
237092,8.567,-13.258,-11.190,1.513069,-0.587644,1.432417,100134.09,-6,+62,+118
237103,17.952,11.768,-17.641,-0.500434,0.030135,2.372655,100133.82,-7,+56,+120
237113,36.466,12.249,-8.956,-0.305150,0.568098,1.999646,100132.09,-7,+56,+120
237122,24.317,-13.288,8.438,1.807326,1.353492,5.002873,100132.09,-5,+54,+120
237132,8.354,-10.402,13.256,4.451911,0.903859,6.364010,100132.15,-5,+58,+119
237143,0.300,-5.349,8.246,4.168297,0.647382,4.241957,100130.52,-6,+66,+118
237153,7.746,0.695,2.181,2.494812,0.642594,3.481039,100133.93,-6,+66,+118
237162,11.277,-7.255,3.665,2.044647,0.826171,3.903535,100131.66,-5,+68,+117
237172,5.154,-10.998,8.512,2.242592,0.633016,4.303681,100131.66,-7,+69,+117
237182,6.288,-10.553,3.831,1.277345,0.374942,3.082489,100132.58,-7,+68,+116
237193,7.674,-7.703,1.467,-0.240232,0.876722,2.139591,100131.84,-7,+68,+116
237202,8.475,-6.265,0.475,-0.705828,1.153419,1.329188,100133.09,-4,+63,+120
237212,9.775,-2.111,1.989,-0.449351,1.236428,0.823151,100133.09,-1,+61,+120
237222,9.375,-2.906,2.060,-0.180104,1.070410,0.965224,100133.09,+0,+59,+122
237233,8.643,-3.770,1.886,-0.079003,0.936850,1.070582,100135.50,+0,+59,+122
237243,9.376,-2.572,3.302,0.200355,0.767639,1.014179,100136.39,+3,+58,+123
237252,8.951,-2.807,2.851,0.137566,0.628759,1.126986,100132.30,+4,+56,+123
237262,8.780,-3.756,1.716,-0.192874,0.740502,1.104105,100131.88,+7,+54,+125
237273,8.899,-4.072,2.037,-0.217884,0.837346,0.904564,100131.88,+7,+54,+125
237283,8.791,-3.162,4.194,-0.182764,0.970905,0.629463,100134.49,+8,+53,+126
237288,8.759,-1.750,6.186,-0.190214,1.039547,0.365537,100132.45,+12,+52,+127
237297,9.040,-0.909,7.305,-0.485535,1.049657,0.194197,100132.45,+12,+52,+127
237307,8.957,-1.904,5.457,-1.051167,0.911309,0.163867,100128.62,+16,+48,+129
237318,8.777,-3.293,2.036,-1.136305,0.719749,0.142583,100130.82,+17,+43,+130
237328,9.133,-3.865,0.966,-0.742012,0.569162,0.166528,100130.82,+20,+41,+131
237338,9.066,-4.217,1.367,-0.374856,0.453695,0.267629,100134.33,+20,+41,+131
237347,8.595,-4.147,2.396,-0.230654,0.429750,0.270821,100135.23,+21,+39,+132
237358,8.656,-3.442,3.530,-0.213627,0.446245,0.190473,100133.92,+23,+39,+132
237368,9.008,-3.143,4.138,-0.309939,0.487750,0.143115,100133.92,+24,+37,+133
237377,9.246,-2.412,4.170,-0.447223,0.546282,0.191005,100133.92,+24,+37,+133
237387,10.177,-1.613,3.853,-0.579718,0.575016,0.411830,100132.74,+26,+35,+134
237398,9.988,-2.672,3.350,-0.751058,0.577676,0.787500,100129.65,+28,+32,+135
237408,10.333,-4.005,3.139,-0.962305,0.455291,1.579279,100128.40,+28,+26,+137
237417,8.705,-2.706,2.673,-1.666818,0.087603,2.149169,100132.01,+28,+26,+137
237427,6.226,-1.940,2.682,-1.218250,0.015236,1.536710,100132.01,+28,+19,+135
237437,8.700,-4.273,2.766,-0.642507,0.546282,0.996087,100135.14,+29,+15,+136
237448,9.776,-4.225,2.325,-0.946342,0.629823,1.224894,100135.14,+32,+9,+137
237458,9.785,-5.838,3.506,-0.701571,0.612795,1.053555,100133.31,+32,+9,+137
237467,10.530,-5.156,0.648,-1.322544,0.852777,1.568637,100133.31,+33,+5,+137
237477,8.749,-3.593,2.321,-0.111462,0.587254,1.343022,100132.26,+36,+3,+137
237488,9.449,-6.038,2.389,-0.427535,0.687291,1.031206,100132.26,+40,+0,+139
237498,10.043,-5.512,1.070,-0.318985,0.855437,1.155720,100134.63,+40,+0,+139
237507,9.601,-5.252,2.036,-0.275351,0.722942,1.272252,100139.09,+42,-1,+139
237517,10.173,-4.995,2.519,-0.356232,0.671860,1.480839,100132.41,+44,-3,+139
237528,10.533,-4.347,2.880,-0.396140,0.547346,1.774031,100132.41,+48,-5,+140
237538,11.500,-4.205,3.872,-0.404654,0.418575,2.067756,100135.90,+48,-5,+140
237548,12.394,-4.330,3.999,-0.453608,0.402080,2.446086,100131.65,+49,-9,+140
237557,12.245,-4.510,3.615,-0.431260,0.463805,2.890398,100134.52,+52,-13,+140
237568,12.132,-4.291,2.959,-0.420085,0.645786,3.114948,100130.57,+55,-16,+140
237578,12.361,-5.358,1.812,-0.492984,0.762318,3.025021,100131.15,+55,-16,+140
237588,13.144,-6.452,2.182,-0.926122,0.830428,2.774398,100132.82,+59,-21,+140
237597,13.788,-6.203,2.129,-1.344892,1.065089,2.661590,100132.82,+64,-25,+140
237607,14.580,-5.340,1.323,-1.756213,1.449272,2.471095,100134.55,+70,-33,+140
237618,17.118,-3.771,1.344,-2.304818,1.750446,2.251866,100135.35,+70,-33,+140
237628,20.403,-1.988,1.868,-2.724121,1.682336,1.751151,100135.35,+78,-42,+139
237637,21.628,0.623,2.662,-3.017845,1.493969,1.000344,100132.95,+84,-53,+138
237647,23.052,4.060,2.874,-3.105643,1.308795,0.755041,100135.35,+90,-66,+135
237658,22.639,4.790,3.398,-3.196102,1.504611,0.836986,100131.26,+94,-66,+135
237668,18.982,1.444,4.689,-3.019974,1.311988,1.199885,100132.26,+94,-76,+133
237678,17.184,-5.079,6.028,-2.906634,1.720648,1.894288,100132.26,+101,-86,+130
237687,18.528,-11.515,11.156,-2.310139,2.196886,2.531224,100133.25,+112,-95,+127
237698,20.283,-13.713,10.022,-0.976140,1.524831,2.186416,100130.94,+119,-97,+125
237708,17.675,-7.093,7.982,-0.351975,0.297254,1.357921,100131.30,+119,-97,+125
237718,13.255,0.562,5.470,-0.191278,-0.113534,0.825812,100131.30,+121,-97,+125
237727,15.028,6.193,-1.092,-0.422746,-0.074158,0.314454,100131.30,+121,-98,+124
237737,11.069,9.798,3.438,-1.229956,-0.032122,1.069518,100135.32,+124,-103,+122
237748,1.011,5.226,8.762,-2.096231,0.043438,2.136398,100130.01,+124,-103,+122
237758,-0.743,-1.690,4.595,-1.792928,-0.375865,1.410246,100131.43,+125,-109,+119
237767,2.844,-1.316,4.260,0.233878,-0.522195,-0.500738,100131.43,+124,-108,+120
237777,4.917,0.204,3.669,1.739216,-1.203295,-2.214664,100131.43,+115,-102,+122
237788,4.522,2.629,-0.223,1.169327,-1.882267,-2.769654,100132.43,+115,-102,+122
237798,3.764,3.260,-5.779,-0.310471,-1.100066,-2.103985,100131.20,+105,-100,+123
237808,2.829,2.761,-3.545,-0.674966,-0.675442,-1.843251,100129.71,+101,-103,+122
237817,1.253,4.630,-1.878,-0.476489,-0.629149,-2.517966,100129.71,+95,-104,+121
237828,3.560,5.809,0.187,-0.167333,-0.586048,-2.971323,100131.56,+95,-104,+121
237838,5.950,3.475,1.756,0.244520,-0.534965,-3.186296,100131.56,+88,-104,+121
237848,5.418,1.596,2.686,0.608483,-0.548800,-3.086259,100131.83,+81,-102,+122
237857,5.140,0.521,3.068,0.755345,-0.490268,-3.268773,100130.88,+75,-97,+122
237868,6.203,0.167,2.673,0.736721,-0.424819,-3.708828,100128.52,+75,-97,+122
237878,6.870,0.501,1.994,0.604226,-0.356177,-4.159524,100128.52,+69,-92,+124
237888,7.049,1.114,1.418,0.489290,-0.295516,-4.563928,100128.61,+62,-88,+124
237898,7.932,1.431,0.919,0.486098,-0.265186,-4.848074,100126.72,+55,-83,+125
237907,9.005,1.006,0.912,0.665951,-0.268378,-4.967267,100129.66,+55,-83,+125
237918,10.287,0.044,1.173,0.928813,-0.305626,-5.027927,100129.04,+49,-77,+126
237928,11.999,-1.192,1.082,1.210299,-0.360966,-5.159359,100129.29,+41,-68,+127
237938,13.092,-2.620,1.082,1.427400,-0.399810,-5.361560,100131.29,+36,-58,+129
237947,13.484,-3.695,1.189,1.572666,-0.466855,-5.577597,100129.04,+36,-58,+129
237958,14.167,-4.630,1.532,1.679088,-0.586580,-5.770221,100129.04,+30,-47,+129
237968,15.452,-5.054,2.474,1.726978,-0.748341,-5.898459,100129.66,+24,-35,+129
237978,17.098,-5.092,3.766,1.787638,-0.881901,-6.005413,100129.66,+17,-22,+130
237987,18.428,-5.484,4.748,1.832867,-0.965974,-6.083101,100128.95,+17,-22,+130
237993,18.853,-6.090,5.434,1.885014,-1.008011,-6.079376,100131.20,+13,-9,+130
238003,18.667,-7.303,5.650,1.838189,-1.051644,-5.971890,100128.22,+8,+4,+129
238013,18.704,-9.468,5.957,1.688134,-1.111772,-5.664863,100127.75,+8,+4,+129
238023,19.047,-12.504,6.032,1.597143,-1.174029,-5.175854,100127.75,+6,+17,+127
238032,18.778,-15.613,5.929,1.388556,-1.104855,-4.577230,100133.78,+3,+29,+125
238043,18.084,-20.536,7.151,1.024593,-0.822837,-4.083965,100130.89,+1,+37,+123
238053,16.168,-23.714,9.034,1.095363,-0.653094,-3.864736,100129.27,+1,+37,+123
238063,12.008,-23.696,10.716,1.248079,-0.582323,-3.671048,100130.31,+1,+47,+122
238072,7.141,-24.694,11.755,1.045877,-0.243901,-2.962278,100130.31,+2,+55,+120
238083,3.064,-27.657,12.732,0.477052,0.223291,-1.539948,100130.98,+5,+58,+121
238093,2.490,-32.607,11.313,0.238667,0.365364,0.367665,100134.45,+5,+58,+121
238103,4.333,-30.976,10.995,-0.227462,0.543621,1.395169,100133.92,+6,+56,+122
238108,13.593,-23.029,10.323,-0.797883,0.626630,1.113683,100133.61,+8,+53,+123
238117,14.401,-21.260,9.090,-1.145351,0.713364,0.766215,100133.61,+8,+53,+123
238128,6.220,-17.370,1.168,0.429694,0.345144,2.181095,100133.61,+8,+49,+123
238138,12.417,-2.583,-5.677,1.642904,0.047163,2.231114,100134.45,+7,+52,+123
238148,20.974,21.499,-14.616,0.745767,-0.119920,1.574490,100138.87,+7,+51,+123
238158,28.038,24.569,-15.811,-0.470104,0.456887,1.987939,100137.80,+7,+51,+123
238168,21.310,-14.535,0.731,1.278409,1.020391,4.934231,100137.80,+8,+47,+125
238178,15.151,-21.429,16.148,4.923361,0.767107,6.978597,100135.52,+8,+54,+123
238188,5.473,-14.792,10.236,3.769747,0.581933,4.988507,100135.52,+8,+58,+122
238198,6.827,-5.403,2.274,1.044813,0.904924,3.306507,100135.48,+8,+58,+122
238208,9.601,-1.967,1.039,1.082061,0.975162,2.880287,100131.96,+9,+58,+122
238218,8.817,-3.504,6.321,1.530629,0.852777,3.468269,100133.74,+10,+59,+123
238228,7.461,-6.163,5.652,1.292776,0.609603,3.294269,100133.74,+10,+59,+123
238238,7.818,-8.234,2.159,0.236006,0.713896,2.761095,100132.67,+10,+59,+123
238248,7.467,-7.176,1.838,-0.247150,0.878850,1.930472,100133.19,+12,+56,+125
238258,9.263,-3.691,2.329,-0.281737,0.890557,1.225426,100133.67,+14,+53,+125
238268,9.999,-0.439,2.728,-0.390287,0.916098,1.028545,100130.54,+17,+50,+126
238278,10.070,-0.604,2.142,-0.415828,0.876722,1.086545,100138.15,+17,+50,+126
238288,8.950,-3.085,2.067,-0.326434,0.820318,1.220105,100133.74,+19,+47,+127
238298,9.174,-2.712,2.304,-0.066232,0.679309,1.217977,100133.85,+21,+45,+129
238308,9.671,-2.061,2.874,0.184923,0.555860,1.319610,100133.85,+21,+45,+129
238318,8.764,-3.314,2.541,0.135437,0.532979,1.476582,100133.43,+21,+45,+129
238328,8.428,-3.692,2.310,0.078501,0.588850,1.346747,100133.43,+23,+43,+130
238338,8.622,-3.372,2.637,0.113089,0.625566,1.141353,100134.23,+25,+43,+130
238344,8.780,-3.179,3.296,0.059878,0.677713,0.998747,100129.98,+25,+43,+130
238353,8.759,-3.041,4.049,-0.072086,0.746887,0.835922,100134.88,+26,+42,+130
238363,8.547,-2.854,4.355,-0.307278,0.795309,0.657133,100133.03,+30,+40,+131
238372,8.784,-2.349,4.104,-0.547260,0.826703,0.503353,100133.03,+30,+40,+131
238383,9.355,-2.422,3.506,-0.621223,0.794245,0.448546,100133.84,+32,+37,+133
238393,9.239,-3.264,2.476,-0.633994,0.693144,0.539005,100134.88,+35,+35,+134
238403,8.893,-3.797,1.871,-0.630801,0.659621,0.637977,100133.15,+37,+32,+135
238413,9.124,-4.292,1.654,-0.499370,0.579805,0.717793,100127.63,+39,+29,+135
238423,9.030,-4.250,2.201,-0.360489,0.491474,0.791225,100127.63,+39,+29,+135
238433,8.892,-3.805,3.482,-0.359425,0.448373,0.804527,100133.52,+40,+28,+135
238443,9.015,-2.865,4.463,-0.483406,0.362704,0.776326,100130.63,+40,+25,+135
238453,8.833,-2.566,4.666,-0.809590,0.269052,0.771537,100133.79,+42,+22,+136
238462,9.145,-2.714,4.094,-0.981461,0.244043,0.778986,100131.74,+42,+22,+136
238473,9.183,-3.469,3.341,-1.021369,0.290869,0.807188,100131.74,+43,+17,+137
238483,9.682,-3.877,2.898,-0.919204,0.315346,0.952454,100131.91,+44,+13,+137
238493,9.258,-4.957,1.803,-0.909626,0.380795,1.002472,100133.70,+45,+9,+137
238503,9.597,-5.143,1.326,-0.962305,0.376539,1.058344,100136.12,+45,+9,+137
238513,9.432,-4.652,1.812,-0.873443,0.319071,1.156784,100131.07,+46,+5,+137
238523,8.719,-5.426,2.653,-0.910691,0.370153,1.022692,100131.07,+48,+0,+138
238533,11.097,-6.044,2.114,-1.499736,0.378135,1.466472,100133.41,+49,-5,+138
238543,8.413,-3.369,2.159,-0.403058,0.579805,1.795848,100132.52,+49,-5,+138
238553,9.397,-4.400,3.379,-0.348251,0.393034,1.534582,100136.66,+51,-7,+139
238563,10.371,-5.141,2.825,-0.279608,0.493603,1.621316,100129.54,+53,-9,+139
238573,10.795,-4.644,2.488,-0.121040,0.523933,1.893224,100129.54,+56,-10,+139
238578,11.048,-5.446,2.679,-0.188086,0.453162,2.122563,100135.02,+56,-10,+139
238588,10.837,-5.301,2.638,-0.356764,0.415915,2.309334,100135.02,+58,-13,+139
238599,11.178,-5.455,2.268,-0.455205,0.436135,2.400856,100131.55,+60,-17,+139
238608,11.862,-5.578,2.267,-0.631333,0.388777,2.347646,100128.03,+60,-17,+139
238618,12.145,-5.583,2.188,-0.711149,0.454759,2.459921,100133.55,+62,-21,+139
238628,12.252,-5.483,1.558,-0.635590,0.620777,2.620086,100134.80,+65,-24,+139
238639,12.698,-5.123,1.781,-0.655810,0.769236,2.566875,100133.53,+70,-28,+139
238648,14.147,-4.717,2.522,-0.907498,0.854905,2.472691,100134.84,+70,-28,+139
238658,15.237,-4.412,2.983,-1.233681,1.028373,2.375847,100134.84,+74,-33,+139
238668,16.682,-3.640,2.832,-1.748763,1.310391,2.194398,100130.64,+80,-40,+139
238678,19.487,-1.910,3.178,-2.487864,1.570593,1.826710,100130.64,+87,-50,+135
238688,22.928,0.330,3.709,-2.918341,1.516318,1.237133,100134.88,+87,-50,+135
238698,24.022,2.786,3.514,-3.080102,1.345510,0.831133,100132.83,+92,-62,+134
238708,24.595,3.212,2.609,-3.147680,1.381694,1.089738,100132.78,+97,-72,+132
238718,21.256,1.162,4.437,-3.104579,1.255052,1.638875,100128.80,+104,-83,+128
238728,18.423,-2.815,6.526,-3.030084,1.087437,2.384893,100128.80,+104,-83,+128
238738,18.549,-7.236,9.522,-2.608653,1.509400,2.866985,100130.71,+112,-94,+123
238748,18.574,-10.220,7.469,-1.590195,1.186942,2.478545,100129.37,+120,-98,+121
238758,17.369,-7.195,6.591,-0.812782,-0.082140,1.365371,100128.95,+121,-100,+120
238769,12.958,-1.899,5.607,0.163639,-0.395021,0.814637,100128.95,+121,-100,+120
238778,12.770,3.224,1.304,0.352538,-0.060324,0.749188,100128.95,+122,-97,+121
238788,11.718,6.931,2.408,-0.111462,-0.371076,1.280233,100131.66,+122,-98,+120
238798,2.658,6.056,7.558,-1.335846,-0.183241,2.278471,100130.30,+124,-102,+118
238809,-1.352,0.034,5.051,-1.353938,-0.300837,1.622912,100126.47,+124,-102,+118
238814,1.157,-2.178,4.015,-0.102948,-0.345002,0.329353,100125.89,+124,-104,+117
238823,3.861,-0.901,4.145,1.160281,-0.708433,-1.004114,100125.89,+124,-104,+117
238833,4.643,0.130,3.296,1.310336,-1.388470,-2.073122,100130.53,+120,-99,+118
238843,3.946,2.228,-2.239,0.176410,-1.513515,-2.238076,100131.80,+111,-96,+120
238854,3.242,3.044,-3.876,-0.823425,-0.781332,-1.777269,100128.06,+106,-100,+118
238863,3.495,3.795,-2.707,-0.709553,-0.505699,-2.102388,100125.59,+101,-103,+117
238873,2.002,5.805,-1.304,-0.448287,-0.420030,-2.782957,100125.59,+101,-103,+117
238883,2.691,4.783,0.538,-0.021535,-0.381718,-2.876608,100128.12,+95,-102,+116
238894,3.908,2.070,1.948,0.407877,-0.388103,-2.815948,100126.87,+90,-102,+117
238903,4.623,0.993,2.811,0.664886,-0.350855,-2.979837,100124.29,+85,-98,+117
238913,5.626,0.902,2.865,0.721290,-0.299773,-3.394883,100125.18,+85,-98,+117
238923,6.609,0.843,2.171,0.668079,-0.252947,-3.845048,100125.18,+78,-94,+117
238934,6.763,0.458,1.436,0.572831,-0.177388,-4.252644,100125.84,+72,-90,+117
238943,6.345,0.527,1.392,0.523877,-0.117791,-4.543707,100127.71,+66,-87,+118
238953,7.258,1.147,1.078,0.548886,-0.103424,-4.775707,100125.20,+66,-87,+118
238963,8.898,1.194,0.920,0.645198,-0.090122,-4.949175,100127.20,+60,-81,+117
238973,10.175,0.518,1.009,0.780886,-0.101296,-5.052937,100127.20,+55,-75,+118
238984,11.502,-0.651,0.780,0.988941,-0.155039,-5.177982,100128.00,+48,-67,+118
238993,12.649,-2.317,0.497,1.247547,-0.218360,-5.328569,100128.11,+48,-67,+118
239003,13.223,-3.581,0.527,1.452941,-0.292855,-5.494588,100124.70,+42,-58,+118
239013,13.964,-4.095,0.507,1.519455,-0.394488,-5.724459,100124.06,+37,-49,+117
239024,15.549,-4.126,0.618,1.519987,-0.538158,-5.941028,100124.06,+31,-36,+117
239033,17.735,-4.198,1.535,1.580115,-0.705241,-6.063413,100128.39,+31,-36,+117
239043,20.081,-5.281,3.454,1.723253,-0.841993,-6.068202,100128.59,+26,-25,+116
239049,21.570,-6.243,4.814,1.795620,-0.927130,-6.070863,100125.97,+23,-11,+115
239058,22.196,-7.542,5.676,1.860005,-0.972360,-6.068202,100125.97,+23,-11,+115
239069,22.245,-9.938,6.198,1.871179,-1.009075,-5.868129,100126.66,+19,+1,+112
239078,21.403,-12.450,8.001,2.229821,-1.038873,-5.289725,100126.66,+17,+15,+110
239088,19.335,-18.268,9.806,2.751289,-1.103791,-4.368643,100128.76,+17,+28,+108
239098,15.747,-23.854,10.581,2.868353,-1.004818,-3.627947,100128.76,+17,+28,+108
239109,11.267,-26.685,9.528,2.438941,-0.925534,-3.455543,100127.45,+16,+40,+104
239119,8.246,-25.434,8.646,1.905766,-0.773883,-3.643378,100127.45,+16,+51,+101
239128,6.749,-24.816,9.283,1.385363,-0.450892,-2.967599,100127.45,+19,+57,+100
239138,4.546,-26.795,11.373,0.763859,0.187640,-1.258994,100129.45,+19,+57,+100
239149,1.966,-32.179,13.213,0.347217,0.579805,0.941812,100128.92,+21,+58,+100
239159,2.354,-36.008,13.678,0.259419,0.544685,2.627535,100124.89,+21,+56,+99
239164,6.312,-29.774,11.317,-0.105076,0.419107,2.519517,100129.19,+21,+56,+99
239173,14.195,-21.095,10.057,-0.718067,0.431878,0.824215,100129.19,+23,+53,+99
239183,7.092,-11.181,-0.686,0.470134,0.026410,1.926215,100133.39,+23,+52,+99
239194,13.975,3.274,-8.067,1.250739,-0.122048,2.545058,100134.38,+23,+52,+99
239203,20.459,25.213,-17.192,-0.013021,-0.147590,2.001242,100136.38,+21,+53,+98
239213,29.222,18.171,-14.640,-0.730837,0.593639,2.265169,100133.02,+21,+47,+98
239223,19.030,-14.373,1.156,1.012886,1.049657,4.700103,100133.02,+23,+45,+100
239234,13.417,-21.419,18.331,3.395674,0.892153,5.970781,100128.98,+23,+45,+100
239244,9.457,-14.815,8.463,3.260518,0.334502,4.244085,100129.83,+23,+52,+97
239253,7.513,-1.131,3.506,1.291180,0.883107,2.919664,100129.36,+23,+54,+97
239263,9.430,-2.723,1.370,1.676959,0.828300,3.026618,100132.72,+25,+55,+97
239273,7.922,-4.212,5.712,1.974409,0.728263,3.622048,100132.72,+25,+55,+97
239284,7.445,-6.895,5.564,1.596965,0.486508,3.180397,100133.21,+25,+56,+98
239293,7.832,-8.547,1.787,0.659033,0.561713,2.738746,100131.16,+24,+57,+97
239303,7.305,-7.681,1.872,-0.065168,0.829364,2.002306,100130.05,+26,+54,+97
239313,9.106,-3.952,2.126,-0.267902,0.861823,1.165830,100129.95,+28,+53,+98
239324,10.243,-0.703,2.767,-0.433388,0.901199,0.904032,100129.95,+28,+53,+98
239334,9.716,-2.024,2.360,-0.413168,0.821382,1.023757,100134.05,+30,+51,+100
239343,8.245,-4.782,1.462,-0.386030,0.742098,1.047701,100132.16,+32,+48,+100
239353,8.934,-3.386,1.576,-0.177975,0.675584,0.826876,100127.84,+33,+47,+101
239364,9.575,-2.798,2.118,0.091272,0.563309,0.831133,100129.31,+33,+47,+101
239373,9.054,-3.769,2.025,0.104043,0.499988,0.940215,100129.31,+35,+47,+101
239383,9.083,-3.567,1.679,0.081162,0.485089,0.827408,100132.19,+36,+45,+102
239393,9.279,-3.124,1.989,0.054557,0.503181,0.715133,100132.44,+37,+46,+103
239404,9.184,-2.942,3.179,-0.058783,0.550538,0.605518,100133.33,+37,+46,+103
239414,9.052,-2.309,4.692,-0.289186,0.602685,0.462913,100128.66,+39,+44,+103
239423,8.730,-1.941,5.067,-0.556305,0.688887,0.307537,100128.66,+41,+43,+103
239433,8.735,-2.337,3.865,-0.770214,0.762318,0.214950,100131.67,+43,+40,+104
239443,9.052,-2.803,2.404,-0.846837,0.753272,0.223463,100133.92,+43,+40,+104
239454,9.317,-2.615,1.772,-0.673902,0.633548,0.352234,100128.42,+45,+37,+105
239464,9.483,-2.793,1.569,-0.427003,0.491474,0.577316,100128.94,+46,+35,+106
239473,9.561,-3.192,2.228,-0.248214,0.444117,0.738546,100128.94,+48,+34,+107
239483,9.199,-3.209,3.248,-0.226930,0.424961,0.815702,100131.09,+48,+34,+107
239494,9.060,-2.966,3.968,-0.435517,0.407933,0.839647,100127.30,+48,+33,+106
239504,8.999,-2.651,3.779,-0.704232,0.432410,0.873702,100132.66,+50,+29,+107
239513,9.297,-2.633,3.446,-0.863333,0.487750,0.970013,100129.24,+51,+26,+107
239523,9.750,-2.755,3.116,-0.900048,0.474447,1.109426,100129.24,+51,+26,+107
239534,9.423,-3.161,2.255,-0.885149,0.364832,1.297261,100133.10,+51,+22,+108
239544,9.442,-4.472,1.637,-0.662727,0.352062,1.425499,100129.01,+53,+18,+109
239553,10.004,-5.449,1.716,-0.970287,0.325456,1.536710,100127.43,+53,+14,+108
239563,8.477,-5.462,1.307,-1.428433,0.656428,1.564912,100127.79,+53,+14,+108
239574,11.391,-7.045,1.278,-1.084158,0.643126,1.478178,100127.79,+56,+9,+109
239584,9.719,-4.839,1.528,-0.243425,0.598960,1.680380,100131.72,+58,+6,+110
239593,9.890,-4.836,2.591,-0.139131,0.416447,1.602692,100133.77,+59,+4,+110
239603,10.155,-5.542,2.598,-0.263113,0.490942,1.739444,100128.52,+59,+4,+110
239613,9.815,-5.253,2.035,-0.313663,0.528722,1.985811,100133.23,+62,+3,+110
239624,10.177,-4.698,2.443,-0.283333,0.509034,2.307737,100133.23,+63,+1,+111
239634,10.088,-5.098,2.069,-0.345058,0.521805,2.738214,100130.27,+65,-1,+111
239643,10.119,-5.267,2.184,-0.329095,0.553199,2.978196,100131.02,+65,-1,+111
239653,11.119,-4.794,2.159,-0.260985,0.410594,3.027682,100130.27,+68,-3,+110
239664,11.581,-4.898,2.436,-0.298232,0.305236,3.003205,100128.17,+69,-6,+112
239674,11.304,-5.224,2.025,-0.387627,0.420172,2.848893,100128.17,+71,-8,+112
239683,11.750,-5.224,1.320,-0.466911,0.573951,2.563682,100129.53,+71,-8,+112
239693,12.812,-6.111,1.496,-0.631865,0.619713,2.398728,100130.42,+74,-11,+112
239704,13.690,-6.315,2.419,-0.871847,0.714428,2.357224,100128.42,+78,-14,+112
239714,14.931,-5.225,2.880,-1.237406,0.949089,2.243884,100126.69,+81,-19,+111
239723,17.033,-4.208,2.694,-1.844011,1.330079,1.977297,100126.69,+81,-19,+111
239733,20.863,-3.137,2.388,-2.527772,1.574318,1.382931,100131.37,+87,-26,+112
239744,22.568,-0.651,3.276,-3.031680,1.499822,0.742803,100132.46,+93,-35,+110
239754,23.632,2.036,4.242,-3.058285,1.375309,0.872105,100127.21,+98,-46,+108
239764,23.320,3.124,4.029,-2.913552,1.578042,1.360582,100127.70,+105,-55,+106
239773,19.767,1.428,6.572,-2.710286,1.205033,1.843206,100127.70,+105,-55,+106
239783,16.832,-3.904,6.234,-2.503295,1.270483,2.390214,100130.64,+112,-64,+103
239794,16.109,-8.980,8.180,-2.429864,1.529088,2.281132,100127.91,+121,-71,+100
239804,16.389,-11.081,7.819,-1.511442,0.703254,1.189775,100125.86,+123,-75,+99
239813,16.865,-8.604,5.588,-0.214691,-0.114067,0.266032,100128.64,+123,-75,+99
239823,13.708,-2.511,4.431,0.762263,0.309493,0.661922,100128.64,+124,-74,+98
239834,14.273,2.984,0.853,0.372226,0.212117,1.000344,100126.91,+128,-72,+99
239844,10.711,6.035,5.152,-0.616434,-0.247626,2.020398,100128.42,+132,-75,+98
239854,2.686,5.021,9.081,-1.867424,-0.283277,2.523242,100123.02,+132,-75,+98
239863,-2.062,1.879,3.490,-1.631699,-0.296580,1.305775,100124.17,+134,-81,+97
239869,-0.509,-0.533,1.879,-0.568012,-0.086397,0.039886,100124.17,+134,-81,+97
239879,3.070,-0.692,2.894,0.540905,-0.415241,-0.992939,100124.17,+135,-84,+97
239889,7.993,-3.850,3.642,0.856978,-0.598286,-1.892205,100128.77,+133,-82,+97
239899,4.416,0.122,-3.210,0.086483,-1.155938,-2.174755,100126.56,+128,-84,+97
239908,-0.512,5.804,-4.041,-0.704764,-0.601479,-2.319489,100126.45,+128,-84,+97
239919,1.248,6.026,-2.248,-0.643571,-0.306158,-2.546168,100128.16,+125,-88,+97
239929,2.596,6.107,-0.886,-0.266838,-0.264654,-2.819140,100126.06,+122,-92,+95
239939,3.314,5.119,0.932,0.255162,-0.254011,-2.844149,100125.38,+119,-92,+96
239948,3.978,2.886,2.003,0.729272,-0.291791,-2.822865,100125.38,+119,-92,+96
239959,4.695,0.882,2.883,1.069290,-0.284342,-2.967599,100125.80,+116,-93,+99
239969,5.595,-0.082,2.998,1.128886,-0.267846,-3.335819,100127.53,+112,-91,+100
239979,5.715,0.144,2.238,0.977235,-0.241773,-3.800883,100127.53,+107,-92,+100
239988,5.992,0.515,1.534,0.680318,-0.165149,-4.214864,100128.49,+102,-93,+102
239998,6.641,0.926,1.487,0.513767,-0.101296,-4.533597,100123.40,+102,-93,+102
240009,8.140,1.096,1.441,0.526538,-0.054470,-4.737927,100126.49,+96,-92,+103
240019,9.581,0.703,1.522,0.643602,-0.017755,-4.906075,100126.80,+89,-93,+105
240029,10.591,0.111,1.322,0.728207,-0.048085,-5.071560,100127.60,+81,-91,+106
240038,11.568,-1.248,0.897,0.797382,-0.094911,-5.212570,100127.91,+81,-91,+106
240049,12.293,-3.029,0.682,0.988409,-0.118856,-5.326441,100125.65,+74,-90,+108
240059,12.873,-3.914,0.600,1.283198,-0.158764,-5.464789,100124.40,+64,-86,+110
240069,14.038,-3.873,0.489,1.562024,-0.252947,-5.646771,100124.40,+56,-79,+113
240078,15.796,-3.378,0.767,1.754115,-0.409920,-5.836202,100124.40,+56,-79,+113
240089,17.924,-3.696,1.866,1.877565,-0.607332,-5.991046,100128.70,+46,-71,+114
240099,19.425,-4.441,3.879,2.067528,-0.790378,-6.090551,100126.17,+36,-60,+117
240104,20.260,-5.556,5.214,2.122335,-0.905846,-6.115560,100124.92,+36,-60,+117
240114,20.356,-7.278,6.283,2.087216,-0.948947,-6.060752,100123.39,+26,-49,+118
240123,19.938,-10.251,7.071,1.953124,-0.934048,-5.828220,100123.39,+17,-35,+118
240134,19.413,-13.112,7.771,1.891400,-0.923406,-5.224808,100128.65,+17,-35,+118
240144,18.185,-18.134,6.519,1.795620,-0.909039,-4.404295,100126.40,+9,-24,+119
240154,15.828,-23.660,5.577,1.095363,-0.741424,-3.902516,100125.71,+4,-13,+118
240163,14.227,-26.613,5.839,0.893694,-0.740892,-3.787048,100127.18,+0,-4,+118
240174,10.517,-26.439,8.818,1.276281,-0.664268,-3.602938,100127.18,+0,-4,+118
240184,6.169,-29.691,10.509,1.209235,-0.442910,-2.380682,100131.12,-3,+4,+118
240194,0.938,-33.458,10.994,0.798978,-0.071498,-0.544371,100130.74,-3,+9,+117
240203,8.882,-32.481,9.445,0.400960,0.297786,0.480473,100129.80,-3,+11,+118
240214,4.606,-28.679,9.709,0.019437,0.650043,1.163169,100131.43,-1,+8,+118
240224,7.270,-26.342,6.841,0.797382,0.432942,1.861829,100131.43,-1,+8,+118
240234,12.413,-2.018,-5.508,2.312298,-0.208782,2.077334,100132.81,+0,+13,+118
240244,28.949,24.374,-11.982,0.304648,0.079089,1.936857,100134.97,-1,+10,+118
240253,30.793,17.782,-14.295,-1.235277,0.816061,1.978894,100133.44,+1,+5,+120
240264,19.741,-19.261,10.055,1.799877,1.388079,5.890433,100131.08,+1,+5,+120
240274,9.281,-17.314,14.000,5.559764,0.721346,6.748725,100131.08,+6,+11,+121
240284,5.410,-13.594,4.210,2.643803,0.683034,4.952855,100130.63,+7,+15,+122
240293,6.159,-0.356,-0.622,0.571235,1.034226,3.490617,100132.05,+12,+13,+123
240304,9.211,-2.001,4.825,1.273088,1.057107,3.104306,100128.89,+12,+13,+123
240314,7.965,-6.864,7.659,1.571069,0.854905,3.762526,100128.00,+14,+14,+124
240324,6.162,-7.285,4.757,0.505786,0.793181,3.153792,100128.00,+17,+13,+125
240334,8.112,-6.361,2.142,-0.497241,0.968777,2.169921,100131.09,+21,+8,+126
240339,8.512,-6.229,1.211,-0.547792,0.982080,1.775628,100128.95,+21,+8,+126
240349,8.980,-5.269,1.019,-0.439241,0.953346,1.451041,100128.95,+23,+5,+127
240359,9.597,-2.711,2.412,-0.263645,0.951749,1.144545,100132.09,+23,+5,+127
240369,9.737,-1.996,2.287,-0.214159,0.882043,1.126986,100128.27,+26,+3,+127
240379,9.069,-3.342,2.369,-0.169462,0.792648,1.213188,100128.27,+30,+2,+128
240389,8.711,-3.328,2.786,-0.035370,0.666006,1.190839,100130.41,+32,+0,+130
240399,8.914,-3.661,1.940,-0.025792,0.566502,1.129114,100130.80,+32,+0,+130
240409,8.949,-3.636,2.082,0.003474,0.576612,1.042380,100130.49,+35,+0,+130
240418,9.137,-3.287,2.864,0.038593,0.624502,0.873169,100130.49,+37,-1,+131
240429,9.072,-3.065,4.212,-0.049205,0.711768,0.663518,100130.49,+39,-1,+130
240439,9.132,-2.395,5.300,-0.372195,0.807548,0.368197,100132.06,+42,-3,+130
240449,9.299,-2.492,4.025,-0.802672,0.785199,0.252730,100131.91,+42,-3,+130
240459,9.119,-3.002,2.225,-0.941021,0.740502,0.293170,100131.48,+45,-7,+132
240470,9.244,-3.403,2.081,-0.719663,0.690483,0.338399,100130.23,+46,-9,+132
240479,9.379,-3.561,2.261,-0.487131,0.565970,0.382564,100130.23,+49,-12,+132
240489,8.961,-3.874,2.426,-0.409443,0.473915,0.428858,100131.34,+49,-12,+132
240499,9.027,-3.492,3.335,-0.374856,0.445181,0.375115,100130.52,+51,-13,+133
240509,9.019,-2.869,4.155,-0.395076,0.405805,0.320840,100125.98,+53,-14,+132
240519,8.798,-2.839,4.261,-0.515333,0.390906,0.308069,100125.98,+53,-17,+133
240529,8.959,-2.778,3.902,-0.680287,0.385052,0.343188,100134.27,+53,-17,+133
240539,9.215,-3.106,3.536,-0.805333,0.360043,0.465573,100134.27,+55,-19,+134
240549,8.997,-3.174,3.089,-0.915480,0.241383,0.616693,100129.75,+56,-23,+132
240559,8.562,-3.065,2.730,-1.050635,0.093988,0.751316,100132.48,+57,-28,+133
240569,8.062,-3.375,2.673,-1.080433,0.107291,0.782711,100130.39,+57,-28,+133
240574,7.976,-3.334,2.714,-1.112892,0.240319,0.812509,100130.39,+58,-31,+133
240584,8.374,-3.662,2.857,-1.314030,0.424428,0.891261,100132.55,+58,-31,+133
240594,8.993,-3.823,2.124,-1.091076,0.302043,0.902435,100132.59,+59,-37,+132
240604,8.759,-3.622,2.614,-0.562159,0.157309,0.889133,100133.33,+60,-40,+131
240614,8.287,-3.825,3.108,-0.553645,0.123254,0.854546,100130.44,+61,-41,+131
240624,8.414,-5.323,2.841,-0.737223,0.286080,0.655537,100130.44,+61,-41,+131
240634,10.072,-5.627,2.741,-1.232617,0.343548,1.076967,100134.39,+64,-45,+132
240644,7.993,-2.960,2.115,-0.256728,0.561181,1.145078,100131.08,+65,-49,+130
240654,8.846,-3.634,3.226,-0.334948,0.283419,0.951390,100130.72,+66,-50,+131
240664,9.277,-4.248,3.123,-0.329095,0.386649,1.025353,100131.03,+69,-50,+130
240674,9.279,-3.691,2.585,-0.241296,0.468594,1.128050,100131.03,+69,-53,+130
240684,9.758,-4.461,2.063,-0.319517,0.449438,1.202545,100135.04,+73,-53,+130
240690,10.193,-5.039,1.982,-0.485003,0.386117,1.274380,100132.30,+73,-53,+130
240699,10.775,-4.348,2.483,-0.545663,0.310557,1.412729,100132.30,+74,-56,+131
240709,11.564,-3.595,3.003,-0.567480,0.280227,1.631958,100133.15,+76,-58,+130
240719,12.068,-4.160,3.271,-0.655810,0.269585,1.754343,100127.52,+79,-60,+130
240730,11.761,-4.409,2.880,-0.678691,0.341419,1.935793,100127.52,+79,-60,+130
240739,11.795,-5.559,2.188,-0.772342,0.482428,2.095426,100133.61,+82,-64,+129
240749,12.683,-5.164,2.862,-0.918672,0.604814,2.087444,100129.94,+87,-67,+129
240759,13.832,-3.575,3.870,-1.087883,0.707511,2.082123,100128.20,+90,-71,+129
240769,14.798,-3.026,3.214,-1.252837,0.887896,2.002838,100128.20,+90,-71,+129
240779,16.358,-3.010,2.895,-1.632763,1.143841,1.726141,100128.20,+96,-77,+126
240789,18.944,-1.693,3.048,-2.132946,1.194923,1.494674,100132.20,+101,-84,+124
240799,22.407,-1.030,2.096,-2.668249,1.041144,1.569169,100129.42,+107,-92,+122
240809,24.068,-0.281,2.219,-2.838701,0.801517,2.042747,100131.38,+112,-92,+122
240819,25.147,2.148,5.840,-2.275020,0.447309,2.570600,100131.38,+112,-102,+118
240829,24.478,2.944,8.388,-1.586470,0.464869,2.571664,100131.38,+117,-107,+116
240839,19.539,-0.217,10.251,-1.639149,0.769768,2.227389,100134.77,+121,-111,+113
240849,15.957,-3.868,9.619,-1.870084,0.780942,1.966655,100130.73,+121,-111,+113
240860,15.351,-6.993,8.160,-1.851461,1.184281,1.778288,100128.55,+127,-117,+112
240869,14.944,-8.569,3.847,-1.024030,1.253988,2.034233,100128.55,+133,-120,+108
240879,12.440,-3.200,5.626,-0.636654,0.347805,2.387554,100129.79,+139,-121,+107
240889,7.398,0.859,4.764,-0.616966,0.139218,1.886306,100129.79,+139,-121,+107
240899,2.938,2.931,4.179,-0.817039,0.150924,1.370160,100130.30,+141,-122,+107
240909,-1.256,3.204,6.256,-0.977204,0.548942,1.199353,100126.63,+144,-125,+105
240919,-0.454,0.019,5.431,-0.965498,0.345676,0.788564,100131.35,+147,-129,+103
240929,6.689,2.521,-2.021,-0.968691,-0.271571,-0.496481,100131.35,+143,-132,+103
240940,4.334,7.516,-3.235,-1.195369,0.071640,-1.679893,100130.13,+143,-132,+103
240950,1.978,7.202,-2.488,-1.208672,0.338759,-1.841655,100131.45,+140,-138,+100
240959,-0.099,4.539,-2.500,-0.681351,0.363768,-1.956058,100130.98,+137,-140,+99
240969,0.854,3.580,-0.615,-0.046544,0.363768,-2.238608,100131.80,+133,-143,+99
240979,3.998,4.475,0.796,0.389254,0.260007,-2.698883,100130.23,+133,-143,+99
240990,5.777,3.248,1.401,0.884648,0.238722,-3.068167,100130.85,+126,-142,+100
240999,6.234,0.807,1.386,1.315125,0.248832,-3.087856,100126.66,+122,-140,+103
241009,2.790,-0.829,-0.374,1.890335,0.272245,-2.936204,100126.66,+117,-135,+106
241019,0.781,-1.164,0.907,2.161179,0.224355,-3.178314,100127.40,+117,-135,+106
241029,5.037,-2.576,0.439,1.617895,0.088667,-3.674773,100127.40,+110,-129,+110
241039,6.456,-0.437,-0.361,1.597143,0.059401,-3.929653,100127.16,+103,-126,+112
241045,7.042,-1.010,-0.434,1.879693,0.000869,-3.988185,100129.94,+103,-126,+112
241054,6.970,-2.674,-0.374,2.197363,-0.119920,-4.056295,100125.16,+96,-121,+115
241064,6.713,-4.728,0.521,2.513968,-0.273167,-4.226570,100126.00,+87,-111,+119
241074,7.247,-5.413,1.851,2.611344,-0.409920,-4.439946,100126.00,+87,-111,+119
241084,8.657,-5.762,2.925,2.531528,-0.534433,-4.633102,100129.83,+78,-102,+122
241094,9.959,-6.106,3.871,2.302188,-0.631809,-4.777304,100130.63,+69,-94,+125
241104,11.086,-6.969,4.553,1.762629,-0.688745,-4.867763,100128.16,+60,-86,+127
241115,11.518,-8.872,5.495,0.946905,-0.640323,-4.877340,100125.06,+60,-86,+127
241124,11.327,-10.027,6.010,0.024226,-0.515809,-4.948111,100125.06,+51,-80,+128
241134,11.773,-9.556,6.022,-0.822360,-0.328507,-5.105616,100130.67,+44,-80,+127
241144,12.005,-9.534,6.217,-1.440140,-0.095975,-5.077946,100130.72,+37,-82,+124
241155,11.488,-10.038,6.592,-2.052066,0.179658,-4.972056,100130.88,+32,-84,+122
241164,11.568,-10.322,7.214,-2.779992,0.481364,-4.975249,100128.20,+32,-84,+122
241174,12.136,-11.288,7.854,-3.477056,0.817125,-4.957689,100128.20,+26,-90,+120
241184,12.545,-11.614,7.607,-4.115056,1.166189,-4.925762,100131.57,+23,-99,+115
241195,13.374,-11.404,6.667,-4.654083,1.522171,-4.884258,100128.27,+19,-109,+110
241204,13.199,-11.143,4.802,-5.267605,1.880813,-4.702276,100132.84,+19,-109,+110
241214,12.282,-12.587,2.149,-6.167403,2.302776,-4.406955,100128.16,+17,-121,+102
241224,10.933,-16.268,-0.569,-7.223640,2.767308,-3.777470,100128.16,+18,-139,+93
241234,15.716,-20.846,-0.272,-8.038301,2.993987,-2.961213,100133.70,+19,-159,+82
241245,23.663,-20.449,-2.106,-6.187091,2.717289,-4.417066,100131.34,+19,-159,+82
241254,8.826,-23.591,-17.120,-6.317458,1.946794,-3.699782,100135.22,+14,-169,+71
241264,6.287,-25.217,-15.337,-5.998192,1.878152,-0.762004,100137.75,+16,-184,+58
241274,14.973,-6.653,-10.213,-2.199992,1.300281,-1.150444,100137.75,+15,-186,+56
241285,19.291,-0.428,-19.580,-0.162544,-0.010305,-0.120279,100139.11,+15,-186,+56
241294,20.243,1.461,-10.114,1.754115,-0.128966,2.356691,100135.97,+17,-186,+58
241304,19.278,2.097,2.182,2.057950,0.063126,3.551810,100136.70,+27,-183,+63
241314,15.028,9.713,19.586,1.611510,0.477107,2.963829,100129.25,+36,-182,+67
241325,13.694,2.973,13.871,0.733529,-0.108213,2.006563,100129.25,+36,-182,+67
241335,7.250,-4.570,7.116,-0.566416,-0.046489,1.300986,100134.10,+39,-183,+67
241344,7.655,-0.976,6.223,-0.948470,0.115805,0.412362,100130.05,+40,-186,+65
241354,8.826,-0.704,3.584,-0.771278,-0.085865,0.409702,100135.04,+42,-188,+62
241364,10.065,-1.121,1.649,-0.442966,-0.234856,0.668839,100131.63,+42,-188,+62
241375,9.986,-1.620,2.955,-0.139664,-0.335424,1.070050,100131.63,+44,-189,+62
241384,8.705,-2.738,4.252,-0.056654,-0.384378,1.197224,100135.45,+46,-191,+62
241395,7.775,-2.311,7.202,-0.082728,-0.439718,0.856142,100131.55,+46,-191,+61
241404,7.043,-2.015,6.922,-0.105608,-0.595626,0.403849,100132.24,+46,-191,+61
241415,7.323,-1.563,5.735,-0.384966,-0.546672,-0.018646,100132.20,+46,-192,+60
241424,7.952,-1.455,4.132,-0.446691,-0.545608,-0.187857,100132.20,+44,-193,+59
241434,8.540,-1.708,2.992,-0.392416,-0.541883,-0.204353,100136.77,+42,-194,+58
241444,8.926,-1.328,3.007,-0.192874,-0.518470,-0.139435,100133.37,+42,-194,+58
241455,8.815,-1.161,3.503,0.013052,-0.493461,-0.027160,100133.68,+40,-194,+57
241465,8.810,-1.423,3.988,0.083823,-0.450892,0.013280,100133.77,+39,-194,+56
241474,8.564,-1.554,5.115,0.116813,-0.473773,-0.045784,100133.77,+39,-194,+57
241484,8.598,-1.116,4.794,0.164703,-0.594562,-0.143160,100137.38,+39,-194,+57
241495,8.795,-0.846,4.836,0.099786,-0.551993,-0.262885,100134.95,+35,-192,+57
241505,9.259,-0.278,4.659,-0.004508,-0.521663,-0.307582,100132.55,+33,-193,+56
241514,9.109,-0.432,4.292,-0.156159,-0.468452,-0.254371,100133.17,+32,-192,+56
241524,9.145,-0.432,4.552,-0.100819,-0.516874,-0.230958,100133.17,+32,-192,+56
241534,9.107,-0.592,3.769,0.201419,-0.726525,-0.190518,100134.98,+30,-193,+55
241545,9.166,-0.801,3.503,0.096061,-0.640323,-0.133582,100132.36,+28,-192,+55
241554,9.398,-0.106,3.609,-0.246085,-0.486543,-0.072390,100134.41,+26,-193,+55
241564,9.546,0.058,3.450,-0.408911,-0.389699,0.051060,100132.52,+26,-193,+55
241574,9.428,-0.263,3.542,-0.412636,-0.316268,0.169720,100132.52,+26,-194,+54
241585,9.199,-0.530,3.730,-0.456801,-0.275828,0.221867,100134.84,+26,-194,+51
241595,8.942,-1.265,3.654,-0.446691,-0.281149,0.243152,100132.88,+26,-196,+50
241604,8.920,-1.097,3.482,-0.484471,-0.249222,0.237830,100136.51,+26,-197,+49
241614,9.010,-0.579,3.831,-0.477553,-0.222617,0.216014,100133.57,+26,-197,+49
241625,9.064,-0.927,3.664,-0.447755,-0.219956,0.234106,100133.57,+26,-198,+48
241630,8.962,-1.292,3.330,-0.447755,-0.215167,0.251665,100137.04,+26,-198,+48
241639,8.922,-1.279,3.226,-0.455205,-0.204525,0.232509,100137.04,+26,-199,+46
241649,8.887,-1.758,3.004,-0.439773,-0.203993,0.190473,100131.54,+26,-201,+45
241659,9.010,-1.314,2.807,-0.446691,-0.188030,0.146308,100131.48,+26,-202,+44
241670,9.114,-1.066,2.821,-0.400929,-0.166745,0.117574,100132.70,+26,-202,+44
241680,9.211,-2.425,3.074,-0.401462,-0.144929,0.079794,100138.22,+27,-203,+43
241690,9.123,-2.611,3.092,-0.494581,-0.142801,-0.025032,100134.28,+26,-204,+41
241699,9.178,-1.861,3.338,-0.546195,-0.125773,-0.111234,100135.53,+24,-205,+40
241710,9.524,-1.129,3.732,-0.534489,-0.119920,-0.106445,100135.53,+24,-205,+40
241720,9.756,-0.771,3.724,-0.618562,-0.115663,-0.038335,100134.38,+26,-205,+38
241729,9.707,-1.161,3.578,-0.725516,-0.102892,0.039886,100134.38,+25,-207,+37
241739,9.563,-1.310,3.712,-0.821828,-0.043828,0.054253,100136.94,+24,-209,+35
241750,9.582,-2.553,3.950,-0.936232,-0.007113,0.076069,100134.94,+24,-209,+35
241760,9.781,-2.878,3.779,-1.160782,-0.017755,0.054785,100131.78,+24,-211,+32
241770,10.058,-2.835,3.241,-1.500268,-0.010305,-0.010665,100131.20,+25,-214,+28
241779,10.570,-2.198,2.682,-1.813149,0.057805,-0.003747,100131.20,+25,-217,+23
241789,11.271,-0.754,3.368,-2.020139,0.180190,0.085647,100134.59,+26,-217,+23
241800,11.941,0.427,4.377,-2.163277,0.140814,0.253262,100136.99,+26,-220,+18
241810,12.228,1.375,5.452,-2.445827,0.164227,0.361280,100131.43,+28,-225,+11
241819,13.998,2.536,3.821,-2.739552,0.229144,0.483665,100131.43,+28,-230,+3
241829,16.781,2.973,0.683,-2.969423,0.231273,0.604986,100131.43,+32,-230,+3
241840,16.504,0.960,1.963,-2.633130,0.098777,0.682142,100135.98,+32,-234,-3
241850,13.807,-1.138,3.088,-2.409644,0.339291,0.493243,100134.83,+33,-239,-11
241859,11.050,-2.829,3.604,-2.789570,0.362172,0.314454,100135.05,+36,-242,-18
241865,10.155,-3.471,3.979,-3.176414,0.304172,0.216546,100132.84,+36,-242,-18
241874,7.868,-2.057,4.641,-3.439808,0.383988,0.217610,100132.84,+35,-246,-29
241885,7.660,-2.194,2.456,-3.075845,0.639401,0.931169,100132.23,+39,-250,-38
241895,8.380,-4.509,3.315,-3.255698,0.779346,0.303812,100133.91,+39,-250,-38
241904,7.898,-0.841,3.506,-3.538249,0.787327,0.200051,100134.44,+41,-252,-48
241914,8.546,1.650,4.406,-3.485570,0.826171,0.047335,100134.02,+42,-255,-58
241925,8.298,2.436,1.553,-3.213661,1.034758,-0.372499,100134.02,+41,-257,-68
241935,7.492,-2.062,-2.860,-3.342432,1.133199,-0.535857,100133.92,+41,-257,-68
241944,6.429,-3.343,-1.309,-3.798450,0.857566,-0.624187,100133.92,+40,-257,-79
241954,7.825,0.843,-1.721,-4.030982,0.956006,-0.569380,100136.23,+39,-258,-92
241965,8.221,2.281,-3.536,-3.854322,0.891089,-0.569380,100133.77,+36,-258,-104
241975,7.744,1.101,-4.426,-3.438212,0.767107,-0.547031,100133.77,+36,-258,-104
241980,7.509,0.278,-4.368,-3.207276,0.688355,-0.547564,100134.01,+35,-257,-113
241989,7.570,-0.527,-3.712,-3.089148,0.619713,-0.569912,100134.01,+33,-256,-123
241999,7.717,-1.990,-2.738,-2.923130,0.543621,-0.711453,100137.27,+33,-256,-123
242010,7.752,-1.967,-2.237,-2.706561,0.439328,-1.020609,100132.54,+29,-254,-132
242020,8.327,0.525,-2.607,-2.526176,0.368557,-1.200994,100133.07,+25,-252,-139
242030,9.060,1.611,-2.802,-2.383038,0.304172,-1.249416,100136.04,+21,-249,-147
242039,9.038,1.424,-2.622,-2.164873,0.238722,-1.264315,100134.30,+21,-249,-147
242050,9.098,1.279,-2.197,-1.947772,0.191897,-1.231857,100131.21,+18,-247,-153
242060,9.731,1.079,-1.856,-1.739717,0.139750,-1.201527,100131.21,+13,-244,-158
242070,10.241,-0.234,-1.516,-1.527406,0.092924,-1.296242,100130.68,+8,-241,-162
242079,10.167,-1.321,-1.309,-1.394378,0.030135,-1.502169,100130.68,+8,-241,-162
242089,10.173,-1.244,-1.122,-1.362984,-0.019351,-1.654352,100129.97,+3,-238,-167
242100,10.439,-0.554,-1.018,-1.411406,-0.062984,-1.767691,100132.59,+0,-236,-171
242110,10.814,-0.188,-1.260,-1.433754,-0.105553,-1.843251,100131.55,-7,-231,-175
242120,11.034,-0.520,-1.053,-1.449718,-0.141204,-1.931581,100133.02,-7,-231,-175
242129,11.081,-0.525,-0.839,-1.509314,-0.177920,-1.991709,100133.02,-12,-227,-181
242140,11.066,-0.096,-0.520,-1.568378,-0.185369,-1.999691,100136.05,-17,-223,-185
242150,10.996,0.465,-0.367,-1.562525,-0.175791,-1.965104,100134.16,-24,-218,-190
242160,10.912,0.756,-0.347,-1.639149,-0.161956,-1.920939,100132.00,-24,-218,-190
242169,10.997,0.447,-0.397,-1.671607,-0.144929,-1.895398,100132.00,-28,-214,-195
242180,10.755,-0.771,0.117,-1.606690,-0.120452,-1.935838,100132.00,-34,-208,-200
242190,10.436,-1.873,0.679,-1.499736,-0.147057,-2.047581,100134.58,-40,-202,-204
242200,10.466,-1.103,0.769,-1.449186,-0.163553,-2.147618,100136.78,-40,-202,-204
242209,10.815,0.377,0.442,-1.502397,-0.142268,-2.174223,100135.20,-44,-197,-208
242220,10.890,1.030,-0.035,-1.559332,-0.113534,-2.121544,100135.78,-51,-191,-212
242230,10.782,1.007,0.014,-1.522617,-0.114067,-2.053434,100135.78,-55,-184,-216
242240,10.805,0.755,0.304,-1.498672,-0.115663,-2.018847,100135.88,-55,-184,-216
242250,10.497,0.441,0.621,-1.491222,-0.111406,-2.000223,100133.83,-60,-178,-219
242259,9.861,0.017,0.994,-1.436947,-0.113002,-1.916150,100132.64,-64,-172,-223
242270,9.540,-0.592,1.572,-1.289553,-0.097039,-1.823563,100132.64,-68,-164,-226
242280,9.607,-1.873,2.236,-1.039461,-0.107149,-1.840058,100136.48,-72,-159,-229
242290,9.833,-3.392,2.738,-0.838324,-0.094379,-2.003948,100135.55,-72,-159,-229
242299,10.795,-3.109,2.063,-0.682948,-0.101828,-2.119416,100135.55,-76,-154,-231
242310,11.261,-1.255,1.557,-0.711681,-0.109278,-2.041728,100135.17,-80,-147,-232
242320,10.589,-0.587,2.027,-0.806397,-0.102360,-1.935306,100135.44,-84,-141,-234
242330,9.738,-1.600,2.695,-0.762232,-0.075755,-1.817710,100135.44,-84,-141,-234
242339,8.968,-2.959,3.697,-0.644104,-0.026268,-1.696921,100134.54,-86,-136,-236
242350,8.398,-3.605,3.783,-0.512140,0.117933,-1.664994,100134.59,-90,-131,-237
242360,7.988,-4.279,3.834,-0.687737,0.158906,-1.575068,100136.68,-93,-125,-237
242370,7.922,-5.973,4.699,-0.680819,0.236594,-1.286132,100134.48,-93,-125,-237
242380,8.213,-8.817,5.142,-0.662727,0.372282,-0.918976,100136.27,-94,-121,-237
242390,8.164,-11.550,5.611,-0.607920,0.399419,-0.600242,100136.00,-97,-119,-239
242400,7.973,-13.011,6.294,-0.417425,0.361107,-0.265545,100134.02,-98,-117,-237
242410,10.153,-12.314,7.338,0.002942,0.399951,0.172913,100134.02,-98,-117,-237
242420,9.181,-11.766,5.420,0.388189,0.457419,0.687463,100134.17,-99,-119,-236
242429,5.258,-9.416,2.880,0.467474,0.208392,1.140821,100134.17,-97,-123,-235
242440,9.315,-1.533,-0.667,0.395107,-0.135351,2.040086,100134.42,-93,-129,-234
242450,16.099,11.749,-4.852,0.505786,-0.146525,2.066692,100134.20,-93,-129,-234
242460,20.615,19.555,-5.803,-0.281737,0.328649,2.022527,100138.56,-89,-134,-234
242470,17.129,4.371,-1.011,-0.113590,0.610667,1.990600,100137.47,-87,-139,-233
242480,13.806,-13.507,8.239,1.648225,0.633016,2.273150,100137.47,-84,-149,-227
242490,13.091,-13.522,3.982,2.434684,0.528722,3.014379,100135.78,-84,-149,-227
242500,7.678,-1.748,2.649,0.813345,0.819786,1.654839,100137.56,-80,-157,-222
242510,9.824,4.331,2.847,0.684042,0.829896,1.361114,100135.47,-79,-162,-219
242520,8.996,3.943,4.426,1.278941,0.663346,1.940050,100135.47,-76,-168,-215
242530,8.414,0.138,5.995,1.524244,0.481896,2.157150,100135.47,-76,-168,-215
242540,8.865,-2.883,3.763,1.096960,0.398887,1.835224,100135.74,-72,-176,-211
242550,10.485,-4.989,1.305,0.544098,0.460080,1.699536,100134.54,-68,-180,-208
242560,9.569,-3.579,1.780,0.270061,0.523401,1.584068,100136.43,-65,-184,-207
242570,9.459,-2.683,2.222,0.090208,0.563841,1.274380,100137.52,-65,-184,-207
242580,9.074,-2.353,1.960,-0.096563,0.584061,1.101445,100137.52,-63,-186,-206
242590,9.557,-1.854,1.905,0.011456,0.544685,1.009390,100138.58,-61,-189,-204
242600,10.114,-1.010,1.596,0.259419,0.469126,1.053023,100139.89,-60,-192,-203
242610,9.963,-1.254,2.025,0.487162,0.431878,1.201481,100136.66,-60,-192,-203
242620,9.698,-1.518,2.539,0.674464,0.379731,1.258417,100136.66,-56,-194,-202
242630,9.410,-1.202,3.053,0.745235,0.350465,1.252032,100137.94,-54,-198,-198
242640,9.027,-1.621,3.311,0.702666,0.349401,1.194032,100135.84,-51,-202,-195
242650,8.798,-2.130,3.436,0.551547,0.375474,1.068454,100135.84,-51,-202,-195
242660,8.755,-1.981,3.521,0.345621,0.411126,0.868913,100136.05,-49,-204,-194
242670,9.066,-1.917,3.215,0.107235,0.454227,0.727371,100135.48,-48,-206,-192
242680,8.999,-2.155,2.752,-0.119975,0.510098,0.649683,100135.48,-46,-207,-192
242685,9.113,-1.967,2.365,-0.241296,0.552135,0.581573,100139.40,-46,-207,-192
242695,9.312,-1.726,2.155,-0.265241,0.578208,0.545922,100135.21,-45,-208,-191
242705,9.381,-1.705,2.205,-0.256196,0.605878,0.583702,100134.79,-44,-208,-192
242715,9.162,-2.012,2.191,-0.250342,0.623438,0.650216,100135.79,-44,-208,-192
242725,9.227,-1.757,2.211,-0.214691,0.638869,0.698105,100135.79,-43,-209,-191
242735,9.502,-1.569,3.218,-0.107205,0.653236,0.740142,100134.63,-42,-211,-189
242745,9.063,-1.718,3.815,-0.084324,0.646850,0.777390,100135.62,-42,-212,-189
242755,8.839,-1.875,3.809,-0.234379,0.664942,0.778454,100135.46,-42,-212,-189
242765,8.817,-2.220,3.630,-0.387627,0.676116,0.716197,100134.21,-39,-213,-189
242775,8.662,-2.718,3.270,-0.483406,0.696337,0.631592,100134.21,-39,-214,-189
242785,9.271,-1.722,3.113,-0.610049,0.747419,0.558693,100138.98,-38,-214,-189
242795,9.736,-0.947,3.670,-0.554709,0.750080,0.585830,100133.42,-38,-214,-189
242805,9.420,-1.996,3.376,-0.491388,0.718685,0.745463,100136.63,-37,-214,-191
242814,9.341,-2.350,3.239,-0.514269,0.760722,0.894986,100136.30,-35,-216,-189
242825,9.548,-1.399,4.680,-0.368471,0.757529,1.002472,100136.30,-33,-216,-190
242835,9.477,-2.099,4.501,-0.359425,0.680373,1.156252,100133.89,-33,-216,-190
242845,9.072,-3.139,3.891,-0.665388,0.775089,1.302582,100135.47,-32,-218,-190
242855,9.162,-3.538,3.888,-0.618562,0.715493,1.252564,100137.67,-28,-219,-190
242865,9.855,-3.670,4.161,-0.822360,0.735713,1.182325,100134.52,-25,-219,-192
242875,9.811,-3.484,4.884,-1.340103,0.840538,1.198821,100134.52,-25,-219,-192
242885,9.622,-4.054,3.709,-1.714176,0.813933,1.201481,100137.73,-21,-219,-195
242895,10.444,-6.216,1.441,-1.799314,0.685694,1.331316,100137.20,-20,-219,-198
242905,10.302,-5.140,0.840,-1.750360,0.162098,1.434545,100137.09,-14,-218,-204
242915,9.384,-3.874,2.181,-1.610415,-0.267314,1.364307,100137.55,-14,-218,-204
242921,9.403,-5.128,3.390,-1.251241,0.113676,1.310564,100137.55,-11,-218,-207
242930,10.690,-5.675,3.151,-0.936764,0.605878,1.385059,100137.55,-7,-218,-210
242940,11.401,-3.707,3.341,-0.854287,0.445181,1.496802,100138.53,-7,-218,-210
242951,10.577,-3.479,3.603,-0.855883,0.336098,1.709114,100135.97,-3,-219,-212
242960,10.685,-4.548,3.578,-1.038397,0.398355,1.769242,100139.22,+1,-219,-213
242970,11.435,-4.183,3.675,-1.141626,0.448906,1.770306,100137.48,+5,-219,-216
242980,11.388,-4.672,3.144,-1.183131,0.591511,1.878325,100137.63,+5,-219,-216
242991,11.910,-4.468,2.683,-1.294342,0.672924,1.985279,100136.32,+11,-221,-220
243000,12.691,-3.707,2.734,-1.333186,0.679841,2.103407,100136.32,+16,-219,-222
243010,12.640,-4.186,2.202,-1.343296,0.683034,2.216747,100136.05,+21,-219,-226
243020,12.419,-4.925,1.428,-1.527406,0.792116,2.247609,100134.63,+21,-219,-226
243030,13.313,-5.305,0.636,-2.002048,0.918758,2.180563,100134.63,+26,-218,-229
243040,15.266,-3.609,1.100,-2.621955,0.981015,1.988472,100138.58,+32,-215,-237
243050,17.140,-0.445,1.823,-2.942818,0.851180,1.851719,100138.27,+36,-210,-242
243060,20.792,1.766,0.578,-2.911423,0.809144,1.616527,100135.22,+36,-210,-242
243070,21.247,3.102,-0.953,-2.917276,0.810208,1.256289,100135.02,+39,-205,-251
243081,19.888,3.089,-0.028,-2.734231,0.536172,1.448912,100135.44,+42,-200,-258
243090,17.592,1.483,2.766,-2.148378,0.282887,1.685169,100138.33,+45,-195,-264
243100,15.971,-1.468,4.571,-1.752488,0.166355,1.667077,100137.91,+45,-195,-264
243110,17.810,-4.298,8.190,-1.695020,0.465401,1.542031,100133.13,+49,-192,-268
243120,21.101,-8.735,12.455,-0.589296,1.343914,2.124160,100133.13,+52,-190,-269
243130,20.756,-9.759,10.892,0.859106,1.189070,2.933498,100133.13,+58,-195,-266
243140,15.834,-4.650,6.544,0.742574,-0.255608,2.952654,100135.29,+58,-195,-266
243150,11.081,-0.136,4.959,-0.071021,-1.275662,2.042747,100136.51,+66,-196,-266
243161,8.742,2.316,3.149,-0.088581,-1.067607,1.314821,100133.93,+73,-196,-267
243170,8.594,4.672,2.559,-0.013554,-0.343938,1.242986,100137.45,+78,-196,-266
243180,3.689,5.020,4.824,-0.322177,-0.158764,1.770839,100137.45,+78,-196,-266
243190,1.054,1.491,5.945,-0.995296,-1.319295,0.970546,100134.48,+83,-195,-268
243201,2.300,-0.080,5.392,-0.188086,-1.507662,-0.346426,100132.32,+89,-192,-271
243211,3.293,0.257,4.201,0.805896,-1.145827,-1.211637,100132.07,+88,-195,-269
243220,4.788,1.096,1.479,0.721290,-0.879773,-1.523985,100132.07,+84,-196,-267
243230,5.322,2.246,-4.182,-0.106673,-0.653094,-1.445233,100132.07,+84,-196,-267
243240,3.752,3.400,-3.917,-0.827681,-1.046323,-1.358499,100136.73,+84,-195,-269
243250,2.698,3.976,-1.623,-0.457333,-0.830818,-1.478224,100134.95,+82,-193,-271
243260,2.620,4.080,-0.871,-0.277480,-0.896800,-1.948076,100135.95,+78,-192,-271
243270,3.502,3.687,0.300,-0.096031,-0.922873,-2.343434,100133.48,+78,-192,-271
243280,4.199,2.427,1.613,0.176942,-0.922873,-2.671746,100133.48,+74,-191,-271
243291,4.561,0.815,3.003,0.517492,-0.917020,-2.952168,100132.46,+69,-192,-270
243301,5.290,0.190,3.764,0.822391,-0.905846,-3.223011,100131.04,+62,-192,-269
243310,6.438,0.189,3.609,0.818666,-0.898928,-3.538553,100127.79,+62,-192,-269
243320,8.197,0.216,3.184,0.551015,-0.826562,-3.884956,100128.94,+54,-192,-268
243331,9.945,0.817,2.613,0.618593,-0.712690,-4.210607,100133.81,+45,-192,-267
243341,7.550,2.489,2.713,0.654244,-0.704708,-4.414937,100129.56,+34,-190,-267
243350,7.618,2.007,3.345,0.704795,-0.690874,-4.477726,100129.56,+34,-190,-267
243360,9.568,0.519,3.575,0.753217,-0.733442,-4.639487,100131.19,+24,-188,-266
243371,11.374,-1.497,3.764,0.804299,-0.711094,-4.786350,100130.30,+13,-186,-265
243380,12.295,-2.918,4.122,0.981492,-0.624892,-4.892772,100130.30,+1,-182,-263
243390,12.713,-3.572,3.924,1.291712,-0.570085,-5.076881,100131.38,+1,-182,-263
243400,13.303,-3.679,3.566,1.517858,-0.558378,-5.305157,100132.74,-8,-179,-261
243410,14.021,-3.623,3.813,1.602996,-0.594562,-5.468514,100132.12,-22,-176,-259
243421,14.577,-3.722,4.649,1.532758,-0.646708,-5.504166,100131.96,-33,-170,-257
243430,15.575,-4.131,5.720,1.406647,-0.654158,-5.531303,100131.96,-33,-170,-257
243440,17.235,-4.348,6.897,1.393345,-0.568488,-5.591964,100135.64,-44,-163,-254
243450,18.352,-4.632,7.393,1.463051,-0.443443,-5.603138,100133.81,-56,-156,-252
243461,18.272,-5.273,6.977,1.485932,-0.364690,-5.465322,100133.81,-66,-149,-251
243470,17.759,-7.308,6.321,1.496042,-0.351920,-5.180643,100133.81,-66,-149,-251
243480,17.137,-11.323,4.016,1.342262,-0.414176,-4.874148,100133.81,-76,-141,-249
243490,16.828,-14.420,1.522,1.052794,-0.543479,-4.652790,100135.05,-84,-133,-249
243501,18.085,-15.885,2.024,1.107602,-0.570085,-4.610221,100137.57,-90,-124,-248
243506,18.280,-15.396,4.874,1.419950,-0.534433,-4.468148,100138.46,-90,-124,-248
243515,16.277,-15.125,7.959,1.932372,-0.443975,-3.958919,100133.48,-96,-118,-246
243525,12.361,-17.062,10.378,1.989308,-0.147057,-3.124571,100133.48,-101,-114,-244
243535,7.692,-22.054,11.094,0.991070,0.531915,-2.068865,100137.70,-101,-114,-244
243546,2.650,-28.051,12.874,0.119474,0.713896,0.023390,100134.55,-104,-113,-241
243555,1.043,-33.556,9.354,0.670740,-0.003920,1.582472,100135.97,-102,-117,-239
243565,9.754,-26.022,6.355,0.868152,0.105695,1.070050,100136.59,-101,-121,-237
243575,13.514,-17.891,9.604,0.500464,0.629823,0.720986,100136.59,-101,-121,-237
243586,8.330,-18.216,6.797,0.461088,0.405805,2.725444,100134.35,-99,-127,-235
243596,9.774,-6.315,-2.620,0.676593,-0.022012,3.109627,100136.88,-94,-137,-233
243605,17.970,14.559,-11.919,0.467474,-0.496121,2.818031,100137.13,-87,-145,-234
243615,28.790,28.007,-11.806,-0.226397,0.353658,3.271920,100138.62,-87,-145,-234
243625,27.641,-8.012,0.183,0.838354,1.216740,4.348911,100138.62,-83,-152,-231
243636,16.905,-20.254,12.142,3.996426,0.784667,6.248542,100136.13,-71,-172,-221
243645,6.842,-15.569,8.649,4.124132,0.691548,5.019901,100135.66,-60,-190,-211
243655,5.661,-5.240,2.791,1.773271,0.887896,3.346416,100134.19,-60,-190,-211
243665,8.707,-0.994,0.333,1.174116,1.066685,2.813774,100137.39,-55,-199,-206
243676,9.273,-4.917,4.134,1.666849,1.023052,3.367168,100137.39,-48,-207,-200
243686,6.339,-7.047,6.408,1.513069,0.807015,3.057480,100138.52,-40,-215,-195
243695,7.553,-5.362,2.740,0.531859,0.785731,2.101811,100137.94,-40,-215,-195
243705,8.898,-4.310,1.073,-0.278012,1.046465,1.519151,100140.25,-37,-217,-193
243716,9.302,-1.838,1.966,-0.232783,1.107657,1.159977,100138.52,-34,-219,-192
243726,9.862,-1.023,2.224,-0.169994,1.013474,1.014711,100138.52,-33,-221,-191
243735,9.052,-1.316,1.611,-0.013554,0.877254,1.082821,100139.83,-33,-221,-191
243741,9.051,-3.354,1.419,0.160978,0.770300,1.096656,100136.00,-30,-222,-189
243750,9.071,-3.518,2.136,0.375419,0.694208,1.074839,100136.00,-28,-225,-187
243761,8.694,-3.166,2.843,0.539841,0.592043,0.982252,100138.56,-28,-225,-187
243771,9.038,-4.099,2.786,0.474391,0.563841,0.873702,100135.36,-26,-227,-184
243780,9.279,-3.619,2.870,0.328061,0.607474,0.690656,100135.36,-24,-228,-183
243790,9.206,-2.923,3.730,0.159914,0.690483,0.521445,100139.20,-24,-229,-182
243801,9.161,-1.945,4.797,-0.142856,0.787327,0.301684,100139.12,-24,-229,-182
243811,9.272,-1.594,4.771,-0.543003,0.871933,0.112253,100135.24,-23,-229,-180
243820,9.463,-1.659,3.669,-0.873975,0.916098,0.025519,100135.24,-25,-229,-182
243830,9.695,-2.051,2.519,-0.988911,0.948024,0.049464,100135.24,-26,-227,-184
243841,9.898,-1.984,2.203,-0.908030,0.921419,0.196858,100139.59,-26,-227,-184
243851,9.543,-2.221,2.266,-0.710617,0.811272,0.428326,100138.02,-26,-226,-185
243860,9.306,-2.633,2.831,-0.525443,0.730924,0.577316,100139.53,-25,-226,-185
243870,9.216,-2.437,4.000,-0.560562,0.724538,0.645427,100137.55,-24,-227,-187
243880,9.453,-2.164,4.453,-0.884617,0.712832,0.725243,100137.55,-24,-227,-187
243891,9.502,-2.297,4.302,-1.347021,0.708575,0.840711,100138.61,-22,-228,-189
243901,9.703,-3.988,3.835,-1.773772,0.730392,1.040252,100138.27,-19,-226,-193
243910,10.098,-5.212,2.756,-2.648029,0.419639,2.053389,100139.14,-14,-225,-200
243920,8.282,-3.429,2.489,-2.385699,-0.089057,2.123627,100139.14,-14,-225,-200
243931,7.882,-1.524,2.991,-1.161314,0.427621,1.728270,100138.79,-6,-226,-205
243941,9.242,-2.194,2.742,-1.008599,0.555860,1.421775,100138.79,-3,-226,-206
243950,8.987,-3.339,2.139,-0.794159,0.444117,1.071646,100138.12,+0,-225,-209
243960,9.120,-3.442,3.033,-0.613241,0.289805,1.000876,100141.73,+0,-225,-209
243971,8.930,-4.089,3.051,-0.573333,0.327052,1.083353,100138.59,+1,-226,-209
243976,9.396,-4.465,2.904,-0.514801,0.370153,1.130711,100138.59,+4,-227,-211
243986,9.087,-4.290,2.959,-0.503627,0.372814,1.136564,100138.68,+4,-227,-211
243995,10.135,-6.289,2.573,-0.687737,0.308961,1.716563,100136.79,+8,-227,-213
244005,7.200,-2.489,3.230,-0.281205,0.496263,1.534582,100138.93,+13,-229,-212
244016,8.934,-4.165,3.094,-0.787773,0.481364,0.781647,100138.41,+14,-229,-215
244026,10.583,-5.567,2.307,-0.397737,0.755401,0.915206,100138.41,+14,-229,-215
244035,10.040,-4.870,1.888,-0.192874,0.762850,1.187646,100138.77,+16,-229,-214
244045,10.271,-5.397,1.622,-0.273223,0.688355,1.409536,100138.34,+20,-230,-214
244056,10.764,-5.256,1.554,-0.183829,0.654300,1.751683,100138.66,+24,-231,-214
244066,10.406,-4.381,2.346,-0.272691,0.594704,2.066159,100138.66,+24,-231,-214
244075,11.358,-3.926,2.803,-0.771278,0.379731,2.109260,100138.66,+30,-232,-214
244085,12.136,-3.435,2.883,-0.671241,0.420704,2.288581,100139.73,+37,-232,-217
244096,12.082,-3.319,2.597,-0.427003,0.489878,2.448214,100140.05,+45,-233,-219
244106,12.270,-4.749,2.009,-0.358893,0.617584,2.409370,100139.00,+45,-233,-219
244116,12.946,-5.164,1.774,-0.351443,0.755401,2.462581,100138.42,+51,-234,-219
244125,14.030,-5.259,2.042,-0.511076,0.867144,2.570600,100138.42,+58,-235,-219
244135,14.907,-5.443,2.052,-0.868654,0.984740,2.672765,100141.07,+65,-234,-222
244146,16.539,-4.812,1.407,-1.450782,1.183749,2.682343,100140.96,+65,-234,-222
244156,19.672,-3.433,1.350,-2.160616,1.344978,2.463645,100140.71,+72,-231,-227
244165,20.895,-1.498,1.947,-2.879497,1.312520,1.894288,100137.13,+77,-226,-235
244175,21.622,1.648,1.790,-3.344028,1.112978,1.502655,100137.13,+80,-219,-244
244186,20.841,3.615,1.571,-3.369038,1.201309,1.419646,100140.93,+80,-219,-244
244196,18.629,2.419,3.671,-2.766689,1.023584,1.817664,100138.26,+83,-212,-253
244206,17.219,-2.048,6.078,-2.200525,0.844795,2.364673,100137.93,+88,-208,-259
244211,18.340,-6.378,8.753,-2.072818,1.090630,2.433315,100135.10,+88,-208,-259
244220,20.693,-10.163,12.020,-1.861571,1.474813,1.926747,100135.10,+92,-202,-263
244231,19.859,-11.757,10.478,-0.985186,1.168850,1.394105,100135.10,+94,-200,-267
244241,17.858,-6.732,5.943,-0.753186,0.102502,0.872637,100136.77,+96,-198,-268
244251,14.049,-0.216,3.811,-0.599406,-0.763241,0.593280,100136.10,+96,-198,-268
244260,12.072,3.780,0.979,-0.224269,-0.414709,0.437904,100136.41,+100,-197,-268
244271,9.125,6.574,1.872,0.137034,0.849584,1.479775,100136.41,+103,-197,-268
244281,1.940,3.124,8.037,-0.892599,-0.264122,1.804362,100136.48,+108,-194,-270
244291,-0.137,0.118,7.226,-0.621755,-0.950543,0.143647,100136.48,+108,-194,-270
244300,1.619,-0.631,4.976,0.709052,-0.708433,-1.214297,100138.95,+110,-194,-268
244311,4.265,-0.214,3.630,1.037895,-0.846782,-1.864535,100135.27,+106,-198,-265
244321,6.117,3.057,-4.605,-0.010893,-1.025039,-2.001819,100136.22,+105,-198,-266
244331,3.438,5.222,-4.759,-1.314030,-0.666396,-1.619765,100136.22,+105,-198,-266
244341,1.476,5.147,-1.572,-1.043186,-0.413112,-1.549526,100137.06,+101,-195,-268
244350,1.326,5.708,-1.097,-0.689865,-0.461534,-2.080572,100139.38,+97,-192,-269
244361,2.892,5.175,-0.263,-0.313131,-0.455681,-2.561067,100136.39,+92,-193,-269
244371,3.793,3.415,1.198,0.118410,-0.442378,-2.919709,100132.56,+92,-193,-269
244381,4.383,1.179,2.378,0.435547,-0.450360,-3.180443,100136.50,+85,-193,-268
244390,6.725,-1.298,2.625,0.647327,-0.306690,-3.274626,100134.08,+78,-194,-266
244401,7.035,-0.227,2.000,0.491951,-0.297112,-3.578993,100134.30,+69,-195,-264
244411,6.270,1.074,1.285,0.296666,-0.251351,-4.022240,100134.30,+69,-195,-264
244421,6.227,1.967,0.736,0.222171,-0.208250,-4.396845,100133.08,+58,-194,-263
244430,7.027,2.228,0.521,0.255162,-0.206122,-4.654919,100133.08,+48,-192,-261
244441,8.336,1.593,0.749,0.366905,-0.213039,-4.815084,100136.30,+35,-190,-259
244451,9.708,0.632,1.061,0.472795,-0.210378,-4.983230,100136.19,+35,-190,-259
244461,10.854,-0.330,0.994,0.579217,-0.212507,-5.196606,100136.25,+23,-186,-258
244471,11.820,-1.862,0.860,0.709584,-0.175259,-5.407322,100133.52,+10,-182,-256
244481,12.536,-3.328,0.767,0.845804,-0.124709,-5.596220,100133.52,-1,-179,-252
244491,13.485,-4.213,0.617,1.005437,-0.113534,-5.787780,100135.88,-1,-179,-252
244501,15.254,-4.433,0.939,1.112391,-0.191223,-5.954863,100135.64,-16,-173,-249
244511,17.689,-4.030,2.032,1.218813,-0.337553,-6.125138,100133.91,-28,-167,-246
244520,19.930,-4.329,3.173,1.365675,-0.499846,-6.308184,100133.91,-42,-161,-242
244531,20.883,-5.911,4.270,1.591290,-0.627020,-6.397578,100133.91,-42,-161,-242
244541,20.112,-9.002,4.358,1.575858,-0.747809,-6.291156,100139.64,-55,-153,-239
244551,20.063,-11.547,4.808,1.480611,-0.847314,-6.057560,100135.17,-66,-144,-237
244560,20.247,-14.040,4.832,1.466244,-0.971295,-5.663267,100137.17,-76,-135,-235
244571,20.107,-16.181,4.805,1.492317,-1.047387,-5.016221,100135.55,-83,-135,-235
244581,19.237,-17.575,5.916,1.839253,-0.980873,-4.328203,100135.55,-83,-127,-234
244591,17.022,-17.685,9.580,2.360188,-0.793571,-3.387965,100136.62,-89,-122,-231
244601,13.012,-19.485,11.970,2.835362,-0.736635,-2.019911,100135.52,-92,-123,-229
244611,7.317,-20.603,13.232,2.934867,-0.526984,-0.254371,100136.77,-90,-129,-223
244621,1.798,-26.362,13.493,2.905069,-0.411516,1.973572,100136.77,-90,-129,-223
244631,-1.450,-36.911,10.097,2.172354,-0.142268,3.791791,100141.70,-85,-141,-219
244640,-1.717,-37.351,11.520,0.787272,0.658557,3.028214,100141.70,-80,-150,-215
244651,12.591,-23.902,13.047,0.591455,0.723474,0.869445,100139.50,-81,-153,-212
244661,8.781,-13.984,9.719,0.853253,0.269585,1.126454,100139.13,-81,-153,-212
244671,5.760,-5.395,-2.622,0.699474,0.001933,2.609444,100140.23,-76,-159,-211
244681,15.862,10.825,-12.705,0.768648,0.119530,1.943242,100140.23,-71,-166,-208
244691,31.857,24.702,-13.588,0.068391,0.407933,1.064197,100145.57,-71,-168,-207
244701,23.768,3.008,-8.174,0.614868,0.669199,2.306141,100143.32,-71,-168,-207
244711,17.440,-19.074,10.168,3.320646,0.837878,5.520084,100145.30,-62,-180,-200
244721,9.005,-17.532,11.923,5.040957,0.851713,5.090139,100136.89,-49,-198,-185
244731,6.519,-7.336,5.464,2.169693,0.968245,2.998948,100140.36,-44,-205,-179
244741,6.760,-2.734,2.001,0.806428,1.284850,2.828673,100140.30,-44,-205,-179
244751,10.103,-8.030,4.420,1.397602,1.142777,3.615663,100140.56,-35,-212,-172
244761,6.224,-7.939,5.916,0.771308,1.113511,3.334177,100140.56,-26,-219,-170
244771,7.613,-7.411,2.944,0.265272,1.043272,2.273682,100137.73,-21,-222,-168
244781,8.558,-6.451,2.196,-0.134342,1.095419,1.826178,100137.73,-21,-222,-168
244791,9.121,-4.594,1.639,-0.011957,1.003896,1.488820,100141.63,-17,-225,-165
244796,9.537,-1.000,2.355,0.020502,0.993786,1.203078,100138.23,-14,-226,-165
244806,10.168,-1.067,2.250,0.015713,0.938979,1.179665,100138.23,-14,-226,-165
244816,9.412,-2.603,1.859,0.018373,0.871401,1.333977,100139.38,-10,-227,-164
244826,9.527,-2.457,2.454,0.173749,0.779346,1.318545,100139.38,-7,-231,-162
244836,8.899,-3.582,2.115,0.168428,0.675584,1.398362,100142.07,-4,-232,-160
244846,8.625,-4.077,2.671,0.194501,0.617052,1.341426,100140.45,-4,-232,-160
244856,8.698,-3.248,3.564,0.263144,0.603749,1.136564,100139.29,-1,-233,-160
244866,8.137,-3.896,3.857,0.126391,0.659089,0.958839,100136.20,+1,-236,-158
244876,8.167,-3.803,3.908,-0.072086,0.723474,0.661390,100136.20,+3,-236,-157
244886,8.770,-2.932,3.748,-0.265774,0.789988,0.398528,100142.63,+3,-236,-157
244896,9.044,-2.774,3.153,-0.398269,0.816593,0.335207,100138.80,+3,-237,-158
244905,9.087,-3.296,2.134,-0.423810,0.797437,0.391610,100137.59,+3,-236,-158
244916,9.009,-3.586,1.732,-0.328562,0.768704,0.467170,100140.38,+4,-237,-159
244926,8.845,-3.741,2.064,-0.096563,0.644190,0.542729,100140.38,+4,-237,-159
244936,8.761,-3.758,2.728,0.079566,0.526594,0.535280,100146.12,+6,-237,-157
244946,9.013,-3.337,3.823,0.084355,0.478704,0.420876,100139.98,+5,-238,-157
244956,8.901,-3.120,4.378,-0.097095,0.447309,0.301684,100141.71,+7,-238,-157
244966,8.828,-3.093,4.151,-0.335480,0.466997,0.200583,100139.40,+7,-238,-157
244976,8.859,-3.015,3.957,-0.479150,0.517548,0.165464,100139.40,+7,-238,-157
244986,9.260,-2.742,3.696,-0.551516,0.554795,0.211225,100141.63,+7,-237,-159
244996,9.390,-2.888,2.957,-0.620159,0.581933,0.362344,100143.69,+9,-238,-159
245006,9.115,-2.889,2.728,-0.666452,0.627694,0.601261,100139.22,+9,-238,-159
245016,9.294,-2.933,3.045,-0.711149,0.660153,0.829004,100139.00,+10,-237,-161
245026,10.292,-2.912,2.954,-0.874507,0.672392,1.162105,100139.00,+13,-239,-163
245031,9.939,-2.681,2.528,-1.174617,0.727731,1.675591,100140.78,+13,-239,-163
245041,9.014,-4.356,2.446,-1.550286,0.756465,2.190673,100140.78,+19,-239,-167
245051,8.864,-5.917,2.297,-1.477387,0.528722,2.169921,100140.98,+26,-239,-171
245061,8.104,-3.227,1.829,-1.086287,0.473383,1.557995,100138.73,+30,-240,-173
245071,12.441,-6.490,2.462,-0.530232,0.570227,1.305775,100141.52,+30,-240,-173
245082,8.256,-3.834,1.736,-0.051865,0.332373,1.435609,100140.36,+35,-240,-173
245091,9.780,-5.403,3.529,0.063602,0.622905,1.206270,100139.84,+37,-241,-174
245101,11.021,-6.209,1.137,-0.431260,0.497328,1.453701,100141.36,+42,-242,-174
245111,9.965,-5.288,1.480,-0.281205,0.353126,1.913444,100141.36,+42,-242,-174
245121,9.969,-6.096,2.882,-0.226930,0.494667,2.461517,100144.56,+50,-243,-175
245131,10.006,-5.189,2.500,-0.512140,0.511694,2.570600,100144.56,+58,-244,-175
245141,10.772,-3.812,2.949,-0.444030,0.523401,2.424269,100142.14,+65,-245,-176
245151,11.453,-4.287,3.221,-0.453608,0.508502,2.356159,100142.72,+65,-245,-176
245161,11.417,-5.265,2.954,-0.651021,0.517016,2.445554,100141.67,+73,-245,-179
245172,11.301,-5.487,2.476,-0.784581,0.663346,2.458324,100140.09,+80,-244,-181
245181,12.119,-5.152,2.057,-0.912819,0.878318,2.275279,100140.09,+87,-244,-183
