110019,9.358,-1.525,2.671,0.032700,0.031588,-0.015707,100010.83,-39,+42,-190
110029,9.335,-1.669,2.672,0.034828,0.029991,-0.010918,100008.80,-39,+43,-193
110040,9.321,-1.742,2.607,0.029507,0.028395,-0.013047,100007.91,-40,+43,-192
110049,9.355,-1.796,2.639,0.017269,0.031055,-0.018368,100007.91,-40,+43,-192
110059,9.440,-1.741,2.628,-0.004548,0.027331,-0.026349,100006.75,-39,+42,-190
110069,9.440,-1.676,2.728,-0.015190,0.028927,-0.034331,100006.75,-39,+44,-193
110080,9.390,-1.661,2.713,-0.013062,0.025202,-0.041248,100011.57,-40,+43,-190
110090,9.309,-1.582,2.675,-0.007209,0.022010,-0.044973,100009.05,-40,+43,-190
110099,9.353,-1.528,2.643,0.005562,0.023074,-0.047634,100008.01,-38,+43,-190
110109,9.348,-1.501,2.601,0.019397,0.025202,-0.047102,100008.99,-40,+44,-193
110119,9.362,-1.503,2.612,0.028975,0.026799,-0.045505,100008.99,-42,+43,-191
110130,9.355,-1.477,2.617,0.038021,0.027863,-0.044973,100009.83,-42,+43,-191
110140,9.378,-1.401,2.671,0.054516,0.028927,-0.040184,100009.36,-39,+43,-189
110149,9.354,-1.461,2.713,0.072076,0.028395,-0.034331,100008.88,-40,+44,-193
110159,9.364,-1.547,2.733,0.082186,0.023074,-0.027946,100008.88,-41,+43,-190
110170,9.386,-1.560,2.743,0.079525,0.019349,-0.023689,100008.88,-41,+43,-190
110179,9.396,-1.582,2.769,0.066755,0.018285,-0.018900,100008.98,-39,+43,-189
110189,9.392,-1.556,2.819,0.052388,0.012964,-0.015175,100009.45,-39,+43,-193
110199,9.334,-1.536,2.775,0.041746,0.010303,-0.009854,100008.55,-41,+43,-190
110210,9.333,-1.545,2.660,0.041213,0.008707,-0.007726,100009.49,-39,+43,-190
110219,9.315,-1.518,2.667,0.043874,0.010835,-0.004001,100009.49,-39,+43,-189
110229,9.419,-1.418,2.679,0.051856,0.009771,-0.003469,100008.75,-40,+43,-193
110239,9.385,-1.358,2.730,0.060902,0.011367,0.003981,100008.33,-40,+43,-190
110249,9.354,-1.412,2.739,0.063562,0.007111,0.007706,100005.42,-39,+43,-190
110260,9.364,-1.457,2.749,0.060369,-0.020559,0.006641,100005.42,-39,+43,-190
110270,9.432,-1.537,2.756,0.068351,-0.032798,0.005045,100009.60,-40,+45,-194
110279,9.461,-1.712,2.734,0.056645,-0.042376,-0.003469,100010.65,-40,+42,-190
110289,9.469,-1.932,2.712,0.009287,-0.061000,-0.022625,100010.65,-38,+41,-190
110300,9.354,-1.752,2.680,-0.026897,-0.051422,-0.029010,100011.85,-38,+41,-190
110309,9.371,-1.746,2.569,-0.052970,-0.032798,-0.034863,100006.62,-40,+44,-193
110319,9.340,-1.698,2.605,-0.065741,-0.018431,-0.040184,100006.62,-40,+42,-189
110329,9.277,-1.409,2.584,-0.062016,-0.007789,-0.036459,100012.18,-39,+43,-192
110340,9.322,-1.334,2.493,-0.034346,0.009771,-0.032203,100013.45,-39,+43,-192
110350,9.340,-1.307,2.550,0.011947,0.028927,-0.025285,100007.68,-40,+45,-193
110359,9.337,-1.288,2.601,0.049195,0.039569,-0.016239,100007.52,-40,+43,-190
110369,9.385,-1.269,2.667,0.068351,0.033716,-0.009854,100008.17,-39,+43,-191
110380,9.537,-1.250,2.787,0.077929,-0.016302,-0.014111,100011.84,-39,+43,-191
110390,9.428,-1.392,2.891,0.102938,-0.074302,-0.023689,100009.11,-40,+43,-192
110399,9.291,-1.576,2.770,0.117837,-0.089201,-0.030606,100009.11,-40,+42,-189
110409,9.419,-2.004,2.625,0.091764,-0.062596,-0.037524,100008.48,-38,+43,-192
110419,9.456,-2.048,2.578,0.026314,-0.049293,-0.038056,100008.48,-38,+43,-192
110430,9.200,-1.610,2.489,-0.022640,-0.035990,-0.040184,100009.94,-40,+43,-193
110440,9.192,-1.236,2.388,-0.006322,-0.013819,-0.047989,100008.89,-39,+42,-190
110449,9.087,-1.078,2.229,0.036957,0.004450,-0.050826,100008.89,-39,+43,-192
110459,8.983,-0.903,2.107,0.116773,0.034248,-0.034863,100004.13,-39,+43,-192
110470,9.141,-0.647,2.379,0.217874,0.047551,-0.012515,100004.13,-40,+43,-193
110480,8.953,-0.832,2.501,0.330681,0.026266,-0.016239,100010.34,-40,+42,-190
110489,8.849,-0.924,2.463,0.491910,0.007111,-0.030606,100008.16,-38,+42,-192
110499,9.321,-1.511,2.618,0.641965,-0.029073,-0.062001,100010.80,-38,+42,-192
110510,9.695,-1.838,2.357,0.696241,-0.051954,-0.083817,100010.80,-40,+43,-195
110520,9.699,-2.382,2.236,0.618020,-0.013642,-0.122661,100010.80,-40,+40,-191
110529,9.084,-2.314,2.651,0.494039,0.043826,-0.161505,100010.21,-38,+41,-193
110539,8.451,-1.651,2.938,0.401452,0.059257,-0.183322,100009.26,-38,+41,-193
110550,8.729,-1.151,3.255,0.434975,0.051808,-0.209927,100007.27,-40,+41,-194
110560,9.340,-0.917,3.540,0.506277,0.057661,-0.231212,100007.74,-40,+39,-190
110569,9.872,-1.488,3.580,0.482332,0.057661,-0.238661,100007.74,-39,+40,-193
110579,10.293,-1.604,3.852,0.351966,0.039037,-0.251964,100011.73,-39,+40,-193
110589,10.223,-1.245,4.082,0.212021,0.011367,-0.256753,100010.75,-40,+41,-194
110600,10.199,-1.486,3.904,0.133801,-0.048761,-0.280698,100008.63,-39,+39,-190
110610,9.943,-1.759,3.587,0.001837,-0.087073,-0.290276,100008.63,-38,+41,-193
110619,9.489,-1.516,3.430,-0.141832,-0.103036,-0.310496,100010.68,-38,+41,-193
110629,9.356,-1.377,3.064,-0.208346,-0.105697,-0.329652,100009.79,-39,+43,-194
110640,9.547,-0.977,2.924,-0.249851,-0.106761,-0.324331,100009.79,-38,+42,-191
110650,9.449,-0.774,2.682,-0.283374,-0.099844,-0.297725,100010.05,-37,+44,-194
110659,9.416,-0.896,2.267,-0.293484,-0.090798,-0.245047,100010.52,-37,+44,-194
110669,9.513,-0.507,2.500,-0.279117,-0.080155,-0.180129,100010.52,-38,+44,-194
110675,9.370,-0.426,2.769,-0.248254,-0.072706,-0.145542,100012.01,-37,+45,-191
110685,9.350,-0.560,2.770,-0.204089,-0.070577,-0.134368,100008.91,-37,+45,-191
110695,9.267,-0.715,2.527,-0.166841,-0.074302,-0.113615,100010.63,-36,+46,-194
110704,9.331,-0.897,2.470,-0.167374,-0.070045,-0.098716,100008.12,-37,+47,-194
110714,9.444,-0.923,2.453,-0.211007,-0.066853,-0.093927,100008.12,-36,+46,-192
110725,9.447,-0.428,2.368,-0.252511,-0.049293,-0.083285,100007.73,-36,+46,-192
110735,9.353,-0.598,1.966,-0.233355,-0.019495,-0.074771,100008.47,-36,+47,-195
110744,9.506,-1.029,1.550,-0.203557,0.017221,-0.066258,100005.89,-37,+47,-195
110754,9.676,-1.303,1.743,-0.195575,0.041166,-0.064129,100008.98,-37,+47,-192
110765,9.437,-1.300,2.118,-0.189722,0.058193,-0.058276,100008.98,-37,+47,-192
110775,9.195,-1.284,2.592,-0.183869,0.059789,-0.065726,100012.41,-36,+49,-195
110785,9.307,-1.137,2.817,-0.150878,0.043826,-0.085946,100009.52,-37,+49,-194
110794,9.445,-1.400,2.764,-0.122144,0.038505,-0.112019,100007.84,-36,+49,-192
110804,9.494,-1.596,2.754,-0.167906,0.028927,-0.140753,100004.33,-36,+49,-192
110815,9.379,-1.414,2.465,-0.273796,0.023606,-0.159909,100004.33,-36,+50,-194
110825,9.349,-0.985,2.288,-0.338713,0.036909,-0.176404,100008.61,-37,+50,-193
110834,9.423,-0.838,2.106,-0.321685,0.072560,-0.181725,100010.91,-36,+50,-191
110844,9.637,-0.772,2.226,-0.301465,0.113532,-0.179597,100010.55,-36,+50,-191
110855,9.740,-0.809,2.476,-0.323282,0.152376,-0.165762,100007.77,-36,+52,-194
110865,9.676,-1.009,2.603,-0.365851,0.177386,-0.141817,100007.77,-38,+54,-192
110874,9.687,-0.540,3.077,-0.429704,0.165679,-0.117872,100007.14,-36,+52,-189
110884,9.553,-0.024,3.410,-0.424915,0.143863,-0.079028,100009.66,-36,+52,-189
110895,9.456,-0.211,3.383,-0.379685,0.104487,-0.025817,100008.81,-36,+55,-192
110905,9.512,-0.586,3.363,-0.317429,0.062450,0.039632,100008.88,-38,+55,-191
110910,9.465,-0.558,3.260,-0.280181,0.020945,0.116256,100008.88,-38,+55,-191
110919,9.585,-0.381,3.473,-0.188658,-0.046633,0.218953,100008.88,-36,+53,-189
110929,10.056,-0.225,3.084,-0.091282,-0.156247,0.283338,100007.05,-37,+54,-193
110940,10.160,-0.598,2.792,-0.124805,-0.244045,0.320586,100008.63,-38,+54,-190
110950,10.314,-0.265,2.570,-0.186530,-0.290339,0.390825,100008.78,-38,+54,-190
110960,10.619,0.153,3.205,-0.293484,-0.274376,0.484476,100007.83,-37,+52,-189
110969,10.945,-0.311,3.539,-0.379153,-0.296192,0.545136,100008.34,-37,+54,-193
110980,10.938,-0.314,3.704,-0.449924,-0.358981,0.615907,100004.98,-38,+52,-192
110990,10.437,0.063,3.946,-0.464291,-0.428155,0.702641,100004.98,-38,+52,-192
111000,10.379,-0.127,3.983,-0.449924,-0.503715,0.776604,100007.34,-36,+50,-191
111009,11.029,-0.783,3.971,-0.550493,-0.575550,0.842586,100006.36,-36,+50,-195
111020,12.325,-0.789,3.934,-0.808566,-0.655366,0.906971,100006.36,-37,+49,-193
111030,14.966,-0.226,3.772,-1.083134,-0.779880,0.962311,100009.06,-37,+49,-193
111040,17.836,1.099,3.866,-1.239575,-0.916632,1.037338,100008.17,-36,+49,-193
111050,19.206,2.184,3.448,-1.259263,-1.012944,1.128861,100005.25,-36,+50,-198
111059,19.197,2.255,2.613,-1.173061,-1.090100,1.228898,100007.23,-38,+47,-197
111070,18.058,1.522,1.637,-1.090584,-1.205568,1.258696,100009.20,-38,+47,-197
111080,16.240,0.631,1.087,-0.978309,-1.305072,1.278916,100006.48,-35,+46,-198
111090,14.289,0.163,0.499,-0.950639,-1.406705,1.226769,100008.46,-36,+47,-204
111099,12.689,-3.435,1.315,-0.637227,-1.330613,1.162916,100007.46,-35,+43,-204
111110,12.546,-7.962,4.868,0.002369,-1.114045,1.313503,100007.46,-35,+43,-204
111120,12.295,-6.625,6.229,0.860130,-0.840540,1.468347,100007.46,-35,+40,-206
111130,12.821,-5.222,2.519,0.959635,-0.917164,1.514640,100009.93,-36,+37,-211
111139,10.670,-8.327,1.100,0.823415,-0.983678,1.654585,100006.63,-37,+31,-210
111145,9.164,-10.226,2.211,0.642497,-0.927274,1.672145,100005.84,-37,+31,-210
111155,8.860,-9.663,3.710,0.357819,-0.843201,1.644475,100006.48,-36,+27,-212
111165,9.930,-7.830,3.785,-0.027961,-0.753274,1.652457,100006.48,-36,+25,-218
111175,10.616,-6.520,2.054,-0.337649,-0.766577,1.726420,100007.99,-36,+25,-218
111184,9.978,-6.089,0.613,-0.534529,-0.822981,1.754090,100007.37,-36,+22,-217
111195,8.668,-5.380,0.206,-0.608493,-0.845329,1.719503,100006.95,-35,+20,-218
111205,7.063,-4.288,-0.012,-0.556346,-0.834155,1.654053,100006.21,-36,+19,-224
111215,5.556,-3.511,-0.537,-0.390328,-0.805421,1.593393,100006.21,-36,+19,-224
111224,4.151,-3.265,-1.004,-0.174291,-0.762852,1.522090,100006.66,-35,+14,-222
111235,2.638,-2.953,-1.135,0.022057,-0.702724,1.409815,100007.55,-34,+13,-225
111245,1.627,-2.597,-1.117,0.151892,-0.640467,1.276787,100004.67,-35,+12,-229
111255,1.075,-2.167,-1.068,0.246076,-0.568632,1.134714,100005.50,-35,+12,-229
111264,0.812,-1.512,-1.075,0.317911,-0.502119,0.994237,100005.50,-35,+7,-227
111275,0.689,-1.183,-1.076,0.361011,-0.436137,0.867063,100009.45,-34,+5,-229
111285,0.438,-1.112,-0.989,0.365800,-0.376541,0.734568,100007.41,-34,+5,-232
111295,0.266,-0.678,-0.683,0.334406,-0.312687,0.585577,100003.00,-34,+5,-232
111305,0.262,-0.049,-0.457,0.285452,-0.245642,0.448292,100004.67,-34,+1,-229
111314,0.184,0.289,-0.343,0.235434,-0.171146,0.316861,100004.67,-33,+1,-231
111325,-0.138,0.458,-0.298,0.168388,-0.092926,0.173724,100007.72,-32,+2,-233
111335,-0.494,0.459,-0.281,0.078461,-0.007789,0.008770,100009.50,-32,+2,-233
111345,-0.608,0.823,-0.231,-0.020511,0.077881,-0.181725,100005.94,-33,+0,-230
111354,-0.528,1.032,-0.297,-0.093942,0.161422,-0.361579,100005.67,-31,+1,-230
111365,-0.597,0.671,-0.394,-0.129594,0.251881,-0.546753,100005.67,-34,+3,-232
111375,-0.570,0.541,-0.227,-0.142364,0.370009,-0.766514,100008.09,-34,+3,-232
111380,-0.102,0.862,-0.006,-0.136511,0.462596,-0.941578,100008.67,-34,+3,-227
111390,0.604,0.949,0.033,-0.137575,0.534963,-1.092165,100008.67,-33,+7,-228
111400,1.495,0.482,-0.062,-0.147153,0.615844,-1.254991,100005.69,-33,+7,-228
111410,2.340,-0.118,-0.275,-0.149282,0.698853,-1.391743,100003.44,-35,+11,-228
111420,2.977,-1.426,-0.700,-0.074254,0.788248,-1.514660,100003.44,-35,+11,-222
111430,3.682,-2.701,-0.655,0.115709,0.920743,-1.674825,100005.46,-35,+15,-222
111440,5.422,-3.571,-0.151,0.241819,1.035679,-1.835523,100005.68,-35,+15,-222
111450,7.586,-5.428,-0.434,0.157213,1.049513,-1.912678,100006.41,-36,+19,-222
111460,8.977,-6.688,-0.126,0.046002,1.063348,-1.944073,100006.41,-36,+21,-215
111470,10.139,-7.493,0.735,-0.073190,1.077183,-1.957376,100006.41,-35,+25,-215
111480,11.372,-8.073,1.558,-0.117887,1.064413,-1.933963,100006.99,-35,+25,-215
111490,12.486,-8.591,2.141,-0.139704,1.055367,-1.854146,100005.21,-36,+28,-214
111501,13.775,-8.111,2.313,-0.134028,1.031244,-1.750030,100005.13,-35,+30,-208
111510,14.286,-7.315,2.616,-0.212071,1.035147,-1.655137,100005.13,-34,+36,-208
111520,14.068,-6.393,1.294,-0.262621,0.968101,-1.533816,100005.13,-34,+36,-208
111531,13.228,-10.231,-1.403,-0.166309,0.885624,-1.331082,100008.02,-35,+39,-207
111540,11.870,-20.724,5.214,0.131140,1.025036,-1.042679,100009.95,-35,+39,-201
111550,20.540,-14.438,6.989,0.956974,1.184669,-0.417450,100006.78,-35,+41,-201
111560,24.363,0.207,3.611,0.561085,0.693000,-0.523340,100006.78,-35,+41,-201
111570,14.400,9.502,1.820,-0.308915,0.485477,-0.805358,100010.17,-36,+42,-201
111580,9.708,3.864,3.784,-0.672346,0.732376,-1.024055,100010.17,-36,+43,-197
111590,9.532,0.798,3.457,-0.229630,0.743550,-0.749487,100008.66,-34,+47,-198
111600,13.831,1.677,4.237,-0.021576,0.729716,-0.706386,100006.98,-35,+47,-198
111610,17.335,0.895,-0.369,0.310993,0.603073,-0.866019,100006.77,-35,+49,-197
111620,16.199,0.407,-1.301,0.556296,0.527514,-0.563780,100006.77,-33,+47,-193
111630,13.579,-0.136,-1.167,0.772332,0.388101,-0.419579,100011.00,-34,+49,-195
111640,12.968,0.291,0.197,0.765947,0.277954,-0.237597,100011.84,-35,+49,-195
111650,12.007,1.124,2.186,0.853745,0.295514,0.048678,100009.17,-35,+49,-195
111661,10.886,-0.315,2.815,1.137360,0.377459,0.217889,100007.02,-35,+45,-192
111670,10.764,-3.891,2.661,1.269323,0.438119,0.298238,100012.14,-35,+44,-195
111680,10.664,-5.094,2.542,0.917066,0.429606,0.150843,100011.98,-38,+43,-194
111690,9.704,-4.149,3.184,0.272149,0.371074,-0.041781,100006.48,-38,+43,-194
111699,8.329,-3.319,3.626,-0.194511,0.339147,-0.180129,100006.48,-37,+42,-190
111710,7.992,-2.414,3.483,-0.325942,0.290193,-0.236533,100008.84,-36,+43,-193
111720,8.673,-0.637,2.592,0.014076,0.225276,-0.224826,100008.84,-38,+44,-192
111730,9.300,-0.308,2.242,0.540332,0.197074,-0.158313,100010.07,-38,+44,-192
111735,9.585,-0.912,1.900,0.847892,0.203991,-0.107230,100007.55,-38,+41,-190
111745,9.953,-1.985,2.410,0.864387,0.258798,-0.063065,100010.65,-38,+41,-190
111755,10.254,-2.488,3.175,0.685598,0.282743,-0.051891,100008.45,-38,+42,-193
111765,10.220,-1.853,3.421,0.370057,0.274230,-0.008258,100008.45,-39,+42,-191
111775,9.906,-1.583,3.596,0.190736,0.260395,0.038036,100010.66,-38,+40,-188
111785,9.635,-1.711,3.704,0.071544,0.236450,0.067302,100006.78,-38,+40,-188
111795,9.627,-1.883,3.644,-0.054566,0.197074,0.083265,100009.34,-39,+41,-192
111805,9.736,-1.730,3.515,-0.188658,0.137477,0.085926,100006.67,-40,+41,-190
111815,9.748,-1.330,3.496,-0.232823,0.061918,0.096036,100006.67,-39,+39,-187
111825,9.656,-1.047,3.286,-0.235484,-0.007256,0.144458,100009.70,-39,+39,-187
111835,9.384,-0.966,3.138,-0.292951,-0.051422,0.228531,100009.23,-38,+42,-190
111845,9.305,-0.746,3.070,-0.356273,-0.082816,0.320586,100007.76,-40,+40,-190
111855,9.279,-0.625,3.177,-0.372768,-0.101440,0.388696,100007.71,-39,+40,-188
111865,9.127,-1.003,3.213,-0.348823,-0.100908,0.434990,100007.71,-40,+40,-191
111875,9.028,-1.558,3.175,-0.332328,-0.125917,0.465320,100008.41,-40,+41,-191
111885,9.099,-1.594,3.249,-0.332860,-0.165293,0.490329,100007.52,-40,+39,-189
111895,9.279,-1.734,3.134,-0.322750,-0.171146,0.507357,100011.40,-40,+37,-188
111905,9.389,-1.882,2.969,-0.327539,-0.150394,0.524916,100008.93,-40,+39,-192
111915,9.396,-1.810,2.835,-0.382878,-0.118467,0.566421,100008.93,-40,+39,-192
111925,9.633,-2.347,2.740,-0.485575,-0.125917,0.594091,100008.64,-41,+37,-189
111935,9.580,-2.016,2.670,-0.577098,-0.156247,0.610054,100010.94,-40,+36,-188
111945,9.227,-1.644,2.745,-0.483447,-0.162100,0.677632,100007.27,-40,+38,-192
111955,9.432,-1.884,2.824,-0.357869,-0.186577,0.707962,100007.84,-40,+38,-192
111965,9.571,-2.022,3.067,-0.342970,-0.221165,0.764898,100007.84,-41,+35,-190
111971,9.915,-1.916,3.028,-0.365318,-0.263201,0.815448,100008.15,-41,+35,-190
111980,10.003,-2.050,3.177,-0.403630,-0.309495,0.893668,100008.15,-39,+34,-188
111990,10.022,-1.493,3.395,-0.545171,-0.324926,1.192714,100010.51,-40,+33,-193
112001,9.610,-3.523,2.829,-0.616474,-0.337164,1.292751,100008.52,-41,+31,-190
112010,10.053,-3.264,2.366,-0.628713,-0.358981,1.082567,100009.51,-41,+31,-190
112020,9.986,-3.309,1.902,-0.636694,-0.385586,0.995301,100010.24,-38,+29,-190
112030,9.693,-3.067,1.719,-0.594126,-0.395164,0.930384,100009.84,-40,+29,-194
112040,9.815,-2.948,2.187,-0.523355,-0.372816,0.900054,100008.77,-40,+27,-192
112050,9.854,-3.204,1.936,-0.445667,-0.365898,0.884622,100008.77,-40,+27,-192
112060,10.174,-3.650,1.858,-0.421722,-0.365898,0.883026,100009.99,-38,+25,-192
112070,10.549,-3.849,2.266,-0.500474,-0.377605,0.884622,100009.99,-40,+26,-196
112080,11.119,-3.744,2.412,-0.646272,-0.402082,0.884622,100009.80,-40,+23,-193
112090,11.520,-3.428,2.212,-0.762272,-0.422834,0.905907,100007.02,-39,+23,-194
112100,11.892,-3.123,1.828,-0.793667,-0.459018,0.954329,100007.02,-39,+23,-194
112110,12.232,-2.925,1.459,-0.750566,-0.512761,1.025632,100008.45,-40,+23,-198
112120,12.727,-2.459,1.064,-0.676603,-0.575018,1.097999,100008.45,-39,+19,-195
112131,13.108,-2.147,0.661,-0.595190,-0.637806,1.167705,100011.00,-38,+18,-198
112141,13.479,-2.254,0.419,-0.519098,-0.684100,1.226237,100009.38,-38,+18,-198
112150,13.829,-2.165,0.375,-0.507392,-0.744761,1.266145,100010.27,-38,+17,-202
112160,13.834,-1.759,0.611,-0.585612,-0.822981,1.320420,100010.27,-38,+13,-200
112171,13.611,-1.561,1.234,-0.633502,-0.874595,1.395448,100010.27,-36,+11,-203
112180,13.301,-1.397,2.259,-0.721300,-0.899604,1.450787,100010.41,-36,+11,-203
112190,13.202,-0.960,3.479,-0.878804,-0.920357,1.521558,100006.95,-38,+11,-207
112200,13.333,-0.543,4.416,-1.085263,-0.933659,1.600310,100007.05,-38,+7,-205
112205,13.650,-0.051,5.247,-1.219887,-0.934724,1.659374,100007.68,-38,+7,-205
112216,14.463,0.415,6.084,-1.387501,-0.934724,1.717374,100007.68,-35,+5,-208
112225,15.887,1.345,6.508,-1.629611,-0.951219,1.787081,100007.66,-36,+5,-212
112235,16.105,2.763,6.860,-1.870125,-0.975164,1.878071,100008.40,-36,+5,-212
112245,15.589,3.725,7.439,-2.042528,-1.024118,2.016420,100006.57,-35,+1,-212
112256,15.666,3.287,7.219,-2.188859,-1.124687,2.241502,100006.51,-31,+2,-215
112265,15.610,-0.685,6.852,-1.773281,-1.216742,2.485741,100006.51,-32,+1,-219
112275,16.020,-4.821,6.260,-0.872951,-1.260375,2.795429,100008.72,-32,+1,-219
112285,17.585,-4.913,4.907,-0.001887,-1.348705,3.025300,100008.41,-29,-7,-219
112295,17.722,-3.501,4.179,0.490314,-1.446081,2.950805,100006.30,-26,-11,-223
112306,16.110,-0.983,4.256,0.878754,-1.531751,2.633667,100005.67,-26,-18,-227
112315,13.719,1.276,4.716,1.474185,-1.474283,2.197337,100005.67,-21,-18,-227
112325,10.794,2.444,4.778,1.920625,-1.350834,1.767925,100008.77,-21,-29,-227
112335,7.314,1.378,4.542,2.032900,-1.159806,1.489631,100007.88,-19,-33,-230
112346,4.092,-2.426,2.914,1.857836,-0.875660,1.351283,100006.05,-18,-41,-232
112355,3.109,-6.303,5.010,1.573157,-0.428155,1.287962,100005.63,-17,-48,-229
112365,4.278,-7.289,7.080,1.648717,-0.228614,1.147485,100005.63,-17,-48,-229
112375,4.863,-6.005,6.423,1.519946,-0.478706,0.772347,100005.77,-15,-51,-230
112386,4.098,-3.608,4.140,0.987837,-0.569164,0.287063,100005.39,-16,-54,-232
112395,3.534,-0.735,1.990,-0.154071,-0.758063,-0.189707,100005.61,-14,-55,-231
112405,2.903,1.509,1.221,-1.312474,-0.792118,-0.464276,100004.25,-14,-55,-231
112415,1.275,2.505,1.169,-1.922804,-0.801164,-0.853780,100004.25,-13,-50,-235
112425,-0.745,3.388,0.377,-2.103721,-0.613862,-1.510936,100004.59,-14,-44,-239
112436,-1.224,4.320,-0.110,-1.800418,-0.215843,-2.069651,100006.02,-14,-39,-237
112441,-0.363,4.992,0.322,-1.401868,0.135881,-2.399559,100003.55,-14,-39,-237
112450,1.203,5.289,0.635,-0.994272,0.442908,-2.631559,100003.55,-15,-32,-240
112460,2.817,4.209,0.971,-0.552621,0.730248,-2.914641,100002.88,-15,-32,-240
112471,3.551,2.234,1.667,-0.319557,0.973422,-3.151962,100002.88,-19,-27,-239
112481,3.924,0.874,1.998,-0.202493,1.195844,-3.399925,100000.69,-22,-23,-234
112490,4.393,1.497,1.643,-0.149282,1.406559,-3.679283,100000.38,-25,-14,-234
112500,5.255,3.330,1.159,-0.121080,1.638559,-3.924585,99998.97,-25,-14,-234
112510,6.458,3.902,0.762,0.108791,1.861513,-4.091136,99998.97,-29,-7,-232
112521,7.452,3.692,0.724,0.538736,2.097238,-4.257154,99998.97,-31,-2,-225
112530,8.526,3.003,1.017,0.935158,2.320192,-4.391246,100001.26,-34,+5,-223
112540,9.742,2.139,0.946,1.319341,2.487806,-4.500329,99997.96,-38,+5,-223
112550,11.241,1.646,0.661,1.720552,2.595824,-4.629099,100004.35,-38,+11,-217
112561,12.708,1.032,0.082,2.068552,2.612852,-4.749356,100000.21,-40,+16,-211
112570,13.826,-0.062,-0.170,2.381432,2.591568,-4.887704,100000.21,-41,+23,-208
112580,14.730,-1.091,0.082,2.606514,2.512283,-5.039356,100004.54,-43,+27,-203
112590,15.563,-2.011,0.811,2.587358,2.386173,-5.208567,100005.21,-43,+27,-203
112601,16.613,-2.535,1.826,2.261175,2.214834,-5.348511,100005.37,-41,+32,-197
112611,17.412,-2.760,2.606,1.793451,2.031788,-5.457062,100002.45,-41,+41,-197
112620,17.737,-2.937,3.138,1.502919,1.952504,-5.548053,100004.59,-40,+48,-192
112630,18.399,-3.134,3.530,1.491213,1.933348,-5.578383,100007.05,-40,+48,-192
112641,19.430,-4.172,3.325,1.609873,1.918981,-5.500695,100007.05,-39,+54,-189
112651,20.359,-6.254,2.451,1.654570,1.841825,-5.308603,100003.43,-38,+63,-189
112660,21.168,-9.304,1.335,1.643396,1.710394,-4.990402,100003.49,-38,+70,-185
112670,20.981,-11.573,0.301,1.578479,1.556614,-4.587062,100003.49,-38,+70,-185
112676,20.050,-12.515,-0.051,1.530057,1.423587,-4.297062,100005.91,-36,+76,-183
112686,18.925,-13.128,-0.290,1.546020,1.316100,-3.950659,100006.48,-36,+76,-183
112696,18.442,-15.342,0.700,1.574222,1.179348,-3.403650,100005.81,-35,+84,-186
112705,16.619,-19.556,2.262,1.163965,0.938303,-2.766182,100008.17,-35,+88,-184
112715,14.236,-22.434,3.296,0.376975,0.625954,-2.063798,100008.17,-33,+91,-182
112726,13.265,-22.761,2.609,-0.480254,0.366817,-1.179963,100008.91,-33,+91,-182
112736,13.204,-21.616,1.828,-1.251281,0.090652,-0.340826,100009.28,-33,+96,-183
112745,13.962,-19.068,0.423,-1.720602,-0.246706,0.520659,100006.92,-33,+98,-181
112755,15.548,-15.840,-0.531,-1.473171,-0.484027,1.359797,100009.17,-34,+96,-179
112765,14.323,-15.456,-0.583,-0.858584,-0.713898,2.221814,100009.17,-34,+96,-179
112776,12.361,-5.828,2.013,0.010883,-0.878320,2.866199,100010.20,-36,+94,-181
112786,10.528,14.319,6.864,0.528094,-0.775091,2.666126,100006.75,-38,+87,-182
112795,9.002,27.454,7.063,0.099213,-0.507972,1.589136,100005.17,-39,+82,-183
112805,10.652,17.960,-1.281,-0.484511,-0.522871,0.970292,100008.17,-40,+84,-185
112816,18.067,0.261,-3.935,0.666974,-0.542559,1.539118,100008.17,-40,+84,-185
112826,21.890,-12.042,3.657,2.450606,-0.050357,2.256934,100009.73,-42,+78,-185
112835,17.326,-11.849,5.038,1.818460,0.234321,2.771484,100009.26,-43,+68,-186
112845,11.372,-4.918,2.233,0.363140,0.348193,2.678365,100008.46,-47,+65,-187
112856,7.481,-0.442,5.259,0.516387,0.572743,2.726787,100009.57,-47,+65,-187
112866,5.467,-3.156,8.087,1.129910,0.385441,2.495851,100009.57,-50,+58,-184
112875,9.127,-6.511,3.837,0.563213,-0.252559,1.956824,100010.88,-50,+53,-185
112885,11.997,-5.621,2.144,-0.611685,-0.442522,1.868493,100008.48,-51,+52,-187
112896,11.334,-1.722,3.304,-1.447098,-0.372816,1.899356,100008.01,-51,+52,-187
112906,9.638,-1.565,2.313,-1.996235,-0.451568,1.715778,100007.90,-52,+49,-185
112911,8.771,-1.578,1.969,-1.924400,-0.373880,1.550824,100007.90,-52,+49,-185
112920,8.748,-0.264,1.263,-1.676969,-0.274376,1.426310,100007.90,-52,+47,-184
112930,8.577,1.904,0.790,-1.197006,-0.131238,1.284237,100012.64,-52,+48,-187
112941,9.243,2.485,1.239,-0.353080,0.048615,1.227833,100006.88,-54,+45,-184
112951,9.536,-0.188,1.863,0.403580,0.174193,1.224109,100008.39,-54,+45,-184
112961,9.773,-2.739,2.549,0.523837,0.243899,1.192714,100005.53,-54,+41,-184
112970,9.860,-3.653,3.425,0.093892,0.270505,1.078843,100009.98,-56,+41,-185
112980,9.580,-3.874,4.720,-0.523887,0.248156,0.914953,100008.89,-56,+37,-182
112991,8.879,-3.706,5.373,-1.134217,0.177918,0.729779,100008.89,-56,+37,-182
113001,8.620,-2.331,4.947,-1.576932,0.067239,0.542476,100005.69,-56,+37,-182
113010,9.046,-0.016,3.630,-1.695593,0.006046,0.412109,100009.14,-57,+40,-183
113020,9.482,1.567,2.780,-1.496584,0.009771,0.375926,100009.14,-57,+39,-180
113031,9.947,1.378,2.473,-1.008107,0.023074,0.439779,100012.27,-57,+39,-182
113041,10.052,0.188,2.519,-0.611153,0.022010,0.557375,100008.98,-57,+39,-182
113051,10.105,-0.807,2.882,-0.509520,0.013496,0.659540,100010.24,-58,+40,-183
113060,10.525,-1.333,3.818,-0.607428,-0.010981,0.865999,100008.62,-57,+37,-179
113071,9.751,-2.235,4.529,-0.936272,-0.102504,1.070861,100009.47,-57,+37,-181
113081,8.350,-1.925,4.638,-1.443373,-0.166889,0.955393,100008.20,-57,+37,-181
113091,8.332,-0.501,4.299,-1.518400,-0.148798,0.726054,100008.98,-60,+38,-182
113100,9.171,0.230,3.891,-1.261391,-0.133366,0.745742,100005.73,-59,+36,-179
113111,9.888,0.200,3.686,-1.032584,-0.131770,1.171430,100005.73,-59,+35,-180
113121,9.169,-0.715,3.678,-1.015024,-0.163165,1.409815,100005.73,-59,+35,-180
113131,9.659,0.067,3.216,-0.945850,-0.193495,1.521026,100008.60,-60,+34,-181
113140,9.409,-0.708,3.058,-0.758015,-0.208394,1.947778,100008.54,-60,+29,-179
113150,8.593,-1.542,2.707,-0.604236,-0.242449,1.854659,100006.87,-59,+27,-182
113161,9.113,-1.462,2.560,-0.475997,-0.263201,1.720035,100008.96,-59,+27,-182
113171,9.663,-1.813,2.295,-0.281777,-0.262669,1.606163,100008.96,-62,+24,-182
113181,10.706,-2.521,2.051,-0.296144,-0.295128,1.744512,100007.71,-61,+19,-180
113190,10.672,-3.904,2.001,-0.519098,-0.317476,1.958420,100008.79,-60,+17,-183
113201,10.358,-4.291,2.260,-0.830382,-0.319073,1.792402,100008.71,-60,+17,-183
113211,11.658,-2.382,1.613,-0.916052,-0.298853,1.848273,100008.71,-62,+15,-183
113221,10.390,-3.038,2.756,-0.639355,-0.269054,2.598016,100008.20,-60,+9,-182
113230,9.562,-5.873,2.611,-0.901685,-0.380798,2.300035,100008.20,-60,+5,-185
113241,10.188,-4.510,2.866,-1.081006,-0.446247,1.467815,100007.35,-60,+5,-185
113251,10.637,-2.691,2.595,-1.216694,-0.580339,1.108641,100005.62,-61,+5,-185
113261,10.944,-1.865,2.709,-1.140070,-0.656962,1.200164,100009.29,-59,+3,-185
113270,11.097,-1.535,3.305,-0.975116,-0.786797,1.415136,100009.29,-59,+1,-188
113281,11.572,-1.456,3.718,-0.871887,-0.952283,1.541778,100009.14,-59,+1,-188
113291,12.305,-1.505,3.706,-0.793135,-1.017733,1.605099,100010.56,-59,+0,-190
113301,12.965,-2.236,2.979,-0.762804,-1.037953,1.712585,100007.63,-56,-3,-191
113311,13.504,-2.544,2.275,-0.801116,-1.070944,1.710457,100007.48,-56,-4,-194
113320,14.560,-2.402,2.047,-1.037373,-1.120962,1.757282,100009.00,-56,-4,-194
113331,15.205,-1.819,2.537,-1.204455,-1.168852,1.888714,100009.47,-55,-6,-197
113341,15.889,-1.082,3.061,-1.266180,-1.215678,1.901484,100009.47,-52,-10,-197
113350,17.735,0.021,4.189,-1.414107,-1.263568,1.867429,100006.48,-50,-9,-201
113360,19.634,2.319,5.710,-1.767960,-1.316779,1.812622,100007.59,-50,-9,-201
113371,20.202,5.652,7.212,-2.040932,-1.402980,1.787613,100007.59,-49,-10,-204
113381,19.987,8.553,7.735,-1.997831,-1.489537,1.840646,100008.40,-45,-11,-205
113390,19.449,7.832,8.164,-1.800418,-1.507806,1.985558,100008.40,-45,-10,-209
113400,18.326,4.528,7.790,-1.470510,-1.489714,2.215961,100005.62,-45,-10,-209
113411,17.521,-3.477,6.600,-1.015024,-1.582301,2.579924,100002.63,-43,-13,-212
113421,18.063,-10.835,5.980,-0.752162,-1.712136,2.696456,100002.63,-37,-17,-212
113431,19.368,-10.444,7.664,-0.551557,-1.645090,2.600144,100008.39,-35,-17,-216
113441,17.600,-4.775,8.903,0.149764,-1.531219,2.614511,100005.91,-35,-17,-216
113451,14.297,0.972,8.069,0.617488,-1.412558,2.432530,100003.80,-33,-23,-216
113461,10.855,5.286,6.579,0.596204,-1.238026,2.030255,100003.80,-28,-27,-217
113471,6.984,5.929,4.736,0.288112,-1.218338,1.840292,100003.80,-26,-29,-219
113481,3.172,0.984,2.282,0.242351,-1.174705,1.637026,100007.48,-23,-29,-218
113490,-0.396,-5.038,4.432,0.416883,-0.776155,1.223044,100010.31,-23,-32,-218
113501,-0.208,-6.906,7.474,0.902167,-0.011513,0.796824,100006.02,-20,-32,-216
113511,2.642,-4.792,7.501,1.050094,0.116193,0.267375,100004.44,-21,-33,-215
113521,3.020,-2.013,4.795,0.410498,0.015624,-0.165762,100004.44,-21,-33,-213
113531,2.835,0.142,1.007,-0.634566,-0.201476,-0.585065,100005.03,-21,-33,-213
113541,2.137,2.506,-1.586,-1.738162,-0.471788,-1.179963,100007.50,-17,-27,-212
113551,0.940,3.496,-1.823,-2.146822,-0.409531,-1.682275,100003.09,-19,-17,-215
113561,0.244,4.397,-1.090,-1.600345,-0.108357,-2.143614,100003.09,-18,-11,-212
113571,0.768,4.518,0.194,-0.690437,0.305624,-2.507045,100005.80,-18,-11,-212
113581,1.428,2.876,1.962,0.169452,0.664266,-2.715632,100005.80,-17,-4,-210
113591,2.186,0.995,3.275,0.836185,0.956394,-2.818861,100004.84,-19,+0,-208
113601,3.013,-0.254,3.840,1.095855,1.202761,-2.992329,100004.58,-20,+4,-203
113611,3.873,0.129,3.777,0.876094,1.387935,-3.256788,100000.59,-20,+4,-203
113620,4.660,1.732,3.013,0.490314,1.478394,-3.551044,100000.59,-19,+11,-200
113631,5.564,3.077,1.317,0.595672,1.576834,-3.804861,100003.66,-21,+18,-198
113641,6.708,2.587,0.703,1.222497,1.775843,-4.059209,100002.03,-23,+23,-193
113651,7.780,0.732,1.427,1.744497,1.972192,-4.209796,100002.19,-23,+23,-193
113661,8.745,-0.995,1.667,2.046735,2.090852,-4.287485,99999.92,-21,+29,-188
113671,9.683,-1.505,1.656,2.114845,2.123843,-4.411466,100002.33,-22,+36,-187
113681,10.697,-1.421,1.212,2.070148,2.084467,-4.504053,100004.75,-24,+41,-180
113691,11.345,-1.782,1.397,2.130808,2.083935,-4.608879,100003.44,-24,+41,-180
113700,12.141,-3.161,2.115,2.217010,2.093513,-4.761062,100003.44,-22,+47,-175
113711,13.161,-4.777,2.721,2.087708,2.018485,-4.961668,100002.59,-23,+55,-171
113721,13.789,-5.084,3.181,1.722680,1.989751,-5.153759,100002.59,-21,+62,-163
113731,14.177,-3.952,3.444,1.396497,2.013164,-5.342126,100003.46,-21,+62,-163
113736,14.618,-3.225,3.755,1.307635,2.087660,-5.447484,100006.45,-16,+74,-157
113745,15.472,-3.169,4.180,1.399690,2.177586,-5.503888,100005.40,-10,+87,-152
113756,17.212,-3.721,4.218,1.657231,2.269109,-5.516126,100003.51,-10,+87,-152
113766,19.006,-5.684,3.676,2.012680,2.307953,-5.409704,100003.51,-2,+96,-143
113776,20.432,-9.092,2.406,2.294698,2.277623,-5.228255,100008.05,+8,+103,-140
113785,21.557,-11.114,0.908,2.229781,2.097238,-5.056915,100007.23,+17,+111,-140
113796,22.242,-12.442,-0.507,2.129744,1.864174,-4.738714,100007.70,+17,+111,-140
113806,21.202,-13.458,-0.634,1.972772,1.579495,-4.255558,100008.23,+25,+114,-137
113816,18.905,-16.293,0.884,1.803561,1.349623,-3.656402,100008.23,+33,+117,-139
113826,16.907,-22.354,2.592,1.718423,1.172963,-2.956678,100010.66,+37,+122,-142
113836,13.581,-27.275,2.551,1.234204,0.925000,-2.084018,100009.84,+37,+122,-142
113846,11.217,-28.603,0.849,0.284920,0.646706,-1.076202,100009.41,+38,+120,-140
113856,11.594,-26.503,-0.811,-0.755887,0.307220,0.064641,100009.41,+40,+121,-142
113866,14.979,-22.329,-1.879,-1.347061,-0.075899,1.017650,100009.41,+39,+121,-142
113875,14.043,-20.338,-3.039,-1.258731,-0.547348,2.001521,100008.96,+39,+121,-142
113886,13.816,-10.635,-0.503,-0.626052,-0.958137,2.919942,100007.54,+36,+118,-138
113896,14.826,16.317,5.703,-0.064144,-1.139054,3.033814,100010.32,+35,+114,-142
113906,14.954,35.708,5.169,-0.561667,-0.892155,1.842952,100004.20,+33,+115,-142
113915,17.551,19.580,-8.010,-1.415171,-0.793183,1.167173,100004.20,+33,+115,-142
113926,23.310,-5.980,-3.735,1.018699,-0.824045,2.334622,100014.05,+31,+112,-140
113936,17.724,-19.137,7.806,3.770771,-0.363770,3.372768,100012.22,+27,+107,-147
113946,10.934,-11.860,3.228,2.274478,-0.075899,3.695226,100008.75,+21,+103,-149
113956,8.394,-1.406,2.528,1.024020,0.188560,3.358933,100009.38,+21,+103,-149
113966,2.914,-2.208,7.584,1.850387,0.449294,3.123740,100009.38,+15,+98,-148
113972,1.222,-7.717,9.818,2.322900,0.361496,2.707631,100008.28,+13,+94,-153
113981,6.424,-9.940,5.374,1.548680,-0.141880,2.284603,100008.28,+13,+94,-153
113991,12.907,-8.795,0.742,-0.119484,-0.406871,2.033980,100009.33,+10,+92,-155
114001,14.305,-6.132,1.336,-1.480620,-0.463807,1.838163,100008.17,+8,+89,-152
114011,12.162,-2.878,3.408,-2.119152,-0.457953,1.739723,100008.48,+7,+89,-152
114021,9.379,-0.297,2.610,-2.164914,-0.381862,1.650329,100010.30,+7,+89,-152
114031,7.455,-0.359,0.814,-1.834473,-0.270119,1.491228,100009.67,+5,+88,-150
114041,8.078,1.481,0.219,-1.156034,-0.102504,1.373099,100009.63,+2,+86,-147
114051,8.767,1.177,1.061,-0.348291,0.057661,1.326806,100009.63,+3,+84,-150
114061,9.834,-0.928,2.036,0.377507,0.166743,1.297540,100006.69,+3,+84,-150
114071,10.233,-2.562,2.686,0.648883,0.202395,1.277852,100006.69,+0,+83,-150
114081,9.418,-3.618,3.280,0.426461,0.253477,1.202824,100008.72,+0,+80,-148
114091,8.914,-4.236,4.501,-0.104585,0.266248,1.032549,100007.98,-1,+79,-149
114101,8.742,-4.277,5.713,-0.754823,0.236982,0.793632,100008.14,-1,+79,-149
114111,8.753,-3.837,5.337,-1.385905,0.202927,0.563228,100006.88,-3,+80,-147
114121,8.981,-2.306,4.293,-1.848308,0.205055,0.421687,100006.88,-3,+79,-144
114131,9.122,-0.313,2.788,-1.931317,0.183239,0.402531,100006.88,-4,+81,-145
114141,9.220,1.060,1.560,-1.522125,0.150780,0.457870,100009.59,-4,+81,-145
114151,9.658,0.856,1.104,-0.830382,0.124707,0.571210,100008.85,-5,+80,-142
114161,10.003,-0.999,1.822,-0.247190,0.103955,0.687210,100008.85,-6,+78,-140
114171,9.826,-2.888,2.946,-0.055631,0.080010,0.740953,100008.85,-6,+78,-143
114181,9.467,-3.867,3.771,-0.296676,0.058725,0.741485,100008.23,-6,+78,-143
114191,9.172,-3.794,4.298,-0.727685,0.022010,0.673907,100007.50,-8,+78,-142
114201,9.048,-2.860,4.857,-1.045887,-0.013110,0.597283,100006.77,-8,+76,-140
114206,9.044,-2.136,4.797,-1.183703,-0.037587,0.574935,100007.39,-8,+76,-140
114215,9.190,-1.946,4.177,-1.251281,-0.066321,0.570146,100007.39,-8,+77,-141
114226,9.060,-1.898,3.363,-1.299703,-0.083348,0.510017,100008.68,-11,+76,-139
114236,9.949,-1.777,3.174,-1.242767,-0.079623,0.483944,100009.73,-11,+74,-137
114246,10.271,-1.756,2.502,-1.311942,-0.147201,0.619632,100006.59,-11,+74,-137
114256,10.023,-1.729,2.594,-1.333226,-0.194027,0.817044,100007.10,-12,+76,-138
114266,9.127,-1.697,2.296,-1.532767,-0.257348,0.775540,100007.10,-14,+74,-137
114276,9.593,-0.877,2.214,-1.259795,-0.217440,0.765430,100008.67,-14,+73,-136
114286,9.841,-1.159,2.185,-0.761208,-0.162632,0.889411,100009.61,-14,+73,-136
114296,10.272,-1.852,2.461,-0.535061,-0.140816,0.959650,100007.14,-15,+74,-138
114307,10.582,-2.080,2.797,-0.477594,-0.173807,1.063944,100008.72,-17,+71,-136
114316,10.892,-1.917,2.928,-0.494621,-0.247770,1.116622,100008.72,-17,+69,-135
114326,11.551,-1.893,3.025,-0.511649,-0.337164,1.375760,100008.28,-17,+69,-135
114336,11.287,-1.857,3.092,-0.555282,-0.444651,1.726420,100008.59,-19,+68,-137
114347,10.648,-1.661,3.159,-0.543575,-0.573421,1.746640,100008.28,-22,+64,-137
114356,11.451,-1.078,3.819,-0.501006,-0.667605,1.613613,100008.17,-23,+61,-137
114366,12.826,-1.457,4.186,-0.522823,-0.841605,1.761007,100008.17,-23,+61,-137
114376,13.423,-1.669,3.898,-0.584016,-0.992724,1.981833,100009.12,-26,+60,-139
114386,13.412,-1.796,3.168,-0.678731,-1.058705,2.190952,100008.43,-29,+54,-139
114396,13.850,-2.561,2.998,-0.814419,-1.104467,2.331961,100007.23,-31,+50,-141
114406,13.904,-2.543,3.151,-1.029391,-1.166192,2.239374,100005.71,-31,+50,-141
114416,14.479,-2.230,3.654,-1.300767,-1.190136,2.012695,100005.71,-33,+49,-143
114426,16.034,-1.143,4.332,-1.641850,-1.214081,1.831246,100009.91,-36,+44,-143
114437,17.862,1.103,4.772,-2.078180,-1.257182,1.774310,100008.28,-37,+42,-143
114442,19.018,3.136,5.065,-2.359666,-1.300815,1.824328,100006.30,-37,+42,-143
114451,20.300,5.499,5.068,-2.492693,-1.389145,1.943521,100006.30,-41,+41,-147
114461,21.773,8.611,5.460,-2.519831,-1.500356,2.149447,100006.92,-44,+35,-147
114471,21.651,10.956,5.781,-2.333060,-1.556228,2.406989,100006.92,-44,+35,-147
114482,19.383,9.397,5.983,-1.895666,-1.571659,2.714548,100005.90,-47,+32,-150
114491,17.668,2.441,4.943,-1.068767,-1.616889,2.955594,100006.10,-50,+27,-154
114501,18.134,-6.205,5.024,-0.415337,-1.865916,3.016254,100005.37,-54,+19,-157
114511,20.438,-9.487,8.640,-0.223245,-1.896778,2.928988,100005.37,-54,+19,-157
114522,20.329,-5.566,11.875,0.425929,-1.855806,2.906107,100005.37,-56,+13,-161
114531,16.953,0.725,10.805,1.124589,-1.786099,2.849172,100004.35,-59,+6,-167
114541,13.530,5.146,8.964,1.252295,-1.608375,2.474034,100007.40,-62,-1,-171
114551,9.705,6.747,6.352,1.245378,-1.562613,2.083466,100006.71,-62,-1,-171
114562,5.365,2.949,4.520,1.382130,-1.451402,1.998328,100003.99,-62,-6,-175
114571,0.581,-3.504,5.132,1.737047,-1.094889,1.564127,100003.99,-66,-13,-180
114581,-2.246,-7.583,9.158,1.923286,-0.291403,0.884622,100007.24,-68,-19,-179
114591,0.388,-7.134,10.221,1.705121,0.179514,0.119449,100005.52,-68,-19,-179
114601,2.849,-3.036,6.643,0.579176,-0.012045,-0.429689,100004.98,-71,-19,-180
114612,3.367,0.550,1.984,-1.063978,-0.437733,-0.945303,100004.98,-75,-17,-185
114621,2.163,2.761,-0.681,-2.504932,-0.726669,-1.491248,100008.27,-76,-13,-188
114631,0.800,4.242,-1.700,-2.886987,-0.572357,-1.911614,100007.17,-76,-13,-188
114641,0.099,4.771,-0.633,-2.321886,-0.126981,-2.323467,100007.17,-78,-3,-191
114652,0.439,4.582,0.774,-1.437520,0.340211,-2.620917,100003.81,-82,+4,-193
114661,0.936,3.506,1.959,-0.608493,0.729716,-2.831100,100002.41,-84,+10,-191
114671,1.300,1.742,3.157,0.068351,1.040468,-3.033302,100002.41,-84,+10,-191
114676,1.711,0.589,3.645,0.431782,1.262890,-3.197724,100006.47,-85,+20,-190
114686,2.533,0.252,3.720,0.582369,1.464559,-3.399925,99999.41,-89,+29,-190
114697,4.357,-0.152,3.515,0.452002,1.658779,-3.668641,100001.70,-89,+29,-190
114706,5.801,0.153,2.941,0.030039,1.736999,-3.879356,99999.45,-89,+37,-186
114716,5.338,2.000,1.671,-0.324346,1.779036,-4.076769,99999.45,-88,+49,-183
114726,5.292,3.009,1.060,0.042278,2.012632,-4.326329,100002.34,-89,+60,-182
114737,6.704,2.813,1.916,0.759030,2.328173,-4.489686,100003.34,-89,+60,-182
114746,8.691,1.798,2.428,1.469928,2.551659,-4.623246,100000.40,-87,+70,-177
114756,10.775,0.881,2.238,1.946166,2.648503,-4.707319,100001.45,-82,+80,-176
114766,12.257,-0.320,0.826,2.108460,2.597953,-4.744567,100001.45,-81,+89,-175
114777,12.743,-1.999,0.062,2.216478,2.569751,-4.800971,100006.37,-81,+89,-175
114786,12.947,-2.673,0.405,2.354295,2.574008,-4.856310,100002.70,-78,+96,-172
114796,14.008,-2.520,2.143,2.313322,2.513880,-5.026585,100004.07,-73,+104,-171
114806,16.283,-3.298,3.554,2.047799,2.322320,-5.269227,100003.12,-70,+114,-172
114817,18.195,-5.205,4.076,1.914772,2.205788,-5.504951,100003.12,-70,+114,-172
114827,18.955,-6.146,4.780,1.952552,2.260595,-5.673099,100003.84,-65,+123,-169
114836,18.757,-5.473,5.540,2.019065,2.335091,-5.727906,100004.04,-57,+133,-168
114846,18.764,-6.765,5.515,2.229249,2.403733,-5.592217,100005.40,-54,+143,-169
114856,19.940,-9.724,3.916,2.314918,2.368082,-5.398530,100004.46,-54,+143,-169
114867,21.282,-12.005,1.586,2.132405,2.212705,-5.152163,100004.46,-47,+150,-167
114876,21.903,-13.579,-0.058,1.917965,2.065311,-4.764787,100006.96,-39,+158,-168
114886,21.244,-15.054,-0.290,1.608809,1.809898,-4.299191,100008.16,-35,+165,-169
114896,18.834,-18.492,0.778,1.280497,1.509788,-3.777723,100004.55,-35,+165,-169
114907,15.241,-23.210,1.682,0.819158,1.253312,-3.077467,100005.23,-29,+170,-167
114916,12.057,-26.624,0.394,0.121562,0.938835,-2.128183,100005.23,-24,+174,-168
114926,11.516,-25.895,-1.947,-0.723960,0.595092,-0.967652,100012.35,-24,+177,-165
114936,13.295,-22.291,-3.086,-1.217758,0.213569,0.249283,100007.10,-24,+177,-165
114947,14.309,-19.139,-2.904,-1.071428,-0.235532,1.415136,100008.95,-26,+175,-160
114957,16.455,-15.832,-1.365,-0.887318,-0.677183,2.238310,100004.90,-28,+172,-161
114966,13.682,-9.990,-1.968,-0.596786,-1.206632,2.917814,100004.90,-35,+166,-162
114976,12.324,11.433,7.043,0.665910,-1.139054,3.346694,100009.74,-35,+166,-162
114987,13.327,33.736,8.507,0.680809,-0.787329,2.660805,100005.91,-40,+158,-162
114997,13.717,26.620,-1.479,-0.652658,-0.837880,1.359797,100008.48,-41,+154,-165
115006,23.615,4.300,-7.524,0.180626,-0.940045,1.755686,100009.95,-45,+152,-167
115016,28.430,-16.244,5.307,2.847560,-0.449972,2.873117,100009.95,-45,+152,-167
115026,18.743,-17.678,6.617,3.120533,-0.230210,3.737263,100010.09,-51,+141,-170
115037,9.601,-8.255,2.956,1.367763,-0.100908,3.601043,100012.34,-57,+133,-175
115046,5.076,-1.184,4.683,1.356589,0.098633,3.522823,100011.25,-64,+123,-176
115056,0.548,-3.926,7.186,1.867414,0.066175,3.035410,100007.20,-64,+123,-176
115066,3.940,-8.534,6.206,1.293800,-0.166889,2.438915,100007.20,-68,+115,-177
115077,10.446,-7.979,3.031,0.254057,-0.382394,2.219686,100008.76,-70,+109,-180
115087,12.921,-7.397,0.733,-1.007043,-0.554797,1.970126,100009.59,-73,+106,-179
115096,13.870,-5.645,1.884,-1.801483,-0.614926,1.746108,100007.80,-73,+106,-179
115106,11.917,-2.639,1.796,-2.242069,-0.552669,1.660439,100007.96,-73,+103,-176
115117,8.676,-1.224,0.185,-2.347427,-0.366431,1.533264,100007.96,-75,+102,-177
115127,7.491,0.679,-0.943,-1.880767,-0.183917,1.259228,100007.61,-77,+100,-174
115136,8.369,2.896,0.242,-0.899557,0.046487,1.151209,100008.14,-77,+100,-174
115147,9.129,1.330,2.503,0.240932,0.171710,1.203179,100005.63,-78,+98,-172
115156,9.803,-1.276,3.393,0.764351,0.155569,1.226237,100007.72,-80,+96,-175
115167,9.741,-3.514,3.253,0.732956,0.134285,1.180476,100007.72,-83,+91,-175
115177,9.361,-4.653,4.523,0.250865,0.144927,1.082567,100008.14,-83,+88,-173
115186,8.820,-5.118,5.925,-0.486107,0.059257,0.887815,100006.98,-83,+88,-173
115196,8.558,-3.578,5.695,-1.232125,-0.024816,0.669650,100007.30,-84,+88,-173
115207,8.771,-1.165,5.045,-1.758914,-0.005128,0.532898,100005.63,-86,+88,-170
115217,8.973,0.582,3.442,-1.865336,0.020945,0.480219,100005.63,-85,+88,-168
115226,9.659,1.155,1.929,-1.475831,0.043294,0.554182,100008.81,-85,+88,-168
115236,10.192,0.368,1.169,-0.860180,0.035312,0.703705,100006.50,-85,+88,-169
115247,10.184,-0.713,1.795,-0.359465,0.025734,0.876109,100009.23,-89,+85,-168
115257,9.379,-2.101,3.035,-0.166841,0.006578,1.038934,100007.61,-88,+82,-167
115266,8.539,-3.231,3.884,-0.308383,-0.033330,1.025632,100007.61,-88,+82,-167
115276,8.463,-2.974,4.371,-0.667025,-0.060467,0.848439,100010.16,-89,+82,-168
115287,8.972,-2.317,4.244,-0.979373,-0.086541,0.697852,100007.75,-91,+79,-167
115297,9.147,-1.887,4.081,-1.093777,-0.093458,0.638788,100011.11,-90,+78,-165
115307,9.481,-1.867,3.933,-1.381116,-0.161568,0.659008,100006.70,-90,+78,-165
115316,9.571,-1.227,3.055,-1.542345,-0.196688,0.821833,100006.70,-91,+80,-165
115326,9.659,-0.545,2.491,-1.038437,-0.128577,0.993173,100010.52,-93,+76,-165
115337,9.692,-2.253,2.655,-0.619667,-0.116871,0.987852,100008.73,-92,+74,-163
115347,9.771,-3.128,2.756,-0.571245,-0.143477,0.834604,100008.11,-92,+74,-163
115356,9.720,-2.958,2.842,-0.754291,-0.179660,0.799485,100008.94,-92,+74,-165
115366,9.716,-2.542,2.896,-0.903281,-0.198284,0.883026,100008.94,-96,+70,-163
115377,9.532,-2.074,2.940,-0.974584,-0.190834,1.038934,100011.41,-94,+69,-163
115382,9.322,-1.700,2.989,-1.002786,-0.168486,1.197503,100008.33,-94,+69,-163
115391,9.279,-1.789,3.255,-0.994272,-0.150926,1.080439,100008.33,-96,+69,-164
115401,10.279,-1.871,3.287,-0.997997,-0.175403,0.991577,100008.84,-98,+65,-163
115411,10.876,-2.274,3.151,-1.082070,-0.283954,1.084696,100008.06,-98,+65,-163
115422,10.545,-2.226,2.744,-1.182107,-0.410064,1.193246,100008.06,-96,+64,-163
115432,10.238,-1.759,2.494,-1.171997,-0.452632,1.377356,100009.92,-98,+61,-165
115442,10.794,-2.360,2.408,-1.193813,-0.497862,1.793998,100006.48,-100,+56,-164
115451,11.597,-2.979,2.746,-1.266180,-0.627164,1.873815,100009.33,-100,+56,-164
115462,13.108,-1.884,2.993,-1.342804,-0.783605,1.781760,100009.33,-99,+54,-165
115472,12.972,-0.914,3.062,-0.928823,-0.858632,1.936071,100009.33,-101,+50,-168
115482,14.157,-1.685,2.283,-0.863373,-0.962926,1.586475,100008.16,-101,+45,-168
115491,15.354,-1.900,1.649,-0.829318,-1.092228,1.641283,100008.74,-101,+45,-168
115502,15.806,-1.451,1.899,-0.905942,-1.233769,1.799851,100009.48,-99,+41,-172
115512,16.449,-1.528,2.971,-0.951703,-1.348705,1.957888,100008.85,-101,+37,-176
115522,17.825,-0.926,4.221,-1.137410,-1.416815,1.989282,100008.85,-102,+31,-178
115532,19.748,1.269,5.162,-1.524786,-1.480136,1.980237,100007.20,-102,+31,-178
115542,21.057,4.127,6.157,-1.943556,-1.588155,2.045686,100004.39,-100,+29,-182
115552,22.205,7.466,6.921,-2.170767,-1.712668,2.194145,100005.27,-100,+25,-188
115562,23.286,10.345,8.137,-2.306455,-1.789824,2.321319,100005.27,-101,+21,-191
115572,22.635,12.999,9.139,-2.279849,-1.819622,2.418163,100006.80,-101,+21,-191
115581,19.754,10.650,9.569,-1.873317,-1.756833,2.716676,100006.80,-96,+18,-196
115592,17.115,0.175,6.727,-1.091648,-1.720650,3.149282,100004.98,-97,+10,-202
115602,17.208,-11.731,5.865,-0.373300,-1.836118,3.356272,100005.07,-96,+1,-206
115611,19.544,-13.064,9.690,0.060902,-1.745127,3.254107,100003.87,-96,+1,-206
115617,18.858,-7.832,11.587,0.519048,-1.642430,3.026896,100003.87,-91,-6,-210
115627,16.199,-0.788,10.524,0.932497,-1.550907,2.684750,100005.64,-89,-6,-210
115637,12.099,6.942,9.887,1.073506,-1.235366,2.218090,100005.69,-89,-15,-215
115647,8.120,11.033,6.700,1.019231,-1.135861,1.893503,100004.42,-87,-23,-218
115656,3.477,7.727,3.772,0.748919,-1.366797,1.655650,100005.38,-82,-27,-221
115666,-0.674,-2.088,1.741,0.682938,-1.375843,1.322549,100005.38,-82,-31,-226
115677,-2.595,-9.417,6.460,1.014974,-0.481898,0.917613,100006.45,-82,-31,-226
115687,1.773,-10.636,8.806,1.836020,-0.062596,0.176384,100003.47,-80,-37,-223
115697,3.564,-6.632,7.177,1.996185,-0.451568,-0.701597,100002.16,-78,-39,-225
115706,2.513,-3.841,4.766,1.202277,-0.421770,-1.004899,100007.52,-79,-37,-227
115717,1.708,0.090,0.335,-0.317961,-0.777751,-1.213486,100007.52,-79,-37,-227
115727,0.349,3.981,-3.274,-1.966969,-1.070412,-1.709945,100008.43,-77,-33,-229
115737,-0.504,5.318,-1.629,-2.566657,-0.652173,-2.335706,100003.60,-75,-21,-233
115746,-0.769,6.429,0.448,-1.732308,-0.214247,-2.847595,100004.29,-77,-13,-234
115757,-0.126,5.777,1.632,-0.423318,0.240707,-3.129081,100005.34,-77,-13,-234
115767,1.052,3.603,2.809,0.810112,0.715881,-3.380237,100005.34,-78,-5,-232
115777,1.860,0.951,4.128,1.555066,1.159128,-3.520714,100001.66,-78,+1,-228
115786,2.896,-1.457,4.814,1.639671,1.452321,-3.588824,99998.95,-81,+5,-225
115796,3.972,-2.086,4.256,1.160240,1.582155,-3.803264,99999.88,-81,+5,-225
115807,4.301,-0.687,3.904,0.388681,1.685917,-4.193833,99999.51,-82,+13,-219
115817,5.434,1.727,2.520,0.110388,1.837036,-4.560457,99999.51,-82,+27,-215
115827,6.986,2.635,2.229,0.466369,2.149384,-4.728071,100003.31,-85,+36,-210
115836,8.609,1.750,2.307,1.003800,2.422357,-4.760530,100001.75,-85,+36,-210
115847,10.172,0.749,1.373,1.456625,2.571347,-4.837154,100000.06,-84,+47,-201
115857,11.423,-0.006,0.021,1.704589,2.629879,-4.850989,100003.31,-82,+59,-196
115867,12.134,-0.729,-0.701,2.006827,2.674577,-4.829704,100003.31,-81,+69,-190
115876,12.598,-1.430,0.273,2.282992,2.714485,-4.893558,100006.04,-81,+69,-190
115887,14.056,-2.584,2.070,2.356423,2.612852,-5.077668,100004.52,-78,+80,-184
115897,16.421,-3.671,2.683,2.178166,2.365953,-5.383099,100005.05,-70,+93,-181
115907,17.940,-3.847,2.970,1.900405,2.247825,-5.607649,100004.32,-65,+107,-179
115916,18.331,-3.669,3.846,1.824313,2.266981,-5.676291,100004.32,-65,+107,-179
115927,18.428,-5.017,4.160,1.968515,2.256338,-5.672566,100005.80,-54,+119,-176
115937,18.835,-7.228,3.390,2.112717,2.118522,-5.610310,100003.86,-42,+129,-178
115947,20.132,-9.211,2.475,2.220203,2.004651,-5.392676,100003.33,-34,+138,-180
115957,22.100,-11.253,1.347,2.222331,1.942926,-5.039356,100005.42,-34,+138,-180
115966,22.095,-13.420,0.702,2.042478,1.724761,-4.590787,100005.42,-23,+142,-180
115977,20.002,-15.492,0.952,1.740772,1.395917,-4.118274,100007.32,-12,+147,-185
115987,18.074,-19.458,1.771,1.426295,1.165513,-3.536145,100008.90,-7,+148,-185
115997,16.004,-25.472,1.947,1.035727,1.008541,-2.825247,100008.74,-7,+148,-185
116006,13.310,-28.162,0.517,0.152957,0.749936,-1.996220,100006.85,-1,+148,-184
116017,12.237,-26.982,-1.212,-0.899024,0.436523,-0.977762,100006.85,+2,+150,-185
116027,14.905,-23.779,-1.381,-1.533831,0.068835,0.150843,100008.77,+1,+151,-182
116037,16.319,-20.826,-2.205,-1.435391,-0.319605,1.144824,100012.91,+1,+151,-182
116046,14.068,-19.457,-2.560,-0.876676,-0.819788,2.380383,100011.45,+1,+147,-179
116057,14.122,-4.854,3.218,-0.088621,-1.123091,3.132254,100008.98,+0,+145,-182
116067,15.299,27.504,9.561,0.800534,-1.101274,2.882695,100008.98,-5,+138,-183
116077,16.185,39.492,1.766,-0.060952,-0.707513,1.491760,100008.16,-5,+138,-183
116087,21.333,9.231,-10.808,-1.030101,-0.906699,1.548341,100011.89,-3,+136,-181
116097,23.049,-12.931,4.681,2.827872,-0.545219,2.881630,100009.27,-7,+133,-186
116107,15.711,-20.096,10.581,4.871706,0.100762,3.904877,100004.70,-14,+119,-192
116117,10.920,-14.455,3.714,2.049396,0.209312,3.917648,100004.70,-18,+119,-192
116127,10.270,-3.343,1.037,1.125121,0.114065,3.785685,100010.77,-18,+110,-192
116136,3.570,-1.816,6.605,2.072809,0.207184,3.269538,100006.52,-24,+102,-195
116147,2.517,-8.481,7.936,1.963726,-0.016302,2.555979,100008.30,-29,+95,-197
116157,10.305,-11.196,1.881,0.572791,-0.508504,2.202658,100006.37,-27,+90,-198
116167,14.144,-9.063,-0.413,-1.496052,-0.851715,1.911594,100006.37,-27,+90,-198
116177,13.349,-4.707,2.806,-2.458638,-0.826173,1.685980,100010.90,-28,+90,-198
116187,10.873,-1.381,2.136,-2.518767,-0.800632,1.575301,100010.16,-31,+91,-197
116197,8.340,-0.732,0.195,-2.338382,-0.554797,1.489099,100006.38,-29,+90,-193
116207,6.991,0.486,-0.155,-1.886620,-0.293532,1.357668,100010.10,-29,+90,-193
116216,7.350,2.551,0.394,-0.994272,-0.089201,1.170365,100010.10,-32,+92,-194
116227,8.994,1.734,1.214,0.096021,0.124175,1.083099,100010.45,-35,+88,-193
116237,10.153,-0.719,2.622,0.718589,0.310413,1.074586,100007.51,-33,+85,-193
116247,9.686,-2.478,3.362,0.703690,0.319459,0.988384,100007.77,-33,+85,-193
116257,8.967,-2.645,3.957,0.346112,0.286468,0.847375,100009.13,-36,+83,-194
116267,8.756,-2.639,4.955,-0.138640,0.296046,0.743613,100009.13,-38,+82,-193
116277,8.836,-3.687,5.197,-0.634566,0.275294,0.628678,100008.91,-37,+80,-191
116287,9.152,-4.637,4.893,-1.209777,0.192285,0.497247,100010.91,-37,+80,-191
116297,9.519,-2.509,4.215,-1.828088,0.159294,0.427540,100009.17,-38,+82,-190
116306,9.337,-0.294,3.289,-2.134051,0.178982,0.432861,100010.59,-41,+84,-188
116317,9.734,1.440,2.127,-1.832877,0.166211,0.496182,100010.59,-39,+84,-185
116327,10.021,2.135,1.598,-1.109208,0.151844,0.639320,100010.28,-39,+84,-185
116337,9.910,1.121,1.784,-0.363722,0.143331,0.827687,100008.61,-41,+84,-186
116347,9.888,-0.963,2.854,0.067819,0.095441,0.964439,100006.67,-43,+82,-185
116357,9.560,-2.651,4.141,-0.010401,-0.085477,0.968164,100006.05,-42,+80,-184
116367,8.661,-2.983,4.814,-0.377025,-0.180724,0.908035,100006.05,-42,+80,-184
116377,8.269,-2.375,4.956,-0.735135,-0.182853,0.866531,100010.18,-43,+80,-186
116387,8.418,-2.367,4.468,-1.003318,-0.172210,0.734035,100008.13,-45,+78,-183
116397,9.531,-1.533,3.607,-1.151245,-0.205201,0.739357,100008.98,-43,+79,-183
116407,9.508,-0.555,3.165,-1.085795,-0.209990,0.970824,100008.66,-43,+79,-183
116417,9.337,-1.020,2.470,-1.261391,-0.272779,1.076182,100008.66,-45,+78,-184
116427,9.607,-0.777,2.051,-1.314070,-0.242449,1.327338,100006.62,-47,+76,-182
116438,9.796,-1.240,1.963,-0.703740,-0.137091,1.310842,100007.55,-45,+75,-182
116447,10.252,-2.981,2.311,-0.347759,-0.063660,1.165576,100009.55,-45,+75,-182
116457,11.180,-3.683,3.056,-0.452584,-0.073770,1.135246,100008.93,-49,+73,-183
116467,11.879,-3.395,2.754,-0.715447,-0.227018,1.196439,100008.93,-50,+70,-181
116477,11.408,-2.118,2.321,-0.811759,-0.316412,1.334787,100013.77,-47,+69,-182
116487,11.378,-0.310,2.075,-0.830382,-0.328651,1.682787,100007.11,-47,+69,-182
116497,11.028,-1.548,1.884,-0.770786,-0.377605,2.090383,100011.09,-51,+66,-184
116507,11.357,-1.164,2.153,-0.677667,-0.453164,2.036108,100008.09,-54,+62,-182
116517,12.378,-1.389,2.822,-0.623924,-0.531917,2.063778,100008.09,-51,+59,-183
116527,13.412,-2.053,3.406,-0.616474,-0.585128,2.072292,100007.55,-51,+59,-183
116537,14.255,-2.543,3.399,-0.787814,-0.648981,2.122310,100008.39,-54,+54,-185
116547,15.019,-2.398,3.192,-1.034712,-0.740504,2.257998,100007.39,-56,+50,-185
116557,15.441,-1.695,2.704,-1.233721,-0.866082,2.316530,100007.97,-53,+48,-187
116567,15.695,-0.556,2.579,-1.300767,-0.948026,2.352713,100007.97,-53,+48,-187
116577,16.613,-0.298,3.510,-1.149648,-0.997513,2.272365,100008.00,-57,+43,-188
116587,18.854,-0.602,4.763,-1.385905,-1.050724,2.325044,100009.69,-56,+39,-189
116597,21.430,1.379,6.613,-1.825428,-1.049659,2.426677,100006.53,-56,+36,-192
116608,24.014,4.931,8.611,-2.419794,-1.058173,2.499576,100005.23,-57,+33,-195
116617,24.896,8.877,9.462,-2.906142,-1.095421,2.537888,100005.23,-57,+33,-195
116627,22.837,11.385,9.970,-3.132821,-1.151292,2.644310,100007.22,-56,+30,-196
116637,19.818,12.304,9.363,-2.969464,-1.171513,2.678897,100006.97,-54,+29,-198
116647,16.692,4.168,6.729,-2.620932,-1.161403,2.656016,100004.45,-56,+25,-202
116657,15.699,-7.530,1.639,-2.341574,-1.456191,2.517135,100009.48,-56,+25,-202
116667,17.027,-12.101,5.279,-1.679097,-1.573256,2.561832,100009.48,-52,+21,-205
116677,16.748,-6.181,8.785,-0.314236,-1.599151,2.668254,100007.20,-49,+18,-210
116687,14.156,0.712,9.889,0.148700,-1.422668,2.220750,100005.53,-48,+11,-215
116698,9.760,8.163,8.285,0.175837,-1.307201,1.567851,100006.11,-48,+11,-215
116707,5.795,11.014,3.908,-0.016787,-1.308797,1.411411,100002.55,-44,+8,-218
116717,0.815,4.555,1.397,-0.042328,-1.442889,1.227833,100002.55,-40,+7,-222
116727,-3.982,-5.081,3.242,0.385488,-0.886302,1.049577,100007.29,-38,+2,-225
116738,-3.012,-9.274,7.189,1.113415,0.307220,0.632402,100005.60,-38,+2,-225
116747,2.375,-7.026,8.933,1.924350,0.396615,-0.124790,100003.66,-38,-1,-223
116757,2.772,-2.988,7.080,2.055781,0.195477,-0.742569,100002.37,-35,-1,-223
116767,2.497,-1.766,3.881,0.585030,0.367349,-0.864422,100002.37,-37,-2,-224
116777,2.769,1.694,-4.277,-1.528510,-0.576614,-1.455596,100007.66,-37,-2,-224
116787,0.862,4.955,-4.793,-3.184436,-0.553201,-2.263339,100007.50,-33,+4,-225
116797,0.378,5.720,-1.216,-3.007776,-0.020027,-2.532586,100002.36,-29,+15,-227
116807,0.085,6.858,-0.430,-1.683886,0.359367,-2.832696,100005.61,-30,+21,-227
116817,1.204,5.875,1.620,-0.261557,0.927660,-3.162072,100005.61,-30,+21,-227
116828,2.565,3.585,2.953,0.863855,1.381550,-3.424402,100004.20,-29,+27,-223
116837,3.742,0.896,3.933,1.467268,1.692834,-3.538806,100001.88,-28,+31,-222
116847,5.030,-1.633,3.789,1.414057,1.879605,-3.694714,100001.26,-30,+34,-220
116857,6.110,-2.100,3.220,0.854809,1.956761,-3.991099,100000.73,-30,+34,-220
116868,6.434,-0.637,2.192,0.291305,1.926962,-4.307705,100000.73,-28,+39,-215
116877,7.296,1.039,1.524,0.420608,2.040302,-4.582806,100004.97,-26,+49,-213
116887,8.758,1.695,1.679,1.044240,2.272834,-4.695613,100002.56,-28,+53,-212
116897,10.009,1.639,2.070,1.691286,2.469182,-4.804163,100004.86,-28,+53,-212
116908,11.091,0.869,2.372,2.114845,2.579329,-4.870145,100000.78,-24,+58,-208
116917,11.978,-0.249,2.273,2.340992,2.552724,-4.869613,100000.78,-22,+63,-208
116927,12.347,-1.931,2.099,2.533615,2.475035,-4.964860,100006.30,-23,+66,-207
116937,12.941,-2.852,2.578,2.593212,2.422357,-5.119172,100003.72,-23,+66,-207
116947,14.187,-3.129,2.939,2.457524,2.346797,-5.244750,100000.53,-21,+72,-207
116958,15.805,-3.114,3.217,2.268625,2.287201,-5.370328,100005.56,-16,+78,-210
116967,17.178,-2.879,3.813,2.081322,2.260595,-5.462915,100005.56,-16,+82,-211
116977,18.465,-2.758,4.823,1.920093,2.219091,-5.529428,100004.21,-16,+82,-211
116987,19.782,-4.789,5.439,1.915304,2.221219,-5.517190,100003.73,-11,+87,-212
116998,20.792,-8.374,4.999,1.808350,2.173862,-5.450676,100004.57,-7,+93,-215
117007,20.861,-10.781,3.344,1.460882,2.020082,-5.319777,100004.52,-6,+98,-215
117017,20.273,-12.202,1.641,1.147470,1.962614,-4.999447,100004.52,-6,+98,-215
117027,19.441,-14.434,0.478,0.873433,1.889715,-4.508842,100007.30,-1,+99,-215
117038,17.887,-19.392,0.490,0.677617,1.763605,-3.975136,100009.62,+1,+104,-217
117047,14.922,-23.096,1.316,0.009287,1.457110,-3.287118,100010.15,+1,+107,-215
117057,12.938,-25.621,0.711,-0.813887,1.030890,-2.401687,100008.57,+3,+107,-213
117067,12.742,-26.266,-0.680,-1.480088,0.583917,-1.206037,100008.57,+3,+109,-213
117078,13.363,-24.435,-1.052,-1.888749,0.172597,-0.019432,100011.31,+3,+111,-213
117088,15.729,-19.368,-0.454,-2.002088,-0.211587,1.093742,100008.27,+1,+113,-211
117097,16.709,-13.583,-2.047,-1.739226,-0.614394,2.010035,100006.86,+1,+109,-210
117107,15.140,-7.389,-3.549,-0.887850,-1.197586,3.112034,100012.83,+1,+109,-210
117117,14.907,14.266,0.943,0.655268,-1.343916,3.403630,100012.83,-1,+107,-214
117128,16.383,38.876,1.935,1.326791,-1.205036,2.625686,100009.53,-5,+99,-216
117137,19.745,30.502,-11.385,0.802662,-1.145971,1.694494,100011.80,-2,+94,-218
117148,26.862,-7.056,-4.188,2.555255,-1.061366,2.881453,100012.63,-2,+94,-218
117157,22.101,-25.983,10.026,5.690091,-0.326522,4.116657,100008.33,-5,+82,-224
117168,13.467,-23.275,7.196,4.062899,-0.035990,4.283207,100008.33,-12,+65,-227
117178,9.468,-2.776,4.115,1.920093,0.146523,3.914455,100007.98,-12,+54,-227
117187,0.098,4.478,7.793,1.791322,0.052872,3.703740,100007.35,-12,+54,-227
117197,-6.302,-8.844,10.379,2.302680,-0.198284,2.866199,100008.13,-15,+46,-229
117208,6.687,-13.506,5.859,1.544424,-0.687293,2.454346,100006.41,-17,+38,-229
117218,17.071,-13.489,-0.850,-0.759080,-1.074136,2.191484,100006.41,-14,+36,-230
117227,18.228,-9.558,-0.006,-2.266015,-0.895880,1.821136,100009.77,-14,+36,-230
117237,14.133,-1.977,2.098,-3.055133,-0.600559,1.681191,100010.86,-14,+39,-230
117248,7.272,1.156,0.666,-3.054601,-0.387183,1.757282,100008.88,-15,+42,-230
117258,5.425,0.938,-1.863,-2.128198,-0.191899,1.464090,100008.19,-12,+43,-229
117267,7.776,3.115,-1.275,-0.877740,-0.009917,1.209742,100008.19,-12,+43,-229
117277,7.922,1.204,0.668,0.450406,0.119386,1.199631,100008.59,-15,+43,-229
117287,9.687,-1.586,2.690,1.357653,0.212505,1.115558,100006.18,-17,+37,-229
117298,10.567,-3.693,3.146,1.407139,0.189624,1.035210,100009.84,-15,+33,-229
117307,9.537,-5.094,2.981,0.880351,0.207184,0.904843,100006.70,-15,+33,-229
117317,9.234,-5.414,4.496,-0.011465,0.230597,0.711687,100006.70,-17,+31,-230
117327,8.976,-5.434,6.621,-0.963410,0.216230,0.467981,100012.31,-19,+30,-228
117338,8.787,-4.680,6.099,-1.835538,0.185367,0.234916,100009.58,-17,+35,-227
117348,8.849,-2.072,4.036,-2.391593,0.191221,0.065706,100006.28,-17,+35,-227
117357,8.840,0.981,1.996,-2.359666,0.216762,0.034843,100007.84,-19,+39,-228
117367,9.201,3.182,0.629,-1.667923,0.239642,0.152439,100007.84,-20,+41,-225
117378,10.179,2.814,0.472,-0.612749,0.271569,0.384971,100011.61,-17,+41,-225
117388,10.595,-0.523,2.026,0.175837,0.304028,0.552054,100010.09,-17,+41,-225
117397,10.387,-3.768,4.234,0.236498,0.297110,0.634531,100009.72,-21,+41,-225
117407,9.513,-4.485,5.695,-0.290823,0.236450,0.646769,100007.67,-23,+39,-224
117417,8.487,-3.475,6.055,-0.985226,0.148652,0.608990,100007.67,-21,+39,-223
117428,8.285,-2.203,5.727,-1.468382,0.080010,0.529173,100009.94,-21,+39,-223
117438,8.920,-1.018,4.761,-1.688675,0.025202,0.480219,100010.14,-22,+43,-223
117447,9.798,0.276,3.589,-1.634932,-0.034926,0.536091,100009.09,-23,+43,-221
117457,10.296,0.875,2.542,-1.381116,-0.099311,0.779265,100007.16,-21,+45,-221
117468,9.929,0.227,2.420,-1.101226,-0.142944,1.038402,100007.16,-21,+45,-221
117478,9.781,-0.478,2.373,-0.863905,-0.154651,1.218255,100009.20,-24,+45,-222
117487,10.155,-1.361,2.117,-0.788346,-0.192963,1.289558,100009.20,-24,+42,-220
117497,11.012,-2.274,2.024,-0.791538,-0.262669,1.234219,100011.35,-22,+43,-222
117508,12.087,-2.409,2.421,-0.738859,-0.292999,1.279980,100008.88,-22,+43,-222
117518,10.738,-2.671,2.597,-0.591465,-0.323862,1.226769,100008.88,-24,+41,-221
117527,11.613,-2.780,2.613,-0.617006,-0.404742,1.125136,100011.02,-24,+39,-221
117537,11.492,-2.295,2.501,-0.761208,-0.471256,1.285833,100011.43,-22,+40,-222
117548,10.792,-1.864,2.505,-0.881997,-0.502651,1.467815,100008.18,-23,+38,-222
117558,9.948,-1.363,2.500,-0.957024,-0.565440,1.659374,100008.34,-23,+38,-222
117567,9.866,-1.473,3.004,-0.969263,-0.671862,1.593925,100008.34,-24,+35,-222
117577,11.263,-1.209,4.548,-0.885722,-0.819256,1.521558,100010.79,-21,+35,-223
117587,12.727,-1.601,5.269,-0.847410,-0.995916,1.620530,100009.43,-22,+33,-225
117598,13.800,-1.935,4.772,-0.930951,-1.096485,1.754622,100007.55,-22,+33,-225
117608,14.336,-1.900,3.468,-1.119850,-1.175237,1.874879,100008.34,-21,+31,-225
117617,14.980,-0.989,2.378,-1.279483,-1.284320,1.941393,100008.34,-17,+31,-226
117627,15.864,-0.634,2.060,-1.349189,-1.361476,2.042493,100009.21,-17,+29,-229
117638,16.904,-0.772,2.616,-1.432731,-1.429054,2.139337,100007.79,-17,+29,-229
117648,18.541,1.017,3.959,-1.711556,-1.500356,2.210640,100008.84,-15,+27,-230
117657,20.120,3.553,5.373,-2.210675,-1.557292,2.264915,100005.90,-11,+27,-231
117667,20.874,6.674,7.020,-2.565592,-1.665843,2.389429,100005.90,-10,+28,-234
117678,21.524,9.905,8.388,-2.683721,-1.751512,2.502236,100010.23,-10,+28,-234
117688,21.195,11.976,9.227,-2.545372,-1.763751,2.670383,100007.98,-7,+27,-233
117698,19.176,9.912,9.254,-2.136712,-1.694577,2.922603,100004.88,-3,+27,-235
117707,16.883,1.852,7.919,-1.416235,-1.623274,3.187593,100005.93,-4,+23,-237
117718,16.818,-8.767,5.876,-0.584548,-1.717989,3.300401,100005.93,-4,+23,-237
117728,19.236,-12.583,6.816,-0.192383,-1.667439,3.125337,100008.20,+0,+17,-237
117738,18.956,-7.275,9.213,0.483397,-1.503549,2.954530,100006.27,+3,+13,-239
117747,15.435,-0.444,9.002,1.024020,-1.315714,2.726787,100006.16,+3,+5,-240
117757,10.957,5.590,9.590,1.187910,-0.949091,2.087191,100004.84,+3,+5,-240
117768,6.470,9.421,6.898,0.913873,-0.915036,1.572640,100004.84,+6,-1,-239
117778,2.325,4.639,3.715,0.410498,-1.170448,1.328934,100008.24,+9,-3,-240
117787,-1.427,-4.919,3.369,0.273745,-1.045935,1.068200,100003.16,+10,-7,-242
117797,-1.838,-9.534,6.283,0.483397,-0.129110,0.683485,100004.15,+10,-7,-242
117808,2.641,-9.233,8.264,0.802662,0.202395,0.099228,100003.05,+9,-9,-239
117818,3.839,-4.814,6.332,0.755305,0.022010,-0.552606,100003.05,+8,-8,-240
117828,3.462,-1.741,3.381,-0.106713,-0.191366,-0.861762,100006.60,+7,-9,-240
117837,2.130,1.123,-0.294,-1.278419,-0.645788,-1.245945,100009.96,+7,-9,-240
117848,0.676,3.116,-2.876,-2.224510,-0.672394,-1.630660,100007.18,+8,-3,-240
117854,0.104,4.367,-2.730,-2.589537,-0.457953,-1.994091,100005.66,+8,+5,-240
117863,0.075,4.861,-0.989,-2.329868,-0.144541,-2.335706,100005.66,+8,+5,-240
117872,0.335,5.237,0.285,-1.341740,0.233789,-2.722549,100005.66,+6,+9,-241
117882,0.936,4.769,1.328,-0.114695,0.635532,-2.989669,100004.77,+5,+17,-238
117893,1.860,3.046,2.333,0.901103,1.072394,-3.187081,100002.57,+3,+21,-237
117903,3.069,0.440,3.377,1.448644,1.436889,-3.326494,100001.21,+3,+21,-237
117913,3.985,-2.230,4.226,1.466735,1.693898,-3.438237,100001.21,-2,+23,-236
117923,4.233,-2.221,3.755,0.952717,1.829054,-3.636182,100002.04,-5,+29,-232
117933,4.288,0.206,2.931,0.353030,1.897696,-3.972475,100002.04,-8,+38,-229
117943,5.902,3.015,1.610,0.357287,2.025403,-4.213521,100001.10,-8,+38,-229
117953,7.652,3.875,1.613,0.930369,2.261127,-4.374751,100002.57,-13,+45,-227
117962,8.973,3.155,1.875,1.619451,2.497384,-4.483833,100005.71,-14,+52,-223
117972,9.741,2.085,1.468,2.140386,2.629347,-4.604622,100005.71,-18,+60,-223
117983,10.504,1.481,0.632,2.466570,2.681494,-4.669539,100004.40,-18,+60,-223
117993,11.259,0.577,0.370,2.799138,2.697989,-4.645595,100003.40,-22,+66,-222
118003,12.190,-0.685,1.032,3.098716,2.638925,-4.728603,100005.34,-22,+74,-218
118012,13.982,-2.572,2.660,3.216844,2.496852,-4.976035,100004.95,-23,+82,-219
118023,16.418,-4.304,3.285,3.091799,2.261127,-5.302750,100007.46,-23,+82,-219
118033,18.338,-4.072,3.052,2.678881,2.042430,-5.653943,100004.90,-23,+91,-220
118043,19.647,-2.969,4.058,2.421872,2.030192,-5.783245,100006.63,-17,+102,-219
118052,20.495,-4.191,5.673,2.550111,2.097770,-5.741741,100006.63,-11,+113,-221
118063,20.796,-7.188,6.001,2.721982,2.004118,-5.690658,100003.54,-11,+113,-221
118073,21.256,-10.453,5.247,2.770936,1.912596,-5.503888,100003.54,-7,+119,-223
118083,22.905,-13.793,3.881,2.710276,1.920577,-5.154291,100007.53,+1,+125,-223
118088,23.536,-16.046,2.659,2.527230,1.914192,-4.807888,100006.70,+1,+125,-223
118097,21.745,-17.110,1.370,2.133469,1.813623,-4.435943,100003.45,+7,+128,-227
118108,18.758,-20.952,1.656,1.583800,1.650797,-3.865521,100005.17,+7,+129,-229
118118,16.382,-26.676,2.472,1.069782,1.378357,-3.176439,100005.17,+12,+133,-227
118128,12.945,-30.007,2.598,-0.075319,0.895734,-2.213853,100008.95,+12,+133,-227
118137,11.573,-28.706,0.444,-1.389630,0.431202,-1.129945,100004.96,+14,+137,-228
118148,12.783,-25.340,-0.682,-2.171831,0.066707,0.081137,100008.99,+10,+139,-226
118158,15.434,-20.431,0.058,-2.195244,-0.275440,1.110237,100009.10,+12,+143,-221
118168,15.866,-15.697,-1.742,-1.909501,-0.709109,1.998328,100009.10,+12,+143,-221
118177,14.025,-5.955,-1.090,-1.251281,-1.237494,3.041795,100011.37,+7,+143,-223
118188,13.895,18.932,2.560,-0.025832,-1.283256,3.117887,100012.15,+1,+137,-225
118198,14.588,39.459,1.886,0.115177,-1.196522,2.018016,100004.71,+3,+137,-225
118208,16.182,25.068,-8.511,-0.099796,-1.014540,1.294347,100005.02,+3,+137,-225
118217,25.173,-3.953,-5.923,1.618387,-0.893751,2.234053,100005.02,+1,+133,-229
118227,23.037,-21.443,9.670,4.951522,-0.239788,3.501006,100009.70,-5,+119,-236
118238,14.764,-16.763,7.468,3.688826,-0.075899,4.026198,100008.70,-8,+110,-239
118248,8.568,-2.620,3.333,1.594442,0.156101,3.676602,100008.13,-8,+110,-239
118258,2.084,3.191,8.652,2.195194,0.454083,3.520694,100006.03,-14,+99,-241
118267,-1.822,-5.452,10.295,2.875230,0.152376,3.005612,100006.03,-21,+86,-242
118278,7.050,-10.942,5.532,1.784937,-0.470724,2.554915,100007.58,-20,+82,-244
118288,14.061,-10.970,1.240,-0.076383,-0.809678,2.287264,100005.48,-20,+82,-244
118298,14.940,-9.148,0.859,-1.796694,-0.755403,1.985025,100008.64,-21,+79,-246
118307,13.969,-4.712,2.287,-2.757684,-0.677183,1.806769,100007.02,-24,+80,-244
118318,9.544,-1.449,0.952,-2.938601,-0.577678,1.725356,100007.02,-21,+86,-241
118324,6.827,-0.458,-0.406,-2.701280,-0.418577,1.617870,100010.02,-21,+86,-241
118333,6.283,1.797,-0.898,-2.156400,-0.256284,1.436420,100010.02,-24,+86,-242
118343,7.138,4.441,-0.099,-0.924566,-0.041311,1.251778,100010.07,-27,+82,-240
118353,8.559,1.499,1.639,0.442956,0.149716,1.213466,100008.55,-27,+82,-240
118363,10.159,-2.031,3.000,1.183653,0.224211,1.189521,100006.82,-26,+83,-240
118373,9.917,-4.098,3.016,1.070846,0.251349,1.119283,100006.98,-29,+76,-242
118383,9.376,-4.791,3.420,0.425397,0.321587,1.007540,100008.96,-31,+72,-240
118393,9.359,-5.124,4.536,-0.396181,0.368413,0.833540,100007.76,-31,+72,-240
118403,9.344,-5.827,5.554,-1.213501,0.347129,0.614843,100007.76,-31,+76,-239
118413,9.410,-4.744,5.198,-2.045721,0.296578,0.405724,100006.29,-33,+76,-238
118423,9.468,-1.300,3.967,-2.636895,0.255074,0.295577,100006.29,-35,+81,-234
118433,9.372,2.406,2.455,-2.529941,0.169404,0.290256,100008.91,-35,+81,-234
118443,9.574,4.635,0.987,-1.614712,0.043294,0.398806,100007.08,-34,+88,-232
118453,10.076,3.548,0.736,-0.284438,0.002854,0.648898,100009.22,-35,+84,-233
118463,10.205,-0.762,2.114,0.603121,0.022542,0.855356,100006.61,-36,+81,-232
118473,10.020,-4.674,3.801,0.612167,0.024670,0.903778,100006.61,-36,+81,-232
118483,9.188,-5.810,5.012,-0.099264,-0.001403,0.840457,100009.72,-36,+82,-232
118493,8.413,-4.360,5.311,-0.944786,-0.025348,0.681889,100007.02,-38,+78,-233
118503,8.582,-2.241,4.631,-1.392822,-0.036522,0.532366,100007.86,-38,+80,-230
118513,9.234,-0.730,3.653,-1.426877,-0.040247,0.537687,100007.86,-38,+80,-230
118522,9.701,-0.367,2.678,-1.248088,-0.041844,0.651558,100007.86,-38,+85,-229
118533,9.836,-0.742,1.827,-1.052272,-0.048229,0.759045,100008.96,-40,+81,-230
118543,10.282,-0.970,1.893,-0.969263,-0.104100,0.827687,100006.65,-41,+83,-227
118553,10.428,-1.246,2.226,-0.941061,-0.218504,0.960714,100007.80,-41,+83,-227
118558,10.378,-1.228,2.206,-0.929355,-0.287678,1.026164,100004.51,-40,+85,-228
118567,10.352,-1.638,2.284,-0.919245,-0.308963,1.069797,100004.51,-42,+80,-229
118578,10.551,-2.529,2.347,-0.857520,-0.295128,1.116090,100008.08,-42,+80,-229
118588,10.883,-3.009,2.461,-0.761740,-0.264798,1.124604,100006.67,-43,+81,-226
118598,11.048,-3.010,2.634,-0.767061,-0.251495,1.113430,100009.86,-43,+83,-225
118608,11.122,-2.463,2.801,-0.916584,-0.298853,1.207613,100006.88,-45,+78,-228
118618,10.934,-1.181,2.661,-1.037905,-0.408467,1.320420,100006.88,-45,+78,-228
118628,11.232,-0.314,2.727,-0.986823,-0.520210,1.529540,100007.14,-45,+78,-225
118638,11.436,-0.369,3.157,-0.782492,-0.646320,1.745576,100011.23,-44,+78,-226
118648,12.486,-1.169,3.584,-0.574438,-0.774027,1.823264,100007.98,-45,+71,-228
118658,13.795,-2.056,3.729,-0.566456,-0.870338,1.840824,100007.92,-45,+71,-228
118668,14.607,-2.295,3.255,-0.797924,-0.962926,1.941925,100007.92,-46,+70,-227
118678,14.922,-1.316,2.550,-1.074089,-1.051788,2.052603,100009.21,-46,+70,-227
118688,15.384,-0.371,2.247,-1.184235,-1.135861,2.145190,100007.70,-46,+64,-230
118697,16.028,-0.458,2.454,-1.219887,-1.185880,2.229796,100007.27,-46,+64,-230
118708,16.738,-0.732,2.922,-1.343868,-1.221531,2.290989,100009.85,-46,+63,-229
118718,18.161,0.507,4.192,-1.693996,-1.239623,2.277154,100009.85,-45,+64,-230
118728,20.071,3.265,6.101,-2.269739,-1.277403,2.225007,100005.88,-45,+59,-233
118738,21.349,7.012,8.070,-2.744913,-1.376907,2.188291,100007.55,-45,+59,-233
118748,21.350,11.236,8.922,-2.945519,-1.482265,2.279282,100003.88,-46,+61,-231
118758,20.092,12.927,9.002,-2.722033,-1.508870,2.507025,100006.88,-45,+63,-232
118768,17.761,8.630,8.440,-2.219189,-1.457256,2.785319,100006.88,-45,+56,-235
118778,16.452,-1.274,6.066,-1.372070,-1.489714,3.096071,100007.27,-45,+56,-235
118788,17.640,-10.331,5.696,-0.525483,-1.658925,3.296676,100006.69,-46,+54,-235
118794,19.739,-11.184,7.802,-0.171630,-1.644558,3.290823,100006.95,-48,+47,-240
118803,19.555,-7.030,9.763,0.257782,-1.576980,3.176951,100006.95,-48,+47,-240
118813,16.005,0.152,9.170,0.696241,-1.510999,3.000291,100003.39,-45,+33,-244
118823,11.842,5.810,8.474,0.777653,-1.287513,2.580988,100003.39,-47,+28,-245
118834,8.432,8.043,5.546,0.508406,-1.218870,2.069099,100005.42,-47,+22,-249
118843,4.343,3.704,2.428,0.282259,-1.289109,1.756218,100005.97,-47,+22,-249
118853,0.416,-5.042,2.805,0.369525,-1.022522,1.434292,99999.88,-45,+13,-253
118863,-1.142,-8.915,7.585,0.884607,-0.156247,0.933577,99999.88,-47,+9,-252
118873,2.420,-7.676,8.817,1.237396,0.004982,0.229063,99999.88,-49,+5,-254
118883,3.415,-3.715,6.375,0.917598,-0.106761,-0.373285,100006.37,-49,+5,-254
118893,3.074,-0.916,2.848,-0.292951,-0.239788,-0.668074,100006.52,-47,-1,-255
118903,2.471,1.754,-1.418,-1.653024,-0.756467,-1.073009,100004.74,-48,+5,-256
118914,0.703,3.378,-3.511,-2.469280,-0.777219,-1.537541,100004.01,-47,+12,-259
118923,-0.262,4.000,-2.307,-2.445336,-0.446779,-2.003137,100004.01,-47,+12,-259
118933,-0.402,4.510,-0.670,-1.619501,-0.009917,-2.472458,100006.93,-45,+15,-260
118943,0.318,4.419,0.362,-0.590401,0.394486,-2.845999,100004.77,-47,+23,-258
118953,1.211,2.753,1.677,0.307800,0.794101,-3.117907,100004.96,-47,+27,-259
118964,2.053,0.379,2.971,0.890461,1.158596,-3.259980,100004.96,-47,+27,-259
118973,3.096,-1.734,3.949,0.991029,1.458174,-3.354164,100005.14,-49,+25,-255
118983,3.899,-1.658,3.904,0.633452,1.659311,-3.503155,100002.22,-53,+33,-252
118993,3.934,0.681,3.071,0.125819,1.762008,-3.784108,100002.22,-57,+37,-250
119003,4.915,3.474,1.705,0.173709,1.939733,-4.050696,99999.13,-57,+37,-250
119013,6.857,4.549,0.904,0.848424,2.164284,-4.233209,100000.17,-61,+38,-245
119023,8.548,3.313,1.473,1.603488,2.386173,-4.393374,100000.17,-66,+47,-240
119028,9.398,1.688,1.888,2.014276,2.498448,-4.499264,100002.09,-66,+47,-240
119038,9.884,0.491,2.001,2.248937,2.563898,-4.587062,100002.55,-73,+50,-236
119048,10.415,-0.144,1.810,2.385157,2.603274,-4.679649,100002.66,-80,+52,-228
119058,11.012,-0.194,1.197,2.505414,2.621366,-4.778622,100000.73,-85,+65,-221
119068,11.747,-0.240,0.752,2.706551,2.633604,-4.906328,100000.73,-85,+65,-221
119078,13.059,-0.363,0.918,2.875230,2.610191,-5.050530,100003.55,-88,+74,-214
119089,14.921,-1.084,1.768,2.887468,2.497384,-5.236236,100001.51,-89,+84,-203
119098,16.917,-2.970,3.079,2.655469,2.315403,-5.482071,100003.49,-81,+101,-197
119108,18.531,-4.799,4.480,2.102607,2.140871,-5.753979,100001.29,-81,+101,-197
119118,19.268,-5.051,5.331,1.377341,2.007843,-5.954585,100001.29,-74,+112,-192
119129,19.359,-4.438,5.654,0.912809,2.033384,-6.001942,100004.85,-66,+124,-183
119138,19.877,-5.157,6.122,0.824479,2.140338,-5.922126,100005.16,-54,+138,-178
119148,20.650,-8.095,5.937,0.948461,2.156834,-5.659264,100003.13,-54,+138,-178
119158,21.977,-12.576,4.471,1.059672,2.119054,-5.226126,100004.34,-46,+147,-175
119169,22.639,-15.765,1.407,0.774461,2.032852,-4.759466,100004.34,-39,+154,-168
119178,20.340,-17.569,-1.439,0.179562,1.882797,-4.224164,100009.03,-31,+164,-166
119188,17.535,-21.243,-1.863,0.044406,1.772119,-3.546255,100008.36,-31,+164,-166
119198,14.625,-25.386,-0.819,-0.128530,1.410284,-2.604953,100008.98,-26,+169,-163
119208,12.297,-27.419,-0.396,-0.412676,0.769624,-1.425266,100008.20,-24,+171,-157
119218,12.927,-25.906,-1.830,-1.045887,0.181643,-0.057744,100008.20,-22,+174,-157
119228,16.301,-21.304,-1.485,-1.387501,-0.227550,1.216127,100011.30,-22,+174,-157
119238,16.017,-18.300,-3.495,-1.102823,-0.721880,2.227135,100009.26,-26,+172,-154
119248,15.405,-8.051,-3.051,-0.276456,-1.323164,3.226438,100009.26,-33,+165,-152
119259,16.658,22.054,4.219,1.268259,-1.460448,3.307318,100003.91,-36,+160,-160
119268,18.810,46.608,0.029,1.520479,-1.128412,1.917980,100003.91,-36,+160,-160
119278,21.487,15.059,-15.784,-0.752162,-0.961329,1.533264,100010.53,-40,+156,-161
119288,24.555,-19.320,3.960,2.392606,-0.637806,3.253043,100013.36,-45,+150,-160
119299,19.410,-24.598,11.810,5.443724,0.155569,4.240639,100006.66,-53,+139,-172
119308,17.342,-13.238,6.036,1.929139,-0.100908,4.238510,100007.66,-53,+139,-172
119318,9.886,2.767,0.625,0.970277,-0.496797,4.206583,100007.66,-60,+129,-173
119328,-5.441,3.852,7.250,2.408038,0.091716,3.461630,100006.33,-67,+119,-172
119339,-7.707,-8.452,12.391,3.276973,0.092780,2.744346,100004.91,-70,+113,-179
119349,9.921,-15.229,2.440,1.846130,-0.641531,2.511814,100006.17,-70,+113,-179
119358,19.033,-16.763,-2.674,-1.306620,-0.835219,2.270768,100010.31,-73,+103,-181
119368,18.508,-8.084,2.354,-3.480289,-0.315880,1.722695,100010.31,-75,+102,-176
119378,12.736,-0.893,2.562,-4.189591,-0.258412,1.468347,100009.14,-76,+104,-175
119389,6.687,1.192,-1.187,-3.378124,-0.139752,1.362457,100011.56,-76,+104,-175
119398,6.584,3.593,-0.639,-2.220253,0.160358,1.145888,100007.25,-78,+102,-171
119408,7.169,3.598,1.148,-0.887850,0.330633,1.049577,100005.69,-80,+100,-167
119418,8.316,0.501,2.135,0.506809,0.373202,0.992641,100005.69,-81,+99,-168
119429,10.761,-1.310,2.232,1.063396,0.376395,0.963375,100009.72,-84,+95,-168
119438,10.597,-3.222,2.861,0.882479,0.418431,0.939430,100008.98,-84,+95,-168
119448,9.809,-5.844,6.415,0.093892,0.425349,0.835136,100009.52,-84,+92,-165
119458,8.893,-6.591,7.707,-0.964474,0.239642,0.483412,100005.69,-85,+92,-167
119469,8.556,-4.962,6.005,-1.920143,0.148120,0.114128,100005.69,-86,+92,-163
119479,8.411,-1.992,5.120,-2.686913,0.210909,-0.085946,100007.81,-86,+92,-163
119488,8.157,1.393,3.357,-2.816748,0.164615,-0.142349,100008.92,-85,+95,-158
119498,9.367,4.017,1.519,-2.072327,0.103422,-0.029542,100008.39,-85,+99,-159
119508,10.767,3.440,1.434,-0.933612,0.080542,0.219485,100009.13,-87,+96,-157
119519,10.479,-0.030,3.144,-0.089686,0.037441,0.445100,100009.13,-87,+96,-157
119528,9.772,-2.927,4.816,-0.006144,-0.039715,0.606329,100009.80,-87,+96,-156
119538,8.805,-3.167,5.674,-0.574970,-0.123256,0.829283,100007.81,-87,+95,-158
119548,7.768,-1.622,5.789,-1.143795,-0.202009,1.001155,100007.13,-89,+92,-155
119559,7.030,-0.855,5.302,-1.587574,-0.366963,0.752659,100004.09,-89,+92,-155
119568,7.969,1.162,4.535,-1.529042,-0.419109,0.542476,100004.09,-89,+92,-153
119578,9.139,1.503,3.864,-1.141667,-0.423366,0.749467,100008.09,-89,+93,-156
119588,9.744,0.483,2.742,-0.728749,-0.447843,1.025100,100008.04,-92,+88,-155
119599,10.065,-0.629,2.250,-0.453649,-0.451568,1.207613,100010.18,-92,+88,-155
119609,10.106,-1.771,2.598,-0.327006,-0.494669,1.277320,100009.09,-91,+86,-154
119619,10.176,-2.747,2.633,-0.416401,-0.552669,1.202824,100009.09,-92,+84,-158
119628,10.289,-3.085,2.733,-0.596786,-0.518082,1.121411,100010.64,-94,+79,-157
119639,10.883,-2.963,2.018,-0.696823,-0.474981,1.036274,100010.53,-94,+79,-157
119649,11.462,-2.332,1.705,-0.692566,-0.436669,1.000623,100005.30,-94,+80,-157
119658,11.672,-1.968,1.871,-0.690970,-0.473917,1.161320,100007.70,-94,+78,-159
119668,11.260,-1.571,2.142,-0.704804,-0.559054,1.333191,100007.70,-96,+72,-158
119678,11.207,-0.863,2.458,-0.666493,-0.633017,1.557741,100009.43,-96,+72,-158
119689,11.127,-0.588,2.546,-0.649997,-0.663880,1.885521,100010.70,-97,+70,-158
119698,11.324,-2.769,2.682,-0.649465,-0.725605,1.906805,100007.54,-98,+66,-162
119708,11.922,-2.410,3.281,-0.771318,-0.807017,1.697686,100006.34,-99,+60,-162
119718,12.913,-1.906,3.972,-1.009703,-0.943237,1.735998,100006.34,-99,+60,-162
119729,14.072,-1.045,3.623,-1.232657,-1.044338,1.898292,100010.39,-100,+58,-163
119739,15.135,-0.782,2.998,-1.401868,-1.156614,2.042493,100008.14,-101,+55,-167
119748,15.170,1.038,2.155,-1.078878,-1.228448,2.239374,100005.78,-102,+47,-167
119758,15.796,0.020,1.953,-0.942658,-1.336467,2.275025,100004.38,-102,+47,-167
119769,17.608,-0.570,2.536,-1.124639,-1.436503,2.332493,100004.38,-101,+45,-169
119779,18.648,0.389,4.220,-1.341208,-1.504081,2.396346,100008.43,-101,+41,-175
119788,20.674,3.081,6.401,-1.674840,-1.547182,2.353245,100008.85,-102,+33,-175
119798,22.461,6.285,9.080,-2.181941,-1.650944,2.365484,100004.38,-102,+33,-175
119809,22.288,9.731,10.691,-2.469813,-1.794081,2.459135,100004.07,-102,+31,-179
119819,21.005,11.816,11.395,-2.426712,-1.831861,2.637924,100004.07,-101,+29,-184
119829,19.513,11.341,11.537,-2.170235,-1.749916,2.858218,100006.80,-101,+22,-185
119838,17.276,4.955,9.013,-1.851501,-1.660522,3.013594,100004.48,-101,+22,-185
119848,16.686,-5.767,5.703,-1.218290,-1.798870,3.152474,100002.45,-100,+18,-188
119855,18.274,-11.131,5.084,-0.782492,-1.873365,3.155667,100002.34,-99,+13,-193
119864,19.830,-10.277,7.905,-0.221117,-1.773329,3.057227,100002.34,-99,+13,-193
119874,18.105,-3.763,9.582,0.792552,-1.654136,2.780529,100002.34,-96,+3,-195
119883,13.964,3.677,9.336,1.245378,-1.405641,2.342603,100006.97,-94,+0,-198
119894,9.483,9.440,6.609,1.150130,-1.083182,1.949374,100003.72,-92,-4,-202
119904,4.257,7.783,3.763,0.388149,-1.108192,1.710989,100005.50,-92,-4,-202
119914,-0.685,-2.628,1.989,0.042278,-1.132669,1.474732,100005.50,-89,-10,-203
119924,-3.788,-9.447,5.937,0.444553,-0.364302,1.059687,100005.90,-87,-10,-205
119933,0.279,-9.442,7.795,1.211323,-0.032266,0.320586,100005.90,-87,-10,-205
119944,2.486,-5.218,6.017,1.349671,-0.163697,-0.481835,100004.59,-87,-10,-205
119954,2.817,-2.440,3.171,0.288112,-0.089201,-0.883046,100005.95,-86,-12,-204
119963,2.945,0.222,-1.603,-1.352914,-0.641531,-1.364605,100003.49,-85,-4,-206
119973,1.215,2.807,-5.013,-2.745445,-0.942705,-2.015376,100003.49,-82,+5,-210
119984,-0.034,4.864,-4.078,-3.123243,-0.561715,-2.484164,100010.24,-82,+5,-210
119994,-0.545,6.650,-1.574,-2.265482,-0.110486,-2.816201,100004.70,-80,+15,-209
120004,-0.790,6.602,0.920,-0.664364,0.382780,-2.997118,100004.95,-78,+26,-209
120013,-0.583,4.707,2.877,1.045305,0.945752,-3.047668,100005.20,-77,+31,-208
120024,0.604,1.833,4.438,2.355359,1.433697,-3.067357,100002.74,-77,+31,-208
120034,2.327,-2.313,5.033,2.835854,1.733275,-3.191338,100001.85,-77,+34,-203
120044,3.503,-3.814,4.781,2.358551,1.845550,-3.432384,100001.79,-77,+41,-202
120053,3.343,-1.838,4.257,1.339029,1.841293,-3.806989,100001.79,-76,+47,-198
120064,4.050,1.733,2.943,0.776589,1.973788,-4.198090,100002.26,-76,+47,-198
120074,6.190,3.730,2.582,0.964956,2.277091,-4.500329,100002.26,-74,+54,-190
120084,8.348,3.276,2.598,1.346479,2.519733,-4.680182,100004.63,-71,+66,-187
120089,9.554,2.176,2.367,1.510901,2.611256,-4.764255,100004.25,-71,+66,-187
120098,10.170,1.047,1.856,1.530057,2.660742,-4.802035,100001.17,-68,+74,-183
120109,10.343,0.347,0.546,1.495469,2.691604,-4.804163,100002.95,-63,+80,-175
120119,10.573,-0.193,-0.564,1.636479,2.713421,-4.910053,100002.95,-57,+92,-173
120129,12.068,-0.328,-0.242,1.883910,2.764503,-5.088842,100002.55,-57,+92,-173
120138,14.707,-0.800,1.166,1.996185,2.695329,-5.217612,100005.60,-51,+98,-170
120148,17.883,-3.022,2.484,1.983946,2.432999,-5.387355,100004.38,-45,+103,-166
120159,20.438,-5.182,3.243,1.737579,2.162155,-5.654475,100003.71,-37,+111,-167
120169,20.803,-4.888,4.191,1.289011,2.081274,-5.895520,100003.71,-37,+111,-167
120178,20.297,-3.171,5.949,1.110754,2.178650,-6.002474,100004.38,-31,+119,-166
120188,20.580,-4.233,7.318,1.515690,2.367549,-5.905098,100002.91,-24,+125,-163
120199,21.227,-7.869,6.730,2.013212,2.444705,-5.639043,100003.13,-17,+131,-166
120209,22.479,-12.753,4.779,2.191469,2.430871,-5.204309,100008.74,-17,+131,-166
120218,23.017,-16.630,0.648,2.013212,2.334026,-4.686567,100008.74,-12,+135,-168
120228,21.726,-17.256,-3.033,1.320405,2.087127,-4.166163,100007.42,-9,+139,-167
120239,18.901,-19.946,-2.344,0.926644,1.849275,-3.587228,100009.00,-5,+143,-168
120249,14.937,-24.856,0.777,0.501488,1.393788,-2.813540,100008.27,-5,+143,-168
120259,12.093,-29.506,0.991,-0.445667,0.674908,-1.763688,100007.11,-4,+145,-169
120268,11.682,-26.996,-1.946,-1.637061,0.100230,-0.440863,100007.11,-4,+147,-164
120279,13.624,-20.262,-3.001,-1.892473,-0.197752,0.983595,100010.28,-5,+147,-164
120289,16.725,-14.203,-1.716,-1.280547,-0.522339,2.102622,100010.91,-5,+147,-164
120299,15.743,-9.014,-3.594,-0.580291,-1.116705,2.866731,100008.03,-11,+142,-163
120308,12.949,3.420,0.481,0.631855,-1.448742,3.502603,100008.45,-15,+136,-163
120318,13.338,26.969,6.380,1.875928,-1.125219,3.174291,100008.45,-19,+129,-170
120329,15.251,32.585,-0.777,0.748919,-1.017733,1.882328,100012.27,-23,+129,-172
120339,22.624,11.432,-12.676,-0.242401,-1.112981,1.737062,100010.64,-23,+125,-172
120349,29.817,-13.463,1.125,1.862625,-0.849054,3.164713,100009.69,-28,+120,-172
120358,21.016,-22.191,9.630,3.972440,-0.364302,4.053868,100006.70,-33,+109,-180
120369,10.440,-12.225,5.630,1.986607,-0.352064,3.887850,100006.70,-39,+100,-182
120379,5.037,3.152,4.408,1.295928,-0.343018,3.666492,100012.48,-39,+100,-182
120389,-3.942,1.916,7.026,2.349505,-0.099844,3.165245,100009.66,-43,+92,-182
120398,-2.874,-7.372,8.225,3.016239,-0.078027,2.543209,100006.14,-47,+86,-188
120409,10.260,-9.261,4.058,2.100478,-0.524999,2.341007,100009.23,-49,+75,-190
120419,16.546,-11.033,-0.965,0.315782,-0.811274,2.032915,100009.23,-49,+75,-190
120429,17.123,-9.815,1.414,-1.091116,-0.586724,1.794530,100008.08,-50,+74,-188
120438,14.113,-4.097,2.088,-2.082437,-0.535641,1.681723,100008.34,-51,+73,-190
120449,8.395,-2.084,-0.129,-2.449592,-0.442522,1.627448,100010.66,-52,+71,-188
120459,6.239,-0.751,-0.978,-2.074987,-0.234999,1.434292,100006.45,-52,+71,-188
120469,6.784,1.848,-0.540,-1.294382,-0.068449,1.136310,100006.45,-52,+70,-186
120479,8.765,1.798,0.722,-0.168438,0.140670,1.018714,100010.16,-53,+70,-188
120488,10.410,-1.274,2.538,0.507874,0.257202,0.979338,100006.97,-55,+66,-186
120499,10.300,-2.815,3.648,0.487654,0.217294,0.910164,100007.81,-55,+66,-186
120509,9.353,-2.958,3.399,0.064094,0.169936,0.818641,100006.02,-56,+64,-184
120519,9.415,-3.329,3.851,-0.380217,0.143331,0.682421,100006.02,-57,+64,-187
120528,9.391,-3.991,5.160,-0.839428,0.066707,0.512678,100010.27,-57,+62,-185
120539,8.799,-3.206,5.700,-1.434859,-0.019495,0.391357,100009.48,-57,+62,-185
120549,8.456,-1.280,4.906,-1.938767,-0.031733,0.321118,100008.49,-57,+63,-182
120559,8.868,0.677,2.781,-2.008473,-0.018076,0.299302,100005.87,-57,+66,-184
120568,9.807,1.866,1.237,-1.605666,-0.010449,0.336549,100005.87,-58,+66,-182
120579,10.609,2.093,0.975,-0.854859,-0.015238,0.466916,100008.82,-58,+66,-182
120589,10.413,0.899,2.056,-0.173759,-0.038651,0.639852,100009.60,-58,+66,-180
120599,9.555,-1.141,3.601,0.125819,-0.049825,0.779265,100007.46,-58,+65,-183
120609,8.878,-2.782,4.468,-0.056695,-0.051422,0.829283,100007.98,-59,+61,-182
120619,9.001,-3.125,4.795,-0.541979,-0.065256,0.760641,100007.98,-59,+61,-182
120629,9.010,-2.344,4.523,-0.955960,-0.091862,0.703705,100007.73,-60,+62,-180
120639,9.279,-1.377,3.970,-1.121446,-0.096119,0.648366,100008.26,-60,+62,-183
120649,9.772,-0.685,3.230,-1.232125,-0.136027,0.748402,100008.15,-62,+60,-180
120658,9.862,0.206,2.178,-1.221483,-0.187642,0.958586,100004.74,-62,+60,-180
120669,9.887,0.546,1.725,-0.934676,-0.200412,1.133650,100004.74,-61,+60,-180
120679,10.070,-0.637,2.185,-0.546768,-0.184449,1.227833,100009.48,-62,+59,-182
120689,10.181,-2.081,2.692,-0.397777,-0.147201,1.232090,100008.23,-64,+55,-180
120698,10.801,-3.349,2.636,-0.479190,-0.125917,1.143228,100007.44,-64,+55,-180
120709,11.858,-3.691,2.165,-0.678199,-0.146669,1.035742,100005.88,-64,+54,-179
120719,12.088,-3.071,2.445,-0.904346,-0.159972,1.007540,100005.88,-65,+53,-182
120729,12.122,-2.123,2.418,-1.097501,-0.189238,1.110769,100008.94,-66,+50,-180
120739,11.911,-0.868,1.717,-1.175189,-0.249898,1.269870,100011.52,-66,+50,-180
120749,11.822,0.049,1.085,-1.098566,-0.327054,1.474200,100010.09,-66,+50,-180
120759,11.861,0.160,1.260,-0.902217,-0.422834,1.685980,100009.31,-66,+49,-182
120769,12.109,-0.262,2.484,-0.748970,-0.550541,1.841356,100009.31,-68,+43,-181
120779,12.677,-0.653,3.302,-0.746841,-0.681439,1.910530,100009.04,-68,+43,-181
120788,13.662,-0.545,3.729,-0.819740,-0.786797,1.958420,100007.73,-68,+41,-182
120795,14.302,-0.520,3.715,-0.894236,-0.877256,2.075484,100007.84,-69,+38,-187
120804,14.851,-0.617,3.662,-0.974584,-0.972504,2.200530,100007.84,-69,+38,-187
120814,15.525,-1.051,3.441,-1.079410,-1.104467,2.362291,100006.63,-70,+32,-185
120824,16.404,-1.042,3.929,-1.258731,-1.189072,2.474566,100006.63,-71,+29,-189
120835,17.618,-0.769,4.380,-1.563630,-1.233769,2.542144,100007.66,-71,+26,-193
120844,19.362,0.743,5.433,-1.995171,-1.238026,2.540016,100005.22,-71,+26,-193
120854,21.265,4.492,7.091,-2.606033,-1.258247,2.453814,100003.91,-71,+21,-194
120864,21.293,8.668,9.097,-3.087060,-1.364136,2.439447,100003.91,-71,+23,-198
120873,19.739,11.950,10.360,-3.177519,-1.483329,2.569814,100003.91,-71,+21,-203
120884,18.942,13.055,11.174,-2.776840,-1.513659,2.759777,100008.39,-71,+21,-203
120894,18.045,8.202,9.894,-2.266015,-1.474815,2.865667,100004.05,-71,+17,-204
120904,16.784,-2.141,6.961,-1.473703,-1.622742,3.086493,100004.09,-71,+15,-208
120914,18.761,-9.648,4.927,-0.988951,-1.780246,3.182805,100007.61,-71,+9,-215
120924,19.952,-8.940,8.489,-0.251447,-1.681806,3.223245,100007.61,-71,+9,-215
120934,17.043,-2.434,9.200,0.801066,-1.499292,3.078511,100006.63,-69,+0,-218
120944,12.970,4.273,9.105,1.069250,-1.214614,2.663998,100006.94,-68,-4,-222
120954,8.596,8.855,6.041,0.774993,-1.048063,2.159558,100004.69,-68,-10,-229
120964,3.422,6.841,2.989,0.182755,-1.144375,1.641815,100004.69,-68,-10,-229
120974,-1.534,-2.489,1.854,0.024718,-1.034228,1.284237,100006.22,-66,-15,-230
120984,-3.760,-8.656,4.101,0.206700,-0.209458,0.735100,100007.38,-66,-13,-234
120994,0.869,-9.163,6.599,0.543525,0.218358,0.056660,100007.38,-68,-15,-236
121004,3.873,-4.852,5.267,0.753176,0.000725,-0.674459,100002.88,-68,-15,-236
121014,3.497,-2.456,2.895,0.196589,-0.132834,-1.070881,100005.39,-68,-15,-235
121024,2.130,-1.194,0.757,-0.826126,-0.274376,-1.316715,100005.39,-69,-8,-240
121029,0.734,0.388,-1.739,-1.571079,-0.394100,-1.597137,100007.39,-69,-8,-240
121039,-0.404,2.331,-2.993,-2.270271,-0.248302,-1.962697,100006.97,-68,-1,-245
121049,-0.615,5.023,-1.527,-2.731611,0.083734,-2.436807,100005.66,-68,+8,-245
121059,-0.103,6.171,0.171,-2.099996,0.461000,-2.747026,100001.73,-68,+22,-246
121069,0.604,5.044,1.331,-0.871355,0.857422,-2.990201,100001.73,-68,+22,-246
121079,1.586,3.093,1.816,0.230645,1.299605,-3.215815,100003.34,-70,+31,-247
121089,2.861,1.302,2.732,0.823947,1.686449,-3.364806,100002.76,-72,+35,-244
121099,4.047,-0.905,3.170,0.856406,1.916852,-3.422806,100001.29,-75,+47,-244
121109,4.062,-1.158,3.176,0.527030,2.032320,-3.536145,100001.40,-75,+47,-244
121119,4.313,0.650,2.545,0.191268,2.181843,-3.780916,100001.40,-75,+54,-243
121129,6.391,2.639,1.546,0.270553,2.404797,-4.107100,100001.78,-77,+62,-238
121139,8.878,3.182,0.955,0.719121,2.601678,-4.343888,100000.20,-77,+76,-237
121149,9.957,2.667,0.608,1.229947,2.720338,-4.437540,100002.98,-77,+76,-237
121159,10.267,2.037,0.581,1.618919,2.805476,-4.488622,100000.36,-78,+84,-236
121169,10.718,1.360,0.261,1.987671,2.843256,-4.551943,100000.36,-79,+92,-233
121179,11.442,0.356,0.321,2.394203,2.847512,-4.641870,100004.20,-78,+101,-232
121189,12.393,-0.637,0.748,2.700698,2.809733,-4.780218,100004.13,-78,+101,-232
121199,14.138,-1.865,1.385,2.812441,2.715549,-4.956347,100001.46,-77,+108,-233
121209,16.230,-3.564,2.210,2.818826,2.552191,-5.160676,99999.84,-75,+117,-232
121219,17.919,-4.329,3.174,2.674624,2.395751,-5.374585,99999.84,-70,+126,-235
121229,18.968,-3.906,4.680,2.359616,2.315935,-5.502823,100006.34,-70,+126,-235
121239,19.228,-3.614,6.324,2.154221,2.320192,-5.515062,100002.36,-66,+135,-236
121249,19.714,-4.245,6.837,2.222863,2.327109,-5.443227,100004.08,-61,+144,-235
121260,20.663,-7.779,6.092,2.503817,2.321256,-5.216548,100001.25,-54,+152,-239
121269,21.875,-12.782,4.358,2.654937,2.280283,-4.935062,100001.25,-50,+152,-241
121279,22.780,-16.451,1.014,2.448478,2.203127,-4.604622,100003.20,-50,+158,-241
121289,21.342,-16.326,-2.648,1.780148,2.009972,-4.210329,100005.47,-46,+163,-240
121299,18.295,-18.843,-1.921,1.223561,1.756687,-3.636182,100007.41,-40,+170,-244
121309,15.310,-24.650,0.775,0.914406,1.455513,-2.906127,100005.88,-38,+172,-243
121319,12.654,-29.490,2.013,-0.013062,0.875514,-1.931834,100005.88,-38,+172,-243
121329,12.112,-27.358,-0.486,-1.146456,0.325844,-0.797376,100010.83,-37,+177,-239
121339,13.075,-22.604,-0.998,-1.750400,-0.016302,0.489797,100009.30,-37,+180,-238
121350,15.251,-18.560,-0.442,-1.592896,-0.360045,1.572108,100008.36,-42,+179,-235
121359,16.350,-12.855,-2.137,-1.126235,-0.780412,2.391025,100007.05,-42,+179,-235
121369,14.121,-2.218,-1.211,-0.386603,-1.274210,3.215263,100007.05,-46,+174,-235
121379,13.343,20.773,4.232,0.832993,-1.172577,3.115227,100009.74,-50,+166,-241
121390,14.243,36.359,2.440,0.416351,-1.028907,1.957888,100004.82,-54,+162,-242
121399,17.482,20.404,-10.143,-0.417997,-1.001238,1.287962,100009.07,-54,+162,-242
121409,26.717,-5.873,-2.471,0.969213,-0.775091,2.352713,100012.79,-55,+159,-241
121419,24.209,-20.566,9.348,3.996385,-0.087073,3.717043,100012.79,-61,+145,-250
121430,17.530,-17.267,3.726,2.657597,0.072028,4.060785,100010.41,-69,+131,-251
121439,10.647,-0.523,2.297,1.266130,-0.026944,4.022473,100008.01,-69,+131,-251
121449,-1.031,5.299,8.166,1.629561,0.122578,3.780364,100005.59,-76,+118,-250
121459,-8.256,-4.485,11.085,2.328753,0.121514,2.872585,100006.70,-80,+106,-255
121469,3.284,-8.804,5.990,2.149964,-0.352596,2.560768,100006.70,-84,+95,-256
121480,14.107,-10.546,-0.616,0.661653,-0.865017,2.355374,100011.02,-84,+95,-256
121489,18.152,-11.442,-1.015,-0.844749,-0.918228,1.970659,100010.71,-84,+91,-256
121499,17.489,-5.751,2.270,-1.784987,-0.690663,1.695558,100009.04,-84,+89,-259
121509,11.212,-2.032,2.338,-2.323482,-0.633550,1.648732,100007.30,-84,+90,-257
121519,5.765,-0.254,0.352,-2.262822,-0.487752,1.543374,100007.30,-84,+90,-257
121529,5.237,2.232,-0.093,-1.650896,-0.273311,1.288494,100006.72,-86,+92,-254
121539,6.924,4.440,0.618,-0.461630,-0.020027,1.234219,100008.23,-86,+90,-255
121549,9.107,1.397,2.502,0.768075,0.201331,1.221448,100006.09,-88,+84,-255
121560,10.730,-2.575,3.574,1.327323,0.207716,1.157595,100007.98,-88,+84,-255
121569,10.241,-4.577,3.468,1.093727,0.163551,1.093742,100007.98,-90,+80,-254
121579,9.407,-4.841,4.034,0.384424,0.116725,0.962311,100009.34,-90,+76,-257
121589,9.188,-4.555,4.607,-0.407355,0.045955,0.749999,100008.39,-92,+73,-254
121600,8.972,-4.659,5.120,-1.084731,0.026266,0.530769,100009.13,-92,+73,-254
121610,8.917,-3.948,4.455,-1.719538,0.032120,0.332293,100006.30,-92,+75,-252
121619,9.230,-1.091,3.193,-2.084565,0.048083,0.204586,100006.30,-93,+80,-254
121629,9.449,1.296,1.673,-1.921739,0.047551,0.242366,100010.03,-93,+82,-249
121639,9.925,2.313,0.742,-1.201263,0.056065,0.373265,100006.78,-93,+82,-249
121650,10.328,1.582,0.960,-0.333392,0.059257,0.562164,100007.73,-94,+84,-249
121659,10.273,-1.270,2.569,0.222131,0.083734,0.720201,100003.11,-94,+82,-250
121669,9.718,-4.261,4.391,0.111984,0.107679,0.769687,100003.11,-96,+79,-248
121679,8.868,-5.149,5.342,-0.582951,0.128964,0.686146,100007.91,-96,+79,-248
121690,8.869,-3.483,5.275,-1.320987,0.138542,0.569614,100008.48,-96,+79,-246
121699,8.985,-1.449,4.379,-1.646639,0.139074,0.491393,100006.03,-98,+82,-247
121709,9.989,-0.535,3.837,-1.693996,0.092780,0.535558,100005.81,-99,+82,-244
121719,10.446,0.148,3.184,-1.713684,-0.042908,0.774476,100005.81,-99,+82,-244
121730,10.127,0.764,2.677,-1.520529,-0.188706,1.031485,100012.96,-99,+84,-241
121735,10.057,0.701,2.453,-1.223079,-0.271715,1.199631,100010.29,-100,+84,-243
121744,10.143,0.088,2.283,-0.895300,-0.295660,1.385870,100010.29,-100,+84,-243
121754,10.435,-2.385,2.003,-0.722896,-0.293532,1.471007,100010.23,-101,+80,-242
121764,10.684,-3.818,1.995,-0.746841,-0.316412,1.238476,100006.15,-101,+80,-241
121775,10.782,-3.498,2.177,-0.873483,-0.323330,1.070861,100006.15,-101,+78,-244
121785,10.689,-2.896,2.335,-0.966070,-0.316944,1.061283,100007.38,-101,+78,-244
121794,11.236,-2.232,2.429,-1.026731,-0.329715,1.156531,100011.13,-102,+76,-240
121804,11.481,-0.740,2.426,-1.003850,-0.386651,1.408751,100007.30,-103,+76,-240
121815,11.700,0.941,2.835,-0.895300,-0.458486,2.212236,100007.30,-104,+72,-244
121825,10.323,-1.184,3.192,-0.789410,-0.613862,2.635796,100007.30,-104,+72,-244
121834,10.160,-2.017,3.383,-0.717043,-0.748485,2.361759,100010.94,-105,+64,-242
121844,11.975,-2.324,3.732,-0.735667,-0.852247,1.960016,100006.06,-105,+61,-244
121854,13.516,-2.367,3.794,-0.808034,-0.932063,1.830714,100008.89,-105,+58,-247
121865,14.230,-2.201,3.296,-0.937869,-1.010816,1.960548,100007.38,-105,+58,-247
121875,14.612,-1.935,2.572,-1.104419,-1.099146,2.039301,100007.38,-105,+53,-247
121884,15.293,-1.039,2.153,-1.228400,-1.165659,2.032915,100006.09,-103,+52,-249
121894,15.890,-0.564,2.503,-1.250749,-1.209292,2.020145,100006.49,-101,+49,-253
121905,16.942,-0.331,3.207,-1.320455,-1.244944,2.076548,100005.55,-101,+49,-253
121915,18.375,1.108,4.748,-1.594492,-1.282191,2.139869,100005.55,-100,+45,-252
121924,19.997,3.902,7.106,-2.058492,-1.347109,2.141998,100006.81,-99,+45,-255
121934,20.987,7.799,9.387,-2.440014,-1.452467,2.173392,100006.81,-97,+45,-259
121945,20.862,10.942,10.014,-2.491629,-1.558356,2.344200,100007.50,-95,+45,-259
121955,19.802,10.081,9.589,-2.157996,-1.587622,2.559172,100004.77,-95,+43,-259
121964,18.062,4.096,8.933,-1.643446,-1.648283,2.689539,100003.94,-92,+43,-262
121970,17.486,-3.137,7.641,-1.044290,-1.798870,2.747007,100003.94,-92,+43,-262
121979,18.750,-8.792,6.609,-0.810694,-1.865916,2.709759,100005.57,-89,+39,-267
121990,21.167,-9.093,8.028,-0.236016,-1.794081,2.754456,100002.68,-87,+33,-267
122000,19.584,-4.210,9.303,0.815965,-1.644558,2.884291,100006.51,-84,+27,-271
122009,15.475,1.206,9.634,1.345415,-1.490246,2.503300,100005.46,-84,+27,-271
122019,10.824,7.228,8.241,1.379470,-1.343916,1.858383,100005.46,-80,+20,-275
122030,6.289,8.298,5.073,0.909084,-1.587090,1.524751,100005.98,-77,+15,-275
122040,1.220,1.047,2.374,0.763286,-1.730760,1.332659,100005.36,-70,+14,-280
122049,-3.154,-6.146,5.502,1.029341,-1.030504,0.975613,100001.73,-70,+14,-280
122059,-1.273,-7.589,8.087,1.299653,0.042762,0.515870,100004.52,-67,+11,-281
122070,3.336,-5.408,8.008,1.079892,0.262523,0.011962,100004.52,-68,+11,-277
122080,4.414,-1.855,4.124,0.035360,-0.170614,-0.358386,100004.87,-64,+15,-280
122089,3.237,1.172,-0.692,-1.416235,-0.683036,-0.937321,100005.24,-64,+15,-280
122099,1.596,3.528,-3.517,-2.718308,-0.703788,-1.469431,100003.62,-59,+27,-282
122109,0.888,4.905,-2.234,-3.039170,-0.293532,-1.907357,100001.21,-54,+39,-279
122120,0.688,5.287,-0.614,-2.333060,0.144927,-2.370825,100001.21,-50,+55,-279
122130,1.111,5.342,0.468,-1.205520,0.564762,-2.684770,100004.09,-50,+55,-279
122139,1.712,4.257,1.498,-0.126401,1.004284,-2.925283,100001.84,-47,+64,-277
122149,2.823,2.000,2.470,0.634516,1.379422,-3.149834,100001.10,-44,+72,-272
122160,4.532,-0.568,3.164,0.872901,1.622064,-3.314788,99998.74,-42,+82,-270
122170,5.157,-0.891,3.149,0.470094,1.731678,-3.472824,99998.74,-42,+82,-270
122179,4.344,1.287,2.324,-0.099264,1.805641,-3.743136,100000.02,-36,+90,-268
122189,5.189,4.248,0.791,0.136993,1.991348,-4.104971,100001.02,-32,+99,-262
122200,7.115,5.656,0.434,1.036259,2.255274,-4.386457,100001.22,-24,+111,-261
122205,8.558,5.052,1.098,1.763121,2.437788,-4.538640,100000.95,-24,+111,-261
122215,9.611,3.127,1.327,2.296827,2.504834,-4.609943,100000.95,-15,+115,-261
122224,10.409,0.746,1.530,2.714001,2.500577,-4.706787,100000.95,-8,+117,-259
122234,10.666,-0.569,1.511,2.910349,2.456412,-4.821191,100002.23,-8,+117,-259
122245,10.929,-1.137,1.388,3.068386,2.426614,-4.967521,100001.50,+2,+119,-264
122255,12.050,-1.114,1.456,3.145542,2.376595,-5.172383,100002.66,+10,+114,-267
122265,13.920,-1.135,2.093,3.139688,2.284008,-5.383099,100002.66,+15,+109,-267
122274,16.012,-1.735,2.834,3.039652,2.145660,-5.598071,100003.59,+15,+109,-267
122285,18.383,-3.534,4.076,2.912477,2.069568,-5.787502,100003.59,+22,+104,-273
122295,20.433,-5.424,5.496,2.775725,2.030192,-5.917337,100003.59,+24,+101,-277
122305,21.148,-7.117,6.553,2.625138,1.959953,-5.960438,100004.59,+26,+96,-277
122314,20.898,-8.823,6.418,2.541597,1.857256,-5.884878,100002.54,+26,+96,-277
122324,21.189,-11.756,6.224,2.549047,1.864174,-5.636383,100002.54,+28,+94,-283
122335,22.193,-15.394,5.577,2.557560,1.965274,-5.243686,100004.29,+26,+89,-285
122345,21.496,-17.968,3.763,2.304808,2.011568,-4.740310,100004.34,+22,+84,-285
122355,19.091,-19.132,1.816,1.590185,1.858320,-4.181063,100007.52,+22,+84,-285
122364,17.304,-23.601,2.338,0.962828,1.626320,-3.543063,100005.35,+19,+82,-289
122375,14.122,-28.140,3.536,0.129544,1.194247,-2.744898,100007.29,+14,+83,-289
122385,11.637,-28.811,2.962,-1.051740,0.708431,-1.724844,100008.18,+10,+86,-286
122395,11.940,-25.832,1.437,-1.977611,0.309881,-0.480771,100007.40,+8,+86,-289
122404,15.235,-21.200,-0.009,-2.148418,-0.049825,0.690402,100007.40,+8,+90,-289
122415,15.250,-17.898,-3.304,-1.640785,-0.551073,1.881796,100008.55,+4,+92,-288
122425,15.214,-12.039,-3.747,-0.663832,-1.026247,3.020511,100008.55,+3,+88,-287
122435,16.592,10.981,-0.454,0.338663,-1.420540,3.364254,100010.95,+3,+80,-294
122440,17.503,35.441,3.334,1.163965,-1.343384,2.757649,100009.38,+3,+80,-294
122449,18.221,38.382,-2.073,0.602589,-0.991659,1.616806,100009.38,+1,+76,-295
122460,21.661,8.552,-10.990,-0.386603,-0.760724,1.758347,100008.74,+1,+76,-295
122470,22.407,-17.480,7.342,2.743267,-0.325458,3.342438,100008.74,-1,+72,-294
122480,16.998,-23.346,9.662,4.806256,0.264652,4.235849,100005.60,-7,+51,-300
122489,14.090,-10.998,6.041,1.975432,0.431734,4.147519,100009.12,-13,+39,-298
122500,8.925,3.275,1.453,0.950589,-0.212651,4.055996,100006.38,-13,+39,-298
122510,-3.170,3.947,6.332,2.323432,0.094377,3.306786,100005.09,-15,+29,-297
122520,-3.982,-5.066,10.802,3.315285,0.174193,2.749667,100005.09,-17,+15,-300
122529,10.028,-12.915,2.886,2.384625,-0.487752,2.546401,100007.43,-18,+3,-299
122540,17.572,-16.745,-1.373,-0.232291,-0.775623,2.224475,100009.21,-18,+3,-299
122550,16.942,-8.707,2.045,-2.519299,-0.323330,1.856787,100009.21,-17,+3,-298
122560,11.814,-2.005,2.847,-3.617573,-0.382394,1.619466,100006.43,-15,+11,-302
122569,6.586,-0.158,-1.192,-3.091317,-0.271183,1.367246,100006.43,-15,+17,-301
122579,6.852,1.775,-0.115,-2.110638,0.106083,1.216659,100008.51,-15,+17,-301
122590,6.808,2.831,0.978,-1.154437,0.300835,1.124604,100007.37,-16,+21,-299
122600,8.135,0.898,2.781,-0.060952,0.421092,1.085760,100005.16,-18,+21,-302
122610,10.064,-1.524,3.134,0.613764,0.369477,1.009668,100007.46,-20,+17,-299
122619,10.265,-2.979,2.609,0.616956,0.389165,0.943155,100007.46,-20,+17,-299
122630,9.695,-3.711,2.956,0.191268,0.497184,0.861210,100008.66,-20,+14,-296
122640,9.845,-3.826,4.330,-0.394052,0.504633,0.705302,100007.30,-22,+14,-300
122650,9.692,-4.250,5.769,-0.977777,0.399275,0.499907,100008.30,-24,+13,-297
122659,8.970,-4.377,5.963,-1.617373,0.306156,0.312072,100002.11,-24,+19,-294
122670,8.686,-2.664,5.372,-2.214400,0.261991,0.198201,100002.11,-24,+19,-294
122680,8.730,0.052,3.960,-2.328271,0.190156,0.183834,100010.55,-24,+27,-297
122690,9.352,2.404,2.332,-1.731776,0.117789,0.284935,100010.71,-26,+29,-295
122699,10.052,2.571,1.323,-0.929355,0.113532,0.464256,100010.13,-25,+32,-293
122710,10.279,0.390,1.963,-0.224309,0.128964,0.676036,100007.51,-25,+32,-293
122720,9.860,-2.096,3.003,0.129544,0.090652,0.816512,100007.51,-26,+32,-296
122730,9.146,-3.754,4.152,-0.103520,0.076285,0.807467,100010.91,-28,+28,-294
122740,8.826,-4.009,5.023,-0.663832,0.048615,0.659540,100005.88,-27,+31,-293
122749,9.145,-2.770,5.079,-1.202327,0.010835,0.523320,100004.88,-27,+31,-293
122760,9.078,-1.505,4.713,-1.550859,-0.025348,0.524384,100009.45,-28,+35,-296
122770,9.283,-0.672,4.396,-1.686547,-0.020027,0.388164,100009.45,-29,+37,-294
122780,9.784,-0.323,3.930,-1.731776,-0.071642,0.492990,100008.41,-28,+41,-292
122789,10.023,-0.264,3.572,-1.648767,-0.093458,0.792035,100007.20,-28,+41,-292
122796,9.319,-0.017,2.285,-1.722198,-0.204669,1.034678,100007.83,-28,+44,-294
122805,9.021,-0.595,1.880,-1.829684,-0.244577,0.904311,100007.83,-28,+44,-294
122815,9.809,-0.158,1.632,-1.322584,-0.190302,0.952200,100005.11,-29,+46,-291
122825,10.227,-0.563,1.657,-0.661704,-0.130706,1.077778,100005.11,-29,+47,-292
122835,10.738,-1.634,2.307,-0.441942,-0.136027,1.205485,100008.59,-29,+47,-294
122845,11.049,-1.712,2.877,-0.359465,-0.181788,1.279448,100007.23,-31,+47,-294
122855,11.411,-1.711,3.053,-0.390328,-0.273311,1.493356,100005.66,-31,+44,-290
122865,11.269,-2.266,3.238,-0.487704,-0.326522,1.768457,100005.66,-31,+44,-292
122874,10.676,-3.144,3.150,-0.685649,-0.412192,1.704604,100005.66,-31,+43,-294
122885,10.635,-2.099,2.853,-0.832511,-0.496265,1.542310,100010.33,-33,+39,-291
122895,11.075,-1.375,2.973,-0.826658,-0.615990,1.597650,100008.03,-33,+39,-291
122905,12.110,-1.230,3.680,-0.718639,-0.753274,1.784952,100009.55,-32,+41,-294
122914,13.083,-1.584,4.109,-0.701612,-0.912375,2.033448,100007.97,-31,+39,-296
122925,13.744,-1.114,4.127,-0.808034,-1.038485,2.323979,100007.97,-31,+35,-295
122935,14.277,-2.368,3.643,-0.994272,-1.118302,2.727851,100005.80,-31,+35,-295
122945,14.840,-2.647,2.973,-1.111868,-1.181091,2.493722,100009.11,-29,+35,-296
122955,15.832,-1.864,2.763,-1.285336,-1.224724,2.156365,100007.30,-28,+35,-300
122964,17.000,-0.877,3.019,-1.449226,-1.267292,1.965337,100007.30,-28,+33,-297
122975,18.474,1.052,3.578,-1.676969,-1.308265,1.910530,100007.23,-28,+33,-297
122985,19.892,3.367,4.361,-1.999960,-1.370522,1.974383,100006.23,-26,+37,-300
122995,21.066,6.546,5.467,-2.275060,-1.484393,2.099429,100006.23,-26,+40,-301
123004,22.252,10.115,6.269,-2.425115,-1.594008,2.232989,100004.35,-27,+39,-300
123015,21.639,12.496,6.567,-2.338382,-1.625402,2.518732,100006.45,-27,+39,-300
123025,18.969,9.909,6.291,-1.867996,-1.606778,2.860878,100006.45,-26,+43,-304
123030,17.510,3.452,7.196,-1.179446,-1.639237,3.118419,100005.23,-28,+43,-304
123040,17.491,-4.492,5.247,-0.653190,-1.865384,3.149814,100006.85,-28,+39,-306
123049,20.021,-10.829,7.939,-0.537190,-1.896778,2.834805,100006.38,-29,+32,-307
123060,21.505,-8.648,11.972,0.323232,-1.721182,2.823098,100004.70,-28,+29,-310
123070,17.132,-1.597,12.671,0.959103,-1.567934,2.886951,100004.70,-28,+29,-310
123080,12.289,5.017,11.209,0.962295,-1.413090,2.429869,100004.98,-31,+21,-313
123089,8.681,9.765,8.866,1.105965,-1.258779,2.068567,100003.94,-34,+13,-313
123100,4.381,10.207,4.984,1.360314,-1.397659,1.718971,100005.41,-33,+9,-317
123110,-0.126,3.481,2.024,1.572625,-1.556228,1.350751,100001.84,-35,+1,-321
123120,-3.638,-5.431,3.660,1.808882,-0.968247,1.057026,100001.84,-35,+1,-321
123130,-1.004,-10.743,5.980,2.088240,-0.007256,0.579191,100005.55,-39,-8,-319
123140,3.865,-9.736,5.970,2.272882,-0.098247,-0.255689,100005.61,-42,-11,-321
123150,4.057,-6.161,5.097,2.061102,-0.457953,-0.907523,100005.50,-46,-13,-323
123160,2.092,-4.458,3.929,1.187378,-0.497330,-1.199119,100006.03,-46,-13,-323
123170,1.099,-0.345,-0.815,-0.394052,-0.668137,-1.516789,100006.03,-49,-12,-321
123180,0.200,3.960,-4.232,-2.291556,-0.848522,-2.154788,100007.77,-48,+3,-327
123190,0.093,5.587,-1.086,-2.940730,-0.346742,-2.872072,100004.62,-51,+19,-329
123200,0.353,6.156,0.521,-2.214400,0.032120,-3.230182,100004.15,-51,+19,-329
123210,1.132,5.105,1.710,-1.002254,0.504633,-3.341393,99998.02,-54,+31,-327
123219,1.782,3.161,2.850,-0.024768,1.016523,-3.623943,99998.02,-56,+45,-327
123230,2.608,1.526,3.779,0.500424,1.379422,-3.808585,100000.39,-63,+53,-326
123240,3.901,0.098,3.818,0.540332,1.598119,-3.893191,100000.91,-63,+53,-326
123250,5.226,0.224,3.263,0.086975,1.744449,-4.090072,100000.28,-67,+62,-320
123260,6.054,2.103,2.178,-0.487704,1.810430,-4.392310,99999.55,-66,+79,-319
123266,6.935,3.400,1.313,-0.600511,1.872687,-4.593980,99999.55,-66,+79,-319
123275,7.701,3.628,0.838,-0.228034,2.002522,-4.722218,99999.55,-70,+94,-317
123285,8.766,3.076,1.437,0.519580,2.248889,-4.892493,100003.00,-69,+103,-310
123295,10.206,1.732,2.021,1.135763,2.431935,-5.049466,100004.36,-69,+103,-310
123305,11.714,0.517,1.687,1.498130,2.502705,-5.173447,100003.73,-63,+118,-310
123315,12.628,-0.381,1.392,1.755139,2.528779,-5.280933,100001.48,-63,+123,-311
123325,12.902,-1.146,1.631,1.967451,2.540485,-5.393209,100002.32,-57,+126,-307
123335,13.753,-1.531,2.241,2.090368,2.517072,-5.517190,100003.10,-50,+133,-310
123345,15.805,-1.723,2.920,2.205304,2.441513,-5.648089,100003.10,-50,+133,-310
123355,18.486,-2.406,4.049,2.288845,2.358504,-5.769942,100000.85,-49,+132,-312
123365,21.171,-4.567,5.361,2.363340,2.354779,-5.817832,100004.20,-43,+129,-309
123375,22.301,-8.112,6.311,2.321836,2.351586,-5.793887,100004.20,-40,+130,-315
123385,21.760,-11.518,5.643,2.066423,2.250485,-5.756107,100006.38,-40,+130,-315
123395,21.839,-13.073,3.425,1.598167,2.135550,-5.677887,100007.12,-43,+129,-314
123405,22.838,-15.346,1.166,1.269323,2.074357,-5.350108,100005.87,-42,+128,-309
123415,21.005,-15.784,-0.131,0.925048,1.906210,-4.788200,100005.18,-40,+133,-314
123425,18.190,-18.716,1.337,0.767011,1.764137,-4.070916,100010.42,-40,+133,-314
123436,16.194,-24.835,2.214,0.674956,1.492229,-3.164201,100006.08,-45,+133,-310
123445,13.873,-30.505,0.519,0.173709,0.946816,-2.079761,100005.55,-46,+133,-303
123455,12.532,-30.300,-2.694,-0.909667,0.406725,-0.958606,100008.80,-44,+138,-307
123465,13.304,-26.038,-3.515,-1.813189,-0.064724,0.358366,100008.80,-44,+138,-307
123475,17.792,-19.779,-1.160,-1.833941,-0.448908,1.390127,100008.80,-50,+139,-302
123485,14.968,-16.290,-3.121,-1.422088,-1.019861,2.435722,100013.31,-50,+134,-297
123495,13.691,-2.120,3.026,-0.134383,-1.259311,3.294548,100011.38,-50,+129,-305
123500,13.258,18.655,8.920,0.751048,-1.116705,3.246126,100006.86,-50,+129,-305
123510,14.528,34.942,6.324,0.503617,-0.870871,2.500108,100008.17,-56,+117,-304
123521,16.404,24.934,-6.610,-0.780364,-0.821916,1.382145,100008.17,-56,+117,-304
123530,27.278,-0.650,-9.020,0.227452,-0.810742,2.250016,100012.19,-56,+115,-300
123540,28.925,-18.653,4.556,2.685799,-0.465935,3.556346,100008.30,-59,+104,-310
123550,13.354,-14.826,5.773,2.141983,-0.286614,3.870290,100008.98,-67,+86,-308
123560,5.799,-1.770,6.597,0.767011,0.014560,3.686713,100006.20,-70,+86,-308
123570,0.948,-0.833,7.044,1.101708,-0.024284,3.516437,100006.20,-70,+74,-304
123580,0.391,-7.176,5.696,1.758864,-0.001935,2.995502,100008.61,-73,+65,-312
123590,7.379,-11.313,5.315,0.888864,-0.214247,2.574071,100010.91,-78,+52,-309
123600,12.286,-7.839,2.239,-0.165245,-0.428155,2.210108,100007.92,-75,+49,-306
123611,13.957,-4.262,1.698,-1.062914,-0.452100,1.960548,100006.45,-75,+49,-306
123620,12.840,-1.734,2.581,-1.491795,-0.444119,1.869558,100006.45,-75,+50,-313
123630,9.707,-0.550,1.118,-1.468382,-0.368027,1.808365,100010.03,-78,+48,-309
123640,8.208,-0.432,-0.084,-1.171465,-0.228614,1.690769,100010.03,-75,+47,-307
123651,8.158,0.288,0.230,-0.572309,-0.090266,1.491760,100007.27,-75,+47,-307
123660,8.635,-0.405,0.726,0.117305,0.026799,1.320953,100006.58,-77,+47,-313
123670,9.829,-2.432,2.014,0.566938,0.134817,1.237943,100006.58,-81,+39,-307
123680,9.850,-4.479,3.692,0.564277,0.184835,1.155466,100010.60,-79,+35,-305
123691,8.934,-5.773,5.315,0.061966,0.169936,0.962311,100009.98,-79,+35,-305
123700,8.417,-5.463,5.931,-0.776107,0.069899,0.673907,100007.26,-82,+36,-311
123710,8.882,-3.183,4.945,-1.454547,-0.011513,0.394549,100009.55,-83,+36,-307
123720,9.608,-1.267,4.257,-1.708895,-0.012578,0.241302,100009.55,-80,+42,-305
123730,9.528,0.006,3.214,-1.634932,-0.001403,0.225871,100007.63,-80,+42,-305
123736,9.303,0.780,2.283,-1.411446,0.022010,0.276953,100010.39,-82,+49,-310
123745,9.670,0.850,1.349,-1.083667,0.023606,0.361026,100010.39,-82,+49,-310
123755,10.427,-0.031,1.413,-0.611153,0.009771,0.487137,100007.47,-84,+47,-304
123765,10.467,-1.647,2.880,-0.330199,-0.009917,0.582916,100009.30,-81,+49,-304
123776,9.796,-2.828,3.963,-0.428639,-0.063660,0.624953,100009.30,-83,+49,-310
123786,9.242,-2.732,4.799,-0.731942,-0.105165,0.629742,100008.60,-85,+47,-304
123795,8.486,-2.233,4.735,-1.030988,-0.146137,0.606861,100006.98,-85,+47,-304
123805,8.734,-1.813,4.294,-1.242767,-0.218504,0.560036,100005.91,-82,+51,-305
123815,8.671,-1.074,3.653,-1.386437,-0.273843,0.571742,100005.91,-84,+56,-309
123825,8.846,-0.559,3.438,-1.265648,-0.265862,0.623889,100005.91,-84,+52,-304
123835,9.146,-0.625,3.249,-1.041098,-0.260541,0.722329,100008.95,-84,+52,-304
123845,9.562,-1.250,2.716,-0.902749,-0.262669,0.818641,100007.48,-81,+57,-304
123855,9.409,-1.184,3.755,-0.721300,-0.199880,0.908035,100005.85,-83,+57,-309
123866,9.335,-2.263,2.607,-0.756951,-0.241917,0.936237,100006.74,-84,+54,-304
123876,9.458,-2.537,2.736,-0.888382,-0.241917,0.930384,100006.74,-84,+54,-304
123885,9.423,-2.410,2.337,-1.002254,-0.257348,0.938366,100009.47,-80,+57,-304
123895,9.823,-2.406,1.923,-0.979373,-0.233935,0.985723,100006.98,-84,+58,-310
123906,10.289,-2.594,1.607,-0.864969,-0.211054,1.012861,100006.11,-85,+55,-303
123916,10.917,-2.667,1.621,-0.823997,-0.204137,1.053301,100006.11,-85,+55,-303
123925,11.351,-2.460,1.665,-0.901685,-0.250963,1.167173,100010.20,-81,+58,-305
123935,11.364,-1.474,1.839,-0.972456,-0.322265,1.389595,100010.20,-85,+58,-310
123945,11.443,-0.879,2.185,-0.932547,-0.426027,1.720035,100007.57,-85,+52,-304
123956,11.376,-1.264,3.003,-0.912327,-0.638871,1.896163,100007.68,-85,+52,-304
123965,11.314,-1.695,3.546,-0.905942,-0.801696,1.780695,100007.99,-82,+53,-307
123971,11.558,-1.408,4.086,-0.921905,-0.854907,1.652989,100007.99,-84,+53,-307
123980,12.342,-1.439,4.083,-0.895832,-0.893751,1.655650,100007.60,-84,+53,-312
123991,13.575,-1.408,3.894,-0.892639,-0.976228,1.753558,100005.87,-82,+47,-309
124001,14.554,-1.291,3.044,-1.017153,-1.091696,1.844549,100009.12,-79,+49,-313
124010,15.287,-0.631,2.733,-1.133153,-1.215146,1.950438,100006.55,-79,+49,-313
124020,16.199,0.082,3.159,-1.145391,-1.326357,2.059521,100006.55,-80,+48,-317
124030,17.757,0.562,3.825,-1.186364,-1.405641,2.137741,100006.57,-77,+41,-315
124041,19.878,2.326,4.421,-1.459868,-1.495567,2.160622,100006.26,-73,+47,-320
124050,21.330,5.498,4.984,-1.901519,-1.596136,2.209576,100004.01,-72,+46,-326
124060,21.971,8.990,5.706,-2.136712,-1.745127,2.383044,100006.63,-72,+46,-326
124070,22.273,12.053,6.601,-2.096804,-1.828136,2.574603,100006.63,-70,+43,-322
124081,21.287,12.063,6.874,-1.858418,-1.827604,2.816713,100007.45,-64,+49,-327
124090,19.322,6.158,7.026,-1.220419,-1.810044,3.124273,100005.56,-65,+41,-334
124100,19.136,-4.325,7.286,-0.229630,-1.916466,3.414804,100002.84,-65,+41,-334
124110,21.444,-11.005,9.412,0.234369,-1.863787,3.422254,100004.78,-61,+29,-330
124121,21.994,-8.982,12.291,0.539268,-1.656797,3.321153,100004.78,-57,+27,-337
124131,17.502,-2.576,11.988,1.023488,-1.404045,3.193979,100005.85,-56,+14,-339
124140,13.205,4.546,10.095,0.985708,-1.199182,2.774144,100006.74,-56,+14,-339
124150,10.142,8.502,7.901,0.933029,-0.941641,2.205319,100004.38,-53,+5,-333
124161,6.876,7.625,4.603,0.761690,-1.097017,1.695026,100000.20,-50,+5,-337
124171,2.569,-0.260,2.156,0.659525,-1.289641,1.508787,100000.20,-50,+0,-339
124180,-1.593,-9.060,4.356,0.667507,-0.852247,1.237411,100006.50,-50,+0,-339
124190,-1.487,-11.423,9.366,1.059672,0.079477,0.392421,100005.92,-49,-4,-329
124200,1.767,-7.585,7.961,0.872369,-0.071110,-0.528129,100004.09,-50,+0,-332
124206,2.584,-2.813,5.764,-0.008805,-0.275972,-0.944771,100004.03,-50,+0,-332
124215,2.578,1.057,3.001,-1.060786,-0.468064,-1.124624,100004.03,-52,+1,-333
124225,1.411,4.664,-1.305,-2.359666,-0.810742,-1.537541,100004.03,-49,+13,-327
124235,-0.394,5.250,-2.620,-2.926895,-0.681439,-1.938220,100005.97,-47,+13,-330
124246,-1.112,4.599,-1.716,-2.271868,-0.256816,-2.245779,100002.03,-47,+34,-330
124256,-0.900,3.921,-0.048,-1.172529,0.169936,-2.563449,100002.81,-49,+43,-329
124266,-0.262,2.837,1.560,-0.155135,0.606266,-2.847595,100002.81,-49,+50,-321
124275,0.467,1.543,2.516,0.583965,0.965440,-3.125357,100000.63,-52,+61,-321
124285,1.371,0.345,3.456,0.921323,1.273000,-3.352567,100000.63,-52,+61,-321
124296,2.614,-0.732,3.827,0.892589,1.514045,-3.561687,100002.78,-55,+63,-320
124305,3.861,-0.995,3.315,0.545653,1.661440,-3.802200,100002.83,-57,+70,-310
124315,3.531,0.451,2.725,0.040149,1.763605,-4.065063,100000.42,-58,+84,-310
124325,3.765,2.463,2.107,0.009287,1.965806,-4.311430,100000.42,-58,+84,-310
124336,5.604,3.769,1.913,0.640369,2.257935,-4.516824,100004.05,-61,+93,-306
124346,7.894,3.344,2.278,1.345947,2.497384,-4.697741,99999.55,-61,+99,-297
124356,9.784,1.848,2.390,1.826974,2.636797,-4.830769,100001.45,-61,+108,-298
124365,10.847,0.529,2.107,2.108992,2.702779,-4.905796,100000.38,-61,+108,-298
124376,11.527,-0.139,1.476,2.340992,2.719274,-4.954218,100001.07,-64,+111,-295
124386,12.127,-0.515,1.078,2.681010,2.749604,-5.048934,100001.80,-63,+114,-289
124396,13.163,-0.618,1.479,2.967285,2.765568,-5.186750,100004.37,-62,+121,-292
124405,15.398,-0.985,2.689,3.039652,2.657017,-5.347979,100004.37,-62,+121,-292
124416,18.453,-2.240,4.282,3.009322,2.415971,-5.534750,100003.48,-64,+122,-290
124426,21.659,-4.586,5.467,2.916202,2.236650,-5.745997,100003.48,-59,+127,-285
124436,23.019,-6.945,6.528,2.754973,2.190357,-5.911483,100006.27,-54,+135,-290
124441,22.353,-8.160,6.741,2.585762,2.185568,-5.923190,100003.13,-54,+135,-290
124450,21.246,-8.410,6.414,2.378772,2.127036,-5.853484,100005.65,-52,+139,-289
124461,21.511,-10.534,5.314,2.291506,2.108944,-5.610841,100006.54,-52,+139,-289
124471,23.541,-15.645,3.240,2.254258,2.131293,-5.174511,100006.54,-45,+144,-284
124481,22.649,-19.928,1.098,1.809414,2.010504,-4.628035,100008.48,-41,+150,-290
124490,19.270,-21.738,-0.181,1.119268,1.753495,-3.978328,100009.06,-38,+153,-286
124500,17.411,-25.818,0.905,0.934094,1.490633,-3.215283,100007.59,-34,+155,-281
124511,13.401,-29.980,1.469,0.437103,0.950009,-2.165963,100008.95,-34,+155,-281
124521,11.618,-31.952,-0.240,-0.580291,0.439716,-0.967119,100008.95,-33,+159,-285
124530,13.509,-29.582,-1.599,-1.695061,0.059789,0.399871,100012.59,-33,+162,-279
124540,17.092,-23.472,-1.598,-2.015391,-0.263733,1.507191,100010.91,-34,+162,-272
124551,15.858,-17.407,-3.360,-1.820106,-0.774027,2.532567,100009.50,-34,+162,-272
124561,15.954,8.999,2.483,-1.108853,-1.301525,3.000646,100009.61,-38,+162,-275
124570,17.264,41.612,7.409,-0.525483,-1.110852,2.218622,100009.61,-41,+156,-274
124580,15.763,35.657,-7.003,-2.020180,-0.876192,0.809063,100009.00,-38,+160,-267
124591,22.493,3.190,-7.618,-1.350254,-0.963990,1.707796,100014.45,-38,+160,-267
124601,22.592,-17.246,11.892,4.246477,-0.230210,3.284437,100007.11,-42,+153,-278
124610,18.375,-24.421,5.619,4.647687,0.212505,4.314602,100004.97,-51,+129,-281
124620,17.127,-12.239,0.515,2.014276,0.047019,4.219354,100004.97,-56,+115,-281
124631,7.271,3.596,-0.657,1.581139,-0.052486,3.857520,100013.63,-56,+115,-281
124641,-4.420,1.324,12.247,1.874864,0.530707,3.106713,100008.12,-63,+105,-287
124651,-2.173,-9.031,9.511,2.088240,-0.166889,2.516603,100006.55,-66,+92,-285
124660,11.335,-13.099,-0.110,0.346644,-0.676650,2.306952,100009.23,-64,+86,-285
124670,16.516,-10.859,-1.142,-1.915354,-0.653770,1.962145,100009.23,-64,+86,-285
124681,16.047,-3.935,3.298,-2.949244,-0.324926,1.726952,100009.98,-66,+90,-287
124691,11.557,0.340,3.269,-3.083335,-0.370687,1.610420,100010.34,-67,+92,-282
124700,7.598,0.841,0.870,-2.435225,-0.270651,1.445466,100010.07,-67,+97,-280
124710,6.118,3.040,0.602,-1.704639,-0.079091,1.320953,100006.93,-67,+97,-280
124721,6.298,3.008,1.238,-0.696291,0.074156,1.253375,100006.93,-70,+98,-284
124731,8.787,-0.130,1.969,0.474883,0.116193,1.133118,100006.73,-71,+92,-280
124741,11.150,-1.773,2.354,1.027213,0.120450,1.113430,100011.77,-72,+88,-279
124750,10.658,-2.901,3.475,0.889396,0.222615,1.132586,100007.89,-72,+88,-279
124761,9.440,-4.137,5.200,0.379635,0.238578,1.031485,100006.00,-75,+84,-284
124771,8.779,-4.384,7.416,-0.437153,0.132156,0.817577,100006.00,-76,+80,-279
124781,8.663,-4.018,6.843,-1.302364,-0.020559,0.554182,100009.61,-75,+84,-278
124790,9.189,-2.678,5.000,-1.907372,-0.037055,0.365283,100010.66,-75,+84,-278
124801,9.374,-0.272,3.012,-2.148950,-0.039183,0.314201,100009.34,-78,+88,-281
124811,9.283,1.842,1.262,-1.866932,-0.055678,0.412641,100011.23,-77,+91,-274
124821,9.714,2.192,0.572,-1.104951,-0.034926,0.610586,100011.23,-75,+94,-274
124830,10.294,0.534,1.590,-0.300401,-0.014706,0.813320,100007.10,-75,+94,-274
124840,10.161,-2.043,2.965,0.065158,-0.011513,0.945283,100009.66,-78,+92,-277
124851,9.556,-4.098,4.006,-0.158328,-0.041844,0.926659,100008.41,-79,+88,-273
124861,8.983,-4.044,4.777,-0.688841,-0.062596,0.756384,100006.68,-78,+89,-274
124870,8.614,-2.840,4.683,-1.145391,-0.072706,0.561100,100006.68,-78,+89,-274
124880,8.698,-1.971,4.475,-1.349189,-0.066853,0.473302,100008.31,-81,+90,-276
124891,9.315,-1.215,3.552,-1.377923,-0.078027,0.469577,100009.31,-80,+92,-270
124901,9.371,-1.917,3.392,-1.389630,-0.138155,0.632402,100007.84,-79,+94,-271
124911,8.850,-1.292,4.000,-1.517336,-0.083348,0.653687,100006.80,-79,+94,-271
124920,9.165,-1.476,1.876,-1.546070,-0.144009,0.663265,100006.80,-82,+97,-272
124931,9.486,-1.388,2.539,-1.193813,-0.074302,0.781925,100009.22,-81,+96,-267
124941,9.301,-2.365,2.186,-1.051740,-0.090798,0.861210,100008.86,-82,+99,-268
124951,9.572,-2.533,2.581,-1.069832,-0.060467,0.958054,100005.50,-85,+99,-270
124960,10.121,-2.300,2.635,-1.094309,-0.068449,1.068200,100010.17,-85,+98,-270
124971,10.441,-2.047,2.703,-1.084731,-0.089733,1.167705,100010.17,-85,+96,-264
124981,10.645,-1.578,2.550,-1.024070,-0.137623,1.147485,100007.63,-84,+97,-265
124991,10.730,-1.066,2.369,-0.900621,-0.217972,1.246457,100007.05,-87,+96,-268
125001,10.823,-1.166,2.368,-0.797924,-0.315348,1.318824,100006.52,-87,+96,-268
125010,11.071,-0.965,2.701,-0.731410,-0.427091,1.457705,100006.05,-87,+92,-263
125021,11.885,-1.334,3.463,-0.673410,-0.531917,1.712053,100006.05,-86,+92,-265
125031,12.774,-2.007,3.626,-0.674474,-0.645788,1.691301,100006.22,-90,+88,-270
125041,13.468,-2.259,3.454,-0.778236,-0.722412,1.617870,100009.42,-90,+88,-270
125050,13.665,-2.276,3.503,-0.948511,-0.820320,1.632237,100005.17,-87,+84,-265
125061,14.077,-1.764,3.908,-1.131556,-0.966650,1.702475,100009.11,-87,+86,-270
125071,14.491,-1.066,4.716,-1.255538,-1.142247,1.774842,100009.11,-87,+82,-275
125081,14.785,-1.024,4.763,-1.335354,-1.293898,1.855191,100009.66,-87,+82,-275
125090,15.511,-1.735,5.014,-1.463593,-1.342320,1.965870,100006.20,-84,+79,-272
125101,17.391,-1.036,5.228,-1.866400,-1.424797,1.960548,100006.45,-83,+82,-277
125111,19.947,2.850,5.870,-2.603904,-1.531751,1.872750,100006.67,-82,+82,-281
125121,21.509,9.535,6.138,-3.178583,-1.677017,1.895099,100006.67,-82,+82,-281
125131,22.616,14.675,5.804,-2.984895,-1.869641,2.074952,100007.50,-77,+84,-278
125140,22.703,15.602,5.009,-2.214932,-1.991494,2.335686,100004.92,-75,+88,-284
125151,20.451,10.470,4.032,-1.229997,-2.058540,2.692731,100008.02,-73,+82,-290
125161,18.957,1.254,4.219,-0.019447,-2.186246,3.005612,100004.61,-73,+82,-290
125171,20.068,-6.789,6.916,0.867580,-2.241585,3.236016,100004.61,-68,+73,-293
125180,20.531,-8.658,11.777,1.346479,-2.035127,3.485575,100007.10,-65,+64,-302
