30016,9.406,-0.644,2.914,0.032168,0.020945,0.014091,100006.49,-33,+75,-188
30025,9.481,-0.617,2.975,0.027379,0.027863,0.012495,100006.49,-35,+74,-187
30035,9.432,-0.562,2.914,0.028443,0.030523,0.013027,100009.28,-35,+73,-186
30046,9.412,-0.656,3.014,0.023654,0.041166,0.011430,100009.28,-35,+73,-186
30055,9.367,-0.786,3.020,-0.000823,0.048615,0.009302,100007.45,-33,+76,-188
30065,9.360,-0.704,3.114,-0.047117,0.052340,0.003449,100008.33,-35,+74,-187
30075,9.426,-0.628,3.056,-0.080108,0.057661,-0.002937,100006.09,-35,+74,-185
30086,9.453,-0.596,2.991,-0.098731,0.067771,-0.006661,100006.09,-35,+74,-185
30096,9.422,-0.686,2.950,-0.104053,0.074156,-0.006129,100006.19,-33,+75,-188
30105,9.376,-0.583,2.883,-0.104053,0.079477,-0.006661,100006.30,-35,+74,-186
30115,9.289,-0.546,2.903,-0.094475,0.084266,-0.005065,100005.20,-35,+74,-185
30126,9.277,-0.505,3.030,-0.074254,0.080542,-0.004001,100006.19,-35,+74,-185
30136,9.310,-0.460,3.077,-0.046585,0.070432,0.001852,100009.66,-34,+76,-188
30146,9.264,-0.498,3.181,-0.019979,0.055533,0.007174,100006.58,-36,+74,-186
30155,9.327,-0.499,3.202,-0.001887,0.047551,0.012495,100007.05,-36,+74,-184
30166,9.364,-0.598,3.196,-0.005612,0.038505,0.015155,100007.05,-36,+74,-184
30176,9.322,-0.540,3.157,-0.017319,0.025734,0.013027,100008.14,-35,+76,-188
30185,9.298,-0.444,3.050,-0.038603,0.028927,0.021540,100008.14,-36,+73,-185
30195,9.578,-0.496,2.853,-0.068933,0.036909,0.019412,100007.06,-36,+75,-185
30205,9.681,-0.306,2.888,-0.100860,0.043826,0.026862,100008.33,-36,+75,-185
30216,9.734,-0.000,3.218,-0.076383,-0.003532,0.027926,100004.88,-34,+76,-188
30226,9.493,0.066,3.196,0.035892,-0.097183,0.030054,100007.53,-36,+74,-185
30235,9.385,-0.329,2.965,0.178498,-0.108889,0.034843,100007.53,-36,+74,-185
30245,9.655,-1.191,2.933,0.235434,-0.082284,0.023137,100007.66,-36,+74,-185
30256,9.559,-1.358,2.920,0.167856,-0.061532,0.009834,100006.93,-33,+76,-188
30266,9.343,-1.219,2.993,0.067287,-0.035458,-0.011982,100006.55,-36,+73,-185
30276,9.103,-1.055,3.098,0.014608,-0.012045,-0.035927,100006.55,-35,+74,-185
30285,8.971,-0.982,3.028,0.005562,0.009239,-0.051359,100006.55,-35,+74,-185
30296,8.747,-1.173,2.853,0.003966,0.034780,-0.063065,100006.50,-35,+75,-187
30306,8.491,-1.296,2.762,-0.036475,0.062450,-0.077432,100007.44,-36,+74,-185
30315,8.696,-1.127,2.694,-0.102988,0.093844,-0.099248,100009.47,-35,+75,-185
30321,8.972,-0.915,2.719,-0.138640,0.120982,-0.112551,100007.17,-35,+75,-185
30330,8.905,-0.667,2.767,-0.138108,0.152376,-0.111487,100007.17,-34,+76,-188
30341,9.032,-0.349,2.754,-0.112034,0.175789,-0.108826,100008.57,-36,+74,-183
30351,9.500,-0.025,2.630,-0.067869,0.185367,-0.101377,100008.99,-36,+74,-183
30360,9.480,0.130,2.549,-0.004016,0.188028,-0.074239,100006.90,-35,+76,-185
30370,9.139,0.312,2.698,0.114645,0.187496,-0.034331,100007.12,-35,+76,-187
30381,9.005,0.013,3.095,0.248736,0.202395,0.006641,100007.12,-36,+74,-183
30391,8.939,-0.364,3.419,0.303544,0.194413,0.032183,100006.84,-36,+74,-183
30401,9.006,-0.122,3.827,0.307268,0.155037,0.043357,100007.41,-35,+76,-183
30410,9.390,-0.237,3.568,0.348773,0.124707,0.037504,100005.74,-36,+76,-187
30420,10.352,-0.598,3.308,0.385488,0.108743,0.023669,100005.52,-37,+73,-183
30431,10.746,-0.705,3.465,0.401984,0.079477,0.002917,100005.52,-37,+73,-183
30441,10.198,-1.043,3.670,0.388149,0.051808,-0.016771,100010.91,-36,+74,-184
30450,9.607,-1.182,3.945,0.324828,0.019349,-0.048166,100010.13,-35,+73,-187
30460,9.365,-1.145,4.166,0.250333,-0.029605,-0.091799,100005.38,-37,+72,-183
30471,9.306,-1.135,4.164,0.168920,-0.072174,-0.134368,100006.94,-37,+72,-183
30481,9.321,-1.055,4.051,0.060902,-0.101972,-0.170551,100006.94,-35,+73,-185
30491,9.311,-0.829,3.765,-0.051374,-0.128045,-0.193432,100005.62,-35,+74,-188
30500,9.534,-0.598,3.465,-0.139704,-0.145605,-0.207799,100006.93,-36,+73,-184
30511,9.486,-0.446,3.389,-0.187594,-0.144009,-0.204606,100005.10,-36,+73,-184
30521,9.340,-0.571,3.335,-0.226438,-0.125385,-0.197157,100004.79,-35,+74,-184
30530,9.390,-0.849,3.234,-0.292419,-0.103568,-0.204606,100004.79,-34,+76,-187
30540,9.327,-0.969,3.224,-0.383410,-0.097183,-0.220569,100008.07,-35,+75,-184
30551,9.277,-0.527,3.177,-0.475997,-0.092926,-0.235469,100006.40,-34,+75,-185
30561,9.256,-0.460,2.951,-0.509520,-0.059935,-0.247175,100006.24,-34,+78,-185
30571,9.142,-0.491,2.538,-0.502071,-0.006724,-0.241854,100004.48,-33,+79,-187
30580,9.070,-0.276,2.270,-0.460034,0.074156,-0.228551,100004.48,-34,+78,-183
30590,9.283,-0.217,2.398,-0.396713,0.149716,-0.227487,100007.15,-33,+81,-185
30601,9.333,-0.385,2.841,-0.332860,0.174725,-0.234404,100012.84,-33,+81,-185
30611,9.261,-0.344,3.342,-0.291355,0.172065,-0.242386,100006.30,-33,+82,-186
30620,9.518,-0.416,3.557,-0.317961,0.152376,-0.259946,100007.71,-34,+80,-182
30630,9.597,-0.701,3.758,-0.356273,0.095441,-0.264735,100007.71,-33,+84,-183
30641,9.277,0.118,3.542,-0.362658,-0.000339,-0.266331,100010.29,-33,+84,-183
30651,8.989,0.446,3.176,-0.358401,-0.028009,-0.249303,100007.43,-33,+84,-184
30661,8.996,0.283,3.073,-0.277520,-0.031201,-0.228551,100006.16,-34,+84,-181
30670,9.354,0.172,3.067,-0.242401,-0.046633,-0.197689,100006.74,-32,+86,-183
30681,9.567,0.033,3.060,-0.239740,-0.075899,-0.163102,100006.74,-32,+86,-183
30691,9.480,0.165,3.099,-0.253043,-0.109954,-0.122661,100010.02,-32,+86,-184
30701,9.316,0.515,3.252,-0.263153,-0.132834,-0.065193,100007.88,-34,+84,-180
30710,9.437,0.601,3.366,-0.251979,-0.145605,-0.003469,100006.68,-31,+88,-183
30721,9.633,0.657,3.417,-0.224309,-0.159972,0.069430,100005.54,-31,+88,-183
30731,9.966,0.337,3.514,-0.200364,-0.172210,0.151907,100005.54,-31,+87,-183
30741,9.611,0.019,3.260,-0.226970,-0.205201,0.229063,100007.94,-33,+86,-180
30750,8.819,0.368,3.405,-0.249318,-0.236596,0.302494,100007.63,-31,+87,-184
30760,8.827,0.768,3.699,-0.286034,-0.287146,0.391357,100003.97,-31,+87,-184
30771,9.145,2.430,3.395,-0.315300,-0.290339,0.514274,100004.23,-32,+86,-183
30781,9.949,1.744,4.291,-0.220052,-0.247238,0.619632,100004.23,-34,+84,-182
30791,10.071,0.013,2.714,-0.040731,-0.302045,0.675503,100008.17,-32,+85,-185
30800,9.813,-0.207,2.738,0.003434,-0.259476,0.763834,100005.94,-32,+85,-185
30811,10.314,-0.610,3.139,-0.026897,-0.281293,0.784054,100008.28,-33,+82,-185
30821,10.909,-1.147,3.372,-0.095539,-0.344614,0.781393,100007.39,-35,+80,-182
30831,10.691,-0.908,3.836,-0.222181,-0.404742,0.796292,100007.39,-33,+80,-187
30840,11.289,-0.092,4.470,-0.266878,-0.464871,0.813852,100006.82,-33,+80,-187
30851,11.850,-0.656,5.070,-0.312107,-0.525531,0.845778,100006.87,-35,+78,-186
30861,12.229,-1.723,5.662,-0.527612,-0.544155,0.880366,100006.87,-35,+76,-184
30871,13.972,-0.811,4.684,-1.027795,-0.717623,0.908035,100004.84,-33,+78,-188
30880,16.579,2.163,4.798,-1.442309,-0.917164,1.012329,100004.84,-33,+78,-188
30891,19.206,4.465,5.825,-1.523189,-1.071476,1.208145,100004.66,-35,+75,-188
30901,22.218,6.439,7.092,-1.296510,-1.193329,1.412475,100004.50,-36,+74,-187
30911,22.496,6.364,5.174,-1.140070,-1.401916,1.541246,100007.22,-35,+74,-191
30921,18.648,2.789,0.437,-1.037905,-1.628595,1.461962,100008.67,-35,+74,-191
30930,14.466,-2.046,-3.319,-0.986291,-1.678081,1.299668,100008.67,-36,+70,-193
30941,12.743,-8.509,-2.584,-0.837832,-1.506210,1.322017,100010.10,-36,+68,-193
30951,14.261,-12.194,4.397,-0.248254,-1.110320,1.700879,100005.29,-36,+67,-198
30961,16.319,-7.817,7.777,0.416883,-0.760724,1.991411,100005.51,-36,+67,-198
30970,16.695,-6.283,2.234,0.403580,-0.983678,2.054200,100004.24,-40,+61,-200
30981,13.480,-10.231,-0.500,0.323232,-1.137458,2.135612,100004.24,-41,+55,-200
30991,11.510,-10.133,1.305,0.158810,-1.102870,2.110603,100010.62,-40,+54,-206
31001,9.895,-7.080,3.423,-0.129062,-1.007623,2.030787,100007.37,-40,+54,-206
31010,9.367,-4.833,2.487,-0.381282,-0.967715,2.016952,100005.71,-43,+48,-206
31021,7.931,-4.227,0.210,-0.511117,-0.974100,2.053136,100004.66,-44,+44,-207
31031,6.025,-3.794,-0.553,-0.586144,-0.928870,1.986622,100004.66,-45,+44,-213
31041,4.521,-2.879,-0.346,-0.663300,-0.838944,1.818475,100006.02,-45,+39,-213
31051,2.964,-2.238,-0.335,-0.668621,-0.739972,1.656714,100006.22,-45,+39,-213
31060,1.701,-1.285,-0.517,-0.533465,-0.612797,1.481118,100005.02,-47,+36,-213
31071,0.790,0.019,-0.676,-0.340841,-0.509568,1.305521,100005.17,-46,+37,-218
31081,0.171,0.814,-0.946,-0.185997,-0.454229,1.155998,100005.17,-47,+32,-217
31091,-0.238,0.730,-1.173,-0.047649,-0.412192,1.047980,100007.11,-47,+32,-217
31100,-0.797,0.366,-1.163,0.104002,-0.364834,0.925063,100006.53,-47,+31,-216
31111,-1.245,0.342,-1.137,0.258314,-0.317476,0.786182,100004.97,-46,+31,-220
31121,-1.197,0.313,-1.347,0.387617,-0.290871,0.628678,100002.36,-47,+25,-219
31131,-1.117,0.024,-1.712,0.491378,-0.274376,0.463192,100002.36,-47,+25,-219
31140,-1.049,0.312,-1.825,0.574920,-0.269054,0.266311,100006.70,-47,+25,-219
31147,-1.122,1.024,-1.610,0.620149,-0.271715,0.113063,100007.85,-47,+25,-219
31156,-1.421,1.600,-1.125,0.744663,-0.246174,0.005045,100007.85,-46,+25,-222
31166,-1.933,1.653,0.011,1.039451,-0.141880,-0.113083,100002.30,-47,+21,-221
31176,-1.912,0.930,1.081,1.314552,-0.006192,-0.223230,100003.20,-47,+21,-220
31186,-1.536,-0.412,1.548,1.425763,0.102890,-0.334441,100003.20,-47,+21,-220
31196,-1.061,-1.513,1.682,1.367763,0.182707,-0.474386,100005.34,-45,+21,-222
31206,-0.280,-1.973,1.425,1.202809,0.214633,-0.647321,100003.48,-46,+17,-220
31216,0.694,-2.467,1.097,1.091066,0.259331,-0.794184,100002.70,-47,+17,-218
31225,1.478,-2.725,0.952,1.043176,0.311477,-0.923486,100002.70,-47,+17,-218
31236,1.937,-3.557,1.084,1.053286,0.376927,-1.020330,100002.70,-45,+19,-220
31246,2.282,-5.417,1.238,1.072974,0.461000,-1.100679,100006.94,-45,+17,-216
31256,2.821,-6.625,1.628,1.003800,0.547202,-1.231046,100007.73,-45,+19,-214
31266,3.754,-6.874,1.851,0.718057,0.575404,-1.415688,100002.45,-43,+23,-215
31276,4.527,-6.613,1.583,0.230645,0.546670,-1.579046,100006.58,-43,+23,-215
31286,5.006,-6.167,1.319,-0.255172,0.519532,-1.705688,100006.58,-45,+23,-212
31296,5.789,-5.223,1.623,-0.627649,0.501973,-1.831798,100006.69,-43,+29,-210
31306,7.063,-3.758,1.515,-0.847410,0.541881,-1.944605,100006.33,-41,+36,-211
31316,8.392,-3.596,1.026,-0.974584,0.611587,-2.014312,100002.67,-41,+36,-211
31326,9.646,-3.694,1.121,-0.891575,0.706303,-2.041981,100002.67,-42,+39,-206
31336,10.859,-3.637,0.655,-0.619135,0.737697,-2.094660,100009.88,-40,+45,-205
31346,12.298,-5.210,-0.692,-0.320089,0.715349,-2.147871,100009.88,-36,+51,-205
31356,14.062,-6.328,-0.712,0.034296,0.757917,-2.163834,100005.64,-36,+51,-205
31366,13.943,-17.574,2.473,0.278534,0.855294,-2.160110,100006.53,-37,+52,-200
31376,19.829,-35.578,10.835,1.468864,2.475568,-1.282660,100007.69,-36,+55,-197
31386,36.088,-11.579,5.181,1.997249,1.422522,-1.018202,100007.69,-35,+58,-198
31396,16.478,3.431,-0.987,-1.161355,0.086395,-1.026184,100006.66,-35,+58,-198
31407,6.991,18.402,1.294,-2.253244,0.470578,-1.394936,100009.07,-36,+60,-194
31416,10.352,15.711,7.498,-2.133519,0.906376,-1.856807,100006.66,-35,+69,-191
31426,13.090,15.701,17.581,-0.339245,1.298009,-1.459853,100003.97,-33,+72,-192
31436,32.268,8.407,1.564,1.087341,0.667991,-1.725376,100011.23,-33,+72,-192
31447,42.675,-0.036,-5.528,1.509836,0.297642,-1.059174,100009.25,-33,+72,-188
31456,17.608,-2.350,-5.084,0.970277,0.254542,0.450953,100007.69,-32,+72,-190
31466,3.614,-1.546,-1.840,0.912809,0.563697,0.345063,100007.69,-33,+69,-192
31476,-4.121,-3.595,0.896,0.958039,0.556248,0.186494,100006.48,-33,+69,-192
31485,1.772,-4.718,4.301,0.610039,0.475899,-0.163634,100006.48,-36,+67,-188
31496,9.055,-2.323,6.146,0.376975,0.415771,-0.081689,100008.48,-35,+68,-189
31502,11.098,-1.226,6.123,0.350901,0.396615,-0.147670,100007.38,-35,+68,-189
31511,11.540,-2.104,5.322,0.512663,0.418431,-0.141817,100006.97,-35,+68,-190
31521,9.755,-3.649,4.432,0.510534,0.390230,-0.125854,100005.72,-36,+66,-187
31531,9.507,-3.326,2.739,0.188076,0.330633,-0.214184,100005.72,-35,+66,-187
31541,10.932,-1.440,2.165,0.017269,0.258798,-0.263138,100009.77,-35,+68,-187
31551,11.745,-0.057,2.283,0.348241,0.108211,-0.227487,100008.30,-35,+68,-189
31561,10.200,-0.018,1.181,0.400388,0.113532,-0.200881,100007.52,-37,+66,-186
31571,9.415,-0.606,2.284,0.457323,0.222615,-0.172147,100004.02,-35,+68,-188
31581,9.801,-0.504,3.663,0.500424,0.275294,-0.137028,100004.02,-35,+68,-188
31591,10.266,-1.007,4.672,0.365800,0.259863,-0.104570,100011.41,-35,+67,-189
31601,9.920,-1.971,4.392,0.082186,0.200266,-0.106698,100008.64,-38,+66,-186
31611,9.469,-1.799,4.016,-0.195043,0.157698,-0.108826,100008.89,-36,+68,-187
31621,9.459,-1.303,3.362,-0.332860,0.132688,-0.118404,100007.17,-36,+68,-187
31631,9.732,-1.106,2.927,-0.336584,0.108743,-0.107230,100007.17,-36,+68,-188
31641,9.413,-0.496,2.995,-0.302529,0.096505,-0.052423,100010.06,-38,+68,-184
31651,8.769,-0.495,3.341,-0.269007,0.100762,-0.005065,100006.88,-36,+69,-187
31661,8.611,-0.778,3.539,-0.272731,0.093844,0.027394,100007.19,-36,+69,-187
31671,8.808,-1.085,3.515,-0.346162,0.078413,0.057192,100004.16,-37,+69,-187
31681,9.182,-1.232,3.527,-0.448860,0.038505,0.065173,100004.16,-38,+68,-183
31691,8.989,-0.904,3.951,-0.519630,0.001789,0.099761,100009.69,-36,+70,-186
31702,8.831,-0.866,3.740,-0.556878,-0.030669,0.131687,100010.00,-36,+70,-186
31711,8.940,-1.218,3.487,-0.586144,-0.050357,0.129559,100008.22,-37,+70,-185
31721,9.262,-1.483,3.286,-0.657979,-0.055146,0.115724,100006.59,-39,+70,-182
31731,9.500,-1.802,2.897,-0.799520,-0.070045,0.094972,100006.59,-37,+72,-185
31741,9.844,-1.321,2.872,-0.870823,-0.111018,0.091247,100007.34,-37,+72,-185
31751,10.047,-0.515,2.595,-0.826658,-0.161036,0.098164,100009.33,-38,+73,-185
31761,9.846,0.061,2.720,-0.682988,-0.165825,0.137540,100009.13,-39,+72,-181
31771,9.821,-0.380,3.144,-0.562199,-0.150926,0.189155,100004.00,-36,+73,-185
31781,10.101,-1.432,2.841,-0.519630,-0.154651,0.218953,100004.00,-36,+73,-185
31792,10.103,-1.674,3.042,-0.567520,-0.199880,0.240770,100010.23,-38,+74,-183
31801,9.898,-1.165,3.384,-0.649997,-0.226486,0.265247,100007.21,-38,+72,-182
31811,9.810,-0.941,3.442,-0.718107,-0.242449,0.288660,100004.96,-36,+74,-184
31821,9.666,-0.789,3.190,-0.724492,-0.255752,0.334953,100002.40,-36,+74,-184
31831,9.734,-1.171,3.026,-0.755355,-0.280761,0.400403,100002.40,-38,+74,-183
31841,9.820,-1.365,2.919,-0.729281,-0.277036,0.448825,100006.24,-38,+72,-181
31851,9.561,-1.313,3.052,-0.781428,-0.307366,0.504164,100010.63,-38,+74,-183
31861,9.444,-1.020,2.904,-0.876676,-0.353128,0.570146,100008.18,-38,+74,-183
31872,9.723,-0.922,2.676,-0.883061,-0.376009,0.604733,100007.66,-38,+73,-183
31881,10.005,-1.043,2.393,-0.789942,-0.379733,0.647302,100007.66,-40,+72,-181
31891,10.060,-1.234,2.265,-0.716511,-0.376009,0.702641,100008.16,-38,+74,-185
31901,10.173,-1.288,2.335,-0.694162,-0.387183,0.758512,100008.79,-38,+74,-185
31911,10.208,-1.218,2.566,-0.677135,-0.409531,0.819173,100010.52,-38,+71,-183
31922,10.442,-1.831,2.789,-0.665960,-0.430816,0.857485,100005.55,-40,+69,-182
31931,10.682,-2.416,2.621,-0.682988,-0.472320,0.845778,100005.55,-38,+70,-184
31941,10.591,-2.525,2.459,-0.758548,-0.519146,0.832476,100006.67,-38,+70,-184
31951,10.925,-2.339,2.546,-0.851667,-0.582999,0.817577,100007.45,-40,+68,-184
31962,11.311,-1.512,2.516,-0.932547,-0.663348,0.829815,100006.67,-40,+66,-182
31971,11.588,-0.753,2.148,-0.903813,-0.717623,0.867063,100006.63,-40,+68,-187
31981,11.825,-0.899,1.936,-0.768126,-0.741036,0.903246,100006.63,-40,+68,-187
31991,12.021,-1.382,1.834,-0.680327,-0.804889,0.914953,100009.42,-41,+65,-185
32002,12.107,-0.981,1.517,-0.707997,-0.892155,0.945283,100008.48,-41,+63,-186
32011,12.184,-0.537,1.451,-0.667025,-0.951219,1.002751,100006.55,-39,+64,-190
32021,12.276,-0.430,1.304,-0.564327,-1.006027,1.069265,100006.97,-41,+61,-190
32031,12.452,-0.209,1.195,-0.503135,-1.074669,1.167705,100006.97,-41,+61,-190
32041,12.313,0.355,1.272,-0.447795,-1.148632,1.289026,100011.98,-41,+58,-191
32051,12.295,0.638,1.834,-0.378089,-1.198650,1.432696,100008.10,-41,+58,-196
32061,12.796,0.641,2.542,-0.336052,-1.230045,1.589668,100005.29,-41,+52,-195
32071,13.646,0.704,3.235,-0.391392,-1.247072,1.731741,100005.07,-41,+52,-195
32081,14.839,1.171,3.885,-0.571245,-1.282191,1.869558,100005.07,-41,+49,-197
32092,16.756,3.031,5.004,-0.844572,-1.351543,1.992830,100006.84,-40,+48,-202
32101,18.331,4.945,5.555,-1.042694,-1.414155,2.102090,100008.41,-41,+41,-203
32111,18.300,6.645,5.935,-1.023006,-1.456191,2.265980,100004.49,-41,+41,-203
32121,16.933,6.434,5.929,-0.634034,-1.463109,2.494255,100007.37,-40,+37,-204
32132,15.409,3.099,5.858,0.102406,-1.460980,2.897062,100007.37,-38,+34,-211
32141,14.991,-2.223,5.933,0.821286,-1.504081,3.139704,100007.50,-39,+22,-212
32151,16.503,-5.283,7.003,1.493341,-1.501421,3.458437,100004.69,-39,+22,-212
32161,16.987,-4.701,7.687,2.024386,-1.463641,3.649465,100006.30,-38,+13,-213
32172,15.956,-3.080,7.569,2.136662,-1.387017,3.474933,100002.95,-36,+3,-219
32181,13.927,-1.123,7.578,1.990864,-1.290173,3.096071,100002.95,-35,-10,-219
32191,11.615,0.732,5.824,1.785469,-1.316779,2.555979,100006.93,-35,-10,-219
32201,8.929,0.452,5.342,1.480570,-1.284320,2.007906,100006.57,-33,-17,-221
32211,6.245,-2.092,4.313,1.141084,-1.202375,1.667356,100004.68,-30,-21,-225
32222,5.210,-5.584,5.079,0.546186,-0.905458,1.617338,100004.43,-29,-29,-225
32231,5.449,-5.943,5.285,0.127415,-0.678779,1.559870,100004.43,-29,-29,-225
32241,4.994,-3.382,4.561,-0.430768,-0.842137,1.176751,100006.88,-28,-32,-227
32251,3.689,-1.062,3.617,-1.131556,-0.988467,0.706898,100002.64,-26,-31,-232
32262,2.635,-0.489,1.286,-1.824363,-1.216210,0.305155,100002.95,-24,-32,-233
32271,1.809,-0.292,0.344,-2.161189,-1.277403,-0.043909,100007.92,-24,-32,-233
32281,0.780,0.552,-0.029,-1.827556,-1.124687,-0.461083,100007.92,-21,-27,-237
32291,-0.138,1.989,0.610,-1.175189,-0.745825,-1.041615,100004.51,-21,-23,-242
32302,0.129,3.605,2.047,-0.552621,-0.240853,-1.514660,100004.09,-21,-23,-240
32312,1.028,4.215,3.443,-0.170034,0.141202,-1.839247,100004.46,-21,-23,-240
32321,1.324,4.320,4.212,0.006094,0.317863,-2.093064,100002.05,-22,-19,-239
32331,1.112,4.594,3.644,0.118901,0.461532,-2.347412,100002.05,-22,-14,-241
32342,2.497,4.994,2.516,0.323232,0.695661,-2.582072,100004.33,-26,-14,-237
32352,4.179,3.666,1.817,0.605782,0.930853,-2.799706,100001.50,-26,-14,-237
32361,4.760,1.625,1.753,0.888864,1.160724,-2.960935,100001.72,-28,-9,-235
32371,5.056,1.136,1.984,1.206534,1.394321,-3.120035,100000.09,-30,-4,-234
32381,5.960,1.570,1.698,1.408203,1.531605,-3.400457,100000.09,-33,-5,-229
32392,7.412,1.786,0.982,1.582735,1.605036,-3.703228,100000.66,-33,-5,-229
32401,8.460,1.433,0.711,1.801965,1.687513,-3.947466,100000.81,-35,+0,-225
32411,9.178,0.793,0.900,1.987139,1.761476,-4.174145,99998.25,-38,+5,-223
32421,9.789,0.232,1.488,2.073340,1.801917,-4.375283,100001.86,-41,+7,-217
32432,10.226,-0.128,2.098,2.102607,1.820541,-4.540236,100001.86,-41,+7,-217
32442,10.719,-0.180,2.455,2.094625,1.850871,-4.675925,100003.98,-42,+14,-212
32447,11.309,-0.309,2.884,2.076001,1.889715,-4.775961,100005.07,-42,+21,-212
32456,12.091,-0.702,3.542,1.975965,1.900889,-4.880255,100005.07,-42,+21,-212
32466,13.010,-1.366,4.301,1.701396,1.872687,-5.046273,100000.68,-43,+26,-205
32477,13.838,-1.650,4.791,1.325726,1.841293,-5.264970,100002.73,-42,+35,-203
32487,14.749,-1.273,5.032,0.961763,1.858320,-5.489521,100002.73,-40,+43,-201
32496,15.937,-0.505,4.621,0.699965,1.942926,-5.678420,100002.00,-40,+43,-201
32506,17.528,0.609,3.993,0.585562,2.055733,-5.761428,100000.63,-40,+52,-195
32517,19.136,0.298,3.991,0.879818,2.220155,-5.678420,100004.17,-36,+62,-192
32527,20.139,-2.693,3.987,1.409268,2.342008,-5.533686,100004.17,-36,+69,-191
32536,20.874,-6.602,3.365,1.800900,2.322852,-5.345319,100004.17,-36,+69,-191
32546,21.423,-9.606,2.135,1.980221,2.222816,-5.086181,100006.41,-35,+74,-187
32557,21.900,-12.403,0.504,1.936588,2.081274,-4.788200,100005.77,-31,+81,-185
32567,21.223,-14.951,-0.396,1.656167,1.916852,-4.425833,100005.30,-30,+87,-185
32576,18.988,-16.605,0.703,1.134167,1.648137,-4.003870,100004.27,-30,+87,-185
32586,16.856,-18.639,2.436,0.383892,1.332596,-3.498898,100004.27,-29,+93,-182
32596,14.737,-21.188,3.463,-0.422786,0.977679,-2.688494,100008.55,-27,+99,-181
32607,14.148,-23.309,2.423,-0.846346,0.679697,-1.592348,100005.54,-26,+103,-180
32617,15.542,-23.445,-0.506,-1.113465,0.310413,-0.392441,100004.90,-26,+103,-180
32626,16.296,-22.827,-4.779,-1.337483,-0.265862,0.939430,100004.90,-27,+103,-176
32636,16.798,-20.705,-5.884,-0.924034,-0.711770,2.160622,100009.53,-27,+102,-177
32647,17.079,-4.038,0.369,0.089635,-1.009751,3.173759,100009.53,-29,+96,-180
32657,14.461,31.859,11.656,1.442258,-0.913971,3.238144,100007.34,-29,+96,-180
32666,14.151,40.951,1.127,0.367929,-0.542559,1.597118,100002.55,-33,+88,-180
32676,20.952,6.852,-13.866,-0.962346,-0.861293,1.529007,100006.41,-33,+89,-182
32681,22.480,-13.767,-1.119,2.226056,-0.556926,2.695924,100006.41,-33,+89,-182
32692,18.671,-19.756,9.614,4.662587,0.371606,3.248254,100006.84,-36,+79,-186
32702,16.316,-13.635,5.636,2.058974,0.414174,3.620731,100006.42,-42,+68,-185
32711,11.563,-1.398,1.069,0.031635,0.056065,3.611153,100005.17,-43,+63,-187
32721,2.162,1.440,5.522,0.958571,0.339679,3.255172,100007.38,-43,+63,-187
32732,-0.016,-4.910,10.089,1.746093,0.313606,2.480952,100007.38,-47,+56,-187
32742,8.597,-10.070,3.126,0.901635,-0.265862,1.955227,100008.23,-48,+50,-185
32751,15.990,-8.896,-1.497,-0.754291,-0.619183,1.792402,100006.40,-47,+47,-188
32761,15.707,-4.914,0.813,-2.077648,-0.571825,1.691301,100006.24,-47,+47,-188
32772,12.528,0.210,2.347,-2.378822,-0.472320,1.599246,100007.18,-48,+47,-188
32782,8.222,1.406,1.694,-2.007409,-0.372816,1.373631,100007.18,-49,+46,-187
32791,6.880,2.556,1.148,-1.370474,-0.150394,1.233687,100011.02,-49,+45,-188
32801,7.227,3.732,1.356,-0.647337,0.047019,1.146420,100009.77,-49,+45,-188
32812,8.879,1.965,2.150,0.227452,0.194413,1.110237,100003.97,-50,+44,-187
32822,10.434,-0.624,2.889,0.784039,0.252945,1.093210,100007.47,-51,+40,-185
32831,10.358,-2.572,3.826,0.656332,0.250285,1.072457,100007.47,-52,+39,-187
32841,10.087,-4.304,4.773,0.046002,0.158762,0.933044,100007.00,-52,+39,-187
32851,9.620,-3.908,5.561,-0.771850,-0.026412,0.717008,100006.84,-53,+36,-186
32862,8.661,-1.752,5.163,-1.400272,-0.163697,0.483944,100005.33,-52,+35,-184
32872,8.615,0.192,3.709,-1.672712,-0.172210,0.297705,100006.38,-52,+38,-186
32881,8.764,1.839,2.236,-1.567354,-0.163697,0.256733,100006.38,-52,+38,-186
32891,8.892,2.351,1.542,-1.063446,-0.180192,0.329632,100009.24,-53,+38,-186
32902,9.335,1.344,1.850,-0.428639,-0.137623,0.445632,100011.74,-52,+38,-184
32912,9.689,-0.315,2.728,-0.092878,-0.105697,0.569614,100008.45,-52,+38,-186
32921,9.283,-1.364,3.627,-0.122144,-0.122192,0.636659,100007.88,-52,+38,-186
32931,8.839,-0.514,4.125,-0.350951,-0.162632,0.690402,100007.88,-52,+36,-185
32942,8.763,0.925,4.604,-0.543043,-0.257348,0.724990,100010.48,-54,+35,-185
32952,8.556,1.202,4.458,-0.566456,-0.304706,0.724990,100006.82,-52,+37,-188
32962,9.139,0.931,4.034,-0.489832,-0.233935,0.741485,100005.93,-53,+34,-187
32971,9.853,0.491,3.607,-0.447263,-0.272779,0.747870,100006.71,-53,+34,-187
32982,9.438,0.270,3.419,-0.396181,-0.298320,0.802145,100006.71,-54,+31,-185
32992,8.862,-0.171,2.989,-0.311575,-0.266926,0.913889,100008.20,-53,+32,-188
33002,8.959,-0.721,2.441,-0.250915,-0.344614,0.977210,100006.95,-53,+29,-188
33011,9.267,-0.447,2.617,-0.239740,-0.403146,1.048512,100005.19,-53,+29,-188
33021,9.542,0.339,2.590,-0.229630,-0.398889,1.128861,100003.52,-53,+27,-187
33032,9.935,-1.410,2.478,-0.313704,-0.374412,1.245925,100003.52,-52,+27,-190
33037,9.712,-1.439,2.271,-0.229098,-0.355788,1.160255,100006.40,-52,+27,-190
33046,9.929,-0.775,2.431,-0.168438,-0.316944,1.090017,100006.40,-54,+23,-190
33057,10.546,-0.850,2.894,-0.103520,-0.269587,1.092677,100007.65,-53,+21,-189
33067,10.678,-1.282,3.439,-0.027429,-0.239788,1.180476,100010.21,-53,+21,-189
33077,11.127,-2.221,4.042,-0.071062,-0.198284,1.192714,100005.55,-53,+20,-192
33087,11.848,-2.925,3.178,-0.298273,-0.231807,1.312971,100010.49,-52,+15,-192
33097,12.477,-2.305,2.361,-0.618071,-0.288743,1.400237,100008.30,-53,+13,-190
33106,11.957,-1.379,2.180,-0.782492,-0.331311,1.503998,100005.32,-53,+13,-190
33117,11.688,-0.418,1.457,-0.822401,-0.382926,1.592329,100005.32,-53,+13,-193
33127,12.141,0.088,1.379,-0.656915,-0.426027,1.725356,100005.01,-53,+9,-193
33136,12.937,-0.199,1.652,-0.499942,-0.492541,1.845081,100005.01,-53,+7,-192
33146,12.863,-1.200,2.057,-0.578694,-0.570229,2.008970,100006.50,-52,+5,-197
33157,13.279,-1.220,2.188,-0.903813,-0.662816,2.036640,100008.02,-52,+5,-197
33167,14.285,-1.098,2.487,-1.063446,-0.776155,2.133484,100008.91,-52,+1,-196
33177,14.895,-0.863,2.989,-1.109740,-0.911311,2.247356,100004.00,-51,-1,-197
33186,15.292,-0.562,3.562,-1.227868,-1.020926,2.335154,100004.00,-50,-3,-202
33197,16.065,-0.009,4.140,-1.424217,-1.114577,2.395282,100007.86,-50,-3,-202
33207,16.801,0.928,5.194,-1.659409,-1.152357,2.441576,100003.97,-49,-7,-202
33217,17.828,2.814,6.083,-1.965372,-1.164063,2.420823,100004.95,-47,-8,-204
33227,18.761,5.047,7.220,-2.361794,-1.216210,2.414970,100004.95,-46,-7,-208
33236,19.430,7.711,7.531,-2.767794,-1.339127,2.423484,100004.95,-46,-7,-208
33247,19.595,10.324,7.731,-2.941794,-1.477476,2.515007,100003.24,-43,-9,-210
33257,18.922,11.691,7.270,-2.860913,-1.538136,2.642181,100007.05,-42,-9,-213
33267,17.796,8.530,6.153,-2.420858,-1.544522,2.725190,100005.23,-39,-8,-218
33272,17.021,3.083,5.328,-1.906308,-1.608375,2.793832,100003.24,-39,-8,-218
33282,17.390,-3.121,4.249,-1.453483,-1.718521,2.784254,100003.24,-37,-13,-219
33292,18.970,-6.760,4.567,-0.993208,-1.728099,2.767227,100008.81,-37,-13,-219
33302,18.044,-3.728,6.927,-0.080640,-1.625402,2.778933,100006.36,-33,-14,-222
33311,14.304,1.289,8.079,0.745727,-1.447145,2.579924,100008.23,-31,-18,-225
33321,10.431,6.346,8.498,1.216112,-1.255586,2.378255,100005.94,-27,-25,-225
33332,6.901,10.772,4.830,1.478442,-1.117237,2.148383,100005.94,-27,-25,-225
33342,2.934,7.588,2.354,1.208662,-1.242283,1.505062,100004.77,-25,-29,-224
33352,-0.992,-1.481,2.582,1.539635,-1.019861,1.094806,100003.52,-22,-31,-226
33361,-1.656,-7.275,5.205,2.114845,-0.124321,0.693063,100002.42,-22,-37,-222
33372,2.776,-7.744,7.356,2.585762,0.077349,0.082201,100002.78,-22,-37,-222
33382,4.064,-4.380,6.223,2.624606,-0.117935,-0.561652,100002.78,-22,-37,-220
33392,3.979,-2.187,3.916,1.171060,-0.067385,-0.851120,100005.24,-22,-37,-220
33401,3.041,1.799,-1.092,-0.438217,-0.753274,-1.281596,100005.24,-21,-35,-218
33412,1.120,4.853,-2.024,-1.991978,-0.921421,-2.049431,100006.38,-21,-23,-220
33422,0.237,5.728,-0.881,-2.123409,-0.576614,-2.568770,100002.63,-21,-23,-220
33432,0.093,6.499,0.271,-1.186896,-0.068981,-3.012549,100002.63,-20,-13,-221
33442,1.162,5.582,1.580,-0.164181,0.527514,-3.266366,100003.29,-20,-7,-218
33452,2.119,3.337,2.491,0.578644,0.939367,-3.388219,100000.32,-22,+0,-215
33462,3.035,0.769,3.407,0.975066,1.251183,-3.439833,100000.32,-22,+0,-215
33472,4.112,-0.511,3.578,0.947928,1.483715,-3.548916,99999.90,-22,+7,-214
33481,5.167,-0.605,3.140,0.610571,1.593862,-3.779852,99999.90,-22,+13,-210
33491,5.933,0.491,2.244,0.252461,1.636431,-4.060806,99999.02,-22,+23,-207
33502,6.364,1.588,1.625,0.157213,1.731146,-4.368897,100001.67,-22,+23,-207
33512,7.015,1.951,0.874,0.391874,1.913128,-4.605154,99997.23,-22,+33,-205
33522,8.247,2.143,1.044,0.759562,2.145660,-4.852053,100001.52,-22,+39,-200
33531,10.520,2.504,1.167,0.986240,2.274962,-5.062236,100001.52,-21,+49,-198
33542,12.751,2.005,0.508,1.159708,2.271238,-5.187814,100004.52,-21,+49,-198
33552,14.078,0.511,0.140,1.409800,2.252614,-5.270823,99999.30,-19,+56,-193
33562,14.512,-0.578,-0.008,1.683304,2.231861,-5.375117,99999.50,-19,+62,-188
33571,15.341,-0.552,0.250,1.848790,2.166944,-5.515594,100001.69,-17,+73,-184
33582,17.250,0.279,0.999,1.880185,2.044559,-5.634254,100001.69,-17,+73,-184
33592,19.452,0.637,2.156,1.880185,1.928027,-5.693318,100005.19,-13,+81,-180
33602,21.033,-0.662,3.674,2.006827,1.860449,-5.684273,100002.25,-8,+90,-173
33612,21.717,-3.305,4.655,2.087708,1.816284,-5.656071,100005.13,+0,+100,-170
33622,21.836,-6.232,4.712,1.962130,1.748174,-5.589557,100003.77,+0,+100,-170
33628,21.661,-8.591,4.321,1.868478,1.727953,-5.459190,100003.77,+7,+109,-167
33637,21.240,-10.811,3.389,1.755671,1.722632,-5.233044,100003.77,+18,+115,-162
33647,20.317,-13.584,1.600,1.453433,1.703476,-4.778622,100001.50,+18,+115,-162
33657,19.476,-15.724,-0.157,0.771800,1.584284,-4.267797,100000.88,+29,+123,-160
33667,18.848,-18.328,0.132,-0.013594,1.328339,-3.764421,100003.06,+38,+126,-157
33677,16.638,-20.134,1.546,-0.798456,0.918082,-3.183889,100004.32,+43,+127,-153
33687,13.956,-21.465,1.990,-1.407189,0.454083,-2.418715,100009.18,+43,+127,-153
33697,13.424,-21.434,0.915,-1.737097,0.103955,-1.372055,100007.62,+50,+131,-150
33707,13.963,-19.378,-0.433,-1.851501,-0.194559,-0.172147,100007.62,+53,+132,-148
33717,16.136,-14.879,-0.157,-1.526382,-0.399421,0.934109,100009.18,+53,+130,-144
33727,14.466,-12.976,-1.511,-0.826658,-0.675054,1.949374,100007.77,+53,+130,-144
33737,12.747,-11.271,-0.187,0.274278,-0.916100,2.914089,100007.77,+53,+128,-146
33746,11.370,3.690,8.819,1.573690,-0.761788,3.386070,100007.91,+50,+124,-148
33757,10.932,27.841,13.926,2.316515,-0.373348,2.986456,100002.98,+48,+119,-150
33767,15.712,28.867,-1.135,0.376443,-0.449972,1.557741,100003.25,+48,+119,-150
33777,25.384,0.957,-8.954,-0.397777,-0.727733,1.956292,100007.06,+47,+119,-152
33787,25.064,-17.194,5.595,3.297193,-0.006724,3.560602,100004.52,+42,+113,-156
33797,18.463,-17.326,4.214,2.812441,0.161954,3.826657,100008.07,+36,+108,-157
33807,11.199,-5.465,3.115,0.073140,-0.250963,3.752162,100007.76,+36,+108,-157
33817,0.912,3.403,3.973,0.225856,-0.313752,3.427575,100008.74,+31,+105,-158
33827,-3.315,-2.602,6.445,1.294864,-0.121660,2.703906,100008.74,+27,+101,-160
33837,6.899,-7.362,3.096,1.464075,-0.418045,2.234053,100008.74,+26,+98,-161
33847,15.692,-7.749,-1.088,0.546718,-0.595770,2.190420,100007.41,+26,+98,-161
33857,16.586,-7.504,0.065,-0.373300,-0.449440,1.966402,100007.94,+24,+96,-163
33867,13.368,-3.299,1.866,-1.168272,-0.297788,1.838163,100005.58,+21,+94,-162
33876,8.884,-1.396,1.183,-1.676969,-0.245109,1.672677,100004.80,+20,+93,-159
33887,6.950,0.007,-0.339,-1.446565,-0.121128,1.444402,100004.80,+20,+93,-159
33897,7.707,1.538,-0.032,-0.838896,0.073092,1.244329,100004.46,+19,+94,-160
33907,8.904,1.162,1.953,-0.063612,0.246560,1.125136,100006.91,+16,+92,-158
33917,10.078,-0.747,3.188,0.410498,0.341275,1.065540,100006.60,+14,+90,-157
33927,10.081,-2.989,2.867,0.302479,0.362560,1.018182,100006.60,+14,+90,-157
33937,9.640,-4.116,3.047,-0.148750,0.399808,0.911228,100006.60,+14,+90,-158
33947,9.227,-3.868,4.435,-0.788346,0.468450,0.755852,100010.36,+12,+88,-157
33957,9.214,-3.122,5.301,-1.359831,0.371074,0.574402,100009.52,+12,+88,-153
33967,9.647,-0.309,3.844,-1.749336,0.238046,0.342403,100006.59,+12,+88,-153
33977,10.029,1.629,3.224,-1.806804,0.245496,0.317926,100005.13,+11,+90,-153
33982,10.057,2.032,2.992,-1.463593,0.240175,0.340806,100005.13,+10,+90,-151
33992,9.684,1.658,2.590,-1.065575,0.235386,0.417962,100009.98,+10,+90,-151
34002,9.491,0.353,2.671,-0.570181,0.180578,0.536623,100006.06,+9,+89,-148
34012,9.512,-0.762,3.138,-0.290823,0.085331,0.622825,100007.27,+8,+90,-152
34022,9.682,-1.115,4.048,-0.408419,0.039037,0.681889,100003.72,+7,+88,-149
34032,9.481,-0.984,4.317,-0.690970,-0.015238,0.690402,100003.72,+7,+88,-149
34042,9.252,-0.521,4.455,-0.933612,-0.056211,0.698384,100008.52,+7,+88,-146
34052,9.009,-0.193,4.177,-1.033648,-0.100376,0.700513,100007.90,+5,+88,-148
34062,9.182,-0.375,3.553,-1.046419,-0.094522,0.722329,100006.23,+3,+86,-147
34072,9.579,-0.867,2.847,-1.035777,-0.141880,0.760109,100006.38,+3,+86,-147
34082,9.628,-0.613,2.584,-1.035777,-0.187642,0.813320,100006.38,+3,+86,-145
34093,9.633,-0.938,2.849,-1.053868,-0.221165,0.840457,100005.87,+2,+87,-146
34098,9.403,-0.697,3.250,-0.970859,-0.184449,0.864402,100005.60,+2,+87,-146
34107,9.573,-1.584,2.566,-0.987887,-0.231275,0.836200,100005.60,+1,+85,-145
34117,9.805,-1.637,2.592,-1.000657,-0.224889,0.773412,100005.24,+0,+84,-143
34127,9.869,-1.445,2.477,-1.020878,-0.221697,0.770219,100005.82,+0,+85,-145
34138,9.583,-1.354,2.862,-1.053336,-0.224357,0.742017,100005.82,+0,+85,-145
34147,9.853,-0.841,3.152,-1.090052,-0.241917,0.781393,100009.00,-1,+84,-143
34157,10.186,-0.570,3.260,-1.060254,-0.264265,0.954861,100006.58,-1,+83,-142
34167,10.021,-0.569,3.262,-0.932015,-0.260541,1.121411,100005.58,-3,+82,-143
34178,9.947,-0.717,3.442,-0.812823,-0.254155,1.229430,100005.58,-3,+82,-143
34187,10.445,-1.416,3.478,-0.809098,-0.279697,1.324677,100005.58,-6,+80,-141
34197,10.823,-1.604,3.085,-0.896896,-0.335036,1.394384,100007.03,-6,+78,-141
34207,11.514,-1.607,2.935,-0.972456,-0.388247,1.536989,100006.61,-8,+77,-142
34217,11.508,-1.199,3.183,-1.091116,-0.448730,1.632414,100005.58,-8,+77,-142
34227,12.292,-1.392,3.110,-1.207116,-0.511164,1.676402,100005.58,-11,+74,-140
34237,13.228,-0.953,3.486,-1.244364,-0.588852,1.809429,100005.58,-12,+72,-140
34247,13.909,0.271,3.447,-1.349721,-0.779880,2.012695,100009.66,-15,+70,-142
34257,14.012,0.583,3.285,-1.401868,-0.973036,2.259594,100009.29,-15,+70,-142
34268,14.458,0.173,3.257,-1.307685,-1.097549,2.387833,100004.02,-17,+64,-140
34277,15.141,-0.404,3.308,-1.260859,-1.222063,2.377723,100004.02,-21,+61,-141
34287,15.726,-0.517,3.529,-1.384309,-1.307201,2.234053,100007.46,-24,+58,-143
34297,16.998,0.426,3.896,-1.646107,-1.401384,2.062181,100007.46,-24,+58,-143
34308,18.994,3.206,4.394,-2.040400,-1.545054,1.967466,100009.02,-26,+54,-143
34317,21.023,7.494,4.929,-2.376161,-1.725971,1.973319,100005.27,-29,+52,-145
34327,22.903,11.982,5.309,-2.374565,-1.918063,2.107411,100005.48,-31,+50,-147
34337,23.578,14.850,5.476,-2.017519,-2.056411,2.368145,100005.48,-31,+50,-147
34348,21.313,13.903,4.471,-1.386969,-2.121329,2.710291,100007.23,-35,+44,-150
34358,19.136,6.085,5.530,-0.430236,-2.247971,3.034878,100004.31,-38,+39,-152
34367,19.218,-3.346,5.746,0.427525,-2.261806,3.063612,100005.52,-42,+33,-158
34377,20.529,-7.353,8.735,0.919727,-2.085145,3.266878,100001.70,-42,+33,-158
34387,19.017,-5.396,13.090,1.414057,-1.788228,3.481318,100004.05,-45,+23,-161
34398,15.569,0.773,12.688,1.506644,-1.654136,3.288162,100004.30,-48,+16,-165
34407,12.852,5.457,9.806,1.251231,-1.580705,2.891208,100001.65,-52,+9,-170
34417,10.355,7.610,7.121,1.337965,-1.608907,2.345796,100001.65,-52,+9,-170
34427,6.119,5.253,4.947,1.771102,-1.607311,1.979172,100002.27,-54,+1,-173
34438,2.449,-1.894,3.963,2.229249,-1.364136,1.627980,100002.27,-57,-2,-178
34447,-0.381,-7.158,9.397,2.550643,-0.540430,1.112365,100005.50,-59,-9,-182
34457,1.696,-7.500,11.480,2.389414,0.176321,0.487669,100002.47,-59,-9,-182
34467,3.998,-3.037,8.385,0.938350,-0.151458,-0.104037,100001.80,-62,-13,-182
34478,3.359,2.611,4.037,-0.916584,-0.680375,-0.673927,100000.06,-66,-11,-185
34487,1.399,4.785,-0.394,-2.311776,-1.133733,-1.232110,100000.06,-68,-7,-192
34497,-0.257,4.278,-2.290,-2.660840,-0.989531,-1.729633,100003.34,-68,-7,-192
34507,-0.436,3.291,-1.302,-2.102657,-0.526596,-2.172880,100001.44,-69,-1,-194
34518,-0.107,2.261,-0.136,-1.350786,-0.107293,-2.587926,99998.31,-71,+6,-197
34528,0.201,1.726,0.621,-0.769722,0.224743,-2.966256,99998.31,-75,+13,-200
34537,0.683,1.562,1.643,-0.347227,0.522193,-3.258916,99998.31,-75,+13,-200
34547,1.333,1.497,2.538,-0.058291,0.802615,-3.472292,100001.38,-76,+20,-198
34557,2.514,0.866,3.261,0.116241,1.071330,-3.680879,99996.63,-79,+31,-197
34568,3.890,0.383,3.802,0.166791,1.279385,-3.854347,100000.69,-80,+41,-197
34577,3.355,1.409,3.194,0.147103,1.382082,-3.983650,100000.84,-81,+49,-194
34587,2.662,2.222,2.938,0.499892,1.627385,-4.243852,100000.84,-81,+49,-194
34597,4.499,2.214,3.085,1.180460,1.951972,-4.419980,99998.63,-80,+62,-192
34608,7.054,1.795,3.117,1.814735,2.199935,-4.597172,100002.50,-78,+70,-191
34618,9.914,0.802,3.157,2.240423,2.370210,-4.814806,99998.86,-76,+79,-188
34627,12.464,-0.101,2.441,2.323432,2.421293,-4.891961,99998.86,-76,+79,-188
34637,13.263,-0.860,1.178,2.318111,2.411715,-4.848328,100002.59,-72,+89,-188
34648,12.664,-1.857,0.595,2.426661,2.403733,-4.847264,100002.59,-70,+96,-189
34657,14.029,-3.053,1.510,2.362808,2.292522,-5.001576,100001.70,-66,+102,-187
34667,17.144,-5.470,2.878,2.032368,2.016357,-5.197392,100000.77,-66,+102,-187
34677,18.575,-6.601,3.187,1.476846,1.760944,-5.435246,100003.89,-61,+111,-188
34688,17.539,-4.367,3.852,0.881947,1.737531,-5.622548,100003.89,-56,+121,-188
34698,16.283,-2.284,4.901,0.652075,1.853531,-5.665649,100004.87,-50,+129,-185
34707,16.100,-2.529,5.060,0.875562,2.008375,-5.617227,100002.77,-50,+129,-185
34717,17.080,-4.536,4.680,1.250167,2.137678,-5.437906,100001.21,-44,+139,-185
34727,18.901,-7.334,3.412,1.515157,2.206320,-5.168126,100002.26,-38,+146,-184
34738,20.478,-9.400,1.552,1.466735,2.141403,-4.893558,100006.92,-33,+154,-183
34748,20.762,-10.200,-0.160,1.262405,1.961017,-4.542365,100006.97,-33,+154,-183
34757,20.050,-11.775,-0.649,1.129378,1.706669,-4.079430,100003.63,-27,+160,-183
34767,18.626,-16.460,0.380,1.022424,1.428376,-3.507411,100003.63,-23,+165,-183
34778,16.423,-21.604,1.710,0.696773,1.162853,-2.785338,100003.58,-19,+169,-182
34787,15.298,-24.143,1.932,0.063030,0.845183,-1.936091,100003.58,-19,+169,-182
34797,14.682,-23.880,0.957,-0.655850,0.463661,-1.024055,100008.91,-16,+173,-182
34808,14.653,-23.256,-1.284,-0.970859,0.064224,0.248574,100007.72,-17,+172,-179
34818,15.490,-22.218,-2.337,-0.784089,-0.218504,1.299136,100007.72,-20,+169,-177
34828,16.559,-20.317,-3.022,-0.388199,-0.628228,2.366548,100005.73,-20,+169,-177
34837,18.451,-1.507,3.395,0.376443,-1.036889,3.201961,100005.73,-24,+166,-178
34847,19.848,36.394,5.855,1.127782,-1.139586,2.930584,100007.21,-29,+158,-182
34857,24.021,26.136,-11.637,-1.952070,-0.985806,1.242200,100008.07,-31,+157,-178
34868,28.401,-6.263,-4.404,-0.795263,-0.987935,2.514475,100006.63,-31,+157,-178
34878,16.599,-18.687,9.521,4.207101,-0.063128,3.995336,100006.63,-37,+151,-183
34887,11.474,-15.758,6.712,2.706551,0.413642,4.133685,100006.63,-46,+138,-188
34897,8.338,-0.419,-0.384,0.277470,-0.241917,4.207116,100004.52,-52,+129,-186
34908,-1.094,3.409,2.918,0.944736,0.105551,3.607428,100004.19,-52,+129,-186
34918,-1.915,-3.862,9.747,2.677817,0.444505,2.943887,100005.39,-58,+121,-189
34927,9.763,-10.991,4.300,2.668771,-0.147201,2.633135,100001.64,-63,+111,-193
34937,18.764,-15.898,-1.570,0.517452,-0.659623,2.330365,100001.64,-64,+105,-193
34948,18.199,-8.327,1.607,-1.936638,-0.452632,1.954163,100006.05,-64,+105,-193
34958,11.193,0.651,3.005,-3.113133,-0.439330,1.850934,100004.90,-66,+104,-192
34967,6.498,2.138,1.031,-2.741721,-0.327054,1.641283,100004.23,-68,+103,-190
34977,7.220,0.771,0.211,-1.828620,-0.120064,1.384274,100004.23,-70,+101,-187
34988,7.944,1.118,0.757,-0.934144,0.012432,1.324145,100009.21,-71,+101,-187
34998,8.309,1.294,1.832,-0.054034,0.091716,1.312439,100007.43,-71,+99,-187
35007,10.097,-0.010,2.312,0.449342,0.121514,1.267742,100007.43,-74,+95,-187
35017,10.877,-1.792,2.153,0.517984,0.115661,1.232090,100008.43,-75,+92,-185
35027,10.429,-3.683,4.228,0.330149,0.127899,1.197503,100007.27,-76,+92,-187
35038,9.164,-5.100,6.069,-0.261557,0.066175,0.990512,100007.27,-76,+89,-187
35048,7.956,-3.770,5.552,-1.090584,-0.001403,0.686146,100007.62,-78,+88,-186
35057,8.286,-1.470,3.849,-1.600877,-0.020559,0.429669,100005.07,-78,+88,-183
35067,8.917,0.345,2.801,-1.658345,-0.079091,0.307283,100008.20,-77,+90,-184
35078,9.133,1.431,1.789,-1.317263,-0.107293,0.324311,100003.55,-77,+90,-184
35088,9.902,0.833,1.312,-0.761740,-0.048229,0.453081,100006.50,-78,+90,-182
35098,10.822,-0.730,1.711,-0.355740,-0.004596,0.568549,100008.64,-78,+88,-182
35107,10.078,-1.545,2.727,-0.276456,0.007643,0.650494,100005.52,-80,+88,-182
35118,9.157,-1.661,3.576,-0.380217,-0.006724,0.693595,100004.63,-80,+88,-182
35128,8.800,-1.348,4.045,-0.499942,-0.061000,0.705834,100004.63,-82,+86,-182
35137,8.389,-1.142,3.903,-0.553685,-0.071110,0.704769,100004.63,-82,+85,-180
35147,8.582,-1.398,3.353,-0.524951,-0.064724,0.668586,100005.55,-82,+84,-180
35158,9.036,-1.652,3.263,-0.460034,-0.067385,0.630274,100004.44,-82,+84,-180
35168,9.358,-2.015,3.135,-0.485575,-0.101440,0.635595,100003.81,-82,+82,-179
35178,9.434,-1.571,4.621,-0.526016,-0.101972,0.659540,100005.22,-83,+82,-179
35187,9.650,-1.948,3.586,-0.743648,-0.199880,0.702641,100005.22,-84,+81,-181
35197,9.801,-1.543,3.450,-0.895832,-0.209458,0.751063,100004.98,-84,+81,-181
35208,9.724,-2.017,2.789,-1.137942,-0.206265,0.851100,100006.16,-85,+78,-178
35218,9.652,-2.204,1.910,-1.288529,-0.208926,0.811191,100003.94,-85,+78,-178
35227,10.091,-1.330,1.249,-1.284804,-0.215843,0.721265,100003.94,-86,+79,-180
35237,10.445,-0.784,1.201,-1.172529,-0.195623,0.764898,100007.70,-86,+79,-180
35248,11.040,-0.639,1.706,-1.042694,-0.164229,0.842054,100007.70,-85,+77,-178
35258,12.004,-0.528,2.442,-0.968199,-0.193495,1.033081,100007.55,-87,+76,-177
35267,12.061,-0.185,2.919,-0.883061,-0.287146,1.234751,100005.03,-88,+74,-178
35277,12.832,-0.517,2.999,-0.792070,-0.360577,1.406090,100004.67,-88,+74,-178
35288,12.988,-0.988,2.953,-0.842621,-0.420706,1.551356,100004.67,-90,+70,-177
35298,13.798,-0.507,2.958,-0.952235,-0.531385,1.695026,100007.57,-91,+66,-177
35308,13.796,0.014,2.768,-0.932547,-0.637806,1.884457,100005.85,-92,+64,-180
35317,13.495,0.471,2.800,-0.879869,-0.729861,1.962145,100004.96,-92,+64,-180
35328,14.814,0.772,2.666,-0.877208,-0.873531,2.055264,100005.76,-92,+57,-180
35338,15.103,0.330,2.919,-0.849006,-1.013476,2.295778,100008.38,-94,+54,-183
35348,15.263,0.562,3.229,-0.984694,-1.134265,2.408053,100005.51,-95,+49,-186
35357,15.967,0.926,3.821,-1.116657,-1.209825,2.507025,100005.51,-95,+49,-186
35367,17.128,1.391,4.898,-1.293850,-1.257182,2.561832,100003.41,-95,+41,-188
35378,18.863,3.449,6.419,-1.656217,-1.297091,2.555979,100005.35,-96,+37,-190
35388,20.224,6.399,7.899,-2.195776,-1.404577,2.574071,100005.35,-96,+34,-195
35397,20.816,9.901,9.123,-2.543776,-1.540265,2.649098,100003.50,-96,+34,-195
35407,20.324,12.584,9.250,-2.605500,-1.591879,2.751264,100002.81,-95,+28,-197
35418,18.536,10.919,8.934,-2.315501,-1.541329,2.861410,100005.53,-94,+24,-201
35428,17.478,3.157,6.329,-1.745079,-1.542925,2.985924,100000.16,-94,+19,-205
35438,18.822,-7.198,4.814,-1.112933,-1.735549,2.988052,100000.16,-94,+19,-205
35447,21.354,-9.420,6.754,-0.748437,-1.735017,3.014658,100005.02,-91,+11,-209
35458,20.001,-3.520,9.369,-0.025300,-1.588155,3.067869,100002.84,-89,+5,-214
35468,16.034,3.589,9.346,0.378571,-1.418411,2.851300,100002.33,-88,-3,-219
35478,11.358,8.079,8.020,0.363672,-1.194393,2.471374,100002.33,-88,-3,-219
35487,6.384,7.878,4.719,0.418479,-1.134797,2.054732,100002.33,-85,-11,-221
35497,1.658,1.636,2.482,0.620681,-1.009219,1.557741,100004.75,-82,-15,-225
35508,-2.090,-6.086,6.159,0.912809,-0.339293,1.118751,100001.67,-82,-19,-227
35518,-0.499,-7.692,8.581,1.365635,0.426945,0.648366,100001.92,-82,-24,-225
35527,2.889,-4.858,7.761,1.319341,0.274762,0.047082,100000.83,-82,-24,-225
35537,2.593,-1.199,5.273,0.188608,0.453551,-0.328588,100000.83,-82,-24,-225
35548,3.304,3.555,-0.837,-1.543409,-0.129642,-0.740973,100006.32,-82,-21,-227
35558,1.677,6.519,-3.283,-2.999262,-0.609605,-1.549780,100004.85,-80,-12,-230
35568,0.661,6.350,-2.849,-3.157298,-0.398357,-2.020165,99999.95,-80,-12,-230
35577,0.178,6.243,-1.882,-2.057427,-0.000339,-2.389981,99999.95,-80,+0,-232
35588,0.630,5.600,-0.358,-0.656382,0.545606,-2.729999,100001.65,-80,+5,-232
35598,1.592,3.726,0.884,0.406241,1.010137,-2.946568,100001.65,-81,+11,-227
35608,2.866,1.348,2.149,1.057011,1.346431,-3.046604,100002.80,-81,+11,-227
35617,4.256,-0.771,2.989,1.224093,1.564596,-3.149302,99998.30,-82,+17,-225
35628,5.449,-0.689,3.509,0.956974,1.685385,-3.357357,99998.21,-84,+23,-221
35638,5.271,1.531,3.068,0.536075,1.682724,-3.602659,99998.21,-85,+31,-215
35648,5.047,4.006,1.783,0.574387,1.751366,-3.920329,99999.31,-85,+31,-215
35658,6.467,4.592,0.493,1.115011,1.950907,-4.190640,99999.11,-85,+41,-211
35667,8.232,3.141,0.586,1.782277,2.156834,-4.380072,99999.11,-85,+50,-206
35678,9.698,1.512,1.142,2.223396,2.285072,-4.576420,100001.66,-84,+58,-199
35688,10.994,0.655,1.328,2.347909,2.321788,-4.777558,100000.32,-84,+58,-199
35698,11.765,-0.060,1.179,2.340992,2.263788,-4.901007,100000.63,-82,+68,-196
35707,11.848,-0.824,1.430,2.445817,2.175458,-5.017007,100000.73,-78,+78,-192
35718,12.518,-1.545,1.781,2.578845,2.097238,-5.209099,100000.73,-73,+87,-187
35728,14.552,-2.291,2.362,2.540533,1.986559,-5.472493,100003.18,-73,+87,-187
35738,16.604,-1.960,2.787,2.225524,1.848210,-5.701832,100003.18,-67,+100,-185
35747,17.853,-0.850,3.663,1.799304,1.749770,-5.828475,100000.89,-58,+113,-183
35753,18.374,-0.503,4.491,1.635414,1.741788,-5.865722,100000.36,-58,+113,-183
35763,18.981,-1.596,5.390,1.724809,1.800320,-5.869447,99999.17,-49,+125,-181
35773,20.121,-4.577,6.026,1.986607,1.849807,-5.856144,100002.41,-37,+137,-182
35782,20.943,-8.461,5.554,2.203707,1.892908,-5.757704,100002.41,-26,+146,-184
35792,22.248,-10.925,4.159,2.220203,1.953568,-5.488988,100003.23,-26,+146,-184
35803,23.103,-12.506,2.250,2.045139,1.965806,-5.078200,100005.30,-15,+151,-185
35813,21.672,-14.679,0.988,1.651910,1.866834,-4.588659,100004.90,-5,+157,-189
35823,20.269,-19.512,1.404,1.208130,1.640155,-4.058677,100004.37,+2,+158,-190
35832,17.408,-24.945,2.349,0.582901,1.278321,-3.337136,100004.37,+2,+158,-190
35843,14.119,-27.968,2.233,-0.274860,0.797826,-2.389449,100008.05,+9,+160,-187
35853,13.283,-27.209,1.323,-1.112933,0.390230,-1.166661,100012.38,+13,+163,-188
35863,15.784,-24.427,0.812,-1.568951,0.033716,0.050274,100007.98,+14,+162,-185
35872,15.700,-22.579,-2.295,-1.470510,-0.415385,1.320953,100007.58,+14,+162,-185
35883,16.169,-19.506,-3.463,-0.814951,-0.847458,2.580456,100007.58,+13,+158,-182
35893,16.878,-1.349,0.380,0.266828,-1.219403,3.455777,100006.84,+8,+154,-185
35903,16.901,37.015,7.993,1.514625,-1.223127,3.196107,100005.84,+6,+147,-188
35913,20.458,40.431,-6.832,-0.212603,-0.972504,1.558273,100004.64,+6,+147,-188
35922,25.914,-1.419,-8.630,-0.670217,-0.955476,2.176585,100008.56,+6,+147,-186
35933,17.776,-22.493,12.257,4.771669,0.071496,3.896896,100008.56,+0,+137,-195
35943,13.556,-20.769,9.509,3.920294,0.342872,4.330033,100002.10,-8,+125,-198
35953,10.423,-4.655,0.468,0.650479,-0.102504,4.247556,100007.74,-8,+125,-198
35962,2.098,2.709,4.534,1.366699,0.056597,3.744712,100005.91,-14,+117,-198
35973,-0.808,-9.290,11.052,2.455395,-0.147201,3.000823,100006.49,-19,+109,-202
35983,11.456,-13.514,2.253,1.378405,-0.965054,2.688475,100006.49,-19,+103,-205
35988,19.203,-14.210,-3.118,-0.649465,-1.178430,2.431998,100008.91,-19,+103,-205
35998,18.251,-7.485,-0.679,-2.088290,-0.844797,2.079741,100008.91,-21,+101,-202
36008,13.186,0.690,1.792,-2.937005,-0.578210,2.077080,100006.88,-23,+103,-202
36018,7.279,2.031,-0.659,-2.363923,-0.484559,1.970659,100004.89,-23,+103,-202
36028,6.060,3.747,-2.627,-1.235850,-0.265330,1.642879,100006.66,-25,+101,-200
36038,6.286,4.205,-0.862,0.339727,-0.056211,1.505062,100006.62,-26,+98,-198
36048,9.292,-0.298,1.524,1.435873,0.149716,1.518365,100007.24,-29,+93,-202
36058,11.967,-6.528,2.765,1.295928,0.267312,1.406622,100005.10,-29,+93,-202
36068,11.873,-10.156,5.907,0.174241,0.347129,1.212402,100005.10,-30,+88,-201
36078,9.019,-7.340,6.523,-1.738694,0.331697,0.997962,100000.87,-32,+89,-198
36087,7.315,-1.608,3.419,-2.940730,0.334358,0.765962,100000.87,-34,+92,-197
36098,8.613,2.554,0.657,-2.725757,0.374798,0.559503,100005.97,-34,+92,-197
36108,9.553,4.068,0.734,-1.756785,0.434927,0.483944,100004.41,-35,+94,-192
36118,10.036,1.944,2.819,-0.651061,0.413110,0.563228,100002.63,-34,+94,-190
36128,9.923,-1.090,3.849,-0.146621,0.252945,0.583980,100005.55,-36,+93,-192
36137,9.696,-2.769,3.997,-0.287630,0.161954,0.622825,100005.55,-36,+93,-192
36148,9.778,-3.169,3.993,-0.682988,0.106615,0.608458,100006.73,-38,+92,-189
36158,9.552,-1.512,3.824,-1.017685,0.059789,0.608458,100003.43,-38,+92,-188
36168,9.443,-0.398,3.443,-1.077813,0.061918,0.649430,100004.63,-40,+92,-189
36178,9.701,-0.423,3.029,-0.937336,0.092248,0.691467,100004.63,-40,+92,-189
36188,9.887,-0.859,2.165,-0.788878,0.106083,0.730843,100004.63,-40,+90,-187
36198,10.208,-1.500,1.926,-0.724492,0.117257,0.742549,100008.36,-41,+90,-186
36208,10.263,-2.009,2.384,-0.773979,0.105551,0.752659,100008.05,-42,+90,-186
36218,10.194,-1.986,3.030,-0.924566,0.068835,0.791503,100006.31,-42,+90,-186
36224,10.196,-1.810,3.399,-1.064511,0.011367,0.831411,100005.11,-43,+89,-184
36233,10.186,-1.571,3.485,-1.186896,-0.053550,0.874512,100005.11,-44,+89,-183
36243,9.863,-1.361,3.412,-1.302896,-0.129642,0.930384,100006.23,-44,+89,-183
36253,9.226,-1.079,3.143,-1.382180,-0.182853,0.948476,100006.30,-45,+89,-183
36263,8.886,-1.343,2.731,-1.466786,-0.207330,0.972421,100005.77,-46,+86,-181
36273,8.949,-1.465,2.551,-1.415171,-0.204669,0.878237,100005.41,-47,+87,-180
36283,10.052,-1.242,2.355,-1.299171,-0.220100,0.805870,100005.41,-47,+87,-180
36293,10.762,-1.001,2.715,-1.176786,-0.318541,0.856953,100006.12,-49,+87,-182
36303,10.889,-0.517,2.880,-1.033648,-0.452100,0.947411,100007.23,-48,+86,-180
36313,11.222,-0.107,3.396,-0.930951,-0.592577,1.113430,100006.65,-50,+84,-180
36323,11.386,-0.098,3.232,-0.803777,-0.689421,1.299668,100006.70,-50,+84,-180
36333,12.343,-0.291,2.963,-0.786217,-0.761256,1.520494,100006.70,-51,+83,-183
36343,13.104,-0.121,2.815,-0.821514,-0.846394,1.797368,100007.57,-52,+78,-183
36353,13.642,-0.019,3.038,-0.803245,-0.912907,1.967466,100004.70,-52,+75,-183
36363,13.957,0.567,3.202,-0.721832,-0.994320,2.097833,100001.93,-52,+75,-183
36373,14.485,1.034,2.883,-0.647869,-1.115641,2.166475,100003.09,-54,+73,-186
36383,15.464,0.993,2.866,-0.620199,-1.215146,2.247888,100003.09,-54,+66,-188
36393,16.267,0.310,3.196,-0.791538,-1.299751,2.420291,100006.27,-56,+62,-189
36403,17.033,0.877,4.009,-1.153373,-1.354026,2.533631,100004.38,-56,+62,-189
36413,18.367,3.219,5.485,-1.607262,-1.385953,2.600144,100004.45,-56,+58,-192
36423,20.026,6.506,6.771,-2.114895,-1.459384,2.668787,100003.66,-56,+54,-194
36433,21.233,10.403,8.088,-2.391593,-1.586026,2.752328,100003.66,-56,+52,-196
36443,22.030,13.358,9.170,-2.354877,-1.675953,2.823098,100007.27,-56,+52,-196
36453,20.817,11.123,9.365,-1.964840,-1.698833,2.962511,100004.77,-56,+48,-200
36463,19.089,3.287,6.855,-1.181575,-1.689788,3.146089,100002.25,-53,+41,-202
36473,19.974,-7.626,5.433,-0.527080,-1.893586,3.205153,100005.64,-53,+35,-205
36483,22.440,-10.793,9.415,-0.309447,-1.898907,3.214199,100005.64,-53,+35,-205
36493,20.727,-4.018,10.781,-0.213667,-1.838778,3.043392,100004.08,-52,+29,-213
36503,15.882,3.110,10.419,-0.212071,-1.661054,2.732640,100002.66,-48,+21,-215
36513,11.417,7.203,9.274,-0.172695,-1.411494,2.381979,100003.55,-46,+18,-219
36524,6.651,8.086,5.563,0.108259,-1.235366,2.019613,100002.56,-46,+18,-219
36533,1.424,1.988,3.317,0.076333,-1.083182,1.449723,100002.56,-43,+13,-225
36543,-1.474,-5.704,4.598,-0.200896,-0.555862,1.017650,100001.87,-39,+11,-225
36553,0.260,-7.087,7.623,-0.256768,-0.077495,0.615907,100003.13,-39,+11,-227
36563,3.223,-3.210,5.793,-0.009869,-0.272247,-0.005065,100000.41,-39,+11,-227
36573,2.641,1.086,3.447,-0.213667,-0.416449,-0.552606,100003.96,-36,+10,-230
36579,1.794,1.894,1.895,-0.778236,-0.221697,-0.741505,100003.96,-33,+12,-229
36588,1.275,2.664,-1.690,-1.566822,-0.333972,-1.029376,100003.96,-33,+12,-229
36598,0.861,3.865,-4.651,-2.606565,-0.428155,-1.649284,100003.13,-31,+19,-231
36609,1.600,4.367,-3.056,-3.037042,-0.166357,-2.227155,100003.13,-28,+27,-233
36618,1.114,5.103,-1.464,-2.566124,0.066707,-2.766715,100004.59,-26,+36,-231
36628,0.675,5.122,-0.641,-1.409850,0.496652,-3.256788,99999.45,-26,+36,-231
36638,1.703,4.048,1.122,-0.087025,1.131458,-3.532953,100003.63,-24,+43,-230
36648,3.644,1.491,4.303,0.975066,1.701348,-3.482402,100001.70,-24,+49,-230
36658,2.611,-0.398,5.809,1.217708,1.968999,-3.354164,100001.70,-22,+50,-225
36668,1.161,0.072,5.278,1.059672,2.189825,-3.648952,99996.73,-22,+50,-225
36678,3.267,2.620,3.647,1.438002,2.448430,-4.069320,99997.26,-23,+54,-223
36688,6.673,4.333,2.839,2.298423,2.743751,-4.391246,99997.26,-22,+58,-220
36698,9.608,3.030,3.389,2.988037,2.955531,-4.563650,100001.89,-21,+59,-215
36708,10.888,0.737,3.544,3.185982,2.976283,-4.625906,99999.91,-21,+59,-215
36718,11.135,0.093,0.976,3.067854,2.893274,-4.680714,100000.80,-22,+63,-215
36728,11.117,-0.478,-1.859,3.005065,2.817182,-4.820659,99999.84,-20,+64,-213
36739,11.171,-1.163,0.141,2.982184,2.787384,-4.831833,100001.26,-18,+67,-212
36748,13.552,-2.015,4.092,2.910881,2.624026,-4.861099,100001.21,-18,+67,-212
36758,17.394,-5.618,7.316,2.541065,2.187164,-5.130878,100003.09,-17,+71,-213
36768,17.794,-7.978,6.488,1.676919,1.879605,-5.488988,99999.80,-14,+76,-214
36779,15.126,-4.816,5.955,0.716461,1.935476,-5.799208,99999.80,-10,+82,-213
36788,14.237,-2.639,6.581,0.363672,2.152577,-5.883814,99999.80,-10,+82,-213
36798,14.651,-2.513,6.566,0.326956,2.326045,-5.840713,100002.16,-8,+91,-215
36808,16.320,-3.164,6.145,0.336002,2.496852,-5.710346,100005.70,-3,+98,-215
36818,19.278,-3.838,5.119,0.272681,2.651696,-5.534218,100001.53,+0,+103,-214
36828,21.469,-3.896,2.888,0.131140,2.674577,-5.292108,100001.89,+0,+103,-214
36838,21.666,-4.884,0.058,0.154021,2.520265,-4.989337,100001.89,+1,+109,-214
36848,21.019,-7.757,-2.090,0.249800,2.254210,-4.641337,100006.98,+5,+115,-214
36858,19.678,-12.518,-2.268,0.334938,1.964742,-4.166163,100003.95,+8,+118,-212
36869,17.496,-17.033,-1.616,0.305672,1.680596,-3.521246,100003.48,+8,+118,-212
36878,15.443,-19.363,-2.369,0.051324,1.329403,-2.598036,100003.48,+10,+123,-212
36888,14.366,-19.521,-3.492,-0.130126,0.913293,-1.448679,100009.97,+12,+122,-213
36898,14.323,-18.562,-3.914,0.098681,0.470578,-0.211524,100009.97,+10,+120,-211
36909,14.547,-17.924,-3.863,0.512131,0.078945,1.010733,100009.34,+7,+120,-211
36918,14.318,-17.853,-3.366,0.714332,-0.285550,2.067502,100009.34,+7,+117,-213
36928,14.093,-15.682,-3.617,0.678149,-0.654834,2.873649,100006.73,+5,+111,-216
36933,15.429,-9.570,-2.230,0.800002,-0.848522,3.239740,100006.73,+5,+111,-216
36943,13.577,-5.803,-2.080,1.164497,-1.006027,3.382346,100006.70,+3,+105,-217
36954,11.785,11.451,4.965,1.884442,-1.134265,3.523355,100005.81,+0,+98,-223
36963,13.612,37.055,13.749,2.675689,-0.825641,2.772548,100000.23,-1,+87,-226
36973,24.873,32.129,-13.644,1.062332,-0.910247,1.664163,100004.56,-1,+87,-226
36983,38.093,-12.747,-7.961,1.032534,-0.798504,2.941759,100004.56,-1,+84,-226
36994,25.303,-31.137,16.269,5.487889,-0.020559,4.631739,100005.98,-7,+68,-232
37003,11.403,-15.663,9.344,2.377175,-0.173275,4.345996,100007.07,-10,+55,-232
37013,1.989,-0.871,2.612,-0.565924,-0.401018,3.992676,100005.51,-10,+55,-232
37023,-5.859,-5.066,4.754,0.582901,-0.232871,3.282309,100004.35,-11,+50,-229
37033,4.321,-11.102,6.922,1.039451,-0.550008,2.662401,100004.35,-13,+44,-234
37044,16.622,-8.577,1.115,-0.316896,-1.094889,2.572475,100007.74,-12,+39,-234
37053,18.536,-8.220,-1.368,-1.591299,-1.066155,2.179245,100009.20,-12,+39,-234
37063,13.658,-2.897,1.323,-2.021244,-0.772430,1.952035,100004.60,-11,+40,-233
37073,7.736,0.688,0.829,-2.201629,-0.655898,1.971191,100007.79,-12,+42,-235
37084,5.633,2.211,-0.758,-1.701978,-0.443054,1.761539,100007.79,-11,+41,-235
37093,6.884,0.848,-1.266,-0.620199,-0.225954,1.446530,100008.81,-11,+41,-235
37103,8.277,0.960,-0.093,0.630791,-0.005660,1.326274,100004.47,-12,+39,-233
37113,8.996,-1.109,1.647,1.374681,0.207184,1.241136,100005.78,-14,+35,-235
37124,10.569,-4.273,2.460,1.352332,0.361496,1.123540,100006.05,-13,+31,-234
37133,10.812,-6.289,2.624,0.517452,0.401936,1.004347,100006.05,-13,+31,-234
37143,9.890,-4.425,3.241,-0.617538,0.398743,0.876109,100007.46,-15,+29,-232
37153,9.659,-3.094,4.729,-1.332694,0.379055,0.763301,100008.82,-16,+30,-234
37164,9.522,-2.983,5.780,-1.854694,0.293918,0.616439,100003.76,-16,+32,-231
37169,8.845,-1.959,5.381,-2.262822,0.178450,0.417430,100003.71,-16,+32,-231
37178,8.394,0.127,4.098,-2.441079,0.105019,0.251944,100003.71,-16,+36,-231
37188,8.580,2.510,2.211,-2.092015,0.097037,0.211504,100003.71,-17,+39,-231
37198,9.592,2.806,1.264,-1.274162,0.150780,0.332825,100004.88,-17,+39,-231
37209,10.042,1.685,1.633,-0.469612,0.197606,0.510017,100003.94,-16,+40,-229
37219,10.077,-0.811,3.020,-0.048181,0.235386,0.628678,100006.03,-17,+39,-229
37228,10.264,-3.023,4.259,-0.182273,0.242303,0.685613,100006.03,-21,+39,-229
37238,9.699,-3.509,4.602,-0.697355,0.216230,0.700513,100007.94,-21,+39,-229
37249,9.276,-2.497,4.428,-1.189024,0.158230,0.663265,100007.94,-19,+39,-228
37259,9.508,-0.783,4.087,-1.371538,0.023606,0.646769,100007.20,-20,+40,-227
37268,9.101,0.333,3.389,-1.236382,-0.166889,0.647302,100007.27,-21,+41,-228
37278,9.429,0.177,3.176,-0.834639,-0.265862,0.715944,100003.30,-21,+41,-228
37288,9.623,-1.363,3.487,-0.673410,-0.299385,0.809595,100003.30,-19,+41,-227
37299,10.155,-2.066,2.945,-0.775575,-0.329715,0.883026,100009.00,-19,+41,-227
37309,10.337,-1.476,2.999,-0.998529,-0.346210,0.914953,100005.81,-21,+41,-229
37318,10.334,-1.388,2.813,-1.039501,-0.337164,0.964439,100003.45,-21,+41,-229
37328,10.641,-1.618,2.430,-0.978841,-0.289807,1.046384,100001.70,-19,+41,-228
37339,11.223,-2.228,2.114,-1.016621,-0.286614,1.133650,100008.29,-19,+41,-227
37349,11.726,-2.269,1.829,-1.169336,-0.335036,1.176219,100006.40,-21,+42,-229
37358,12.125,-2.312,1.930,-1.387501,-0.429219,1.229430,100006.66,-21,+42,-229
37368,12.235,-0.948,2.285,-1.371538,-0.548412,1.159723,100006.66,-19,+41,-227
37379,12.016,0.424,2.555,-1.235850,-0.656430,1.241668,100004.63,-19,+41,-227
37389,11.874,1.063,2.801,-1.012364,-0.757531,1.468347,100004.63,-19,+41,-229
37398,12.486,1.289,3.127,-0.770254,-0.861825,1.763668,100007.59,-17,+37,-229
37408,13.890,1.455,3.726,-0.608493,-0.950687,2.120713,100004.62,-17,+37,-229
37419,14.578,-0.813,3.679,-0.679263,-1.042210,2.551190,100005.96,-17,+36,-230
37429,15.233,-0.514,3.186,-0.889447,-1.131072,2.443704,100002.68,-16,+33,-232
37439,16.016,0.319,2.725,-1.184767,-1.237494,2.410181,100002.68,-14,+30,-232
37448,16.801,1.572,3.050,-1.378455,-1.359879,2.392089,100005.59,-14,+30,-232
37458,18.087,2.554,3.921,-1.494455,-1.477476,2.443172,100005.51,-12,+29,-234
37469,19.573,4.290,5.467,-1.641318,-1.549843,2.521392,100006.87,-11,+28,-237
37479,20.426,6.329,7.444,-2.001556,-1.609971,2.556511,100006.87,-7,+27,-237
37488,20.736,9.261,9.358,-2.329868,-1.706815,2.613979,100006.87,-7,+27,-237
37498,20.555,12.029,10.963,-2.461299,-1.760558,2.711355,100007.52,-6,+27,-237
37509,19.353,11.487,11.673,-2.306987,-1.690320,2.876842,100004.11,-3,+26,-240
37519,17.264,4.612,9.245,-1.800418,-1.599329,3.048181,99999.72,+0,+24,-240
37528,17.316,-6.791,5.840,-1.157630,-1.761090,3.123740,100004.06,+0,+24,-240
37538,20.563,-11.646,5.549,-0.714915,-1.838778,3.071594,100004.06,+1,+21,-242
37549,21.483,-5.957,8.296,-0.106713,-1.748320,2.984860,100005.52,+4,+16,-245
37559,18.168,1.888,9.069,0.470626,-1.598797,2.841722,100005.14,+7,+9,-245
37569,13.000,8.317,8.067,0.586094,-1.359879,2.565557,100003.42,+7,+9,-245
37578,7.767,10.079,4.547,0.667507,-1.260375,2.169667,100003.42,+8,+5,-245
37588,2.841,5.079,2.746,0.857470,-1.252393,1.492824,100002.54,+11,+1,-248
37599,-0.123,-3.699,1.280,1.029873,-0.947494,1.059687,100004.27,+12,-3,-246
37608,0.530,-9.439,5.568,0.919727,-0.410064,0.815980,100004.27,+12,-3,-246
37618,2.642,-8.567,7.477,1.360846,-0.390375,0.358898,100002.49,+12,-5,-247
37628,1.918,-3.261,6.433,1.624240,-0.309495,-0.402551,100000.40,+11,-9,-247
37639,0.705,1.181,5.242,1.008057,-0.013642,-0.918165,100000.40,+10,-11,-244
37649,0.324,2.873,3.641,-0.297740,0.180578,-1.148037,100004.34,+10,-11,-244
37659,0.399,4.502,-1.111,-1.367813,-0.073238,-1.491780,100004.90,+7,-6,-245
37668,0.343,4.700,-2.888,-1.857354,-0.260541,-1.978660,100000.68,+7,+0,-246
37679,0.405,3.786,-1.166,-1.306088,0.032120,-2.395302,100001.04,+6,+6,-244
37689,0.609,2.571,0.818,-0.427575,0.470046,-2.801834,100002.51,+6,+6,-244
37699,0.960,1.288,1.869,0.108259,0.911165,-3.189742,100001.15,+3,+12,-244
37708,1.647,0.610,2.505,0.313122,1.322486,-3.434512,99999.68,+0,+18,-243
37719,2.789,-0.560,3.435,0.345580,1.658247,-3.504219,99999.68,-3,+23,-238
37729,3.432,-1.052,3.472,0.172112,1.875880,-3.594145,99997.76,-3,+23,-238
37738,4.035,0.397,2.773,-0.194511,1.979109,-3.819760,99997.76,-8,+31,-237
37748,5.157,2.518,1.426,-0.284970,2.063183,-4.078365,99999.08,-12,+41,-235
37760,7.117,4.289,0.218,0.222840,2.224235,-4.320830,99999.33,-15,+50,-230
37769,8.607,4.306,-0.054,0.922387,2.418100,-4.520549,99999.33,-15,+50,-230
37779,9.748,3.267,0.170,1.590717,2.581457,-4.672200,100001.42,-19,+58,-229
37788,10.434,2.291,0.669,2.066423,2.667127,-4.821191,100001.42,-22,+66,-228
37798,11.292,1.651,0.768,2.435707,2.653824,-4.948365,100003.06,-24,+75,-223
37809,12.477,0.431,1.066,2.735285,2.586246,-5.096824,100001.94,-24,+75,-223
37819,13.722,-1.619,1.603,2.907156,2.491531,-5.260181,100001.70,-25,+84,-223
37829,15.128,-2.926,2.174,2.902368,2.359035,-5.470365,100001.70,-22,+93,-223
37838,16.647,-2.566,2.378,2.638441,2.172797,-5.732162,100001.70,-19,+103,-222
37849,18.233,-0.793,2.598,2.277671,1.994008,-5.907759,100003.86,-19,+103,-222
37859,19.823,-0.392,3.514,2.172313,1.914724,-5.973741,100002.61,-13,+114,-223
37869,21.468,-2.682,5.075,2.425065,1.928559,-5.972144,100003.70,-6,+123,-227
37878,22.125,-5.424,6.318,2.597469,1.891843,-5.904034,100002.56,+2,+129,-227
37889,21.773,-7.712,7.271,2.625138,1.902485,-5.624144,100002.56,+8,+132,-232
37899,22.460,-10.830,6.668,2.702294,2.054137,-5.119704,100004.48,+8,+132,-232
37909,22.960,-15.648,4.112,2.537340,2.130229,-4.513099,100003.80,+14,+133,-235
37919,21.909,-21.134,0.897,1.987139,1.982302,-3.904365,100005.31,+17,+136,-234
37928,18.780,-25.182,-0.178,1.320405,1.674742,-3.226457,100005.31,+16,+136,-237
37939,14.632,-28.706,2.106,0.474883,1.171899,-2.314421,100007.55,+16,+136,-237
37949,12.851,-30.222,3.858,-0.820272,0.505697,-1.118771,100006.77,+17,+139,-237
37958,13.829,-26.169,3.304,-2.043061,-0.065789,0.168935,100006.77,+18,+145,-232
37968,15.478,-20.009,1.969,-2.345299,-0.469660,1.372567,100003.78,+14,+146,-232
37979,14.946,-16.319,0.314,-1.758382,-0.662284,2.288860,100004.58,+14,+146,-232
37989,15.299,-6.552,-2.101,-1.041098,-1.119366,3.148750,100004.58,+10,+145,-232
37999,15.964,23.249,4.817,0.207232,-1.297623,3.210474,100004.70,+7,+143,-232
38008,19.456,45.754,-2.043,0.248204,-1.125751,1.985025,100003.55,+3,+137,-237
38019,28.698,14.928,-15.331,-1.575868,-1.069348,1.612549,100005.54,+3,+137,-237
38029,25.582,-13.876,3.750,2.921524,-0.640999,3.521226,100007.37,+1,+135,-236
38039,9.706,-20.844,11.780,5.659760,0.226340,4.263519,100008.20,-4,+119,-244
38049,5.155,-12.557,5.252,2.501157,0.179514,3.978841,100004.07,-12,+107,-247
38059,6.137,-1.981,-2.047,1.306038,0.189624,3.743648,100005.90,-12,+107,-247
38069,4.872,-3.475,5.167,2.497432,0.568486,3.294015,100004.85,-16,+99,-247
38079,7.928,-10.924,9.174,2.996019,0.066175,2.873117,100004.85,-21,+90,-249
38088,15.954,-12.587,1.688,1.390112,-0.592577,2.601741,100004.85,-22,+78,-253
38098,15.858,-14.041,0.581,-1.484877,-0.712302,2.010567,100008.51,-22,+78,-253
38109,11.500,-3.001,2.884,-3.101427,-0.585660,1.638090,100006.68,-21,+82,-250
38114,8.666,1.597,2.522,-3.501573,-0.571825,1.584879,100002.65,-22,+89,-247
38124,7.445,1.781,1.133,-3.067372,-0.430816,1.469411,100003.38,-22,+89,-247
38133,7.807,0.743,-0.566,-2.261758,-0.177532,1.275723,100003.38,-24,+88,-247
38144,8.140,2.500,-0.093,-1.416235,0.047551,1.124072,100007.62,-24,+92,-245
38154,8.776,4.011,1.389,-0.243465,0.229000,1.027228,100004.23,-27,+91,-243
38164,9.769,1.247,2.514,0.862259,0.346597,0.991577,100004.95,-27,+91,-243
38173,10.071,-2.296,3.285,1.182589,0.348725,1.007540,100004.48,-29,+83,-245
38183,9.362,-4.732,3.868,0.686130,0.325844,0.890476,100004.48,-30,+82,-244
38194,9.560,-5.629,5.646,-0.283906,0.294450,0.640384,100004.59,-31,+84,-242
38204,9.676,-5.279,7.037,-1.399740,0.208248,0.371669,100004.44,-31,+84,-242
38214,8.671,-2.993,6.290,-2.366583,0.131092,0.120513,100007.58,-32,+83,-242
38223,8.484,0.495,4.214,-2.701813,0.110340,-0.007726,100006.22,-31,+90,-239
38234,9.043,3.495,1.559,-2.287831,0.125239,0.056660,100006.22,-33,+96,-235
38244,10.012,4.224,0.331,-1.289061,0.191221,0.288660,100010.51,-33,+96,-235
38254,10.730,1.858,1.507,-0.314768,0.269441,0.525448,100006.27,-34,+94,-235
38263,10.722,-1.118,3.554,-0.004016,0.281679,0.690402,100004.91,-35,+94,-234
38274,10.331,-2.223,5.182,-0.319025,0.175257,0.822898,100002.93,-36,+94,-233
38284,9.131,-1.425,5.579,-0.896364,0.041166,0.958586,100002.93,-36,+94,-233
38294,8.574,-0.782,5.628,-1.337483,-0.056743,1.059687,100006.47,-36,+92,-233
38304,8.423,-0.120,5.048,-1.656217,-0.135495,1.006476,100007.52,-38,+94,-230
38313,8.886,1.337,3.834,-1.639189,-0.238192,0.921338,100006.16,-39,+95,-229
38324,9.477,1.331,3.450,-1.283208,-0.311623,1.024035,100004.95,-39,+95,-229
38334,9.996,1.190,2.734,-0.919245,-0.290871,1.269338,100004.95,-40,+93,-231
38344,10.785,-0.383,1.695,-0.825593,-0.327054,1.397576,100007.97,-41,+94,-229
38353,11.441,-2.576,1.412,-0.853263,-0.364834,1.465686,100008.53,-42,+92,-227
38364,11.122,-2.228,1.807,-0.804841,-0.338761,1.253907,100006.70,-42,+92,-227
38374,11.453,-1.995,2.171,-0.902217,-0.323330,1.156531,100003.63,-43,+88,-230
38384,11.581,-1.439,2.281,-0.857520,-0.301513,1.282641,100003.63,-44,+90,-227
38393,11.662,-1.612,2.358,-0.821337,-0.284486,1.447062,100009.35,-46,+88,-227
38404,11.801,-1.782,2.697,-0.857520,-0.341421,1.565191,100005.02,-46,+88,-227
38414,11.365,-0.984,2.828,-0.930951,-0.538302,1.656714,100007.79,-47,+85,-229
38424,11.069,0.695,3.280,-0.875080,-0.699531,1.774310,100005.60,-47,+86,-227
38433,11.773,0.306,3.565,-0.789942,-0.845329,2.028126,100005.60,-49,+81,-227
38444,12.434,-0.726,3.829,-0.713318,-0.967715,2.164879,100009.35,-49,+81,-227
38454,13.296,-1.164,3.823,-0.776639,-1.041146,2.128695,100006.12,-49,+76,-230
38464,13.859,-0.938,3.605,-0.941593,-1.094357,2.111135,100006.27,-49,+76,-229
38474,14.600,-0.164,3.266,-1.168272,-1.164595,2.185099,100003.91,-50,+72,-230
38483,15.402,0.595,2.916,-1.355042,-1.236962,2.247356,100003.91,-50,+72,-230
38494,16.304,0.687,3.202,-1.467318,-1.280595,2.281411,100005.48,-49,+67,-234
38504,17.543,1.428,4.009,-1.726455,-1.316779,2.318658,100005.74,-50,+68,-231
38514,19.017,4.076,5.176,-2.136712,-1.351366,2.377723,100006.48,-50,+66,-232
38523,19.855,7.036,6.597,-2.549629,-1.419476,2.486805,100004.54,-50,+66,-232
38534,19.926,10.533,7.565,-2.751299,-1.522705,2.567686,100004.54,-49,+63,-236
38544,19.179,12.216,8.593,-2.621996,-1.534411,2.601209,100004.98,-50,+64,-234
38554,17.700,9.614,8.431,-2.184602,-1.465237,2.724658,100002.48,-50,+61,-236
38564,17.007,0.482,5.364,-1.590767,-1.534411,2.865667,100001.84,-49,+61,-236
38574,18.799,-9.231,5.126,-0.901153,-1.775457,2.933777,100005.45,-49,+56,-240
38584,21.821,-9.516,9.419,-0.325410,-1.760558,2.994970,100005.45,-51,+50,-240
38594,19.952,-1.736,10.326,0.356222,-1.679145,2.968364,100003.55,-50,+41,-245
38604,15.264,4.956,9.955,0.592479,-1.544522,2.678365,100002.03,-48,+33,-249
38614,10.721,8.385,7.924,0.720718,-1.357219,2.203191,100003.23,-48,+33,-249
38624,6.231,8.508,4.696,0.754241,-1.329549,1.953099,100003.34,-51,+26,-250
38634,1.441,2.066,2.740,0.994222,-1.190136,1.468879,100003.34,-50,+17,-253
38644,-2.358,-5.269,5.926,1.268259,-0.555329,0.964971,100002.48,-49,+10,-255
38653,-0.192,-7.250,8.660,1.615726,0.179514,0.382311,100001.70,-49,+10,-255
38664,3.631,-4.372,6.933,1.661488,-0.013642,-0.308900,100000.61,-52,+7,-254
38674,3.418,-2.011,3.921,0.948461,-0.186577,-0.723945,100002.38,-52,+3,-255
38684,2.580,-1.118,1.382,-0.355740,-0.270119,-0.989468,100002.38,-50,+2,-256
38694,1.254,1.812,-1.959,-1.550859,-0.693678,-1.571064,100006.97,-50,+2,-256
38705,0.375,3.826,-1.135,-2.482051,-0.475336,-2.163302,100004.61,-52,+11,-257
38714,0.303,5.069,0.272,-2.289959,-0.138688,-2.537907,100003.58,-50,+18,-258
38724,0.017,5.753,1.536,-1.436987,0.292321,-2.958274,100000.28,-50,+25,-258
38734,0.407,4.555,2.056,-0.498346,0.749936,-3.271155,100000.28,-50,+25,-258
38744,1.837,2.635,2.550,0.315782,1.202229,-3.480806,100000.24,-54,+31,-254
38754,3.468,0.495,3.493,0.773929,1.547036,-3.581375,99995.54,-56,+32,-252
38764,4.859,-1.078,4.104,0.768075,1.756155,-3.697375,99997.37,-60,+35,-249
38774,5.781,-0.757,4.025,0.268424,1.848742,-3.870310,99997.79,-60,+35,-249
38784,5.765,1.210,2.795,-0.257300,1.861513,-4.121466,99997.79,-66,+45,-244
38794,6.410,3.110,1.650,-0.120016,2.023274,-4.433815,100000.84,-71,+50,-240
38804,8.019,3.871,1.361,0.583433,2.303164,-4.618457,99999.84,-77,+58,-233
38814,9.887,3.336,1.609,1.427359,2.577733,-4.762659,100000.21,-77,+58,-233
38824,11.754,2.450,1.013,2.053653,2.713953,-4.866952,100000.32,-82,+70,-225
38834,13.181,1.579,1.124,2.468698,2.654356,-4.924952,100000.32,-85,+78,-216
38844,12.832,-0.857,1.446,2.872569,2.611256,-4.923356,100002.30,-84,+88,-207
38854,13.324,-1.930,3.025,2.967817,2.583586,-5.143117,100002.72,-84,+88,-207
38864,14.717,-2.629,3.710,2.864056,2.483549,-5.391080,99998.48,-81,+102,-200
38874,16.606,-2.014,3.763,2.612368,2.392559,-5.595942,100000.73,-74,+111,-195
38884,18.826,-1.779,4.300,2.316515,2.352118,-5.728970,100000.73,-66,+122,-188
38894,20.786,-3.341,5.773,2.251597,2.398944,-5.747594,100002.47,-66,+122,-188
38904,21.593,-7.149,6.702,2.239359,2.428742,-5.662456,100001.27,-57,+133,-183
38914,21.672,-10.232,5.815,1.834423,2.245696,-5.597539,100003.67,-49,+141,-179
38924,22.278,-12.912,3.504,1.328919,2.046687,-5.416090,100001.91,-40,+149,-176
38934,21.937,-15.405,1.858,0.979855,2.046687,-5.038291,100001.91,-40,+149,-176
38940,20.665,-15.893,0.478,0.694644,2.014229,-4.653576,100005.06,-33,+160,-173
38949,19.252,-16.731,0.134,0.325360,1.910467,-4.220438,100005.06,-26,+166,-169
38960,18.153,-20.564,0.892,0.127415,1.679531,-3.560090,99999.31,-26,+166,-169
38969,16.097,-25.008,1.324,-0.171630,1.193715,-2.598036,100006.95,-21,+173,-165
38979,14.189,-27.336,-0.343,-0.613282,0.690872,-1.482734,100006.84,-17,+178,-163
38989,14.828,-25.724,-2.216,-1.043226,0.283275,-0.181193,100006.27,-19,+180,-160
39000,17.475,-20.793,-1.992,-1.186364,-0.048229,1.011265,100005.02,-19,+180,-160
39009,16.422,-16.797,-3.688,-0.858052,-0.516485,1.980769,100005.64,-20,+178,-157
39019,15.547,-11.089,-4.822,-0.135979,-1.112448,3.084364,100005.64,-25,+174,-159
39029,13.715,10.820,0.621,0.899506,-1.276338,3.373300,100005.17,-33,+166,-163
39038,12.970,38.916,5.084,1.386387,-1.076797,2.455943,100005.17,-33,+166,-163
39049,17.640,29.229,-8.864,0.121030,-0.903861,1.219852,100006.80,-35,+162,-165
39059,28.491,-3.546,-5.603,0.931433,-0.710706,2.175521,100006.91,-38,+161,-167
39069,23.489,-21.175,10.061,4.495504,0.123643,3.620199,100006.75,-46,+149,-173
39079,15.694,-18.245,6.047,2.751248,0.139606,4.040033,100001.73,-46,+149,-173
39090,10.703,1.113,1.889,1.126717,-0.107825,4.123574,100001.73,-54,+139,-176
39099,-1.608,6.721,7.991,2.206900,0.307220,3.727153,100007.02,-61,+131,-178
39109,-6.001,-5.417,12.883,3.238661,0.314138,2.935906,100001.25,-65,+120,-181
39119,7.580,-12.087,4.615,2.219139,-0.525531,2.503833,100001.98,-65,+120,-181
39130,17.244,-14.285,-1.337,-0.205153,-1.044870,2.286732,100001.98,-68,+115,-184
39139,18.495,-9.000,0.706,-2.206950,-0.940577,2.010567,100001.98,-70,+113,-185
39149,14.278,-1.608,1.215,-3.165280,-0.829366,1.862640,100004.48,-72,+111,-182
39159,7.634,1.120,-0.740,-2.849207,-0.559586,1.736530,100006.77,-72,+111,-182
39170,5.462,3.115,-1.927,-1.652492,-0.268522,1.450787,100002.91,-73,+110,-178
39179,7.092,4.297,-0.706,-0.118952,-0.000339,1.295943,100001.20,-75,+109,-180
39189,8.733,0.583,1.562,1.108094,0.258266,1.271466,100001.20,-77,+103,-180
39199,10.367,-2.529,3.014,1.425763,0.370009,1.223576,100008.62,-77,+103,-180
39209,10.652,-4.875,3.177,0.977727,0.341275,1.098531,100004.96,-80,+98,-180
39220,10.483,-5.779,4.722,0.216810,0.313606,0.895265,100004.40,-81,+97,-180
39229,9.219,-5.743,6.725,-0.835171,0.246028,0.654219,100004.40,-82,+94,-179
39239,7.925,-4.623,6.887,-1.958455,0.223679,0.358898,100007.07,-82,+94,-179
39249,8.055,-1.524,4.014,-2.731611,0.215165,0.061981,100004.88,-82,+97,-175
39259,9.317,2.350,1.352,-2.608693,0.255606,-0.050826,100004.88,-84,+99,-172
39269,10.375,4.176,0.723,-1.732308,0.301899,0.102953,100003.05,-84,+99,-169
39279,10.573,2.684,2.047,-0.689373,0.294450,0.353045,100003.46,-84,+99,-169
39289,10.328,-0.358,4.093,-0.129062,0.193349,0.524384,100003.46,-84,+100,-169
39300,9.826,-2.330,5.336,-0.224309,0.052340,0.631338,100005.70,-84,+99,-168
39310,9.232,-2.466,5.607,-0.671814,-0.054614,0.707430,100005.34,-85,+96,-167
39319,8.618,-1.331,5.430,-1.144327,-0.165293,0.764366,100002.09,-87,+97,-167
39329,7.970,-0.091,4.933,-1.470510,-0.277568,0.886219,100006.55,-87,+97,-167
39340,8.138,0.752,3.994,-1.475299,-0.299917,0.815980,100006.16,-88,+98,-166
39350,9.416,1.054,3.378,-1.331630,-0.308431,0.884622,100006.63,-89,+93,-165
39359,9.854,1.009,2.794,-1.288529,-0.354192,1.153338,100006.27,-89,+92,-164
39369,9.845,0.880,1.895,-1.012896,-0.332375,1.401301,100006.27,-89,+92,-164
39379,10.617,-0.448,1.854,-0.678199,-0.259476,1.566787,100004.59,-92,+89,-164
39389,10.661,-2.787,2.124,-0.479190,-0.222761,1.431099,100004.59,-92,+86,-164
39399,10.864,-3.298,1.956,-0.710126,-0.213183,1.069265,100008.64,-93,+85,-164
39409,11.315,-2.333,1.825,-0.883061,-0.180724,1.021375,100004.98,-93,+85,-164
39419,11.357,-1.734,2.192,-0.813887,-0.186045,1.053833,100005.05,-94,+83,-163
39430,11.374,-1.282,2.738,-0.755355,-0.329183,1.143760,100004.94,-94,+79,-163
39439,10.982,-0.922,2.912,-0.769190,-0.455825,1.332127,100004.94,-96,+78,-164
39449,10.986,-0.799,2.940,-0.660107,-0.523935,1.528475,100006.37,-96,+78,-164
39459,10.943,-1.293,3.278,-0.518566,-0.601623,1.748769,100004.52,-98,+74,-165
39470,11.028,-1.647,3.803,-0.606896,-0.670797,1.786549,100004.13,-98,+68,-166
39480,12.052,-1.680,3.904,-0.852199,-0.752210,1.734934,100004.13,-100,+65,-167
39489,13.448,-1.039,3.534,-1.093777,-0.850650,1.738659,100004.13,-100,+65,-167
39499,14.227,-0.613,2.655,-1.208712,-0.946962,1.879136,100006.53,-101,+62,-168
39510,14.538,-0.110,1.837,-1.267776,-1.025715,2.021741,100007.16,-101,+57,-169
39519,15.019,0.245,1.512,-1.299703,-1.098614,2.181374,100004.86,-103,+54,-172
39530,15.613,0.635,2.124,-1.270614,-1.167078,2.372047,100003.00,-103,+54,-172
39539,16.239,0.765,3.168,-1.330033,-1.223659,2.461264,100003.00,-103,+48,-174
39549,17.395,1.493,5.029,-1.562565,-1.264632,2.453282,100006.50,-102,+43,-175
39560,19.216,3.969,6.990,-2.030290,-1.318375,2.356438,100003.25,-103,+40,-178
39570,20.876,7.120,8.747,-2.520895,-1.445549,2.290457,100003.00,-103,+40,-178
39579,21.259,11.146,9.365,-2.756088,-1.606778,2.378787,100003.02,-103,+37,-181
39589,20.393,12.933,9.080,-2.530473,-1.666375,2.661869,100003.11,-101,+33,-183
39600,18.832,9.132,7.953,-1.946216,-1.672760,2.890144,100001.23,-101,+29,-187
39609,18.411,-0.006,5.513,-1.215630,-1.815898,3.047649,100001.23,-101,+29,-187
39619,19.501,-8.403,5.267,-0.615942,-1.979787,3.053502,100002.02,-100,+22,-191
39629,20.172,-8.229,9.590,-0.150346,-1.869641,3.032750,100003.84,-96,+15,-195
39640,17.431,-1.864,11.067,0.538736,-1.713732,2.976878,100003.84,-96,+8,-198
39650,13.707,4.087,10.816,0.827672,-1.498228,2.595355,100002.46,-96,+8,-198
39659,9.808,8.865,8.482,0.859598,-1.291769,2.128163,100001.74,-92,+3,-202
39669,5.966,9.384,4.182,0.775525,-1.251329,1.773246,100001.16,-90,-2,-204
39680,1.770,2.013,1.843,0.782974,-1.126283,1.382145,100001.37,-89,-5,-206
39690,-1.386,-6.879,4.948,1.001140,-0.421770,1.047980,100001.37,-89,-5,-206
39700,0.784,-10.162,8.403,1.413525,0.335954,0.629210,100002.13,-87,-8,-206
39709,3.889,-7.593,8.395,1.698735,0.052872,-0.088074,100000.98,-86,-10,-205
39719,2.889,-4.835,6.370,0.963360,0.254009,-0.419579,100000.83,-85,-9,-205
39730,3.559,-0.631,0.256,-0.926162,-0.258944,-0.630294,100000.83,-85,-9,-205
39739,1.441,4.916,-3.774,-3.060454,-0.831494,-1.502954,100000.83,-83,-5,-207
39749,-0.274,6.253,-1.440,-3.647372,-0.471256,-2.238862,100003.94,-80,+5,-208
39759,-0.855,7.771,-0.656,-2.488969,0.030523,-2.828971,100002.48,-80,+17,-209
39770,0.767,8.761,0.993,-1.112400,0.669587,-3.107265,100004.31,-78,+25,-208
39780,1.894,6.981,1.479,0.043342,1.062816,-3.257320,100001.59,-78,+25,-208
39789,2.545,2.696,3.176,0.798938,1.396449,-3.300421,100001.59,-77,+33,-204
39799,3.701,-0.805,5.208,1.035727,1.689109,-3.314255,99998.17,-77,+41,-202
39810,4.483,-0.763,4.713,0.714864,1.796064,-3.516989,99999.47,-75,+48,-197
39820,4.819,1.370,3.093,0.310461,1.854063,-3.871907,99999.22,-75,+48,-197
39829,5.493,3.105,1.434,0.494039,2.022742,-4.152328,99999.22,-73,+58,-192
39839,6.439,3.087,1.038,1.118736,2.278687,-4.334842,100003.31,-71,+66,-187
39849,7.649,1.749,1.385,1.808882,2.506962,-4.513631,100003.31,-67,+73,-183
39860,9.163,0.948,1.986,2.210625,2.643714,-4.737649,100000.34,-67,+73,-183
39869,10.868,0.944,2.109,2.294698,2.694265,-4.908989,99999.50,-61,+81,-178
39879,11.866,0.682,1.961,2.295762,2.684687,-5.001576,99999.45,-57,+90,-175
39884,12.152,0.292,1.866,2.323964,2.647439,-5.095227,99999.45,-57,+90,-175
39895,12.601,-0.416,1.596,2.355359,2.576669,-5.253796,99999.46,-51,+96,-173
39905,14.050,-1.852,1.699,2.327689,2.446302,-5.446952,99998.95,-43,+102,-170
39914,15.979,-2.867,2.396,2.105799,2.287733,-5.605520,100000.24,-43,+102,-170
39924,18.008,-3.131,3.896,1.762589,2.170137,-5.765153,99996.01,-37,+109,-170
39934,19.523,-3.235,5.700,1.544424,2.122779,-5.882217,99996.01,-30,+113,-170
39945,20.831,-4.705,7.213,1.579543,2.181843,-5.925850,100002.56,-24,+121,-170
39954,21.762,-7.238,7.322,1.703524,2.222816,-5.906162,100002.09,-24,+121,-170
39964,23.428,-11.705,5.822,1.828038,2.310614,-5.685869,100001.78,-18,+127,-170
39974,25.654,-16.824,3.082,1.667873,2.362760,-5.357025,100003.08,-13,+131,-172
39985,24.234,-18.882,-0.182,0.937818,2.221751,-4.915906,100003.08,-8,+137,-171
39995,20.266,-18.829,-0.784,-0.254107,1.873219,-4.378475,100007.83,-6,+145,-168
40004,18.271,-20.695,0.098,-1.193813,1.358137,-3.736219,100003.86,-6,+145,-168
40014,14.789,-24.404,1.318,-1.951005,0.792505,-2.725742,100005.22,-2,+149,-165
40025,12.632,-25.085,-1.433,-2.404895,0.380119,-1.546055,100005.63,-1,+154,-162
40035,12.961,-22.552,-4.689,-2.549097,0.013496,-0.176936,100005.63,-3,+155,-157
40044,17.178,-17.357,-4.964,-2.136712,-0.288210,1.007008,100011.84,-3,+155,-157
40054,16.534,-14.207,-9.077,-1.275226,-0.820320,2.135080,100005.15,-7,+153,-156
40065,15.522,-8.022,-7.439,-0.196640,-1.334870,3.083832,100009.85,-12,+148,-157
40075,13.443,16.242,3.808,0.978791,-1.487586,3.251447,100005.26,-17,+141,-162
40084,13.887,42.012,9.767,1.978625,-1.044870,2.366548,100005.26,-17,+141,-162
40094,20.785,26.022,-9.453,0.405709,-0.994320,1.285301,100006.36,-21,+137,-165
40104,30.518,-9.620,0.268,2.069616,-0.738375,2.747539,100010.33,-25,+132,-168
40115,23.755,-27.501,7.838,5.892824,0.138010,4.345996,100006.41,-34,+120,-176
40120,16.981,-26.308,7.648,4.539669,0.444505,4.697721,100003.75,-34,+120,-176
40129,12.590,-8.199,3.637,2.036093,-0.267990,4.596088,100003.75,-42,+109,-180
40139,-0.708,2.722,3.088,0.684002,-0.521807,3.780364,100003.75,-42,+109,-180
40150,-7.751,-5.194,9.399,1.170350,-0.050889,2.967832,100008.46,-45,+102,-180
40160,5.806,-10.982,5.437,1.191103,-0.736779,2.529906,100000.57,-49,+95,-183
40170,17.603,-14.167,-2.734,-0.807502,-1.399788,2.210108,100006.13,-49,+91,-184
40179,18.683,-9.563,-1.078,-2.265482,-1.143311,1.718439,100006.13,-49,+91,-184
40189,14.047,-0.667,2.220,-2.911464,-0.929935,1.587540,100005.22,-50,+91,-182
40200,7.943,2.404,0.977,-2.645409,-0.746357,1.587007,100005.22,-52,+92,-183
40210,5.436,2.290,-0.050,-1.787116,-0.502119,1.349154,100004.70,-52,+90,-182
40219,6.276,2.818,0.303,-0.654786,-0.354192,1.202824,100006.80,-54,+90,-182
40229,7.572,2.350,1.273,0.587690,-0.195623,1.176219,100002.50,-54,+88,-182
40240,9.871,-0.556,3.419,1.366167,-0.007789,1.119815,100002.50,-56,+84,-183
40250,11.131,-3.529,3.612,1.286350,0.033716,1.057026,100006.00,-56,+80,-185
40260,10.126,-4.798,4.037,0.545121,0.013496,0.962843,100006.73,-57,+77,-185
40269,8.978,-4.893,5.680,-0.343502,-0.064724,0.740421,100005.58,-57,+77,-185
40280,8.764,-4.345,6.411,-1.206584,-0.155715,0.463724,100003.52,-58,+78,-184
40290,8.603,-1.931,5.211,-1.894070,-0.219036,0.261522,100004.30,-57,+78,-183
40300,8.692,1.302,2.902,-2.003684,-0.238724,0.184366,100005.56,-58,+81,-181
40309,9.434,3.283,0.642,-1.410914,-0.221697,0.253008,100005.14,-58,+81,-181
40320,10.241,3.015,0.131,-0.438217,-0.187110,0.465320,100005.14,-58,+81,-182
40330,10.204,0.463,1.283,0.368993,-0.156779,0.668054,100002.47,-58,+79,-183
40340,10.216,-2.144,2.744,0.570663,-0.155715,0.771815,100002.47,-59,+77,-183
40349,10.015,-3.474,4.068,0.215745,-0.175403,0.824494,100006.50,-59,+77,-183
40355,9.631,-3.515,4.620,-0.209942,-0.202541,0.831411,100007.38,-59,+75,-184
40365,9.548,-2.616,4.605,-0.621263,-0.235532,0.830879,100004.25,-59,+75,-184
40375,9.080,-1.469,4.228,-1.018217,-0.280761,0.838329,100004.67,-60,+75,-183
40385,9.163,-0.264,3.639,-1.132089,-0.302577,0.757980,100004.67,-61,+74,-182
40394,9.862,0.068,3.098,-1.096437,-0.332908,0.823962,100006.99,-61,+73,-183
40404,10.050,0.022,2.311,-1.030988,-0.372284,0.968164,100005.07,-61,+73,-183
40415,10.162,-0.088,1.978,-0.811759,-0.363770,1.067668,100005.54,-61,+71,-183
40425,10.795,-0.890,1.464,-0.599447,-0.344082,1.114494,100003.02,-61,+70,-183
40434,11.542,-1.627,1.129,-0.589337,-0.347275,1.153870,100003.02,-63,+69,-185
40444,11.471,-2.022,1.012,-0.704272,-0.352064,1.125136,100006.29,-63,+69,-185
40455,11.730,-1.630,0.885,-0.832511,-0.349935,1.077778,100005.15,-63,+67,-183
40465,11.860,-1.239,1.078,-0.837300,-0.367495,1.156531,100005.62,-64,+66,-183
40475,11.556,-0.734,1.293,-0.753759,-0.408467,1.256035,100002.63,-66,+64,-185
40484,11.539,-0.165,1.810,-0.631373,-0.477109,1.398641,100002.63,-66,+64,-185
40495,11.496,-0.082,2.440,-0.508456,-0.596302,1.635962,100007.55,-66,+61,-185
40505,11.559,0.039,3.083,-0.367447,-0.739972,1.871686,100004.79,-68,+59,-186
40515,12.256,-0.286,3.541,-0.292951,-0.859164,2.065374,100004.16,-68,+54,-189
40524,13.589,-1.030,3.699,-0.385539,-0.954944,2.192548,100006.37,-68,+50,-192
40535,14.174,-1.343,3.433,-0.642016,-1.027311,2.252677,100006.37,-68,+50,-192
40545,14.863,-0.911,2.836,-0.962878,-1.093825,2.296842,100003.62,-70,+45,-193
40555,15.563,-0.317,2.422,-1.231061,-1.169916,2.402200,100005.60,-70,+41,-195
40564,16.655,0.361,2.983,-1.432731,-1.300283,2.486273,100005.45,-70,+38,-198
40574,18.308,1.915,4.100,-1.690272,-1.438100,2.580988,100004.77,-70,+38,-198
40585,20.153,4.548,6.058,-2.007409,-1.495035,2.646438,100004.77,-70,+36,-200
40591,21.080,6.447,7.835,-2.218125,-1.550907,2.684218,100005.50,-70,+36,-200
40600,21.406,8.542,9.505,-2.365519,-1.640301,2.737429,100005.50,-70,+33,-204
40610,21.143,10.467,11.925,-2.460235,-1.716925,2.795429,100004.20,-70,+30,-208
40620,19.965,11.519,13.177,-2.359666,-1.721182,2.951869,100003.09,-70,+28,-211
40630,18.260,7.583,12.154,-2.065409,-1.637641,3.090750,100001.69,-70,+28,-211
40640,16.465,-1.829,10.426,-1.395483,-1.582833,3.163649,100004.51,-70,+24,-216
40650,18.632,-8.409,3.937,-1.272565,-1.784503,3.035942,100005.96,-68,+19,-221
40659,20.252,-7.938,5.233,-1.026199,-1.702558,2.798621,100003.40,-68,+15,-225
40670,17.516,-1.290,7.001,-0.026364,-1.595072,2.754456,100003.40,-68,+15,-225
40680,13.346,4.832,7.318,0.713268,-1.335935,2.609190,100001.79,-66,+10,-230
40689,7.922,7.741,5.157,0.729763,-1.041678,2.254805,100001.79,-65,+3,-235
40699,1.981,5.206,3.550,0.464773,-0.888962,1.804108,100003.04,-65,+0,-239
40711,-2.555,-2.790,3.553,0.391342,-0.668314,1.108818,100002.07,-64,-1,-242
40720,-2.913,-7.468,4.998,0.687727,0.040101,0.637724,100002.07,-64,-1,-242
40730,1.842,-7.371,4.190,0.810644,0.329569,0.135412,100000.70,-65,-3,-242
40740,4.525,-4.152,1.610,0.457855,-0.072706,-0.425964,100000.70,-66,-2,-244
40750,3.452,-2.756,0.031,-0.101924,-0.227550,-0.833560,100004.84,-66,+1,-247
40760,1.333,-1.878,-0.571,-0.771850,-0.129642,-1.095890,100002.15,-66,+1,-247
40770,-0.590,0.871,-1.268,-1.408786,0.033716,-1.454000,100001.02,-65,+6,-249
40780,-1.003,4.902,-0.188,-1.812657,0.205055,-2.026550,100001.02,-66,+15,-251
40790,-1.036,6.796,0.886,-1.539153,0.408853,-2.584733,100001.02,-66,+26,-253
40800,-0.484,5.401,0.941,-0.556346,0.758982,-2.930604,100005.18,-66,+26,-253
40810,0.926,3.110,1.628,0.642497,1.259697,-3.098219,100003.30,-66,+33,-252
40820,2.358,0.451,3.199,1.288479,1.718908,-3.144513,99999.02,-70,+39,-251
40829,3.304,-1.519,3.754,1.278901,1.968467,-3.234971,100001.12,-71,+45,-250
40840,3.725,-1.272,3.224,0.878222,2.104155,-3.457925,100001.12,-71,+45,-250
40850,4.994,0.965,2.266,0.458920,2.230797,-3.713338,99999.34,-73,+52,-247
40860,7.030,3.433,0.422,0.453599,2.334026,-3.930439,99999.19,-75,+62,-245
40870,8.442,4.017,-0.494,0.879818,2.479292,-4.114549,99998.13,-77,+71,-245
40880,9.208,3.274,-0.635,1.470460,2.614980,-4.195961,99998.13,-77,+71,-245
40890,9.558,2.032,-0.172,1.983946,2.692668,-4.278971,99999.41,-77,+80,-241
40900,10.260,0.843,0.513,2.339927,2.674045,-4.381668,100004.12,-78,+86,-240
40909,11.260,-0.244,0.978,2.565542,2.566558,-4.525338,100004.12,-78,+93,-242
40920,12.310,-1.506,1.160,2.650147,2.421824,-4.730732,100001.02,-78,+93,-242
40930,13.237,-2.324,1.304,2.542661,2.256871,-4.950493,100000.30,-77,+102,-240
40940,13.937,-1.959,1.647,2.240955,2.061054,-5.125025,100000.30,-75,+111,-241
40950,14.532,-0.965,2.181,1.916900,1.896100,-5.255924,100003.01,-71,+121,-243
40960,15.393,-0.456,3.096,1.705653,1.801917,-5.385759,100001.49,-71,+121,-243
40970,16.552,-0.380,4.006,1.593910,1.748174,-5.502291,100003.52,-66,+131,-244
40980,17.953,-0.523,4.471,1.540167,1.735935,-5.552310,100000.24,-60,+141,-245
40990,19.980,-1.351,5.161,1.574222,1.788614,-5.514530,100005.34,-53,+151,-247
41000,21.805,-3.610,5.531,1.677451,1.874816,-5.377245,100000.13,-53,+151,-247
41010,21.664,-7.062,5.302,1.741304,1.949843,-5.098420,100002.67,-46,+160,-247
41020,20.812,-11.399,3.557,1.720552,1.978045,-4.740842,100000.13,-42,+168,-249
41030,20.925,-17.102,1.033,1.460882,1.936540,-4.344420,100000.13,-36,+173,-249
41039,20.117,-21.418,-1.088,0.854277,1.766797,-3.803797,100000.13,-36,+173,-249
41050,16.759,-23.526,-0.935,-0.004548,1.430504,-3.081192,100006.14,-32,+179,-247
41060,13.439,-23.730,0.833,-0.812291,0.932449,-2.138293,100005.25,-29,+185,-244
41065,12.920,-23.234,2.379,-1.350786,0.520064,-1.267229,100003.27,-29,+185,-244
41075,13.501,-22.118,3.283,-1.609923,0.089588,-0.325927,100005.72,-27,+190,-240
41084,15.909,-17.926,3.223,-1.688143,-0.350999,0.922934,100005.72,-28,+192,-237
41095,15.474,-14.737,-0.175,-1.461465,-0.663880,2.065906,100006.45,-33,+192,-234
41105,14.827,-9.814,-3.523,-0.663300,-1.064559,3.090750,100005.56,-33,+192,-234
41115,17.358,10.206,-5.341,0.247672,-1.536540,3.445667,100002.84,-38,+184,-237
41125,19.218,39.556,-4.009,1.165029,-1.745127,2.716676,100002.84,-42,+176,-240
41135,23.087,28.612,-10.349,0.974002,-1.184283,2.037172,100002.84,-45,+171,-243
41145,25.583,-10.218,-4.659,2.533083,-0.724008,3.381282,100006.57,-45,+171,-243
41155,17.419,-26.742,10.083,5.685833,-0.180192,4.435390,100003.91,-52,+154,-251
41165,14.581,-14.987,7.541,3.329652,-0.247238,4.474767,100004.07,-59,+136,-257
41175,7.009,1.895,5.339,1.080956,-0.185513,4.116125,100004.27,-67,+125,-258
41185,-5.196,3.386,8.297,2.088772,0.264652,3.717043,100004.27,-67,+125,-258
41195,-3.545,-10.227,10.258,3.306239,-0.161036,2.906640,100005.38,-71,+110,-261
41205,11.562,-13.288,6.107,2.322900,-0.799036,2.757649,100005.23,-75,+99,-264
41214,19.740,-14.589,-0.272,-0.539318,-1.223659,2.510218,100005.80,-74,+95,-265
41225,18.628,-9.482,0.861,-2.984363,-0.982614,2.019081,100002.35,-74,+95,-265
41235,11.692,-0.335,0.949,-4.214601,-0.804357,1.827521,100002.35,-74,+98,-264
41245,5.388,3.127,-1.557,-3.544142,-0.627696,1.710457,100004.37,-75,+104,-260
41255,6.795,3.479,-3.194,-2.139372,-0.414320,1.409815,100003.90,-76,+105,-260
41265,8.144,3.872,-0.889,-0.505263,-0.206798,1.311375,100004.68,-76,+105,-260
41275,7.939,1.481,0.946,0.950057,-0.037055,1.358200,100004.01,-76,+101,-260
41285,9.945,-1.511,2.105,1.662552,0.093312,1.350219,100004.01,-78,+94,-260
41295,11.194,-3.657,2.139,1.469396,0.163551,1.304457,100008.17,-82,+88,-262
41300,10.873,-4.700,3.387,0.870240,0.203991,1.251778,100003.27,-82,+88,-262
41310,10.052,-5.880,6.139,-0.046585,0.189624,1.132054,100003.27,-82,+84,-262
41320,9.360,-6.319,7.964,-1.334822,0.068835,0.878237,100004.73,-84,+86,-259
41330,8.728,-3.940,6.322,-2.227703,-0.021623,0.572806,100002.38,-84,+86,-259
41340,8.303,-0.590,3.431,-2.545372,-0.015238,0.296109,100002.38,-85,+91,-258
41351,9.202,2.773,-0.420,-2.156932,-0.008321,0.209375,100005.57,-84,+96,-255
41360,10.145,4.820,-2.214,-1.029391,0.019349,0.412641,100007.09,-85,+96,-254
41370,10.872,0.880,-0.122,0.231709,0.069899,0.630274,100003.90,-85,+96,-254
41380,11.512,-3.520,2.594,0.575984,0.076817,0.732439,100003.90,-85,+94,-254
41390,10.993,-5.056,4.081,0.022057,0.051276,0.775008,100003.90,-86,+91,-255
41400,9.892,-3.314,4.305,-0.722364,0.040101,0.757980,100007.23,-87,+90,-254
41410,9.950,-1.825,3.208,-1.134217,0.057661,0.727650,100002.52,-87,+90,-254
41420,10.289,-1.312,2.682,-1.268309,0.090652,0.732439,100005.02,-89,+91,-252
41430,9.949,-0.639,2.539,-1.321520,0.056597,0.723925,100003.77,-89,+92,-251
41440,10.096,0.230,3.423,-1.211905,-0.041844,0.770219,100003.77,-90,+92,-249
41450,10.030,0.707,3.208,-1.047483,-0.243513,0.870788,100004.82,-90,+92,-249
41460,9.573,-0.046,3.096,-0.747373,-0.309495,1.002751,100004.66,-91,+92,-250
41470,9.966,-2.173,3.036,-0.561667,-0.320669,1.087888,100005.51,-91,+90,-250
41480,10.344,-3.080,2.738,-0.662768,-0.325458,1.133650,100005.51,-92,+90,-249
41490,10.782,-3.013,2.422,-0.880933,-0.317476,1.166109,100007.09,-92,+90,-249
41500,11.322,-2.633,1.957,-1.120382,-0.329715,1.179943,100007.09,-92,+88,-249
41510,11.518,-2.216,1.673,-1.320455,-0.373880,1.176751,100006.68,-92,+88,-250
41520,11.648,-0.964,1.407,-1.504565,-0.485091,1.161320,100003.49,-93,+88,-248
41530,11.509,0.711,1.482,-1.460932,-0.599495,1.247521,100005.52,-93,+88,-248
41540,11.287,1.297,1.609,-1.140602,-0.701660,1.426310,100005.52,-93,+87,-250
41550,11.712,1.188,1.983,-0.730346,-0.786797,1.648732,100006.64,-92,+86,-250
41561,12.516,0.808,2.400,-0.453649,-0.871935,1.871154,100005.44,-94,+80,-251
41570,13.850,-0.133,2.945,-0.348823,-0.936320,2.079741,100004.59,-94,+80,-251
41580,15.008,-0.543,2.981,-0.507392,-0.991127,2.289924,100007.12,-93,+77,-254
41590,15.628,0.124,3.096,-0.806437,-1.052320,2.447961,100006.23,-94,+71,-255
41601,16.079,1.113,3.553,-1.108144,-1.127880,2.532567,100005.40,-94,+68,-256
41611,17.053,2.712,4.621,-1.394419,-1.195458,2.549594,100002.41,-94,+68,-256
41620,18.503,4.574,6.095,-1.709428,-1.255054,2.574071,100002.41,-93,+64,-259
41630,19.589,6.620,7.405,-2.066473,-1.359879,2.666658,99999.65,-91,+62,-259
41640,20.545,9.434,9.110,-2.374565,-1.484393,2.754988,99999.65,-91,+62,-260
41650,21.463,11.452,10.542,-2.543244,-1.543989,2.795429,100005.42,-89,+62,-260
41660,20.571,9.846,10.863,-2.440014,-1.514191,2.869392,100002.33,-89,+61,-263
41670,18.517,1.727,8.417,-1.985593,-1.546650,3.022640,100002.64,-86,+59,-264
41680,19.895,-8.073,5.003,-1.641850,-1.765347,3.038603,100003.06,-85,+57,-267
41691,22.686,-9.904,6.641,-1.148052,-1.745127,2.936970,100003.06,-82,+54,-270
41700,20.531,-3.718,8.817,0.028975,-1.672228,2.941759,100005.00,-82,+54,-270
41710,16.336,2.770,7.894,0.713800,-1.549843,2.782126,100001.95,-78,+48,-272
41720,12.032,6.520,6.617,0.622277,-1.311990,2.412842,100003.41,-75,+43,-275
41731,6.717,5.697,4.476,0.497764,-1.196522,1.944053,100003.41,-71,+41,-279
41740,2.193,1.352,2.968,0.692516,-1.031036,1.307118,100003.41,-71,+41,-279
41750,0.571,-5.525,1.717,0.687727,-0.812338,0.904843,100003.86,-66,+39,-279
41760,0.390,-8.085,3.764,0.394002,-0.488284,0.406256,100003.75,-63,+39,-280
41771,1.647,-6.741,6.095,0.370589,-0.316412,-0.123725,100001.19,-59,+41,-281
41780,0.889,-1.859,5.506,0.396663,-0.104633,-0.468533,100000.56,-59,+41,-281
41790,0.375,1.342,4.089,-0.129594,0.232725,-0.776092,100000.56,-57,+45,-279
41800,-0.363,3.959,1.034,-0.904878,0.164083,-1.276807,100000.91,-53,+52,-279
41810,-0.970,5.454,-1.600,-1.473703,0.006046,-1.770073,100003.42,-49,+63,-279
41821,-0.738,5.032,-1.659,-1.061318,0.150248,-2.052091,99999.92,-49,+63,-279
41830,0.466,3.917,-0.385,-0.012530,0.480156,-2.385192,99999.92,-43,+71,-277
41840,1.695,2.499,1.006,0.739874,0.846780,-2.757669,100002.51,-40,+78,-275
41850,2.207,1.101,1.992,0.988369,1.138908,-3.005632,100002.51,-36,+85,-275
41861,2.437,-0.774,2.840,0.916534,1.402302,-3.134403,100000.59,-36,+85,-275
41870,2.805,-2.450,3.296,0.711140,1.603972,-3.228054,100001.88,-32,+91,-272
41880,2.975,-1.967,2.945,0.435507,1.714119,-3.385558,100002.41,-28,+98,-270
41890,3.383,0.088,2.702,0.217164,1.787550,-3.685491,100000.14,-20,+107,-268
41901,4.640,2.449,1.929,0.353562,1.903018,-3.960237,100000.14,-20,+107,-268
41911,6.209,3.898,1.586,0.839378,2.091917,-4.322072,100000.67,-13,+114,-265
41920,7.791,4.198,1.856,1.204938,2.320192,-4.601962,100001.50,-5,+119,-266
41930,10.263,4.294,0.019,1.411396,2.381916,-4.746695,99999.36,+3,+122,-267
41940,11.284,1.528,-0.835,1.968515,2.403201,-4.848328,100000.26,+3,+122,-267
41951,11.357,-1.486,0.657,2.620882,2.546338,-4.764787,100001.21,+10,+121,-268
41960,11.603,-3.253,2.323,2.773065,2.565494,-4.694549,99999.07,+15,+118,-271
41970,13.386,-3.522,2.947,2.396331,2.386173,-4.873337,99999.07,+19,+113,-275
41980,15.405,-3.253,2.715,1.925414,2.177054,-5.138860,99999.16,+19,+113,-275
41991,16.470,-2.880,2.852,1.897744,2.148320,-5.335208,99999.16,+22,+112,-276
42000,18.062,-2.579,3.560,2.240423,2.236650,-5.457062,100002.38,+24,+109,-280
42010,19.095,-4.708,4.297,2.584698,2.317531,-5.476218,99999.91,+26,+106,-284
42020,18.895,-6.530,3.739,2.564478,2.243568,-5.463447,99999.97,+26,+106,-284
42031,19.167,-6.991,2.856,2.380368,2.112137,-5.329355,99999.91,+25,+101,-287
42041,21.544,-8.653,1.773,2.363873,2.029128,-4.982420,99999.91,+23,+97,-290
42050,23.837,-12.029,1.123,2.296294,1.899293,-4.495540,100005.02,+20,+93,-294
42060,22.412,-15.958,1.419,2.246276,1.694430,-3.961833,100003.08,+20,+93,-294
42071,20.360,-20.335,2.376,2.237762,1.506064,-3.387687,100000.20,+14,+88,-294
42081,18.615,-27.628,3.429,2.079194,1.319825,-2.691687,100000.20,+7,+84,-297
42090,15.307,-33.067,2.658,0.865984,0.849972,-1.659394,100000.20,+2,+83,-298
42100,13.938,-32.721,0.498,-0.740456,0.381184,-0.474918,100007.78,+2,+83,-298
42110,14.807,-28.653,-2.019,-1.577464,-0.115807,0.786182,100008.67,-1,+86,-296
42121,17.399,-22.288,-4.062,-1.465189,-0.675054,1.962145,100006.73,-4,+87,-296
42130,19.997,6.887,4.055,-0.514841,-1.247604,2.778933,100005.22,-3,+82,-300
42140,22.832,46.353,-0.928,0.007691,-1.406705,1.977044,100005.22,-3,+82,-300
42150,25.378,16.639,-10.257,-2.651794,-0.956540,1.203356,100007.88,-5,+81,-299
42161,20.864,-15.298,3.020,1.475249,-0.652173,3.363722,100008.50,-7,+82,-300
42171,16.259,-19.950,6.335,4.871706,0.180578,4.246492,100004.69,-14,+60,-304
42180,14.759,-7.663,4.354,1.574222,-0.112614,4.346529,100004.69,-18,+52,-302
42190,0.880,4.236,2.386,0.227984,-0.454761,3.839960,100005.24,-18,+52,-302
42201,-9.964,2.661,8.118,1.789194,0.163019,2.857153,100002.41,-21,+45,-304
42210,0.415,-7.073,8.446,3.623376,0.086927,2.467117,100002.41,-24,+29,-305
42220,17.510,-14.896,-0.384,2.451138,-0.787861,2.351649,100001.27,-24,+19,-305
42230,21.938,-16.363,-1.706,-0.515373,-0.709641,1.935539,100005.45,-24,+19,-305
42241,16.575,-4.339,3.235,-3.104087,-0.424963,1.604567,100005.45,-21,+23,-307
42246,9.832,1.441,1.301,-3.812325,-0.537770,1.582751,99998.47,-21,+23,-307
42255,5.947,2.918,-0.233,-3.118454,-0.316412,1.458769,100006.47,-21,+32,-308
42265,6.467,2.431,-0.066,-1.812125,-0.046100,1.233687,100005.42,-21,+36,-305
42275,7.639,3.641,0.520,-0.670217,0.017753,1.144292,100002.23,-22,+37,-307
42286,8.414,2.571,2.856,0.499892,0.007111,1.101723,100002.23,-22,+37,-307
42296,9.917,-0.167,3.272,1.224626,0.006046,1.030953,100003.98,-22,+31,-307
42305,10.613,-3.165,2.411,1.115011,0.076817,1.022439,100004.24,-25,+26,-305
42315,10.662,-5.159,3.597,0.423268,0.117257,0.900586,100001.52,-26,+23,-306
42326,9.947,-5.069,5.866,-0.563795,0.070964,0.636127,100004.02,-26,+23,-306
42336,8.642,-4.234,6.476,-1.472107,-0.010449,0.379118,100004.02,-25,+25,-306
42345,8.025,-1.630,4.960,-2.134583,-0.023220,0.175320,100007.02,-25,+30,-304
42355,8.190,1.404,2.556,-2.275060,0.004450,0.132751,100003.94,-25,+37,-305
42365,9.237,3.425,0.456,-1.705703,0.035312,0.229063,100003.42,-25,+37,-305
42376,10.522,3.222,0.479,-0.696291,0.068303,0.414237,100004.20,-26,+41,-304
42385,10.562,0.583,2.562,0.124223,0.074156,0.595687,100004.20,-27,+40,-304
42395,9.629,-1.771,4.295,0.259911,-0.004596,0.695724,100005.43,-28,+37,-305
42405,8.931,-2.357,4.659,-0.093410,-0.076963,0.737228,100006.63,-27,+37,-305
42416,9.245,-1.754,4.512,-0.494089,-0.136027,0.744678,100005.80,-27,+37,-304
42426,9.380,-1.062,4.386,-0.742052,-0.187110,0.772879,100003.49,-28,+37,-303
42435,9.050,-0.375,4.027,-0.888914,-0.205733,0.822366,100003.49,-28,+39,-305
42445,9.125,0.182,3.498,-0.943190,-0.202009,0.879301,100009.63,-27,+41,-304
42456,9.582,0.471,2.815,-0.881997,-0.194027,0.975081,100006.76,-27,+41,-304
42466,10.251,-0.198,2.488,-0.768126,-0.209458,1.059687,100004.24,-28,+41,-304
42475,10.568,-1.134,2.150,-0.722364,-0.238192,1.134714,100003.62,-28,+41,-306
42481,10.823,-1.547,1.819,-0.752694,-0.242981,1.180476,100003.62,-28,+41,-306
42490,11.243,-1.531,1.467,-0.831979,-0.261605,1.203356,100003.62,-28,+41,-305
42501,11.413,-1.436,1.279,-0.904878,-0.278100,1.196971,100004.66,-29,+41,-303
42511,11.463,-1.137,1.289,-0.908070,-0.270119,1.186329,100006.89,-29,+41,-303
42521,11.492,-0.799,1.544,-0.854859,-0.273843,1.199099,100005.75,-29,+42,-305
42530,11.642,-1.035,1.834,-0.804309,-0.302577,1.248586,100005.32,-29,+42,-304
42541,11.479,-1.431,2.333,-0.800052,-0.332375,1.334787,100008.51,-31,+42,-304
42551,11.438,-1.171,2.550,-0.847942,-0.389843,1.453980,100007.21,-31,+42,-304
42560,11.767,-0.921,2.776,-0.867098,-0.457953,1.591796,100007.21,-29,+43,-306
42570,12.384,-0.750,3.453,-0.926162,-0.538834,1.738127,100007.37,-31,+42,-305
42580,13.302,-0.221,3.833,-1.035777,-0.632485,1.883393,100001.66,-31,+41,-304
42591,14.000,0.092,3.426,-1.098566,-0.714430,2.047814,100001.66,-31,+41,-304
42601,14.455,0.274,3.048,-1.125703,-0.800632,2.193080,100005.70,-31,+42,-305
42610,15.172,0.616,2.279,-1.184767,-0.931531,2.351117,100006.70,-31,+41,-305
42620,16.284,0.389,1.985,-1.275226,-1.014008,2.499576,100006.16,-31,+41,-305
42631,17.272,0.294,2.738,-1.533831,-1.071476,2.574603,100003.93,-30,+42,-307
42641,19.083,2.486,4.595,-1.964308,-1.145439,2.577796,100006.51,-30,+42,-307
42651,21.135,6.765,7.185,-2.505464,-1.294962,2.578860,100005.57,-30,+44,-307
42660,22.100,10.552,9.433,-2.795996,-1.449274,2.666126,100001.60,-31,+47,-307
42671,21.600,12.181,10.365,-2.734803,-1.543457,2.805007,100004.10,-30,+52,-310
42681,19.905,12.790,10.671,-2.479391,-1.578045,2.936438,100004.10,-30,+52,-310
42690,18.344,8.315,8.828,-2.128198,-1.550375,2.956658,100004.10,-32,+52,-309
42700,17.540,-2.059,5.525,-1.534896,-1.715329,3.036474,100006.14,-34,+51,-310
42711,19.297,-9.243,4.769,-0.993208,-1.773329,3.052438,100003.94,-35,+50,-314
42721,19.339,-7.695,8.362,-0.245062,-1.583898,3.029025,100004.63,-35,+50,-314
42731,16.175,-0.853,8.864,0.476479,-1.395531,2.840126,100000.97,-37,+44,-315
42740,11.826,5.661,8.573,0.501488,-1.096485,2.419759,100000.97,-40,+37,-316
42750,6.694,9.469,4.463,0.295030,-1.019861,2.040365,100007.95,-42,+37,-320
42761,1.277,6.806,2.271,-0.023704,-1.051788,1.559338,100004.05,-42,+37,-320
42771,-3.862,-2.189,2.648,0.127415,-0.838944,0.985723,99999.07,-45,+33,-319
42781,-5.017,-7.270,5.485,0.434443,0.157165,0.596751,99999.07,-49,+33,-319
42790,0.285,-7.252,7.190,0.802662,0.572743,0.088054,100002.66,-54,+34,-320
42801,2.758,-3.491,5.679,1.006993,0.403532,-0.580276,100002.66,-54,+34,-320
42811,2.519,-1.257,3.116,0.071544,0.487606,-1.021927,100002.97,-59,+33,-319
42820,2.151,1.197,-0.894,-1.362492,0.175789,-1.419413,100000.63,-62,+41,-317
42830,0.412,4.429,-3.301,-2.616675,-0.105165,-2.102109,100000.83,-63,+60,-318
42841,0.208,5.819,-1.652,-3.000326,0.136413,-2.605485,100000.83,-63,+60,-318
42851,0.389,6.052,0.035,-2.130859,0.478028,-2.901338,100005.78,-65,+74,-314
42861,0.851,5.178,1.559,-0.769722,0.965972,-3.185485,100000.97,-65,+88,-312
42870,1.958,3.781,2.700,0.327489,1.483183,-3.396733,100000.25,-68,+99,-311
42881,3.674,1.653,3.489,0.852681,1.836504,-3.543063,99999.19,-68,+99,-311
42891,5.301,0.051,3.335,0.683470,1.973788,-3.629797,100002.84,-71,+106,-307
42901,6.288,0.749,2.646,0.058241,2.018485,-3.778787,100001.48,-72,+119,-302
42910,6.956,2.313,1.170,-0.295080,2.080742,-4.112421,100001.48,-72,+134,-299
42920,8.066,3.443,0.346,0.040149,2.270173,-4.355062,100001.80,-72,+134,-299
42931,9.198,4.050,0.340,0.794149,2.521329,-4.468934,100000.59,-70,+144,-294
42941,10.451,2.825,0.623,1.529524,2.678833,-4.526934,100000.59,-65,+156,-290
42951,11.975,0.992,0.527,1.965855,2.685219,-4.550347,100002.59,-61,+164,-291
42960,13.053,-0.916,0.413,2.220203,2.616577,-4.608879,100002.16,-61,+164,-291
42971,13.354,-2.622,0.819,2.302680,2.553788,-4.701998,100001.54,-55,+167,-290
42981,13.447,-3.307,1.773,2.195726,2.476100,-4.846732,99999.60,-47,+172,-292
42991,13.999,-2.957,2.647,1.993524,2.388302,-5.018071,99999.60,-39,+176,-297
43001,15.008,-2.180,3.340,1.892423,2.357439,-5.154291,100001.48,-39,+176,-297
43011,16.230,-1.475,4.207,1.923286,2.390430,-5.228255,100001.28,-34,+173,-295
43021,17.408,-2.186,5.349,2.004166,2.437256,-5.268163,100000.97,-26,+175,-299
43031,18.640,-5.306,5.716,2.132937,2.473439,-5.254328,100000.97,-22,+174,-304
43040,19.653,-8.168,4.761,2.026515,2.414375,-5.200585,100000.97,-22,+174,-304
43051,20.153,-8.761,3.135,1.675855,2.294118,-5.078200,100004.09,-21,+169,-302
43061,21.104,-9.775,1.700,1.507708,2.246228,-4.789264,100003.20,-17,+171,-305
43071,21.608,-11.947,0.551,1.284222,2.096705,-4.371558,100004.45,-19,+170,-307
43080,20.545,-15.351,0.017,0.847360,1.782761,-3.925117,100003.56,-19,+170,-307
43090,18.809,-19.611,1.075,0.439764,1.534798,-3.448879,100003.56,-19,+168,-302
43101,16.148,-22.130,1.571,-0.292951,1.183073,-2.750219,100005.98,-17,+173,-303
43111,14.464,-21.668,-0.163,-0.995336,0.793037,-1.766348,100004.20,-20,+176,-302
43121,14.025,-19.960,-2.417,-1.236382,0.383312,-0.535578,100004.88,-22,+176,-294
43130,14.409,-18.815,-3.197,-1.186896,-0.048761,0.643045,100004.88,-22,+176,-294
43141,15.160,-16.265,-2.408,-0.730878,-0.403146,1.735466,100008.88,-24,+177,-295
43151,17.245,-10.631,-1.258,0.056645,-0.624504,2.563961,100008.88,-29,+170,-298
43161,13.382,-5.260,-3.085,0.731360,-1.072540,3.287630,100007.15,-35,+156,-296
43170,10.409,11.286,3.090,1.691818,-0.933127,3.412676,100008.15,-35,+156,-296
43181,10.200,30.066,4.458,1.529524,-0.822981,2.663465,100004.34,-37,+147,-303
43191,12.074,28.431,-4.494,0.933562,-0.866082,1.556677,100004.34,-40,+139,-307
43201,22.607,7.459,-11.168,1.179396,-0.912907,1.740787,100008.58,-44,+127,-305
43211,26.289,-13.176,5.281,3.631358,-0.297256,2.916750,100008.83,-44,+127,-305
43220,17.888,-17.200,8.300,3.637743,0.100762,3.681391,100004.77,-50,+110,-313
43231,10.465,-9.122,5.267,1.682240,0.215165,3.530272,100002.66,-59,+96,-315
43241,6.795,1.994,4.678,1.870075,0.248156,3.693098,100007.98,-64,+79,-311
43251,1.106,-2.174,7.611,2.496900,0.087459,3.206749,100004.95,-64,+79,-311
43260,3.953,-8.125,6.553,2.317579,-0.303642,2.585245,100002.03,-66,+67,-315
43271,11.834,-10.514,3.323,0.916002,-0.699531,2.401135,100002.03,-69,+58,-319
43281,15.093,-9.881,1.620,-0.899024,-0.934724,2.247888,100003.17,-66,+54,-315
43291,14.497,-5.686,2.098,-2.251647,-1.000705,1.965870,100003.17,-66,+54,-315
43300,10.797,-1.396,0.604,-2.878473,-0.919293,1.812090,100005.66,-64,+61,-319
43307,8.048,0.744,-1.040,-2.761941,-0.735715,1.727484,100004.97,-64,+61,-320
43316,7.084,1.827,-1.873,-2.186198,-0.507972,1.540182,100007.06,-64,+64,-320
43326,7.831,3.638,-1.398,-0.978309,-0.192963,1.379485,100005.39,-63,+64,-315
43336,8.135,1.469,0.631,0.288112,0.041166,1.383209,100005.39,-64,+64,-320
43345,8.979,-1.548,2.487,1.036791,0.172597,1.346494,100004.68,-64,+64,-320
43356,9.605,-3.420,2.603,1.005396,0.242303,1.286365,100006.45,-68,+55,-319
43366,9.707,-4.291,2.234,0.522241,0.319991,1.181008,100004.46,-69,+49,-313
43376,9.795,-3.878,3.208,-0.117887,0.380652,1.042659,100007.38,-71,+49,-318
43385,9.643,-3.777,5.176,-0.724492,0.381716,0.880366,100007.38,-73,+49,-316
43396,9.384,-4.050,5.797,-1.365685,0.301899,0.661669,100005.80,-73,+48,-316
43406,9.119,-2.308,4.753,-2.009006,0.152376,0.411577,100005.27,-73,+50,-310
43416,8.931,0.608,3.225,-2.208547,0.068835,0.280678,100004.84,-74,+60,-314
43426,9.225,2.384,1.702,-1.774877,0.075221,0.300898,100007.56,-77,+62,-312
43436,9.960,2.117,0.928,-1.004914,0.120450,0.422751,100007.56,-77,+62,-312
43446,10.273,0.761,1.549,-0.340309,0.144395,0.599412,100005.45,-75,+62,-307
43456,10.106,-1.365,2.859,-0.049245,0.139074,0.718604,100006.08,-77,+62,-312
43466,9.836,-3.264,4.018,-0.185465,0.105019,0.736696,100004.09,-78,+60,-310
43475,9.470,-3.486,4.553,-0.626584,0.016689,0.661136,100005.08,-78,+60,-310
43486,9.426,-2.596,4.538,-1.038437,-0.080688,0.617503,100005.08,-77,+60,-307
43496,9.327,-1.730,3.976,-1.275226,-0.142944,0.606329,100007.37,-78,+66,-311
43506,9.402,-0.905,3.410,-1.290657,-0.162632,0.616971,100007.73,-79,+66,-309
43515,9.925,-0.405,2.809,-1.198602,-0.198816,0.648366,100005.23,-79,+66,-309
43526,10.533,-0.549,2.836,-1.011300,-0.241917,0.677100,100005.34,-77,+67,-305
43536,10.528,-0.985,2.476,-0.871355,-0.274376,0.738292,100005.34,-78,+71,-310
43546,10.358,-1.316,2.338,-0.831447,-0.278100,0.814916,100008.66,-79,+68,-309
43556,10.021,-1.601,2.361,-0.878272,-0.303642,0.893668,100006.01,-79,+68,-309
43566,9.985,-1.225,2.465,-0.929887,-0.352596,0.968164,100006.84,-78,+68,-304
43576,10.227,-1.179,2.361,-0.911795,-0.398357,1.046916,100007.73,-78,+73,-311
43586,10.498,-1.363,2.530,-0.872951,-0.441458,1.127265,100007.73,-79,+69,-309
43596,10.690,-1.088,2.719,-0.825593,-0.519678,1.184732,100003.28,-79,+69,-309
43606,10.672,-0.407,2.973,-0.753226,-0.610137,1.264549,100006.42,-78,+68,-307
43616,11.383,-0.126,3.411,-0.638291,-0.678779,1.388530,100006.42,-78,+70,-312
43626,12.645,-0.326,3.460,-0.544639,-0.764981,1.555613,100005.06,-78,+65,-311
43636,13.546,-0.758,3.237,-0.555814,-0.853311,1.725356,100005.06,-78,+65,-311
43646,14.103,-1.092,2.750,-0.687245,-0.942705,1.851466,100007.16,-76,+63,-310
43656,14.807,-0.983,2.321,-0.844749,-1.036889,1.948310,100006.69,-77,+63,-317
43666,15.628,-0.258,2.278,-1.128364,-1.150228,2.060053,100004.97,-76,+58,-315
43676,16.392,0.561,2.795,-1.310877,-1.261439,2.225007,100004.97,-76,+58,-315
43686,17.473,1.710,3.826,-1.406125,-1.373182,2.372401,100004.97,-72,+58,-315
43696,18.805,3.263,4.983,-1.597685,-1.457788,2.497979,100005.57,-71,+60,-323
43706,19.708,5.074,6.217,-1.885556,-1.534411,2.632071,100006.09,-70,+56,-322
43716,20.665,7.527,7.391,-2.111171,-1.629659,2.748071,100005.26,-70,+56,-322
43726,21.932,9.638,8.683,-2.259629,-1.716925,2.785319,100002.90,-68,+58,-323
43736,21.233,11.140,9.761,-2.317097,-1.740338,2.854493,100002.90,-68,+62,-329
43746,18.502,9.553,10.337,-2.187794,-1.650411,2.971025,100006.35,-65,+58,-328
43756,16.185,2.649,8.373,-1.756785,-1.559953,3.044988,100003.59,-65,+58,-328
43766,16.473,-6.960,5.667,-1.071960,-1.613164,3.049245,100003.74,-63,+58,-327
43777,18.713,-10.364,5.582,-0.636694,-1.592411,2.926328,100000.71,-61,+57,-334
43786,18.211,-5.167,7.304,0.003966,-1.490246,2.711355,100000.71,-61,+47,-332
43796,14.974,1.657,8.206,0.604718,-1.253458,2.492126,100005.66,-61,+47,-332
43806,10.187,7.646,8.205,0.713268,-0.965054,2.173924,100003.26,-58,+43,-330
43816,5.210,9.188,4.216,0.586626,-1.042210,1.756750,100002.63,-58,+40,-336
43826,0.342,3.422,2.053,0.441360,-1.267292,1.209209,100001.16,-56,+32,-334
43836,-3.308,-5.551,3.845,0.800534,-0.825641,0.915485,100001.16,-56,+32,-334
43846,-1.913,-9.729,7.331,1.261873,0.203991,0.605265,100002.45,-55,+32,-330
43856,3.494,-8.164,7.204,1.815799,0.244964,0.005577,100002.83,-59,+29,-332
43866,4.416,-3.363,4.517,1.514093,-0.034926,-0.594110,100001.63,-59,+22,-327
43876,4.150,-0.672,2.312,0.150296,-0.116871,-0.772367,100002.56,-57,+29,-325
43886,2.431,2.856,-2.167,-1.247024,-0.780412,-1.270422,100002.56,-57,+29,-325
43896,0.414,5.011,-2.387,-2.277189,-0.672926,-1.879688,100003.17,-57,+42,-329
43906,0.169,6.203,-1.008,-2.298473,-0.402082,-2.335706,100004.91,-55,+53,-323
43916,0.378,6.522,-0.407,-1.295446,-0.016834,-2.668806,100001.45,-54,+67,-320
43926,1.093,5.121,0.823,-0.008273,0.456743,-2.904531,100000.09,-54,+67,-320
43936,1.928,2.894,2.227,1.049029,0.934578,-3.059907,100000.09,-55,+74,-322
43947,2.746,0.680,3.565,1.587524,1.307055,-3.192402,99998.67,-57,+74,-315
43956,3.639,-1.127,4.329,1.599231,1.569917,-3.349375,100000.09,-59,+81,-310
43966,4.750,-1.279,3.811,1.199616,1.718375,-3.589356,99998.67,-59,+81,-310
43976,5.158,0.175,2.595,0.588754,1.711990,-3.861264,99996.11,-61,+90,-311
43986,5.696,1.915,1.216,0.358883,1.752963,-4.112953,99996.11,-61,+96,-304
43996,6.521,2.948,1.209,0.773396,1.991880,-4.340695,99997.20,-61,+106,-300
44006,7.551,3.203,2.147,1.369892,2.316467,-4.566310,99997.20,-61,+106,-300
44016,8.963,2.958,2.587,1.748754,2.543146,-4.813741,99999.34,-60,+115,-299
44026,10.544,2.605,2.178,1.897212,2.624558,-4.982420,99998.87,-61,+118,-292
44036,11.849,1.640,1.509,2.027047,2.643182,-5.056915,99998.87,-59,+126,-290
44046,12.669,0.157,1.477,2.237762,2.688944,-5.152695,100003.91,-59,+126,-290
44056,13.561,-0.792,1.586,2.356423,2.691604,-5.291575,100001.26,-57,+131,-292
44066,15.732,-0.994,2.203,2.337267,2.595292,-5.446420,100000.73,-56,+135,-287
44077,18.913,-2.038,3.443,2.331946,2.467586,-5.589025,100001.35,-52,+142,-286
44086,22.224,-4.409,4.288,2.300019,2.344136,-5.730034,100001.35,-52,+142,-286
44096,23.770,-6.975,4.163,2.140918,2.156302,-5.821025,100003.24,-49,+149,-290
44106,22.605,-8.149,3.602,1.948295,1.978045,-5.760365,100001.10,-43,+154,-286
44116,22.086,-10.543,2.648,1.978625,1.923238,-5.486328,100003.09,-36,+160,-287
44126,22.101,-14.655,2.101,2.181891,1.898229,-4.987209,99999.90,-36,+160,-287
44132,21.671,-17.320,1.922,2.216478,1.872687,-4.493943,99999.90,-32,+164,-291
44141,20.590,-18.385,1.924,1.849322,1.720504,-3.981521,99999.90,-27,+165,-288
44151,18.547,-21.286,2.372,1.369359,1.415605,-3.252531,100006.64,-27,+165,-288
44162,16.743,-26.333,2.080,1.136295,1.093146,-2.397430,100005.28,-24,+168,-289
44172,14.949,-30.170,0.536,0.404112,0.656817,-1.370459,100004.86,-24,+168,-292
44181,15.648,-30.368,-1.318,-0.606896,0.221551,-0.300918,100006.21,-22,+169,-285
44191,15.423,-27.944,-2.278,-1.353446,-0.291935,1.051705,100007.66,-22,+169,-285
44201,16.142,-21.844,-2.657,-1.409318,-0.751146,2.170200,100004.43,-25,+172,-284
44211,17.778,0.092,0.231,-0.986823,-1.267292,2.944419,100004.43,-29,+169,-287
44221,17.342,39.295,6.922,-0.436621,-1.372118,2.475099,100005.59,-29,+164,-282
44231,17.352,36.495,-5.053,-2.034015,-0.960265,0.869723,99999.95,-29,+164,-282
44241,22.733,2.360,-6.811,-1.470510,-0.951219,1.772182,99999.95,-29,+171,-280
44252,18.451,-15.806,9.733,4.106000,-0.047697,3.533997,100006.80,-36,+156,-289
44261,15.733,-18.967,6.729,4.265100,0.469514,4.130492,100002.52,-44,+136,-289
44271,12.975,-5.849,0.235,1.610405,-0.005128,4.200198,100004.29,-44,+136,-289
44281,2.839,2.426,0.959,1.588589,0.128964,3.636694,100004.71,-50,+125,-292
44292,-3.460,-1.987,10.964,2.717193,0.621165,2.828419,100004.71,-57,+112,-297
44302,5.276,-10.002,6.827,2.906092,0.025734,2.424548,100003.91,-59,+98,-295
44311,16.170,-15.997,-0.663,0.619085,-0.622375,2.121246,100005.71,-59,+98,-295
44321,17.606,-10.692,0.680,-2.060088,-0.661219,1.748237,100005.66,-59,+96,-297
44332,14.230,-1.100,3.903,-3.333427,-0.656962,1.559338,100005.66,-59,+101,-297
44341,8.951,1.473,1.768,-3.345133,-0.681439,1.425778,100005.66,-59,+107,-291
44351,6.465,1.850,0.621,-2.516638,-0.366431,1.188457,100008.73,-59,+107,-291
44361,6.209,2.673,0.365,-1.565226,-0.148266,1.090549,100007.99,-60,+111,-291
44371,7.776,3.517,0.894,-0.462162,0.105551,1.063411,100004.98,-62,+110,-292
44382,9.778,1.230,2.580,0.412094,0.308817,1.066072,100006.38,-64,+106,-288
44391,10.595,-1.324,3.128,0.734020,0.322120,1.066072,100006.38,-64,+106,-288
44401,10.253,-2.624,2.864,0.472222,0.258798,1.018182,100008.26,-66,+103,-290
44411,9.877,-3.210,3.970,-0.111502,0.222615,0.874512,100004.55,-69,+99,-292
44422,9.420,-3.155,5.305,-0.711722,0.134817,0.660072,100001.68,-69,+99,-285
44431,8.554,-2.598,6.387,-1.298107,0.034248,0.462659,100001.68,-69,+99,-285
44441,8.370,-1.683,6.469,-1.852033,-0.022156,0.304091,100006.24,-70,+103,-287
44451,8.696,-0.188,4.621,-2.120749,-0.054614,0.226403,100006.24,-71,+107,-287
44462,9.064,1.850,2.423,-1.964840,-0.067917,0.299302,100005.98,-69,+111,-280
44471,9.659,2.993,1.042,-1.387501,-0.065789,0.470109,100009.32,-69,+111,-280
44481,9.945,2.615,1.108,-0.598382,-0.031201,0.672843,100006.18,-71,+114,-282
44486,9.975,1.369,2.010,-0.097135,-0.035458,0.805870,100006.18,-71,+111,-282
44496,9.829,-0.253,3.083,0.157745,-0.107825,0.885155,100006.64,-71,+111,-282
44507,9.390,-1.676,4.239,0.146039,-0.173807,0.965503,100006.28,-71,+108,-279
44516,8.928,-1.899,5.009,-0.159392,-0.273843,0.988384,100003.72,-73,+108,-282
44526,8.864,-1.843,4.696,-0.478658,-0.369091,0.929852,100004.81,-73,+106,-284
44536,9.343,-1.518,3.880,-0.683520,-0.394632,0.893136,100004.81,-73,+106,-284
44547,9.847,-1.415,3.066,-0.811226,-0.421770,0.908567,100006.27,-73,+105,-280
44557,9.900,-0.909,2.678,-0.854859,-0.459550,0.948476,100003.77,-73,+107,-283
44566,9.718,-0.155,2.029,-0.796859,-0.449972,1.028824,100004.35,-73,+105,-284
44576,10.385,-0.523,1.494,-0.630309,-0.398889,1.091613,100003.73,-73,+105,-284
44587,11.342,-1.347,0.888,-0.500474,-0.385586,1.157063,100003.73,-73,+103,-279
44597,11.554,-1.759,0.940,-0.477594,-0.377073,1.198035,100007.79,-75,+103,-284
44606,11.490,-1.966,1.426,-0.546768,-0.400486,1.123540,100004.87,-75,+100,-284
44616,11.497,-1.482,1.700,-0.533465,-0.447843,1.095870,100006.85,-75,+100,-284
44626,11.466,-1.019,1.907,-0.458970,-0.469128,1.212934,100005.18,-74,+99,-280
44637,11.577,-1.141,2.319,-0.377557,-0.509036,1.345962,100005.18,-75,+98,-285
44646,11.340,-1.541,2.603,-0.387667,-0.580339,1.493356,100004.55,-74,+95,-286
44656,11.563,-1.373,3.219,-0.490364,-0.645256,1.618402,100004.30,-74,+95,-286
44666,12.772,-1.081,4.106,-0.617538,-0.724540,1.782824,100005.35,-75,+92,-283
44677,13.763,-0.678,4.617,-0.784621,-0.847458,1.917448,100006.13,-76,+90,-288
44686,14.365,-0.092,4.435,-0.934676,-0.954944,2.085062,100006.13,-75,+86,-289
44696,15.026,0.559,3.655,-1.045887,-1.041146,2.206383,100004.73,-75,+86,-289
44706,16.155,0.769,2.918,-1.135813,-1.127347,2.318658,100006.98,-73,+83,-287
44717,17.460,1.044,3.113,-1.285336,-1.222063,2.498511,100000.39,-73,+82,-292
44727,19.024,2.868,4.338,-1.501373,-1.298155,2.634199,100004.53,-71,+80,-294
44736,20.713,5.284,5.728,-1.836070,-1.366265,2.734236,100004.53,-71,+80,-294
44746,21.573,7.926,6.831,-2.167574,-1.488650,2.833209,100004.27,-70,+77,-292
44756,21.448,10.197,8.168,-2.292620,-1.595604,2.893337,100003.95,-69,+79,-298
44767,20.100,11.681,9.237,-2.312308,-1.642962,2.953465,99999.83,-65,+76,-299
44776,17.879,11.162,10.377,-2.250051,-1.565806,2.989649,100001.77,-65,+76,-299
44786,16.125,5.674,8.111,-2.027629,-1.511531,2.931649,100001.77,-63,+76,-298
44796,16.376,-4.942,4.026,-1.381116,-1.663714,2.925263,100004.12,-61,+76,-306
44807,18.433,-10.792,4.656,-0.684584,-1.612100,2.878438,100004.07,-57,+70,-309
44817,18.262,-6.498,6.966,0.241287,-1.495035,2.759777,100003.96,-54,+64,-310
44826,15.056,0.333,7.541,0.798938,-1.306136,2.579924,100003.65,-54,+64,-310
44836,10.271,5.832,6.213,0.679213,-1.114577,2.353245,100003.65,-52,+58,-319
44847,5.278,6.482,2.858,0.298755,-1.169384,1.982897,100005.23,-47,+52,-320
44857,0.087,1.044,1.662,0.341323,-1.229513,1.464090,100002.35,-43,+47,-321
44866,-4.065,-6.899,4.386,0.864387,-0.675054,1.030421,100003.91,-43,+47,-321
44876,-2.762,-8.585,8.205,1.427359,0.174193,0.500971,100000.41,-43,+43,-328
44887,1.745,-5.843,7.942,1.459286,0.455147,-0.009322,100000.41,-42,+35,-326
44897,4.035,-0.970,4.103,0.213085,0.338083,-0.400955,100003.51,-40,+35,-324
44906,3.574,3.488,-0.987,-1.688675,-0.432412,-1.174110,100002.10,-40,+35,-324
44916,1.494,5.298,-2.899,-3.045555,-0.638871,-1.855211,100002.05,-38,+48,-330
44926,0.081,6.002,-2.697,-2.943390,-0.430816,-2.188311,99998.40,-33,+58,-327
44937,-0.065,6.486,-1.321,-1.724327,0.042762,-2.512366,99998.40,-31,+66,-325
44947,0.626,5.714,0.461,-0.402034,0.569018,-2.778953,100000.28,-31,+66,-325
44956,1.412,3.031,1.671,0.511598,0.985660,-2.962531,100001.53,-32,+72,-329
44966,2.381,0.358,2.800,1.013910,1.305458,-3.103008,100001.33,-33,+71,-325
44977,3.446,-1.726,3.358,1.051158,1.556082,-3.247742,99998.92,-36,+73,-322
44987,4.806,-2.409,3.133,0.664846,1.723164,-3.454732,99998.92,-36,+73,-322
44996,5.291,-0.789,2.493,0.030039,1.764669,-3.626604,100003.80,-41,+80,-324
45006,4.809,1.885,1.801,-0.242933,1.800320,-3.849026,100000.46,-43,+86,-317
45017,5.642,4.179,1.085,0.188076,2.007843,-4.140622,100002.98,-46,+94,-314
45027,7.312,4.338,1.232,0.907488,2.295182,-4.400824,99998.43,-46,+94,-314
45036,8.995,3.269,1.652,1.465139,2.509091,-4.554071,99998.43,-50,+103,-315
45046,10.078,2.259,1.741,1.780148,2.605402,-4.667943,100000.72,-51,+107,-310
45057,10.915,1.372,1.293,1.991396,2.630944,-4.743503,100002.08,-54,+115,-307
45067,11.712,0.347,0.957,2.238295,2.650100,-4.815338,100000.77,-54,+115,-307
45077,12.479,-0.724,1.272,2.442802,2.639990,-4.926371,100003.38,-55,+124,-311
45086,13.828,-1.309,1.985,2.427726,2.560705,-5.018071,100003.38,-52,+129,-307
45096,16.150,-1.755,3.056,2.282460,2.386173,-5.145246,100003.95,-50,+137,-309
45107,18.606,-2.086,4.153,2.114845,2.204724,-5.327759,100004.22,-50,+137,-309
45117,20.559,-2.645,4.990,2.019065,2.127568,-5.506016,99999.05,-45,+146,-317
45126,21.405,-4.198,5.853,2.030240,2.153641,-5.592217,99997.27,-38,+150,-316
45136,21.336,-7.016,6.330,2.062166,2.182375,-5.557631,99997.27,-32,+158,-320
45147,20.492,-10.246,5.563,1.928075,2.132357,-5.388420,100002.42,-32,+158,-320
45157,20.084,-12.814,4.268,1.687029,2.133953,-5.056915,100005.70,-29,+162,-328
45166,20.361,-15.051,2.276,1.301782,2.141935,-4.578548,100003.05,-24,+164,-327
45176,20.100,-17.367,0.545,0.652075,1.990283,-4.053356,100003.88,-22,+171,-329
45187,18.604,-20.745,0.857,0.085911,1.701348,-3.561687,100003.88,-22,+171,-329
45197,15.468,-23.444,1.934,-0.674474,1.209146,-2.817797,100005.88,-22,+178,-332
45206,13.763,-24.935,1.214,-1.499776,0.694596,-1.814238,100006.46,-19,+184,-325
45216,14.109,-23.256,-1.010,-2.165978,0.243367,-0.613799,100005.20,-21,+194,-324
45227,16.472,-19.294,-1.513,-2.251116,-0.113146,0.597815,100001.85,-21,+194,-324
45237,16.628,-14.913,-2.592,-1.853097,-0.498394,1.583815,100001.85,-24,+200,-325
45247,15.416,-9.650,-4.144,-1.246492,-1.063494,2.631007,100007.29,-27,+198,-322
45256,14.081,10.321,-0.661,-0.021576,-1.269421,3.114162,100005.62,-34,+196,-325
45266,13.209,35.513,2.262,0.708479,-1.175769,2.520328,100005.09,-38,+196,-325
45277,14.559,32.488,-5.872,0.272681,-0.985806,1.385870,100005.77,-38,+191,-334
45287,23.416,6.176,-10.922,0.955378,-0.945366,2.030787,100005.77,-36,+185,-334
45296,23.969,-14.575,4.638,4.083119,-0.349403,3.240273,100008.20,-43,+168,-344
45306,15.729,-17.284,8.618,4.176770,0.079477,3.898492,100004.54,-52,+146,-353
45313,10.945,-10.595,6.475,2.432515,0.045422,3.765465,100003.76,-52,+146,-353
45322,7.973,-0.374,4.762,1.939249,0.213569,3.697355,100003.76,-57,+129,-352
45332,0.990,2.587,6.607,2.609175,0.381184,3.506859,100004.85,-57,+129,-352
45342,-0.919,-6.805,8.227,3.210991,0.196010,2.775741,100004.85,-66,+114,-355
45351,8.510,-11.689,6.473,2.580441,-0.315348,2.372934,100004.20,-70,+96,-362
45362,16.431,-12.972,1.720,0.524901,-0.947494,2.105282,100004.10,-66,+90,-360
45372,17.004,-10.235,1.558,-1.661006,-0.989531,1.700879,100002.90,-66,+90,-360
45382,14.090,-3.498,2.714,-3.143464,-0.956008,1.445466,100002.90,-67,+96,-362
45391,8.469,0.078,0.698,-3.534564,-0.851715,1.385338,100002.90,-64,+105,-362
45402,5.769,1.716,-0.559,-2.938601,-0.546284,1.227301,100006.96,-63,+111,-354
45412,6.764,4.003,-0.452,-1.779134,-0.328119,1.026164,100006.60,-63,+111,-354
45422,8.553,4.818,0.838,-0.134383,-0.099311,1.008604,100005.66,-66,+115,-356
