79975,8.849,-2.871,3.373,0.002443,0.014684,0.016942,100260.79,-127,+32,-243
79981,8.799,-2.892,3.330,0.004039,0.013620,0.016942,100261.10,-127,+32,-243
79990,8.816,-2.893,3.364,0.003507,0.012555,0.015346,100261.10,-127,+31,-242
80001,8.805,-2.843,3.361,0.003507,0.010959,0.014282,100259.80,-126,+33,-243
80010,8.819,-2.851,3.338,0.006700,0.008831,0.013749,100259.80,-126,+33,-243
80020,8.792,-2.833,3.362,0.009360,0.002977,0.015878,100261.60,-127,+31,-244
80030,8.800,-2.803,3.377,0.006168,-0.006601,0.017474,100260.99,-127,+32,-245
80040,8.837,-2.866,3.403,0.006168,-0.017775,0.018538,100259.82,-127,+31,-243
80050,8.815,-2.870,3.379,0.008296,-0.024692,0.018538,100259.82,-127,+31,-243
80060,8.781,-2.844,3.350,0.004039,-0.033738,0.016942,100259.82,-127,+32,-244
80070,8.827,-2.840,3.326,0.008828,-0.039059,0.018538,100256.10,-127,+32,-244
80080,8.816,-2.922,3.256,0.010424,-0.033738,0.016942,100264.59,-126,+31,-243
80090,8.791,-2.939,3.330,0.006700,-0.025224,0.013217,100260.55,-126,+31,-243
80100,8.793,-2.892,3.308,0.004039,-0.015114,0.012153,100260.24,-127,+31,-243
80110,8.839,-2.877,3.361,0.006700,-0.014050,0.008428,100260.24,-127,+31,-244
80120,8.851,-2.863,3.362,0.007764,-0.025224,0.011089,100264.77,-126,+31,-244
80131,8.811,-2.809,3.372,0.014681,-0.034270,0.012685,100262.94,-126,+31,-244
80140,8.891,-2.811,3.303,0.022663,-0.041188,0.016942,100261.89,-127,+31,-244
80150,8.924,-2.646,3.438,0.026388,-0.070986,0.021731,100261.89,-126,+31,-244
80160,8.906,-2.495,3.535,0.052461,-0.146013,0.033970,100264.69,-126,+31,-244
80171,8.804,-2.638,3.262,0.098755,-0.163573,0.050465,100262.61,-126,+31,-244
80180,8.821,-3.130,3.127,0.122168,-0.115151,0.052061,100262.61,-127,+30,-245
80190,8.770,-3.199,3.176,0.092369,-0.070986,0.039823,100259.94,-126,+30,-245
80200,8.739,-2.983,3.130,0.064700,-0.044380,0.027584,100263.75,-126,+30,-245
80210,8.746,-2.969,3.094,0.061507,-0.020435,0.017474,100263.75,-126,+30,-244
80216,8.754,-2.985,3.143,0.070021,-0.009793,0.011621,100264.52,-126,+30,-244
80225,8.707,-2.898,3.176,0.080663,-0.002344,0.005768,100260.65,-125,+31,-245
80235,8.746,-2.813,3.049,0.096094,0.006702,-0.000085,100261.65,-125,+31,-245
80245,8.795,-2.719,3.128,0.113654,0.003509,-0.003278,100259.93,-125,+29,-244
80256,8.767,-2.749,3.291,0.146645,-0.012986,-0.003810,100259.93,-126,+29,-246
80265,8.698,-2.977,3.203,0.184424,-0.015646,-0.006471,100265.03,-126,+29,-245
80275,8.763,-3.245,3.159,0.172186,0.006702,-0.022434,100259.17,-126,+29,-245
80285,8.855,-3.272,3.310,0.133874,0.025326,-0.043186,100260.27,-125,+29,-245
80295,8.846,-3.242,3.398,0.102479,0.041289,-0.063939,100263.47,-125,+29,-245
80305,8.821,-3.174,3.329,0.054590,0.059913,-0.083094,100263.47,-126,+28,-245
80315,8.628,-3.035,3.303,0.001379,0.081730,-0.097461,100263.98,-126,+28,-245
80325,8.447,-3.070,3.104,-0.034273,0.101950,-0.104379,100262.93,-127,+29,-244
80335,8.616,-3.212,3.115,-0.072585,0.132280,-0.111828,100260.88,-127,+29,-245
80346,8.810,-3.291,3.267,-0.120475,0.157289,-0.125131,100259.52,-125,+29,-244
80355,8.890,-2.913,3.162,-0.178474,0.182298,-0.137370,100259.52,-125,+29,-244
80365,8.672,-2.597,3.075,-0.202419,0.206243,-0.139498,100258.73,-126,+31,-244
80375,8.695,-2.038,3.146,-0.147612,0.224335,-0.127260,100261.93,-127,+32,-242
80386,8.819,-1.909,3.253,-0.037465,0.223803,-0.103847,100261.24,-127,+32,-242
80395,8.879,-2.455,3.215,0.080131,0.216353,-0.084691,100258.79,-127,+32,-242
80405,8.786,-2.283,3.127,0.140259,0.208372,-0.068728,100258.79,-128,+31,-241
80415,8.841,-2.227,3.489,0.205177,0.202519,-0.061278,100264.54,-128,+32,-241
80425,8.627,-2.531,3.467,0.288718,0.191344,-0.059682,100258.77,-128,+31,-241
80436,8.336,-2.656,3.854,0.316920,0.172188,-0.059150,100259.98,-128,+31,-241
80445,8.915,-2.700,3.774,0.304681,0.128555,-0.074581,100259.09,-128,+31,-240
80451,8.871,-3.344,4.419,0.294571,0.083858,-0.079902,100259.09,-128,+31,-240
80460,8.719,-2.673,5.239,0.287122,0.107271,-0.099590,100259.09,-128,+31,-240
80471,8.882,-3.701,4.210,0.166333,0.007766,-0.141627,100260.10,-128,+30,-240
80481,9.477,-3.708,4.691,0.035966,0.022133,-0.183663,100259.26,-129,+31,-240
80490,8.843,-3.301,4.060,-0.098658,0.004042,-0.243792,100258.21,-128,+33,-239
80500,8.864,-3.205,4.188,-0.237539,0.021601,-0.272526,100262.63,-128,+33,-239
80510,9.058,-2.708,4.101,-0.297667,-0.008729,-0.300727,100259.89,-129,+34,-240
80521,8.977,-2.337,4.102,-0.277979,-0.050766,-0.295938,100263.41,-128,+35,-239
80530,8.880,-2.506,3.888,-0.238603,-0.070986,-0.285828,100263.41,-129,+37,-240
80540,8.896,-2.826,3.986,-0.285961,-0.068857,-0.279975,100258.44,-129,+37,-240
80550,8.825,-2.428,4.005,-0.387062,-0.074711,-0.281039,100262.05,-127,+38,-240
80561,8.860,-2.136,3.931,-0.426970,-0.077371,-0.271461,100262.05,-128,+39,-240
80570,8.792,-2.103,3.783,-0.443465,-0.084821,-0.249113,100261.77,-127,+40,-240
80580,8.666,-1.866,3.481,-0.440273,-0.085885,-0.222507,100261.50,-127,+40,-240
80590,8.733,-1.866,3.182,-0.380676,-0.085885,-0.184727,100261.77,-127,+42,-240
80601,8.817,-2.032,3.143,-0.300860,-0.082692,-0.148012,100259.41,-127,+44,-240
80611,8.827,-2.255,3.116,-0.241263,-0.088013,-0.121938,100259.41,-126,+44,-240
80620,8.803,-2.360,3.243,-0.204548,-0.089078,-0.097994,100261.35,-126,+44,-240
80630,8.722,-2.477,3.371,-0.200823,-0.084289,-0.086287,100260.51,-126,+44,-241
80641,8.709,-2.498,3.208,-0.223172,-0.069390,-0.076177,100263.18,-126,+45,-240
80651,8.669,-2.409,2.743,-0.244988,-0.052362,-0.059150,100263.18,-126,+46,-242
80660,8.766,-2.049,2.573,-0.239667,-0.034802,-0.035205,100263.18,-126,+46,-242
80670,9.041,-1.706,2.867,-0.155594,-0.039591,0.004172,100263.65,-126,+47,-242
80680,9.304,-1.487,3.179,-0.018309,-0.069390,0.056318,100263.43,-127,+46,-240
80686,9.340,-1.546,3.258,0.085984,-0.093867,0.099951,100262.07,-127,+46,-240
80696,9.225,-1.873,3.271,0.161544,-0.103977,0.140924,100262.13,-125,+46,-242
80705,9.042,-2.234,3.330,0.199323,-0.107701,0.178171,100262.13,-126,+45,-242
80715,9.071,-2.280,3.507,0.201984,-0.116747,0.206905,100261.40,-127,+44,-242
80726,8.975,-2.219,3.690,0.204112,-0.134307,0.233511,100260.87,-127,+44,-242
80736,8.992,-2.152,3.720,0.201452,-0.151334,0.264373,100262.13,-125,+43,-243
80745,9.009,-2.124,3.641,0.180167,-0.162509,0.301621,100260.98,-125,+42,-242
80755,9.122,-2.133,3.611,0.142388,-0.171555,0.347914,100260.98,-126,+40,-244
80765,9.162,-2.009,3.659,0.101415,-0.189646,0.403254,100262.98,-126,+40,-244
80776,9.236,-1.757,3.505,0.068424,-0.208270,0.481474,100259.89,-126,+40,-244
80785,9.345,-1.371,3.229,0.049268,-0.210399,0.577254,100259.16,-125,+38,-244
80795,9.416,-1.165,3.463,0.084388,-0.191775,0.686868,100260.52,-125,+35,-245
80805,9.463,-1.327,3.575,0.146112,-0.181665,0.794887,100260.52,-125,+35,-245
80816,9.400,-1.111,3.639,0.234975,-0.157720,0.882153,100261.02,-125,+33,-245
80826,9.412,-1.920,4.079,0.365874,-0.153463,0.956116,100260.98,-125,+29,-246
80835,9.496,-3.405,3.633,0.366938,-0.163041,1.019969,100260.24,-126,+24,-247
80845,9.684,-4.113,3.666,0.179103,-0.100252,1.038593,100261.91,-126,+24,-247
80856,10.719,-4.259,4.030,-0.081631,-0.034270,1.050831,100261.91,-125,+22,-247
80866,12.587,-4.437,4.789,-0.306713,-0.002876,1.082226,100260.97,-125,+18,-247
80875,14.384,-3.433,5.400,-0.523282,-0.014050,1.100850,100262.80,-126,+17,-247
80885,16.330,-2.110,5.637,-0.794125,-0.033738,1.184391,100259.92,-126,+17,-247
80896,18.304,-2.264,4.957,-1.037300,-0.105573,1.314758,100258.78,-125,+14,-247
80906,19.587,-3.150,4.090,-1.227263,-0.150270,1.445125,100258.78,-125,+11,-247
80916,20.820,-3.862,3.337,-1.503960,-0.165701,1.527602,100263.98,-126,+10,-248
80921,20.868,-3.193,2.973,-1.718932,-0.205610,1.531327,100263.02,-126,+10,-248
80930,19.999,-1.940,3.026,-1.730639,-0.327463,1.539840,100263.02,-124,+9,-248
80941,18.656,0.145,2.986,-1.410309,-0.630233,1.527602,100257.85,-123,+7,-249
80951,15.370,0.811,1.469,-0.973446,-0.972380,1.416391,100256.43,-123,+7,-249
80961,9.708,-2.058,2.407,-0.663226,-0.961205,1.489822,100256.43,-122,+6,-253
80970,4.869,-9.411,5.261,0.342461,-0.743573,1.686703,100260.98,-119,+0,-254
80980,6.739,-14.961,7.000,0.920332,-0.464747,1.996390,100262.11,-118,-7,-256
80991,10.055,-17.192,6.433,0.672369,-0.357261,2.076207,100255.20,-118,-7,-256
81000,11.551,-14.974,3.754,0.135470,-0.438674,1.897950,100255.20,-117,-14,-257
81010,10.878,-12.672,3.180,-0.084823,-0.439738,1.780886,100255.20,-115,-19,-258
81020,9.234,-11.408,4.253,0.016278,-0.418986,1.839418,100261.78,-115,-26,-259
81031,8.313,-11.274,4.704,0.110993,-0.441866,1.959143,100263.55,-115,-26,-259
81041,7.864,-10.773,4.350,0.088112,-0.410472,1.960739,100260.20,-112,-31,-260
81050,7.145,-9.200,3.687,-0.005539,-0.325866,1.881455,100255.39,-111,-37,-260
81060,5.796,-7.308,2.708,-0.067796,-0.261481,1.835161,100255.39,-109,-42,-262
81071,4.410,-6.202,1.890,-0.043851,-0.225298,1.829308,100258.72,-109,-42,-262
81081,3.327,-5.963,1.478,0.039691,-0.204013,1.825051,100258.25,-108,-46,-262
81091,2.393,-5.259,1.106,0.099287,-0.202949,1.754281,100258.80,-106,-52,-262
81100,1.439,-3.956,0.579,0.126957,-0.214123,1.620721,100258.80,-104,-57,-263
81111,0.641,-2.689,-0.051,0.141323,-0.235940,1.475455,100259.75,-104,-57,-263
81121,-0.121,-1.759,-0.480,0.162076,-0.258289,1.352538,100259.75,-102,-62,-264
81131,-0.968,-1.139,-0.769,0.176443,-0.263610,1.228556,100261.27,-100,-66,-265
81140,-1.691,-0.566,-0.939,0.153562,-0.252967,1.091804,100259.23,-99,-70,-265
81150,-2.110,-0.338,-1.182,0.109397,-0.249243,0.959841,100257.72,-99,-70,-265
81161,-2.385,-0.162,-1.290,0.070021,-0.248178,0.818832,100257.72,-99,-72,-264
81171,-2.494,0.181,-1.379,0.013085,-0.257224,0.664520,100259.04,-95,-74,-265
81181,-2.418,0.867,-1.482,-0.055025,-0.282766,0.519786,100261.49,-95,-76,-267
81190,-2.476,1.098,-1.800,-0.083759,-0.318417,0.405914,100257.21,-94,-76,-268
81201,-2.912,1.192,-1.716,-0.037465,-0.345022,0.297364,100261.22,-94,-76,-268
81211,-3.086,0.937,-1.780,0.022663,-0.396105,0.193070,100261.28,-92,-77,-268
81221,-3.268,0.635,-1.548,0.087048,-0.450912,0.078667,100257.19,-91,-78,-269
81230,-3.343,0.160,-1.379,0.189213,-0.503591,-0.034140,100260.80,-90,-78,-270
81241,-3.183,-0.326,-0.843,0.322773,-0.532857,-0.169296,100260.80,-90,-78,-270
81251,-3.106,-0.767,-0.383,0.440901,-0.546692,-0.311902,100261.06,-90,-78,-271
81260,-2.724,-1.040,0.045,0.477085,-0.533389,-0.463553,100261.06,-89,-77,-271
81270,-1.975,-1.035,0.425,0.469635,-0.498802,-0.641810,100258.79,-88,-78,-272
81276,-1.398,-1.127,0.663,0.454204,-0.473793,-0.786544,100255.70,-88,-78,-272
81286,-0.961,-1.520,0.856,0.427066,-0.441866,-0.914782,100258.95,-89,-75,-271
81296,-0.319,-2.227,1.342,0.371727,-0.382270,-1.087718,100257.59,-89,-75,-271
81305,0.782,-3.032,1.628,0.228589,-0.314692,-1.298433,100257.59,-89,-73,-272
81315,2.046,-3.884,1.965,-0.011392,-0.236472,-1.527240,100262.24,-89,-70,-273
81326,3.310,-4.322,2.399,-0.249777,-0.156656,-1.743277,100263.35,-92,-65,-274
81336,4.668,-4.709,2.579,-0.408878,-0.101848,-1.961442,100257.80,-92,-65,-274
81346,6.006,-5.184,2.839,-0.438676,-0.039059,-2.115754,100256.70,-93,-57,-273
81355,7.191,-5.745,2.773,-0.326401,-0.009793,-2.215258,100256.70,-95,-50,-274
81366,8.282,-6.452,3.089,-0.001814,0.054592,-2.259956,100263.34,-96,-45,-274
81376,9.752,-7.426,3.710,0.489323,0.088647,-2.251442,100259.95,-96,-45,-274
81386,11.027,-8.872,3.824,0.999084,0.041289,-2.228029,100259.16,-97,-40,-273
81395,11.895,-9.823,3.966,1.443928,-0.030546,-2.228561,100259.16,-99,-37,-272
81405,12.682,-10.042,4.291,1.794056,-0.098123,-2.255699,100259.16,-101,-35,-272
81416,13.535,-9.929,4.893,1.994662,-0.160380,-2.271130,100257.66,-101,-35,-272
81426,6.288,-17.663,16.088,2.293175,0.175381,-2.081699,100263.21,-102,-34,-270
81436,18.086,-34.466,23.579,3.706991,1.839820,-0.803039,100259.76,-106,-38,-265
81445,31.379,-21.490,5.583,1.091139,-0.277444,-1.463919,100257.62,-106,-37,-265
81456,13.865,3.798,-3.515,-2.086088,-0.268931,-2.384469,100257.62,-106,-37,-265
81466,14.370,12.322,0.304,-2.509115,0.977802,-2.639350,100266.96,-108,-24,-265
81476,13.553,9.544,3.595,-1.494382,1.058151,-1.841185,100259.05,-111,-13,-264
81485,15.371,7.900,5.696,0.046608,0.803270,-1.640580,100260.05,-113,-8,-262
81496,26.912,-5.020,-6.363,0.949066,0.079601,-1.225534,100260.05,-112,-7,-263
81506,34.872,-14.611,-7.750,0.708020,-0.216784,-0.341168,100260.05,-112,-7,-263
81511,25.575,-4.869,-3.381,0.694718,-0.114087,-0.392782,100264.05,-113,-9,-262
81520,15.323,1.999,0.274,1.089543,0.275950,-0.658837,100264.05,-113,-9,-262
81530,5.739,-1.183,4.047,1.358258,0.484005,-0.202287,100264.89,-114,-9,-260
81541,-0.560,-4.548,4.587,0.816039,0.329693,-0.010195,100262.53,-115,-12,-259
81551,2.397,-3.575,4.078,-0.063539,0.283931,-0.175682,100261.60,-115,-11,-259
81561,7.365,-4.159,6.080,-0.371630,0.331821,-0.200691,100266.84,-115,-11,-259
81571,8.094,-4.566,7.295,-0.284364,0.258922,-0.188452,100261.82,-115,-10,-258
81581,6.899,-3.566,5.461,-0.126860,0.143454,-0.264012,100262.23,-116,-9,-258
81591,7.020,-3.256,3.427,-0.136970,0.091308,-0.321480,100262.23,-116,-7,-257
81601,9.445,-3.269,1.589,-0.030548,0.035968,-0.309241,100259.15,-116,-7,-257
81610,11.636,-3.247,0.724,0.270094,0.025326,-0.309773,100259.15,-116,-7,-257
81620,10.959,-3.910,1.297,0.569140,0.062574,-0.343296,100261.79,-117,-6,-257
81631,8.926,-4.295,1.684,0.659598,0.091308,-0.333186,100260.74,-117,-8,-256
81641,8.102,-3.929,2.381,0.585103,0.154629,-0.341168,100260.52,-117,-8,-256
81651,8.737,-3.733,3.332,0.585103,0.189216,-0.364581,100263.15,-118,-8,-255
81660,9.218,-3.719,4.114,0.623415,0.178574,-0.362452,100263.15,-119,-7,-255
81671,8.631,-3.718,4.738,0.571800,0.178041,-0.373094,100259.52,-119,-9,-255
81681,8.307,-3.793,4.588,0.406314,0.187619,-0.395975,100258.28,-118,-9,-255
81691,9.223,-4.151,4.011,0.168993,0.216353,-0.420452,100261.27,-118,-8,-254
81701,9.817,-4.065,3.338,-0.093337,0.257326,-0.445461,100261.27,-121,-7,-253
81711,9.441,-3.397,3.021,-0.346089,0.317454,-0.426837,100261.27,-120,-4,-252
81721,9.234,-1.279,3.364,-0.547759,0.365876,-0.344893,100263.20,-122,-2,-252
81731,9.102,0.439,4.081,-0.482841,0.369069,-0.186324,100260.59,-122,-2,-252
81740,8.874,0.718,4.431,-0.232750,0.304152,0.024392,100261.95,-122,-1,-251
81746,8.751,0.044,4.537,-0.023631,0.239234,0.194667,100260.69,-122,-1,-251
81756,8.859,-1.068,4.360,0.088645,0.173785,0.328758,100260.69,-122,-2,-250
81766,9.049,-2.328,3.957,0.003507,0.137069,0.443162,100263.42,-123,-3,-249
81776,8.994,-3.040,3.933,-0.232750,0.139197,0.501694,100262.73,-123,-5,-250
81785,8.730,-2.900,3.850,-0.456236,0.136005,0.531492,100257.14,-123,-5,-250
81796,8.694,-2.744,3.637,-0.565850,0.127491,0.557034,100262.33,-123,-4,-249
81806,8.599,-3.097,3.414,-0.562658,0.124298,0.586300,100262.33,-123,-5,-249
81816,8.597,-3.103,3.180,-0.517960,0.117913,0.604391,100260.91,-124,-6,-248
81826,8.704,-2.910,3.150,-0.421649,0.137069,0.615566,100262.06,-124,-6,-248
81836,8.602,-3.556,3.306,-0.313630,0.155693,0.616630,100263.05,-124,-7,-249
81846,8.610,-3.734,3.204,-0.313098,0.157289,0.616098,100259.23,-124,-9,-248
81856,8.608,-3.532,3.426,-0.335447,0.186023,0.602795,100259.23,-124,-10,-248
81866,8.655,-3.433,3.456,-0.341300,0.171656,0.603327,100261.07,-124,-10,-248
81875,8.815,-2.736,3.411,-0.288089,0.171656,0.620355,100260.23,-125,-11,-247
81886,8.757,-3.172,4.436,-0.168364,0.195069,0.634189,100261.96,-125,-13,-246
81896,8.554,-4.172,3.812,-0.153997,0.127491,0.628336,100257.77,-125,-15,-246
81906,8.799,-4.297,3.785,-0.238071,0.157821,0.620355,100257.77,-125,-15,-246
81916,8.493,-4.473,4.026,-0.342896,0.160482,0.594813,100259.57,-125,-16,-245
81926,8.200,-4.242,3.458,-0.501997,0.178574,0.560758,100260.93,-125,-16,-245
81936,8.633,-3.770,3.069,-0.596181,0.230720,0.548520,100263.43,-125,-17,-245
81946,8.879,-3.436,3.057,-0.553612,0.240830,0.588960,100258.93,-126,-17,-245
81955,8.751,-3.323,3.167,-0.401428,0.226996,0.665052,100258.93,-126,-17,-244
81966,8.698,-3.833,3.174,-0.264676,0.199858,0.734758,100266.73,-126,-20,-244
81976,8.803,-4.564,3.415,-0.188052,0.161014,0.769345,100257.80,-126,-21,-243
81982,8.840,-4.984,3.529,-0.194970,0.122170,0.777859,100257.84,-126,-21,-243
81991,8.798,-5.347,3.486,-0.249245,0.104610,0.774134,100257.84,-125,-23,-243
82001,8.870,-5.408,3.352,-0.351942,0.117381,0.759235,100260.77,-127,-25,-242
82011,8.884,-5.218,3.318,-0.432291,0.133344,0.735822,100260.77,-127,-25,-242
82021,8.779,-5.042,3.329,-0.451447,0.131216,0.727309,100263.25,-126,-26,-244
82031,8.667,-4.992,3.329,-0.464750,0.133344,0.731566,100259.41,-126,-27,-242
82041,8.478,-4.723,3.481,-0.494016,0.140262,0.745933,100263.31,-125,-29,-242
82051,8.569,-4.629,3.701,-0.530199,0.129087,0.776263,100263.31,-125,-29,-242
82061,8.760,-4.432,3.869,-0.579153,0.103014,0.816171,100263.31,-125,-29,-242
82071,9.128,-4.386,3.959,-0.633960,0.073216,0.859804,100263.00,-125,-31,-243
82081,9.574,-4.383,3.826,-0.708456,0.027987,0.906098,100260.28,-125,-33,-242
82091,10.101,-4.251,3.487,-0.753685,-0.009261,0.965694,100262.06,-125,-33,-242
82101,10.525,-4.356,3.117,-0.730804,-0.038527,1.061474,100260.13,-125,-34,-243
82111,10.917,-4.590,3.050,-0.730804,-0.088546,1.176941,100260.13,-123,-37,-244
82121,11.137,-4.192,2.761,-0.761667,-0.153995,1.302519,100262.95,-122,-39,-244
82131,11.356,-3.621,3.073,-0.751557,-0.205078,1.455767,100264.10,-122,-39,-244
82141,11.797,-3.871,3.507,-0.697814,-0.274784,1.623381,100262.05,-122,-41,-245
82151,12.338,-4.421,3.640,-0.717502,-0.320545,1.781950,100262.05,-120,-44,-246
82161,12.870,-4.607,3.663,-0.873942,-0.306710,1.905932,100265.88,-117,-49,-248
82171,13.426,-4.502,3.641,-1.102749,-0.263077,2.016078,100260.12,-117,-49,-248
82181,14.409,-4.004,3.501,-1.339538,-0.232747,2.107069,100260.12,-115,-52,-249
82191,15.846,-3.307,3.232,-1.574731,-0.207738,2.182097,100258.24,-113,-56,-251
82201,18.551,-2.146,3.268,-1.805666,-0.183793,2.254464,100259.65,-110,-58,-253
82211,21.144,0.950,3.573,-1.998822,-0.163573,2.311931,100259.65,-108,-58,-255
82216,20.452,3.460,3.716,-1.975409,-0.127922,2.374188,100262.95,-108,-60,-255
82226,17.826,4.365,4.332,-1.825354,-0.106105,2.484335,100260.85,-106,-64,-256
82236,16.191,1.848,4.757,-1.486932,-0.155591,2.735491,100255.62,-106,-64,-256
82246,15.725,-2.890,5.725,-1.202786,-0.169426,2.938757,100258.13,-102,-68,-258
82256,14.577,-8.263,9.043,-0.622786,-0.243922,3.134041,100258.13,-100,-74,-260
82266,14.685,-11.022,7.464,-0.287025,-0.376949,3.170757,100258.77,-94,-81,-261
82276,14.661,-9.261,5.605,-0.549887,-0.294472,2.943546,100262.59,-94,-81,-261
82286,13.216,-6.216,5.354,-0.329594,-0.231151,2.813179,100257.52,-90,-87,-262
82296,11.738,-4.153,4.632,-0.008199,-0.275848,2.638115,100256.05,-87,-94,-263
82306,10.277,-0.466,4.388,0.117379,-0.350876,2.162409,100256.05,-83,-99,-264
82316,7.511,2.750,2.074,0.124296,-0.459426,1.552079,100263.12,-83,-99,-264
82326,3.565,3.196,2.459,0.020002,-0.376417,1.166299,100261.12,-80,-102,-265
82336,-0.034,-1.125,1.285,0.424938,-0.365775,0.977932,100257.98,-78,-105,-265
82347,-0.768,-5.216,2.688,0.875635,-0.077371,0.766153,100260.13,-74,-109,-265
82356,1.660,-6.351,4.345,0.753782,0.011491,0.326098,100260.13,-74,-109,-265
82366,3.659,-5.219,4.174,0.284461,-0.188582,-0.202287,100260.63,-76,-110,-264
82376,3.837,-2.752,2.226,-0.235410,-0.453573,-0.764727,100257.49,-76,-107,-266
82386,3.149,-0.837,0.480,-0.671740,-0.551481,-1.199461,100257.65,-76,-103,-268
82396,2.594,0.269,-0.458,-0.932474,-0.495609,-1.454341,100257.02,-76,-103,-268
82406,2.567,0.940,-0.804,-0.831905,-0.406747,-1.590561,100257.02,-76,-97,-270
82416,2.822,1.064,-0.461,-0.412603,-0.428032,-1.790103,100256.70,-78,-91,-273
82426,3.247,0.716,0.099,-0.032676,-0.507316,-2.083827,100259.26,-79,-85,-274
82436,3.292,-0.062,1.332,0.236039,-0.510509,-2.404157,100256.80,-79,-85,-274
82446,3.626,-0.982,1.771,0.645764,-0.533389,-2.696285,100252.41,-80,-79,-274
82456,4.315,-1.222,2.072,0.991103,-0.447720,-2.966065,100252.41,-81,-75,-276
82466,4.819,-1.079,2.927,1.148075,-0.314160,-3.183698,100258.90,-83,-69,-275
82477,5.096,-0.912,3.133,1.144882,-0.240729,-3.431129,100251.41,-87,-63,-275
82486,5.924,-0.367,2.870,1.030479,-0.176876,-3.814248,100252.04,-87,-63,-275
82496,7.103,0.288,2.372,0.966626,-0.133243,-4.162248,100249.63,-89,-54,-276
82506,8.338,0.629,1.743,1.103378,-0.075243,-4.399569,100249.63,-92,-44,-275
82516,9.100,-0.502,1.339,1.370497,-0.058747,-4.490560,100257.36,-94,-37,-275
82526,9.738,-2.086,1.315,1.572167,-0.042784,-4.583147,100256.20,-94,-37,-275
82536,10.153,-3.819,1.764,1.613139,-0.051830,-4.652321,100255.73,-95,-29,-276
82546,10.667,-4.473,2.226,1.533855,-0.121536,-4.713514,100256.05,-97,-19,-275
82556,11.333,-4.121,2.156,1.434350,-0.207206,-4.848137,100256.05,-97,-9,-275
82567,12.042,-4.296,2.647,1.384864,-0.263610,-4.987550,100259.68,-97,-9,-275
82576,12.858,-5.649,3.682,1.280570,-0.312032,-5.102486,100254.49,-96,+1,-277
82586,13.435,-6.522,4.638,1.058681,-0.308839,-5.278082,100258.32,-94,+13,-278
82596,13.960,-6.088,5.209,0.894791,-0.210399,-5.509550,100257.95,-92,+24,-279
82607,14.548,-5.112,5.293,0.859140,-0.076307,-5.706963,100257.95,-92,+24,-279
82616,15.043,-4.848,5.609,1.036864,0.046078,-5.780394,100257.15,-89,+38,-279
82626,15.035,-7.607,5.952,1.590790,0.090243,-5.615972,100258.20,-85,+49,-279
82636,13.853,-12.817,6.523,2.144185,0.115785,-5.198798,100254.12,-82,+57,-280
82647,13.747,-17.787,6.646,2.296900,0.170592,-4.688505,100254.37,-82,+57,-280
82656,14.910,-19.663,5.523,1.982955,0.065766,-4.455441,100254.37,-78,+62,-282
82666,14.423,-17.476,3.712,1.192240,-0.015114,-4.335184,100260.70,-74,+70,-284
82676,11.200,-14.566,3.233,0.288718,0.025858,-4.005807,100261.28,-70,+79,-284
82686,7.908,-15.328,5.435,-0.065135,0.212629,-3.526909,100259.66,-70,+79,-284
82696,5.664,-16.263,7.430,-0.376419,0.439307,-2.817075,100258.77,-67,+88,-284
82706,4.709,-17.436,8.511,-0.803703,0.668647,-2.005607,100258.77,-65,+95,-281
82716,4.796,-17.198,6.907,-1.151171,0.744206,-1.159020,100263.52,-66,+100,-279
82726,7.293,-16.105,5.565,-1.441171,0.828812,-0.267204,100261.65,-66,+100,-279
82737,7.657,-15.877,3.517,-1.470437,0.743674,0.573529,100259.02,-67,+103,-275
82746,8.133,-15.990,1.835,-1.424676,0.561161,1.545694,100260.38,-70,+103,-272
82756,12.769,-11.830,-0.291,-1.498107,0.186555,2.383234,100260.38,-73,+101,-270
82766,24.777,7.915,-1.275,-1.545997,-0.757940,2.437509,100259.46,-73,+101,-270
82777,28.478,27.277,-11.559,-1.199061,-0.963334,1.139694,100263.76,-72,+101,-272
82786,19.626,9.070,-6.182,-0.139098,0.138665,1.727143,100264.07,-74,+99,-270
82796,12.761,-13.566,8.085,2.548056,-0.114087,3.334646,100263.34,-78,+85,-274
82806,11.409,-21.699,7.435,3.148808,-0.189646,3.604426,100263.34,-78,+85,-274
82817,12.321,-12.810,1.636,1.250240,0.442500,3.081362,100259.98,-81,+70,-276
82827,10.175,0.906,2.554,0.766552,0.826151,2.818500,100259.76,-85,+61,-274
82836,2.329,4.115,7.185,2.126093,0.454206,2.469436,100256.77,-89,+49,-274
82846,-2.487,-0.590,10.763,2.828478,0.035968,2.035234,100259.55,-89,+49,-274
82856,3.665,-10.250,5.271,1.752552,-0.185389,2.029381,100259.55,-88,+38,-274
82867,11.945,-17.274,-0.119,-0.269465,0.054592,2.025656,100257.84,-89,+31,-274
82876,15.067,-14.130,0.151,-1.965299,0.446225,1.706923,100261.98,-91,+32,-273
82886,13.192,-5.063,2.462,-2.939592,0.771344,1.300923,100259.58,-91,+32,-273
82896,8.513,-0.992,2.958,-3.019941,0.681949,1.014116,100261.88,-92,+36,-270
82907,6.865,-1.242,2.005,-2.188253,0.485069,0.906098,100261.88,-95,+40,-268
82917,8.083,1.012,1.398,-1.121373,0.439307,0.841712,100262.66,-96,+40,-266
82926,9.280,2.291,2.494,0.107801,0.514335,0.859272,100264.07,-96,+40,-266
82936,9.523,0.224,4.046,1.034204,0.485601,0.968886,100259.73,-97,+37,-265
82947,9.082,-2.342,4.290,1.266203,0.354702,1.009859,100260.04,-99,+31,-264
82956,8.715,-5.024,3.880,0.929378,0.334482,0.951859,100260.04,-101,+26,-264
82966,8.944,-6.002,4.149,0.372791,0.393546,0.808721,100264.83,-102,+23,-263
82976,9.114,-5.784,4.655,-0.323740,0.427069,0.622483,100262.64,-102,+23,-263
82987,8.557,-5.200,5.311,-1.055923,0.465913,0.434648,100262.89,-102,+24,-262
82997,8.391,-3.176,5.345,-1.636987,0.489326,0.251070,100262.33,-103,+27,-259
83006,8.655,-0.824,4.703,-1.848235,0.514867,0.160612,100262.33,-104,+31,-258
83016,8.987,0.202,3.465,-1.605593,0.469638,0.195199,100261.13,-104,+31,-258
83026,9.466,0.327,2.159,-1.063905,0.387161,0.330355,100261.76,-105,+33,-257
83037,9.955,-0.602,2.090,-0.446126,0.294041,0.494777,100260.35,-106,+33,-256
83042,9.888,-1.752,2.868,-0.085355,0.226463,0.588428,100259.93,-106,+33,-256
83051,9.296,-2.819,3.835,0.010957,0.186023,0.636318,100259.93,-107,+30,-256
83061,8.404,-3.575,5.013,-0.211997,0.194005,0.637382,100259.93,-108,+29,-255
83072,8.336,-3.404,5.480,-0.663226,0.242959,0.574061,100261.90,-108,+29,-255
83082,8.882,-2.577,4.993,-1.037832,0.274885,0.494777,100260.70,-108,+30,-254
83092,9.049,-1.892,4.497,-1.187355,0.286060,0.475621,100262.05,-108,+31,-254
83101,8.834,-1.520,4.321,-1.165006,0.294041,0.517125,100262.05,-109,+32,-252
83111,8.821,-1.487,4.026,-1.061777,0.295638,0.590557,100262.48,-109,+32,-252
83122,8.995,-2.007,3.386,-0.937795,0.260519,0.679419,100262.48,-111,+32,-250
83131,9.090,-2.631,2.777,-0.757410,0.168996,0.779988,100260.54,-111,+32,-250
83141,9.083,-2.961,2.254,-0.691428,0.146115,0.879492,100259.76,-111,+30,-250
83151,9.179,-3.683,2.462,-0.702603,0.178041,0.945474,100258.76,-111,+30,-250
83162,9.080,-3.913,2.678,-0.749428,0.207308,0.984318,100258.76,-113,+29,-249
83172,9.143,-4.119,2.777,-0.794125,0.216885,1.005070,100261.51,-114,+27,-248
83182,9.157,-4.439,2.947,-0.838291,0.237638,1.004006,100261.46,-114,+27,-247
83191,9.156,-4.469,3.247,-0.932474,0.266904,0.996556,100260.21,-115,+25,-247
83202,9.126,-4.231,3.549,-1.065501,0.305216,0.996024,100259.34,-115,+25,-247
83212,9.273,-3.929,3.513,-1.198529,0.349913,1.017308,100264.48,-116,+25,-245
83222,9.394,-3.682,3.490,-1.313997,0.415362,1.056685,100261.18,-116,+24,-243
83231,9.675,-3.800,3.128,-1.412437,0.423876,1.110960,100259.34,-118,+23,-242
83241,10.283,-3.331,2.888,-1.457666,0.365876,1.181730,100259.34,-118,+23,-242
83252,10.870,-2.850,3.116,-1.412969,0.208372,1.294538,100262.63,-118,+23,-240
83261,11.060,-2.439,3.252,-1.219813,0.017344,1.442464,100262.63,-120,+21,-240
83271,11.028,-2.458,3.435,-0.998988,-0.168362,1.646794,100260.99,-119,+17,-241
83277,11.208,-2.664,3.450,-0.871813,-0.284362,1.799510,100258.96,-119,+17,-241
83287,11.697,-2.907,3.495,-0.829245,-0.354068,1.936262,100259.59,-118,+13,-242
83297,12.660,-3.125,3.508,-0.851061,-0.467408,2.099620,100259.43,-118,+13,-242
83306,13.456,-2.992,3.457,-0.857979,-0.573830,2.257656,100259.43,-118,+8,-242
83316,14.051,-3.398,3.274,-0.867024,-0.664820,2.432720,100260.77,-116,+3,-244
83326,14.783,-4.035,3.379,-1.009098,-0.723885,2.588096,100264.38,-114,-1,-246
83337,15.810,-4.093,3.506,-1.307611,-0.756875,2.690794,100263.34,-114,-1,-246
83347,17.515,-2.673,3.899,-1.779061,-0.683976,2.737087,100258.26,-113,-6,-247
83356,19.708,0.576,4.459,-2.254767,-0.633426,2.780188,100258.26,-109,-9,-250
83366,21.147,4.066,5.040,-2.361721,-0.625976,2.911619,100259.04,-108,-13,-252
83377,22.441,5.404,5.371,-2.061079,-0.625976,3.139362,100263.02,-108,-13,-252
83387,22.866,5.240,5.618,-1.738088,-0.569041,3.306445,100260.71,-106,-17,-254
83396,20.935,3.518,6.404,-1.470437,-0.480710,3.318151,100255.12,-104,-23,-255
83406,17.409,-0.872,7.023,-1.162878,-0.455169,3.322408,100255.12,-100,-29,-257
83417,15.397,-8.596,8.190,-0.579685,-0.625444,3.555472,100263.37,-100,-29,-257
83427,17.138,-12.772,8.264,-0.274254,-0.834031,3.784279,100258.82,-96,-38,-257
83436,17.620,-8.535,9.671,-0.358860,-0.865426,3.581545,100260.45,-92,-46,-260
83446,15.972,-2.159,9.988,0.007764,-0.930343,3.321876,100258.40,-86,-55,-262
83457,14.556,3.102,8.466,0.606387,-1.219811,2.848830,100258.40,-80,-61,-264
83467,11.580,5.634,4.358,1.191708,-1.522049,2.248078,100258.33,-80,-61,-264
83477,5.057,3.532,4.459,1.558864,-1.389022,1.886244,100259.78,-74,-70,-265
83486,-1.102,-3.786,5.408,2.337340,-0.970783,1.713308,100255.92,-69,-78,-265
83496,-0.845,-7.012,9.391,2.789102,-0.428032,1.236006,100255.03,-66,-86,-262
83507,3.211,-6.893,8.579,2.158019,-0.767518,0.430924,100255.03,-66,-86,-262
83517,3.783,-5.189,4.563,1.017708,-1.223536,-0.343296,100258.01,-63,-89,-264
83526,2.940,-2.289,0.534,-0.528071,-1.154361,-0.975443,100261.35,-60,-85,-266
83536,2.416,-0.412,-1.051,-1.796088,-0.934068,-1.409644,100261.82,-59,-76,-270
83547,2.083,1.837,-1.415,-2.389390,-0.818600,-1.853956,100258.05,-59,-76,-270
83557,1.492,3.148,-0.468,-2.205813,-0.659499,-2.208873,100258.05,-57,-66,-275
83567,1.370,3.922,0.609,-1.357630,-0.599371,-2.579221,100259.44,-57,-56,-276
83576,1.387,3.849,1.542,-0.411539,-0.555738,-2.938396,100256.41,-55,-48,-278
83587,1.657,2.446,2.609,0.415892,-0.463683,-3.221478,100252.06,-55,-48,-278
83597,2.076,0.653,3.548,0.961305,-0.326399,-3.433258,100255.05,-55,-42,-278
83607,2.554,-1.357,3.795,1.131580,-0.176344,-3.640780,100255.05,-55,-37,-277
83616,3.637,-3.141,3.796,0.939488,0.038629,-3.889276,100254.06,-55,-31,-277
83627,3.993,-2.574,3.348,0.421745,0.256262,-4.242064,100254.06,-55,-31,-277
83637,3.910,0.272,3.251,0.061507,0.424940,-4.689569,100254.31,-55,-21,-276
83647,4.943,2.348,2.893,0.323837,0.466445,-5.004045,100253.69,-56,-11,-274
83656,6.776,2.583,3.131,0.907029,0.548922,-5.175917,100253.69,-56,-4,-274
83666,8.937,1.355,3.287,1.473726,0.590959,-5.330229,100251.91,-56,-4,-274
83677,10.748,-0.928,2.676,1.919102,0.626078,-5.493587,100254.83,-55,+3,-272
83687,11.651,-2.834,2.239,2.307542,0.723454,-5.538816,100253.05,-54,+8,-272
83696,11.493,-4.789,1.636,2.798680,0.802738,-5.509550,100254.73,-54,+10,-270
83706,11.944,-6.983,1.771,3.029615,0.862335,-5.506357,100254.73,-54,+10,-270
83717,14.431,-9.263,3.711,2.702368,0.729839,-5.555311,100256.56,-55,+13,-269
83727,17.241,-11.472,5.405,1.983487,0.379711,-5.754320,100255.89,-54,+17,-269
83737,18.391,-11.087,5.496,1.441268,0.152500,-6.091678,100253.53,-52,+25,-270
83746,18.365,-9.492,6.222,1.568974,0.268500,-6.342302,100256.36,-52,+25,-270
83757,17.962,-11.110,7.739,2.012221,0.454206,-6.347091,100256.36,-52,+33,-270
83767,16.636,-13.586,7.381,2.020203,0.353106,-6.198632,100258.76,-50,+39,-270
83777,15.183,-14.447,6.405,1.861102,0.306812,-5.843715,100258.49,-50,+46,-271
83786,15.821,-17.258,4.885,1.880258,0.439307,-5.249880,100259.96,-50,+46,-271
83796,15.729,-19.318,3.469,1.714772,0.528702,-4.617202,100260.43,-50,+50,-272
83807,13.337,-22.597,5.351,1.695616,0.614371,-3.944615,100260.43,-50,+54,-272
83817,7.361,-25.955,7.201,1.323139,0.495711,-3.194340,100261.53,-50,+56,-273
83827,1.952,-28.760,6.668,0.300424,0.443564,-2.104579,100261.11,-50,+56,-273
83836,0.783,-28.316,3.760,-1.010162,0.571271,-0.789736,100262.94,-50,+60,-272
83847,5.653,-24.461,4.162,-1.641776,0.766555,0.590557,100262.31,-54,+63,-270
83857,10.226,-19.310,3.950,-1.450217,0.544665,1.642537,100262.31,-56,+63,-268
83867,10.528,-14.602,3.336,-0.971850,0.180702,2.730702,100258.95,-56,+63,-268
83876,17.276,0.160,1.787,-0.715373,-0.440270,3.187252,100256.81,-59,+58,-267
83887,25.852,25.555,-7.550,-1.268235,-1.099554,2.102280,100258.95,-58,+53,-269
83897,23.662,27.482,-16.085,-1.551318,-0.286490,1.069987,100262.47,-59,+54,-270
83907,19.897,-2.394,-4.395,0.407910,0.187619,2.943546,100262.47,-59,+54,-270
83916,16.183,-21.157,12.611,3.184991,-0.010325,4.114187,100260.96,-61,+44,-269
83927,9.106,-23.467,9.404,2.630533,0.047142,3.648059,100259.23,-64,+27,-270
83937,9.310,-8.664,2.967,1.472130,0.746335,3.187252,100261.27,-67,+17,-269
83947,8.936,0.020,2.647,2.073946,0.936298,3.291545,100260.16,-68,+3,-267
83956,0.698,-5.185,9.860,2.850826,0.519124,2.696115,100260.16,-68,+3,-267
83966,0.863,-10.370,7.385,2.260717,-0.188050,2.249675,100261.02,-70,-8,-265
83977,9.128,-14.532,1.594,0.220076,-0.061940,2.204977,100260.30,-71,-14,-266
83987,12.982,-14.047,2.037,-1.627409,0.452078,1.810152,100258.10,-69,-14,-265
83997,12.743,-6.610,4.035,-2.385134,0.553179,1.358923,100261.87,-69,-14,-265
84006,9.705,-1.686,3.925,-2.609684,0.431858,1.209932,100261.87,-70,-10,-264
84017,7.776,-0.980,1.580,-2.456436,0.441436,1.126391,100258.09,-72,-7,-265
84027,7.048,-1.739,1.856,-1.944015,0.582977,1.042850,100260.50,-73,-5,-264
84037,8.423,-0.287,2.716,-1.130951,0.564353,0.959841,100259.45,-73,-5,-264
84046,9.800,-0.028,2.960,-0.079502,0.461656,0.914611,100259.77,-73,-6,-262
84057,9.999,-2.269,3.403,0.743140,0.339803,0.930043,100259.77,-75,-10,-262
84067,8.725,-3.793,3.344,0.917140,0.289252,0.886942,100261.02,-74,-15,-260
84077,7.865,-4.562,3.556,0.615965,0.383968,0.791162,100261.08,-74,-15,-260
84087,8.090,-4.832,4.599,0.045012,0.499968,0.663988,100259.34,-76,-16,-259
84097,8.351,-5.044,5.490,-0.620658,0.522317,0.497437,100258.36,-77,-17,-259
84107,8.071,-5.061,5.917,-1.337410,0.534023,0.330887,100258.36,-78,-14,-257
84117,8.214,-3.825,5.672,-2.033941,0.590959,0.181896,100265.11,-78,-14,-257
84127,8.858,-1.088,5.012,-2.381409,0.614371,0.128685,100260.67,-80,-10,-257
84136,9.384,0.920,4.537,-2.137171,0.550518,0.201584,100260.03,-81,-5,-256
84147,9.809,1.511,3.856,-1.423611,0.394610,0.348979,100257.58,-81,-3,-256
84157,9.809,0.531,3.328,-0.589795,0.205711,0.517657,100257.58,-81,-3,-256
84167,9.079,-1.625,3.186,0.041819,0.048207,0.666648,100259.27,-81,-3,-255
84176,8.575,-3.653,3.475,0.267966,-0.029481,0.744336,100260.32,-81,-6,-255
84187,8.521,-4.690,3.875,0.040755,0.004574,0.740079,100262.35,-80,-8,-255
84197,8.452,-4.747,4.427,-0.480181,0.125895,0.671437,100263.15,-80,-8,-255
84207,8.703,-3.788,4.604,-1.055923,0.239234,0.604391,100263.15,-81,-9,-255
84217,9.109,-2.424,4.154,-1.408712,0.279142,0.603859,100262.59,-82,-8,-255
84227,9.120,-1.091,3.912,-1.380510,0.303619,0.684208,100261.23,-82,-6,-255
84237,9.025,-0.714,3.000,-1.105410,0.255730,0.817235,100259.13,-82,-6,-255
84247,9.133,-1.873,2.500,-0.728144,0.216353,0.952391,100259.60,-83,-7,-254
84257,9.528,-3.876,2.005,-0.500401,0.179638,1.067327,100259.60,-83,-7,-255
84267,9.530,-5.306,1.992,-0.528071,0.191876,1.118409,100263.61,-83,-9,-253
84277,9.550,-5.365,2.514,-0.747832,0.241895,1.112556,100264.08,-83,-9,-253
84287,9.785,-4.420,3.388,-0.965997,0.279674,1.114685,100260.31,-85,-9,-254
84297,9.778,-3.009,3.742,-1.034639,0.273289,1.169492,100259.06,-85,-10,-252
84306,9.756,-2.281,3.755,-0.975575,0.219546,1.297730,100259.06,-85,-13,-252
84317,10.169,-2.208,3.853,-0.888841,0.108867,1.472794,100262.64,-85,-13,-252
84327,10.717,-2.145,3.975,-0.819135,-0.042252,1.647859,100261.17,-84,-14,-252
84337,11.810,-2.595,4.664,-0.760070,-0.171023,1.823987,100259.77,-84,-16,-253
84346,12.390,-3.039,4.796,-0.785612,-0.316821,1.996923,100259.23,-82,-21,-254
84357,13.025,-3.297,4.653,-0.782419,-0.342894,2.115051,100259.23,-82,-21,-254
84367,13.500,-4.595,3.887,-0.913318,-0.380674,2.289583,100262.44,-81,-23,-254
84377,13.829,-4.765,3.370,-1.192676,-0.428564,2.457197,100260.30,-80,-27,-255
84387,14.543,-3.759,3.652,-1.436382,-0.497738,2.585436,100258.98,-78,-29,-257
84397,15.970,-3.282,4.350,-1.573134,-0.627041,2.695050,100259.63,-78,-29,-257
84407,18.475,-2.744,4.544,-1.713079,-0.678123,2.815839,100259.63,-75,-33,-259
84417,21.596,-0.942,4.491,-2.040327,-0.647793,2.903637,100260.91,-73,-35,-262
84427,23.965,2.321,4.885,-2.371299,-0.649921,3.004738,100259.60,-70,-37,-265
84436,24.354,5.131,4.680,-2.385134,-0.678123,3.191509,100259.60,-67,-39,-267
84447,24.105,6.238,4.982,-2.125464,-0.653114,3.395839,100260.02,-67,-39,-267
84457,22.482,6.020,6.470,-1.757776,-0.612141,3.446389,100260.02,-64,-42,-269
84467,18.065,1.305,9.925,-1.221942,-0.675995,3.539509,100257.18,-60,-47,-271
84477,14.296,-7.679,10.338,-0.544566,-0.805297,3.705527,100259.74,-57,-56,-273
84487,14.983,-12.982,8.625,-0.219979,-0.654710,3.766187,100256.49,-57,-56,-273
84497,17.178,-9.908,8.304,-0.122071,-0.478582,3.637949,100259.52,-52,-63,-274
84507,16.352,-4.097,8.190,-0.093337,-0.472197,3.302188,100259.52,-50,-70,-274
84517,15.072,2.877,7.446,0.237103,-0.703664,2.673766,100260.63,-45,-76,-275
84527,10.828,7.626,3.924,0.557433,-1.202251,1.893161,100256.91,-45,-76,-275
84537,3.109,7.178,2.402,0.792094,-1.139462,1.458960,100260.11,-42,-80,-277
84547,-3.507,-0.831,4.283,1.597708,-0.603628,1.597308,100258.95,-38,-87,-275
84557,-3.089,-7.109,7.143,2.076607,0.380243,1.503657,100258.95,-39,-95,-274
84568,2.792,-10.004,8.997,1.476387,0.385032,0.871510,100262.18,-39,-95,-274
84573,4.758,-8.353,6.253,0.641507,-0.276912,0.095694,100255.85,-40,-99,-272
84582,3.611,-4.758,1.870,-0.492419,-0.640343,-0.624250,100255.85,-40,-99,-272
84592,2.944,-0.433,-0.707,-2.040327,-0.507316,-1.124965,100259.20,-40,-95,-275
84602,2.471,2.649,-2.124,-2.846473,-0.390252,-1.378250,100256.79,-40,-86,-280
84613,1.886,3.669,-2.496,-2.877867,-0.283830,-1.644305,100256.79,-42,-76,-285
84622,1.669,4.199,-1.427,-2.392583,-0.091738,-1.986983,100260.07,-44,-76,-287
84632,1.809,4.801,0.056,-1.449153,-0.042252,-2.322212,100258.05,-44,-67,-287
84642,2.146,4.404,0.689,-0.272126,-0.130582,-2.665423,100255.80,-47,-60,-289
84652,2.658,2.567,1.733,0.777195,-0.131114,-2.945313,100255.80,-49,-56,-290
84662,3.001,0.489,2.593,1.398167,-0.044380,-3.135276,100255.80,-52,-56,-290
84672,3.051,-1.960,3.292,1.489157,0.100886,-3.291716,100257.06,-52,-54,-290
84682,2.906,-2.843,3.253,1.331121,0.196133,-3.605129,100256.86,-55,-50,-289
84692,3.399,-1.434,2.884,1.120937,0.259986,-4.037202,100254.41,-60,-46,-290
84702,5.099,0.587,2.347,1.139029,0.277546,-4.416064,100252.98,-63,-39,-289
84712,7.007,1.183,1.909,1.551414,0.257858,-4.665092,100252.98,-63,-39,-289
84722,7.793,0.463,2.168,2.184093,0.226996,-4.897624,100252.41,-66,-33,-288
84732,8.409,-0.429,2.613,2.568276,0.204115,-5.148779,100253.05,-70,-29,-288
84743,9.226,-1.577,2.815,2.694386,0.184959,-5.389825,100254.41,-73,-24,-287
84752,9.887,-2.866,2.781,2.726845,0.169528,-5.567018,100254.41,-73,-24,-287
84762,10.769,-4.163,2.340,2.855083,0.157821,-5.704302,100256.09,-76,-19,-286
84772,12.050,-4.872,2.231,3.033872,0.134941,-5.839458,100256.09,-78,-13,-287
84783,14.498,-5.550,2.685,3.115285,0.068427,-5.934706,100255.84,-80,-7,-286
84792,17.471,-7.231,3.787,3.025890,-0.077903,-5.994302,100258.56,-80,-7,-286
84802,19.794,-10.943,5.789,2.807725,-0.183793,-5.988449,100253.75,-80,+0,-285
84807,20.339,-13.807,6.938,2.500698,-0.315224,-6.043788,100253.75,-80,+0,-285
84817,19.614,-15.325,7.571,2.148441,-0.379077,-6.145421,100259.51,-80,+7,-286
84827,18.552,-16.724,8.382,1.878130,-0.293408,-6.094871,100259.82,-79,+17,-289
84837,16.711,-19.170,8.699,1.835561,-0.183261,-5.820834,100254.38,-78,+27,-290
84847,14.701,-22.263,8.699,1.739249,-0.031078,-5.323311,100256.85,-78,+27,-290
84857,11.834,-22.012,7.010,1.309837,0.162078,-4.675202,100256.85,-76,+34,-290
84868,9.434,-23.708,8.002,1.061341,0.481876,-3.758377,100263.09,-75,+41,-290
84877,5.842,-28.581,7.106,0.637782,0.560628,-2.710653,100257.23,-76,+44,-290
84887,2.644,-31.712,5.657,-0.295539,0.549986,-1.561827,100257.91,-76,+44,-290
84897,2.126,-31.226,4.345,-1.267171,0.596280,-0.268269,100263.67,-78,+50,-287
84908,4.044,-27.877,4.059,-1.780657,0.585638,1.109896,100263.67,-78,+52,-285
84917,9.784,-22.087,1.583,-1.906767,0.348849,2.317785,100257.59,-82,+52,-285
84927,25.606,2.572,-3.430,-2.379281,-0.417389,2.836060,100259.27,-81,+52,-285
84937,35.292,34.914,-13.669,-3.123170,-0.707389,1.209932,100263.52,-81,+52,-285
84947,22.201,14.391,-2.262,-2.204216,0.686206,1.130648,100260.63,-82,+58,-283
84957,12.542,-8.095,17.543,2.063304,0.358427,3.402224,100260.63,-85,+46,-283
84967,9.243,-22.737,10.479,4.982990,-0.197096,4.431857,100262.13,-87,+21,-284
84977,14.788,-18.531,0.906,3.088147,0.151436,4.518590,100261.13,-87,+21,-284
84987,6.455,-1.604,-3.414,2.215487,0.279142,3.670408,100260.92,-88,+5,-282
84998,-4.254,2.252,12.180,3.032276,0.813913,2.682280,100259.30,-90,-8,-280
85007,-4.167,-8.949,13.183,2.811450,0.058849,2.667381,100259.30,-90,-21,-279
85017,7.998,-24.469,0.925,-0.211465,-0.088013,2.731766,100260.08,-90,-21,-279
85027,14.896,-19.479,-1.059,-3.049207,0.594151,1.550483,100265.16,-90,-23,-279
85038,15.763,-5.074,2.165,-4.168233,1.119344,0.885877,100261.39,-92,-14,-279
85043,12.172,1.006,5.114,-4.226233,1.220445,0.957712,100258.88,-92,-14,-279
85052,9.190,1.641,3.966,-3.322179,1.013454,0.869914,100258.88,-93,-6,-278
85062,7.694,1.908,2.438,-2.166969,0.849564,0.806061,100258.88,-95,-4,-275
85072,7.438,2.693,4.084,-1.023997,0.700573,0.967290,100259.13,-95,-4,-275
85083,8.977,0.473,2.487,0.356828,0.342463,0.998685,100259.49,-97,-5,-274
85093,11.288,-3.333,1.860,1.270460,0.126427,1.165235,100255.91,-97,-9,-274
85102,9.765,-5.868,3.639,1.529066,0.073748,1.238134,100255.91,-98,-18,-272
85112,7.835,-8.859,6.967,0.513800,0.233913,1.032740,100262.39,-98,-18,-272
85123,7.847,-7.684,8.069,-1.073483,0.327032,0.551712,100262.39,-98,-21,-272
85132,8.649,-3.497,6.126,-2.015317,0.461656,0.196263,100256.94,-99,-17,-271
85142,8.822,-1.414,4.928,-2.161648,0.580316,0.030777,100260.92,-100,-12,-269
85152,8.673,0.309,2.676,-1.966895,0.518592,0.055786,100262.28,-101,-7,-270
85163,10.151,0.778,1.392,-1.390621,0.398867,0.293639,100262.28,-101,-7,-270
85173,10.762,-1.212,1.592,-0.627043,0.248280,0.513401,100261.23,-101,-7,-269
85182,10.085,-4.034,2.456,-0.291282,0.171124,0.635786,100261.55,-102,-8,-269
85192,9.054,-5.170,3.572,-0.569575,0.206243,0.662391,100260.34,-102,-8,-268
85202,8.511,-3.884,4.472,-0.993667,0.281271,0.597474,100262.88,-102,-8,-268
85213,8.156,-2.729,4.786,-1.185226,0.297766,0.555437,100261.94,-102,-7,-267
85223,7.673,-2.269,4.673,-1.227795,0.280739,0.578850,100258.22,-103,-6,-267
85232,7.594,-2.033,4.526,-1.238969,0.282335,0.632061,100260.58,-104,-5,-266
85242,8.048,-2.301,4.124,-1.250144,0.282335,0.709217,100260.58,-104,-5,-266
85253,8.722,-2.852,3.631,-1.233648,0.271693,0.780520,100261.67,-104,-3,-266
85262,8.995,-3.406,3.000,-1.223006,0.241363,0.825217,100261.67,-105,-4,-265
85272,9.001,-3.686,2.808,-1.242694,0.241363,0.855547,100263.40,-104,-1,-265
85278,8.895,-3.861,2.600,-1.271960,0.211564,0.872575,100261.04,-104,-1,-265
85287,8.922,-3.673,2.617,-1.273556,0.174317,0.889070,100261.57,-104,-1,-265
85298,8.862,-3.379,2.578,-1.220878,0.134408,0.907694,100259.99,-104,-1,-265
85307,8.789,-3.264,2.712,-1.120309,0.096097,0.938556,100259.99,-106,-2,-265
85317,8.840,-3.476,2.947,-1.002180,0.013620,0.984850,100260.45,-106,-2,-265
85327,9.089,-3.606,3.207,-0.940456,-0.123133,1.079033,100261.34,-104,-3,-265
85338,9.480,-3.503,3.101,-0.956419,-0.254564,1.172685,100259.98,-104,-3,-265
85348,9.787,-3.549,3.062,-0.965465,-0.278509,1.275914,100260.18,-104,-3,-265
85357,10.214,-3.611,2.727,-0.943648,-0.274784,1.381804,100260.18,-103,-6,-267
85367,10.871,-3.317,2.800,-0.856382,-0.280637,1.478648,100265.02,-102,-8,-267
85378,11.538,-3.135,2.897,-0.761135,-0.317353,1.620189,100260.52,-102,-8,-267
85388,12.532,-3.096,3.044,-0.750492,-0.379610,1.781418,100257.80,-102,-11,-267
85397,13.470,-2.768,2.935,-0.717502,-0.458894,1.942115,100259.63,-99,-14,-269
85407,14.047,-2.613,2.084,-0.666951,-0.533389,2.103877,100259.63,-98,-18,-269
85417,14.673,-2.960,1.531,-0.699942,-0.587664,2.304482,100266.32,-96,-23,-272
85428,15.183,-2.789,1.895,-0.820199,-0.632362,2.493381,100261.13,-96,-23,-272
85437,16.296,-2.775,3.034,-0.998456,-0.605224,2.656739,100258.77,-93,-27,-273
85447,18.225,-2.032,3.713,-1.420951,-0.475921,2.761564,100260.93,-90,-31,-274
85457,20.127,1.005,4.261,-2.048308,-0.358857,2.816371,100260.93,-88,-32,-275
85468,20.868,4.337,4.658,-2.330858,-0.359389,2.918005,100257.30,-88,-32,-275
85478,21.761,6.385,4.981,-2.279244,-0.320013,3.078170,100261.18,-85,-33,-278
85487,21.622,6.475,6.465,-2.080235,-0.242325,3.252169,100257.20,-82,-37,-279
85497,18.721,2.675,7.495,-1.578987,-0.223169,3.343160,100257.66,-80,-42,-280
85508,15.922,-6.038,7.655,-0.830841,-0.387591,3.602830,100257.66,-80,-42,-280
85513,15.634,-13.357,10.508,-0.161979,-0.532325,3.982224,100258.89,-76,-49,-282
85522,18.200,-15.376,11.069,0.099287,-0.647793,4.178041,100258.89,-76,-49,-282
85532,18.784,-9.169,11.184,-0.371098,-0.579683,3.819398,100259.20,-69,-59,-281
85542,16.496,-1.733,9.480,-0.478052,-0.438674,3.392646,100260.20,-65,-67,-282
85553,14.072,2.110,7.058,-0.197098,-0.494545,2.877032,100257.69,-61,-72,-282
85563,11.376,4.570,4.846,0.280736,-0.790398,2.169858,100258.80,-61,-72,-282
85572,5.635,3.925,3.714,0.516461,-0.848398,1.688299,100263.57,-56,-78,-282
85582,-0.152,-2.610,3.401,1.042717,-0.608949,1.639345,100256.82,-52,-83,-282
85593,-1.583,-8.274,7.382,1.501396,-0.110894,1.379675,100256.82,-51,-90,-279
85603,2.053,-8.671,8.117,1.201286,-0.374288,0.404318,100258.60,-51,-90,-279
85612,2.754,-5.851,5.193,0.275415,-0.925022,-0.530599,100258.60,-49,-93,-278
85622,1.830,-2.324,1.872,-0.914914,-0.972912,-1.194672,100260.48,-48,-90,-280
85633,1.417,0.213,-0.268,-2.004675,-0.733463,-1.637387,100262.84,-49,-82,-284
85643,1.116,2.781,-1.947,-2.609684,-0.577022,-2.071057,100259.85,-50,-72,-287
85653,0.725,3.941,-1.329,-2.497409,-0.368435,-2.325405,100257.24,-50,-72,-287
85662,0.746,4.269,-0.031,-1.559299,-0.307775,-2.568579,100257.24,-52,-60,-289
85672,1.162,4.393,0.906,-0.426438,-0.287022,-2.923496,100257.29,-54,-53,-290
85683,1.595,2.895,1.940,0.481874,-0.188050,-3.253405,100257.40,-56,-48,-289
85693,1.839,0.411,2.969,0.991635,-0.029481,-3.501900,100254.99,-56,-48,-289
85702,2.373,-2.140,3.490,0.987910,0.195069,-3.695588,100254.99,-60,-42,-290
85712,3.079,-3.272,3.482,0.556901,0.475491,-3.942487,100254.99,-64,-37,-289
85723,3.358,-1.353,3.358,0.103012,0.717069,-4.359661,100254.62,-68,-27,-288
85733,4.433,1.364,2.954,0.043947,0.850096,-4.741183,100254.88,-68,-27,-288
85742,6.351,2.024,2.401,0.478149,0.932573,-4.915183,100255.41,-73,-15,-287
85748,7.628,1.437,2.205,1.044846,0.988445,-5.027459,100256.98,-73,-15,-287
85757,8.894,0.361,2.579,1.495011,1.071454,-5.149312,100256.98,-78,-5,-285
85768,10.487,-1.113,2.614,1.895689,1.104977,-5.314266,100257.60,-81,+0,-284
85778,11.528,-1.902,1.886,2.195267,1.081564,-5.433990,100259.60,-85,+8,-282
85787,12.089,-2.663,1.138,2.573597,1.076775,-5.447293,100258.71,-85,+8,-282
85797,12.415,-3.603,0.939,3.018441,1.075179,-5.429733,100257.71,-88,+14,-280
85808,14.030,-4.743,1.600,3.219578,1.027821,-5.422284,100257.71,-90,+19,-279
85818,16.727,-6.791,3.052,3.128588,0.845307,-5.421752,100263.18,-92,+26,-277
85827,18.917,-9.897,4.931,2.910423,0.660133,-5.462192,100259.57,-92,+26,-277
85837,19.519,-12.830,6.706,2.604460,0.549986,-5.662265,100255.96,-92,+34,-277
85848,18.675,-14.414,7.534,2.313928,0.503161,-5.900118,100260.62,-92,+42,-277
85858,17.082,-15.497,7.215,2.140460,0.502628,-5.948540,100260.62,-90,+52,-277
85868,15.514,-16.616,6.361,1.957946,0.496243,-5.817109,100260.18,-90,+52,-277
85877,14.440,-18.630,4.998,1.780754,0.542537,-5.429201,100258.35,-88,+63,-276
85888,13.941,-20.648,3.411,1.395506,0.663858,-4.832174,100263.07,-86,+72,-278
85898,12.733,-20.825,3.303,0.776663,0.734628,-4.155331,100255.01,-84,+81,-276
85908,10.181,-23.251,5.437,0.659066,0.772408,-3.307148,100255.01,-81,+87,-275
85917,6.398,-26.684,6.414,0.480809,0.662793,-2.391919,100265.76,-81,+87,-275
85927,3.620,-27.704,4.057,-0.281704,0.496243,-1.370800,100269.21,-82,+92,-274
85938,3.581,-24.998,1.976,-1.017079,0.520720,-0.078838,100263.04,-83,+95,-272
85948,7.752,-20.856,3.477,-1.104346,0.613307,1.225896,100263.71,-87,+94,-269
85957,9.370,-16.001,0.835,-0.697281,0.280207,2.173583,100263.71,-87,+94,-269
85967,12.216,-8.893,0.669,-0.298199,-0.188050,3.181399,100264.98,-91,+88,-269
85978,20.306,12.617,-0.063,0.037562,-0.814875,3.013252,100267.23,-92,+79,-270
85988,26.820,34.544,-8.740,-0.263080,-1.010692,1.414794,100264.55,-90,+77,-272
85998,21.719,17.452,-13.366,0.120571,-0.340766,1.533455,100262.82,-90,+77,-272
86007,17.443,-13.012,4.745,2.922129,-0.226362,3.869417,100262.82,-94,+67,-274
86018,12.238,-29.411,11.415,4.579119,-0.299261,4.278077,100264.11,-97,+43,-277
86028,12.007,-19.811,4.610,2.696514,0.197730,3.618793,100266.67,-99,+29,-275
86038,11.240,1.320,2.758,1.780221,0.302023,3.330922,100266.00,-99,+29,-275
86047,0.020,4.660,8.308,2.915212,0.344592,2.861069,100264.06,-100,+15,-274
86057,-5.036,-3.886,11.266,3.390386,0.004574,2.536482,100264.06,-102,+0,-274
86068,4.129,-14.948,3.209,1.738185,-0.404087,2.610445,100268.73,-101,-10,-274
86078,12.589,-20.191,-0.261,-0.863832,0.096629,2.349179,100265.08,-101,-10,-274
86087,15.368,-14.090,1.799,-2.632565,0.702170,1.704262,100265.92,-101,-12,-273
86097,12.143,-4.304,4.169,-3.687738,0.796885,1.266868,100264.50,-102,-7,-272
86104,7.978,-0.909,3.225,-3.847371,0.681949,1.130116,100264.50,-102,-7,-272
86113,6.958,0.394,1.686,-3.278546,0.667582,1.085951,100264.50,-102,-1,-271
86123,7.673,1.226,1.460,-2.238803,0.699509,1.085951,100265.89,-104,+0,-269
86133,8.751,1.976,2.848,-0.947905,0.619160,1.115749,100267.36,-107,+0,-269
86142,9.321,-0.029,4.789,0.374388,0.275950,1.171088,100263.38,-107,+0,-269
86153,9.876,-2.269,4.632,1.176809,-0.237536,1.216318,100263.38,-105,-5,-269
86163,9.061,-4.752,3.049,1.277910,-0.379610,1.193437,100267.70,-105,-13,-269
86173,8.141,-6.459,2.518,0.822956,-0.187518,1.093400,100265.49,-104,-17,-269
86182,8.039,-6.690,3.664,-0.001282,0.013087,0.892795,100265.49,-104,-17,-269
86193,7.981,-5.743,5.407,-0.843080,0.142390,0.641639,100265.55,-104,-18,-269
86203,8.084,-4.447,5.684,-1.542804,0.269032,0.448483,100262.93,-104,-16,-268
86213,8.416,-2.687,4.989,-1.958382,0.377583,0.311731,100262.93,-106,-11,-268
86218,8.588,-1.304,4.044,-1.977538,0.390353,0.254263,100266.02,-106,-11,-268
86227,8.855,-0.215,2.812,-1.683813,0.318518,0.285658,100266.76,-106,-9,-267
86238,9.422,0.391,1.737,-0.991538,0.183363,0.419749,100266.13,-106,-9,-267
86248,10.097,-0.374,1.707,-0.121007,0.024262,0.591089,100263.88,-106,-8,-269
86258,9.715,-2.494,2.271,0.478681,-0.110894,0.738483,100263.88,-107,-11,-268
86267,8.728,-4.388,3.361,0.519121,-0.097591,0.801804,100267.82,-106,-15,-267
86278,8.277,-5.313,4.204,0.040755,0.034904,0.778923,100265.46,-106,-15,-267
86288,8.519,-4.930,4.692,-0.617997,0.204115,0.700171,100265.10,-106,-17,-268
86298,8.743,-3.576,4.689,-1.165006,0.320115,0.657070,100265.68,-106,-15,-267
86307,8.962,-1.903,4.112,-1.410309,0.319051,0.705492,100265.68,-107,-15,-267
86318,9.024,-0.370,3.184,-1.271428,0.219546,0.856079,100265.27,-107,-15,-267
86328,9.054,-0.120,2.369,-0.802107,0.096097,1.058813,100268.08,-107,-14,-267
86338,9.500,-2.382,2.064,-0.243924,0.016457,1.244342,100266.41,-106,-16,-266
86347,9.929,-4.582,1.964,-0.036401,0.021069,1.342428,100264.78,-106,-20,-266
86358,10.370,-6.150,2.255,-0.148144,0.076941,1.371161,100264.78,-106,-20,-266
86368,10.942,-6.419,2.362,-0.458364,0.117913,1.341363,100267.92,-106,-23,-265
86378,10.951,-5.453,2.844,-0.751025,0.148775,1.311033,100266.66,-106,-25,-265
86388,10.741,-4.511,2.948,-0.892034,0.164739,1.323272,100264.36,-104,-27,-266
86397,10.594,-3.947,2.517,-0.915979,0.146115,1.390317,100266.30,-106,-27,-265
86408,10.519,-3.686,2.091,-0.865428,0.107271,1.496739,100266.30,-106,-29,-265
86418,10.647,-3.403,2.332,-0.784015,0.044482,1.629235,100266.87,-105,-31,-265
86428,11.406,-3.381,3.166,-0.726548,-0.017775,1.769712,100267.70,-104,-35,-265
86437,12.280,-3.458,3.696,-0.729740,-0.077371,1.912849,100269.05,-102,-38,-266
86448,12.971,-3.594,3.560,-0.800511,-0.128454,2.046941,100267.96,-102,-38,-266
86458,13.646,-3.806,3.135,-0.928217,-0.158784,2.195931,100267.96,-101,-41,-267
86468,14.433,-3.987,2.897,-1.080933,-0.206142,2.376849,100266.70,-100,-46,-267
86477,15.571,-3.890,3.371,-1.291116,-0.245518,2.535418,100268.99,-98,-49,-269
86488,16.440,-4.092,4.115,-1.524712,-0.218912,2.656739,100266.27,-98,-49,-269
86498,18.166,-4.134,4.556,-1.926455,-0.144417,2.726977,100260.88,-94,-51,-270
86508,20.675,-1.364,5.199,-2.580950,-0.041720,2.715803,100260.88,-92,-53,-273
86518,21.756,3.281,6.538,-3.076344,-0.000747,2.713142,100265.53,-90,-52,-275
86528,21.054,6.285,7.859,-3.063574,-0.003408,2.871179,100264.95,-90,-52,-275
86538,20.273,7.304,9.259,-2.649592,0.052464,3.047839,100268.47,-87,-52,-276
86548,18.915,4.714,10.606,-2.317556,0.181234,3.077637,100267.31,-85,-54,-277
86558,16.053,-2.137,10.005,-1.946143,0.200922,3.140426,100267.31,-83,-58,-279
86567,16.061,-11.472,7.130,-1.426272,-0.108234,3.379876,100264.66,-83,-58,-279
86574,18.263,-14.254,5.703,-1.609318,-0.225830,3.463949,100265.70,-80,-62,-279
86583,18.189,-10.314,8.640,-1.642308,-0.192307,3.297399,100265.70,-80,-62,-279
86593,16.794,-2.101,8.961,-0.926621,-0.435481,3.080830,100266.64,-76,-66,-280
86603,15.154,2.813,5.700,-0.152401,-0.789334,2.723252,100268.42,-71,-72,-282
86612,10.647,5.178,2.666,0.263709,-0.843609,2.185289,100268.42,-67,-77,-284
86623,3.626,2.029,3.468,0.712809,-0.470068,1.877730,100267.77,-64,-77,-282
86633,-1.337,-4.624,5.679,1.388589,-0.157720,1.636152,100269.64,-64,-84,-282
86643,-0.214,-7.083,7.842,1.758405,0.082794,1.085419,100265.36,-63,-91,-279
86652,2.737,-5.785,4.877,1.177341,-0.259885,0.304814,100265.36,-62,-95,-277
86663,3.583,-3.238,1.591,-0.041722,-0.527004,-0.386397,100265.36,-62,-95,-279
86673,3.477,-1.349,-0.399,-1.306015,-0.463151,-0.925424,100266.80,-62,-93,-279
86683,2.764,0.742,-1.567,-1.987116,-0.433353,-1.371864,100262.10,-61,-86,-282
86693,1.943,3.289,-1.947,-1.966363,-0.382270,-1.720396,100268.23,-63,-77,-284
86703,1.505,4.970,-0.945,-1.129355,-0.300325,-2.016781,100263.98,-64,-70,-285
86713,1.654,5.174,0.511,0.146645,-0.267866,-2.399368,100263.98,-64,-70,-285
86723,1.323,3.336,1.956,1.203947,-0.210931,-2.709056,100263.62,-67,-66,-284
86733,1.091,0.458,2.778,1.697212,-0.072050,-2.902212,100261.76,-70,-64,-284
86744,1.451,-1.702,2.976,1.674332,0.130684,-3.148579,100259.96,-74,-61,-281
86753,2.606,-2.449,2.579,1.259286,0.329161,-3.468377,100259.96,-74,-61,-281
86763,3.642,-1.076,2.125,0.779855,0.482940,-3.821698,100263.07,-79,-54,-280
86773,4.852,1.332,1.793,0.527103,0.563821,-4.148413,100263.07,-84,-44,-278
86782,6.298,2.237,1.355,0.698974,0.572335,-4.359128,100262.85,-88,-35,-277
86793,7.100,2.329,0.931,1.340167,0.588830,-4.642211,100262.96,-88,-35,-277
86803,8.054,0.659,1.230,1.907396,0.661197,-4.783752,100262.70,-93,-27,-275
86808,9.129,-1.189,0.910,2.308074,0.640445,-4.756083,100262.70,-93,-27,-275
86818,9.887,-2.632,0.447,2.724716,0.602665,-4.755550,100258.61,-97,-19,-272
86828,10.285,-4.402,0.344,3.168496,0.594683,-4.799716,100260.75,-99,-13,-270
86838,10.978,-6.550,1.354,3.227028,0.557436,-4.866229,100255.58,-103,-9,-270
86848,12.000,-8.805,3.319,2.788037,0.349381,-5.077477,100258.34,-103,-9,-270
86858,12.743,-9.239,3.656,2.015414,0.069491,-5.424412,100258.34,-104,+0,-269
86868,12.755,-8.000,3.844,1.417323,0.022133,-5.755917,100260.08,-105,+11,-270
86878,13.425,-5.956,4.583,1.347616,0.066298,-6.013458,100260.86,-105,+26,-271
86888,15.345,-4.975,5.949,1.608882,0.131216,-6.123073,100258.20,-105,+26,-271
86898,16.823,-6.739,7.199,1.962203,0.167399,-6.108173,100257.98,-102,+39,-270
86908,16.945,-9.704,7.780,2.192075,0.213693,-6.030485,100257.98,-99,+51,-273
86918,17.209,-12.670,7.136,2.147909,0.237106,-5.877238,100262.70,-97,+63,-275
86928,18.394,-15.568,5.994,2.122900,0.278078,-5.557972,100262.54,-92,+72,-275
86938,18.618,-19.044,4.242,2.175579,0.288720,-5.121110,100262.74,-92,+72,-275
86948,15.468,-21.845,3.109,2.030845,0.255730,-4.578890,100261.96,-89,+79,-277
86958,11.151,-26.002,5.024,1.618992,0.352573,-3.816377,100261.96,-86,+86,-279
86968,5.585,-27.628,7.653,0.731965,0.399931,-2.967662,100264.82,-83,+91,-278
86978,2.258,-27.128,7.698,-0.118878,0.469106,-1.818836,100261.68,-83,+91,-278
86988,4.823,-26.318,6.860,-0.587667,0.561693,-0.433223,100263.66,-85,+96,-277
86999,6.302,-25.334,4.776,-0.678658,0.495179,0.986446,100260.16,-87,+95,-274
87008,7.778,-23.016,2.466,-0.391318,0.275950,2.403454,100260.16,-90,+89,-274
87018,16.329,-9.643,-0.444,-0.566382,-0.267866,3.327729,100264.84,-90,+89,-274
87028,29.040,23.630,-4.687,-0.959612,-1.190013,2.617362,100262.38,-92,+82,-275
87038,26.710,32.497,-15.017,-1.185226,-0.511573,1.004538,100265.36,-92,+82,-275
87044,18.156,4.423,-8.603,-0.157722,0.051931,2.044280,100270.48,-92,+82,-275
87053,14.829,-17.240,4.485,2.623616,-0.244986,3.672536,100270.48,-95,+71,-277
87063,12.635,-27.646,8.372,2.891799,-0.064068,4.145582,100270.48,-98,+53,-278
87073,12.472,-13.120,2.147,0.705360,0.705362,3.624646,100267.11,-98,+53,-278
87084,12.505,4.322,4.586,1.635488,0.911289,3.565582,100263.81,-102,+42,-275
87093,0.052,2.833,14.507,3.470734,0.294041,3.109032,100262.28,-105,+25,-274
87103,-6.687,-11.354,10.920,2.968955,-0.409940,2.577986,100262.28,-105,+10,-275
87113,3.043,-17.870,-0.168,-0.007135,-0.086949,2.551381,100265.21,-105,+10,-275
87123,13.610,-13.928,-0.065,-2.756014,0.533491,2.285858,100265.21,-106,+6,-274
87133,16.298,-9.045,1.715,-3.812252,0.668647,1.941051,100266.41,-107,+9,-274
87143,13.104,-3.344,1.769,-3.463720,0.551050,1.504721,100263.16,-108,+13,-272
87153,7.670,0.667,1.077,-2.190382,0.481344,1.184923,100264.43,-109,+13,-270
87163,6.296,2.449,0.862,-0.711116,0.532427,1.193437,100264.43,-109,+14,-270
87174,7.017,-0.099,2.456,0.456332,0.560096,1.344024,100260.47,-110,+10,-269
87183,7.974,-3.221,4.142,1.093800,0.436115,1.410005,100261.67,-113,+3,-268
87193,9.395,-5.380,3.599,1.128387,0.295638,1.307840,100264.13,-113,-2,-267
87203,9.984,-6.169,3.298,0.729837,0.369069,1.138097,100260.55,-113,-2,-267
87214,9.179,-5.707,4.186,0.138131,0.468041,0.951859,100263.73,-113,-5,-265
87224,8.195,-5.282,5.795,-0.549355,0.507950,0.768281,100263.22,-115,-7,-264
87233,7.542,-5.180,6.566,-1.302290,0.532959,0.553841,100266.98,-116,-5,-263
87243,7.864,-3.648,5.652,-1.897189,0.579784,0.318116,100266.98,-116,-5,-263
87254,8.473,-1.183,4.634,-2.108437,0.619693,0.190942,100263.53,-117,-1,-262
87263,9.366,-0.065,3.467,-1.790767,0.549454,0.211694,100263.53,-119,+1,-260
87273,10.123,0.161,2.046,-1.135208,0.406317,0.337804,100263.97,-119,+3,-259
87283,9.793,-0.087,1.979,-0.386529,0.282867,0.529896,100263.81,-119,+3,-259
87293,9.060,-1.611,2.763,0.235507,0.143454,0.687933,100260.94,-119,+0,-259
87304,8.410,-3.663,3.623,0.463782,0.047675,0.770942,100262.30,-120,-2,-259
87313,7.912,-5.062,4.532,0.268498,0.057785,0.774666,100262.30,-120,-4,-259
87323,8.014,-5.595,5.204,-0.179007,0.120574,0.703896,100263.57,-120,-4,-259
87333,8.526,-5.106,4.987,-0.742511,0.214757,0.596942,100263.45,-120,-5,-257
87344,8.719,-4.448,4.702,-1.241098,0.331821,0.512336,100260.73,-122,-4,-257
87353,8.851,-3.176,4.864,-1.486932,0.441968,0.507547,100260.73,-122,-2,-257
87363,9.195,-2.209,3.089,-1.564088,0.410573,0.572465,100260.73,-122,-2,-257
87373,9.441,-1.835,2.465,-1.356565,0.405784,0.700171,100262.41,-123,-1,-254
87384,9.563,-2.495,1.867,-1.043153,0.346188,0.849694,100264.57,-122,-1,-255
87393,9.970,-3.622,1.471,-0.820199,0.302023,0.984318,100265.15,-123,-2,-254
87403,10.221,-4.408,1.937,-0.766456,0.281271,1.075841,100263.93,-123,-2,-254
87413,10.258,-4.558,2.625,-0.802107,0.263179,1.141290,100263.93,-124,-4,-253
87424,10.251,-4.259,2.995,-0.894694,0.184427,1.199822,100266.57,-124,-7,-253
87434,10.140,-3.659,3.342,-0.964933,0.110996,1.283363,100260.98,-125,-8,-252
87443,10.283,-3.045,3.766,-0.998456,0.066298,1.400960,100260.51,-125,-8,-252
87453,10.941,-2.822,4.293,-1.036768,-0.033206,1.529198,100260.51,-124,-10,-253
87463,11.744,-2.632,4.105,-1.054859,-0.200821,1.676060,100264.02,-123,-12,-254
87474,12.450,-2.523,3.937,-0.978768,-0.298729,1.866024,100264.02,-123,-16,-254
87483,13.122,-3.003,3.738,-0.907465,-0.417389,2.047473,100264.29,-123,-16,-254
87493,13.500,-3.485,3.250,-0.905869,-0.517958,2.223069,100261.30,-120,-21,-256
87503,14.010,-3.743,3.069,-0.987813,-0.569573,2.369399,100260.52,-118,-25,-257
87514,15.006,-3.818,3.516,-1.191079,-0.660563,2.533289,100260.52,-116,-31,-260
87524,15.813,-3.902,4.077,-1.424676,-0.711646,2.668977,100265.87,-116,-31,-260
87533,17.661,-3.594,4.263,-1.791831,-0.649921,2.716335,100264.55,-113,-35,-262
87543,20.158,-1.677,4.016,-2.442601,-0.567976,2.805729,100263.82,-110,-37,-264
87554,21.935,2.073,4.185,-2.969390,-0.492417,2.892463,100261.62,-108,-39,-267
87564,23.788,5.914,4.014,-2.985886,-0.517958,3.064867,100262.95,-108,-39,-267
87573,24.201,8.334,4.503,-2.565519,-0.527004,3.268133,100257.98,-104,-39,-270
87583,21.907,7.776,6.059,-1.897721,-0.549353,3.491619,100258.52,-101,-44,-272
87593,17.935,0.800,8.643,-1.006969,-0.617463,3.754481,100258.52,-96,-50,-275
87604,15.778,-8.589,10.493,-0.116218,-0.781352,4.004572,100257.63,-96,-50,-275
87613,18.008,-13.434,9.690,0.133342,-0.864894,4.124829,100257.63,-90,-61,-275
87623,19.149,-9.209,10.930,-0.219447,-0.728674,3.803435,100259.06,-85,-70,-278
87633,16.890,-1.307,10.936,0.115427,-0.656839,3.416414,100258.38,-80,-78,-279
87644,15.634,3.534,8.686,0.757507,-0.813279,2.909491,100258.38,-74,-78,-279
87654,12.594,6.917,4.917,1.171488,-1.162343,2.216152,100260.89,-74,-87,-279
87663,5.611,5.605,4.631,1.508313,-1.172453,1.831969,100260.89,-69,-94,-280
87673,-1.485,-2.306,4.922,2.194203,-0.983554,1.729271,100265.54,-63,-103,-279
87684,-2.117,-6.893,8.889,2.622551,-0.304582,1.305180,100258.26,-61,-113,-275
87694,2.228,-7.486,8.806,1.947304,-0.502527,0.458061,100256.96,-61,-113,-275
87703,3.426,-4.880,4.518,0.612241,-0.885646,-0.434819,100256.96,-59,-115,-275
87713,2.887,-1.347,0.975,-0.829777,-0.750490,-1.087186,100256.96,-59,-110,-278
87724,2.529,0.612,-0.832,-1.889740,-0.537114,-1.434121,100259.60,-59,-101,-282
87734,1.977,1.841,-2.053,-2.283501,-0.547756,-1.744873,100260.65,-59,-101,-282
87743,1.345,2.523,-2.019,-2.097262,-0.543499,-2.123203,100259.49,-59,-91,-286
87753,1.267,2.969,-0.538,-1.350712,-0.453041,-2.508451,100257.71,-60,-80,-288
87763,1.624,3.487,0.674,-0.380676,-0.416325,-2.920836,100257.71,-62,-72,-290
87774,1.801,2.855,1.968,0.549452,-0.327463,-3.276817,100258.05,-62,-72,-290
87784,2.003,1.228,3.043,1.224167,-0.196032,-3.523184,100254.09,-64,-67,-288
87793,2.609,-1.321,3.875,1.404020,-0.016711,-3.672175,100254.71,-66,-62,-287
87803,3.310,-2.941,3.450,1.126259,0.097161,-3.879166,100254.71,-69,-55,-287
87814,3.170,-1.435,3.074,0.681415,0.226996,-4.333055,100256.25,-69,-55,-287
87824,3.969,1.368,3.172,0.570204,0.305216,-4.798119,100254.88,-73,-44,-285
87833,6.072,2.814,2.475,0.951195,0.299895,-5.066834,100254.88,-77,-33,-284
87843,7.899,1.917,2.748,1.623249,0.332353,-5.224871,100254.88,-79,-24,-283
87854,9.358,-0.268,3.155,2.223469,0.333950,-5.394614,100256.72,-79,-24,-283
87864,9.994,-2.494,3.206,2.578918,0.348849,-5.597348,100256.72,-82,-16,-280
87869,10.288,-3.986,2.846,2.678423,0.374390,-5.707495,100258.80,-83,-7,-280
87878,10.766,-5.245,2.261,2.758771,0.424408,-5.783587,100256.86,-83,-7,-280
87888,11.266,-6.431,1.691,2.861469,0.504757,-5.890008,100258.17,-83,+0,-280
87899,13.007,-6.281,2.472,2.765689,0.531895,-6.006008,100256.91,-84,+9,-280
87909,16.559,-8.693,5.512,2.576258,0.521252,-6.002816,100256.91,-84,+9,-280
87918,19.167,-13.598,7.562,2.146845,0.352573,-6.049109,100257.80,-83,+19,-279
87928,18.123,-15.407,6.948,1.296002,0.154629,-6.288558,100260.84,-81,+31,-280
87939,16.608,-14.101,5.995,0.544131,0.204647,-6.423715,100257.74,-77,+46,-281
87949,15.491,-12.769,6.508,0.321177,0.425473,-6.250779,100258.21,-71,+58,-281
87958,14.427,-14.665,6.500,0.447287,0.536683,-5.748467,100258.21,-71,+58,-281
87968,14.184,-18.106,5.627,0.600002,0.606922,-5.109403,100257.92,-68,+69,-281
87979,13.739,-18.451,4.518,0.667580,0.673968,-4.555477,100261.53,-65,+77,-281
87989,11.671,-19.060,5.122,0.941084,0.614371,-3.826487,100260.33,-62,+80,-282
87998,7.840,-25.756,5.395,1.210332,0.461656,-2.841019,100261.17,-62,+80,-282
88008,3.787,-30.472,4.234,0.493580,0.395142,-1.833736,100261.17,-61,+83,-282
88018,3.466,-29.504,3.239,-0.707392,0.542005,-0.706727,100262.52,-60,+84,-282
88029,7.698,-24.649,4.369,-1.402859,0.642041,0.438373,100262.26,-61,+86,-279
88039,8.031,-20.785,2.754,-1.222474,0.334482,1.542501,100263.30,-61,+86,-279
88048,11.922,-15.612,0.580,-0.545098,-0.128454,2.802537,100258.76,-63,+83,-279
88058,25.564,9.959,0.177,-0.486566,-0.943114,3.034004,100258.76,-64,+76,-280
88069,34.162,38.272,-14.367,-0.577025,-1.259187,1.317950,100260.91,-61,+74,-281
88079,22.937,8.573,-9.644,0.068424,-0.114087,1.928813,100261.29,-61,+74,-281
88088,13.358,-19.464,12.764,4.004972,-0.266802,4.165802,100259.51,-64,+62,-282
88098,10.224,-29.978,8.889,4.426404,-0.286490,4.399398,100259.66,-66,+38,-285
88104,11.291,-17.788,2.262,2.265506,0.302023,3.885380,100259.66,-66,+38,-285
88114,12.172,-0.240,1.994,1.465212,0.472298,3.604958,100259.66,-69,+25,-284
88124,1.558,7.265,8.006,3.262147,0.163675,3.174481,100263.38,-70,+9,-284
88134,-6.912,-1.187,15.005,4.549321,-0.182197,2.750390,100258.19,-69,+9,-284
88143,2.152,-18.929,4.405,2.643303,-0.714307,2.837124,100257.34,-69,-7,-283
88154,11.915,-25.076,-1.280,-0.809557,0.014152,2.578518,100262.73,-67,-16,-284
88164,16.106,-13.607,1.413,-3.303555,0.761766,1.755877,100262.52,-68,-12,-284
88174,12.184,-3.452,3.530,-4.588068,0.964500,1.297730,100261.38,-70,-3,-284
88183,7.470,-1.465,2.102,-3.847371,0.752188,1.072648,100261.38,-70,-3,-284
88194,7.292,0.897,0.444,-2.380877,0.638316,0.970483,100263.52,-71,+2,-282
88204,8.002,2.606,1.917,-0.969190,0.710683,0.973675,100261.58,-73,+1,-280
88214,8.598,0.348,4.459,0.373323,0.567546,1.094464,100261.58,-74,-1,-279
88223,9.642,-1.963,3.848,1.062937,0.300959,1.160978,100262.93,-74,-1,-279
88233,9.766,-3.849,2.890,1.027818,0.332353,1.172685,100263.82,-75,-8,-278
88244,9.200,-5.049,3.541,0.466443,0.406849,1.098189,100264.40,-76,-11,-277
88254,8.900,-4.915,5.344,-0.267337,0.445161,0.941217,100261.95,-77,-13,-277
88264,7.928,-6.168,6.981,-1.147979,0.532427,0.720923,100262.21,-77,-13,-277
88273,7.606,-5.212,6.245,-1.960510,0.617564,0.414428,100262.77,-77,-9,-275
88284,7.857,-1.378,4.877,-2.284033,0.667582,0.197859,100260.01,-80,-5,-275
88294,8.422,0.864,3.058,-1.909960,0.579784,0.216483,100260.05,-80,-1,-274
88303,10.013,0.640,1.327,-1.082529,0.395674,0.421878,100260.05,-80,-1,-274
88313,10.793,-1.475,1.245,-0.190713,0.213693,0.664520,100260.05,-81,-1,-274
88324,10.129,-4.132,2.230,0.317984,0.101950,0.798079,100265.66,-81,-4,-272
88334,9.362,-6.029,3.560,0.126957,0.148243,0.812978,100262.05,-81,-6,-273
88339,8.749,-6.229,4.644,-0.346089,0.255197,0.754446,100262.89,-81,-6,-273
88348,8.268,-4.790,5.286,-0.806896,0.363216,0.646428,100261.47,-82,-6,-272
88358,8.491,-3.178,5.333,-1.182034,0.452610,0.554905,100261.47,-82,-6,-272
88369,8.979,-2.315,5.004,-1.301758,0.484005,0.575125,100261.27,-83,-5,-270
88379,9.321,-1.734,4.188,-1.275153,0.452078,0.669841,100265.19,-84,-3,-270
88389,9.383,-1.910,3.342,-1.127758,0.383436,0.817235,100259.91,-85,-2,-270
88398,9.477,-2.591,2.686,-0.953758,0.297234,0.952923,100260.84,-85,-2,-270
88409,9.647,-3.574,2.400,-0.856914,0.216353,1.055620,100260.84,-86,-3,-269
88419,10.116,-4.089,2.528,-0.867024,0.116317,1.125327,100263.84,-86,-5,-269
88429,10.152,-4.062,2.727,-0.908529,0.055124,1.173217,100263.52,-85,-5,-269
88438,10.003,-3.838,2.963,-0.915979,0.047142,1.213125,100262.27,-86,-5,-269
88449,10.091,-3.915,3.092,-0.913850,0.056188,1.258886,100260.87,-86,-5,-269
88459,10.301,-3.895,3.122,-0.981960,0.031711,1.314226,100260.87,-85,-7,-269
88469,10.401,-3.445,2.855,-1.071887,-0.019903,1.403620,100266.13,-85,-8,-269
88478,10.537,-2.985,2.666,-1.067630,-0.075243,1.530794,100264.56,-85,-9,-269
88488,10.773,-2.887,2.639,-0.981960,-0.155059,1.691492,100262.73,-85,-9,-269
88499,10.712,-2.602,2.811,-0.857446,-0.231151,1.835161,100264.20,-85,-12,-270
88509,11.998,-2.872,3.534,-0.753153,-0.320545,2.000115,100264.20,-83,-15,-270
88519,12.775,-2.997,3.763,-0.716437,-0.403022,2.170922,100264.11,-81,-21,-272
88528,13.771,-3.190,3.601,-0.729740,-0.413132,2.259253,100262.22,-81,-21,-272
88539,14.944,-3.983,2.827,-0.998988,-0.479646,2.433784,100259.45,-78,-23,-273
88549,15.868,-3.951,2.478,-1.373061,-0.519554,2.590225,100264.63,-76,-27,-274
88559,16.781,-3.020,3.032,-1.607189,-0.492949,2.712610,100264.63,-74,-31,-276
88568,18.101,-2.130,3.798,-1.884418,-0.370564,2.827014,100266.52,-74,-31,-276
88574,19.585,-0.229,4.494,-2.260620,-0.236472,2.854151,100263.70,-71,-32,-279
88584,20.611,2.322,5.496,-2.626179,-0.144949,2.882353,100263.70,-71,-32,-279
88594,21.491,5.264,5.982,-2.825188,-0.072582,2.964830,100263.12,-69,-32,-281
88604,22.157,6.840,6.638,-2.841684,0.052464,3.063802,100259.62,-67,-34,-282
88613,20.660,5.134,8.195,-2.681519,0.154097,3.208536,100259.62,-65,-35,-284
88624,17.207,-1.644,7.995,-2.118015,0.093968,3.426169,100259.79,-62,-35,-284
88634,16.717,-11.237,8.997,-1.305483,-0.118344,3.902407,100258.71,-62,-39,-285
88644,20.750,-12.702,9.487,-0.856382,-0.362050,4.096628,100258.98,-58,-46,-287
88653,20.094,-5.428,10.340,-0.979300,-0.394509,3.651784,100258.98,-54,-53,-289
88664,17.494,1.677,9.381,-0.596713,-0.428564,3.174481,100258.98,-48,-53,-289
88674,15.470,6.285,6.524,0.022131,-0.787738,2.484867,100260.98,-48,-60,-290
88684,10.549,7.080,1.721,0.370663,-1.105939,1.876666,100260.09,-43,-67,-292
88694,2.448,2.305,2.210,0.720259,-0.824985,1.652115,100260.67,-38,-74,-294
88704,-2.962,-4.937,5.316,1.597176,-0.246582,1.513767,100263.08,-36,-83,-291
88714,-0.712,-6.361,7.972,1.856845,-0.019903,0.682079,100263.08,-36,-83,-291
88724,2.903,-5.631,6.215,1.343892,-0.666949,-0.308177,100259.18,-34,-89,-290
88734,2.600,-3.250,1.927,0.356296,-1.083059,-1.157424,100260.23,-33,-90,-292
88744,2.132,-0.898,-1.054,-1.209171,-0.807958,-1.665057,100259.26,-32,-85,-294
88754,1.949,0.754,-3.126,-2.328730,-0.594050,-2.051901,100259.26,-32,-85,-294
88764,1.217,3.481,-2.304,-2.556473,-0.259353,-2.464818,100258.95,-33,-76,-299
88774,1.031,5.476,0.008,-1.693391,-0.035867,-2.743643,100258.95,-36,-68,-301
88783,1.446,5.864,2.139,-0.265741,-0.040656,-3.096432,100258.05,-38,-65,-301
88794,1.865,4.521,2.979,0.958112,-0.048637,-3.531166,100257.48,-38,-65,-301
88804,2.349,1.006,3.562,1.574295,0.081198,-3.866395,100255.65,-42,-63,-300
88814,3.592,-2.828,3.185,1.235873,0.303087,-4.056890,100255.65,-47,-60,-299
88824,4.371,-2.503,2.442,0.314259,0.593087,-4.419789,100255.82,-52,-54,-298
88834,5.555,0.664,2.126,-0.320016,0.834665,-4.924229,100254.68,-52,-54,-298
88844,7.279,2.124,1.666,-0.072585,0.969289,-5.214229,100255.04,-60,-43,-295
88854,8.648,1.065,2.189,0.721855,1.057619,-5.314266,100254.70,-66,-35,-294
88864,9.556,-1.273,2.570,1.515763,1.037931,-5.458467,100255.48,-73,-29,-290
88875,10.530,-2.433,2.037,1.992533,0.962371,-5.650027,100254.70,-73,-29,-290
88884,11.680,-2.588,1.281,2.256460,0.918206,-5.754852,100257.53,-79,-23,-288
88894,12.494,-3.032,0.941,2.531028,0.881491,-5.790504,100257.53,-83,-15,-285
88904,13.421,-4.159,1.483,2.832202,0.807527,-5.808596,100257.11,-88,-9,-282
88913,15.181,-6.525,2.736,3.054092,0.685142,-5.792100,100257.11,-88,-9,-282
88924,16.857,-9.057,4.532,3.120074,0.522317,-5.794229,100256.02,-92,-3,-280
88934,17.494,-10.479,5.934,2.965230,0.374390,-5.868192,100255.28,-94,+5,-280
88944,17.245,-11.088,7.382,2.758771,0.318518,-5.917678,100257.95,-95,+13,-278
88954,16.490,-11.972,8.230,2.802936,0.324904,-5.860210,100258.38,-95,+13,-278
88964,16.528,-14.817,8.068,2.879560,0.336610,-5.663862,100258.38,-96,+21,-277
88974,16.822,-18.554,6.820,2.608184,0.308941,-5.380247,100262.02,-95,+29,-277
88984,16.347,-21.542,4.214,2.062240,0.319051,-4.966798,100262.02,-96,+37,-277
88994,13.620,-22.456,3.275,1.432222,0.460060,-4.440009,100259.73,-96,+37,-277
89004,9.499,-26.289,6.000,1.299194,0.674500,-3.724854,100259.73,-95,+46,-277
89014,4.783,-28.955,7.362,0.544663,0.642573,-2.876671,100259.73,-95,+52,-275
89024,2.286,-29.522,6.292,-0.662162,0.593619,-1.742745,100263.44,-97,+58,-274
89034,4.150,-26.752,4.972,-1.667850,0.708555,-0.401828,100260.34,-97,+58,-274
89043,7.793,-22.117,4.519,-1.784914,0.709087,0.743272,100261.44,-98,+64,-271
89054,8.353,-18.706,2.971,-1.336345,0.358427,1.903803,100261.19,-100,+63,-269
89064,11.257,-13.395,-0.394,-0.815410,-0.053958,3.003142,100261.19,-102,+56,-269
89074,23.132,10.014,-1.094,-0.861703,-0.811683,3.044114,100263.98,-102,+56,-269
89084,31.501,34.483,-14.995,-0.922364,-1.114453,1.448850,100259.42,-102,+51,-270
89094,23.449,10.096,-11.554,-0.201887,0.047675,1.877198,100262.91,-102,+50,-270
89104,15.469,-18.097,12.811,3.631431,-0.032674,4.145050,100262.91,-104,+30,-271
89114,10.482,-30.559,9.445,4.806330,-0.378013,4.389820,100262.47,-104,+30,-271
89124,11.706,-13.397,2.008,2.461322,0.381840,3.679454,100262.47,-106,+7,-271
89134,7.710,5.190,1.370,2.239964,0.617564,3.356995,100265.45,-106,-5,-270
89144,-4.977,2.210,14.349,3.310037,0.703234,2.792427,100262.31,-108,-22,-266
89154,-4.917,-9.470,9.566,2.973212,-0.190711,2.571601,100258.61,-106,-35,-266
89164,9.817,-22.098,1.521,-0.201355,-0.027885,2.584904,100264.95,-106,-35,-266
89174,16.153,-19.321,0.131,-2.346290,0.487729,1.814409,100264.95,-106,-37,-265
89184,15.633,-7.700,3.531,-3.638252,0.920867,1.137565,100262.38,-107,-31,-266
89194,10.480,-0.311,3.569,-3.705830,0.795821,0.935364,100261.98,-108,-26,-267
89204,7.476,1.217,0.647,-2.639482,0.731968,0.893327,100263.34,-108,-26,-267
89214,7.804,1.322,2.595,-1.414565,0.726647,0.953455,100263.27,-109,-24,-264
89224,8.076,1.187,2.661,-0.081631,0.408445,0.941749,100263.45,-110,-26,-263
89234,9.850,-1.673,1.701,0.913415,0.185491,1.052428,100260.35,-110,-31,-262
89244,10.439,-4.390,1.825,1.268332,0.191344,1.174813,100260.35,-110,-31,-262
89254,9.050,-8.006,6.371,0.783580,0.366940,1.076905,100258.73,-110,-37,-260
89264,7.616,-10.484,8.184,-0.791997,0.417491,0.675694,100258.73,-111,-39,-259
89274,7.434,-5.352,6.589,-2.372895,0.597876,0.161144,100262.40,-113,-33,-259
89284,8.252,-1.387,5.881,-2.958216,0.795289,-0.070856,100258.74,-113,-33,-259
89294,8.402,0.363,3.806,-2.704400,0.705362,-0.162379,100261.88,-113,-27,-259
89305,9.691,1.236,1.719,-1.946143,0.494647,0.010025,100259.48,-115,-21,-259
89314,10.878,0.227,1.803,-0.986749,0.245619,0.293107,100259.48,-115,-21,-259
89324,10.373,-2.548,2.654,-0.327465,0.059381,0.446887,100262.09,-115,-21,-259
89334,9.513,-4.552,3.705,-0.311502,0.032776,0.535217,100258.27,-115,-21,-259
89345,8.883,-3.953,4.406,-0.701538,0.062574,0.542667,100258.53,-116,-21,-259
89354,8.285,-2.322,4.802,-1.016015,0.080133,0.522446,100258.53,-115,-21,-259
89364,7.935,-1.226,4.925,-1.151171,0.006702,0.576190,100258.53,-115,-21,-259
89374,7.681,-0.665,4.728,-1.127758,-0.065133,0.673033,100261.29,-114,-20,-259
89384,7.712,-0.556,4.344,-0.935135,-0.058215,0.786373,100266.52,-114,-20,-260
89394,7.911,-1.522,3.396,-0.680786,-0.039059,0.901309,100259.20,-114,-22,-260
89400,8.332,-2.638,2.679,-0.533392,-0.024692,0.976868,100261.40,-114,-22,-260
89409,8.862,-3.697,2.232,-0.481777,-0.023096,1.039657,100261.40,-114,-23,-260
89419,9.405,-4.404,2.059,-0.514768,-0.039059,1.094997,100267.34,-114,-25,-261
89430,9.552,-4.259,2.139,-0.596181,-0.063004,1.121070,100264.31,-114,-25,-261
89439,9.496,-3.958,2.225,-0.640346,-0.065133,1.148740,100265.36,-113,-27,-261
89449,9.571,-3.874,2.104,-0.628107,-0.050766,1.173217,100261.80,-112,-30,-261
89459,9.785,-4.061,1.988,-0.595649,-0.031610,1.191308,100261.80,-112,-31,-262
89469,9.903,-4.380,2.001,-0.577557,-0.018839,1.208868,100263.46,-112,-31,-262
89479,10.006,-4.606,2.181,-0.589795,-0.035867,1.234941,100262.26,-111,-34,-262
89489,10.091,-4.205,2.714,-0.618529,-0.118876,1.262079,100262.21,-110,-36,-262
89499,10.101,-3.864,3.076,-0.592988,-0.197628,1.311565,100264.41,-109,-38,-262
89509,10.339,-3.810,3.219,-0.586071,-0.249243,1.424905,100264.41,-109,-38,-262
89520,10.157,-3.241,3.586,-0.582878,-0.285958,1.500996,100260.73,-108,-40,-264
89529,11.042,-2.948,3.880,-0.587667,-0.321610,1.601033,100265.02,-105,-43,-265
89539,12.058,-3.035,3.835,-0.644603,-0.354600,1.769180,100263.35,-103,-48,-266
89549,12.718,-2.628,3.177,-0.717502,-0.390784,1.954886,100259.59,-103,-48,-266
89560,13.171,-2.609,2.284,-0.792529,-0.445059,2.150702,100259.59,-102,-50,-267
89569,13.622,-2.289,1.967,-0.772841,-0.515298,2.375785,100264.85,-99,-54,-269
89579,14.187,-2.856,2.255,-0.698346,-0.576490,2.625876,100259.95,-95,-61,-272
89589,14.712,-4.155,2.848,-0.771777,-0.569573,2.739748,100262.13,-95,-61,-272
89600,15.925,-5.051,3.286,-1.130419,-0.475921,2.748794,100260.20,-91,-66,-273
89609,18.470,-3.386,4.168,-1.900914,-0.309371,2.711546,100260.20,-88,-68,-275
89619,20.691,1.010,5.673,-2.704932,-0.219977,2.689197,100266.14,-85,-68,-279
89629,21.118,5.274,6.978,-2.857115,-0.199756,2.790298,100262.38,-85,-68,-279
89634,20.974,6.436,7.108,-2.638418,-0.166234,2.947803,100256.09,-81,-68,-282
89645,20.535,5.406,7.659,-2.400033,-0.101848,3.110628,100256.09,-78,-68,-282
89655,18.833,2.772,9.441,-2.054161,-0.055023,3.193637,100260.53,-78,-69,-284
89664,16.185,-3.704,9.316,-1.382639,-0.163573,3.316555,100260.53,-76,-73,-286
89674,16.401,-12.573,8.412,-0.628639,-0.381738,3.692756,100262.56,-71,-79,-287
89684,18.152,-12.772,7.728,-0.763795,-0.451444,3.650720,100261.98,-66,-85,-289
89695,16.444,-6.087,9.065,-0.896823,-0.401958,3.300591,100258.06,-66,-85,-289
89704,14.685,-0.396,7.792,-0.456768,-0.541371,2.934500,100258.06,-61,-91,-290
89714,12.693,3.521,4.891,0.061507,-0.804765,2.350775,100258.06,-56,-96,-292
89724,7.894,5.099,2.138,0.235507,-0.854251,1.749492,100261.02,-51,-100,-292
89735,1.405,0.961,3.027,0.423342,-0.575426,1.553143,100262.13,-51,-100,-292
89744,-2.540,-5.438,4.807,1.050167,-0.194435,1.445657,100260.30,-48,-105,-292
89754,-0.543,-7.053,7.254,1.238002,0.007766,0.862997,100256.73,-47,-111,-289
89764,2.629,-6.108,6.177,0.860204,-0.359389,0.122832,100256.73,-46,-113,-290
89775,2.690,-3.408,2.455,-0.094401,-0.607885,-0.640745,100263.55,-46,-113,-290
89785,2.620,-1.222,0.036,-1.305483,-0.488160,-1.162213,100258.27,-47,-110,-292
89794,2.293,1.041,-1.567,-2.113226,-0.376949,-1.593754,100259.13,-47,-101,-296
89804,2.023,3.604,-2.088,-2.218583,-0.291811,-1.933240,100259.13,-49,-92,-299
89815,1.822,4.835,-0.656,-1.342731,-0.168894,-2.171093,100260.33,-49,-92,-299
89825,2.527,5.347,0.797,0.013085,-0.157188,-2.497277,100258.39,-51,-85,-300
89834,2.671,3.800,2.206,1.122002,-0.167298,-2.817607,100258.39,-54,-82,-299
89844,2.567,0.690,3.159,1.698277,-0.126325,-3.071423,100257.28,-59,-81,-297
89854,3.073,-2.076,3.184,1.607818,0.041289,-3.307148,100254.09,-59,-81,-297
89865,4.013,-2.743,2.807,1.111359,0.264243,-3.605129,100254.09,-63,-78,-294
89870,4.643,-1.129,2.636,0.724516,0.404188,-3.924927,100254.76,-67,-71,-293
89879,5.315,0.809,2.602,0.590424,0.457931,-4.242597,100258.27,-67,-71,-293
89889,6.599,1.655,2.062,0.907562,0.422812,-4.503862,100260.10,-73,-64,-291
89900,7.790,0.452,2.036,1.635488,0.404188,-4.662963,100258.43,-79,-58,-289
89910,8.488,-1.279,2.664,2.283597,0.423876,-4.851862,100258.43,-83,-58,-289
89919,8.995,-2.702,2.982,2.597542,0.418555,-5.039697,100255.23,-83,-51,-285
89929,9.590,-3.078,2.800,2.735358,0.387693,-5.222210,100257.69,-88,-44,-282
89939,10.176,-3.380,2.431,2.855615,0.387693,-5.358963,100255.08,-93,-38,-280
89950,10.913,-3.967,2.562,3.028551,0.408445,-5.453678,100255.70,-97,-31,-277
89959,12.461,-4.709,3.031,3.114221,0.363216,-5.565954,100255.70,-97,-31,-277
89969,14.206,-5.801,4.044,2.982790,0.284996,-5.671844,100257.16,-100,-23,-275
89979,15.722,-7.769,5.509,2.753982,0.269564,-5.759642,100261.09,-103,-13,-274
89990,16.753,-9.749,6.652,2.454405,0.308941,-5.900118,100256.90,-104,-2,-273
89999,17.298,-12.686,8.043,2.160148,0.387693,-6.016119,100251.84,-104,-2,-273
90009,17.371,-13.944,7.622,1.795653,0.284996,-6.167238,100251.84,-106,+10,-274
90019,17.607,-15.385,6.645,1.565781,0.288188,-6.119348,100260.45,-105,+24,-274
90030,18.268,-19.012,5.147,1.400295,0.410041,-5.804871,100263.22,-104,+36,-274
90040,16.374,-20.552,3.605,0.954387,0.491454,-5.373330,100258.31,-104,+36,-274
90049,12.536,-19.981,4.006,0.574993,0.615968,-4.744908,100259.20,-102,+50,-274
90059,9.331,-23.957,6.692,0.640442,0.839986,-3.813716,100259.20,-102,+60,-272
90070,5.410,-27.153,7.085,0.176975,0.751656,-2.810689,100261.05,-101,+66,-271
90080,2.459,-28.192,3.648,-0.620658,0.537748,-1.612910,100260.63,-101,+66,-271
90089,3.077,-26.197,1.311,-1.226731,0.606922,-0.154397,100260.42,-102,+72,-269
90099,9.188,-22.204,3.318,-1.242162,0.628206,1.125859,100262.52,-104,+72,-267
90105,9.553,-18.238,1.573,-0.859043,0.272225,1.798446,100262.52,-104,+72,-267
90115,10.307,-14.197,0.639,-0.474328,-0.049701,2.625876,100262.52,-106,+67,-267
90125,16.008,0.444,0.906,0.016278,-0.550949,3.144151,100260.17,-108,+58,-268
90135,25.988,28.747,-5.521,-0.167300,-1.123499,1.952757,100257.92,-106,+58,-268
90144,22.989,28.058,-16.357,-0.569043,-0.430160,0.695382,100261.06,-106,+54,-270
90155,17.500,-4.662,-3.569,1.262479,0.047142,2.640243,100263.53,-107,+50,-270
90165,15.414,-24.381,14.196,4.048605,0.001913,3.924756,100262.44,-109,+29,-270
90175,12.054,-26.127,4.564,3.029615,0.137069,3.437876,100264.06,-111,+13,-271
90184,15.147,-5.384,2.514,1.538112,0.714940,3.122867,100264.06,-111,+13,-271
90194,7.357,5.123,5.578,2.367139,0.525509,3.093069,100262.55,-112,+0,-269
90205,-3.814,-0.745,14.060,2.950863,0.233913,2.525307,100261.23,-114,-13,-267
90214,-0.857,-9.079,5.388,2.134607,-0.444527,2.480078,100261.23,-112,-24,-267
90224,8.051,-17.526,1.291,0.001911,-0.131114,2.368867,100266.31,-112,-24,-267
90234,14.744,-15.393,1.033,-1.603464,0.196133,1.804831,100260.88,-111,-27,-267
90245,14.855,-8.737,3.847,-2.724620,0.380775,1.305180,100260.67,-111,-25,-267
90255,10.441,-2.230,3.368,-3.087518,0.360023,1.002409,100259.05,-110,-21,-268
90265,7.134,0.402,1.817,-2.635225,0.391418,0.939088,100264.16,-110,-21,-268
90274,7.155,1.168,2.071,-1.736492,0.343528,0.951327,100260.06,-111,-18,-268
90285,8.441,3.246,2.468,-0.539777,0.176445,0.953455,100264.05,-112,-20,-267
90295,9.394,1.472,3.294,0.766020,0.008298,1.059345,100262.06,-112,-25,-268
90304,9.878,-2.696,2.935,1.429029,-0.107169,1.166831,100262.06,-112,-25,-268
90314,8.815,-6.249,3.863,1.276314,-0.042252,1.114152,100262.06,-111,-32,-267
90324,7.197,-7.566,5.666,0.278076,0.125363,0.851822,100262.70,-111,-36,-265
90335,7.049,-6.261,6.024,-0.970254,0.278610,0.546391,100260.25,-111,-35,-266
90345,8.226,-4.345,5.107,-1.748730,0.389289,0.333015,100261.08,-111,-35,-266
90354,9.003,-2.192,3.830,-2.039262,0.432922,0.182428,100258.94,-112,-31,-265
90364,9.368,-0.242,2.546,-1.873244,0.350977,0.172850,100258.94,-114,-26,-265
90375,9.887,0.640,1.923,-1.222474,0.190280,0.295768,100263.63,-113,-25,-266
90385,10.121,-0.167,2.237,-0.365245,0.022665,0.471364,100260.91,-113,-25,-266
90395,9.428,-2.066,2.818,0.223268,-0.099188,0.622483,100258.97,-113,-25,-265
90404,8.481,-3.232,3.241,0.269030,-0.093334,0.713474,100258.97,-113,-29,-266
90415,8.274,-3.459,4.144,-0.044383,0.013620,0.720923,100264.63,-113,-31,-265
90425,8.446,-3.250,4.495,-0.433355,0.118445,0.687400,100264.63,-113,-31,-265
90434,8.892,-2.840,4.064,-0.781355,0.180170,0.679951,100262.38,-112,-32,-266
90444,9.338,-2.052,3.614,-0.969722,0.181766,0.725712,100263.89,-112,-31,-266
90455,9.374,-1.449,3.012,-0.868089,0.126959,0.823088,100262.11,-112,-31,-267
90465,9.393,-1.772,2.250,-0.605227,0.068427,0.941217,100262.11,-112,-31,-267
90475,9.401,-2.695,1.949,-0.372695,0.040225,1.049767,100266.48,-111,-33,-266
90484,9.439,-3.433,2.234,-0.291814,0.057785,1.129052,100262.25,-111,-35,-265
90494,9.326,-3.392,2.558,-0.332786,0.120574,1.180134,100262.67,-110,-38,-265
90505,9.076,-3.563,2.988,-0.397704,0.237638,1.229088,100261.68,-110,-38,-265
90515,8.907,-4.072,3.154,-0.558401,0.399931,1.251437,100263.41,-111,-40,-265
90525,8.957,-4.518,3.177,-0.777098,0.567014,1.254097,100261.48,-112,-42,-264
90534,9.661,-4.484,2.977,-0.968657,0.643105,1.277510,100261.48,-112,-44,-263
90545,10.516,-4.053,2.837,-1.136804,0.614371,1.359455,100261.01,-112,-44,-263
90555,10.728,-3.188,2.820,-1.224602,0.551050,1.499400,100261.68,-111,-46,-262
90564,10.973,-2.615,3.216,-1.179373,0.444096,1.675528,100261.68,-113,-48,-260
90574,11.520,-1.921,3.677,-1.084125,0.181234,1.865492,100267.48,-112,-49,-263
90585,11.895,-1.729,4.330,-0.863300,-0.020435,2.087381,100262.92,-112,-49,-263
90595,12.469,-4.114,4.454,-0.630236,-0.094931,2.237968,100265.39,-109,-54,-262
90605,13.504,-6.817,3.877,-0.777630,-0.060344,2.284794,100261.47,-108,-59,-264
90614,14.409,-6.996,3.493,-1.313997,-0.003940,2.330023,100261.47,-105,-62,-265
90625,15.396,-6.695,3.097,-1.838657,0.004042,2.420482,100261.42,-103,-62,-265
90635,17.697,-4.818,2.919,-2.321813,0.018409,2.506684,100263.64,-103,-64,-265
90645,19.624,-0.997,3.172,-2.756546,-0.034802,2.665252,100259.34,-101,-66,-268
90654,20.347,1.788,3.710,-2.791666,-0.165169,2.938225,100259.34,-98,-66,-272
90664,22.108,1.710,4.204,-2.619262,-0.255096,3.239399,100259.34,-98,-66,-272
90675,26.232,1.659,5.364,-2.824124,-0.296600,3.368701,100261.99,-93,-69,-273
90685,28.048,4.771,7.249,-3.187023,-0.387059,3.310169,100260.52,-89,-68,-278
90694,24.213,7.827,9.435,-3.024730,-0.541371,3.259087,100261.62,-85,-68,-283
90704,18.072,4.752,11.273,-1.620492,-0.772839,3.403821,100260.52,-79,-73,-286
90715,12.619,-6.252,9.863,0.146112,-0.894160,3.502261,100260.52,-79,-73,-286
90725,11.798,-14.198,4.409,0.316920,-0.898949,3.513967,100261.05,-73,-83,-287
90735,12.690,-12.271,6.174,0.117911,-0.738784,3.314958,100262.11,-67,-89,-289
90744,12.505,-6.081,5.554,0.065232,-0.944710,2.962702,100259.73,-60,-96,-290
90755,9.601,0.141,4.910,0.158883,-1.175114,2.471564,100259.73,-60,-96,-290
90765,3.711,3.051,3.458,0.444626,-1.344857,1.915510,100263.77,-55,-101,-292
90775,-3.265,-0.397,4.309,1.144882,-1.445957,1.455235,100263.77,-48,-105,-295
90784,-6.233,-2.785,6.326,1.977634,-1.219811,1.014116,100264.09,-43,-113,-293
90795,-2.824,-3.557,3.629,1.682313,-1.221939,0.459125,100259.43,-43,-113,-293
90805,1.946,-2.662,1.531,0.837855,-1.174049,-0.060214,100257.55,-40,-116,-294
90815,4.996,-0.732,-1.226,-0.082163,-1.330490,-0.651920,100257.55,-36,-114,-297
90825,4.806,1.053,-2.708,-1.056456,-1.487994,-1.300030,100257.55,-34,-109,-300
90834,2.671,1.890,-3.677,-1.141593,-1.634324,-1.661864,100260.48,-34,-109,-300
90845,1.540,3.349,-3.042,-0.303520,-1.640177,-1.920469,100259.54,-31,-102,-305
90855,1.430,4.201,-0.484,0.703231,-1.597609,-2.187589,100256.14,-30,-100,-307
90865,1.393,3.248,1.167,1.645598,-1.721058,-2.492488,100263.00,-27,-100,-308
90874,1.724,1.138,2.485,2.325102,-1.782783,-2.776634,100259.75,-27,-100,-308
90885,2.875,-0.942,3.086,2.536350,-1.689664,-3.049607,100251.95,-27,-103,-308
90895,4.622,-1.487,3.154,2.189414,-1.581645,-3.327900,100251.95,-28,-103,-307
90905,5.469,-0.748,3.091,1.848332,-1.578985,-3.580120,100254.52,-28,-103,-307
90914,5.681,-0.665,2.890,1.890900,-1.652416,-3.835533,100254.52,-28,-103,-307
90925,6.045,-1.904,2.609,2.083524,-1.723719,-4.099459,100260.32,-29,-103,-307
90935,6.928,-2.532,2.770,2.214955,-1.729040,-4.385202,100257.49,-30,-101,-308
90945,8.390,-1.983,2.133,2.301689,-1.778526,-4.575165,100254.93,-32,-101,-307
90955,9.491,-2.791,1.744,2.554441,-1.860471,-4.624651,100259.27,-32,-101,-307
90964,9.843,-5.283,1.850,3.020569,-1.976471,-4.637954,100259.27,-34,-101,-307
90975,10.458,-6.743,2.371,3.313762,-2.148342,-4.687440,100259.62,-34,-103,-305
90985,11.425,-6.011,3.572,3.341964,-2.295737,-4.695954,100261.63,-34,-103,-304
90995,12.559,-5.222,5.743,3.403688,-2.345223,-4.538982,100255.93,-34,-103,-304
91004,13.538,-6.014,8.349,3.700606,-2.390985,-4.363386,100255.93,-34,-107,-302
91015,14.855,-7.387,10.448,4.123633,-2.469205,-4.343165,100255.93,-34,-110,-300
91025,15.697,-8.851,11.531,4.589761,-2.525076,-4.304853,100262.18,-35,-115,-297
91035,15.948,-10.597,11.334,5.050568,-2.529333,-4.178211,100258.30,-35,-115,-297
91044,16.253,-11.421,10.331,5.402825,-2.545829,-3.943551,100260.60,-35,-122,-293
91055,16.484,-11.934,9.924,5.786476,-2.580948,-3.571606,100261.34,-34,-132,-287
91065,15.925,-12.581,11.268,6.173852,-2.598507,-3.081533,100261.34,-35,-142,-279
91075,13.355,-13.887,13.540,6.349980,-2.471333,-2.521754,100263.22,-35,-142,-279
91085,10.189,-14.847,14.981,6.023265,-2.228691,-2.010396,100262.80,-35,-153,-270
91095,7.171,-16.488,14.679,5.502329,-1.874838,-1.555442,100259.23,-34,-164,-262
91105,3.051,-16.058,13.007,4.713211,-1.458728,-1.086121,100259.23,-34,-173,-254
91115,0.800,-15.643,12.520,3.801707,-0.907995,-0.453975,100258.43,-34,-173,-254
91125,0.126,-15.918,11.363,2.955120,-0.497738,0.264373,100258.43,-33,-179,-247
91134,0.258,-16.680,8.956,2.235175,-0.294472,1.010391,100258.48,-31,-187,-241
91145,1.614,-16.296,6.215,1.657304,-0.181665,1.767051,100261.20,-26,-193,-237
91155,3.345,-13.273,4.848,1.430625,-0.106105,2.374188,100259.05,-19,-193,-234
91165,6.390,-10.743,18.114,2.008319,0.781986,2.887142,100257.20,-19,-200,-234
91174,11.265,-2.134,-1.780,2.604460,-0.266802,2.345454,100257.20,-12,-208,-226
91185,12.017,-0.347,2.377,2.484203,0.187087,2.646096,100265.05,-6,-217,-218
91195,10.101,-0.108,7.312,2.291579,0.485069,2.512005,100262.75,+0,-224,-213
91205,6.862,-3.787,10.072,1.759469,1.009197,1.836225,100255.27,+0,-224,-213
91215,4.821,-8.630,7.418,1.071451,1.284298,1.515363,100260.28,+2,-227,-207
91225,15.429,-6.545,-4.303,-0.116750,0.838390,1.593051,100263.00,+5,-230,-206
91235,27.780,-4.869,-5.600,-1.031446,0.511142,1.439272,100262.95,+9,-230,-208
91245,29.845,-0.410,-0.611,-0.309906,0.781986,1.064134,100262.95,+9,-230,-208
91255,11.858,-2.977,-0.265,1.132112,0.785179,0.444758,100264.16,+10,-231,-206
91265,1.869,-4.175,-0.219,1.891432,0.581381,0.732630,100264.16,+10,-234,-200
91275,2.262,-1.887,2.445,1.977634,0.465381,0.930043,100257.48,+13,-238,-194
91285,7.266,-1.870,5.448,2.169726,0.345656,0.738483,100258.38,+13,-238,-194
91295,10.312,-6.056,5.336,2.026056,0.202519,0.666648,100261.78,+15,-241,-187
91305,10.601,-8.197,3.601,1.075176,0.247748,0.497437,100260.78,+15,-244,-183
91315,10.097,-6.191,2.590,0.021599,0.341931,0.221272,100260.78,+16,-244,-183
91325,9.852,-4.299,2.163,-0.542438,0.348317,0.098887,100260.29,+16,-244,-183
91335,9.764,-3.414,1.994,-0.685043,0.329693,0.018006,100263.84,+18,-243,-184
91345,9.626,-2.594,1.494,-0.621190,0.308941,-0.051700,100262.63,+16,-243,-187
91355,9.304,-1.955,0.962,-0.385465,0.312133,-0.061278,100262.63,+15,-242,-187
91365,9.345,-1.781,0.535,-0.094401,0.340335,-0.030416,100262.63,+15,-242,-187
91375,9.387,-2.475,0.821,0.323305,0.297766,0.004172,100260.80,+15,-242,-187
91385,8.988,-3.263,0.559,0.612773,0.191876,0.028649,100264.72,+14,-242,-185
91395,9.032,-3.454,0.556,0.675030,0.191876,0.037694,100264.77,+14,-243,-182
91401,9.280,-3.459,1.139,0.570204,0.229656,0.029713,100260.22,+14,-243,-182
91410,9.173,-3.058,1.891,0.405250,0.289252,0.018006,100260.22,+15,-245,-180
91420,8.831,-2.845,2.856,0.211030,0.333418,-0.003810,100261.98,+15,-245,-180
91430,8.763,-2.681,2.484,-0.013520,0.293509,0.010557,100259.26,+15,-245,-180
91440,8.912,-2.335,1.925,-0.185392,0.310005,0.018538,100261.30,+14,-245,-180
91450,9.195,-2.319,1.436,-0.149741,0.270096,0.054722,100259.10,+13,-244,-180
91460,9.866,-1.860,1.652,-0.033209,0.218482,0.150502,100259.10,+13,-245,-180
91470,9.989,-1.270,2.292,0.279140,0.155693,0.248410,100261.46,+13,-245,-180
91480,9.111,-1.772,1.844,0.356828,0.075344,0.345786,100263.07,+14,-245,-179
91490,9.213,-2.281,1.786,0.366938,0.090243,0.437309,100264.49,+16,-245,-178
91500,9.785,-3.123,2.048,0.361617,0.060977,0.497437,100262.45,+18,-247,-176
91510,9.899,-2.747,2.326,0.260516,0.058849,0.504355,100262.45,+18,-247,-176
91520,9.762,-3.125,3.006,0.122168,0.068959,0.525639,100263.30,+19,-247,-177
91530,9.553,-3.707,2.661,0.060975,-0.007133,0.575125,100260.63,+20,-247,-176
91540,9.407,-3.981,2.389,-0.027355,-0.088546,0.588428,100261.98,+23,-249,-175
91550,9.210,-3.600,2.408,-0.038530,-0.121536,0.580979,100259.64,+23,-249,-175
91560,8.866,-3.215,1.605,-0.088548,-0.121004,0.595345,100259.64,+25,-249,-176
91570,8.556,-3.987,0.564,-0.150805,-0.095995,0.618758,100263.94,+29,-250,-177
91580,9.408,-3.906,0.712,-0.072053,-0.130050,0.638978,100260.91,+31,-249,-177
91590,9.991,-3.324,1.362,0.099819,-0.202949,0.681547,100262.64,+31,-249,-177
91600,9.111,-4.341,1.751,0.284461,-0.259353,0.715070,100258.88,+33,-250,-176
91610,8.408,-5.019,1.911,0.271158,-0.301922,0.684208,100258.88,+36,-253,-175
91620,8.866,-4.720,2.425,0.083856,-0.278509,0.629400,100257.95,+38,-252,-176
91630,9.486,-4.760,2.212,-0.071520,-0.260949,0.559694,100264.27,+38,-252,-176
91635,9.750,-5.099,1.800,-0.168364,-0.237536,0.523511,100261.98,+41,-253,-176
91645,9.918,-5.037,1.950,-0.259355,-0.219445,0.492648,100261.98,+41,-253,-176
91656,9.914,-4.672,1.908,-0.351942,-0.276380,0.446355,100260.46,+41,-253,-177
91665,9.923,-4.348,1.674,-0.401428,-0.341830,0.416024,100260.46,+43,-253,-179
91675,10.136,-4.514,1.545,-0.444529,-0.374288,0.412832,100266.55,+46,-253,-180
91685,10.675,-4.296,1.631,-0.571171,-0.451444,0.403786,100262.43,+47,-251,-182
91696,10.682,-3.519,1.649,-0.668548,-0.546692,0.417089,100259.71,+47,-251,-182
91705,10.594,-3.469,1.422,-0.648860,-0.595114,0.457529,100259.71,+50,-251,-185
91715,10.556,-4.065,1.449,-0.649392,-0.675995,0.487859,100259.71,+53,-250,-188
91725,10.774,-4.536,1.476,-0.707924,-0.815940,0.513933,100262.84,+55,-249,-191
91736,11.168,-3.471,1.793,-0.895758,-1.004306,0.543731,100261.63,+55,-249,-191
91745,11.032,-2.378,2.244,-1.067630,-1.148508,0.575125,100263.62,+57,-249,-195
91755,10.981,-2.091,2.486,-0.941520,-1.226728,0.659199,100260.70,+63,-247,-198
91765,11.132,-2.598,1.755,-0.794658,-1.219811,0.756575,100260.70,+67,-246,-200
91776,10.985,-3.150,0.956,-0.765392,-1.208104,0.848098,100263.72,+67,-246,-200
91786,10.822,-2.736,0.771,-0.818603,-1.211297,0.941217,100259.47,+72,-245,-203
91795,11.094,-2.158,1.190,-0.860639,-1.261315,1.018373,100259.84,+77,-243,-206
91805,11.540,-2.056,1.677,-0.751025,-1.341664,1.107767,100259.84,+83,-243,-208
91815,12.623,-1.887,2.745,-0.658437,-1.424673,1.215253,100261.91,+83,-243,-208
91826,14.546,-1.174,4.433,-0.561061,-1.497040,1.323272,100261.07,+90,-242,-210
91835,15.898,-0.627,5.330,-0.399300,-1.528967,1.448850,100261.07,+96,-240,-211
91845,15.122,-0.931,5.636,-0.123667,-1.535352,1.575492,100258.71,+104,-241,-211
91855,13.747,-1.198,5.553,-0.015649,-1.503957,1.663290,100262.38,+104,-241,-211
91865,12.919,0.185,6.138,-0.024163,-1.490123,1.745235,100262.38,+113,-239,-212
91871,12.433,0.769,6.397,-0.083227,-1.633792,1.841014,100259.68,+122,-238,-211
91880,11.991,0.774,6.993,-0.057153,-1.811517,1.928813,100259.68,+122,-238,-211
91890,11.649,-0.139,8.112,0.274351,-1.915810,2.029381,100258.59,+130,-239,-210
91900,10.649,-3.126,9.301,0.822956,-1.818966,2.133142,100257.43,+140,-238,-207
91910,9.736,-6.008,10.036,1.240130,-1.557701,2.100684,100257.43,+140,-238,-207
91920,9.456,-7.271,8.541,1.346552,-1.455003,1.994262,100260.79,+149,-239,-202
91930,9.226,-7.010,7.605,1.407212,-1.424141,1.933601,100262.04,+156,-240,-197
91940,8.691,-6.369,7.804,1.363580,-1.462985,1.835693,100257.65,+165,-239,-192
91951,8.242,-5.422,6.750,1.380075,-1.625278,1.671803,100260.15,+172,-240,-185
91960,9.195,-5.991,4.413,1.453506,-2.024893,1.603161,100260.15,+172,-240,-185
91970,10.554,-5.342,8.276,2.213359,-2.773039,1.654776,100260.75,+179,-240,-177
91980,11.246,-0.033,9.577,3.959743,-3.358892,1.538776,100263.78,+188,-243,-161
91991,9.927,4.562,10.667,5.484238,-3.446158,1.361583,100254.06,+194,-245,-138
92000,7.919,4.137,10.322,6.418622,-3.285993,1.321143,100259.03,+194,-245,-138
92010,5.500,1.155,9.571,6.896989,-3.105608,1.188648,100259.03,+198,-245,-113
92020,4.128,-1.320,7.698,6.810787,-2.851792,0.802336,100258.73,+200,-245,-89
92030,4.687,-3.062,6.092,6.030182,-2.442067,0.384630,100262.70,+200,-243,-68
92041,6.210,-4.129,4.416,4.945210,-2.057884,0.029181,100261.07,+200,-243,-68
92050,7.109,-3.624,3.731,3.911853,-1.785444,-0.419920,100255.27,+198,-241,-51
92060,6.973,-1.788,3.414,3.312165,-1.667847,-0.840819,100255.27,+193,-241,-40
92070,6.340,-0.521,3.233,3.123266,-1.638049,-1.188819,100256.16,+187,-239,-28
92081,6.042,-0.428,3.184,3.098789,-1.689132,-1.510745,100262.59,+187,-239,-28
92090,5.981,-1.098,2.554,3.056221,-1.738086,-1.820965,100256.00,+179,-237,-17
92100,5.962,-1.204,2.612,2.889138,-1.669444,-2.109369,100255.80,+170,-236,-6
92106,5.653,-0.852,3.308,2.788037,-1.597609,-2.364781,100255.80,+170,-236,-6
92115,5.361,-0.312,3.416,2.712478,-1.533224,-2.700010,100255.80,+158,-236,+3
92126,5.392,-0.421,3.468,2.644368,-1.371994,-3.092707,100257.83,+146,-234,+11
92135,5.924,-1.694,3.286,2.560294,-1.176178,-3.417826,100253.38,+132,-234,+11
92145,6.610,-3.382,2.927,2.369267,-0.978765,-3.722193,100254.95,+132,-232,+21
92155,7.888,-4.159,2.220,2.047873,-0.795187,-4.055294,100255.23,+118,-230,+26
92166,9.697,-3.897,1.299,1.752552,-0.647793,-4.379881,100253.98,+101,-227,+31
92176,11.277,-3.357,0.110,1.691359,-0.568509,-4.607624,100257.48,+86,-225,+36
92185,12.668,-3.570,-0.503,1.966460,-0.539242,-4.709789,100257.48,+86,-225,+36
92195,14.034,-3.763,0.084,2.485799,-0.585536,-4.729477,100257.79,+69,-218,+43
92206,15.342,-4.542,1.464,3.235010,-0.728141,-4.674138,100254.49,+53,-210,+51
92215,15.905,-6.376,3.610,3.973046,-0.957481,-4.558137,100254.49,+39,-198,+61
92225,15.582,-9.688,5.852,4.504091,-1.279407,-4.412340,100258.87,+39,-198,+61
92235,14.518,-11.538,6.956,4.658403,-1.585370,-4.360193,100258.13,+23,-181,+70
92246,12.681,-13.017,8.542,4.776532,-1.682214,-4.135110,100256.29,+7,-165,+79
92256,10.839,-15.739,9.130,4.779192,-1.604526,-3.720597,100255.46,-3,-148,+86
92265,8.830,-19.765,9.836,4.401926,-1.422013,-3.259790,100255.46,-3,-148,+86
92275,6.566,-23.078,11.042,3.529798,-1.179903,-2.807497,100257.66,-12,-130,+91
92285,4.573,-24.151,12.841,2.208038,-0.871811,-2.378084,100259.23,-20,-120,+94
92296,2.298,-23.368,13.337,0.868185,-0.501995,-1.951332,100259.45,-24,-116,+93
92305,0.459,-22.274,13.086,-0.201887,0.021069,-1.410708,100259.45,-24,-116,+93
92315,-0.411,-22.307,12.184,-1.067630,0.482408,-0.817406,100259.45,-25,-115,+93
92325,1.470,-21.949,11.197,-1.840785,0.851160,-0.311370,100261.28,-24,-120,+91
92336,1.330,-19.896,9.762,-2.302125,1.065068,0.209034,100263.53,-20,-127,+90
92341,3.103,-19.493,5.712,-2.444730,0.982059,0.773602,100261.03,-20,-127,+90
92350,8.835,-19.396,0.222,-2.506455,0.767619,1.466409,100262.44,-15,-136,+86
92360,28.381,1.086,-7.562,-3.001317,-0.250839,1.915510,100262.44,-15,-136,+86
92370,40.824,20.754,-6.523,-2.578822,-0.193903,1.342428,100267.32,-12,-148,+80
92381,25.784,5.124,5.698,-0.080566,0.570206,2.175711,100264.91,-7,-154,+79
92390,3.133,-13.832,10.570,3.530330,0.024794,2.947270,100259.01,-1,-147,+85
92400,-1.117,-18.914,3.459,3.291413,0.253069,3.185123,100257.18,-1,-147,+85
92410,2.620,-3.696,2.666,1.004938,0.728775,2.654610,100257.18,+5,-144,+92
92421,5.132,-0.313,4.247,1.310369,0.680353,2.185822,100261.33,+13,-145,+94
92431,8.698,-3.886,5.579,2.533689,0.291913,2.126757,100260.64,+17,-139,+98
92440,12.201,-11.648,3.620,2.037763,0.175913,2.255528,100258.86,+22,-136,+101
92450,10.565,-14.318,3.281,0.187617,0.369601,1.880391,100261.84,+22,-136,+101
92461,8.335,-7.063,1.904,-1.327832,0.510610,1.346152,100261.84,+27,-140,+100
92471,8.353,-1.626,2.208,-2.006272,0.573931,1.265272,100260.50,+32,-148,+96
92480,9.058,-1.117,2.667,-1.827483,0.540408,1.297198,100264.69,+35,-154,+95
92490,8.828,-2.424,1.330,-1.226199,0.540408,1.166299,100261.50,+35,-154,+95
92500,9.066,-2.061,1.703,-0.330126,0.539344,1.044978,100258.88,+40,-158,+93
92511,9.220,-1.820,2.384,0.564351,0.405784,0.981657,100258.88,+43,-157,+94
92521,9.200,-3.722,1.758,1.063470,0.414830,1.016244,100264.94,+47,-154,+97
92530,8.799,-5.708,2.129,0.933635,0.559032,1.022097,100262.17,+47,-154,+97
92540,8.441,-6.639,3.127,0.492516,0.635656,0.900244,100258.72,+51,-152,+98
92551,8.719,-7.284,4.070,-0.181667,0.674500,0.716667,100256.63,+55,-153,+98
92560,8.254,-6.480,4.883,-1.120309,0.771876,0.496373,100256.63,+57,-158,+96
92570,7.646,-3.712,4.088,-1.816308,0.843711,0.289914,100264.17,+57,-158,+96
92580,8.147,-1.741,3.155,-1.809923,0.841050,0.194667,100266.69,+61,-163,+93
92591,9.091,-1.122,2.601,-1.205446,0.711215,0.218080,100260.78,+63,-166,+90
92601,9.548,-1.793,2.309,-0.315759,0.529234,0.303749,100260.78,+65,-168,+91
92610,9.044,-3.182,2.524,0.222204,0.402592,0.369731,100260.78,+65,-168,+91
92620,8.439,-3.242,3.799,0.339800,0.331289,0.396868,100264.41,+67,-167,+91
92631,7.743,-2.673,4.534,0.262112,0.311069,0.405914,100262.89,+69,-165,+92
92641,7.700,-3.241,4.707,0.072681,0.367473,0.426135,100262.63,+71,-166,+92
92650,8.050,-4.098,4.410,-0.188585,0.393546,0.419217,100264.25,+71,-166,+92
92660,8.412,-3.588,3.911,-0.342896,0.396206,0.406979,100264.25,+73,-167,+92
92670,8.681,-3.481,3.622,-0.505190,0.372262,0.456465,100263.30,+75,-168,+91
92681,9.158,-2.828,3.514,-0.496144,0.367473,0.501694,100264.03,+78,-171,+90
92691,9.319,-2.960,3.098,-0.489759,0.374922,0.561823,100260.16,+78,-171,+90
92696,9.252,-3.308,3.036,-0.567447,0.394610,0.605456,100259.22,+80,-172,+88
92705,9.428,-3.159,3.225,-0.585006,0.427069,0.673033,100259.22,+82,-175,+88
92716,9.323,-3.301,3.506,-0.528071,0.487729,0.768813,100259.22,+82,-175,+88
92726,9.237,-4.053,2.927,-0.603630,0.516463,0.846501,100263.44,+87,-175,+86
92736,9.724,-4.720,2.709,-0.741979,0.534555,0.928978,100264.64,+90,-177,+85
92745,10.696,-4.828,2.342,-0.901612,0.554775,0.983786,100261.31,+94,-179,+83
92755,11.245,-4.690,1.969,-1.006969,0.570738,1.046042,100261.31,+94,-179,+83
92766,11.121,-3.977,2.250,-0.994199,0.539876,1.131712,100263.06,+98,-183,+81
92776,10.804,-3.788,2.514,-0.889373,0.495711,1.239198,100263.06,+103,-185,+78
92785,10.669,-4.177,3.094,-0.860639,0.444096,1.318483,100261.33,+108,-187,+76
92795,10.793,-4.378,3.559,-0.882988,0.402060,1.371694,100258.41,+108,-187,+76
92806,11.398,-4.439,3.848,-0.953226,0.396739,1.435015,100261.23,+113,-189,+74
92816,12.110,-3.850,4.105,-1.091043,0.407913,1.538776,100261.23,+118,-192,+71
92826,12.072,-3.176,4.289,-1.224602,0.399399,1.695748,100262.38,+124,-193,+68
92835,12.394,-2.493,4.205,-1.313997,0.352041,1.851657,100263.96,+124,-193,+68
92846,13.021,-2.580,3.054,-1.293244,0.282335,2.043216,100260.91,+130,-197,+65
92856,13.791,-3.397,1.728,-1.267171,0.251473,2.232647,100262.67,+136,-198,+60
92866,14.945,-3.703,1.139,-1.341134,0.231252,2.403986,100261.16,+143,-200,+57
92875,16.285,-3.640,1.143,-1.519391,0.253069,2.548188,100262.16,+143,-200,+57
92886,17.855,-3.272,1.668,-1.745006,0.290317,2.624812,100259.17,+151,-202,+53
92896,19.677,-1.192,3.033,-2.061079,0.292977,2.672702,100259.17,+160,-204,+47
92906,21.865,2.534,4.549,-2.418124,0.240298,2.749326,100262.16,+168,-206,+41
92915,22.916,5.343,5.783,-2.424510,0.174317,2.885014,100262.16,+168,-206,+41
92925,21.997,4.473,5.470,-2.111629,0.066298,3.049968,100261.12,+177,-209,+35
92936,20.252,0.224,6.535,-1.805134,-0.008729,3.171289,100259.02,+187,-208,+29
92946,18.484,-5.463,7.527,-1.295905,-0.198692,3.322940,100260.34,+196,-206,+26
92956,17.727,-10.394,7.288,-0.774970,-0.409408,3.502261,100258.55,+196,-206,+26
92965,16.709,-9.597,7.418,-0.786144,-0.363646,3.322408,100258.55,+206,-203,+25
92976,14.914,-4.344,8.330,-0.448786,-0.255628,2.957381,100263.08,+214,-199,+23
92986,13.779,0.605,6.501,-0.126328,-0.431756,2.544463,100260.22,+220,-195,+25
92996,11.443,4.358,3.386,-0.042787,-0.651518,2.084721,100261.48,+220,-195,+25
93005,6.241,3.889,3.019,0.054057,-0.537114,1.764391,100261.48,+224,-191,+25
93016,0.782,-1.362,4.212,0.781984,-0.433885,1.473327,100261.48,+228,-187,+26
93026,-1.449,-5.050,7.910,1.524277,0.060977,1.001345,100261.99,+230,-183,+31
93036,1.414,-4.576,5.943,1.198093,0.198262,0.142520,100259.95,+230,-183,+31
93045,4.061,-2.765,3.750,-0.040126,0.158353,-0.536984,100259.63,+231,-182,+32
93056,4.800,-0.180,0.734,-1.389024,0.125895,-1.081864,100261.41,+228,-185,+29
93066,4.694,2.045,-0.970,-2.504326,0.116849,-1.559167,100261.41,+223,-193,+23
93076,3.738,3.828,-1.959,-2.802840,0.094500,-1.914084,100260.27,+223,-193,+23
93086,2.982,4.708,-1.930,-2.061611,0.113656,-2.150341,100260.78,+217,-201,+18
93095,2.919,4.747,-0.690,-0.898951,0.204647,-2.412139,100256.97,+210,-206,+13
93106,3.058,3.582,0.890,0.019470,0.252537,-2.715441,100256.97,+203,-211,+13
93116,3.271,1.574,1.458,0.605855,0.216885,-3.012359,100257.94,+193,-211,+13
93126,3.728,-0.356,1.976,0.899580,0.275950,-3.259790,100257.94,+193,-214,+16
93135,4.738,-1.802,2.329,0.766552,0.434518,-3.482744,100253.28,+184,-217,+18
93146,5.563,-1.647,2.192,0.368002,0.550518,-3.779129,100254.75,+174,-221,+18
93156,5.948,0.356,1.836,0.139727,0.577124,-4.183000,100253.75,+160,-221,+18
93166,6.123,1.615,1.520,0.374033,0.513803,-4.562395,100260.81,+160,-225,+18
93175,6.521,0.853,1.567,0.861800,0.471234,-4.755550,100260.81,+146,-228,+21
93186,7.618,-0.241,1.977,1.442332,0.449417,-4.975312,100258.41,+130,-229,+25
93196,9.241,-1.533,2.260,1.835029,0.412702,-5.203587,100253.80,+115,-228,+31
93206,10.802,-2.523,1.975,2.032442,0.371729,-5.426541,100254.31,+115,-228,+31
93216,11.478,-3.485,1.764,2.098955,0.342996,-5.580320,100255.80,+97,-225,+36
93225,11.143,-4.757,1.785,2.200056,0.299895,-5.702174,100258.41,+80,-220,+43
93236,11.653,-5.854,2.058,2.252735,0.231785,-5.821898,100258.89,+62,-213,+49
93246,14.188,-6.686,2.651,2.129817,0.159418,-5.905972,100258.89,+62,-213,+49
93256,16.698,-7.413,3.657,1.860038,0.106739,-5.971421,100259.88,+45,-205,+54
93265,17.822,-8.609,5.227,1.736588,0.072684,-6.031549,100259.88,+27,-197,+58
93276,18.056,-10.950,6.306,1.825983,0.012555,-6.062412,100259.49,+12,-188,+62
93286,17.729,-13.109,7.239,1.959010,0.048207,-6.029953,100257.87,+12,-188,+62
93296,16.991,-15.939,7.582,2.064368,0.096097,-5.838394,100256.99,-2,-174,+67
93306,16.966,-19.034,6.507,2.048937,0.062574,-5.462724,100255.10,-15,-161,+71
93316,16.127,-21.779,4.826,1.911653,0.042353,-4.931679,100255.10,-26,-150,+75
93326,13.018,-21.570,3.451,1.476387,0.097693,-4.324009,100262.23,-26,-150,+75
93336,9.070,-23.819,6.286,1.305580,0.199858,-3.460395,100261.45,-33,-138,+77
93346,5.300,-27.443,7.434,0.880424,0.157289,-2.444598,100257.57,-38,-131,+80
93356,2.730,-28.073,6.963,-0.073117,0.261583,-1.314929,100257.57,-39,-130,+79
93366,3.015,-26.174,5.579,-1.011226,0.474427,-0.067663,100257.57,-39,-130,+79
93376,4.826,-23.271,5.267,-1.340602,0.538280,1.129052,100263.06,-36,-134,+78
93386,8.449,-19.796,4.755,-1.042621,0.379711,2.020335,100262.11,-31,-140,+76
93395,9.457,-15.011,2.250,-0.645667,0.142390,2.751986,100264.73,-27,-147,+76
93402,13.851,-4.682,1.860,-0.461025,-0.120472,3.094665,100258.41,-27,-147,+76
93411,22.500,15.875,0.439,-0.670676,-0.554674,2.508812,100258.41,-22,-152,+75
93421,27.108,34.986,-9.480,-1.251740,-0.664288,0.807657,100267.02,-23,-157,+71
93431,19.020,12.698,-10.593,-0.695153,0.146647,1.323272,100268.96,-23,-157,+71
93441,15.717,-14.582,11.574,2.629469,0.153564,3.614004,100260.79,-15,-160,+75
93451,11.333,-28.371,11.839,4.140660,-0.073646,3.805563,100259.59,-6,-152,+82
93461,10.319,-17.797,3.001,1.657304,0.605326,3.020169,100259.59,+1,-154,+85
93471,10.953,-0.634,1.333,0.734626,0.719197,2.828078,100264.05,+1,-154,+85
93480,2.568,0.716,8.135,2.241029,0.534023,2.475289,100260.17,+8,-153,+89
93491,1.598,-5.298,9.480,2.514533,-0.042252,2.213491,100261.17,+13,-146,+94
93501,8.746,-15.447,1.042,0.548920,-0.274784,2.361950,100261.06,+18,-150,+95
93511,11.056,-15.887,-0.760,-1.562492,0.363748,1.906996,100261.06,+18,-150,+95
93520,11.344,-6.698,2.734,-2.683115,0.844775,1.433950,100266.16,+24,-157,+90
93531,10.673,-0.604,4.424,-2.991207,0.806463,1.338703,100264.16,+29,-167,+84
93541,8.485,0.739,3.094,-2.437813,0.689931,1.204611,100261.02,+33,-176,+80
93551,6.933,0.099,2.224,-1.500767,0.671839,1.074776,100260.34,+33,-176,+80
93560,8.878,0.873,2.678,-0.451979,0.592555,1.086483,100260.34,+38,-179,+78
93571,9.949,-1.065,3.775,0.474956,0.387693,1.134373,100264.42,+41,-179,+80
93581,10.260,-3.508,3.231,0.731433,0.243491,1.226428,100263.27,+45,-178,+81
93591,9.185,-4.819,3.328,0.414828,0.288188,1.237602,100262.17,+45,-178,+81
93601,8.344,-6.175,4.904,-0.264144,0.397803,1.077969,100258.83,+49,-178,+81
93611,7.686,-6.648,6.429,-1.349648,0.563289,0.812978,100258.83,+53,-182,+78
93621,7.783,-3.923,6.065,-2.259024,0.695784,0.495309,100261.35,+55,-189,+74
93631,8.533,-0.734,4.589,-2.408546,0.746867,0.297364,100264.29,+55,-189,+74
93641,9.180,0.371,3.207,-1.949336,0.697381,0.279804,100262.93,+59,-193,+69
93650,10.137,-0.312,2.089,-1.246951,0.542005,0.441034,100262.35,+61,-197,+66
93661,10.420,-2.105,2.168,-0.603098,0.391418,0.611309,100262.35,+64,-200,+65
93671,9.995,-3.739,2.681,-0.324273,0.309473,0.701235,100264.80,+64,-200,+65
93681,9.206,-4.657,3.638,-0.463685,0.314794,0.715602,100261.61,+66,-200,+64
93691,8.715,-4.516,4.225,-0.773373,0.304152,0.666648,100260.45,+69,-202,+62
93701,8.534,-3.506,4.261,-0.995795,0.320115,0.604923,100258.47,+72,-205,+60
93711,8.426,-2.979,4.405,-1.063905,0.329161,0.594281,100258.47,+72,-205,+60
93721,8.327,-2.950,4.240,-1.043685,0.299895,0.621951,100263.55,+74,-208,+57
93731,8.338,-2.887,3.862,-0.993134,0.265840,0.669309,100263.55,+76,-210,+55
93741,8.449,-2.969,3.379,-0.935667,0.246152,0.731033,100262.20,+79,-213,+52
93751,8.645,-3.287,3.368,-0.905336,0.238170,0.799676,100258.90,+79,-213,+52
93761,8.839,-3.660,3.101,-0.921300,0.171124,0.862465,100258.90,+82,-214,+50
93771,8.985,-3.742,2.892,-0.920235,0.112060,0.901841,100262.56,+85,-216,+48
93780,9.116,-3.708,2.686,-0.889373,0.095032,0.944942,100261.09,+88,-219,+45
93791,9.218,-4.011,2.816,-0.828713,0.097161,0.977932,100263.30,+88,-219,+45
93801,9.370,-4.240,2.910,-0.799979,0.076941,1.002941,100260.16,+92,-220,+42
93811,9.505,-4.319,3.030,-0.807960,0.039161,1.043382,100260.16,+94,-222,+41
93821,9.768,-3.974,2.948,-0.777098,0.001913,1.113088,100265.06,+98,-225,+38
93831,9.541,-3.530,2.340,-0.794125,-0.026821,1.198758,100264.17,+98,-225,+38
93841,9.491,-2.808,2.588,-0.815410,-0.041720,1.327528,100262.55,+102,-226,+36
93851,10.063,-2.432,3.508,-0.801575,-0.157720,1.486097,100263.97,+106,-227,+33
93861,11.150,-2.342,3.881,-0.761135,-0.307243,1.651583,100263.97,+111,-228,+32
93872,12.665,-2.543,4.120,-0.695153,-0.409940,1.836048,100265.61,+116,-228,+30
93881,13.432,-3.390,3.847,-0.687171,-0.484435,1.985748,100263.83,+116,-228,+30
93891,13.597,-3.526,3.195,-0.789869,-0.485499,2.143253,100258.02,+122,-230,+28
93901,14.015,-3.617,2.313,-0.995795,-0.483371,2.288519,100262.09,+128,-231,+25
93911,15.292,-2.862,1.913,-1.193208,-0.520087,2.452408,100262.09,+135,-230,+22
93921,16.387,-2.550,2.042,-1.332621,-0.548820,2.623216,100267.23,+135,-230,+22
93931,17.332,-2.440,2.406,-1.471501,-0.538710,2.780188,100270.53,+142,-232,+18
93941,19.100,-1.210,2.884,-1.765758,-0.461022,2.921197,100264.30,+151,-233,+12
93952,21.087,1.611,4.370,-2.176015,-0.349811,3.012720,100262.11,+161,-234,+6
93961,22.275,5.050,6.155,-2.388326,-0.333316,3.110628,100262.11,+161,-234,+6
93971,21.687,6.837,7.430,-2.194106,-0.322142,3.244720,100260.61,+172,-235,+0
93981,19.645,4.291,8.705,-1.668914,-0.294472,3.407545,100260.56,+182,-234,-5
93991,16.851,-2.951,9.221,-1.001116,-0.354600,3.620389,100261.14,+193,-229,-8
94001,16.735,-11.614,9.979,-0.387062,-0.535518,3.919967,100261.08,+193,-229,-8
94011,19.808,-13.297,8.857,-0.576493,-0.575426,3.932738,100261.08,+205,-224,-8
94021,19.604,-6.822,9.788,-0.653116,-0.481775,3.628371,100263.55,+216,-218,-10
94031,16.875,-0.368,8.285,-0.093337,-0.569041,3.300059,100265.07,+225,-214,-8
94041,14.910,4.514,5.433,0.437709,-0.860637,2.700904,100262.77,+225,-214,-8
94051,10.641,6.756,3.336,0.740479,-1.101150,2.065565,100260.41,+230,-208,-6
94061,3.632,3.296,3.880,1.162442,-1.081994,1.771308,100260.41,+234,-204,+0
94071,-1.870,-4.770,5.508,1.908460,-0.798912,1.696813,100263.51,+237,-197,+5
94082,-0.974,-7.651,9.134,2.286790,-0.382802,1.192905,100257.32,+237,-197,+5
94091,2.472,-6.186,6.775,1.509910,-0.757407,0.237236,100262.62,+237,-193,+11
94101,2.696,-3.530,3.208,0.246149,-0.967591,-0.515700,100259.32,+235,-193,+13
94111,2.475,-1.119,0.155,-1.057520,-0.766985,-1.035571,100259.32,+230,-196,+11
94121,2.208,0.986,-1.705,-2.110033,-0.653646,-1.528305,100262.64,+230,-196,+11
94131,1.457,2.631,-1.709,-2.373959,-0.518490,-1.889607,100261.39,+223,-204,+6
94141,0.915,3.601,-1.054,-1.705097,-0.438674,-2.188121,100259.70,+216,-210,+1
94151,1.112,4.013,0.421,-0.650456,-0.313628,-2.551552,100257.20,+208,-214,+1
94161,1.339,2.949,2.103,0.207837,-0.180600,-2.919240,100257.20,+208,-214,+1
94172,1.583,1.000,3.098,0.726112,-0.062472,-3.178909,100258.81,+198,-218,+3
94181,2.374,-0.882,3.354,0.725580,0.118977,-3.361423,100258.91,+189,-221,+6
94191,3.447,-1.590,2.703,0.292975,0.331821,-3.592358,100256.66,+177,-224,+6
94201,4.173,0.125,2.342,-0.122071,0.542537,-3.963771,100254.94,+177,-224,+6
94212,5.066,1.760,2.393,0.056718,0.561161,-4.340505,100254.94,+165,-230,+5
94221,6.520,1.466,1.560,0.854883,0.467509,-4.546963,100262.54,+151,-233,+7
94227,7.774,-0.016,1.743,1.591855,0.458463,-4.636890,100255.48,+151,-233,+7
94236,8.758,-1.839,2.067,2.207506,0.410573,-4.744908,100255.48,+135,-233,+13
94246,10.014,-3.424,2.348,2.725248,0.290317,-4.962541,100255.52,+120,-231,+21
94257,10.902,-4.157,2.456,2.915212,0.146115,-5.155165,100256.84,+103,-227,+30
94266,11.313,-5.045,2.595,3.018973,0.021069,-5.269036,100256.84,+103,-227,+30
94276,11.439,-6.197,3.067,3.146679,-0.098656,-5.388761,100259.58,+87,-220,+39
94286,12.238,-6.671,3.277,3.037597,-0.198160,-5.532431,100258.72,+69,-213,+47
94297,13.844,-6.580,3.605,2.590092,-0.219445,-5.685146,100260.34,+52,-204,+54
94306,14.893,-6.113,4.559,2.126625,-0.165169,-5.824027,100260.34,+52,-204,+54
94316,15.330,-6.464,5.666,1.922295,-0.069922,-5.927788,100260.34,+35,-195,+59
94326,15.688,-8.202,6.751,1.862698,0.027454,-5.983660,100259.40,+19,-186,+62
94337,16.302,-10.571,7.088,1.699341,0.113124,-5.987384,100257.93,+5,-175,+66
94346,16.706,-13.045,6.666,1.492350,0.206243,-5.899586,100258.82,+5,-175,+66
94356,17.224,-15.678,5.188,1.219910,0.307344,-5.676632,100257.04,-6,-163,+70
94366,16.852,-18.077,3.621,0.953323,0.372794,-5.322247,100257.04,-18,-153,+71
94376,14.594,-19.258,2.532,0.668644,0.412702,-4.863569,100260.69,-27,-142,+74
94387,11.792,-18.886,3.075,0.344589,0.428133,-4.225037,100259.70,-27,-142,+74
94396,8.914,-22.020,5.852,0.423874,0.407381,-3.377918,100261.22,-33,-134,+74
94406,5.482,-24.481,6.099,0.235507,0.312133,-2.478653,100261.22,-37,-130,+75
94416,2.927,-24.970,4.758,-0.210401,0.285528,-1.420818,100264.17,-38,-129,+75
94427,2.942,-25.258,3.669,-0.440273,0.274353,-0.124067,100264.17,-38,-129,+75
94436,4.595,-25.144,3.622,-0.421117,0.208904,1.112556,100264.42,-36,-130,+75
94446,8.736,-21.228,3.954,-0.366309,0.183895,2.025124,100267.36,-33,-134,+75
94456,9.609,-16.924,1.604,-0.323740,0.129619,2.588629,100264.27,-27,-140,+75
94461,12.278,-8.111,2.277,-0.369502,0.017876,3.027619,100264.27,-27,-140,+75
94472,19.748,9.733,0.724,-0.509447,-0.259885,2.724317,100264.15,-22,-145,+73
94481,26.721,30.759,-7.736,-1.462987,-0.388123,1.192905,100261.79,-20,-150,+70
94491,21.413,14.972,-13.141,-1.226199,0.041821,1.054024,100263.57,-20,-150,+70
94501,19.681,-11.858,4.411,1.560460,0.054592,3.287821,100263.88,-15,-154,+71
94512,14.403,-23.702,14.706,3.346753,-0.165701,3.913582,100263.88,-7,-150,+77
94521,7.902,-14.779,4.874,2.074478,0.280207,3.049968,100261.08,+0,-150,+81
94531,9.317,-2.955,4.616,1.684974,0.810188,3.014316,100263.02,+0,-150,+81
94541,3.505,-2.218,7.395,2.597010,0.643105,2.855748,100259.66,+8,-148,+86
94552,0.747,-6.446,8.840,2.243689,0.338739,2.345986,100263.02,+15,-143,+91
94561,6.207,-11.008,4.485,0.562754,0.163142,2.271491,100263.02,+19,-146,+91
94571,10.869,-12.432,1.461,-1.166070,0.371729,2.042684,100260.77,+19,-146,+91
94581,12.474,-8.487,2.042,-2.222840,0.628738,1.688299,100263.65,+26,-152,+90
94592,10.877,-3.576,4.094,-2.737922,0.748463,1.475455,100263.18,+30,-160,+85
94602,8.698,-1.884,1.962,-2.469739,0.607454,1.296666,100264.12,+35,-169,+80
94611,8.408,-0.489,0.614,-1.715207,0.630335,1.196097,100264.12,+35,-169,+80
94621,8.827,0.050,1.969,-0.736125,0.643638,1.166831,100262.99,+40,-173,+78
94631,8.836,-0.860,2.799,0.311599,0.417491,1.195565,100263.46,+43,-173,+78
94642,8.971,-2.734,2.985,0.959176,0.294574,1.262079,100260.63,+47,-171,+81
94651,8.830,-4.997,3.393,1.028350,0.340335,1.253033,100261.52,+47,-171,+81
94661,8.351,-6.423,5.190,0.507415,0.439307,1.097125,100261.52,+52,-169,+83
94671,8.072,-6.419,6.745,-0.449318,0.470702,0.797547,100266.04,+55,-170,+81
94682,8.174,-4.758,6.397,-1.330492,0.501032,0.480942,100266.40,+57,-175,+80
94692,8.683,-3.144,5.561,-1.780657,0.554775,0.301089,100261.63,+57,-175,+80
94701,8.880,-1.378,4.083,-1.839189,0.522849,0.202116,100261.32,+60,-181,+76
94711,9.067,-0.150,2.451,-1.541740,0.470702,0.270758,100261.32,+62,-185,+72
94722,9.377,-0.116,1.568,-0.904272,0.377583,0.467107,100262.55,+63,-187,+71
94732,9.538,-1.796,2.017,-0.220511,0.265307,0.648556,100264.28,+63,-187,+71
94741,8.890,-4.259,3.285,0.114186,0.192941,0.716667,100260.67,+66,-188,+71
94751,8.495,-5.098,4.150,-0.069392,0.198794,0.690061,100262.92,+68,-187,+71
94761,8.268,-4.317,4.898,-0.465282,0.248812,0.612905,100262.92,+69,-189,+70
94772,8.078,-3.615,5.148,-0.780291,0.292445,0.530428,100261.29,+69,-189,+70
94781,8.069,-3.346,4.916,-1.014419,0.314262,0.475089,100261.45,+73,-191,+67
94791,8.317,-2.627,4.423,-1.134676,0.305216,0.467639,100263.85,+73,-194,+65
94801,8.355,-2.137,4.093,-1.070823,0.279674,0.519786,100262.54,+76,-197,+62
94812,8.409,-2.574,3.507,-0.916511,0.247216,0.603859,100262.54,+76,-197,+62
94822,8.643,-3.299,2.912,-0.835098,0.249344,0.685272,100262.88,+80,-200,+60
94831,9.083,-4.116,2.588,-0.874474,0.286592,0.750189,100262.56,+81,-201,+58
94841,9.352,-4.518,2.500,-0.997923,0.317986,0.795419,100263.25,+85,-204,+55
94852,9.225,-4.412,2.589,-1.158089,0.356830,0.849162,100259.80,+85,-204,+55
94862,9.167,-3.949,2.403,-1.265575,0.372794,0.922061,100259.80,+88,-206,+52
94871,9.280,-3.437,2.398,-1.310804,0.360555,1.015180,100265.07,+92,-210,+49
94881,9.428,-2.717,2.607,-1.245355,0.317986,1.125327,100264.91,+95,-214,+45
94892,9.699,-2.506,3.388,-1.099557,0.228592,1.249308,100262.93,+101,-214,+42
94902,10.245,-2.781,3.677,-0.991006,0.083326,1.374886,100260.88,+101,-214,+42
94911,10.978,-2.866,3.881,-0.914382,0.017876,1.528134,100260.88,+104,-216,+40
94921,11.866,-3.308,4.225,-0.861171,-0.053426,1.677125,100266.45,+110,-217,+37
94931,13.251,-3.960,4.183,-0.835275,-0.170136,1.803767,100263.47,+115,-219,+36
94942,13.426,-4.086,3.762,-0.885116,-0.298729,1.961271,100257.61,+115,-219,+36
94952,13.510,-3.580,3.683,-0.917575,-0.401426,2.050666,100261.80,+120,-220,+33
94961,13.732,-3.739,3.354,-1.043153,-0.558398,2.298629,100261.80,+126,-222,+31
94971,14.490,-4.166,3.420,-1.113391,-0.656839,2.535418,100264.09,+133,-222,+27
94982,15.278,-5.009,3.501,-1.210235,-0.689297,2.667913,100263.57,+133,-222,+27
94992,16.674,-5.189,3.231,-1.505556,-0.607885,2.720060,100259.74,+140,-223,+24
95001,18.637,-3.016,3.422,-2.095666,-0.450912,2.683344,100263.04,+148,-225,+18
95011,20.407,0.884,3.872,-2.547959,-0.389188,2.666317,100263.04,+156,-226,+10
95022,21.914,4.244,4.665,-2.623519,-0.431756,2.801472,100262.34,+156,-226,+10
95032,22.757,5.838,5.086,-2.386198,-0.431756,3.031344,100260.41,+165,-228,+3
95041,21.270,5.098,5.953,-2.049372,-0.377481,3.201619,100260.41,+175,-228,-2
95051,17.807,1.933,7.562,-1.599740,-0.351940,3.296867,100261.56,+185,-226,-6
95062,14.158,-4.375,9.836,-0.822327,-0.371096,3.443197,100261.56,+185,-226,-6
95072,13.380,-11.269,9.305,0.081727,-0.477518,3.674664,100262.57,+196,-222,-6
95082,16.085,-11.900,7.280,-0.008199,-0.428032,3.698609,100261.59,+208,-216,-6
95091,17.049,-7.035,8.298,-0.231685,-0.407279,3.460224,100259.43,+217,-211,-6
95101,15.424,-1.639,6.517,-0.066731,-0.629169,3.102114,100263.57,+217,-211,-6
95112,12.128,1.370,6.328,0.242424,-0.597242,2.722188,100263.57,+224,-206,-5
95122,7.676,1.541,6.440,0.621287,-0.391316,2.189014,100261.46,+231,-201,-4
95131,2.569,-2.022,6.726,0.784644,-0.056619,1.562721,100265.07,+235,-196,-3
95141,0.993,-3.910,7.200,0.454204,0.238702,0.905033,100260.79,+235,-196,-3
95152,2.286,-4.240,5.281,-0.917575,0.101418,0.214355,100259.95,+238,-195,-3
95162,3.101,-2.711,2.151,-2.335115,-0.145481,-0.508782,100259.95,+236,-198,-9
95171,3.227,-0.105,0.244,-3.368473,-0.162509,-1.097828,100264.94,+233,-204,-17
95181,3.201,2.515,-0.763,-3.508417,-0.258289,-1.468176,100257.66,+233,-204,-17
95192,2.749,4.159,-1.573,-2.673537,-0.300325,-1.756047,100258.81,+228,-211,-25
95202,2.512,4.389,-1.249,-1.522584,-0.209867,-1.995497,100261.16,+222,-216,-30
95211,2.503,4.061,-0.343,-0.462089,-0.163041,-2.266341,100261.16,+216,-220,-31
95221,2.275,2.542,0.342,0.454736,-0.171555,-2.521754,100263.26,+216,-220,-31
95232,2.205,0.372,1.398,1.066662,-0.152399,-2.721827,100259.34,+207,-224,-28
95242,3.000,-0.994,2.711,1.209800,-0.085885,-2.955955,100258.65,+197,-226,-23
95252,3.665,-0.963,3.316,1.095928,0.015216,-3.256065,100257.66,+188,-230,-21
95261,3.618,0.302,3.733,1.064534,0.140794,-3.588102,100257.66,+188,-230,-21
95271,3.334,1.745,3.803,1.373158,0.205179,-3.902046,100258.24,+176,-232,-18
95282,4.217,2.200,3.759,1.982423,0.215289,-4.138303,100258.46,+163,-234,-12
95287,5.423,1.782,3.818,2.512404,0.207308,-4.283569,100253.59,+163,-234,-12
95296,6.326,0.532,4.015,2.883817,0.213693,-4.419257,100253.59,+150,-234,-5
