50020,8.589,-3.677,2.956,-0.019088,-0.035389,0.023569,99721.10,-74,-195,+16
50029,8.603,-3.652,2.933,-0.012171,-0.038582,0.029423,99720.16,-74,-193,+17
50039,8.573,-3.795,2.887,-0.006850,-0.040178,0.032083,99719.43,-73,-194,+15
50050,8.610,-3.778,2.863,-0.000464,-0.037518,0.031551,99719.43,-74,-195,+15
50060,8.595,-3.748,2.912,0.003792,-0.035389,0.030487,99719.69,-74,-195,+14
50070,8.589,-3.772,2.908,0.003260,-0.032197,0.031551,99720.58,-74,-195,+14
50079,8.582,-3.828,2.942,-0.006850,-0.033793,0.032083,99719.69,-72,-194,+15
50089,8.547,-3.732,2.994,-0.012703,-0.035921,0.031551,99719.69,-74,-194,+14
50100,8.559,-3.812,2.900,-0.013235,-0.036986,0.031551,99720.34,-74,-194,+15
50110,8.546,-3.799,2.838,-0.014831,-0.034857,0.029423,99719.61,-74,-194,+15
50119,8.573,-3.792,2.889,-0.010575,-0.030068,0.026230,99719.61,-72,-194,+14
50129,8.596,-3.807,2.868,-0.002593,-0.028472,0.024634,99721.75,-74,-195,+14
50140,8.619,-3.780,2.827,0.000068,-0.023151,0.022505,99718.05,-73,-195,+15
50150,8.595,-3.763,2.881,-0.003657,-0.020490,0.023569,99718.05,-73,-195,+15
50155,8.566,-3.790,2.858,-0.003657,-0.019958,0.025166,99721.07,-72,-195,+14
50164,8.575,-3.688,2.846,-0.002593,-0.017830,0.026230,99719.51,-72,-195,+14
50174,8.588,-3.763,2.891,-0.007914,-0.014105,0.030487,99719.04,-73,-195,+14
50185,8.565,-3.824,2.742,-0.008978,-0.011976,0.030487,99718.41,-72,-195,+14
50195,8.529,-3.855,2.690,-0.003125,-0.007187,0.027294,99718.41,-72,-195,+14
50204,8.522,-3.943,2.826,0.002196,0.006115,0.016120,99718.66,-72,-195,+14
50214,8.601,-4.101,2.778,-0.003657,0.017290,-0.001972,99717.62,-72,-194,+14
50225,8.595,-4.058,2.669,-0.026006,0.029528,-0.022192,99721.80,-73,-195,+14
50235,8.557,-3.943,2.818,-0.029731,0.033785,-0.041348,99717.57,-72,-195,+14
50244,8.520,-3.831,3.009,-0.004189,0.027932,-0.058376,99717.57,-72,-195,+14
50254,8.582,-3.841,3.065,0.018159,0.018886,-0.071146,99722.20,-72,-195,+16
50265,8.522,-3.916,3.059,0.034655,0.002390,-0.087642,99718.07,-73,-195,+14
50275,8.582,-3.938,2.972,0.052746,-0.005059,-0.098816,99716.98,-72,-195,+15
50285,8.577,-3.791,2.942,0.053811,-0.005591,-0.103073,99718.65,-74,-195,+15
50294,8.546,-3.635,2.864,0.045297,-0.003463,-0.098816,99718.65,-74,-193,+15
50305,8.634,-3.575,2.814,0.033058,0.003987,-0.090834,99718.45,-74,-194,+14
50315,8.661,-3.502,2.817,0.025077,0.008244,-0.077532,99719.19,-74,-194,+14
50325,8.711,-3.511,2.834,0.036251,0.008776,-0.062632,99717.05,-74,-194,+15
50334,8.681,-3.562,3.033,0.055407,-0.001334,-0.055715,99717.05,-74,-194,+15
50344,8.599,-3.626,3.039,0.068178,-0.010380,-0.048265,99717.05,-75,-194,+15
50355,8.563,-3.817,2.953,0.054875,-0.016765,-0.041880,99718.51,-74,-193,+15
50365,8.482,-3.790,2.943,0.031462,-0.013573,-0.043476,99720.18,-75,-193,+16
50375,8.520,-3.687,2.850,0.003792,-0.007187,-0.047201,99718.10,-75,-193,+16
50384,8.558,-3.409,2.700,-0.007914,-0.007720,-0.040816,99717.79,-74,-194,+16
50391,8.583,-3.272,2.566,-0.002593,-0.009316,-0.026981,99717.79,-74,-194,+16
50400,8.571,-3.172,2.567,0.026673,-0.015169,-0.004632,99717.79,-74,-194,+15
50410,8.706,-3.002,2.519,0.094251,-0.019426,0.029955,99721.68,-76,-193,+16
50420,8.707,-3.167,2.669,0.166618,-0.018362,0.065606,99720.01,-74,-194,+16
50429,8.555,-3.695,2.774,0.242178,-0.014105,0.075716,99718.71,-74,-194,+16
50440,8.396,-4.077,2.694,0.292728,-0.005059,0.066138,99718.02,-74,-194,+17
50450,8.525,-4.068,2.420,0.260269,0.001858,0.034744,99720.11,-74,-194,+18
50460,8.559,-3.640,2.744,0.184178,0.017822,0.013991,99718.75,-74,-194,+19
50469,8.557,-3.373,3.134,0.183113,0.018354,0.010267,99718.75,-74,-194,+19
50480,8.418,-3.179,3.315,0.259205,-0.003463,0.021441,99718.91,-74,-194,+18
50490,8.122,-3.126,3.333,0.362434,-0.024215,0.044322,99717.66,-74,-194,+19
50500,8.296,-3.599,3.243,0.437994,-0.030068,0.058156,99717.66,-74,-195,+21
50509,8.469,-4.015,3.407,0.412985,-0.029004,0.054964,99718.56,-73,-194,+22
50520,8.431,-4.110,3.234,0.304967,-0.009316,0.043790,99717.56,-73,-194,+22
50530,8.991,-4.007,2.998,0.164490,0.010372,0.035808,99716.16,-74,-195,+23
50540,9.366,-3.658,3.434,0.073499,0.001326,0.039001,99717.47,-72,-195,+23
50550,9.284,-3.438,4.019,0.062324,-0.044435,0.057092,99716.70,-73,-195,+24
50560,9.070,-3.564,4.111,0.113407,-0.129041,0.066670,99719.88,-73,-195,+24
50570,8.675,-3.726,3.870,0.147994,-0.189701,0.062945,99720.26,-74,-195,+24
50580,8.451,-4.349,3.483,0.126178,-0.208857,0.036340,99718.95,-72,-195,+24
50589,8.441,-4.626,3.169,0.031462,-0.196619,-0.011550,99718.95,-73,-195,+23
50599,8.618,-4.267,3.324,-0.066446,-0.172141,-0.071146,99718.95,-73,-195,+23
50610,8.573,-3.831,3.235,-0.096776,-0.167353,-0.129146,99719.69,-74,-195,+23
50620,8.466,-3.701,2.976,-0.066978,-0.167885,-0.161605,99719.05,-74,-195,+22
50625,8.525,-3.675,2.733,-0.015364,-0.166820,-0.175972,99717.48,-74,-195,+22
50634,8.638,-3.716,2.523,0.027737,-0.155114,-0.186082,99718.89,-75,-194,+22
50644,8.650,-3.691,2.332,0.059664,-0.135958,-0.202577,99718.89,-76,-194,+22
50655,8.497,-3.472,2.398,0.071370,-0.113609,-0.204174,99720.05,-76,-194,+22
50665,8.603,-3.452,2.404,0.097976,-0.090729,-0.191935,99720.98,-75,-193,+22
50675,8.664,-3.618,2.390,0.119792,-0.089664,-0.188742,99719.42,-77,-194,+22
50684,8.606,-3.637,2.440,0.125113,-0.073169,-0.183421,99719.31,-78,-194,+23
50695,8.590,-3.541,2.674,0.118728,-0.052417,-0.183421,99719.31,-78,-194,+23
50705,8.571,-3.525,2.723,0.113407,-0.040178,-0.183953,99719.26,-77,-193,+22
50715,8.510,-3.657,2.620,0.108086,-0.023151,-0.185550,99721.24,-79,-193,+23
50724,8.536,-3.615,2.611,0.086802,-0.007720,-0.191935,99718.10,-79,-191,+24
50735,8.713,-3.519,2.552,0.046893,0.014629,-0.191935,99718.68,-79,-191,+24
50745,8.897,-3.434,2.658,-0.004721,0.030592,-0.186614,99718.68,-79,-192,+24
50755,8.931,-3.213,3.117,-0.036116,0.031657,-0.166926,99720.81,-80,-192,+24
50765,8.948,-3.211,3.192,-0.054740,0.024207,-0.142981,99718.83,-81,-191,+23
50775,8.867,-3.303,3.225,-0.086134,0.007712,-0.119568,99720.14,-80,-191,+23
50785,8.849,-3.163,3.385,-0.122850,-0.001866,-0.098816,99718.41,-80,-191,+23
50795,8.844,-3.116,3.360,-0.148923,-0.029004,-0.072743,99718.41,-81,-191,+23
50805,8.952,-2.965,3.339,-0.177657,-0.055609,-0.040284,99718.22,-82,-191,+22
50814,9.008,-2.886,3.258,-0.205327,-0.085408,-0.002504,99720.52,-81,-191,+21
50825,9.021,-2.773,3.328,-0.233529,-0.112545,0.041129,99718.17,-81,-191,+21
50835,8.903,-2.807,3.325,-0.232996,-0.139683,0.083166,99716.44,-81,-191,+21
50845,8.828,-2.917,3.229,-0.210116,-0.173738,0.127863,99716.44,-81,-192,+19
50855,8.857,-2.967,3.235,-0.190960,-0.215242,0.170432,99721.63,-79,-191,+18
50865,8.943,-3.041,3.093,-0.161694,-0.247169,0.202358,99720.42,-79,-191,+18
50875,8.995,-3.161,2.824,-0.142538,-0.278031,0.235349,99718.70,-80,-191,+18
50885,9.199,-3.208,2.797,-0.158501,-0.296123,0.275257,99719.86,-79,-192,+18
50894,9.155,-3.088,2.599,-0.169675,-0.319536,0.320487,99719.86,-76,-193,+17
50905,8.928,-3.163,2.419,-0.150519,-0.342417,0.364120,99719.69,-76,-193,+17
50915,9.207,-3.541,2.040,-0.225547,-0.350398,0.425844,99718.38,-76,-194,+15
50925,9.848,-3.366,2.858,-0.431473,-0.368490,0.480652,99718.69,-74,-194,+13
50935,9.854,-2.825,4.022,-0.569290,-0.436600,0.564725,99718.06,-72,-195,+11
50945,10.660,-2.738,4.692,-0.574611,-0.547279,0.662633,99718.06,-72,-195,+11
50955,10.454,-3.143,4.285,-0.604409,-0.662215,0.742982,99719.21,-70,-195,+9
50965,9.972,-3.563,3.788,-0.715088,-0.717554,0.794596,99720.10,-67,-196,+5
50975,10.237,-3.980,3.509,-0.838537,-0.764380,0.845147,99719.62,-63,-197,+2
50984,11.114,-4.206,3.498,-0.932721,-0.776086,0.858982,99716.45,-63,-197,+2
50995,12.353,-4.299,3.684,-0.958794,-0.790453,0.843551,99716.45,-60,-197,-1
51005,13.939,-4.814,3.685,-0.896005,-0.788325,0.831844,99719.93,-58,-198,-4
51015,16.013,-5.073,4.144,-0.786923,-0.751609,0.797789,99720.29,-55,-199,-8
51025,16.551,-3.713,4.306,-0.505437,-0.760655,0.810028,99721.07,-55,-199,-8
51035,14.471,-3.280,2.538,-0.161162,-0.759591,0.856853,99717.37,-52,-200,-9
51045,12.458,-3.898,1.371,0.039976,-0.672857,0.829184,99717.37,-49,-201,-10
51055,10.905,-4.837,0.752,0.061260,-0.585059,0.788743,99718.44,-46,-202,-11
51065,9.256,-6.300,0.131,-0.043033,-0.525994,0.796725,99717.81,-46,-202,-11
51075,8.769,-8.555,-0.991,-0.199474,-0.511095,0.849404,99719.84,-44,-201,-12
51085,9.197,-8.718,-0.077,-0.256941,-0.521205,0.860578,99718.70,-41,-203,-13
51095,9.262,-7.217,0.658,-0.377730,-0.441921,0.751495,99718.70,-37,-204,-14
51105,8.869,-5.902,1.623,-0.551730,-0.337628,0.615807,99718.63,-37,-204,-14
51115,8.231,-6.901,1.751,-0.784262,-0.256747,0.534395,99718.22,-37,-203,-17
51125,7.862,-8.522,1.728,-1.099271,-0.161499,0.526945,99714.88,-35,-203,-20
51135,8.157,-8.649,1.674,-1.458445,-0.072105,0.530670,99718.84,-31,-203,-26
51145,8.620,-7.545,1.520,-1.754830,-0.009848,0.548230,99718.84,-31,-203,-26
51155,8.722,-6.654,0.896,-1.901693,0.002923,0.612083,99717.98,-31,-201,-31
51165,8.511,-6.276,0.331,-1.901693,-0.013573,0.718505,99719.23,-28,-200,-36
51175,8.199,-6.028,-0.124,-1.778775,-0.031665,0.822798,99716.93,-24,-198,-43
51185,7.604,-5.639,-0.550,-1.614885,-0.052949,0.906339,99718.45,-24,-198,-43
51195,6.603,-5.131,-0.980,-1.431308,-0.079022,0.975514,99718.45,-22,-197,-47
51205,5.649,-4.756,-1.193,-1.231234,-0.103499,1.034578,99717.99,-19,-196,-51
51215,4.806,-4.420,-1.253,-0.995510,-0.129041,1.077147,99720.04,-14,-195,-54
51225,3.974,-4.236,-1.195,-0.743822,-0.148197,1.089917,99717.01,-14,-195,-54
51235,3.271,-4.015,-1.143,-0.528849,-0.152453,1.065440,99715.23,-11,-195,-56
51245,2.687,-3.782,-0.967,-0.383051,-0.140215,1.007440,99715.23,-7,-195,-57
51255,2.133,-3.493,-0.843,-0.308556,-0.122655,0.930816,99720.48,-3,-196,-58
51265,1.709,-3.444,-0.748,-0.276097,-0.098178,0.840358,99720.11,-1,-196,-60
51275,1.392,-3.375,-0.793,-0.269180,-0.076894,0.742982,99718.86,-1,-195,-60
51286,1.191,-3.072,-0.592,-0.274501,-0.058270,0.637624,99715.98,+1,-195,-60
51295,1.131,-2.367,-0.371,-0.264391,-0.036986,0.531202,99715.98,+3,-195,-62
51305,0.997,-1.832,-0.424,-0.209584,-0.034857,0.442340,99719.43,+3,-195,-61
51315,0.826,-1.813,-0.483,-0.111675,-0.022619,0.347092,99719.90,+3,-195,-61
51325,0.499,-1.988,-0.626,-0.024942,0.011436,0.239606,99718.13,+5,-195,-62
51331,0.282,-2.073,-0.609,0.016563,0.047088,0.150744,99719.74,+5,-195,-62
51340,0.094,-2.151,-0.760,0.060196,0.083803,0.056028,99719.74,+6,-195,-62
51350,-0.052,-2.118,-0.642,0.120324,0.149253,-0.078064,99719.74,+4,-195,-61
51360,0.206,-1.830,-0.367,0.165022,0.239179,-0.246742,99719.60,+3,-196,-60
51371,0.586,-1.544,-0.252,0.155444,0.328042,-0.430320,99719.40,+3,-196,-60
51381,1.179,-1.638,0.000,0.117664,0.403069,-0.589953,99717.49,+1,-195,-61
51390,1.937,-1.704,-0.070,0.119792,0.457344,-0.729898,99717.49,-1,-195,-60
51400,2.900,-1.792,0.131,0.171407,0.505766,-0.834724,99721.45,-4,-195,-58
51410,3.836,-2.323,0.251,0.307627,0.550464,-0.937953,99721.45,-4,-195,-58
51420,4.847,-2.431,1.102,0.482691,0.611124,-1.070448,99717.84,-7,-196,-57
51430,5.783,-2.287,1.492,0.629021,0.691473,-1.205604,99716.95,-13,-195,-54
51440,6.476,-2.546,1.122,0.751939,0.764904,-1.317347,99718.20,-18,-196,-52
51450,6.881,-3.094,0.949,0.899865,0.843656,-1.436008,99718.20,-18,-196,-52
51461,7.203,-3.631,1.481,1.052049,0.960188,-1.576485,99719.92,-24,-197,-48
51470,6.790,-9.068,-1.283,1.205296,1.058628,-1.668008,99718.45,-30,-197,-44
51480,-5.318,-45.388,-12.757,0.714159,1.265087,-0.668173,99719.97,-34,-197,-40
51490,27.170,-22.543,15.079,0.737572,1.073527,-0.076999,99722.92,-36,-197,-37
51501,20.061,-9.915,-6.348,0.503976,0.685619,-1.906393,99721.36,-36,-197,-37
51511,10.661,-7.228,-1.057,-0.322923,0.930390,-1.035861,99718.44,-42,-195,-37
51520,11.779,0.416,3.721,-0.148923,0.679234,-0.892192,99720.16,-44,-194,-36
51530,13.235,3.673,7.472,-0.421895,0.989454,-1.093329,99720.16,-49,-192,-37
51540,11.819,2.238,5.100,0.074031,0.887289,-1.093861,99715.30,-49,-192,-37
51550,12.113,-2.449,7.215,0.473113,0.989454,-0.973072,99715.30,-53,-191,-34
51560,15.513,-4.929,4.192,0.796636,0.925601,-0.812907,99719.09,-56,-191,-30
51570,22.573,-5.072,-2.771,0.734379,0.689344,-0.682008,99717.98,-58,-190,-29
51580,28.877,-5.201,-3.354,0.731186,0.164684,-0.402118,99717.73,-58,-190,-29
51591,18.528,1.619,5.654,0.816856,0.042299,-0.143513,99720.70,-60,-191,-26
51600,7.998,-0.189,8.424,0.687553,0.299840,0.118285,99720.70,-59,-191,-23
51610,5.637,-6.038,4.656,0.515682,0.330702,0.242799,99718.83,-59,-192,-22
51620,6.311,-5.704,1.494,0.145334,0.209913,0.139569,99721.42,-59,-192,-22
51631,7.468,-4.230,0.929,0.028802,0.188097,0.139569,99720.11,-60,-192,-21
51640,6.970,-4.744,1.705,0.266122,0.109345,0.214597,99720.11,-57,-193,-21
51650,6.082,-5.761,3.265,0.393297,0.065712,0.199698,99720.11,-57,-193,-19
51660,6.390,-5.832,3.607,0.269315,0.118390,0.141698,99721.98,-57,-193,-19
51671,8.200,-5.182,2.384,0.170343,0.184904,0.101257,99721.30,-58,-193,-18
51680,9.821,-3.547,1.098,0.168746,0.230133,0.132652,99721.25,-57,-194,-18
51690,9.737,-3.460,1.778,0.187902,0.253546,0.216725,99719.89,-56,-194,-17
51700,8.747,-4.540,2.013,0.248031,0.252482,0.257698,99719.89,-56,-194,-17
51710,8.430,-4.896,2.614,0.241645,0.224812,0.264083,99721.85,-56,-195,-15
51721,8.743,-4.619,2.542,0.207590,0.205656,0.265679,99720.45,-55,-195,-14
51730,9.130,-5.026,3.103,0.142673,0.174794,0.289092,99717.34,-54,-195,-15
51740,8.803,-5.413,4.195,0.062857,0.112005,0.284835,99717.34,-54,-195,-15
51750,8.293,-5.669,4.352,-0.062721,0.075822,0.255569,99721.36,-55,-196,-15
51761,8.347,-5.531,3.680,-0.158501,0.039106,0.208211,99721.36,-53,-197,-15
51770,8.452,-5.213,2.975,-0.184042,0.009840,0.169367,99718.73,-53,-197,-16
51780,8.517,-5.195,2.170,-0.198941,0.018886,0.144890,99718.17,-53,-197,-16
51790,8.877,-5.075,2.003,-0.255345,0.059858,0.128395,99716.66,-53,-197,-17
51801,9.081,-4.979,1.825,-0.270776,0.088060,0.120413,99716.66,-51,-197,-16
51810,8.959,-5.130,1.496,-0.290464,0.108280,0.125734,99720.84,-51,-197,-18
51820,9.013,-5.023,1.563,-0.306428,0.106152,0.128927,99718.43,-51,-197,-18
51830,8.839,-4.848,2.040,-0.281418,0.086996,0.145422,99719.21,-51,-197,-19
51841,8.661,-4.775,2.475,-0.213840,0.042299,0.150211,99717.96,-49,-197,-19
51851,8.540,-4.966,2.786,-0.162758,0.011968,0.162450,99721.95,-50,-197,-20
51860,8.390,-5.301,2.959,-0.154776,0.005583,0.162450,99721.16,-50,-197,-20
51870,8.687,-5.291,3.243,-0.202134,0.011968,0.131056,99719.38,-50,-197,-20
51880,8.478,-4.851,2.959,-0.228207,0.003455,0.118817,99719.38,-48,-197,-21
51891,8.433,-4.778,2.464,-0.222886,0.005051,0.135844,99717.71,-49,-197,-21
51900,8.766,-4.970,1.879,-0.223418,-0.008252,0.150744,99717.71,-49,-197,-21
51910,8.701,-4.715,2.125,-0.246831,-0.027940,0.171496,99720.04,-49,-197,-22
51920,8.422,-4.315,2.623,-0.239559,-0.055787,0.206792,99720.09,-47,-197,-22
51931,8.476,-4.452,2.708,-0.200006,-0.073701,0.251312,99720.09,-47,-198,-23
51941,8.679,-4.684,2.449,-0.185639,-0.094986,0.297074,99717.90,-47,-198,-23
51950,8.517,-4.496,2.596,-0.209052,-0.122655,0.341771,99717.90,-46,-197,-24
51960,8.282,-4.219,2.464,-0.215969,-0.147664,0.397642,99719.23,-44,-198,-24
51971,8.639,-4.299,2.270,-0.183510,-0.185976,0.460431,99719.23,-43,-197,-26
51981,8.590,-4.353,2.334,-0.124978,-0.239187,0.522156,99719.08,-43,-197,-26
51990,8.239,-4.899,2.621,-0.099437,-0.268453,0.570046,99719.08,-42,-198,-26
52000,8.180,-5.361,2.775,-0.121253,-0.270582,0.592927,99719.08,-38,-199,-27
52011,8.223,-5.804,2.591,-0.167547,-0.252490,0.591863,99722.73,-37,-201,-27
52021,8.072,-6.143,2.382,-0.240978,-0.211518,0.578560,99721.64,-35,-201,-28
52030,7.925,-6.258,2.051,-0.340483,-0.157775,0.548762,99716.94,-35,-200,-28
52040,7.863,-5.905,1.676,-0.443180,-0.106692,0.518431,99716.52,-32,-199,-30
52050,7.937,-5.336,1.277,-0.479895,-0.080087,0.504597,99716.52,-31,-200,-32
52061,8.208,-5.058,1.005,-0.448501,-0.092325,0.507789,99717.50,-30,-201,-32
52071,8.148,-5.027,1.007,-0.389969,-0.120527,0.526413,99720.53,-30,-201,-32
52080,8.138,-5.141,1.032,-0.360171,-0.142343,0.562064,99718.11,-27,-200,-34
52090,8.411,-5.388,1.508,-0.358574,-0.162031,0.587606,99718.11,-26,-201,-35
52101,8.664,-5.531,1.779,-0.359106,-0.183316,0.613679,99722.09,-23,-200,-37
52111,8.919,-5.583,1.685,-0.388373,-0.198747,0.650927,99719.84,-23,-200,-37
52120,9.179,-5.372,1.753,-0.441051,-0.228545,0.688174,99719.84,-20,-201,-38
52130,9.143,-4.955,1.970,-0.465528,-0.274307,0.738725,99719.12,-19,-201,-39
52141,8.976,-4.690,1.928,-0.458079,-0.326985,0.817477,99718.85,-15,-201,-41
52151,9.061,-4.462,1.828,-0.418703,-0.397224,0.910064,99718.85,-15,-201,-41
52160,9.325,-5.119,1.969,-0.363895,-0.488215,0.992009,99720.09,-10,-201,-42
52170,9.265,-5.972,2.457,-0.412317,-0.540361,1.051073,99717.48,-8,-203,-44
52180,9.265,-6.686,2.787,-0.581528,-0.538233,1.088853,99717.33,-4,-202,-46
52191,9.769,-7.272,2.609,-0.868335,-0.507903,1.103752,99717.11,-4,-202,-46
52201,10.266,-7.948,1.494,-1.263161,-0.448839,1.096835,99719.83,+1,-201,-50
52210,10.855,-8.476,0.958,-1.816555,-0.334967,1.052137,99718.20,+3,-200,-55
52220,12.961,-7.259,2.042,-2.449234,-0.223224,0.977642,99717.27,+8,-197,-62
52231,15.981,-3.987,4.627,-2.907912,-0.201940,0.962211,99717.27,+8,-197,-62
52241,17.767,-1.191,6.175,-2.938243,-0.271646,1.077679,99716.33,+12,-193,-72
52250,17.832,0.469,5.639,-2.595564,-0.450967,1.267110,99716.33,+15,-189,-80
52260,16.654,1.111,5.692,-2.151252,-0.715426,1.472504,99717.66,+22,-186,-86
52271,16.046,0.153,6.246,-1.629252,-0.960728,1.765164,99718.28,+22,-186,-86
52281,14.454,-3.038,6.197,-1.052446,-1.248600,2.100926,99718.02,+30,-184,-91
52291,13.047,-6.651,6.472,-0.421895,-1.524233,2.513311,99719.58,+39,-183,-91
52300,13.484,-8.859,7.432,0.173003,-1.681205,2.890577,99719.58,+51,-182,-90
52311,12.908,-9.895,7.778,0.585920,-1.734416,3.062448,99721.96,+51,-182,-90
52321,11.685,-9.933,7.100,0.696067,-1.599260,3.003916,99717.87,+63,-183,-88
52331,10.857,-9.320,6.489,0.492269,-1.382691,2.817146,99716.01,+75,-183,-85
52340,9.835,-9.290,3.484,0.032526,-1.250728,2.528210,99716.01,+83,-181,-85
52350,8.439,-9.112,3.603,-0.577271,-1.080453,2.277586,99716.01,+83,-181,-85
52361,6.285,-8.525,2.291,-0.971033,-0.797903,1.856155,99717.92,+92,-178,-86
52371,4.600,-7.333,3.771,-1.708537,-0.420637,1.399073,99718.19,+96,-174,-90
52380,5.101,-2.874,4.716,-2.105491,-0.166820,0.785551,99717.52,+99,-168,-93
52391,5.063,1.370,3.755,-2.180696,-0.079200,0.135135,99715.56,+99,-168,-93
52401,4.504,2.654,2.263,-2.093252,-0.026343,-0.121697,99715.56,+99,-164,-98
52411,3.574,2.809,0.961,-1.983105,0.002390,-0.325495,99722.41,+97,-160,-103
52421,3.182,2.888,0.874,-1.789950,0.110409,-0.565476,99717.75,+96,-155,-107
52430,3.323,3.282,1.576,-1.441418,0.292390,-0.863990,99717.97,+96,-155,-107
52441,3.514,3.405,2.056,-1.010941,0.492996,-1.153990,99716.04,+93,-152,-108
52451,3.522,2.681,1.828,-0.631547,0.693601,-1.428558,99714.73,+86,-151,-109
52461,3.263,1.696,1.643,-0.375070,0.897399,-1.698870,99716.91,+81,-151,-109
52470,3.215,1.299,1.396,-0.176593,1.117160,-1.954283,99716.91,+81,-151,-109
52481,3.833,1.897,1.746,0.010178,1.368848,-2.184154,99715.35,+71,-151,-109
52491,4.739,2.087,2.004,0.315609,1.575307,-2.353365,99714.73,+62,-152,-108
52501,5.157,1.618,1.857,0.767902,1.719509,-2.494906,99714.73,+51,-152,-104
52510,5.779,1.134,1.782,1.273938,1.874353,-2.656667,99713.41,+40,-154,-99
52520,6.604,0.668,1.700,1.749112,1.993013,-2.827475,99714.40,+40,-154,-99
52531,7.240,-0.043,1.484,2.121589,2.085068,-2.995089,99711.21,+27,-157,-93
52541,7.696,-1.023,1.219,2.348268,2.171270,-3.161640,99712.32,+15,-160,-85
52551,8.061,-1.950,1.175,2.459479,2.253747,-3.321805,99714.14,+2,-161,-76
52560,8.710,-2.244,1.322,2.535570,2.321857,-3.508575,99715.19,+2,-161,-76
52571,9.330,-2.512,1.449,2.600488,2.362297,-3.702795,99714.41,-11,-162,-66
52581,9.903,-3.234,1.813,2.646781,2.386242,-3.881584,99712.78,-24,-162,-57
52590,10.529,-4.064,2.158,2.631882,2.414976,-4.060373,99712.78,-40,-160,-47
52600,11.486,-4.841,2.391,2.437662,2.466591,-4.239694,99712.78,-40,-160,-47
52611,12.234,-5.910,2.823,2.097112,2.501178,-4.396667,99717.34,-55,-156,-38
52621,12.714,-6.658,3.276,1.783700,2.532572,-4.564813,99715.56,-69,-152,-31
52626,13.316,-6.988,3.401,1.644819,2.569288,-4.696776,99715.94,-69,-152,-31
52635,14.220,-7.128,3.194,1.595865,2.618774,-4.790960,99714.11,-84,-144,-22
52645,15.275,-7.369,2.809,1.625663,2.645380,-4.807987,99714.11,-99,-135,-13
52656,16.070,-8.123,2.444,1.801259,2.603875,-4.711676,99717.63,-99,-135,-13
52666,16.717,-9.348,2.127,2.058268,2.494260,-4.541400,99718.26,-109,-125,-4
52676,17.244,-10.649,1.567,2.304635,2.337288,-4.341327,99717.99,-119,-116,+4
52685,17.424,-12.433,0.458,2.491405,2.141472,-4.083254,99717.79,-126,-104,+14
52696,16.847,-14.788,-0.803,2.614855,1.916921,-3.741107,99717.79,-126,-104,+14
52706,15.569,-17.203,-0.799,2.653699,1.658316,-3.350538,99720.24,-131,-96,+21
52716,13.662,-18.283,-0.683,2.600488,1.394390,-2.885475,99722.02,-134,-88,+27
52725,11.818,-18.674,-1.212,2.268984,1.111307,-2.356558,99722.07,-138,-82,+33
52736,10.035,-21.170,-2.005,1.807644,0.838335,-1.785604,99719.30,-138,-82,+33
52746,8.060,-23.926,-2.472,1.146764,0.614317,-1.131109,99719.30,-139,-79,+36
52756,6.997,-24.656,-3.530,0.382122,0.364757,-0.428724,99722.38,-140,-78,+37
52765,7.503,-22.693,-3.816,-0.313345,0.067308,0.329000,99722.18,-139,-78,+37
52775,9.146,-19.146,-3.145,-0.767235,-0.294527,1.073422,99718.63,-137,-83,+34
52786,11.935,-13.718,-0.921,-0.811400,-0.721279,1.715146,99718.15,-137,-83,+34
52796,20.797,4.849,9.296,-0.446372,-1.042141,1.730045,99718.15,-134,-87,+32
52806,23.954,20.000,4.664,-0.306428,-0.866545,0.910596,99719.03,-131,-89,+29
52815,16.574,4.364,-0.050,-1.416941,-0.822380,1.843385,99719.19,-127,-94,+25
52826,8.170,-6.745,1.992,-0.227143,-1.226783,2.579825,99717.41,-127,-94,+25
52836,7.483,-12.990,3.951,1.232434,-0.960196,2.597384,99719.66,-123,-100,+24
52846,11.761,-13.266,2.055,1.075994,-0.759591,2.794797,99719.66,-117,-107,+24
52855,11.426,-4.982,-0.690,0.463535,-0.945829,2.766063,99724.02,-111,-114,+24
52861,8.085,-0.533,-0.719,0.563572,-0.840471,2.593127,99722.97,-111,-114,+24
52871,4.837,-3.380,1.208,0.906251,-0.750545,2.318027,99722.97,-107,-118,+25
52881,4.811,-9.896,3.509,1.136654,-0.706380,2.051440,99722.19,-107,-118,+25
52891,9.131,-11.015,3.291,0.601352,-0.643591,1.676834,99718.31,-102,-121,+26
52901,9.887,-8.073,-0.009,-0.576207,-0.609536,1.212302,99719.68,-100,-125,+25
52911,9.233,-4.313,0.908,-1.404702,-0.266325,1.060651,99719.57,-97,-126,+21
52921,8.591,-2.170,2.458,-1.585619,-0.046564,1.020743,99717.12,-97,-126,+21
52931,8.443,-1.754,3.400,-1.414812,0.038574,0.982431,99717.90,-95,-126,+18
52940,8.655,-2.091,3.564,-1.024244,0.081675,0.930816,99717.90,-93,-129,+15
52951,8.502,-1.578,3.518,-0.557051,0.026335,0.849936,99717.90,-92,-131,+14
52961,8.518,-2.313,3.375,-0.201070,-0.002931,0.797789,99721.55,-92,-131,+14
52971,8.761,-4.267,2.617,-0.085602,-0.018894,0.725954,99720.19,-89,-132,+16
52981,8.955,-4.770,2.167,-0.129235,0.010372,0.606230,99720.61,-88,-133,+13
52990,9.100,-5.069,2.559,-0.331969,0.108280,0.490230,99718.27,-86,-134,+13
53001,8.832,-5.323,3.229,-0.644849,0.187033,0.366248,99718.27,-86,-134,+12
53011,8.124,-4.487,4.060,-0.932189,0.224280,0.234817,99721.04,-86,-134,+12
53021,7.925,-3.440,4.619,-1.041803,0.248225,0.135844,99719.77,-86,-135,+10
53031,8.130,-2.893,4.482,-1.009877,0.243968,0.091147,99718.48,-85,-134,+8
53041,8.446,-2.598,3.846,-0.921546,0.230666,0.076780,99718.48,-85,-133,+6
53051,8.927,-2.558,3.316,-0.850244,0.204060,0.092744,99722.67,-85,-133,+6
53061,9.116,-2.691,3.804,-0.810868,0.156170,0.133184,99722.67,-84,-135,+3
53070,8.918,-2.747,4.091,-0.787987,0.107216,0.167771,99720.53,-85,-134,+3
53081,8.684,-2.626,4.075,-0.798629,0.065712,0.208211,99719.80,-84,-134,+1
53091,8.612,-2.507,3.964,-0.803950,0.016757,0.259294,99717.56,-84,-134,+1
53101,8.729,-2.163,3.785,-0.783730,-0.050820,0.317826,99717.56,-83,-135,+0
53111,8.796,-1.756,3.878,-0.718813,-0.118398,0.404560,99720.15,-83,-134,-1
53121,8.874,-1.592,4.253,-0.621437,-0.183848,0.522156,99719.48,-80,-135,-3
53131,8.944,-1.987,4.437,-0.519804,-0.234930,0.626450,99718.43,-80,-135,-3
53141,8.983,-2.449,4.278,-0.510226,-0.254619,0.721165,99717.13,-79,-136,-4
53151,8.801,-2.845,4.147,-0.571950,-0.248233,0.796725,99718.87,-78,-137,-6
53161,8.582,-3.112,3.904,-0.656024,-0.250894,0.851532,99717.29,-75,-138,-8
53171,8.773,-3.494,2.897,-0.691143,-0.288141,0.905275,99720.79,-75,-138,-8
53181,9.217,-4.308,2.253,-0.676776,-0.347738,0.908468,99720.79,-72,-139,-9
53191,9.632,-4.908,1.933,-0.734244,-0.347206,0.895697,99718.49,-70,-140,-12
53200,9.399,-5.407,2.177,-0.903987,-0.298784,0.868560,99718.49,-67,-141,-14
53211,9.270,-4.768,2.298,-1.049785,-0.276967,0.839294,99722.57,-67,-141,-14
53221,9.332,-4.203,2.508,-1.068941,-0.287609,0.837697,99719.27,-65,-142,-18
53231,9.444,-4.346,2.712,-1.034354,-0.316875,0.860046,99719.96,-63,-141,-21
53241,9.584,-4.643,2.639,-1.044996,-0.335499,0.877073,99717.29,-60,-143,-23
53251,9.938,-4.765,2.628,-1.136519,-0.354123,0.884523,99717.29,-60,-143,-23
53261,10.397,-4.346,2.723,-1.201968,-0.396160,0.897826,99720.30,-57,-143,-27
53271,10.691,-3.900,2.812,-1.190262,-0.490343,0.931349,99720.69,-55,-143,-29
53281,10.895,-3.493,3.073,-1.136519,-0.600490,1.007972,99719.02,-53,-143,-34
53291,11.085,-3.251,3.460,-1.064152,-0.723407,1.103220,99719.02,-53,-143,-34
53301,11.409,-3.049,3.892,-0.992317,-0.870269,1.215495,99719.02,-48,-143,-36
53311,11.717,-2.912,3.829,-0.934317,-0.997444,1.373532,99721.62,-45,-145,-39
53321,12.086,-3.283,3.276,-0.908244,-1.122490,1.534229,99720.15,-39,-145,-44
53331,12.401,-3.532,2.848,-0.930592,-1.272545,1.687122,99718.82,-39,-145,-44
53341,12.701,-3.871,2.842,-0.977950,-1.375242,1.801348,99718.82,-33,-146,-47
53351,13.005,-4.222,3.167,-1.048189,-1.467829,1.919476,99718.82,-27,-145,-50
53361,13.349,-4.457,3.756,-1.167381,-1.530086,2.015256,99722.43,-19,-146,-55
53371,13.906,-4.869,4.352,-1.334996,-1.530086,2.095605,99720.55,-19,-146,-55
53381,14.609,-5.057,4.886,-1.594133,-1.483792,2.152009,99719.13,-12,-147,-59
53391,16.685,-4.311,5.531,-1.870830,-1.442288,2.184999,99719.13,-5,-145,-64
53401,19.588,-1.988,8.818,-2.122518,-1.466233,2.199366,99717.42,+3,-143,-70
53411,19.693,0.041,10.603,-2.207656,-1.493370,2.335586,99717.42,+3,-143,-70
53421,17.638,0.362,9.563,-2.000133,-1.556691,2.564394,99719.56,+10,-141,-77
53431,17.131,-1.211,9.121,-1.850078,-1.645021,2.693696,99717.22,+20,-139,-81
53441,16.220,-5.506,7.798,-1.800592,-1.811572,2.745843,99715.23,+30,-135,-87
53451,15.560,-10.231,8.573,-1.747913,-1.866379,2.836834,99715.23,+30,-135,-87
53462,15.910,-10.164,7.577,-1.508996,-1.963755,2.950705,99717.35,+39,-133,-91
53471,14.285,-6.490,7.071,-1.204097,-1.949920,2.768724,99716.37,+50,-129,-95
53481,12.154,-2.768,6.185,-1.023712,-1.736544,2.397843,99718.35,+59,-127,-97
53491,9.944,-0.399,5.535,-0.842794,-1.506141,2.070596,99716.59,+67,-124,-99
53501,6.915,-1.306,2.620,-0.549070,-1.405572,1.943953,99716.77,+67,-124,-99
53512,2.864,-2.615,4.760,-0.217565,-1.171976,1.849238,99716.13,+73,-123,-99
53521,0.058,-2.273,3.073,0.231535,-0.847389,1.371935,99716.19,+79,-121,-99
53531,-1.292,-2.409,4.995,0.358177,-0.359976,0.729147,99716.19,+81,-121,-99
53541,1.150,-0.670,4.952,0.258141,0.031124,0.169367,99716.03,+81,-121,-99
53551,2.672,2.717,3.111,-0.150519,0.010904,-0.591550,99716.03,+80,-122,-99
53561,2.971,4.257,1.289,-0.396354,0.064647,-1.133237,99716.52,+78,-121,-100
53567,2.569,4.511,-0.025,-0.388905,0.107748,-1.377476,99717.25,+78,-121,-100
53576,2.152,4.154,-0.501,-0.210116,0.273234,-1.559989,99717.72,+74,-121,-101
53586,1.923,3.113,0.469,0.185242,0.597821,-1.741971,99716.05,+69,-121,-100
53596,2.002,1.675,1.563,0.688086,0.876647,-1.890429,99716.05,+69,-121,-100
53606,2.132,0.366,2.476,1.147828,1.111307,-2.080393,99716.50,+63,-123,-100
53616,2.784,-0.582,2.903,1.463902,1.316702,-2.302814,99714.78,+57,-127,-96
53626,3.560,-0.822,3.060,1.591076,1.496555,-2.563548,99714.63,+48,-130,-93
53636,4.087,-0.092,2.857,1.630984,1.644481,-2.833328,99715.03,+48,-130,-93
53646,4.958,0.751,2.708,1.800727,1.805178,-3.082355,99715.03,+40,-133,-91
53656,6.031,0.806,2.470,2.193424,1.956298,-3.290942,99716.66,+28,-136,-86
53666,6.785,-0.626,2.538,2.578671,2.146793,-3.474520,99713.52,+16,-140,-80
53677,7.984,-2.081,2.445,2.754268,2.293655,-3.634685,99714.20,+16,-140,-80
53686,9.373,-3.081,1.354,2.716488,2.344205,-3.818795,99713.16,+5,-144,-73
53696,10.404,-3.786,0.075,2.556323,2.332499,-3.971511,99713.16,-9,-148,-65
53706,10.810,-4.236,-0.216,2.424892,2.330903,-4.100813,99714.60,-23,-149,-60
53716,11.269,-5.141,1.198,2.265791,2.337288,-4.272153,99714.71,-23,-149,-60
53726,11.829,-5.996,2.639,2.006121,2.280352,-4.493511,99713.77,-37,-151,-54
53736,12.213,-6.155,2.793,1.850745,2.278756,-4.711143,99713.51,-52,-149,-49
53746,13.001,-6.003,3.405,1.843296,2.411783,-4.862263,99713.51,-69,-149,-43
53756,13.970,-5.859,4.154,1.958232,2.525123,-4.909088,99717.11,-86,-145,-36
53766,14.746,-6.048,4.453,2.163626,2.610260,-4.873437,99715.50,-86,-145,-36
53776,16.191,-6.487,4.089,2.405736,2.682095,-4.799474,99716.13,-102,-141,-27
53786,18.262,-7.633,3.094,2.615387,2.700187,-4.684538,99714.81,-120,-136,-16
53796,20.227,-9.617,1.012,2.751075,2.598554,-4.500960,99714.81,-134,-129,-6
53801,20.482,-11.401,-1.071,2.820781,2.400077,-4.320043,99719.74,-134,-129,-6
53811,19.607,-12.999,-2.653,2.892616,2.123380,-4.107199,99719.74,-148,-123,+4
53821,17.870,-15.470,-2.673,3.000102,1.757288,-3.744300,99720.41,-148,-123,+4
53831,15.859,-19.127,-2.420,3.057038,1.366188,-3.257419,99720.77,-160,-116,+15
53841,12.308,-22.703,-2.139,2.806947,1.001693,-2.718924,99721.73,-170,-108,+24
53852,8.438,-24.490,-1.422,2.180121,0.720739,-2.087842,99720.80,-177,-102,+30
53861,6.251,-25.608,-2.120,1.295755,0.504170,-1.241788,99718.87,-177,-102,+30
53871,6.574,-25.635,-3.035,0.351792,0.286005,-0.297293,99718.34,-181,-98,+34
53881,8.316,-24.807,-3.500,-0.392097,0.043895,0.528542,99718.34,-182,-100,+34
53892,9.209,-22.482,-4.449,-1.066812,-0.387114,1.282009,99720.85,-181,-104,+32
53901,9.598,-18.618,-3.509,-1.531344,-0.852710,1.896596,99720.85,-181,-104,+32
53911,15.587,-3.410,5.992,-1.491436,-1.196985,2.112100,99723.65,-179,-110,+27
53921,26.446,23.457,13.820,-0.812996,-1.016068,1.164413,99721.20,-177,-116,+23
53932,23.620,12.377,0.308,-1.853271,-0.575481,1.533697,99715.29,-175,-118,+19
53942,12.740,-5.899,1.360,-0.846519,-1.095884,2.919311,99718.43,-175,-118,+19
53951,6.903,-22.512,1.477,1.576709,-1.258178,3.267310,99718.43,-168,-127,+18
53961,11.270,-16.718,4.273,1.746452,-0.986269,3.512081,99720.56,-161,-137,+19
53971,10.082,-1.049,-0.855,1.051517,-0.848453,2.917714,99717.25,-155,-144,+21
53982,3.064,0.385,0.862,0.569957,-0.684031,2.601109,99717.19,-148,-151,+21
53991,0.823,-8.349,3.337,1.319168,-0.633481,2.389862,99717.19,-148,-151,+21
54001,8.105,-11.368,4.911,1.374507,-0.780875,1.930119,99717.19,-143,-155,+22
54011,11.255,-11.348,0.066,0.047957,-0.873994,1.399073,99718.70,-140,-159,+21
54022,10.787,-7.376,-0.954,-1.165785,-0.512692,1.147917,99720.59,-137,-161,+17
54031,9.470,-3.733,1.766,-1.495161,-0.195022,0.997862,99715.73,-137,-161,+17
54041,8.260,-2.554,3.264,-1.515913,-0.073169,0.914853,99716.92,-134,-164,+13
54051,7.755,-2.268,2.763,-1.403638,0.023675,0.865367,99716.92,-132,-164,+9
54062,7.998,-2.292,2.880,-1.068409,0.056666,0.788743,99717.40,-129,-166,+7
54072,8.962,-1.725,3.285,-0.538960,0.018886,0.714780,99723.46,-129,-166,+7
54081,9.165,-1.944,2.865,-0.128171,-0.014637,0.712119,99717.29,-128,-168,+7
54091,9.362,-3.185,2.380,0.043701,-0.015701,0.732872,99717.29,-126,-169,+7
54102,9.125,-3.108,2.484,0.025609,0.010904,0.735000,99719.34,-124,-171,+7
54112,8.692,-3.752,3.454,-0.151584,0.084335,0.699349,99719.14,-124,-171,+7
54121,8.403,-4.692,4.357,-0.386776,0.102427,0.614211,99719.14,-122,-173,+6
54131,7.968,-4.637,4.761,-0.661345,0.083803,0.491826,99719.30,-121,-174,+5
54141,7.654,-4.339,4.455,-0.847051,0.102427,0.373165,99719.30,-120,-173,+3
54152,7.952,-3.839,3.964,-0.966776,0.140207,0.293349,99719.30,-120,-173,+3
54161,8.619,-2.900,3.421,-0.995510,0.144996,0.261422,99720.52,-119,-174,+1
54171,9.256,-1.750,3.178,-0.926335,0.133822,0.298670,99720.52,-118,-174,-1
54181,9.348,-1.681,3.424,-0.756592,0.096042,0.379019,99719.48,-117,-175,-3
54192,9.205,-2.610,2.956,-0.545345,0.041767,0.445532,99718.27,-117,-175,-3
54202,9.074,-3.503,2.884,-0.441051,-0.004527,0.481716,99717.95,-115,-176,-3
54211,8.806,-3.694,3.671,-0.426684,-0.039114,0.491294,99717.23,-115,-175,-4
54221,8.480,-3.991,4.016,-0.466061,-0.066784,0.474798,99718.59,-113,-176,-6
54232,8.361,-4.381,4.101,-0.585253,-0.075830,0.455642,99718.59,-113,-176,-6
54242,8.687,-4.224,3.949,-0.714024,-0.070509,0.433294,99718.02,-111,-178,-8
54251,8.940,-3.630,3.631,-0.833748,-0.074233,0.441808,99718.02,-110,-178,-11
54261,8.852,-3.213,3.531,-0.886427,-0.083279,0.474798,99720.58,-108,-178,-13
54272,8.826,-2.970,3.414,-0.877027,-0.107934,0.534217,99718.59,-108,-178,-13
54282,8.941,-2.991,3.089,-0.856097,-0.132233,0.592395,99718.59,-106,-178,-16
54292,9.155,-3.320,2.547,-0.822574,-0.174802,0.652523,99718.11,-104,-178,-18
54301,9.277,-3.797,2.335,-0.831088,-0.222160,0.704138,99718.11,-102,-180,-21
54311,9.389,-4.463,2.654,-0.897602,-0.247701,0.745110,99720.99,-102,-180,-21
54322,9.341,-4.340,3.017,-1.002959,-0.261004,0.757881,99718.71,-101,-180,-24
54332,9.178,-4.331,3.303,-1.074262,-0.255151,0.765330,99720.21,-97,-180,-27
54341,9.085,-4.600,3.271,-1.114702,-0.262600,0.786615,99720.21,-95,-181,-31
54351,9.207,-4.473,3.004,-1.153014,-0.277499,0.812688,99720.21,-95,-181,-31
54362,9.671,-4.161,2.914,-1.197711,-0.305701,0.850468,99719.50,-92,-180,-34
54372,10.125,-3.795,2.792,-1.205693,-0.375407,0.899422,99721.69,-88,-180,-38
54381,10.271,-2.919,3.167,-1.154611,-0.486086,0.983495,99719.86,-85,-181,-42
54391,10.076,-2.068,3.875,-1.015198,-0.632949,1.113330,99718.56,-85,-181,-42
54402,10.092,-2.554,4.399,-0.839069,-0.754270,1.311807,99718.56,-81,-181,-45
54412,10.699,-4.068,4.287,-0.738501,-0.843664,1.492192,99719.63,-76,-182,-48
54422,11.406,-5.335,3.595,-0.790647,-0.917095,1.582119,99720.11,-70,-183,-52
54431,11.802,-6.108,3.095,-1.016794,-0.945829,1.625752,99718.09,-70,-183,-52
54441,12.310,-5.641,2.610,-1.306262,-0.977756,1.653422,99718.09,-63,-184,-55
54452,12.857,-4.732,2.106,-1.523895,-1.040545,1.693330,99721.09,-58,-183,-60
54462,13.827,-4.186,2.246,-1.621803,-1.128343,1.756119,99719.82,-51,-181,-67
54471,14.742,-4.083,2.532,-1.641491,-1.219866,1.821036,99719.82,-51,-181,-67
54481,15.458,-3.906,2.629,-1.698959,-1.279462,1.904045,99718.52,-44,-181,-72
54492,16.237,-3.178,3.411,-1.831454,-1.308196,1.989183,99718.41,-37,-179,-78
54502,18.155,-1.608,5.174,-1.938940,-1.374177,2.083898,99718.41,-28,-177,-84
54511,20.371,0.306,8.870,-1.924573,-1.481664,2.200963,99719.49,-19,-173,-90
54521,20.684,0.876,9.669,-1.697363,-1.574251,2.400504,99716.77,-19,-173,-90
54532,19.090,0.303,8.478,-1.487179,-1.657792,2.567054,99717.24,-10,-172,-95
54542,18.084,-0.903,8.235,-1.434500,-1.737608,2.637293,99716.93,+0,-168,-99
54552,16.315,-4.906,7.693,-1.353088,-1.877553,2.665494,99719.45,+9,-165,-102
54561,14.983,-10.267,7.026,-1.269014,-1.992489,2.754889,99719.82,+9,-165,-102
54572,14.865,-10.649,6.756,-1.066812,-2.117003,2.900687,99716.01,+21,-161,-105
54582,13.644,-7.116,7.085,-0.708170,-2.062727,2.713384,99714.02,+31,-157,-106
54591,11.698,-3.816,6.500,-0.675180,-1.829131,2.411146,99714.02,+40,-153,-106
54601,9.855,-1.774,6.148,-0.337822,-1.638636,2.197770,99714.02,+40,-153,-106
54611,6.951,-2.292,4.038,0.005389,-1.544985,2.083366,99719.09,+48,-150,-105
54622,3.714,-1.908,6.533,0.418306,-1.292233,1.859880,99716.79,+56,-147,-102
54632,1.175,-0.780,5.422,0.841865,-0.888361,1.252211,99718.55,+59,-145,-99
54642,1.155,-0.784,6.441,0.801425,-0.394563,0.703606,99719.02,+59,-145,-99
54651,3.531,1.457,5.240,0.429480,-0.267921,0.152872,99719.02,+60,-143,-96
54662,2.936,3.428,3.512,-0.115400,-0.366894,-0.637843,99718.16,+60,-139,-95
54672,2.198,4.005,2.718,-0.329308,-0.172141,-1.143347,99716.13,+58,-136,-95
54682,1.838,3.994,1.862,-0.261198,0.109345,-1.483898,99715.98,+58,-136,-95
54691,1.991,3.338,2.068,-0.049951,0.437124,-1.744631,99715.98,+55,-131,-94
54702,2.109,2.148,2.336,0.225150,0.692005,-1.929806,99715.98,+50,-129,-93
54712,2.007,0.769,2.596,0.497590,0.911234,-2.127750,99719.01,+45,-127,-91
54722,2.082,-0.083,2.891,0.727462,1.146958,-2.370924,99716.87,+45,-127,-91
54731,2.718,-0.593,2.980,0.893480,1.365656,-2.630062,99716.15,+39,-123,-88
54742,3.601,-0.858,3.332,0.972232,1.530078,-2.870044,99711.13,+33,-121,-86
54752,4.510,-0.730,3.243,1.004159,1.688646,-3.123860,99711.13,+26,-119,-83
54762,5.368,-0.187,2.797,1.096214,1.863710,-3.375015,99715.02,+26,-119,-83
54772,6.192,-0.118,2.654,1.348434,2.068573,-3.569768,99714.91,+20,-117,-81
54781,7.277,-0.586,2.823,1.675149,2.254811,-3.733125,99711.77,+14,-116,-79
54792,8.414,-1.862,2.820,1.969406,2.364958,-3.868814,99713.90,+7,-116,-75
54802,9.447,-3.459,2.991,2.132231,2.409123,-4.010887,99713.27,+7,-116,-75
54812,9.909,-4.610,2.718,2.196084,2.413380,-4.177437,99712.07,+0,-117,-72
54821,10.207,-5.199,2.500,2.225883,2.463930,-4.332281,99712.07,-7,-120,-69
54832,10.769,-5.655,2.897,2.237057,2.546407,-4.467437,99712.49,-16,-122,-65
54842,11.478,-6.136,3.443,2.181185,2.611325,-4.602593,99711.91,-16,-122,-65
54851,12.339,-6.378,3.838,2.114672,2.693802,-4.744667,99711.91,-26,-124,-62
54862,13.545,-6.392,4.209,2.148904,2.821153,-4.866697,99715.99,-39,-127,-58
54872,14.761,-6.760,4.286,2.251956,2.926334,-4.896317,99715.99,-53,-129,-52
54882,16.058,-7.972,3.957,2.381259,2.990187,-4.872905,99716.43,-53,-129,-52
54892,17.266,-9.970,3.258,2.523332,2.996040,-4.851089,99716.90,-67,-131,-45
54901,18.188,-11.407,2.068,2.572286,2.947618,-4.803198,99716.90,-82,-132,-37
54912,19.155,-12.920,0.130,2.540359,2.826829,-4.654208,99720.41,-99,-131,-28
54922,19.298,-15.380,-1.796,2.398286,2.591636,-4.388153,99719.67,-99,-131,-28
54932,17.999,-17.322,-2.537,2.081149,2.264921,-3.995456,99718.47,-114,-128,-19
54941,15.609,-19.624,-2.458,1.697498,1.915857,-3.495805,99718.47,-126,-124,-11
54951,11.681,-23.216,-2.363,1.398984,1.562536,-2.851420,99718.47,-136,-120,-5
54962,7.790,-26.949,-3.645,0.881241,1.225179,-2.027182,99721.85,-143,-120,-1
54972,6.445,-28.196,-6.110,0.130435,0.891014,-1.112485,99722.90,-143,-118,-1
54982,7.613,-26.338,-7.162,-0.834280,0.536097,-0.134467,99720.23,-146,-118,+0
54991,10.363,-22.228,-5.495,-1.451528,0.110941,0.737661,99719.91,-147,-120,-3
55002,10.915,-18.714,-4.924,-1.462170,-0.487683,1.592229,99719.91,-143,-124,-6
55012,12.264,-11.542,-2.132,-1.263161,-1.106526,2.257366,99722.70,-143,-124,-6
55022,22.041,15.195,12.877,-0.641125,-1.410893,1.977476,99716.79,-138,-130,-11
55032,30.862,35.094,8.847,-0.217565,-0.803756,0.477459,99717.95,-138,-131,-13
55042,23.289,1.560,-9.801,-2.319931,-1.160269,2.245660,99717.95,-131,-137,-21
55052,9.533,-14.846,1.538,0.223554,-1.830728,3.583384,99721.52,-131,-137,-21
55062,8.411,-22.914,6.571,3.053313,-1.523700,3.660007,99721.52,-122,-147,-18
55071,12.341,-11.125,2.645,2.206195,-1.257645,3.476430,99719.80,-113,-156,-14
55081,6.967,2.137,-1.054,1.445278,-1.187939,3.210907,99719.91,-104,-164,-11
55092,-0.556,-0.776,3.862,1.919387,-0.829829,2.965072,99718.45,-104,-164,-11
55102,0.998,-11.774,7.717,2.303571,-0.903792,2.609623,99718.45,-97,-171,-6
55112,9.051,-16.976,4.230,1.238819,-1.188471,2.143495,99717.16,-90,-175,-4
55121,10.271,-14.815,-2.469,-0.765106,-1.121957,1.491660,99721.06,-85,-177,-10
55132,9.835,-7.784,-1.484,-2.124115,-0.481829,1.063312,99719.39,-85,-177,-10
55142,9.529,-3.870,3.570,-2.580133,-0.116270,0.865367,99719.04,-82,-178,-16
55152,8.099,-1.921,3.448,-2.595032,-0.098178,0.785018,99721.20,-81,-176,-24
55162,7.306,-1.940,1.765,-2.209252,0.006115,0.728615,99721.29,-78,-176,-30
55172,8.510,0.054,1.514,-1.426519,0.054005,0.686046,99721.29,-78,-176,-30
55182,9.751,0.858,3.343,-0.559712,-0.000802,0.761606,99716.70,-76,-176,-31
55192,9.252,-2.418,3.453,0.127242,-0.098710,0.817477,99717.16,-74,-178,-31
55201,8.882,-3.685,2.907,0.418838,-0.140215,0.796193,99717.16,-71,-180,-31
55212,8.804,-3.780,2.699,0.251223,-0.055077,0.774908,99722.09,-71,-180,-31
55222,8.468,-5.135,3.709,-0.121253,0.042831,0.721165,99719.80,-69,-181,-30
55232,7.618,-6.262,5.682,-0.591106,0.103491,0.590266,99718.97,-67,-181,-32
55242,6.748,-6.367,6.544,-1.089161,0.147124,0.398175,99715.63,-66,-180,-35
55251,7.071,-4.821,5.235,-1.464831,0.221620,0.256633,99715.63,-66,-180,-35
55262,8.050,-2.506,4.128,-1.640959,0.278555,0.235349,99720.47,-65,-179,-39
55272,9.360,-0.423,2.787,-1.451528,0.218959,0.300799,99719.45,-65,-178,-43
55282,10.382,-0.172,2.002,-0.959858,0.076886,0.440743,99717.88,-63,-177,-45
55291,10.081,-2.093,2.543,-0.493198,-0.050820,0.584413,99717.88,-63,-177,-45
55302,9.191,-3.752,3.557,-0.362299,-0.115206,0.663697,99717.88,-62,-178,-47
55312,8.359,-4.418,4.227,-0.496923,-0.132233,0.680725,99720.83,-60,-178,-47
55322,8.025,-4.240,5.015,-0.682097,-0.138619,0.667954,99722.34,-57,-178,-49
55331,8.086,-4.078,4.796,-0.764574,-0.160967,0.651991,99718.89,-57,-178,-49
55342,8.351,-4.054,3.945,-0.776281,-0.191297,0.649863,99721.50,-55,-178,-52
55352,8.674,-3.870,3.295,-0.786391,-0.213646,0.669551,99721.50,-54,-178,-54
55362,8.874,-3.895,2.939,-0.768299,-0.234398,0.688707,99720.66,-50,-178,-57
55372,8.982,-3.910,2.716,-0.736372,-0.263664,0.708927,99721.49,-50,-178,-57
55382,9.046,-3.977,2.647,-0.701253,-0.287609,0.745110,99718.65,-48,-178,-58
55392,9.007,-4.533,2.605,-0.668262,-0.293463,0.766927,99718.65,-46,-178,-60
55402,9.172,-4.954,2.435,-0.664537,-0.297187,0.760009,99722.51,-44,-178,-63
55412,9.462,-5.145,2.395,-0.703381,-0.296655,0.739789,99722.51,-44,-178,-63
55421,9.571,-5.238,2.286,-0.754996,-0.279096,0.720101,99719.16,-41,-178,-65
55432,9.590,-5.263,2.031,-0.819381,-0.250894,0.711055,99718.74,-38,-177,-67
55442,9.694,-4.812,2.001,-0.912501,-0.249297,0.714780,99722.09,-35,-178,-70
55452,9.873,-4.332,2.070,-1.002427,-0.281756,0.748835,99722.09,-33,-178,-70
55462,10.215,-3.865,2.378,-1.061491,-0.352527,0.807367,99720.83,-33,-175,-73
55472,10.681,-3.280,2.915,-1.069473,-0.465866,0.889844,99720.41,-30,-174,-75
55482,11.079,-3.134,3.386,-1.033290,-0.613793,1.011697,99716.91,-26,-174,-80
55492,11.566,-3.222,3.750,-0.976886,-0.769169,1.162284,99718.81,-21,-174,-83
55502,12.088,-3.877,4.107,-0.989657,-0.917627,1.317128,99720.58,-21,-174,-83
55512,12.271,-4.495,4.211,-1.114170,-1.010214,1.459201,99720.22,-15,-173,-86
55522,12.486,-4.380,3.992,-1.317968,-1.069811,1.589036,99718.75,-8,-172,-90
55532,12.999,-3.661,3.928,-1.490372,-1.141646,1.720467,99718.75,-2,-170,-95
55542,13.622,-3.265,3.710,-1.545179,-1.245939,1.858284,99718.28,-2,-170,-95
55552,14.222,-3.693,3.698,-1.533473,-1.350233,1.980669,99718.28,+5,-167,-99
55562,14.747,-4.511,4.032,-1.605840,-1.393866,2.066339,99722.36,+14,-166,-104
55568,15.373,-4.853,4.450,-1.744720,-1.367260,2.106779,99718.08,+14,-166,-104
55577,16.551,-4.197,5.341,-1.993748,-1.314581,2.146155,99717.92,+21,-162,-108
55587,18.709,-2.138,7.877,-2.382188,-1.278930,2.182871,99717.23,+30,-158,-114
55597,20.299,0.368,10.908,-2.595032,-1.302875,2.265880,99717.23,+30,-158,-114
55607,20.218,1.105,10.893,-2.446573,-1.403444,2.428705,99718.30,+39,-152,-121
55617,18.797,-0.354,9.387,-2.176794,-1.542856,2.573972,99718.24,+47,-148,-126
55627,16.521,-4.732,7.457,-1.986298,-1.704086,2.691036,99716.16,+58,-143,-130
55636,14.992,-9.998,8.815,-1.739399,-1.815297,2.770852,99717.88,+58,-143,-130
55647,15.852,-10.369,7.057,-1.527619,-1.950452,2.808100,99717.88,+68,-138,-134
55657,13.617,-6.728,6.802,-1.313711,-1.957902,2.642614,99718.45,+79,-134,-136
55667,11.207,-3.106,6.897,-1.008280,-1.682269,2.223311,99717.31,+86,-131,-137
55677,10.195,-0.594,6.913,-0.727326,-1.402911,1.792834,99718.61,+86,-131,-137
55687,7.676,0.533,4.034,-0.338354,-1.331609,1.560302,99716.83,+93,-129,-136
55697,2.471,-1.601,2.111,-0.196813,-1.226783,1.572009,99716.83,+99,-128,-137
55707,-1.937,-3.142,3.449,0.239517,-0.891022,1.368743,99720.39,+103,-128,-135
55717,-3.498,-3.600,3.229,0.576342,-0.499389,0.760541,99715.48,+105,-128,-135
55727,-1.446,-3.761,4.679,0.680636,-0.165224,0.129991,99715.31,+105,-129,-132
55737,2.115,-2.183,4.285,0.508765,0.084335,-0.412229,99714.13,+103,-131,-131
55747,3.058,1.600,2.346,-0.089327,0.130097,-0.940614,99714.13,+99,-133,-131
55757,2.406,3.763,0.837,-0.673051,0.114134,-1.372687,99717.34,+95,-133,-132
55767,1.362,4.139,0.593,-0.875253,0.195546,-1.660558,99715.98,+95,-133,-132
55777,0.791,4.146,0.376,-0.633143,0.381253,-1.897347,99717.34,+89,-132,-134
55787,1.168,3.123,1.079,-0.053143,0.722867,-2.097952,99713.22,+81,-133,-134
55797,1.816,1.660,2.268,0.646049,1.032555,-2.253328,99713.22,+72,-137,-132
55802,2.190,0.692,2.908,1.094617,1.187931,-2.371457,99717.34,+72,-137,-132
55812,2.463,-0.226,3.176,1.405370,1.341179,-2.519383,99717.34,+62,-141,-128
55822,3.116,-1.091,3.429,1.542654,1.579032,-2.762025,99719.63,+62,-141,-128
55832,3.682,-0.428,3.514,1.407498,1.791343,-3.061071,99715.45,+49,-145,-125
55842,4.727,0.625,2.775,1.301076,1.983435,-3.401089,99715.13,+37,-149,-121
55853,5.916,0.817,2.307,1.400581,2.188297,-3.667676,99713.92,+20,-151,-117
55862,6.633,-0.262,2.437,1.639498,2.427215,-3.849658,99715.39,+20,-151,-117
55872,7.464,-1.747,2.482,1.842764,2.639526,-4.005033,99714.92,+5,-152,-112
55882,8.631,-2.630,2.350,1.942800,2.802352,-4.171052,99714.92,-12,-153,-104
55892,9.851,-3.242,2.068,2.019424,2.877379,-4.305144,99712.05,-28,-154,-98
55902,11.042,-3.852,2.115,2.105626,2.924205,-4.419015,99712.05,-28,-154,-98
55912,11.976,-4.741,2.753,2.145534,2.950811,-4.556300,99714.23,-45,-152,-88
55922,12.940,-5.100,3.606,2.071571,2.986462,-4.715932,99715.79,-61,-151,-81
55932,14.096,-5.155,4.260,1.989094,3.047655,-4.848960,99713.54,-79,-147,-72
55943,15.491,-5.627,4.828,2.059864,3.158333,-4.933565,99713.18,-95,-147,-72
55952,17.306,-6.561,5.399,2.217369,3.289232,-4.975070,99713.18,-95,-142,-62
55962,19.107,-7.575,5.885,2.337626,3.392994,-4.964427,99714.29,-112,-137,-52
55972,20.541,-8.236,6.119,2.405204,3.464297,-4.888868,99716.30,-128,-130,-40
55983,21.605,-8.553,5.895,2.446176,3.494627,-4.728703,99715.20,-143,-121,-28
55992,21.557,-8.825,5.067,2.543552,3.408957,-4.443492,99715.20,-143,-121,-28
56002,20.955,-9.210,3.561,2.653167,3.174829,-4.078997,99715.20,-155,-113,-16
56012,20.258,-9.783,1.333,2.699992,2.759783,-3.695346,99718.27,-165,-104,-4
56023,18.842,-11.359,-3.252,2.661148,2.235655,-3.336172,99716.75,-172,-96,+4
56032,15.289,-13.899,-4.569,2.389240,1.762077,-3.117475,99720.41,-172,-96,+4
56038,11.995,-16.737,-4.349,2.279094,1.542316,-2.790759,99717.84,-178,-87,+12
56047,8.971,-21.048,-3.967,1.949718,1.335858,-2.312925,99717.84,-178,-87,+12
56057,7.088,-23.975,-4.358,1.120691,0.905913,-1.550411,99722.81,-181,-80,+17
56068,7.381,-20.064,-3.858,0.038380,0.376464,-0.611238,99722.13,-183,-77,+19
56077,9.022,-14.192,-1.886,-0.607070,-0.087004,0.434358,99719.52,-182,-79,+18
56087,9.101,-12.015,-0.435,-0.545345,-0.510031,1.316064,99720.72,-182,-79,+18
56097,7.868,-12.473,-1.328,-0.242574,-0.934123,1.947678,99720.72,-179,-83,+16
56108,6.657,-12.830,-2.353,0.075627,-1.254985,2.340375,99720.97,-175,-90,+12
56117,8.334,-10.666,-1.471,0.237389,-1.370985,2.531935,99721.59,-171,-96,+9
56127,10.094,-8.277,-0.590,0.258673,-1.306600,2.575568,99716.47,-171,-96,+9
56137,12.034,0.970,4.193,-0.005253,-1.397058,2.395183,99719.34,-165,-103,+7
56147,21.465,22.146,19.893,0.579003,-0.987334,1.383110,99719.34,-162,-109,+4
56157,30.671,18.577,-1.590,-0.266519,-0.249830,0.645606,99718.85,-161,-110,+3
56167,22.208,-7.999,-12.797,-2.232665,-1.507205,2.643678,99722.37,-161,-110,+3
56177,8.048,-19.197,3.254,0.283150,-1.673223,3.056063,99720.48,-154,-116,-3
56187,4.345,-13.437,13.541,1.639498,-0.680306,2.646871,99718.34,-146,-125,-3
56198,8.965,-6.511,4.290,0.899333,-0.184912,2.570247,99718.34,-141,-131,-1
56207,9.571,-3.345,3.777,0.455021,-0.719150,2.970925,99722.84,-133,-131,-1
56217,5.564,-4.489,5.767,1.443681,-1.079921,2.600045,99718.14,-133,-138,-1
56227,5.828,-5.239,4.855,1.392599,-0.955939,2.172761,99718.20,-128,-144,+0
56238,7.539,-7.287,2.628,0.688086,-1.020324,2.007275,99717.67,-122,-149,+0
56247,8.450,-8.315,0.797,0.121921,-0.952214,1.758779,99717.67,-118,-151,-1
56257,9.991,-7.255,1.837,-0.698592,-0.757994,1.519862,99719.69,-118,-151,-1
56267,10.065,-7.126,1.224,-1.375968,-0.710637,1.305954,99721.41,-113,-154,-6
56272,9.409,-6.215,0.358,-1.654262,-0.595701,1.112798,99720.56,-113,-154,-6
56283,8.573,-4.252,-0.532,-1.705344,-0.397756,0.949972,99720.56,-110,-155,-10
56293,7.999,-0.744,0.077,-1.337656,-0.131169,0.850468,99718.38,-108,-157,-14
56302,8.917,1.153,1.418,-0.370281,-0.047628,0.868560,99718.38,-105,-158,-16
56312,9.396,-0.331,2.894,0.453425,-0.052949,0.964339,99720.91,-105,-158,-16
56323,8.599,-3.326,3.764,0.533774,-0.082215,1.010633,99718.46,-102,-160,-14
56333,8.097,-5.425,3.780,0.283150,-0.073169,0.911128,99717.84,-99,-162,-13
56342,7.842,-6.392,4.241,-0.036116,0.006115,0.700945,99717.84,-98,-164,-13
56352,7.765,-6.472,4.508,-0.504372,0.138078,0.452982,99717.84,-98,-164,-13
56363,7.605,-5.634,4.530,-1.153014,0.264721,0.264615,99721.81,-96,-164,-14
56373,8.019,-2.794,3.811,-1.465895,0.358904,0.155000,99721.23,-97,-164,-18
56382,9.178,-0.003,3.009,-1.276464,0.354115,0.182138,99721.44,-95,-163,-21
56392,10.097,0.392,3.151,-0.790647,0.235987,0.333257,99717.73,-95,-163,-21
56402,9.858,-1.789,3.527,-0.335162,0.074225,0.468413,99717.73,-95,-162,-21
56413,8.967,-3.925,4.500,-0.304831,0.024207,0.536523,99720.36,-94,-163,-22
56423,8.251,-4.587,5.269,-0.593235,0.053473,0.531734,99720.36,-92,-164,-24
56432,7.978,-4.067,5.277,-0.901326,0.079546,0.499275,99718.72,-90,-164,-26
56442,8.019,-3.537,5.091,-1.062023,0.061987,0.488101,99718.72,-90,-164,-26
56453,8.376,-2.530,4.898,-1.109913,-0.001334,0.508321,99717.81,-90,-164,-29
56463,9.057,-2.032,4.661,-1.070005,-0.058270,0.580688,99718.66,-88,-164,-32
56472,9.284,-2.415,4.378,-0.974225,-0.129041,0.653587,99718.66,-86,-164,-34
56482,9.034,-2.961,3.711,-0.903987,-0.195022,0.709459,99719.33,-86,-164,-34
56493,9.037,-3.870,2.930,-0.889088,-0.216839,0.736064,99716.36,-83,-164,-37
56502,9.000,-4.030,2.529,-0.932721,-0.222692,0.739257,99716.36,-81,-165,-40
56508,9.067,-4.010,2.393,-0.924207,-0.234930,0.737128,99720.98,-81,-165,-40
56517,9.040,-3.957,2.271,-0.903987,-0.254086,0.741917,99719.37,-78,-164,-42
56527,8.944,-4.028,2.386,-0.855565,-0.270050,0.749367,99722.07,-76,-165,-45
56538,8.895,-4.268,2.301,-0.817253,-0.293463,0.748303,99718.99,-76,-165,-45
56547,8.759,-4.547,2.374,-0.804482,-0.311022,0.738193,99718.99,-72,-166,-47
56557,8.546,-4.612,2.500,-0.809803,-0.320600,0.729679,99721.84,-71,-166,-50
56567,8.287,-4.620,2.540,-0.813528,-0.329646,0.723826,99719.55,-69,-166,-53
56578,8.199,-4.526,2.731,-0.823638,-0.340288,0.721697,99718.45,-69,-166,-53
56588,8.291,-4.412,3.119,-0.835345,-0.348270,0.727551,99718.08,-65,-165,-55
56597,8.425,-4.481,3.277,-0.839069,-0.380729,0.728615,99718.08,-63,-166,-58
56607,8.541,-4.729,3.248,-0.839602,-0.404141,0.737128,99721.39,-60,-165,-60
56617,8.685,-4.964,2.815,-0.857693,-0.411591,0.752560,99721.70,-60,-165,-60
56628,8.812,-5.118,2.399,-0.914629,-0.414251,0.769055,99719.30,-58,-165,-63
56637,8.953,-4.987,2.207,-1.014134,-0.417444,0.788211,99718.88,-55,-165,-66
56647,9.081,-4.657,2.139,-1.107785,-0.441389,0.818541,99718.88,-52,-164,-70
56657,9.203,-4.331,2.030,-1.150886,-0.482361,0.871752,99718.63,-52,-164,-70
56668,9.575,-4.353,2.113,-1.169510,-0.546747,0.937202,99722.48,-49,-164,-73
56678,10.094,-4.938,2.453,-1.197711,-0.611132,0.985624,99717.47,-44,-162,-77
56687,10.568,-4.953,3.064,-1.266886,-0.680838,1.018082,99721.28,-40,-162,-81
56697,11.162,-4.496,3.300,-1.283913,-0.750013,1.057459,99721.28,-37,-161,-85
56708,11.664,-4.262,2.851,-1.199308,-0.834086,1.119715,99718.89,-37,-161,-85
56718,11.956,-4.241,2.275,-1.081712,-0.939444,1.187825,99719.83,-31,-160,-88
56727,11.812,-4.417,1.957,-1.032757,-1.041077,1.271899,99720.72,-25,-159,-92
56737,11.856,-4.697,1.646,-1.038079,-1.107591,1.351715,99718.78,-19,-158,-95
56743,12.201,-4.551,1.912,-1.064684,-1.153352,1.402266,99718.78,-19,-158,-95
56753,12.507,-4.346,2.170,-1.103528,-1.198049,1.456009,99718.78,-13,-157,-99
56763,12.992,-4.422,2.476,-1.158867,-1.238490,1.536357,99720.63,-13,-157,-99
56773,13.314,-4.491,3.012,-1.259436,-1.266159,1.607128,99720.52,-6,-155,-103
56782,13.683,-4.234,3.759,-1.472280,-1.258178,1.684816,99718.17,+1,-154,-107
56793,14.419,-3.441,4.685,-1.734078,-1.224123,1.773678,99716.81,+8,-152,-112
56803,15.482,-2.123,5.397,-1.991087,-1.198581,1.885421,99719.69,+8,-152,-112
56813,17.542,-0.784,6.172,-2.192225,-1.210288,2.007275,99717.86,+15,-146,-117
56822,19.937,0.437,8.780,-2.322592,-1.257645,2.138706,99717.86,+24,-143,-123
56833,19.970,-0.136,8.551,-2.177858,-1.395994,2.340907,99716.66,+34,-137,-129
56843,17.313,-2.536,7.706,-1.783564,-1.588618,2.559604,99717.86,+34,-137,-129
56852,15.910,-8.883,8.175,-1.265821,-1.819021,2.819274,99717.86,+44,-133,-132
56862,16.671,-12.510,7.919,-0.836941,-2.084544,2.909201,99719.56,+56,-130,-134
56872,16.040,-10.374,5.968,-0.782134,-2.224489,2.835769,99717.36,+68,-127,-136
56883,12.553,-7.005,6.136,-0.716152,-2.135627,2.594724,99716.64,+68,-127,-136
56893,9.762,-4.368,5.707,-0.464996,-1.993553,2.298339,99718.72,+79,-124,-136
56903,7.328,-3.331,3.573,-0.052079,-1.892452,2.033880,99719.22,+88,-123,-136
56912,4.373,-4.862,3.922,0.290067,-1.756232,1.804008,99716.77,+97,-122,-134
56923,0.453,-4.066,3.962,0.897737,-1.443352,1.334688,99719.06,+102,-122,-131
56933,-0.944,-2.981,3.691,0.872728,-0.988930,0.656780,99713.42,+102,-122,-131
56942,0.911,-0.814,4.462,0.386911,-0.711701,-0.041348,99713.42,+103,-125,-129
56952,1.657,2.233,1.863,-0.195749,-0.802692,-0.835256,99713.42,+104,-125,-129
56963,1.135,3.688,1.394,-0.560776,-0.692013,-1.273714,99720.91,+102,-124,-131
56973,0.514,4.054,0.854,-0.467657,-0.483426,-1.498797,99715.43,+102,-124,-131
56982,0.276,3.540,2.020,-0.162758,-0.143940,-1.635017,99715.07,+99,-124,-132
56992,0.635,2.377,2.894,0.306031,0.091785,-1.718558,99717.63,+94,-125,-131
57003,0.954,0.483,3.045,0.730122,0.305161,-1.889365,99717.63,+88,-129,-129
57013,1.478,-1.037,3.498,0.905718,0.586647,-2.122961,99713.84,+88,-129,-129
57023,2.663,-1.663,2.954,0.971168,0.827161,-2.396466,99715.49,+81,-132,-128
57033,2.946,-2.455,2.033,1.031296,1.052775,-2.636979,99714.05,+72,-135,-126
57042,3.574,-2.771,1.163,1.188801,1.335858,-2.849291,99714.05,+60,-139,-124
57053,5.284,-2.298,0.278,1.396856,1.568922,-2.999878,99718.19,+60,-139,-124
57063,7.456,-1.707,-0.414,1.551168,1.646610,-3.077034,99718.19,+49,-143,-121
57072,9.191,-3.016,-1.221,1.695369,1.576371,-3.111089,99716.05,+37,-146,-116
57082,9.306,-5.791,-1.236,1.811369,1.401307,-3.174410,99714.95,+25,-149,-113
57093,8.839,-8.066,-0.727,1.762947,1.258702,-3.331915,99716.41,+25,-149,-113
57103,9.351,-8.510,-0.208,1.700690,1.220922,-3.525603,99716.41,+14,-151,-108
57113,9.766,-8.287,0.871,1.754966,1.235289,-3.590520,99715.73,+1,-152,-103
57122,9.259,-9.142,1.324,1.927369,1.220390,-3.476649,99714.95,-10,-154,-99
57133,8.839,-10.218,1.460,2.069442,1.219858,-3.335107,99716.52,-10,-154,-99
57143,9.256,-10.405,1.049,2.035387,1.228371,-3.236135,99713.35,-21,-154,-92
57153,9.683,-9.741,0.597,1.963553,1.245931,-3.161640,99717.70,-33,-155,-86
57163,9.973,-8.882,0.240,1.941204,1.249124,-3.095126,99715.09,-42,-154,-80
57172,9.957,-8.815,-0.159,1.978984,1.217729,-3.048300,99715.09,-42,-154,-80
57183,9.991,-8.773,-0.137,2.033791,1.196977,-3.020098,99717.01,-52,-154,-74
57193,10.157,-7.752,0.330,2.023149,1.183142,-2.999346,99715.45,-62,-152,-67
57202,9.970,-7.137,0.840,2.031131,1.182610,-2.931236,99715.45,-70,-151,-62
57212,9.854,-7.015,1.368,2.148195,1.195381,-2.836520,99717.11,-70,-151,-62
57223,10.239,-6.789,1.363,2.300378,1.205491,-2.764154,99718.42,-79,-151,-55
57233,10.571,-6.487,0.971,2.426488,1.173564,-2.715732,99716.02,-87,-149,-47
57243,10.698,-6.058,0.634,2.515882,1.098536,-2.676356,99717.42,-95,-148,-40
57252,10.984,-5.385,0.716,2.588249,0.997968,-2.656135,99717.42,-95,-148,-40
57263,11.247,-4.882,0.920,2.651570,0.878775,-2.637511,99717.92,-102,-145,-32
57273,11.179,-4.921,1.283,2.705846,0.751601,-2.592814,99718.78,-110,-143,-26
57283,11.178,-5.294,1.861,2.742561,0.663803,-2.535878,99715.80,-115,-141,-18
57292,11.491,-5.877,2.317,2.721809,0.629216,-2.478943,99715.80,-115,-141,-18
57303,11.789,-6.416,2.712,2.636139,0.630812,-2.412961,99715.80,-123,-137,-11
57313,11.910,-7.032,2.840,2.502580,0.662207,-2.337934,99720.76,-129,-134,-3
57323,11.493,-7.860,2.641,2.314745,0.694665,-2.242686,99716.84,-135,-129,+3
57333,10.415,-9.690,2.069,2.090727,0.704421,-2.112851,99717.66,-139,-126,+8
57342,9.541,-11.291,2.054,1.872030,0.708500,-1.955347,99717.66,-139,-126,+8
57353,9.431,-11.923,1.488,1.546379,0.721803,-1.783475,99717.66,-144,-122,+13
57363,8.933,-12.012,1.035,1.040342,0.654757,-1.619053,99720.51,-148,-118,+16
57373,8.287,-12.119,1.782,0.445976,0.595693,-1.411531,99718.43,-150,-118,+16
57382,9.421,-13.110,2.920,-0.248960,0.630280,-1.142283,99718.35,-150,-116,+18
57393,9.290,-12.939,1.250,-0.916225,0.596757,-0.825678,99718.35,-153,-112,+18
57403,8.249,-12.099,0.923,-1.373840,0.525986,-0.413293,99719.15,-154,-112,+17
57413,7.631,-12.375,0.287,-1.442482,0.316867,0.136377,99719.15,-152,-112,+14
57422,6.876,-12.696,0.726,-1.233363,0.056666,0.793000,99719.66,-152,-112,+14
57433,8.705,-9.300,1.269,-0.753932,-0.184380,1.315000,99721.18,-150,-115,+12
57443,9.016,-6.470,0.050,-0.134556,-0.440325,1.672577,99719.51,-147,-119,+11
57448,8.588,-2.571,1.005,0.282618,-0.645719,1.832210,99719.51,-147,-119,+11
57458,11.069,4.976,3.507,0.688618,-0.692545,1.618834,99719.79,-143,-123,+11
57467,20.128,18.908,6.421,0.840801,-0.566435,0.836633,99717.38,-141,-125,+11
57478,22.042,8.369,-3.371,0.042636,-0.365829,0.580688,99718.90,-141,-125,+11
57488,18.044,-13.468,-7.596,-0.662941,-0.406270,1.602339,99720.26,-139,-127,+9
57498,11.855,-14.261,-0.432,-0.351657,-0.271646,1.697587,99720.26,-135,-132,+8
57507,9.187,-2.280,4.612,-0.264923,0.240244,1.447495,99720.34,-132,-136,+9
57518,11.083,2.814,4.262,0.470453,0.482354,1.575733,99718.24,-132,-136,+9
57528,10.077,0.423,8.897,1.479865,-0.017298,1.946614,99716.30,-128,-140,+12
57538,5.527,-6.014,9.094,1.981112,-0.400417,1.786449,99716.62,-123,-144,+16
57547,5.638,-8.621,5.937,1.411755,-0.355187,1.403862,99716.62,-120,-147,+18
57558,6.750,-5.997,4.470,0.603480,-0.182784,1.146853,99720.00,-120,-147,+18
57568,8.044,-4.718,3.881,-0.429345,0.057375,0.871930,99721.20,-117,-150,+19
57578,9.168,-4.851,2.850,-1.214739,0.200867,0.648266,99718.44,-115,-151,+16
57588,10.048,-3.618,3.690,-1.627656,0.346133,0.444468,99716.14,-114,-151,+13
57597,10.860,-0.865,3.107,-1.715454,0.435528,0.313037,99716.14,-114,-151,+13
57608,10.666,2.905,1.954,-1.697895,0.401473,0.338578,99720.52,-113,-152,+11
57618,11.355,4.487,2.191,-1.299344,0.305693,0.581752,99720.48,-112,-152,+7
57628,12.687,5.002,3.959,-0.617180,0.129033,0.855257,99719.34,-110,-154,+6
57637,11.432,3.162,6.483,-0.254281,-0.051885,1.097899,99719.18,-106,-154,+5
57648,9.754,-0.984,7.814,-0.196813,-0.124252,1.200596,99719.18,-106,-156,+5
57658,8.906,-3.895,6.450,-0.480427,-0.092857,1.106945,99719.57,-103,-158,+4
57668,8.772,-4.311,4.245,-0.949216,0.036446,0.937734,99716.70,-101,-159,+2
57678,8.432,-3.974,2.573,-1.204097,0.126372,0.834505,99719.46,-99,-162,+0
57688,8.285,-2.591,0.236,-1.141840,0.118390,0.767991,99718.26,-99,-162,+0
57698,6.987,-3.108,-0.708,-0.798629,0.014629,0.754156,99718.26,-96,-162,-2
57708,5.201,-5.813,-2.044,-0.263327,-0.142875,0.740853,99720.73,-94,-163,-2
57718,4.931,-7.269,-2.444,0.099040,-0.233334,0.646670,99722.46,-93,-165,-3
57728,4.982,-6.816,-0.366,0.176196,-0.254086,0.443404,99719.43,-93,-165,-3
57738,5.358,-6.010,1.550,0.108618,-0.145536,0.238542,99718.65,-92,-165,-3
57748,6.231,-4.329,2.075,-0.005253,-0.050820,0.096468,99718.65,-91,-165,-3
57758,7.466,-1.948,2.528,-0.076556,0.006115,0.062413,99720.20,-92,-166,-3
57767,9.063,1.073,4.570,0.034655,0.003455,0.104450,99719.98,-92,-166,-3
57778,10.599,2.269,8.478,0.339554,-0.081683,0.171496,99718.05,-91,-165,-3
57788,11.990,-1.248,8.547,0.506636,-0.139151,0.207147,99717.99,-90,-166,-1
57798,12.555,-4.814,4.989,0.191627,-0.188105,0.152872,99717.99,-90,-166,-1
57803,12.337,-4.661,3.325,-0.218629,-0.142343,0.085826,99719.82,-90,-166,-1
57812,11.825,-2.018,2.469,-0.538427,-0.122123,0.068267,99719.82,-89,-166,-3
57823,10.850,0.244,2.008,-0.483088,-0.180123,0.111900,99720.15,-89,-166,-3
57833,10.503,-0.483,2.052,-0.082409,-0.314215,0.238542,99717.01,-88,-166,-4
57843,9.712,-2.238,2.209,0.145334,-0.407866,0.319422,99720.24,-88,-167,-5
57853,9.332,-3.045,2.422,0.100104,-0.415316,0.347624,99720.21,-86,-168,-5
57863,8.877,-3.210,2.645,0.002728,-0.416912,0.345496,99717.96,-85,-168,-6
57873,7.992,-3.417,2.526,0.002728,-0.445114,0.340175,99720.30,-85,-168,-6
57883,6.981,-4.048,2.086,0.011774,-0.464802,0.334854,99720.30,-84,-169,-7
57893,6.334,-3.738,3.051,-0.059529,-0.481829,0.322615,99717.80,-83,-169,-7
57903,6.429,-2.006,4.524,-0.148923,-0.506306,0.321019,99717.80,-81,-169,-9
57913,7.543,-1.203,3.984,-0.089859,-0.520673,0.347092,99719.46,-81,-169,-9
57923,9.411,-1.116,3.208,0.001664,-0.571756,0.414670,99719.57,-80,-170,-9
57933,10.624,-2.236,2.268,0.171939,-0.634545,0.438083,99719.57,-79,-171,-9
57944,10.986,-2.744,1.566,0.262398,-0.639334,0.442872,99717.85,-77,-172,-10
57953,10.422,-2.917,1.913,0.259205,-0.631884,0.438615,99717.85,-77,-172,-10
57963,9.871,-3.001,2.310,0.271976,-0.643059,0.398707,99719.39,-76,-172,-10
57973,9.567,-3.411,2.773,0.244838,-0.645187,0.373698,99718.50,-74,-173,-11
57984,9.223,-3.446,3.034,0.171407,-0.644655,0.368909,99714.38,-73,-174,-11
57993,9.076,-3.305,3.324,0.066581,-0.633481,0.364120,99714.38,-73,-174,-11
58003,9.062,-3.254,3.219,-0.044630,-0.619114,0.363055,99714.38,-71,-174,-12
58013,9.130,-3.076,2.840,-0.134024,-0.615921,0.372101,99721.34,-70,-175,-13
58023,9.202,-2.278,2.467,-0.153712,-0.610600,0.402431,99718.51,-68,-176,-14
58033,9.092,-2.061,3.259,-0.131896,-0.583462,0.441276,99719.24,-68,-176,-14
58043,8.825,-3.631,2.233,-0.072831,-0.601554,0.430101,99717.93,-67,-176,-14
58053,8.965,-3.558,1.688,-0.091455,-0.589316,0.417863,99717.93,-65,-176,-16
58063,8.958,-3.711,1.925,-0.144134,-0.574416,0.390725,99717.68,-63,-177,-18
58074,8.879,-3.914,2.065,-0.183510,-0.559517,0.358266,99720.71,-63,-177,-18
58083,8.840,-3.768,2.095,-0.268648,-0.533444,0.335386,99719.20,-62,-177,-19
58093,8.997,-3.324,1.901,-0.373473,-0.507371,0.318890,99719.20,-61,-178,-20
58103,9.328,-2.831,1.608,-0.408061,-0.500453,0.323679,99716.69,-60,-177,-22
58113,9.742,-2.161,2.324,-0.387308,-0.503114,0.383808,99716.69,-60,-177,-22
58123,9.696,-2.709,2.695,-0.321859,-0.533976,0.437019,99720.72,-58,-178,-24
58133,9.533,-3.433,2.316,-0.266519,-0.571756,0.488101,99721.03,-56,-178,-26
58143,9.483,-3.478,2.926,-0.336758,-0.586123,0.529074,99718.69,-54,-179,-27
58153,9.410,-4.094,2.380,-0.380391,-0.594105,0.539184,99718.69,-54,-179,-27
58164,9.615,-4.711,1.565,-0.507033,-0.595169,0.537587,99720.58,-51,-178,-28
58173,10.005,-4.339,1.412,-0.663473,-0.606875,0.515239,99720.73,-49,-178,-31
58183,10.453,-3.825,1.607,-0.753400,-0.618582,0.517367,99717.19,-47,-178,-33
58193,10.786,-3.484,1.280,-0.800225,-0.665939,0.543973,99717.81,-47,-178,-33
58204,11.078,-2.929,1.612,-0.808207,-0.740435,0.589734,99720.94,-46,-179,-36
58213,11.604,-2.650,1.985,-0.779473,-0.839407,0.638156,99718.95,-42,-178,-39
58223,12.022,-2.704,1.327,-0.767767,-0.942104,0.691367,99716.86,-39,-178,-42
58233,11.679,-2.513,1.171,-0.767767,-1.076196,0.782358,99716.86,-39,-178,-42
58244,11.768,-1.618,1.370,-0.740629,-1.244875,0.904743,99716.28,-36,-178,-45
58253,11.996,-1.478,1.664,-0.614519,-1.447077,1.053734,99716.28,-31,-178,-49
58263,12.211,-2.260,1.727,-0.464464,-1.664177,1.205917,99719.02,-25,-178,-52
58273,12.715,-3.555,2.081,-0.440342,-1.871345,1.352247,99718.05,-19,-178,-54
58283,13.556,-3.960,3.081,-0.643253,-1.977590,1.455477,99718.05,-19,-179,-54
58293,15.434,-4.922,4.545,-1.001363,-2.035590,1.529972,99717.19,-11,-179,-57
58303,18.627,-5.957,6.028,-1.168977,-2.101039,1.479422,99717.19,-4,-178,-62
58313,20.938,-5.668,8.065,-1.357344,-2.102636,1.430467,99720.26,+3,-178,-62
58323,20.921,-3.958,8.757,-1.382886,-2.061663,1.475165,99718.51,+3,-177,-67
58334,16.586,-1.492,7.543,-1.414812,-2.095186,1.491128,99717.60,+10,-176,-72
58343,12.046,0.368,7.654,-1.397785,-2.232471,1.504963,99717.60,+18,-174,-77
58353,10.140,-1.264,5.567,-1.062556,-2.460746,1.643311,99717.60,+27,-174,-77
58363,9.568,-5.619,4.146,-0.435198,-2.818856,1.738027,99718.25,+27,-173,-79
58374,10.549,-7.937,4.547,0.245902,-3.010415,1.772614,99720.92,+37,-173,-80
58383,10.461,-6.441,5.123,0.758324,-3.004562,1.611917,99718.88,+46,-174,-77
58393,9.021,-4.418,3.641,0.913168,-2.905589,1.248486,99715.48,+55,-174,-75
58403,6.796,-2.352,3.120,0.826434,-2.856635,0.872817,99715.48,+55,-174,-75
58414,5.764,-1.385,3.090,0.964251,-2.818856,0.431165,99719.69,+61,-176,-72
58424,6.232,1.108,4.294,1.343645,-2.781076,0.070927,99720.06,+65,-178,-68
58433,5.759,1.235,5.148,1.960892,-2.808745,-0.108394,99716.42,+68,-180,-61
58443,5.061,0.272,5.015,2.537699,-2.858764,-0.241421,99716.42,+68,-180,-61
58454,4.597,0.028,5.092,3.002231,-2.841204,-0.393073,99717.22,+70,-183,-52
58464,4.263,-0.314,5.386,3.365662,-2.759791,-0.559091,99716.95,+72,-187,-41
58473,4.050,-1.031,5.500,3.628524,-2.656562,-0.744265,99716.95,+71,-191,-30
58483,4.002,-2.233,5.235,3.754102,-2.530452,-0.934228,99718.94,+71,-191,-30
58493,3.814,-3.254,4.852,3.758359,-2.370287,-1.133237,99718.00,+69,-195,-17
58503,3.726,-3.667,4.633,3.705148,-2.187773,-1.347678,99718.00,+66,-199,-6
58513,3.960,-3.594,4.516,3.613093,-2.028672,-1.555732,99718.47,+61,-201,+4
58523,4.464,-3.270,4.358,3.555093,-1.915333,-1.732925,99715.06,+61,-201,+4
58533,4.907,-3.420,4.460,3.571588,-1.824874,-1.869677,99715.39,+56,-202,+16
58544,5.135,-4.040,5.043,3.639166,-1.725370,-1.967585,99714.39,+49,-203,+27
58554,5.437,-5.011,5.660,3.693441,-1.613627,-2.045273,99717.52,+42,-203,+38
58563,5.733,-6.345,6.081,3.699827,-1.496563,-2.125622,99715.43,+42,-203,+38
58573,6.031,-7.236,6.433,3.622671,-1.339590,-2.244814,99716.59,+33,-203,+49
58584,6.565,-6.986,6.959,3.492836,-1.151224,-2.353897,99716.59,+26,-201,+59
58593,7.133,-7.219,7.193,3.444946,-0.988930,-2.438503,99714.07,+16,-199,+69
58603,7.628,-7.621,7.724,3.448671,-0.833554,-2.487457,99714.07,+16,-199,+69
58613,7.692,-7.928,8.040,3.487515,-0.674985,-2.479475,99716.02,+7,-197,+78
58624,7.605,-8.476,8.017,3.560414,-0.512692,-2.443824,99713.88,+0,-193,+88
58633,7.377,-8.862,7.977,3.607772,-0.349334,-2.399658,99715.34,-8,-188,+98
58643,7.205,-8.738,8.044,3.601386,-0.158307,-2.367200,99715.14,-8,-188,+98
58653,7.190,-8.568,8.040,3.547111,0.052409,-2.359750,99715.14,-17,-183,+108
58663,7.257,-8.401,8.111,3.460909,0.275363,-2.364539,99715.65,-24,-178,+118
58674,7.385,-8.142,8.213,3.366726,0.501509,-2.374117,99715.26,-31,-171,+127
58684,7.513,-7.867,8.140,3.256047,0.738830,-2.389548,99711.93,-31,-171,+127
58693,7.604,-7.788,7.936,3.124084,0.979876,-2.394337,99711.93,-37,-163,+135
58703,7.765,-7.795,7.758,2.975093,1.218793,-2.399658,99711.93,-42,-157,+144
58714,8.043,-7.812,7.503,2.803754,1.450793,-2.419347,99717.59,-46,-149,+152
58723,8.218,-7.940,6.948,2.577075,1.673215,-2.458723,99715.29,-46,-149,+152
58733,8.282,-8.163,6.391,2.297185,1.881802,-2.506613,99714.09,-49,-143,+159
58743,8.366,-8.404,5.563,1.984305,2.058995,-2.565145,99716.23,-51,-135,+165
58754,8.603,-8.093,5.097,1.640562,2.231398,-2.615695,99716.23,-54,-129,+172
58764,8.964,-7.386,5.061,1.338324,2.377728,-2.644961,99716.73,-54,-129,+172
58773,9.579,-6.593,5.010,1.123883,2.490004,-2.660924,99716.47,-55,-123,+178
58783,10.507,-6.527,5.043,0.981278,2.586315,-2.639640,99715.53,-56,-118,+182
58793,11.479,-7.471,4.237,0.939773,2.625692,-2.544392,99716.52,-56,-113,+186
58804,11.850,-9.394,2.150,0.882306,2.548536,-2.457126,99717.77,-56,-113,+191
58814,11.229,-9.518,1.182,0.764177,2.429875,-2.464044,99717.82,-56,-107,+191
58823,11.233,-8.596,0.876,0.603480,2.354316,-2.428925,99717.82,-56,-102,+195
58833,12.245,-8.385,1.340,0.485352,2.286206,-2.286851,99715.79,-56,-98,+199
58844,12.421,-9.443,0.088,0.334765,2.111141,-2.022925,99718.60,-55,-96,+201
58853,11.273,-11.020,-1.052,0.137352,1.823270,-1.699402,99718.60,-55,-96,+201
58863,10.187,-12.435,-2.050,0.108086,1.523160,-1.274778,99717.95,-53,-92,+205
58873,9.687,-13.198,-2.901,0.253352,1.256573,-0.769806,99719.25,-52,-90,+207
58884,9.961,-13.255,-3.513,0.488544,0.975087,-0.286651,99719.63,-51,-89,+209
58894,10.005,-13.399,-4.219,0.678508,0.624959,0.213000,99717.42,-51,-89,+209
58904,9.574,-14.007,-5.043,0.776416,0.234390,0.739789,99721.01,-48,-87,+211
58913,9.663,-14.012,-5.643,0.867407,-0.171077,1.247954,99721.54,-46,-85,+213
58924,13.942,-9.299,-5.704,1.035021,-0.622306,1.642779,99720.07,-45,-84,+214
58934,27.904,4.949,-6.841,1.310654,-1.442820,1.708229,99719.13,-45,-84,+214
58943,30.019,10.431,-1.818,1.735810,-2.209058,2.147219,99719.13,-47,-82,+214
58953,16.499,-2.898,3.361,2.025277,-2.146801,3.188026,99719.13,-48,-79,+215
58963,8.309,-11.301,-2.500,3.022451,-1.960562,3.212503,99720.50,-48,-74,+218
58974,7.860,-14.240,-4.064,3.017662,-1.763682,3.156632,99722.73,-48,-74,+218
58983,7.114,-7.062,1.341,2.498323,-1.322031,3.340742,99722.06,-47,-70,+221
58993,6.246,-0.256,4.786,2.469057,-0.881976,2.911861,99720.08,-45,-67,+222
59003,2.556,-7.544,3.829,2.341882,-1.042141,2.496815,99720.08,-44,-62,+224
59014,5.048,-16.097,6.133,1.993883,-1.167719,2.119550,99721.63,-44,-62,+224
59024,8.849,-15.974,2.409,0.394893,-1.198581,1.522522,99720.42,-45,-60,+225
59033,8.620,-9.908,-1.012,-1.827729,-0.697866,1.073954,99720.53,-46,-65,+222
59043,9.009,-4.548,-0.056,-3.178756,-0.139151,0.857917,99720.53,-44,-76,+217
59054,8.694,-1.067,0.487,-3.127141,0.122647,0.798321,99723.93,-44,-76,+217
59064,10.186,1.489,1.152,-2.145931,0.305161,0.816413,99723.93,-43,-85,+214
59073,10.914,1.827,2.040,-0.834280,0.104023,0.860046,99720.12,-40,-89,+212
59083,8.942,-1.080,2.619,0.304434,-0.147664,0.949440,99720.54,-40,-89,+213
59094,8.219,-3.187,2.802,0.808342,-0.179591,0.939330,99720.38,-40,-89,+213
59104,8.485,-4.053,2.622,0.916361,-0.164160,0.879734,99720.38,-37,-87,+214
59114,8.223,-5.470,2.469,0.722673,-0.095518,0.753624,99719.13,-37,-86,+214
59123,7.728,-6.746,3.382,0.228875,0.025271,0.582817,99721.27,-35,-87,+216
59133,6.974,-6.746,4.526,-0.425620,0.195546,0.319954,99719.80,-35,-87,+216
59144,7.241,-5.955,4.218,-0.885363,0.367418,0.089019,99717.52,-35,-88,+214
59154,7.934,-5.093,2.981,-1.220592,0.460537,-0.019532,99721.70,-33,-92,+213
59163,9.014,-2.584,2.186,-1.354152,0.500445,-0.049862,99719.34,-32,-96,+211
59173,10.219,-0.191,2.338,-1.045528,0.457344,0.013459,99719.34,-32,-96,+211
59184,10.127,-0.663,3.152,-0.460207,0.304097,0.145422,99717.83,-31,-98,+211
59194,8.971,-3.252,3.926,-0.122850,0.166280,0.225239,99718.14,-30,-99,+210
59203,8.361,-4.537,4.291,-0.225015,0.133822,0.234817,99718.14,-30,-99,+209
59213,8.294,-4.486,4.746,-0.503840,0.122647,0.214597,99720.63,-30,-99,+209
59224,8.031,-4.006,5.068,-0.732115,0.094445,0.210340,99719.43,-30,-100,+209
59234,8.291,-2.901,4.861,-0.896537,0.069436,0.247588,99718.34,-28,-104,+208
59244,9.281,-1.468,4.856,-0.935381,0.049748,0.338578,99718.65,-27,-106,+207
59253,9.587,-1.496,4.254,-0.802886,-0.023683,0.452450,99718.65,-27,-106,+207
59264,9.715,-2.418,3.273,-0.672519,-0.085940,0.553019,99720.23,-27,-109,+205
59274,9.724,-2.641,2.830,-0.625693,-0.116802,0.645074,99719.41,-26,-111,+203
59284,9.861,-3.746,2.756,-0.594831,-0.139151,0.699881,99720.30,-24,-112,+202
59293,9.592,-4.036,2.450,-0.653895,-0.154050,0.747239,99720.30,-24,-112,+202
59303,9.465,-4.150,2.512,-0.740629,-0.136490,0.776505,99720.30,-23,-116,+202
59314,9.436,-4.165,2.625,-0.845455,-0.118398,0.801514,99722.92,-21,-118,+199
59324,9.483,-3.423,3.508,-0.882702,-0.164692,0.836101,99720.67,-20,-121,+198
59333,9.699,-3.074,3.627,-0.828427,-0.251426,0.916982,99718.31,-17,-123,+196
59343,10.066,-3.280,3.653,-0.788519,-0.354655,0.984560,99715.66,-17,-123,+196
59354,9.720,-3.614,3.516,-0.811400,-0.438196,1.062780,99715.66,-16,-127,+193
59364,9.515,-3.976,3.491,-0.900794,-0.465866,1.142064,99719.30,-15,-129,+191
59374,9.920,-4.152,3.435,-0.969436,-0.498857,1.202724,99718.73,-13,-133,+188
59383,10.665,-4.734,3.108,-1.018390,-0.537169,1.246890,99717.30,-13,-133,+188
59394,11.207,-5.202,2.246,-1.115767,-0.568031,1.276688,99717.30,-12,-136,+186
59404,11.363,-5.093,1.284,-1.309987,-0.594105,1.308082,99719.52,-10,-140,+183
59414,11.792,-4.945,0.855,-1.568060,-0.633481,1.341073,99719.52,-7,-145,+180
59423,12.657,-4.126,2.079,-1.801124,-0.689352,1.367146,99718.90,-7,-145,+180
59433,13.205,-1.537,4.455,-1.801656,-0.860692,1.440578,99719.84,-5,-149,+175
59444,12.630,-0.648,4.206,-1.477069,-1.067150,1.660339,99717.85,-3,-153,+170
59454,12.515,-2.573,2.838,-1.105124,-1.232636,1.858816,99717.85,+0,-156,+167
59464,12.451,-4.532,2.403,-1.072666,-1.331609,1.986522,99721.73,+0,-156,+167
59473,12.848,-6.288,3.283,-1.367987,-1.308196,2.020577,99721.73,+2,-159,+163
59484,13.531,-6.069,4.429,-1.801124,-1.211352,2.027495,99719.07,+5,-163,+158
59494,14.863,-5.269,5.197,-2.252885,-1.080453,2.039733,99718.81,+10,-168,+151
59504,17.615,-3.700,6.769,-2.643454,-1.029370,2.006210,99719.66,+10,-168,+151
59513,20.276,-1.513,10.203,-3.024976,-0.972435,1.963109,99716.63,+14,-174,+144
59524,20.741,0.464,10.692,-3.324554,-0.931994,2.016853,99716.63,+19,-180,+135
59534,19.548,2.069,11.092,-3.258573,-1.023517,2.114229,99718.30,+25,-185,+126
59544,17.981,1.247,9.446,-2.862151,-1.353957,2.056229,99717.77,+25,-185,+126
59553,14.391,-2.124,10.539,-2.715821,-1.480599,1.990247,99717.77,+30,-187,+117
59564,14.072,-5.396,6.725,-2.058133,-1.632783,2.237678,99716.64,+35,-190,+111
59574,12.061,-9.387,4.017,-1.695234,-1.664177,2.523953,99719.30,+42,-193,+107
59584,11.649,-10.140,5.064,-1.248262,-1.573719,2.510650,99716.48,+42,-193,+107
59594,9.586,-6.969,4.994,-0.888024,-1.298086,2.217990,99715.13,+49,-193,+104
59603,6.830,-2.537,6.950,-0.649106,-0.788325,1.742816,99715.13,+54,-193,+103
59614,4.003,0.362,5.705,-0.426152,-0.298252,1.097899,99717.49,+58,-194,+101
59624,2.351,1.497,6.243,-0.620372,0.047620,0.572174,99719.48,+58,-194,+101
59634,2.740,3.822,5.494,-0.865143,0.085400,0.032615,99713.04,+59,-194,+98
59643,2.676,5.353,3.462,-0.980079,0.049216,-0.544724,99713.04,+58,-195,+98
59654,2.314,5.183,1.887,-0.860886,0.125840,-0.881549,99713.04,+55,-196,+94
59664,1.718,4.267,0.791,-0.566097,0.291326,-1.077366,99717.11,+55,-196,+94
59674,1.167,3.067,1.012,-0.123914,0.538757,-1.235402,99715.39,+53,-197,+94
59683,1.027,1.459,1.982,0.354985,0.838867,-1.420577,99716.02,+49,-197,+95
59694,1.227,-0.114,2.628,0.705113,1.159197,-1.660558,99714.44,+44,-197,+98
59704,1.546,-0.968,2.646,0.854636,1.461967,-1.951090,99714.44,+44,-197,+98
59714,2.068,-1.119,2.444,0.854636,1.720573,-2.255457,99716.95,+39,-196,+99
59724,2.837,-0.840,2.237,0.840801,1.932353,-2.540668,99713.19,+34,-195,+103
59734,3.716,-0.386,2.237,1.019590,2.104756,-2.773731,99714.97,+28,-193,+106
59744,4.743,-0.166,2.014,1.418672,2.293123,-2.969016,99714.97,+28,-193,+106
59754,5.989,-0.773,1.918,1.865644,2.476701,-3.140887,99715.06,+21,-190,+111
59763,7.406,-1.714,1.936,2.219497,2.604407,-3.301584,99715.06,+15,-187,+118
59773,8.485,-2.359,2.159,2.449901,2.638462,-3.455364,99714.86,+8,-183,+126
59784,9.624,-2.851,2.287,2.568029,2.623031,-3.568172,99718.58,+3,-183,+126
59794,10.461,-3.484,2.501,2.596763,2.563435,-3.658630,99712.41,+3,-178,+134
59804,10.819,-4.836,3.214,2.548873,2.507031,-3.722483,99712.41,-2,-173,+141
59814,11.106,-6.424,3.925,2.472250,2.495857,-3.807089,99715.59,-8,-168,+148
59824,11.569,-7.514,4.250,2.420635,2.544811,-3.903933,99715.49,-14,-163,+155
59834,12.166,-8.018,4.415,2.513222,2.656022,-3.991199,99715.65,-14,-163,+155
59844,12.816,-7.983,4.788,2.680304,2.793306,-4.036961,99716.33,-21,-155,+163
59854,13.285,-8.507,4.609,2.774488,2.886425,-3.984281,99715.38,-25,-148,+172
59864,13.543,-9.722,3.846,2.752139,2.939636,-3.879988,99716.38,-29,-141,+180
59874,13.660,-10.623,2.567,2.627093,2.948150,-3.778887,99716.22,-29,-141,+180
59884,14.130,-11.417,0.996,2.423295,2.931123,-3.680979,99716.22,-32,-132,+188
59894,15.128,-12.255,-0.614,2.191828,2.848113,-3.576153,99713.97,-34,-125,+195
59904,15.799,-13.245,-1.641,1.908213,2.629948,-3.468135,99713.97,-36,-119,+201
59914,15.217,-14.251,-1.957,1.527223,2.306426,-3.271786,99719.40,-36,-119,+201
59919,14.193,-14.516,-1.653,1.213810,2.062719,-3.038722,99719.46,-38,-113,+207
59929,12.860,-15.258,-1.467,1.045131,1.824334,-2.706154,99715.96,-38,-113,+207
59939,10.727,-18.521,-1.744,1.052049,1.566261,-2.150631,99716.59,-39,-108,+211
59949,8.967,-21.863,-3.284,0.915829,1.321491,-1.512632,99716.59,-39,-104,+214
59959,8.739,-22.370,-5.148,0.434269,1.046922,-0.816632,99723.68,-39,-103,+216
59969,10.470,-20.003,-4.868,-0.168079,0.751601,-0.065825,99724.30,-39,-103,+216
59979,11.151,-17.210,-5.493,-0.542152,0.253546,0.727018,99720.18,-37,-104,+217
59988,11.114,-14.607,-4.747,-0.496391,-0.390839,1.521990,99721.49,-34,-108,+217
59999,11.973,-10.958,-2.576,-0.079217,-0.991058,2.253109,99721.49,-33,-110,+216
60009,19.489,7.618,6.379,0.671058,-1.544453,2.431366,99719.59,-33,-110,+216
60019,32.104,35.827,12.501,1.736874,-1.451333,1.172926,99717.18,-33,-110,+217
60028,26.144,5.863,-4.717,0.385315,-1.455590,2.591531,99720.48,-34,-109,+217
60039,11.379,-17.149,-9.584,1.805516,-2.270782,3.711090,99721.15,-33,-109,+218
60049,8.192,-28.789,-2.334,3.712597,-2.011645,3.637127,99721.15,-31,-102,+224
60059,12.950,-15.036,-2.638,2.388708,-1.448673,3.394485,99723.88,-31,-102,+224
60069,9.875,3.294,-0.378,0.747150,-0.908581,2.902283,99719.66,-28,-101,+226
60079,-0.818,1.629,7.598,1.134526,-0.713297,2.746907,99717.62,-25,-101,+227
60089,-0.082,-10.096,11.148,2.046562,-0.814930,2.510118,99716.52,-22,-97,+230
60099,6.247,-13.520,4.437,1.337259,-1.270416,1.959917,99716.52,-22,-97,+230
60109,9.439,-12.917,-0.269,-0.342611,-1.124086,1.520394,99723.41,-24,-97,+229
60119,9.687,-7.660,1.794,-1.999069,-0.531316,1.181972,99717.51,-23,-104,+225
60129,8.138,-4.613,1.498,-3.030298,-0.189701,1.025000,99720.13,-21,-114,+220
60139,8.077,-2.783,1.547,-3.011142,0.158299,0.905275,99719.40,-21,-114,+220
60149,9.428,-0.264,1.040,-2.175729,0.239179,0.829716,99719.40,-19,-121,+215
60158,10.270,2.167,2.457,-1.106721,0.090189,0.903679,99720.22,-16,-126,+213
60169,9.190,-0.991,2.833,-0.018556,-0.090729,1.052137,99719.80,-14,-127,+213
60179,8.782,-3.548,3.479,0.450232,-0.159903,1.107477,99718.23,-14,-127,+213
60189,8.365,-4.848,2.981,0.396489,-0.183316,1.050541,99717.56,-12,-125,+214
60198,7.901,-6.256,3.976,0.107022,-0.124784,0.900486,99717.56,-11,-127,+214
60209,7.156,-7.338,5.596,-0.431473,-0.044435,0.655184,99718.84,-10,-128,+212
60219,6.974,-6.373,5.896,-1.024244,0.093381,0.375294,99719.48,-10,-128,+212
60229,7.547,-4.578,4.751,-1.358409,0.202464,0.222578,99718.95,-8,-132,+211
60239,8.885,-1.941,2.987,-1.374372,0.235987,0.233221,99720.27,-7,-135,+208
60249,10.192,-0.484,1.789,-0.997638,0.168941,0.330597,99720.27,-6,-138,+206
60259,10.104,-1.950,1.648,-0.455418,0.028464,0.470009,99720.45,-6,-138,+206
60269,9.074,-4.285,2.478,-0.250556,-0.029004,0.545037,99722.54,-5,-139,+206
60279,8.458,-5.616,3.271,-0.411785,0.042299,0.504597,99719.04,-4,-141,+205
60289,8.254,-5.859,3.757,-0.712427,0.137546,0.427441,99719.45,-2,-143,+203
60299,8.345,-5.157,4.120,-0.978482,0.193950,0.369441,99719.45,-2,-143,+203
60309,8.656,-3.835,4.389,-1.117363,0.175858,0.356138,99718.20,-1,-146,+200
60319,8.909,-2.539,4.691,-1.033290,0.081143,0.392853,99719.00,+0,-149,+198
60329,8.759,-2.935,4.255,-0.778409,-0.037518,0.457239,99719.83,+1,-151,+196
60339,8.691,-4.013,3.634,-0.708170,-0.083279,0.523753,99718.20,+1,-151,+196
60349,9.136,-4.241,3.449,-0.782134,-0.082747,0.559936,99718.20,+1,-152,+195
60359,9.381,-4.563,2.968,-0.877381,-0.085408,0.581220,99720.07,+3,-155,+193
60369,9.708,-4.859,2.681,-0.968904,-0.075298,0.592395,99721.32,+5,-158,+190
60379,9.769,-4.519,2.268,-1.015198,-0.075298,0.604633,99719.13,+5,-158,+190
60389,9.745,-4.428,1.997,-1.025308,-0.082215,0.618468,99718.24,+7,-160,+188
60399,9.763,-4.492,1.855,-1.038611,-0.109353,0.627514,99718.24,+8,-163,+185
60409,9.905,-4.213,2.275,-1.064684,-0.163628,0.636560,99720.51,+9,-166,+182
60419,9.798,-3.705,2.897,-1.036482,-0.257279,0.666890,99719.62,+9,-166,+182
60429,9.420,-3.604,3.140,-0.970501,-0.334435,0.749367,99718.37,+11,-168,+180
60439,9.360,-4.060,3.059,-0.938574,-0.399884,0.835037,99721.60,+12,-170,+177
60449,9.466,-4.447,3.228,-0.974757,-0.475976,0.899954,99721.60,+13,-173,+175
60460,9.817,-4.566,3.480,-1.083840,-0.538765,0.970193,99720.15,+13,-173,+175
60469,10.237,-4.479,3.514,-1.200904,-0.600490,1.042560,99719.20,+15,-175,+172
60479,10.701,-3.873,3.690,-1.298812,-0.694673,1.134082,99718.57,+16,-180,+168
60489,11.300,-3.432,4.153,-1.346170,-0.806416,1.242633,99717.85,+19,-181,+164
60499,11.986,-3.031,4.324,-1.319032,-0.922416,1.373000,99717.85,+19,-181,+164
60509,12.262,-2.974,3.656,-1.275932,-1.033627,1.528908,99719.27,+22,-184,+160
60519,12.598,-3.390,2.556,-1.237620,-1.135792,1.674706,99720.69,+24,-187,+156
60529,13.125,-3.954,2.033,-1.269546,-1.229444,1.764632,99719.38,+28,-189,+153
60539,13.713,-3.845,2.326,-1.388207,-1.299682,1.831678,99718.70,+31,-192,+149
60549,14.098,-3.769,3.318,-1.546775,-1.332673,1.899788,99718.70,+31,-192,+149
60559,14.534,-3.635,4.606,-1.712262,-1.320434,1.950339,99722.19,+34,-195,+144
60569,15.657,-2.437,6.282,-1.953839,-1.258178,2.004614,99720.20,+39,-199,+137
60579,17.670,-0.652,8.367,-2.231601,-1.226251,2.080173,99717.44,+44,-202,+131
60590,19.499,1.631,11.414,-2.401876,-1.261370,2.159458,99715.61,+44,-202,+131
60599,20.179,2.060,11.069,-2.308225,-1.354489,2.298871,99715.61,+49,-205,+124
60609,18.593,-0.228,8.811,-2.053344,-1.479535,2.460100,99717.71,+56,-207,+118
60619,16.346,-5.543,5.684,-1.697363,-1.709407,2.655384,99718.55,+62,-209,+114
60624,14.339,-10.594,5.216,-1.474409,-1.887663,2.764467,99715.52,+62,-209,+114
60634,15.101,-13.063,6.326,-1.441418,-1.922783,2.835237,99715.52,+68,-210,+110
60644,15.927,-10.933,6.766,-1.397785,-1.978122,2.863971,99716.73,+68,-210,+110
60654,13.780,-6.412,8.053,-1.163656,-1.864251,2.550026,99716.73,+75,-210,+106
60664,12.592,-1.917,8.685,-0.913033,-1.643957,2.048779,99715.94,+81,-209,+104
60675,10.391,0.750,6.871,-0.627822,-1.540728,1.652357,99716.25,+84,-209,+104
60685,6.279,-0.440,2.738,-0.568226,-1.355022,1.493788,99717.92,+84,-209,+104
60694,1.892,-3.617,3.166,-0.414978,-1.043205,1.434724,99717.92,+88,-209,+103
60704,-1.801,-6.216,2.635,-0.249492,-0.629756,1.025000,99717.92,+90,-208,+103
60715,-1.309,-5.489,5.712,-0.071767,-0.224820,0.479587,99717.03,+91,-207,+103
60724,1.878,-3.967,5.002,0.141609,-0.041775,-0.142981,99718.06,+90,-207,+103
60734,2.771,-1.431,4.748,-0.169143,0.215234,-0.659660,99714.25,+90,-208,+104
60744,2.779,2.270,3.040,-0.729987,0.318464,-1.099182,99714.94,+87,-208,+102
60754,2.388,4.545,1.018,-1.191326,0.235987,-1.474852,99714.94,+82,-211,+98
60765,1.792,5.282,0.160,-1.244005,0.318996,-1.729732,99719.78,+76,-212,+95
60774,1.273,4.326,0.524,-0.850776,0.552592,-1.905329,99719.67,+76,-212,+95
60784,1.665,2.733,1.311,-0.151584,0.864940,-2.059640,99715.36,+69,-214,+94
60794,2.274,1.267,2.317,0.578471,1.130995,-2.227787,99715.36,+63,-214,+96
60805,2.947,-0.295,2.931,1.099939,1.347564,-2.431053,99715.76,+56,-214,+99
60815,3.616,-1.683,3.398,1.300012,1.507197,-2.657732,99715.18,+56,-214,+99
60824,3.852,-1.704,3.090,1.272342,1.624793,-2.954649,99715.18,+46,-212,+103
60834,4.305,0.275,3.151,1.214874,1.817949,-3.273383,99713.93,+37,-211,+107
60845,6.075,1.933,2.706,1.485186,2.004187,-3.526667,99714.66,+28,-210,+113
60854,7.181,1.277,2.324,2.011975,2.174994,-3.685236,99714.66,+28,-210,+113
60864,7.781,-1.069,2.499,2.434470,2.342609,-3.780483,99717.56,+18,-206,+121
60874,8.074,-2.630,2.215,2.639332,2.446903,-3.879988,99714.06,+10,-201,+129
60884,8.360,-3.189,2.416,2.757460,2.507031,-3.986410,99715.16,+1,-195,+139
60895,9.335,-3.663,2.738,2.933589,2.538425,-4.084318,99715.47,+1,-195,+139
60904,10.325,-4.775,2.784,3.063956,2.541618,-4.211493,99716.17,-7,-188,+149
60914,11.171,-6.169,3.018,3.052781,2.548003,-4.358887,99716.95,-15,-179,+159
60924,12.068,-7.329,3.393,2.962855,2.617178,-4.544061,99713.83,-23,-170,+168
60935,13.436,-8.329,4.077,2.943699,2.762976,-4.719657,99712.05,-23,-170,+168
60944,14.773,-9.782,4.842,3.057570,2.894407,-4.795217,99712.05,-30,-160,+178
60954,15.691,-11.870,5.059,3.193790,2.955067,-4.765419,99712.05,-35,-149,+188
60964,16.101,-14.041,4.254,3.154414,2.954535,-4.680813,99717.41,-39,-137,+198
60975,16.412,-15.482,2.307,3.010212,2.915159,-4.542997,99719.66,-39,-137,+198
60984,17.188,-16.555,0.151,2.810139,2.839600,-4.330685,99716.98,-42,-125,+207
60994,17.335,-18.412,-1.836,2.487681,2.651765,-4.019933,99718.09,-42,-114,+214
61004,16.199,-20.517,-2.158,2.004525,2.352719,-3.604355,99718.09,-44,-105,+219
61015,14.511,-21.420,-2.273,1.418140,1.963215,-3.084484,99719.23,-44,-105,+219
61025,11.772,-23.366,-3.092,0.954140,1.539656,-2.477346,99718.29,-44,-97,+222
61034,8.788,-25.603,-3.646,0.617315,1.217729,-1.794118,99718.55,-43,-94,+225
61044,7.831,-25.675,-4.965,0.145334,0.894206,-0.953384,99718.55,-42,-92,+226
61054,8.158,-23.600,-5.822,-0.288336,0.549399,0.006010,99718.55,-42,-92,+226
61065,9.126,-20.554,-6.054,-0.625693,0.017822,0.972853,99723.54,-40,-94,+225
61074,10.902,-15.571,-4.693,-0.650703,-0.563774,1.756119,99720.98,-38,-98,+225
61084,17.024,0.198,1.274,-0.334629,-1.170912,2.140834,99722.12,-37,-102,+222
61094,30.071,36.382,13.497,0.592306,-1.301278,0.912193,99719.15,-37,-102,+222
61105,28.168,14.259,-0.266,-0.687950,-0.740967,1.384706,99719.15,-39,-100,+222
61115,12.258,-7.666,-4.364,-0.483088,-1.410361,3.301366,99720.79,-35,-108,+219
61124,5.498,-24.313,1.894,2.606873,-1.437499,3.362026,99719.38,-31,-103,+222
61134,13.790,-19.227,1.754,3.004891,-1.344911,3.670650,99719.70,-31,-103,+222
61145,14.458,-3.481,-4.887,1.737406,-1.410893,3.111934,99721.07,-29,-100,+226
61155,5.387,2.372,0.390,1.346837,-0.856967,3.042760,99718.88,-26,-98,+227
61164,-0.040,-4.715,9.756,2.225883,-0.703187,2.950173,99716.95,-23,-94,+231
61174,3.464,-13.414,10.193,2.196617,-1.178893,2.353678,99716.95,-23,-94,+231
61185,6.243,-15.446,-0.331,0.509829,-1.427388,1.627348,99717.15,-22,-90,+232
61195,8.931,-11.605,-2.861,-1.477601,-0.693077,1.179312,99719.24,-23,-95,+229
61204,11.303,-5.831,2.420,-2.525857,-0.203004,0.865899,99719.24,-22,-102,+226
61215,9.604,-2.840,2.572,-2.728769,-0.143053,0.731453,99719.71,-21,-112,+221
61224,8.619,-1.507,2.024,-2.297050,0.022611,0.709459,99719.71,-21,-112,+221
61235,8.420,0.854,2.247,-1.642555,0.125308,0.711055,99719.77,-18,-118,+217
61245,8.792,2.129,3.337,-0.694336,0.001858,0.765862,99718.35,-17,-120,+215
61254,8.571,-0.609,3.203,0.249095,-0.179059,0.854193,99723.19,-16,-120,+216
61264,8.974,-3.488,2.386,0.665205,-0.206729,0.873349,99720.69,-16,-120,+216
61275,8.959,-4.841,2.212,0.564104,-0.142343,0.835037,99719.84,-14,-120,+217
61285,8.704,-5.633,3.428,0.257609,-0.039646,0.742982,99720.06,-12,-119,+219
61294,7.787,-6.418,4.935,-0.239914,0.052409,0.584945,99720.06,-12,-120,+217
61304,7.047,-6.394,5.635,-0.856097,0.139675,0.378487,99720.06,-12,-120,+217
61315,7.231,-5.184,5.225,-1.334464,0.217363,0.218854,99721.81,-10,-123,+215
61325,8.141,-2.756,4.122,-1.549436,0.258335,0.166175,99720.56,-9,-128,+212
61334,9.520,-0.478,2.841,-1.347234,0.233858,0.204487,99717.84,-8,-131,+209
61344,10.225,-0.075,2.568,-0.840134,0.119455,0.329532,99722.13,-8,-131,+209
61355,9.785,-1.768,2.937,-0.355914,-0.027408,0.467349,99722.13,-7,-132,+209
61365,9.038,-3.493,3.276,-0.220758,-0.074233,0.548230,99720.41,-5,-134,+208
61375,8.616,-4.431,3.734,-0.384116,-0.045499,0.568982,99719.55,-5,-135,+208
61384,8.482,-4.334,4.207,-0.662409,-0.009848,0.565789,99720.46,-5,-135,+208
61394,8.664,-3.702,4.378,-0.851308,-0.010380,0.568450,99720.46,-3,-138,+205
61405,8.644,-3.095,4.239,-0.898666,-0.075298,0.590266,99719.30,-1,-140,+204
61415,8.824,-2.523,3.612,-0.854501,-0.149793,0.662101,99719.30,-1,-143,+201
61424,9.028,-2.737,3.009,-0.751803,-0.208857,0.747239,99720.04,-1,-143,+201
61434,9.143,-3.201,2.848,-0.687418,-0.247169,0.821734,99719.09,+0,-146,+201
61445,9.300,-4.106,2.975,-0.686886,-0.243976,0.863771,99719.41,+2,-147,+198
61455,9.233,-4.760,2.808,-0.728923,-0.234930,0.871220,99719.41,+3,-150,+196
61465,9.350,-4.849,2.638,-0.794372,-0.220563,0.866963,99722.33,+3,-150,+196
61474,9.492,-4.973,2.595,-0.847583,-0.214178,0.853661,99720.41,+5,-152,+195
61485,9.778,-5.080,2.432,-0.903987,-0.208857,0.832376,99720.97,+7,-155,+192
61495,10.101,-4.704,2.443,-1.000299,-0.233866,0.802046,99719.81,+8,-158,+189
61505,9.928,-4.074,2.802,-1.046592,-0.288674,0.811624,99722.69,+8,-158,+189
61514,9.792,-3.485,2.652,-1.016262,-0.343481,0.878670,99720.86,+10,-160,+186
61524,10.137,-3.833,2.358,-0.992317,-0.422765,0.955826,99720.86,+12,-164,+184
61535,10.480,-4.059,2.510,-1.006152,-0.523866,1.030853,99719.45,+13,-166,+181
61545,10.616,-4.371,3.045,-1.092354,-0.603683,1.110137,99720.17,+13,-166,+181
61554,10.887,-3.928,3.479,-1.195583,-0.688288,1.203257,99720.17,+16,-168,+178
61564,11.509,-3.363,4.069,-1.245601,-0.802692,1.312339,99720.76,+18,-172,+175
61575,11.816,-3.543,4.247,-1.238152,-0.927737,1.434192,99721.95,+19,-175,+171
61585,12.004,-3.823,3.896,-1.258372,-1.039480,1.570412,99718.13,+19,-175,+171
61595,12.325,-4.171,3.209,-1.311051,-1.119297,1.696522,99718.60,+23,-178,+167
61604,12.779,-4.661,2.492,-1.386078,-1.182618,1.777403,99718.60,+26,-181,+163
61615,13.274,-4.800,2.605,-1.521234,-1.223590,1.834339,99722.12,+29,-186,+158
61625,13.738,-4.787,3.264,-1.683528,-1.239022,1.875311,99719.96,+29,-186,+158
61635,14.570,-4.787,3.957,-1.851674,-1.218801,1.895531,99716.93,+33,-189,+153
61644,16.224,-3.912,5.131,-2.131032,-1.178893,1.918944,99716.93,+37,-193,+147
61655,18.178,-1.856,7.903,-2.460408,-1.158673,1.951935,99716.93,+40,-197,+140
61665,19.564,0.215,10.184,-2.614188,-1.163994,2.047183,99720.80,+40,-197,+140
61675,19.402,1.019,9.860,-2.532775,-1.231572,2.180210,99717.70,+46,-201,+132
61685,18.358,1.211,10.238,-2.322237,-1.313694,2.309690,99717.66,+53,-205,+124
61694,16.404,-0.757,8.679,-2.133161,-1.425260,2.413806,99717.66,+58,-207,+117
61705,14.357,-6.563,6.333,-1.781968,-1.591278,2.533531,99717.66,+66,-207,+113
61715,12.890,-12.053,4.977,-1.554225,-1.788691,2.617604,99719.33,+66,-209,+113
61725,13.109,-11.660,4.454,-1.523895,-1.836049,2.616540,99719.13,+74,-210,+108
61734,11.858,-7.384,5.964,-1.370115,-1.691847,2.387733,99717.73,+79,-211,+103
61745,10.664,-3.235,6.514,-1.147161,-1.414618,1.941293,99717.73,+85,-211,+101
61755,9.025,-0.374,6.680,-0.830556,-1.248600,1.587440,99718.55,+85,-211,+101
61764,5.621,0.513,3.114,-0.558648,-1.115572,1.359697,99718.55,+88,-212,+99
61774,0.778,-2.777,2.472,-0.540024,-0.899536,1.379917,99716.36,+92,-211,+96
61785,-2.185,-4.521,2.501,-0.253217,-0.549407,1.173991,99717.66,+95,-212,+96
61795,-3.103,-5.260,3.631,-0.034520,-0.244508,0.655716,99716.14,+95,-212,+96
61805,-0.306,-5.152,4.523,0.160765,-0.037518,0.135844,99716.14,+96,-212,+96
61815,2.444,-2.770,4.250,-0.072831,0.239711,-0.409568,99719.25,+95,-212,+95
61825,3.079,1.444,2.246,-0.753932,0.251950,-0.953384,99719.72,+92,-214,+91
61835,2.722,4.236,0.944,-1.272207,0.170005,-1.383861,99714.08,+92,-214,+91
61845,2.149,5.505,-0.104,-1.294023,0.236519,-1.641402,99718.24,+86,-217,+86
61855,1.634,5.629,-0.693,-0.832684,0.388170,-1.776558,99715.99,+79,-220,+83
61864,2.406,4.119,0.129,0.042104,0.705307,-1.928209,99716.88,+74,-222,+84
61875,3.299,1.639,1.326,0.941370,0.930922,-2.077200,99716.04,+74,-222,+84
61885,3.295,-1.021,1.923,1.492635,1.082041,-2.211292,99716.04,+66,-222,+87
61895,3.203,-2.637,2.429,1.686856,1.272004,-2.404979,99714.79,+58,-222,+92
61904,3.252,-2.252,3.009,1.666103,1.498683,-2.702429,99714.79,+49,-222,+96
61915,4.405,-0.458,3.461,1.646947,1.728554,-3.038722,99717.59,+49,-222,+96
61925,6.080,0.925,2.811,1.882672,1.886591,-3.266465,99716.90,+39,-223,+102
61935,6.506,-0.210,2.941,2.219497,2.080279,-3.371823,99713.20,+28,-220,+109
61945,6.583,-2.236,3.307,2.455754,2.288334,-3.458025,99714.09,+17,-218,+117
61955,6.894,-3.020,3.035,2.526525,2.458609,-3.599034,99714.09,+17,-218,+117
61965,7.874,-2.890,2.528,2.473314,2.609728,-3.717162,99716.83,+6,-215,+125
61975,8.824,-3.154,2.668,2.442451,2.720407,-3.786869,99713.78,-4,-211,+134
61985,9.682,-3.951,3.100,2.435534,2.779471,-3.894355,99712.84,-14,-204,+144
61995,10.604,-4.635,3.447,2.374873,2.808737,-4.065162,99712.84,-14,-204,+144
62005,11.592,-5.386,3.429,2.274837,2.855031,-4.234373,99712.84,-26,-197,+153
62015,12.602,-6.143,3.688,2.206727,2.958260,-4.378043,99717.16,-35,-189,+163
62025,13.989,-6.805,4.274,2.207791,3.091820,-4.442960,99714.64,-44,-179,+172
62034,15.617,-8.686,4.651,2.322195,3.202498,-4.433382,99716.00,-44,-179,+172
62045,16.724,-11.388,4.336,2.453094,3.236022,-4.358355,99713.28,-51,-167,+183
62055,17.353,-13.997,2.900,2.494598,3.230700,-4.238098,99713.28,-56,-154,+193
62065,17.833,-15.925,0.562,2.421699,3.174297,-4.088575,99718.59,-59,-141,+203
62075,18.339,-17.577,-2.403,2.372745,2.985398,-3.849658,99720.52,-59,-141,+203
62085,17.966,-19.480,-4.618,2.282818,2.650701,-3.488887,99720.19,-61,-129,+211
62095,16.370,-20.933,-3.982,2.036984,2.213306,-2.992429,99720.19,-62,-118,+217
62105,13.288,-22.505,-4.857,1.607571,1.586481,-2.262906,99720.05,-61,-108,+222
62114,9.587,-24.825,-4.960,1.234562,0.995839,-1.457292,99720.05,-61,-108,+222
62125,7.579,-26.089,-5.928,0.795040,0.632408,-0.712871,99718.65,-60,-103,+226
62135,7.820,-24.726,-7.360,0.197480,0.353583,0.073056,99720.63,-60,-101,+227
62145,9.572,-20.632,-7.344,-0.337822,0.001858,0.864835,99721.15,-58,-103,+226
62155,16.258,-9.037,-6.213,-0.525479,-0.612374,1.514718,99721.84,-58,-106,+224
62164,27.160,16.540,4.887,-0.008978,-1.290636,1.257000,99721.84,-58,-106,+224
62175,27.245,18.353,8.580,0.346471,-0.923480,1.263385,99718.39,-60,-106,+224
62185,19.068,-1.623,-2.361,-0.043033,-1.083646,2.716577,99719.13,-57,-110,+223
62195,6.935,-18.719,-3.666,1.388874,-1.469425,3.098632,99718.77,-55,-110,+225
62205,8.954,-14.694,1.919,2.622304,-1.428985,3.383842,99720.74,-55,-108,+225
62215,10.453,-0.926,-1.163,2.055608,-0.932526,2.891109,99720.26,-51,-105,+227
62225,5.154,3.463,5.372,1.363865,-0.656893,2.895366,99717.96,-47,-104,+230
62235,0.611,-7.346,11.053,1.609168,-0.743095,2.802247,99717.96,-44,-102,+232
62244,4.937,-15.297,6.569,1.383021,-1.198049,2.251513,99716.13,-44,-102,+232
62255,6.866,-14.185,-0.806,0.042636,-1.221994,1.563495,99716.13,-45,-102,+231
62265,9.793,-9.284,-0.690,-1.460042,-0.488747,1.172926,99720.16,-44,-106,+229
62275,10.605,-5.913,1.746,-2.385381,-0.185976,0.890376,99720.05,-43,-116,+224
62284,9.192,-3.329,2.298,-2.447105,-0.014105,0.729147,99719.27,-43,-116,+224
62295,9.023,-0.395,1.596,-2.051748,0.153510,0.689771,99717.70,-41,-123,+219
62305,9.159,2.961,2.613,-1.296152,0.099767,0.781294,99717.70,-39,-128,+217
62315,9.044,1.667,2.941,-0.060061,-0.134894,0.928688,99719.16,-39,-128,+217
62325,9.217,-2.938,2.902,0.631150,-0.296655,1.026064,99719.20,-39,-128,+217
62336,8.371,-6.330,3.363,0.626893,-0.270050,0.953697,99719.11,-36,-127,+217
62345,7.041,-9.108,5.331,0.056471,-0.110949,0.702541,99719.11,-35,-127,+219
62355,6.439,-9.202,5.519,-0.853436,0.114134,0.349221,99719.11,-33,-131,+216
62365,7.419,-5.383,4.934,-1.555821,0.314739,0.097000,99720.94,-33,-131,+216
62374,8.791,-1.793,3.710,-1.735674,0.369014,0.045918,99719.36,-32,-136,+214
62385,9.696,0.530,2.432,-1.405766,0.291858,0.123606,99717.95,-31,-140,+209
62391,10.012,0.889,2.111,-0.912501,0.167345,0.225239,99720.31,-31,-140,+209
62400,9.755,-0.954,2.348,-0.414978,0.035913,0.332725,99720.31,-31,-143,+208
62410,9.119,-3.631,3.370,-0.143070,-0.038050,0.415202,99719.77,-30,-142,+208
62419,8.430,-4.946,4.265,-0.258538,-0.020490,0.407753,99717.84,-30,-142,+208
62430,7.972,-5.161,4.700,-0.530446,0.029528,0.349753,99720.13,-28,-144,+208
62440,7.915,-4.455,4.783,-0.786923,0.070501,0.296542,99717.05,-28,-146,+207
62450,8.127,-3.659,4.480,-0.928996,0.072097,0.280578,99717.05,-26,-149,+204
62460,8.605,-2.920,3.951,-0.949216,0.036978,0.306120,99720.58,-26,-152,+203
62470,8.834,-2.604,3.407,-0.861418,-0.031132,0.365184,99720.11,-26,-152,+203
62480,8.916,-2.760,2.951,-0.745418,-0.099242,0.431698,99718.95,-25,-153,+200
62490,9.171,-2.970,3.047,-0.670923,-0.155646,0.497679,99719.91,-24,-156,+198
62500,9.214,-3.312,3.143,-0.606005,-0.204600,0.549826,99719.91,-23,-158,+197
62510,9.335,-3.682,3.047,-0.558115,-0.229077,0.589202,99721.46,-23,-158,+197
62520,9.441,-4.126,2.730,-0.542684,-0.241316,0.607294,99720.93,-22,-160,+196
62530,9.365,-4.401,2.706,-0.573015,-0.256747,0.605165,99720.04,-21,-162,+194
62540,9.338,-4.274,3.084,-0.631547,-0.267921,0.608890,99718.90,-19,-164,+192
62550,9.197,-4.009,3.326,-0.675180,-0.283885,0.630707,99718.90,-19,-164,+192
62560,8.978,-3.815,3.474,-0.704978,-0.314215,0.666890,99718.93,-17,-166,+190
62570,8.925,-3.669,3.530,-0.742758,-0.353059,0.728083,99718.24,-16,-168,+188
62580,9.122,-3.684,3.346,-0.773620,-0.398820,0.797257,99720.80,-15,-171,+186
62590,9.578,-3.611,3.181,-0.783198,-0.462673,0.868028,99718.51,-15,-171,+186
62600,10.120,-3.599,2.949,-0.760849,-0.546215,0.940927,99718.51,-13,-172,+184
62610,10.412,-3.775,2.842,-0.745950,-0.637205,1.018615,99721.34,-12,-176,+181
62620,10.278,-3.776,3.000,-0.740097,-0.721811,1.098431,99722.65,-10,-178,+179
62630,10.227,-3.807,3.301,-0.756060,-0.790453,1.186761,99718.57,-10,-178,+179
62640,10.417,-4.120,3.229,-0.799161,-0.851646,1.278284,99719.20,-8,-179,+176
62650,10.659,-4.507,3.054,-0.888024,-0.900600,1.359697,99719.20,-5,-182,+173
62660,10.723,-4.617,2.784,-1.030629,-0.939444,1.440578,99722.01,-3,-185,+170
62670,10.805,-4.539,2.519,-1.181216,-0.978288,1.526247,99719.24,-3,-185,+170
62680,10.982,-4.714,3.028,-1.298280,-1.033095,1.585844,99718.30,+0,-189,+166
62690,11.357,-5.269,3.461,-1.369583,-1.073003,1.621495,99719.13,+2,-192,+162
62700,11.667,-6.333,3.762,-1.529216,-1.048526,1.644376,99719.13,+5,-195,+157
62710,12.701,-6.991,3.891,-1.834115,-0.962857,1.633201,99719.17,+5,-195,+157
62721,15.435,-6.084,4.667,-2.267784,-0.919224,1.584779,99721.78,+10,-199,+150
62730,18.684,-3.092,7.832,-2.726995,-0.906985,1.564559,99716.56,+14,-205,+142
62740,20.234,-0.075,8.981,-2.937178,-0.933591,1.688541,99719.80,+19,-209,+134
62750,19.554,1.559,7.644,-2.783399,-1.068746,1.902981,99719.80,+19,-209,+134
62760,18.581,2.404,6.899,-2.392298,-1.277866,2.054632,99717.89,+24,-212,+125
62770,17.305,1.102,5.814,-1.953307,-1.511994,2.183935,99718.67,+31,-215,+119
62780,14.243,-3.118,5.150,-1.546243,-1.810508,2.250449,99717.27,+37,-217,+114
62790,10.557,-7.378,6.717,-1.217932,-1.872232,2.264816,99716.17,+37,-217,+114
62800,10.146,-9.849,5.372,-0.770427,-1.774856,2.507990,99716.17,+44,-218,+112
62811,9.583,-10.002,4.298,-0.545877,-1.690783,2.578228,99721.89,+53,-218,+111
62820,7.642,-8.892,3.847,-0.504905,-1.614159,2.385072,99720.11,+59,-218,+109
62830,5.383,-6.634,4.195,-0.414978,-1.353425,2.034944,99717.70,+59,-218,+109
62840,3.141,-3.956,5.074,-0.417106,-0.899536,1.529972,99717.14,+64,-216,+109
62850,0.993,-0.411,4.588,-0.621437,-0.499389,0.866963,99717.14,+69,-216,+109
62861,-0.187,0.585,3.791,-1.253406,-0.181365,0.219918,99718.70,+70,-216,+104
62870,0.489,1.657,3.603,-1.714922,-0.032197,-0.222797,99719.10,+70,-216,+104
62880,1.520,3.413,1.873,-1.801124,0.075290,-0.725641,99715.91,+69,-219,+99
62891,2.024,3.903,0.944,-1.615418,0.248225,-1.062467,99716.49,+65,-220,+93
62900,2.016,3.817,0.501,-1.248794,0.366886,-1.256155,99716.49,+62,-223,+90
62910,2.007,3.372,0.427,-0.713492,0.453087,-1.407806,99718.62,+62,-223,+90
62920,2.116,2.125,0.973,-0.118593,0.554188,-1.573292,99717.59,+57,-222,+89
62930,2.751,0.698,1.934,0.411388,0.688812,-1.788264,99715.96,+52,-222,+90
62940,3.475,-0.347,2.540,0.666269,0.825032,-2.073475,99716.32,+45,-222,+92
62950,3.799,-0.381,2.674,0.708306,0.947950,-2.372521,99716.32,+38,-222,+95
62960,4.229,-0.192,2.335,0.878581,1.094280,-2.641236,99717.98,+38,-221,+95
62970,4.507,-0.609,2.596,1.243608,1.336390,-2.835456,99714.01,+30,-219,+99
62981,5.196,-1.436,2.817,1.653333,1.591802,-2.981254,99715.12,+21,-217,+106
62990,6.451,-2.203,2.833,1.924709,1.798793,-3.106832,99715.21,+12,-214,+113
63000,7.727,-3.305,2.613,2.049754,1.942995,-3.206869,99715.21,+12,-214,+113
63010,8.587,-4.444,2.331,2.103497,2.017490,-3.306373,99718.31,+3,-210,+121
63021,9.245,-4.668,2.232,2.071039,2.110077,-3.377144,99717.84,-3,-205,+127
63030,9.721,-5.021,2.907,1.988562,2.154242,-3.384593,99718.11,-12,-199,+135
63040,10.130,-5.427,3.374,1.894910,2.160095,-3.409071,99716.44,-12,-199,+135
63050,10.795,-5.734,3.532,1.810305,2.223417,-3.468135,99716.44,-17,-194,+143
63060,11.213,-5.810,3.768,1.795406,2.356976,-3.529860,99718.34,-26,-187,+149
63070,11.639,-5.892,4.163,1.876287,2.518205,-3.520814,99716.77,-30,-181,+157
63080,12.089,-6.745,4.145,2.063057,2.661343,-3.439401,99714.41,-30,-181,+157
63090,12.739,-7.196,3.808,2.260470,2.767765,-3.356924,99714.48,-34,-173,+165
63095,13.379,-7.357,3.564,2.395093,2.825765,-3.273915,99714.48,-37,-173,+174
63106,14.011,-7.672,3.070,2.555791,2.835875,-3.170153,99714.48,-37,-165,+174
63116,14.606,-8.309,2.154,2.768635,2.772554,-3.031805,99719.31,-39,-156,+183
63125,15.072,-9.087,1.229,2.930928,2.646444,-2.876961,99717.75,-40,-147,+192
63135,15.180,-10.408,-0.156,3.045332,2.445306,-2.723181,99717.70,-39,-147,+192
63145,15.112,-12.409,-2.250,3.035222,2.141472,-2.638576,99720.88,-39,-137,+201
63156,14.053,-13.919,-3.573,2.772359,1.760481,-2.566209,99720.24,-41,-126,+208
63165,12.156,-15.574,-2.832,2.411057,1.433234,-2.301218,99720.24,-42,-119,+215
63175,10.838,-17.045,-0.893,2.096048,1.175692,-1.879255,99720.24,-44,-119,+219
63185,9.641,-18.349,-1.035,1.876819,0.910170,-1.414723,99718.79,-44,-111,+219
63196,8.111,-19.717,-1.983,1.525626,0.636665,-0.924118,99718.37,-44,-104,+223
63205,7.557,-21.052,-3.251,1.101535,0.462665,-0.410100,99718.37,-44,-101,+226
63215,7.504,-21.053,-4.464,0.514086,0.306225,0.102322,99723.13,-44,-100,+226
63225,8.554,-18.835,-4.888,-0.087730,0.089124,0.609954,99720.99,-44,-100,+226
63236,10.648,-14.741,-4.872,-0.495859,-0.246105,1.060119,99721.99,-42,-102,+226
63246,16.180,-3.054,-2.085,-0.626226,-0.721279,1.220284,99718.74,-42,-106,+226
63255,22.625,18.056,6.069,-0.298978,-0.900600,0.491294,99716.21,-44,-107,+224
63265,20.148,12.155,5.109,-0.716152,-0.345077,0.776505,99719.13,-44,-107,+224
63276,14.958,-1.843,-1.393,-0.775216,-0.537701,1.752926,99721.60,-42,-112,+221
63286,8.327,-13.936,-1.472,0.616251,-0.802159,2.113164,99719.93,-40,-113,+222
63295,9.921,-11.980,1.551,1.561810,-0.801627,2.338779,99719.93,-38,-110,+224
63305,10.437,-0.945,0.447,1.367590,-0.656361,1.973219,99719.93,-38,-110,+224
63315,7.338,3.831,3.465,1.372911,-0.422233,1.959917,99718.43,-35,-108,+227
63326,3.726,-1.491,6.261,1.956635,-0.389774,1.978541,99717.40,-31,-106,+230
63331,4.242,-8.113,7.737,2.126910,-0.504178,1.834339,99718.70,-31,-106,+230
63340,6.652,-11.607,5.419,1.756030,-0.688820,1.509220,99717.65,-31,-100,+232
63350,8.862,-11.061,0.653,0.538031,-0.618582,1.057991,99717.65,-31,-100,+232
63361,10.210,-7.011,1.108,-0.792776,-0.145004,0.818009,99721.20,-31,-100,+232
63371,9.573,-4.594,3.425,-1.567528,0.099767,0.662101,99719.88,-29,-104,+231
63380,8.457,-3.576,4.091,-1.694702,0.121051,0.525349,99719.05,-28,-110,+228
63390,8.297,-2.081,3.679,-1.434500,0.166280,0.397642,99719.21,-27,-114,+226
63400,8.779,-0.644,3.486,-1.088097,0.149253,0.359331,99719.21,-27,-114,+226
63411,9.237,0.084,3.872,-0.590574,0.028996,0.396578,99720.30,-26,-118,+224
63420,9.448,-1.212,3.106,-0.025474,-0.075298,0.449789,99720.68,-25,-118,+223
63430,9.374,-2.950,2.441,0.258141,-0.105096,0.476927,99720.57,-24,-118,+223
63440,8.998,-3.882,3.105,0.244306,-0.066784,0.438083,99719.01,-23,-118,+224
63451,8.377,-4.191,4.158,0.057003,-0.011444,0.348156,99719.01,-23,-118,+224
63461,7.735,-4.353,4.782,-0.276097,0.033785,0.236413,99721.20,-23,-118,+224
63470,7.699,-3.989,4.684,-0.583657,0.082739,0.118285,99719.48,-22,-120,+223
63480,8.156,-3.072,4.347,-0.772024,0.123712,0.045386,99719.63,-21,-123,+221
63491,8.626,-1.890,3.958,-0.805547,0.134886,0.037936,99717.96,-21,-123,+221
63501,8.938,-1.213,3.804,-0.713492,0.126904,0.076248,99717.96,-21,-125,+219
63510,9.094,-1.462,3.380,-0.501180,0.077418,0.127863,99722.12,-21,-127,+219
63520,9.008,-1.769,3.436,-0.294721,0.012501,0.181606,99721.60,-19,-127,+219
63531,8.795,-2.041,3.697,-0.170208,-0.039646,0.232156,99716.63,-19,-127,+219
63541,8.758,-2.436,3.615,-0.127639,-0.068380,0.278450,99718.57,-20,-128,+219
63550,8.948,-2.990,3.421,-0.146795,-0.093921,0.310909,99718.57,-19,-129,+217
63560,9.203,-3.335,3.510,-0.199474,-0.121591,0.324743,99721.96,-18,-130,+217
63566,9.241,-3.239,3.662,-0.255877,-0.139151,0.332725,99719.98,-18,-130,+217
63576,9.052,-2.954,3.740,-0.332501,-0.149793,0.351349,99719.98,-19,-131,+217
63586,8.783,-2.570,3.611,-0.429877,-0.164692,0.392853,99720.24,-19,-131,+217
63596,8.810,-2.266,3.835,-0.470317,-0.193958,0.451918,99719.87,-18,-131,+215
63605,9.022,-2.117,4.091,-0.448501,-0.247169,0.524285,99719.87,-17,-134,+214
63616,9.093,-2.049,4.028,-0.427749,-0.320068,0.616872,99721.01,-17,-136,+214
63626,8.988,-2.244,3.867,-0.448501,-0.387114,0.719569,99720.46,-16,-138,+213
63636,9.227,-2.114,3.852,-0.516079,-0.442985,0.835037,99719.48,-16,-138,+213
63645,9.375,-1.326,3.925,-0.625161,-0.488215,0.981899,99719.48,-14,-139,+210
63655,9.167,-1.501,5.131,-0.747547,-0.498857,1.139403,99719.48,-14,-143,+209
63666,9.210,-2.658,4.363,-0.702849,-0.602618,1.233055,99721.59,-12,-145,+206
63676,9.381,-2.788,3.644,-0.662409,-0.703719,1.316064,99721.28,-12,-145,+206
63685,9.521,-3.161,4.026,-0.711895,-0.745224,1.382578,99718.83,-11,-148,+205
63695,9.184,-4.383,3.713,-0.773620,-0.774490,1.421954,99719.92,-8,-151,+203
63706,9.010,-5.280,3.324,-0.951877,-0.776618,1.427807,99719.92,-7,-154,+200
63716,9.308,-5.339,3.191,-1.203032,-0.760123,1.416633,99720.85,-7,-154,+200
63726,9.694,-5.373,3.023,-1.407363,-0.758526,1.418761,99719.80,-5,-158,+196
63735,10.567,-4.538,2.830,-1.573913,-0.765976,1.458669,99718.34,-3,-163,+192
63746,11.452,-4.586,3.509,-1.736207,-0.763315,1.509752,99718.34,-1,-168,+187
63756,12.755,-4.924,3.117,-1.802720,-0.790453,1.556045,99720.81,-1,-168,+187
63765,14.353,-4.891,3.033,-1.899564,-0.834618,1.632137,99720.81,+1,-173,+183
63775,17.408,-4.910,4.620,-1.933619,-0.931462,1.690137,99722.53,+4,-178,+177
63785,21.634,-3.863,7.445,-1.945858,-1.083646,1.764632,99719.61,+8,-183,+172
63796,22.572,-3.052,7.725,-1.947986,-1.193792,1.897660,99717.52,+8,-183,+172
63801,20.726,-2.109,7.055,-2.022482,-1.286379,2.049311,99717.52,+11,-187,+167
63810,20.698,0.224,7.248,-1.922445,-1.455058,2.200430,99721.98,+11,-187,+167
63820,20.233,2.253,5.178,-1.698959,-1.740801,2.279715,99719.68,+15,-191,+160
63831,16.323,1.643,2.111,-1.375968,-1.983443,2.250449,99717.65,+20,-194,+157
63841,11.667,-1.035,1.245,-1.110978,-2.064324,2.096137,99718.27,+24,-196,+154
63850,7.453,-3.515,1.254,-1.025840,-2.042507,1.876375,99718.27,+24,-196,+154
63860,3.692,-3.994,3.261,-0.938574,-1.824342,1.731642,99722.03,+26,-198,+150
63870,2.581,-0.858,7.304,-0.541088,-1.341719,1.441642,99720.20,+29,-200,+149
63881,4.684,2.170,7.704,-0.325584,-1.024581,0.993073,99718.22,+31,-200,+149
63891,4.514,1.597,3.328,-0.273969,-1.022453,0.615807,99717.80,+31,-200,+149
63900,3.950,-0.125,0.941,-0.195217,-0.923480,0.292285,99717.80,+31,-200,+149
63910,4.051,-0.281,1.040,-0.103162,-0.700526,-0.119568,99717.50,+31,-200,+149
63921,3.627,0.473,1.934,-0.070703,-0.485022,-0.456926,99716.92,+28,-200,+149
63931,3.147,0.627,1.912,0.091590,-0.364765,-0.732559,99718.08,+25,-199,+150
63940,3.331,-0.005,1.735,0.334233,-0.284417,-1.007127,99715.14,+25,-199,+150
63950,3.542,-0.225,1.660,0.534838,-0.211518,-1.273182,99715.14,+22,-197,+153
63961,3.627,-0.183,1.692,0.737572,-0.130637,-1.504650,99717.39,+16,-195,+155
63971,3.599,-0.559,1.992,1.012140,-0.043371,-1.694081,99716.86,+11,-193,+158
63981,4.021,-1.186,2.532,1.289902,0.054005,-1.849989,99714.20,+11,-193,+158
63990,4.642,-1.850,2.567,1.500085,0.123712,-1.994723,99715.66,+6,-187,+163
64001,5.121,-2.497,2.268,1.654397,0.187033,-2.112851,99715.66,+0,-184,+169
64011,5.563,-3.059,2.142,1.803388,0.266849,-2.202778,99718.77,-5,-178,+175
64021,6.220,-3.469,2.001,1.963553,0.343473,-2.287915,99719.19,-5,-178,+175
64030,6.873,-4.155,1.991,2.106158,0.399344,-2.369860,99717.36,-10,-170,+182
64036,7.252,-4.659,2.180,2.212048,0.422757,-2.427860,99716.42,-15,-170,+188
64046,7.460,-5.283,2.223,2.339754,0.430739,-2.475218,99716.42,-15,-163,+188
64056,7.502,-6.250,2.403,2.516415,0.446170,-2.530557,99716.42,-21,-155,+195
64066,7.625,-6.731,2.530,2.675515,0.487143,-2.565677,99719.56,-26,-146,+202
64076,8.024,-6.872,2.711,2.834616,0.535032,-2.597603,99718.47,-26,-146,+202
64086,8.350,-7.082,2.854,2.948488,0.570152,-2.634851,99717.30,-30,-135,+211
64096,8.615,-7.735,2.991,2.959662,0.607399,-2.632190,99717.30,-35,-123,+217
64106,8.773,-8.822,2.628,2.893680,0.642519,-2.624741,99720.45,-37,-112,+224
64115,8.755,-9.018,2.440,2.722873,0.678170,-2.612502,99720.45,-37,-112,+224
64125,9.165,-8.741,2.796,2.550470,0.710629,-2.545989,99716.86,-39,-100,+231
64136,9.794,-8.747,2.504,2.416378,0.710096,-2.457126,99718.84,-42,-89,+235
64146,10.097,-9.123,2.368,2.261002,0.681895,-2.358686,99717.02,-42,-79,+240
64155,9.926,-9.708,2.566,2.113075,0.655821,-2.250136,99717.02,-44,-69,+245
64165,9.295,-10.578,2.779,2.058800,0.623363,-2.110723,99720.38,-44,-69,+245
64176,9.190,-12.117,2.215,2.095516,0.580262,-1.904264,99720.27,-45,-59,+249
64186,9.830,-12.261,2.036,2.002929,0.596757,-1.700998,99720.01,-44,-50,+252
64196,10.762,-10.851,1.878,1.693241,0.679234,-1.570632,99718.02,-43,-41,+255
64206,11.181,-9.258,1.886,1.221792,0.738830,-1.454632,99718.23,-43,-41,+255
64216,11.225,-8.828,1.985,0.789719,0.742023,-1.275843,99721.98,-42,-35,+257
64226,11.401,-8.894,1.681,0.471517,0.668060,-1.026815,99718.23,-40,-32,+259
64236,10.641,-8.514,0.605,0.335829,0.522262,-0.738944,99718.23,-39,-29,+260
64245,10.042,-7.671,0.011,0.303902,0.358904,-0.396797,99721.11,-39,-29,+260
64256,9.416,-7.686,0.210,0.418306,0.146060,0.023569,99721.11,-38,-27,+261
64266,8.280,-7.963,0.295,0.646581,-0.117866,0.436487,99720.79,-38,-25,+262
64276,7.562,-8.356,0.239,0.898801,-0.326985,0.774376,99719.90,-39,-21,+262
64286,7.370,-8.202,-0.026,1.085572,-0.459481,0.998394,99721.30,-39,-21,+262
64295,5.802,-10.122,2.071,1.120691,-0.428618,1.154835,99716.40,-38,-19,+263
64306,9.126,-7.649,1.184,1.162195,-0.326453,1.452816,99716.40,-37,-15,+263
64316,10.588,-3.283,-0.536,0.955205,-0.552600,1.106945,99720.84,-38,-14,+263
64326,11.196,-1.404,-0.038,0.141077,-0.406802,1.001055,99720.42,-38,-14,+263
64336,11.798,2.326,4.081,-0.477235,-0.350930,0.777037,99716.03,-39,-15,+263
64346,12.040,0.540,6.143,-0.596960,-0.046564,0.616340,99716.03,-39,-19,+263
64356,13.411,-2.392,1.347,-0.560244,-0.032197,0.812688,99716.03,-39,-21,+262
64366,12.932,-3.207,-2.482,-0.398483,-0.218435,0.991477,99718.63,-39,-21,+262
64375,10.830,-3.015,-1.555,-0.089859,-0.233334,1.020211,99722.02,-39,-23,+261
64386,8.919,-2.136,0.721,0.173535,-0.187041,0.943587,99720.46,-39,-24,+262
64392,8.116,-1.908,2.192,0.380526,-0.154050,0.901018,99719.99,-39,-24,+262
64401,7.591,-2.501,3.366,0.532177,-0.132233,0.870156,99719.99,-38,-23,+262
64411,7.753,-3.096,4.236,0.539627,-0.119995,0.790872,99721.31,-37,-23,+262
64420,8.060,-2.784,3.831,0.291664,-0.155646,0.708927,99718.95,-36,-23,+262
64431,8.103,-3.068,3.544,0.056471,-0.124784,0.647202,99717.81,-36,-23,+262
64441,8.693,-3.945,2.826,-0.018024,-0.079554,0.555679,99717.03,-37,-22,+262
64451,9.195,-4.291,1.315,-0.101565,-0.068912,0.435954,99717.03,-37,-24,+263
64461,9.114,-4.086,1.018,-0.195217,0.005583,0.326872,99720.61,-37,-25,+262
64471,9.457,-2.833,1.008,-0.218097,0.102427,0.259294,99719.20,-37,-25,+262
64481,9.615,-1.934,1.704,-0.152648,0.191822,0.244927,99718.00,-35,-26,+263
64491,9.334,-2.079,2.225,0.009113,0.246629,0.261422,99719.77,-34,-26,+262
64501,9.147,-2.201,2.301,0.106490,0.266849,0.281110,99719.77,-33,-27,+263
64506,9.026,-2.023,2.851,0.113407,0.281216,0.296542,99717.77,-33,-27,+263
64516,8.854,-2.193,3.898,0.120857,0.268445,0.297074,99717.77,-31,-25,+263
64526,8.542,-2.624,4.486,0.131499,0.197143,0.282707,99718.40,-31,-25,+263
64536,8.464,-2.880,4.257,0.067113,0.152978,0.277918,99718.55,-30,-27,+264
64546,8.958,-3.371,3.636,-0.067510,0.138611,0.260890,99718.04,-30,-26,+264
64557,9.228,-3.469,3.156,-0.216501,0.104556,0.236945,99721.05,-30,-27,+263
64566,9.304,-2.821,3.089,-0.302703,0.085932,0.216725,99719.42,-30,-27,+263
64576,9.499,-2.372,3.215,-0.316538,0.056134,0.224175,99720.25,-28,-29,+264
64586,9.641,-2.498,2.970,-0.211180,-0.000270,0.245991,99720.25,-28,-30,+263
64595,9.498,-2.801,2.885,-0.082409,-0.052417,0.263019,99716.86,-29,-30,+263
64606,9.161,-3.216,3.161,0.000068,-0.091793,0.265147,99716.86,-29,-30,+263
64616,8.986,-3.469,3.100,0.022416,-0.117866,0.241202,99722.93,-28,-30,+263
64626,8.950,-3.410,3.071,-0.058997,-0.134894,0.201826,99718.76,-30,-30,+263
64635,8.843,-3.326,3.276,-0.161694,-0.144472,0.161918,99721.79,-29,-31,+264
64646,8.734,-3.166,2.823,-0.213840,-0.165224,0.136377,99719.07,-30,-32,+263
64656,8.788,-2.979,2.512,-0.227143,-0.166820,0.115092,99719.07,-30,-32,+263
64666,8.933,-2.779,2.354,-0.198409,-0.167353,0.104450,99721.88,-30,-33,+262
64676,9.089,-2.489,2.006,-0.140409,-0.164692,0.111367,99720.91,-31,-33,+263
64686,9.100,-2.558,2.094,-0.086666,-0.151389,0.133184,99716.66,-31,-34,+262
64696,9.135,-2.785,2.314,-0.014299,-0.146600,0.150211,99716.66,-31,-34,+262
64706,9.154,-2.871,2.534,0.049022,-0.151921,0.152340,99716.66,-31,-33,+262
64716,8.924,-3.096,2.628,0.096379,-0.157775,0.150211,99717.80,-32,-34,+262
64726,8.706,-3.209,2.434,0.108086,-0.160435,0.141698,99718.53,-32,-33,+262
64736,8.791,-3.312,2.471,0.055939,-0.140215,0.125734,99717.80,-32,-33,+262
64746,9.002,-3.259,2.490,0.024545,-0.133297,0.106578,99718.84,-32,-34,+262
64756,9.167,-3.190,2.458,0.010178,-0.133830,0.092211,99718.84,-32,-34,+261
64766,9.227,-3.058,2.634,-0.016960,-0.135426,0.089019,99720.70,-33,-34,+261
64776,9.041,-2.858,2.820,-0.005253,-0.150325,0.095404,99718.72,-33,-34,+261
64786,9.003,-2.833,2.712,0.016031,-0.168417,0.107111,99720.52,-33,-34,+262
64796,9.167,-2.901,2.993,-0.023345,-0.159903,0.129459,99720.52,-34,-34,+260
64806,9.086,-3.412,3.133,-0.096244,-0.164692,0.132120,99720.59,-35,-34,+261
64817,9.055,-3.373,2.682,-0.143602,-0.186508,0.125202,99721.22,-35,-34,+261
64826,9.148,-3.008,3.029,-0.167015,-0.217903,0.125202,99721.22,-35,-35,+261
64836,9.113,-2.694,3.243,-0.123914,-0.279628,0.134780,99717.72,-37,-35,+260
64846,9.104,-2.542,2.811,-0.116997,-0.334967,0.171496,99718.72,-37,-36,+259
64856,9.331,-2.736,3.339,-0.173932,-0.339756,0.221514,99718.72,-37,-36,+259
64866,9.246,-2.737,3.027,-0.227143,-0.373279,0.261422,99721.54,-38,-37,+259
64876,9.226,-2.664,2.881,-0.266519,-0.415848,0.309844,99718.98,-39,-38,+258
64886,9.320,-2.881,3.117,-0.263859,-0.497793,0.354542,99719.04,-40,-39,+258
64897,9.280,-2.920,3.308,-0.232996,-0.591976,0.389129,99716.63,-40,-39,+258
64906,8.946,-2.954,2.811,-0.228740,-0.680838,0.424780,99719.82,-43,-40,+256
64916,9.179,-3.239,2.652,-0.308556,-0.742031,0.468413,99719.29,-44,-42,+255
64926,9.701,-3.236,2.530,-0.391033,-0.796838,0.501936,99718.15,-46,-44,+254
64936,9.893,-3.084,2.506,-0.477767,-0.821315,0.554615,99718.15,-46,-44,+254
64946,9.969,-3.090,2.708,-0.571418,-0.853774,0.602505,99718.46,-49,-46,+252
64956,9.970,-3.082,2.516,-0.623033,-0.906453,0.640817,99718.46,-51,-49,+250
64966,9.934,-2.747,2.449,-0.640593,-0.994251,0.696156,99718.88,-53,-53,+249
64976,10.102,-2.355,2.364,-0.559534,-1.124263,0.787147,99718.79,-53,-53,+249
64986,10.914,-2.404,2.273,-0.461804,-1.256581,0.870156,99718.79,-56,-54,+247
64996,12.603,-2.464,1.985,-0.336758,-1.443884,0.960083,99717.52,-60,-57,+245
65006,13.977,-2.562,2.287,-0.181382,-1.654067,1.038303,99717.52,-63,-59,+243
65016,14.716,-3.151,3.242,-0.010042,-1.779645,1.117055,99721.64,-63,-59,+243
65027,14.777,-4.229,2.494,0.003260,-1.817425,1.177183,99720.58,-67,-60,+240
65036,13.557,-4.672,2.262,-0.177657,-1.847755,1.221880,99718.03,-72,-62,+239
65046,13.221,-3.836,3.120,-0.379327,-1.907351,1.280413,99718.03,-76,-64,+235
65056,13.142,-3.381,4.425,-0.444776,-1.982379,1.346394,99718.03,-76,-64,+235
65067,13.163,-4.013,5.531,-0.418171,-2.048893,1.404394,99719.29,-81,-69,+231
65076,13.541,-4.619,6.224,-0.445840,-2.098911,1.441110,99717.35,-84,-71,+227
65086,13.310,-4.515,7.011,-0.513950,-2.142012,1.446963,99715.48,-88,-75,+224
65096,12.606,-3.803,7.255,-0.502067,-2.186709,1.420712,99717.29,-93,-78,+219
65106,11.492,-3.489,6.962,-0.460207,-2.231938,1.362357,99717.29,-93,-78,+219
65117,10.185,-3.458,5.976,-0.410721,-2.279828,1.270302,99719.12,-97,-81,+216
65126,9.419,-3.576,4.215,-0.404336,-2.341021,1.167073,99716.62,-101,-84,+211
65136,9.243,-4.683,2.991,-0.328244,-2.395828,1.125036,99714.01,-106,-86,+206
65146,9.738,-5.688,1.959,-0.126575,-2.489480,1.152174,99714.01,-106,-86,+206
65157,10.004,-5.515,1.869,0.189499,-2.600158,1.126633,99716.59,-110,-88,+202
65166,9.577,-3.715,2.850,0.615719,-2.695406,1.007972,99717.32,-116,-87,+198
65176,9.332,-1.703,2.765,1.019590,-2.775223,0.781826,99717.32,-122,-85,+195
65186,8.655,0.005,4.584,1.466030,-2.841204,0.667422,99714.24,-122,-85,+195
65197,8.619,1.947,5.875,2.324855,-2.828966,0.538652,99716.27,-127,-80,+191
65206,7.891,1.930,6.002,3.090029,-2.885901,0.496083,99716.27,-134,-73,+190
65216,6.750,0.858,5.495,3.704083,-2.981149,0.497679,99716.91,-141,-63,+189
65226,5.781,-0.492,5.499,4.155845,-2.933259,0.416798,99715.86,-141,-63,+189
65236,5.174,-1.119,5.644,4.384652,-2.774690,0.227899,99715.77,-147,-51,+186
65247,4.840,-1.297,5.796,4.452762,-2.572489,-0.012614,99713.45,-154,-39,+185
65256,4.532,-1.777,5.648,4.412322,-2.389975,-0.247807,99715.21,-159,-25,+183
65266,4.302,-2.287,5.498,4.285680,-2.213847,-0.504816,99714.63,-159,-25,+183
65276,4.674,-2.396,5.590,4.089331,-2.016966,-0.780981,99714.05,-165,-10,+180
65287,4.949,-1.976,5.793,3.881276,-1.833920,-1.064595,99714.52,-170,+3,+175
65296,4.824,-2.062,5.926,3.714726,-1.678012,-1.341292,99714.52,-174,+17,+170
65306,5.078,-2.837,6.083,3.523166,-1.502948,-1.594576,99714.52,-174,+17,+170
65316,5.533,-3.727,6.361,3.327882,-1.283187,-1.837751,99718.13,-178,+33,+166
65327,5.808,-3.977,6.553,3.110781,-1.033627,-2.055916,99714.12,-180,+47,+160
65332,5.796,-4.220,6.679,2.979350,-0.831958,-2.219273,99713.96,-180,+47,+160
65341,5.992,-4.533,6.695,2.866543,-0.608472,-2.386356,99712.29,-180,+64,+156
65351,6.144,-4.706,6.708,2.705846,-0.316343,-2.582172,99712.29,-179,+80,+152
65361,6.530,-4.802,6.793,2.576011,-0.017298,-2.755640,99716.30,-178,+96,+148
65372,6.711,-4.922,6.745,2.514286,0.274831,-2.895053,99712.60,-178,+96,+148
65381,6.759,-4.950,6.750,2.528653,0.548867,-2.992429,99713.70,-173,+111,+145
65391,7.532,-5.060,6.267,2.616451,0.802151,-3.072777,99712.34,-166,+127,+142
65401,7.424,-5.541,5.903,2.745222,0.972959,-3.118539,99712.34,-159,+142,+139
65412,6.993,-6.779,6.088,2.883570,1.233692,-3.155254,99714.56,-159,+142,+139
65421,7.767,-6.563,6.897,2.870800,1.532738,-3.202080,99715.45,-151,+157,+137
65431,8.427,-6.452,6.425,2.946891,1.714720,-3.216979,99713.16,-141,+171,+134
65441,9.016,-7.054,6.246,3.031497,1.873288,-3.170686,99714.05,-131,+183,+132
65452,9.738,-7.478,6.276,3.113442,2.007380,-3.129181,99714.05,-131,+183,+132
65462,10.494,-7.900,6.410,3.172506,2.151582,-3.098319,99715.84,-120,+195,+129
65471,11.191,-8.890,6.562,3.183148,2.309086,-3.078098,99716.99,-108,+205,+127
65481,12.365,-10.848,5.775,3.115038,2.450095,-3.018502,99713.60,-97,+214,+126
65491,13.109,-13.801,3.666,2.851644,2.443710,-2.953053,99715.21,-97,+214,+126
65501,12.794,-15.431,1.639,2.476506,2.327178,-2.955713,99715.21,-86,+222,+125
65511,12.740,-16.518,-0.664,2.074231,2.154242,-2.912612,99717.76,-76,+229,+124
65521,11.667,-17.822,-1.189,1.553828,2.011637,-2.806190,99720.73,-65,+234,+125
65531,10.160,-18.125,-0.702,1.056306,1.818481,-2.532154,99718.16,-65,+234,+125
65542,9.205,-17.413,0.397,0.470985,1.632243,-2.191603,99719.90,-56,+236,+127
65551,8.470,-16.372,0.753,-0.138281,1.454518,-1.801035,99719.90,-49,+237,+129
65561,8.091,-15.464,0.139,-0.545877,1.285839,-1.314687,99719.91,-45,+238,+133
65567,7.922,-15.495,-0.745,-0.675180,1.173032,-0.936889,99720.55,-45,+238,+133
65576,7.945,-16.050,-2.169,-0.699657,1.041069,-0.536210,99720.55,-40,+235,+136
65587,8.348,-15.993,-3.643,-0.725198,0.852702,0.016652,99721.18,-41,+234,+140
65597,8.879,-14.733,-5.755,-0.793840,0.540886,0.550890,99718.88,-41,+234,+140
