243027,8.352,-4.868,1.919,-0.000744,-0.020828,0.030654,101336.55
243038,8.364,-4.889,1.919,-0.000212,-0.022956,0.033314,101335.46
243048,8.364,-4.910,1.965,0.000321,-0.027213,0.034910,101335.46
243057,8.343,-4.927,1.922,-0.000744,-0.029874,0.036507,101338.17
243067,8.322,-4.957,1.898,-0.003404,-0.027213,0.034910,101336.67
243078,8.276,-4.965,1.867,-0.006065,-0.024020,0.030654,101336.52
243088,8.265,-5.001,1.870,-0.007661,-0.020828,0.026397,101337.50
243097,8.247,-4.987,1.898,-0.009257,-0.016571,0.022140,101337.50
243103,8.271,-5.003,1.945,-0.008193,-0.012314,0.017351,101335.15
243112,8.285,-5.011,1.887,-0.007661,-0.008589,0.012030,101335.15
243123,8.304,-4.995,1.898,-0.008193,-0.004332,0.008305,101336.87
243133,8.329,-4.937,1.884,-0.008193,0.001521,0.005644,101336.34
243143,8.331,-4.936,1.844,-0.009257,0.004714,0.005644,101336.45
243152,8.314,-4.914,1.788,-0.011918,0.007906,0.006176,101337.34
243163,8.279,-4.823,1.670,-0.014578,0.012163,0.006709,101340.82
243173,8.296,-4.814,1.623,-0.011918,0.016952,0.012030,101337.49
243182,8.344,-4.844,1.756,-0.000744,0.016420,0.018415,101337.49
243192,8.374,-4.819,1.892,0.014155,0.010035,0.027461,101336.87
243203,8.396,-4.773,2.007,0.027458,-0.000075,0.043424,101336.87
243213,8.372,-4.769,2.091,0.029055,-0.008057,0.060984,101338.22
243223,8.297,-4.882,2.053,0.024798,-0.011250,0.073754,101339.83
243232,8.272,-4.901,2.005,0.022669,-0.010185,0.080140,101333.95
243243,8.266,-4.923,1.846,0.026926,-0.012846,0.083332,101335.09
243253,8.281,-4.916,1.781,0.038100,-0.014974,0.084929,101335.09
243263,8.315,-4.931,1.787,0.047146,-0.016571,0.087589,101338.02
243273,8.284,-4.971,1.840,0.052999,-0.012846,0.087057,101339.02
243282,8.265,-5.064,1.762,0.048743,-0.008057,0.084397,101335.63
243293,8.220,-5.057,1.842,0.046614,-0.002736,0.078543,101335.63
243303,8.237,-5.027,1.916,0.047678,0.001521,0.074287,101335.63
243313,8.252,-5.062,1.896,0.045550,0.004714,0.070030,101336.88
243322,8.226,-5.103,1.889,0.040761,0.012163,0.066305,101340.00
243333,8.254,-5.040,1.901,0.032779,0.020145,0.063112,101338.13
243343,8.253,-4.999,1.890,0.026926,0.025998,0.065773,101337.45
243352,8.213,-5.063,1.891,0.022669,0.030255,0.066305,101337.45
243363,8.234,-5.112,1.946,0.018412,0.037704,0.062580,101339.28
243373,8.192,-5.130,1.956,0.010431,0.046750,0.055131,101337.52
243383,8.224,-5.096,1.934,0.000853,0.051539,0.049277,101336.31
243393,8.246,-5.027,1.947,-0.001808,0.048879,0.048745,101336.31
243403,8.296,-4.999,2.022,0.004577,0.039301,0.054598,101339.31
243412,8.246,-5.002,1.978,0.012027,0.023870,0.062048,101337.59
243423,8.303,-5.005,2.037,0.011495,0.016420,0.072690,101337.59
243433,8.271,-4.956,1.980,0.011495,0.008438,0.080672,101337.17
243442,8.226,-4.943,2.008,0.020009,0.002053,0.095571,101336.44
243452,8.244,-4.972,1.982,0.022137,-0.005396,0.109938,101336.44
243463,8.249,-4.991,1.934,0.022669,-0.010718,0.123241,101339.30
243473,8.261,-4.987,1.941,0.023733,-0.017103,0.138140,101336.33
243483,8.258,-4.997,1.923,0.025862,-0.021892,0.153039,101338.00
243492,8.205,-4.980,1.905,0.027458,-0.022424,0.166341,101337.53
243503,8.193,-5.027,1.866,0.033844,-0.013378,0.178580,101339.69
243513,8.149,-5.097,1.905,0.037568,-0.013378,0.188690,101337.92
243523,8.080,-5.149,1.990,0.044486,-0.017635,0.188158,101338.28
243532,8.121,-5.108,2.041,0.048743,-0.021892,0.192947,101338.28
243543,8.162,-5.129,2.007,0.052467,-0.028809,0.199332,101337.45
243553,8.140,-5.159,1.949,0.051403,-0.034130,0.208378,101337.45
243563,8.151,-5.148,1.917,0.045550,-0.038387,0.221149,101338.78
243573,8.152,-5.123,1.867,0.037568,-0.043708,0.231259,101338.67
243582,8.147,-5.138,1.868,0.030119,-0.045837,0.242433,101336.64
243593,8.125,-5.181,1.899,0.023201,-0.047433,0.254672,101337.16
243603,8.079,-5.153,1.838,0.026394,-0.056479,0.266378,101337.16
243613,8.048,-5.075,1.728,0.039165,-0.068185,0.281809,101339.34
243622,8.071,-5.057,1.743,0.067899,-0.080424,0.299369,101337.90
243633,8.092,-5.053,1.810,0.095036,-0.091066,0.319057,101339.38
243643,8.050,-5.165,1.838,0.115788,-0.103305,0.333956,101339.38
243653,7.959,-5.331,1.847,0.122706,-0.118204,0.335552,101339.38
243662,7.857,-5.481,1.951,0.141862,-0.122461,0.324378,101338.98
243673,7.896,-5.428,1.994,0.144522,-0.119268,0.315864,101338.71
243683,7.928,-5.303,2.154,0.133348,-0.129910,0.307351,101336.95
243693,7.788,-5.253,2.136,0.134944,-0.132571,0.309479,101336.05
243702,7.716,-5.405,1.920,0.128027,-0.116607,0.312672,101336.05
243713,7.710,-5.694,1.850,0.135476,-0.103837,0.306286,101339.40
243723,7.766,-5.721,1.782,0.156229,-0.103305,0.290855,101337.84
243733,7.836,-5.792,1.940,0.172724,-0.101708,0.286066,101337.80
243743,8.074,-5.585,2.330,0.181238,-0.103837,0.287130,101337.80
243753,8.030,-5.719,2.444,0.151440,-0.097984,0.290323,101337.51
243763,7.927,-5.904,1.955,0.120577,-0.096387,0.282341,101337.04
243773,7.952,-5.952,1.934,0.092376,-0.086277,0.275956,101337.04
243783,7.809,-6.001,2.031,0.064706,-0.077763,0.265314,101338.29
243792,7.767,-6.006,1.962,0.040229,-0.068185,0.252011,101335.99
243803,7.776,-6.020,2.016,0.020541,-0.056479,0.236048,101335.99
243809,7.825,-6.044,2.038,-0.001808,-0.048497,0.222745,101336.41
243818,7.807,-6.141,2.035,-0.032138,-0.039984,0.213699,101337.13
243828,7.762,-6.098,2.032,-0.065661,-0.028809,0.194011,101337.40
243837,7.776,-6.008,2.119,-0.096523,-0.023488,0.181241,101339.07
243848,7.749,-5.955,2.085,-0.123129,-0.022956,0.171130,101339.07
243858,7.652,-5.912,2.077,-0.146010,-0.025617,0.166341,101338.44
243868,7.635,-5.900,1.961,-0.161441,-0.028809,0.168470,101336.25
243877,7.582,-5.929,1.938,-0.176340,-0.029341,0.167406,101336.88
243888,7.605,-5.879,1.802,-0.185918,-0.024552,0.165809,101335.67
243898,7.679,-5.853,1.873,-0.196028,-0.016571,0.165277,101335.67
243908,7.631,-6.016,1.837,-0.208266,-0.006461,0.164213,101339.48
243918,7.659,-6.031,1.631,-0.224762,0.007906,0.156231,101339.26
243928,7.575,-5.964,1.623,-0.238065,0.025998,0.151442,101339.88
243938,7.529,-6.014,1.700,-0.242321,0.043025,0.147718,101336.91
243948,7.594,-5.968,1.665,-0.237532,0.053136,0.148782,101336.91
243958,7.605,-5.939,1.622,-0.239129,0.064310,0.156231,101339.09
243968,7.737,-5.885,1.573,-0.253496,0.078677,0.169002,101337.32
243978,7.779,-5.975,1.617,-0.260945,0.084530,0.181773,101339.51
243988,7.722,-5.971,1.786,-0.269459,0.079209,0.195608,101337.63
243998,7.702,-6.065,1.873,-0.280101,0.068035,0.207314,101337.63
244007,7.642,-6.040,2.016,-0.289679,0.047282,0.218488,101339.98
244018,7.648,-5.957,2.232,-0.293404,0.008438,0.225406,101336.44
244028,7.505,-5.994,1.962,-0.288083,-0.027213,0.241369,101336.39
244038,7.562,-6.004,1.605,-0.290743,-0.050626,0.262653,101336.91
244047,7.647,-5.981,1.688,-0.289147,-0.082020,0.281809,101336.91
244058,7.617,-6.028,1.789,-0.285954,-0.112351,0.304158,101337.61
244068,7.560,-6.055,1.725,-0.290743,-0.137892,0.326507,101336.31
244078,7.517,-6.061,1.793,-0.292872,-0.160773,0.346195,101337.25
244088,7.408,-6.220,1.762,-0.298725,-0.172479,0.364286,101333.28
244098,7.393,-6.396,1.607,-0.306175,-0.176736,0.373864,101333.28
244108,7.423,-6.293,1.606,-0.309367,-0.188974,0.380250,101338.81
244118,7.399,-6.421,1.563,-0.306707,-0.196956,0.391424,101334.91
244128,7.458,-6.421,1.429,-0.320009,-0.196424,0.403130,101338.44
244139,7.466,-6.436,1.431,-0.337037,-0.193763,0.418029,101335.69
244148,7.494,-6.499,1.362,-0.356193,-0.199617,0.435057,101335.69
244158,7.665,-6.469,1.357,-0.378542,-0.214516,0.453681,101339.00
244168,7.703,-6.415,1.494,-0.401954,-0.237928,0.472837,101339.36
244178,7.609,-6.522,1.655,-0.417386,-0.265066,0.494121,101338.16
244188,7.654,-6.591,1.701,-0.434945,-0.286883,0.512745,101335.41
244198,7.574,-6.833,1.610,-0.458890,-0.298589,0.530305,101335.41
244208,7.442,-7.002,1.691,-0.490817,-0.299121,0.538818,101338.30
244218,7.420,-7.162,1.832,-0.529661,-0.282094,0.544139,101336.90
244228,7.743,-7.244,1.719,-0.556266,-0.260277,0.527112,101337.68
244238,8.017,-7.233,1.214,-0.561587,-0.248039,0.511149,101333.82
244248,8.028,-7.271,0.291,-0.564780,-0.253892,0.497314,101333.82
244258,8.254,-7.039,-0.164,-0.566376,-0.256552,0.497314,101339.73
244268,8.507,-6.903,-0.361,-0.550945,-0.280497,0.513809,101337.59
244279,8.528,-7.079,-0.083,-0.533208,-0.321292,0.535980,101337.80
244288,8.443,-7.326,0.318,-0.538175,-0.356589,0.556910,101334.89
244298,8.283,-7.629,0.840,-0.562652,-0.391176,0.582983,101334.89
244308,8.456,-7.862,1.126,-0.613734,-0.422571,0.603204,101342.55
244318,8.644,-7.923,1.477,-0.681312,-0.461947,0.616506,101336.40
244328,8.825,-7.957,1.751,-0.752615,-0.501323,0.643644,101335.41
244338,9.019,-7.797,1.860,-0.811679,-0.544424,0.672378,101334.84
244348,8.997,-7.698,1.706,-0.872872,-0.585928,0.718139,101334.84
244358,9.215,-7.886,1.350,-0.944174,-0.626901,0.780396,101335.41
244368,9.744,-7.601,1.263,-1.022926,-0.679047,0.839992,101336.98
244378,10.103,-7.322,1.361,-1.093697,-0.717891,0.899589,101336.51
244388,10.306,-7.246,1.164,-1.142651,-0.755139,0.952268,101337.45
244399,10.652,-7.120,0.868,-1.216437,-0.789194,1.008139,101337.45
244408,10.732,-7.137,0.833,-1.291642,-0.809414,1.056029,101337.41
244418,10.771,-6.832,0.968,-1.370394,-0.822185,1.122543,101336.11
244428,10.685,-6.426,1.296,-1.452339,-0.807286,1.187992,101332.05
244439,10.927,-5.967,1.844,-1.516724,-0.791855,1.288029,101337.77
244448,11.392,-6.061,2.426,-1.505550,-0.804625,1.407753,101337.77
244458,11.830,-6.163,3.077,-1.434247,-0.806222,1.536524,101334.34
244468,11.977,-6.815,3.030,-1.344853,-0.778020,1.661570,101335.90
244478,11.714,-7.092,3.012,-1.247477,-0.873268,1.832377,101335.27
244488,11.577,-6.738,3.633,-1.101679,-0.970644,2.007441,101332.04
244498,10.785,-6.724,3.687,-0.923422,-1.041414,2.048946,101332.04
244508,10.063,-7.641,3.064,-0.804761,-1.028111,2.030322,101336.21
244518,9.616,-8.362,2.269,-0.857972,-0.930735,1.976579,101334.18
244528,9.808,-7.501,2.034,-1.052193,-0.762589,1.816946,101336.10
244538,8.920,-7.244,1.071,-1.260247,-0.588589,1.631772,101332.15
244548,7.963,-7.389,0.923,-1.414027,-0.426295,1.520029,101332.15
244558,7.003,-6.875,0.857,-1.505550,-0.268791,1.435955,101337.09
244569,2.379,-5.120,0.808,-1.578981,-0.083085,1.207148,101336.04
244578,1.669,-4.859,1.059,-1.598137,0.218622,0.958121,101336.26
244588,5.195,-4.632,1.577,-1.573128,0.442640,0.721864,101334.01
244598,5.189,-2.139,2.579,-1.279935,0.565025,0.359497,101334.01
244609,6.408,-0.631,2.366,-0.927679,0.606530,0.007241,101336.17
244618,7.059,-0.102,1.816,-0.694083,0.594291,-0.297658,101334.81
244628,6.714,0.250,1.368,-0.448248,0.595355,-0.560520,101336.58
244634,6.286,0.317,1.320,-0.214652,0.629410,-0.746759,101332.67
244643,5.940,-0.024,1.243,0.051403,0.680493,-0.913841,101332.67
244654,5.575,-0.575,1.036,0.423348,0.712952,-1.114447,101332.67
244664,5.240,-1.136,0.643,0.787843,0.723062,-1.303346,101332.73
244673,5.192,-1.597,0.508,1.140632,0.744346,-1.509804,101336.10
244683,5.398,-1.986,0.534,1.473200,0.787979,-1.741272,101334.10
244694,5.860,-2.311,0.674,1.723292,0.860878,-1.982318,101334.10
244704,6.224,-2.628,0.853,1.844613,0.976346,-2.216446,101337.39
244713,6.573,-2.873,1.046,1.880796,1.121612,-2.431418,101337.39
244723,6.778,-2.995,1.310,1.901549,1.251979,-2.614464,101333.53
244733,6.962,-3.414,1.349,1.952631,1.373832,-2.769308,101334.89
244744,7.195,-4.153,1.388,2.000521,1.483447,-2.912446,101331.50
244753,7.438,-5.091,1.415,2.003714,1.594125,-3.048666,101331.50
244763,7.789,-5.959,1.379,1.959017,1.702676,-3.185418,101336.39
244773,8.068,-6.461,1.321,1.887714,1.813355,-3.322702,101336.39
244784,8.425,-6.637,1.398,1.832907,1.935208,-3.441363,101334.00
244794,8.789,-6.851,1.442,1.800448,2.051208,-3.540335,101332.89
244803,9.141,-7.331,1.351,1.769053,2.156565,-3.622812,101334.97
244813,9.607,-7.890,1.094,1.722760,2.249152,-3.686665,101336.53
244824,9.899,-8.411,0.884,1.682852,2.317795,-3.731363,101333.14
244833,10.096,-8.842,0.824,1.671145,2.365685,-3.765950,101333.14
244843,10.408,-9.144,0.895,1.651989,2.417831,-3.802665,101333.52
244853,10.694,-9.377,0.779,1.594521,2.484345,-3.831399,101333.52
244864,10.974,-9.385,0.668,1.502999,2.575336,-3.834592,101334.30
244869,11.115,-9.312,0.678,1.423182,2.656749,-3.823417,101336.33
244878,11.517,-9.382,0.814,1.314632,2.732840,-3.801069,101337.16
244888,11.887,-9.614,0.742,1.176283,2.832345,-3.743601,101333.67
244898,12.728,-10.334,0.514,1.096467,2.917482,-3.631326,101333.67
244909,12.967,-11.282,-0.004,1.086889,2.945152,-3.495106,101337.62
244919,12.365,-12.463,-0.721,1.086357,2.907904,-3.311528,101337.10
244928,11.436,-13.423,-1.962,1.059219,2.814253,-3.034831,101338.71
244938,10.182,-13.409,-2.800,0.947476,2.639721,-2.703859,101338.51
244948,10.058,-13.373,-3.750,0.780393,2.415703,-2.324464,101338.51
244959,9.561,-13.055,-4.327,0.570210,2.077813,-1.881749,101341.02
244968,8.807,-12.867,-4.687,0.405256,1.651593,-1.363474,101336.69
244978,8.210,-12.900,-4.861,0.277550,1.147685,-0.823383,101338.67
244988,7.426,-12.857,-4.875,0.192944,0.592695,-0.277438,101339.41
244999,6.810,-12.891,-4.668,0.130155,0.065906,0.254140,101339.41
245009,6.586,-13.166,-4.309,0.020009,-0.381598,0.771350,101342.69
245018,6.813,-13.343,-4.002,-0.119404,-0.743433,1.250781,101341.95
245028,9.212,-13.386,-3.007,-0.272120,-1.031836,1.664230,101341.02
245039,13.680,-10.392,0.648,-0.291276,-1.204772,1.965937,101337.63
245049,10.847,-2.196,4.471,-0.095459,-1.410166,2.077680,101337.63
245058,16.541,6.657,10.782,0.121642,-1.148900,1.719570,101334.91
245068,17.345,8.850,5.581,-0.189110,-1.007359,1.337515,101335.85
245079,13.102,2.960,-1.261,-0.395037,-1.061634,1.581221,101340.48
245089,10.780,-5.791,-3.513,-0.316817,-1.232442,2.002652,101336.79
245098,9.600,-12.864,-0.264,-0.066725,-1.318111,2.345331,101336.79
245104,9.319,-16.098,0.733,0.118449,-1.243616,2.336285,101340.20
245113,10.350,-12.528,0.455,0.157293,-1.235102,2.192083,101340.20
245124,9.402,-7.476,-0.898,0.308944,-1.308533,1.968065,101340.47
245134,8.326,-4.032,-0.059,0.551054,-1.242020,1.798854,101340.16
245144,8.028,-4.119,1.400,0.678228,-1.261708,1.683386,101337.97
245153,6.906,-6.842,1.817,0.720265,-1.259579,1.583350,101338.99
245164,6.226,-8.746,1.583,0.383972,-1.041946,1.432231,101337.84
245174,6.631,-8.178,1.739,-0.255624,-0.743433,1.221515,101337.05
245183,7.339,-6.559,2.107,-0.755807,-0.470460,1.029423,101337.05
245193,7.799,-5.785,2.328,-1.020798,-0.304442,0.879901,101338.62
245203,8.152,-5.306,2.468,-1.068688,-0.229415,0.777736,101338.62
245214,8.286,-4.552,2.160,-0.971312,-0.203341,0.723993,101337.86
245224,8.515,-3.982,1.884,-0.757936,-0.204938,0.713350,101334.98
245233,8.948,-4.087,2.108,-0.567973,-0.233672,0.737295,101335.41
245243,9.056,-4.196,2.791,-0.428028,-0.306571,0.770286,101336.30
245254,8.681,-4.439,2.924,-0.345019,-0.386387,0.799552,101336.30
245264,8.218,-5.028,3.000,-0.379606,-0.423635,0.800084,101339.72
245274,7.989,-5.503,2.997,-0.456762,-0.444919,0.760176,101337.16
245283,8.001,-5.391,2.917,-0.564780,-0.437470,0.714947,101336.48
245294,7.898,-5.339,3.045,-0.695147,-0.375745,0.676635,101336.48
245304,7.879,-5.307,2.299,-0.795716,-0.332644,0.632470,101336.48
245313,8.096,-4.961,1.771,-0.850523,-0.316681,0.626616,101339.38
245323,8.321,-4.524,1.644,-0.752083,-0.327323,0.639387,101339.18
245334,8.463,-4.729,1.686,-0.637679,-0.354993,0.665993,101337.51
245339,8.371,-4.972,1.816,-0.573294,-0.369892,0.686745,101336.57
245349,8.303,-5.144,1.899,-0.517954,-0.380534,0.693130,101336.57
245358,8.005,-5.508,1.616,-0.446652,-0.391708,0.686213,101337.99
245368,7.610,-5.959,1.330,-0.413129,-0.378938,0.663864,101338.51
245379,7.489,-6.214,1.430,-0.432817,-0.339561,0.629809,101337.99
245389,7.657,-6.103,1.581,-0.491349,-0.292736,0.601607,101334.98
245398,7.969,-5.962,1.448,-0.548817,-0.251231,0.580323,101334.98
245408,8.232,-5.768,1.474,-0.586596,-0.225158,0.582451,101338.41
245419,8.315,-5.528,1.555,-0.605752,-0.216112,0.592561,101338.36
245429,8.407,-5.526,1.393,-0.590853,-0.227286,0.617038,101335.34
245439,8.508,-5.819,1.385,-0.581807,-0.250699,0.643644,101336.84
245448,8.511,-5.923,1.982,-0.596174,-0.268791,0.667057,101336.84
245458,8.544,-6.187,2.715,-0.610541,-0.278901,0.684616,101338.30
245469,8.180,-6.538,2.453,-0.662688,-0.277305,0.701644,101338.21
245479,8.307,-6.621,1.928,-0.752615,-0.260809,0.701112,101336.54
245488,8.473,-6.623,1.386,-0.825514,-0.266662,0.701112,101336.74
245498,9.191,-6.459,1.308,-0.885642,-0.276240,0.720800,101336.74
245509,9.580,-6.420,0.883,-0.912780,-0.333176,0.749534,101340.95
245519,9.843,-6.342,1.087,-0.937257,-0.383727,0.802213,101340.37
245529,9.968,-6.485,1.240,-0.970780,-0.450240,0.865002,101337.29
245538,10.087,-6.487,1.455,-1.010156,-0.544424,0.930983,101340.88
245549,10.188,-6.734,1.662,-1.066027,-0.657763,1.009735,101340.88
245559,10.368,-6.645,2.108,-1.151165,-0.774295,1.099662,101339.06
245569,10.308,-6.504,2.267,-1.239495,-0.886570,1.204488,101338.55
245574,10.311,-6.492,2.311,-1.305477,-0.967983,1.293350,101338.02
245583,10.426,-6.429,2.338,-1.374651,-1.049928,1.390194,101338.02
245594,10.748,-6.393,2.071,-1.449146,-1.169653,1.522157,101336.30
245604,11.524,-6.340,1.846,-1.519917,-1.297891,1.650396,101336.30
245614,12.520,-6.411,2.011,-1.567807,-1.444753,1.762139,101339.83
245623,13.466,-6.874,2.737,-1.600266,-1.573524,1.872817,101337.70
245634,13.955,-7.264,3.299,-1.672100,-1.622478,1.976579,101339.63
245644,14.747,-7.002,3.729,-1.788632,-1.604918,2.067038,101339.63
245654,15.605,-6.784,4.533,-1.909421,-1.542662,2.148450,101339.63
245663,16.600,-6.685,5.745,-1.999880,-1.440497,2.195276,101337.83
245673,17.081,-6.315,7.630,-2.079164,-1.275010,2.291588,101338.56
245684,16.855,-5.933,8.713,-2.053091,-1.149965,2.469845,101335.48
245694,14.913,-6.459,7.786,-1.875898,-1.143579,2.612982,101334.30
245703,13.356,-7.795,5.839,-1.640706,-1.238295,2.610854,101334.30
245713,12.767,-8.176,5.045,-1.798743,-1.190405,2.294248,101337.59
245724,12.391,-7.402,4.747,-2.265935,-0.872203,1.849405,101337.43
245734,9.950,-6.210,4.223,-2.341495,-0.657763,1.586010,101336.23
245744,8.377,-5.748,3.720,-2.263274,-0.444387,1.468946,101336.23
245754,5.851,-5.339,1.855,-2.136100,-0.183121,1.389662,101337.20
245764,0.852,-2.758,-0.589,-2.014247,0.013759,1.140102,101335.48
245774,-0.390,-2.709,-1.455,-1.598137,-0.049029,0.674506,101335.48
245784,2.486,-0.752,1.349,-0.796780,-0.049562,0.333956,101337.20
245793,4.506,2.028,3.787,0.262119,0.055796,-0.238062,101336.80
245804,6.483,3.190,3.780,1.032614,0.039833,-0.622777,101336.80
245810,6.324,3.343,3.135,1.494485,-0.045305,-0.754208,101336.05
245819,5.115,2.090,2.529,1.866962,-0.070846,-0.881383,101335.27
245829,3.744,0.479,2.048,2.173457,0.050475,-1.138924,101335.80
245838,3.015,-0.374,1.649,2.251145,0.313337,-1.413492,101333.08
245849,3.171,-0.630,1.956,2.272961,0.587374,-1.637511,101333.08
245859,3.765,-0.999,2.174,2.390026,0.754456,-1.891327,101337.41
245869,4.494,-1.723,1.806,2.540081,0.824695,-2.207932,101334.48
245878,5.074,-2.041,1.300,2.617769,0.891741,-2.551675,101333.19
245889,5.420,-2.301,1.179,2.644374,1.015190,-2.892226,101335.58
245899,5.964,-2.575,1.112,2.625750,1.180144,-3.195528,101335.58
245909,6.541,-2.931,1.083,2.545402,1.385538,-3.456262,101338.46
245918,7.119,-3.497,1.173,2.433659,1.602639,-3.663785,101336.12
245928,7.993,-3.817,1.348,2.344796,1.785685,-3.821821,101336.07
245939,8.642,-4.287,1.370,2.345328,1.903281,-3.931436,101333.82
245949,9.218,-5.698,1.172,2.319787,1.994804,-4.032537,101333.82
245959,9.978,-6.503,1.287,2.272961,2.112932,-4.190573,101336.32
245968,10.661,-7.073,1.325,2.223475,2.215630,-4.302848,101336.85
245979,11.059,-7.804,1.181,2.217090,2.285336,-4.385858,101336.27
245989,11.562,-8.797,1.267,2.234649,2.334822,-4.433215,101335.07
245999,12.222,-9.973,1.627,2.238374,2.378455,-4.450775,101335.07
246008,12.772,-11.060,1.956,2.208576,2.458272,-4.456096,101337.27
246019,13.053,-11.909,2.144,2.101090,2.581189,-4.435344,101337.95
246029,12.802,-13.071,2.062,1.969659,2.736033,-4.326793,101335.66
246039,12.501,-14.431,1.526,1.829182,2.874914,-4.115546,101337.89
246048,12.250,-15.737,0.657,1.668485,2.987721,-3.847895,101337.89
246059,12.081,-17.046,-1.013,1.399237,3.042528,-3.541399,101338.90
246069,11.454,-17.763,-3.446,1.050705,3.022308,-3.218409,101338.48
246079,11.478,-18.129,-6.035,0.678761,2.924400,-2.893290,101340.66
246089,10.293,-18.070,-7.432,0.385036,2.606730,-2.452171,101338.16
246098,8.668,-17.781,-8.109,0.224871,2.122510,-1.876960,101338.16
246109,7.646,-17.346,-8.633,0.140265,1.469080,-1.212355,101344.33
246119,7.008,-16.670,-9.012,0.079605,0.712952,-0.488153,101340.17
246129,6.899,-15.621,-8.852,0.116321,-0.045837,0.263185,101340.38
246138,7.280,-15.156,-8.402,0.261587,-0.758332,0.996965,101340.02
246149,10.584,-15.150,-6.170,0.389825,-1.324497,1.628579,101340.02
246159,11.279,-13.407,-3.897,0.687806,-1.789028,2.124505,101341.28
246169,9.294,-4.067,5.743,0.885751,-1.959303,2.425679,101338.31
246179,18.542,7.058,12.175,1.037935,-1.520313,1.819606,101334.41
246189,17.699,7.372,6.180,0.344596,-1.079194,1.385937,101335.70
246199,12.376,-0.334,-2.345,-0.183789,-1.013212,1.726487,101335.70
246209,8.570,-10.292,-4.144,-0.192303,-1.296295,2.289991,101341.12
246219,8.377,-17.833,-0.504,0.129091,-1.413359,2.571478,101340.96
246228,10.704,-16.755,-0.412,-0.026285,-1.168588,2.344799,101340.29
246239,9.112,-7.192,-0.822,-0.383331,-1.088772,2.010634,101339.04
246249,8.133,-3.578,0.365,-0.047569,-1.035561,1.814817,101339.04
246259,7.833,-4.732,1.157,0.225935,-1.075469,1.712652,101342.16
246268,6.923,-6.319,1.518,0.329697,-1.123891,1.583882,101340.09
246279,6.786,-6.963,1.744,0.257330,-1.014809,1.418396,101338.15
246289,6.985,-7.044,1.813,-0.044909,-0.879653,1.232689,101336.80
246299,7.566,-6.571,1.467,-0.372688,-0.698203,1.078378,101336.80
246309,8.090,-6.375,1.478,-0.537110,-0.549213,0.944286,101337.37
246319,8.313,-5.783,1.885,-0.649385,-0.445451,0.842653,101339.30
246329,8.311,-5.376,1.907,-0.740376,-0.360846,0.769222,101338.10
246339,8.327,-5.151,1.671,-0.764853,-0.300717,0.708561,101337.37
246349,8.540,-4.737,1.702,-0.716963,-0.268791,0.674506,101337.37
246359,8.685,-4.394,1.840,-0.611606,-0.274112,0.672910,101340.96
246369,8.823,-4.286,1.994,-0.496138,-0.278369,0.699515,101338.71
246379,8.793,-4.293,1.990,-0.454633,-0.257617,0.739956,101337.57
246389,8.375,-4.777,1.959,-0.465275,-0.230479,0.749534,101335.38
246398,8.076,-5.166,1.935,-0.487624,-0.199617,0.720268,101335.38
246409,7.967,-5.458,2.105,-0.559459,-0.146938,0.676103,101336.63
246419,7.948,-5.489,2.169,-0.679716,-0.099048,0.630341,101338.50
246429,7.980,-5.245,2.089,-0.744101,-0.079892,0.593094,101336.09
246439,8.109,-5.290,2.008,-0.769110,-0.069782,0.575534,101335.31
246449,8.277,-5.076,1.971,-0.769642,-0.075635,0.571809,101335.31
246459,8.497,-4.779,1.949,-0.722284,-0.097984,0.588305,101340.52
246469,8.672,-4.886,1.867,-0.637147,-0.135763,0.622360,101335.56
246479,8.473,-5.218,1.799,-0.558927,-0.179928,0.651626,101336.55
246489,8.478,-5.452,1.763,-0.534450,-0.180461,0.668653,101339.98
246499,8.475,-5.648,1.682,-0.548817,-0.177268,0.683552,101339.98
246509,8.321,-5.782,1.872,-0.568505,-0.177268,0.676635,101343.03
246519,8.085,-5.909,1.764,-0.624908,-0.165029,0.676635,101336.05
246529,8.277,-5.801,1.726,-0.676523,-0.161837,0.686213,101340.63
246539,8.702,-5.780,1.983,-0.694615,-0.185250,0.704837,101337.56
246549,8.559,-5.799,2.087,-0.708982,-0.234204,0.744745,101337.56
246559,8.596,-5.860,2.018,-0.745165,-0.275176,0.783589,101336.48
246569,8.750,-6.005,1.836,-0.797312,-0.316149,0.810194,101338.51
246579,8.728,-6.301,1.939,-0.885110,-0.339029,0.866598,101336.63
246589,9.513,-6.031,1.855,-0.970248,-0.385855,0.892671,101338.66
246599,9.546,-6.175,2.061,-1.006963,-0.456626,0.951203,101338.66
246609,9.780,-6.310,1.697,-1.047404,-0.505048,1.003882,101339.00
246619,10.131,-6.297,1.289,-1.078266,-0.579011,1.067735,101339.09
246629,10.302,-6.159,1.014,-1.100082,-0.686497,1.142231,101337.95
246635,10.495,-6.155,0.666,-1.118174,-0.783873,1.206084,101340.77
246644,10.780,-6.193,0.769,-1.147440,-0.899341,1.277919,101340.77
246654,11.067,-6.169,0.753,-1.193734,-1.069616,1.375827,101340.77
246665,11.149,-6.578,1.800,-1.270890,-1.210093,1.483313,101340.63
246674,11.274,-6.934,2.251,-1.371990,-1.320240,1.600909,101338.96
246684,11.637,-6.909,2.221,-1.475752,-1.420808,1.707331,101338.16
246694,12.097,-6.765,2.023,-1.562486,-1.503285,1.796726,101338.16
246705,12.918,-6.779,2.190,-1.636981,-1.592148,1.886652,101340.07
246714,13.671,-7.008,3.030,-1.704559,-1.678350,1.959551,101340.07
246724,14.090,-6.807,3.790,-1.802467,-1.700698,2.060120,101340.38
246734,15.012,-6.486,3.981,-1.959440,-1.636845,2.161753,101337.79
246745,16.692,-6.493,4.879,-2.104173,-1.545322,2.207515,101337.32
246754,18.836,-5.603,6.342,-2.243586,-1.443157,2.293184,101337.32
246764,19.830,-5.144,8.361,-2.253696,-1.304808,2.493789,101340.45
246774,18.616,-5.880,8.445,-1.995623,-1.343120,2.714083,101337.23
246785,16.264,-7.095,7.096,-1.625275,-1.484130,2.813055,101337.23
246795,14.573,-7.159,6.469,-1.496504,-1.569799,2.572010,101336.85
246804,13.640,-7.124,6.489,-1.708816,-1.425597,2.271368,101340.29
246814,11.615,-5.958,5.296,-1.665715,-1.225524,1.988817,101334.40
246824,8.972,-4.974,4.768,-1.554504,-0.968515,1.752561,101336.95
246834,7.544,-4.717,4.640,-1.557165,-0.639139,1.499808,101336.95
246844,3.006,-3.293,4.164,-1.332082,-0.324130,1.267277,101333.88
246854,-2.890,-4.334,0.043,-1.197991,-0.110754,0.990047,101333.88
246864,-0.680,-5.581,-0.701,-1.251202,0.131888,0.766029,101337.64
246875,1.660,-1.142,2.380,-0.664817,0.359631,0.069498,101336.44
246884,4.560,1.613,3.513,0.255733,0.361759,-0.612667,101334.30
246894,6.012,2.302,3.047,0.827751,0.328768,-1.035162,101335.92
246904,5.768,2.362,2.309,1.118815,0.333025,-1.287382,101335.92
246915,4.691,1.967,1.785,1.364650,0.392622,-1.622079,101335.84
246925,4.068,1.824,1.065,1.612613,0.569282,-1.974868,101335.41
246934,3.434,1.185,1.320,1.847274,0.791704,-2.200483,101335.88
246944,3.135,0.099,1.867,2.030851,0.982199,-2.313290,101335.88
246955,3.318,-1.493,1.774,2.225604,1.085961,-2.423969,101335.88
246964,3.912,-2.588,1.350,2.446429,1.128529,-2.608611,101335.45
246974,4.667,-3.013,0.859,2.590631,1.208878,-2.879455,101338.06
246984,5.529,-3.583,0.625,2.641181,1.360529,-3.199253,101334.98
246994,6.365,-4.064,0.592,2.622557,1.546768,-3.514262,101334.98
247004,7.104,-4.281,0.544,2.514539,1.779300,-3.783509,101334.98
247015,7.704,-4.315,0.645,2.408117,2.009703,-3.979326,101336.42
247024,8.286,-4.854,0.854,2.350117,2.194345,-4.088408,101336.53
247034,9.305,-5.293,1.169,2.290521,2.328437,-4.135766,101335.36
247045,10.253,-6.017,1.233,2.304888,2.375795,-4.171417,101335.36
247055,10.946,-6.811,1.324,2.386833,2.405593,-4.221968,101336.16
247064,11.523,-7.401,1.174,2.471438,2.401868,-4.252298,101336.16
247074,11.887,-8.510,1.017,2.607126,2.396547,-4.244316,101337.94
247085,12.293,-10.001,0.902,2.708759,2.371006,-4.258683,101336.47
247094,12.698,-11.184,1.117,2.674172,2.376859,-4.308702,101334.70
247105,12.962,-12.216,1.900,2.547353,2.458094,-4.317215,101338.58
247114,13.047,-13.237,2.420,2.394814,2.579061,-4.241124,101338.58
247124,12.911,-14.612,2.083,2.190484,2.745611,-4.059674,101339.27
247135,12.575,-16.065,0.748,1.953696,2.893538,-3.806922,101337.23
247144,12.148,-17.423,-1.044,1.629641,2.994106,-3.514794,101335.83
247154,11.785,-18.525,-3.467,1.242265,3.052106,-3.201913,101340.23
247164,11.339,-19.163,-6.062,0.786779,2.973354,-2.853381,101340.23
247175,10.060,-18.859,-8.007,0.366412,2.664730,-2.342024,101339.29
247184,7.897,-18.456,-8.791,0.075348,2.108144,-1.724777,101339.29
247194,6.574,-18.090,-8.971,-0.131111,1.386603,-1.029841,101340.18
247204,5.906,-17.568,-8.750,-0.264670,0.602805,-0.275310,101340.18
247215,5.900,-16.634,-7.955,-0.287019,-0.153855,0.510084,101342.27
247224,7.230,-16.189,-6.448,-0.158780,-0.863690,1.275258,101341.70
247234,12.525,-15.943,-3.379,0.089183,-1.346313,1.884524,101340.20
247244,9.102,-11.406,-1.112,0.394082,-1.905560,2.523056,101339.73
247255,17.261,3.107,11.552,0.751127,-1.898643,2.453349,101339.73
247265,23.717,12.483,10.280,0.669183,-1.605451,1.712120,101337.50
247275,16.534,4.819,-2.096,-0.008725,-1.417616,1.865900,101339.77
247284,8.467,-8.892,-8.143,-0.231147,-1.634717,2.600211,101342.89
247294,6.109,-21.365,-3.692,0.119513,-1.820955,3.086028,101342.89
247305,10.416,-19.371,0.044,-0.080560,-1.482001,2.807734,101342.89
247314,9.088,-6.885,0.832,-0.480175,-1.257451,2.318725,101342.05
247324,6.530,-3.589,-0.654,0.103018,-1.208497,2.022872,101338.52
247334,7.447,-6.638,-0.106,0.432394,-1.220735,1.971790,101339.66
247345,7.078,-7.421,1.172,0.403660,-1.275010,1.832377,101337.63
247354,6.780,-7.408,1.340,0.236045,-1.147304,1.638157,101337.63
247364,7.129,-7.640,1.442,-0.348211,-0.859433,1.497148,101340.92
247374,7.247,-7.407,1.351,-0.889899,-0.546020,1.286965,101341.33
247385,7.734,-6.266,1.194,-1.030908,-0.337965,1.074653,101338.19
247395,8.174,-5.244,1.254,-0.939917,-0.225690,0.943754,101338.19
247405,8.542,-4.866,1.293,-0.774431,-0.188442,0.868726,101339.19
247414,9.103,-4.617,1.667,-0.652046,-0.192699,0.850103,101338.81
247425,9.006,-4.475,2.067,-0.597239,-0.223561,0.864470,101338.81
247435,8.813,-4.488,1.921,-0.473257,-0.276772,0.871387,101339.28
247444,8.623,-4.961,2.025,-0.426431,-0.300717,0.885222,101339.75
247454,8.299,-5.436,2.277,-0.486028,-0.289011,0.868726,101339.75
247464,7.981,-5.655,2.256,-0.579679,-0.262938,0.841589,101340.69
247475,7.690,-5.879,2.164,-0.652578,-0.250167,0.797424,101338.97
247485,7.665,-5.751,2.131,-0.716963,-0.225158,0.741020,101339.28
247494,8.049,-5.382,2.170,-0.745165,-0.200681,0.700048,101337.31
247504,8.208,-5.449,1.773,-0.704193,-0.206534,0.691534,101340.11
247515,8.281,-5.586,1.457,-0.667477,-0.215048,0.688341,101341.41
247525,8.305,-5.726,1.621,-0.635551,-0.205470,0.678763,101338.39
247534,8.276,-5.829,1.670,-0.591385,-0.195892,0.666525,101338.39
247544,7.843,-5.873,1.297,-0.565312,-0.198020,0.669185,101337.97
247555,8.019,-6.030,1.051,-0.574890,-0.185782,0.645240,101337.97
247565,8.129,-6.023,1.123,-0.604156,-0.190039,0.641515,101341.19
247575,8.325,-5.939,1.367,-0.626150,-0.204228,0.654818,101338.41
247584,8.353,-5.988,1.391,-0.645661,-0.227286,0.662800,101338.41
247595,8.392,-5.901,1.594,-0.673862,-0.244846,0.685681,101337.75
247605,8.485,-6.019,1.652,-0.693551,-0.279433,0.717075,101337.75
247615,8.580,-6.244,2.078,-0.728670,-0.309763,0.751662,101340.54
247624,8.619,-6.418,2.328,-0.769110,-0.328387,0.789442,101337.74
247634,8.498,-6.674,2.114,-0.827110,-0.332112,0.823497,101337.26
247645,8.479,-6.886,1.805,-0.909055,-0.332644,0.857552,101337.26
247655,8.541,-6.656,1.668,-0.981422,-0.352864,0.885222,101337.26
247664,8.926,-6.556,1.427,-1.030908,-0.386387,0.924598,101339.30
247674,9.444,-6.441,1.051,-1.061770,-0.445451,0.967699,101338.58
247685,9.853,-6.390,0.516,-1.086780,-0.541231,1.024634,101339.98
247695,10.343,-6.198,0.498,-1.123495,-0.651378,1.099662,101339.61
247704,10.667,-6.139,0.817,-1.119770,-0.801965,1.191185,101339.61
247714,10.855,-6.079,1.416,-1.160211,-0.954680,1.312506,101339.69
247725,11.022,-6.188,2.069,-1.208101,-1.107396,1.448194,101338.91
247735,11.375,-6.291,2.655,-1.282064,-1.244680,1.589203,101338.05
247745,11.271,-6.457,2.819,-1.369862,-1.356423,1.736065,101338.05
247754,11.676,-6.764,2.485,-1.486394,-1.435708,1.880267,101339.55
247764,12.960,-6.924,2.765,-1.636981,-1.501157,1.995735,101340.96
247775,14.533,-6.930,3.863,-1.777458,-1.558625,2.106414,101340.96
247785,15.707,-6.838,5.201,-1.921128,-1.531487,2.234120,101336.70
247794,16.941,-6.937,5.970,-2.108963,-1.368130,2.358634,101338.21
247804,18.446,-6.821,6.654,-2.311696,-1.156882,2.461863,101338.21
247811,18.946,-6.621,8.033,-2.437806,-0.987139,2.564028,101336.66
247820,19.143,-5.937,9.555,-2.479311,-0.851451,2.730046,101337.19
247830,18.091,-6.302,9.283,-2.272852,-0.845598,2.960450,101335.36
247839,15.838,-7.754,7.108,-1.990302,-0.974368,2.950340,101334.84
247849,15.077,-8.078,6.419,-2.158981,-0.954148,2.635863,101334.84
247860,14.251,-8.403,5.670,-2.640540,-0.675855,2.213368,101335.95
247870,11.274,-6.884,5.036,-2.697476,-0.507708,1.905276,101336.98
247879,9.554,-5.927,4.114,-2.510173,-0.386387,1.677001,101337.52
247889,6.380,-6.315,2.211,-2.148339,-0.187910,1.547698,101337.92
247900,-1.748,-2.658,0.705,-1.767348,-0.028809,1.211405,101337.92
247910,0.010,-3.068,-0.755,-1.211293,-0.087874,0.815515,101337.56
247919,4.532,0.038,2.078,-0.553074,0.054200,0.328103,101338.03
247929,6.805,2.540,4.058,0.250412,0.289924,-0.221567,101335.22
247940,7.052,3.177,3.573,0.789439,0.334622,-0.603089,101333.44
247950,5.279,2.772,2.092,1.187990,0.279814,-0.933529,101333.44
247960,3.554,2.393,1.138,1.536521,0.359099,-1.217144,101336.90
247969,2.699,1.639,0.939,1.738191,0.567154,-1.500226,101335.29
247980,2.731,0.917,1.127,1.876007,0.768823,-1.746061,101337.95
247990,3.249,0.209,1.259,2.048411,0.897594,-1.977529,101335.91
248000,3.826,-0.605,1.121,2.254870,0.968364,-2.238795,101335.91
248009,4.214,-1.463,0.595,2.477823,0.997098,-2.530923,101337.50
248019,4.509,-1.968,0.279,2.636392,1.054566,-2.854446,101338.02
248030,5.108,-2.205,0.403,2.693328,1.196107,-3.206702,101335.41
248040,6.096,-2.542,0.602,2.683218,1.414272,-3.577583,101337.19
248049,7.108,-2.720,0.688,2.627879,1.645740,-3.886739,101337.19
248059,7.767,-2.878,1.022,2.557640,1.873483,-4.096390,101336.29
248070,8.502,-3.128,1.320,2.519328,2.065042,-4.222500,101335.51
248080,9.327,-4.054,1.513,2.537420,2.185832,-4.325729,101333.74
248090,10.210,-5.466,1.516,2.588502,2.260327,-4.424702,101333.54
248099,11.058,-6.723,1.423,2.602337,2.301831,-4.531124,101333.54
248110,11.778,-7.619,1.241,2.602337,2.370474,-4.597105,101337.57
248120,12.214,-8.920,0.918,2.688007,2.397079,-4.611472,101335.12
248130,12.684,-10.666,0.903,2.754521,2.406125,-4.623178,101337.41
248139,13.170,-12.274,1.439,2.734301,2.432198,-4.607747,101336.05
248150,13.582,-13.853,2.042,2.619897,2.524785,-4.546555,101336.05
248160,13.313,-15.427,2.229,2.399071,2.673776,-4.425234,101337.28
248165,12.722,-16.761,1.773,2.184099,2.803611,-4.268261,101337.02
248175,11.868,-17.959,0.767,1.922833,2.936106,-4.053821,101337.02
248185,11.147,-19.189,-0.986,1.479054,3.100528,-3.721252,101337.22
248195,11.150,-19.805,-3.369,0.891604,3.206418,-3.369528,101338.80
248205,11.066,-20.304,-5.821,0.315862,3.179280,-2.990134,101338.80
248215,9.755,-20.226,-8.147,-0.153459,2.979207,-2.538373,101341.64
248225,8.204,-19.563,-9.195,-0.544560,2.587574,-2.038189,101340.98
248235,6.922,-18.311,-9.377,-0.801037,1.990547,-1.413492,101339.89
248245,6.489,-17.036,-8.986,-0.862761,1.252511,-0.688759,101339.89
248255,6.609,-16.143,-8.385,-0.764853,0.463924,0.088121,101339.89
248265,6.843,-15.549,-7.894,-0.555734,-0.298057,0.862341,101342.41
248274,9.102,-15.242,-6.441,-0.287019,-0.986607,1.568451,101343.61
248285,13.396,-12.915,-3.610,0.128027,-1.487854,2.046285,101339.55
248295,10.701,-4.310,2.575,0.598944,-1.964625,2.454946,101339.02
248305,19.359,8.842,12.483,1.062412,-1.668239,2.022340,101339.02
248315,21.463,12.621,7.796,0.761770,-1.337267,1.450854,101337.16
248325,13.319,0.476,-1.816,0.300431,-1.339396,1.948377,101338.54
248335,7.305,-19.867,-6.168,0.441440,-1.709212,2.838597,101338.41
248345,8.971,-25.325,-3.436,0.338210,-1.785836,3.091881,101338.41
248355,10.677,-9.949,-0.139,-0.108230,-1.525102,2.514542,101341.20
248365,8.541,-3.493,-1.545,0.068963,-1.311726,2.178781,101341.20
248375,6.918,-7.729,-2.187,0.308412,-1.255322,2.137808,101339.79
248385,6.712,-8.872,0.417,0.128027,-1.127084,2.005313,101339.41
248395,6.610,-7.334,2.030,-0.126854,-0.915836,1.790340,101338.01
248404,6.776,-6.905,2.529,-0.470597,-0.675855,1.610487,101338.01
248415,7.488,-6.882,2.230,-1.049532,-0.465139,1.456708,101340.55
248425,7.624,-5.872,1.810,-1.365073,-0.298057,1.268873,101340.80
248435,7.815,-5.448,1.741,-1.344321,-0.168222,1.134781,101340.65
248445,8.254,-5.220,1.779,-1.092101,-0.176204,1.020378,101334.20
248455,8.812,-4.889,2.068,-0.928743,-0.206002,0.968763,101338.26
248465,8.739,-4.884,2.277,-0.894156,-0.232607,0.978341,101339.45
248475,8.596,-4.795,2.017,-0.777092,-0.278369,0.980469,101339.45
248484,8.284,-4.961,2.226,-0.671202,-0.343286,0.983130,101338.41
248495,7.915,-5.324,1.967,-0.563716,-0.395965,0.952268,101338.82
248505,7.738,-5.582,1.544,-0.495074,-0.401818,0.893736,101338.82
248515,7.459,-6.178,1.357,-0.507844,-0.361378,0.824561,101340.30
248525,7.192,-6.472,1.488,-0.557330,-0.291672,0.742616,101339.43
248535,7.057,-6.686,1.623,-0.629697,-0.216644,0.658543,101339.01
248545,7.180,-6.596,1.719,-0.703661,-0.131507,0.574470,101335.73
248555,7.550,-6.212,1.892,-0.754211,-0.076167,0.509552,101335.73
248565,7.712,-5.889,1.861,-0.763789,-0.058607,0.486139,101339.45
248576,7.939,-5.783,1.765,-0.726009,-0.058607,0.477094,101341.59
248585,8.050,-5.949,1.522,-0.683973,-0.062864,0.482947,101339.14
248595,8.198,-5.847,1.525,-0.654174,-0.072974,0.495185,101339.14
248605,8.138,-6.067,1.837,-0.628101,-0.081488,0.506360,101339.14
248615,7.877,-6.139,2.029,-0.623844,-0.094791,0.513277,101341.58
248625,8.035,-6.049,1.927,-0.622248,-0.125121,0.502103,101339.03
248636,8.078,-6.320,1.684,-0.627924,-0.165916,0.494831,101340.95
248645,8.284,-6.244,1.568,-0.649385,-0.185250,0.515938,101340.95
248655,8.808,-6.198,1.182,-0.677055,-0.213984,0.520727,101340.95
248666,8.864,-6.584,1.240,-0.721220,-0.237396,0.552653,101341.41
248675,9.147,-6.540,1.516,-0.807422,-0.240057,0.576598,101338.91
248685,9.219,-6.448,1.733,-0.873936,-0.285286,0.620231,101340.27
248695,9.031,-6.220,2.302,-0.898413,-0.364038,0.672910,101340.27
248706,8.680,-6.127,2.407,-0.960670,-0.449176,0.755919,101340.07
248715,8.620,-5.965,2.163,-0.983018,-0.535378,0.837332,101340.07
248725,9.073,-5.827,1.621,-1.000046,-0.621580,0.925662,101338.98
248735,9.780,-6.261,0.668,-0.985679,-0.750350,1.012928,101338.77
248745,10.370,-6.444,0.530,-1.005367,-0.896680,1.107111,101336.84
248755,10.704,-6.658,0.996,-1.055917,-1.024387,1.206084,101336.84
248765,11.010,-6.918,1.550,-1.114981,-1.135598,1.309845,101338.63
248775,11.410,-7.040,1.812,-1.196394,-1.238295,1.410946,101339.30
248785,11.571,-7.026,1.729,-1.268761,-1.339928,1.506726,101337.43
248796,11.759,-6.971,1.808,-1.350706,-1.426130,1.595588,101337.47
248805,12.051,-6.969,1.568,-1.470963,-1.483597,1.671680,101338.92
248815,12.637,-6.984,1.276,-1.640174,-1.524570,1.746175,101337.25
248825,13.926,-6.447,1.915,-1.810981,-1.548515,1.831845,101337.47
248835,15.281,-5.956,3.371,-1.944008,-1.501157,1.906340,101337.47
248845,16.624,-5.425,4.895,-2.078100,-1.460717,2.028193,101336.78
248855,18.302,-4.919,6.633,-2.193568,-1.391010,2.182505,101336.78
248865,19.776,-4.228,8.929,-2.190907,-1.332478,2.427276,101337.47
248875,20.106,-5.408,9.772,-1.956779,-1.377175,2.731111,101338.56
248885,18.027,-7.531,8.904,-1.552908,-1.568735,2.923202,101334.39
248895,16.474,-8.114,7.732,-1.163404,-1.793817,2.972688,101336.38
248905,15.370,-8.123,7.665,-1.255458,-1.781579,2.710358,101336.38
248915,14.366,-7.182,7.301,-1.472027,-1.641634,2.298505,101336.84
248926,10.317,-6.381,5.134,-1.362412,-1.505946,1.880267,101335.63
248935,9.421,-6.651,4.840,-1.331018,-1.269689,1.672744,101336.56
248945,4.033,-7.070,4.491,-1.084119,-0.951488,1.492891,101336.56
248955,-5.369,-6.317,2.669,-0.797312,-0.470993,1.144891,101336.56
248965,-3.032,-6.874,0.547,-0.880321,-0.080424,0.775075,101336.82
248975,4.238,-1.351,2.929,-0.655771,0.156365,0.149846,101338.96
248985,7.531,2.187,4.550,-0.051294,0.210640,-0.588190,101337.45
248995,7.037,2.813,3.895,0.390357,0.145723,-1.080392,101335.95
249005,4.775,2.343,1.830,0.639384,0.132420,-1.451272,101335.95
249015,3.354,2.084,0.584,0.910760,0.269704,-1.732226,101337.09
249025,2.721,1.226,0.565,1.151274,0.482548,-1.956244,101335.58
249035,2.703,0.446,1.216,1.327402,0.665062,-2.138226,101335.73
249046,2.976,0.043,1.755,1.583879,0.744878,-2.308501,101335.73
249056,3.419,-0.402,1.785,1.982429,0.760842,-2.492611,101338.09
249065,3.893,-1.048,1.464,2.422484,0.785319,-2.719822,101338.09
249075,4.417,-1.837,1.143,2.779530,0.857153,-3.003436,101336.52
249085,4.919,-2.600,1.057,2.961511,0.997098,-3.300354,101334.71
249095,5.809,-3.226,1.372,3.001952,1.207814,-3.588225,101334.18
249106,6.323,-3.587,1.373,2.980490,1.448859,-3.849313,101337.63
249115,6.958,-3.762,1.611,2.968961,1.646804,-4.017638,101337.63
249125,7.375,-4.649,1.846,2.945016,1.823465,-4.176738,101334.55
249136,8.610,-5.752,1.988,2.873713,1.967667,-4.312427,101335.59
249145,9.738,-6.465,1.757,2.784319,2.077813,-4.432683,101334.19
249155,10.326,-7.282,1.445,2.719401,2.160822,-4.512500,101336.38
249165,11.060,-8.082,0.892,2.650759,2.230529,-4.569967,101335.71
249176,11.657,-9.153,0.687,2.678961,2.237446,-4.593380,101334.35
249185,12.507,-11.041,0.566,2.768356,2.175189,-4.592316,101334.35
249195,13.106,-12.753,0.971,2.787512,2.131024,-4.590720,101334.30
249205,13.494,-13.984,1.415,2.596484,2.167740,-4.572096,101334.30
249216,12.754,-15.287,1.593,2.365016,2.268308,-4.516757,101337.27
249225,11.486,-17.067,1.443,2.102154,2.431666,-4.347013,101335.44
249235,10.590,-18.997,0.951,1.829714,2.645574,-4.080959,101335.64
249245,10.165,-20.426,-0.316,1.447127,2.881831,-3.753179,101334.81
249255,9.857,-20.947,-2.433,0.989513,3.032950,-3.410500,101334.81
249266,9.856,-20.831,-5.238,0.573403,3.021244,-3.005033,101338.70
249275,9.475,-19.824,-7.503,0.145054,2.805207,-2.446317,101340.30
249285,8.317,-18.252,-8.362,-0.178468,2.332162,-1.854611,101338.11
249295,6.837,-17.169,-8.021,-0.337037,1.661703,-1.184685,101338.11
249306,6.398,-16.223,-7.110,-0.391844,0.919942,-0.442392,101338.11
249315,6.541,-15.292,-6.534,-0.301918,0.151044,0.305754,101341.53
249325,6.553,-14.780,-6.260,-0.103973,-0.557194,1.026763,101340.06
249335,7.026,-14.418,-5.787,0.050871,-1.126020,1.675405,101341.31
249340,12.413,-13.519,-2.159,0.124834,-1.335139,2.013827,101339.86
249350,13.350,-9.129,-0.713,0.396210,-1.614496,2.249551,101339.86
249360,14.969,2.989,8.498,0.689403,-1.786368,2.309680,101338.66
249370,21.517,12.684,10.545,0.933641,-1.467634,1.684451,101337.68
249380,17.456,8.303,2.237,0.294577,-1.192533,1.648267,101337.26
249391,9.974,-6.090,-5.854,-0.102377,-1.247873,2.285735,101337.68
249400,6.112,-22.044,-4.523,0.019477,-1.458056,2.998230,101337.68
249410,10.454,-23.601,0.038,-0.034267,-1.265965,3.013661,101340.75
249420,11.315,-7.987,1.161,-0.529129,-1.066423,2.452285,101340.17
249431,7.375,-1.768,-0.680,-0.114083,-1.069616,2.152175,101340.80
249441,7.392,-5.240,-0.454,0.464852,-1.106332,2.170267,101339.03
249450,7.406,-7.461,1.567,0.547329,-1.218075,2.141001,101339.03
249460,6.943,-7.167,2.565,0.470174,-1.132937,1.993074,101336.70
249470,6.797,-7.860,2.502,-0.050762,-0.924350,1.806304,101339.04
249481,7.156,-7.678,1.853,-0.766982,-0.683304,1.576964,101337.70
249490,7.538,-6.599,1.249,-1.009624,-0.463011,1.355075,101340.24
249500,7.902,-5.951,0.718,-0.970248,-0.308699,1.183735,101340.24
249510,8.551,-5.281,0.777,-0.807422,-0.221433,1.076249,101339.27
249521,8.854,-5.157,1.898,-0.739844,-0.195360,1.035277,101339.32
249530,8.377,-5.165,2.050,-0.726541,-0.192699,0.993240,101337.40
249540,8.493,-5.151,1.658,-0.650982,-0.197488,0.948011,101336.20
249550,8.394,-4.977,1.726,-0.590853,-0.212919,0.924598,101336.20
249561,8.219,-5.232,1.708,-0.509441,-0.210791,0.903314,101338.16
249571,7.704,-6.143,1.661,-0.510505,-0.185782,0.854359,101339.98
249576,7.258,-6.552,1.832,-0.563716,-0.130442,0.791038,101336.38
249585,7.163,-6.614,1.998,-0.639275,-0.044773,0.713882,101336.38
249595,7.063,-6.602,1.959,-0.745165,0.053136,0.620763,101336.70
249606,7.329,-6.188,1.640,-0.797312,0.116457,0.546268,101336.70
249616,7.694,-5.788,1.721,-0.788798,0.131356,0.489332,101340.89
249625,8.319,-5.475,1.970,-0.716431,0.071227,0.460598,101336.88
249635,8.326,-5.621,2.150,-0.631294,0.011631,0.465387,101337.39
249646,7.906,-5.895,2.172,-0.596707,-0.010718,0.479754,101337.39
249656,8.112,-5.764,2.200,-0.582872,-0.018699,0.464323,101337.39
249665,8.011,-5.840,1.971,-0.559991,-0.053286,0.469644,101341.72
249675,8.109,-6.011,1.755,-0.570633,-0.066057,0.497314,101338.39
249686,8.309,-6.114,1.571,-0.609477,-0.075103,0.508488,101338.91
249696,8.310,-5.919,1.758,-0.669606,-0.074039,0.549993,101337.50
249705,8.496,-5.811,1.925,-0.713771,-0.084681,0.598947,101337.50
249715,8.631,-5.931,2.152,-0.745697,-0.102773,0.654286,101342.14
249725,8.700,-6.171,1.992,-0.777624,-0.130442,0.702176,101339.28
249736,8.547,-6.340,1.404,-0.817532,-0.165029,0.747405,101337.61
249746,8.522,-6.244,1.242,-0.877661,-0.191103,0.795827,101337.44
249755,8.728,-6.079,1.121,-0.913312,-0.236332,0.848506,101339.36
249765,9.036,-5.974,1.327,-0.931404,-0.311360,0.913424,101341.19
249776,9.135,-6.143,1.430,-0.936193,-0.421506,0.979937,101341.19
249786,9.158,-6.295,1.573,-0.964927,-0.518350,1.057093,101340.19
249795,9.401,-6.360,1.575,-1.001642,-0.616259,1.131589,101339.67
249805,9.590,-6.650,1.837,-1.071881,-0.705653,1.210341,101339.67
249816,9.995,-6.983,1.776,-1.145312,-0.800368,1.289625,101339.73
249826,10.361,-7.127,2.069,-1.256523,-0.894552,1.369974,101338.53
249836,10.758,-7.006,2.352,-1.365073,-0.982882,1.462561,101338.80
249845,11.311,-6.827,2.447,-1.462449,-1.073873,1.562065,101338.28
249856,11.794,-6.678,2.265,-1.522045,-1.179763,1.658909,101338.95
249866,11.918,-6.726,1.665,-1.598137,-1.253194,1.740854,101339.52
249876,11.892,-6.771,0.892,-1.697642,-1.290442,1.830249,101337.17
249885,12.724,-6.408,0.647,-1.879623,-1.297359,1.900487,101335.88
249895,14.187,-5.672,1.673,-2.035531,-1.266497,1.948909,101335.88
249906,15.907,-5.244,3.301,-2.128119,-1.238295,2.020212,101335.88
249916,17.051,-4.869,4.707,-2.204742,-1.174442,2.146322,101339.33
249925,18.038,-4.894,6.231,-2.254761,-1.068020,2.302230,101338.17
249935,19.401,-5.011,8.340,-2.257421,-0.970644,2.534230,101337.50
249946,20.045,-6.046,9.573,-2.080229,-1.031836,2.855092,101334.80
249956,18.873,-7.978,8.893,-1.656137,-1.310662,3.084431,101334.80
249966,18.018,-7.807,8.024,-1.330486,-1.495836,3.075386,101337.16
249975,17.516,-7.513,7.200,-1.498101,-1.447946,2.695991,101337.37
249986,14.077,-6.485,6.627,-1.751917,-1.372919,2.274560,101336.90
249996,11.474,-6.457,4.466,-1.646027,-1.346845,1.869093,101336.90
250005,10.679,-6.955,3.104,-1.647623,-1.320240,1.644010,101336.90
250015,1.721,-7.329,2.245,-1.235770,-1.036093,1.485974,101335.40
250025,-8.036,-4.601,1.057,-0.774431,-0.547616,1.047515,101336.54
250036,-1.178,-3.700,0.993,-0.521147,-0.223029,0.596818,101335.76
250046,6.202,1.404,3.555,0.132993,-0.088228,-0.114967,101333.92
250055,7.392,2.517,4.367,0.811788,0.014292,-0.667475,101333.92
250065,5.904,2.111,3.490,1.202357,0.077613,-1.119236,101334.91
250076,3.457,1.133,2.158,1.331659,0.196805,-1.490116,101336.47
250086,1.944,0.215,1.700,1.310375,0.474034,-1.792887,101333.14
250096,1.524,-0.164,2.443,1.226834,0.816713,-2.044043,101333.96
250105,1.901,0.145,3.025,1.206613,1.076383,-2.281363,101335.77
250116,2.593,0.198,3.014,1.355072,1.206217,-2.520281,101334.74
250126,3.187,-0.401,2.232,1.599843,1.287630,-2.784207,101334.74
250136,3.535,-1.601,1.267,1.799384,1.392456,-3.098684,101335.37
250145,3.812,-2.489,0.959,1.882393,1.565924,-3.445620,101331.51
250156,4.541,-3.049,0.907,1.860044,1.820804,-3.771271,101331.51
250166,5.685,-3.003,0.976,1.828295,2.101936,-4.075637,101335.54
250175,6.941,-2.772,0.994,1.826521,2.331630,-4.277307,101335.54
250186,8.350,-2.968,1.172,1.861640,2.542345,-4.432683,101334.37
250195,9.532,-3.837,1.173,1.990943,2.656749,-4.519949,101330.93
250206,10.187,-5.154,0.672,2.191549,2.687079,-4.572628,101330.93
250216,11.005,-6.091,0.341,2.438447,2.717941,-4.612004,101335.70
250226,11.497,-7.376,0.452,2.729511,2.656217,-4.609876,101334.51
250235,12.127,-9.374,0.244,2.969493,2.542877,-4.615729,101336.54
250246,12.627,-11.017,0.231,3.065273,2.434327,-4.623178,101336.54
250256,13.082,-12.836,0.553,3.042924,2.385905,-4.580610,101336.54
250266,13.536,-14.385,1.125,2.841254,2.420492,-4.521545,101337.01
250275,13.087,-15.692,1.732,2.545402,2.481152,-4.432151,101336.74
250286,12.002,-17.483,1.733,2.279879,2.572143,-4.239527,101336.27
250296,10.648,-19.526,1.081,1.982962,2.700382,-3.930904,101337.59
250306,9.895,-20.873,-0.675,1.542907,2.861079,-3.553106,101337.59
250316,9.501,-21.477,-3.416,0.945347,3.002088,-3.166794,101336.88
250326,9.611,-21.632,-6.144,0.377054,3.033482,-2.756537,101340.23
250336,9.092,-21.318,-8.566,-0.142285,2.885556,-2.270189,101338.59
250346,7.902,-20.011,-10.103,-0.581275,2.504565,-1.720520,101338.59
250356,6.443,-18.493,-10.060,-0.848927,1.864437,-1.071878,101342.60
250365,6.140,-17.090,-9.028,-0.896284,1.053502,-0.328521,101342.60
250376,6.655,-16.223,-8.021,-0.748890,0.196273,0.428672,101340.35
250386,8.697,-16.076,-6.787,-0.454101,-0.584864,1.149680,101341.45
250396,12.655,-14.590,-4.790,-0.060340,-1.108992,1.719570,101342.34
250405,9.392,-7.632,-0.488,0.346192,-1.712405,2.308615,101342.34
250416,19.557,7.808,12.096,0.860742,-1.641634,2.058524,101339.21
250426,24.989,15.961,9.466,0.753256,-1.291506,1.377423,101338.07
250436,15.213,3.197,-2.630,0.175385,-1.218075,1.780762,101337.07
250446,7.812,-17.711,-8.347,0.311073,-1.618753,2.645441,101340.16
250456,8.568,-26.010,-4.355,0.432394,-1.736882,2.993973,101341.36
250466,11.162,-12.585,-0.392,-0.116211,-1.335671,2.498046,101339.48
250476,8.368,-3.302,-0.975,-0.189110,-1.041414,2.084065,101339.48
250485,7.250,-5.100,-0.072,0.287660,-1.030772,2.021808,101339.38
250496,6.723,-6.777,2.548,0.466449,-1.073873,1.959551,101336.30
250506,6.454,-6.912,3.306,0.350449,-1.014277,1.810561,101336.30
250516,6.462,-7.473,3.404,-0.030010,-0.874864,1.635496,101340.62
250526,6.523,-7.683,2.868,-0.626505,-0.695011,1.393919,101336.55
250535,7.315,-6.751,2.226,-0.960670,-0.506644,1.159258,101337.09
250546,7.810,-6.019,1.913,-1.007495,-0.354993,0.950671,101338.23
250556,8.174,-5.186,1.212,-0.911716,-0.256020,0.807534,101338.23
250566,8.728,-4.869,1.186,-0.780284,-0.170883,0.758048,101338.76
250576,8.983,-5.083,1.838,-0.764853,-0.113947,0.742084,101339.91
250586,8.823,-4.741,1.638,-0.772835,-0.082020,0.739956,101337.20
250596,8.924,-4.537,1.646,-0.673330,-0.099048,0.753259,101337.20
250606,8.636,-4.814,2.289,-0.629165,-0.143745,0.767626,101337.20
250615,8.139,-5.567,2.885,-0.643000,-0.141617,0.759112,101341.19
250626,7.602,-6.231,2.933,-0.702596,-0.106497,0.710158,101338.80
250637,7.442,-6.133,2.588,-0.801037,-0.029696,0.626084,101336.94
250646,7.687,-5.856,2.655,-0.912780,0.056860,0.570745,101336.94
250656,8.038,-5.575,2.183,-0.963330,0.113796,0.544672,101336.94
250665,8.486,-5.162,1.591,-0.963330,0.095172,0.568616,101338.20
250676,8.550,-5.050,1.690,-0.886706,0.030255,0.595754,101337.31
250686,8.295,-5.415,2.151,-0.814339,-0.011782,0.621295,101337.38
250696,8.283,-5.840,2.527,-0.779752,-0.038919,0.625020,101337.38
250706,8.365,-5.907,2.534,-0.742505,-0.068185,0.591497,101341.87
250716,8.141,-6.092,2.327,-0.754211,-0.088938,0.588305,101341.87
250726,8.175,-6.053,1.902,-0.802101,-0.102773,0.568616,101340.15
250736,8.207,-5.922,1.811,-0.849991,-0.115011,0.577662,101338.84
250745,8.366,-5.929,1.625,-0.885110,-0.148534,0.595222,101339.68
250756,8.440,-6.107,1.554,-0.912248,-0.189506,0.613846,101339.68
250766,8.671,-5.871,1.817,-0.943110,-0.241653,0.635130,101339.80
250776,8.545,-5.676,1.783,-0.915972,-0.321470,0.659075,101337.77
250786,8.513,-6.360,1.856,-0.898413,-0.361378,0.687809,101337.46
250797,8.418,-6.392,1.545,-0.924486,-0.395433,0.702708,101336.36
250806,8.179,-6.479,1.425,-0.997385,-0.411396,0.737295,101340.78
250816,8.356,-6.131,1.564,-1.052725,-0.461947,0.780396,101342.97
250826,8.604,-5.628,2.142,-1.070816,-0.559855,0.841589,101339.22
250835,8.873,-5.088,2.631,-1.032504,-0.679580,0.925662,101339.22
250846,9.258,-5.378,2.427,-0.964927,-0.792919,1.035809,101340.36
250856,9.664,-5.940,1.962,-0.908523,-0.928607,1.134781,101340.36
250866,9.863,-6.655,1.482,-0.920229,-1.068020,1.223111,101340.38
250871,10.004,-7.112,1.356,-0.992596,-1.154221,1.288029,101338.09
250881,10.416,-7.192,1.496,-1.111789,-1.211157,1.350818,101338.04
250891,11.083,-7.148,1.552,-1.291642,-1.275010,1.426377,101338.51
250901,11.659,-7.000,1.418,-1.460853,-1.348974,1.503001,101338.51
250911,12.194,-6.863,1.089,-1.618889,-1.395799,1.588671,101338.42
250920,13.017,-6.712,0.663,-1.812577,-1.436772,1.659441,101338.42
250931,14.333,-6.250,0.846,-2.005201,-1.483597,1.725955,101335.45
250941,15.847,-5.550,2.068,-2.103109,-1.545322,1.791937,101335.52
250951,17.028,-5.048,3.826,-2.130247,-1.545854,1.877074,101335.52
250961,17.845,-4.532,4.423,-2.139293,-1.495836,1.995735,101339.04
250971,18.896,-3.455,6.340,-2.190375,-1.426130,2.152175,101337.16
250981,19.258,-3.323,8.563,-2.098852,-1.457524,2.407588,101332.52
250991,19.352,-5.115,9.764,-1.654009,-1.696973,2.759844,101335.71
251000,17.851,-7.362,9.928,-1.044211,-2.050294,3.037074,101335.71
251011,16.403,-8.434,8.742,-0.562119,-2.252496,3.044523,101338.60
251021,14.892,-8.628,8.480,-0.733991,-2.112551,2.718872,101336.57
251031,13.173,-7.765,8.241,-0.915440,-1.895983,2.346927,101336.10
251041,10.198,-7.227,5.628,-0.751018,-1.804460,2.041496,101335.85
251051,9.674,-6.884,4.842,-0.810615,-1.650148,1.805239,101335.85
251061,3.373,-6.370,4.282,-0.735587,-1.260111,1.522689,101339.37
251071,-5.230,-5.545,2.582,-0.683973,-0.616259,1.200231,101335.82
251081,-3.618,-7.434,-0.731,-1.112853,-0.022424,0.911295,101338.84
251091,2.456,-3.603,2.603,-1.171385,0.342603,0.262653,101330.98
251101,3.961,1.258,4.385,-0.252964,0.327172,-0.584465,101330.98
251107,4.483,2.520,4.547,0.386632,0.264383,-1.030905,101337.02
251116,4.769,2.317,3.693,0.718669,0.245227,-1.277804,101337.02
251126,4.295,2.177,2.235,0.908632,0.260126,-1.523107,101336.60
251137,3.529,1.797,1.372,1.087953,0.362823,-1.848226,101335.66
251146,2.849,1.191,1.097,1.274191,0.605998,-2.203676,101335.15
251156,2.370,0.615,1.878,1.392852,0.908236,-2.411730,101335.62
251166,2.479,0.317,2.910,1.503531,1.133850,-2.498996,101333.79
251176,3.048,-0.316,3.025,1.794595,1.225373,-2.632024,101334.77
251186,3.657,-1.238,2.502,2.156961,1.246658,-2.877326,101334.77
251196,4.359,-2.391,1.771,2.428869,1.309447,-3.198721,101332.90
251206,5.022,-3.281,1.247,2.542209,1.458437,-3.549381,101332.90
251216,5.763,-3.635,1.188,2.536356,1.703208,-3.889399,101334.88
251226,6.686,-3.378,1.404,2.511879,1.992144,-4.182591,101331.19
251236,7.351,-3.152,1.678,2.527842,2.235850,-4.393307,101334.00
251246,8.073,-4.504,1.594,2.547530,2.438051,-4.534316,101333.16
251256,9.333,-5.045,1.653,2.610319,2.613116,-4.624243,101333.16
251267,10.633,-5.943,1.173,2.806135,2.660473,-4.668940,101334.30
251276,11.839,-7.677,0.717,3.048245,2.663134,-4.658298,101336.30
251286,12.751,-9.748,0.349,3.217456,2.593960,-4.675858,101333.84
251296,13.509,-12.051,0.184,3.285566,2.470510,-4.700867,101333.84
251307,14.617,-14.382,0.326,3.191383,2.394418,-4.695014,101333.84
251316,15.200,-16.371,0.763,2.855622,2.409317,-4.626903,101336.59
251326,14.304,-17.738,0.829,2.441640,2.477428,-4.464610,101336.79
251336,12.562,-18.880,0.404,2.096301,2.603005,-4.206005,101336.27
251346,11.255,-20.345,-0.715,1.709457,2.785519,-3.862262,101335.43
251356,10.296,-21.987,-2.712,1.190118,2.957391,-3.461583,101335.43
251366,9.596,-22.939,-5.786,0.606394,3.036675,-3.013546,101339.23
251376,8.942,-22.264,-8.677,0.014155,2.910565,-2.470794,101339.91
251386,8.103,-20.286,-10.591,-0.392376,2.494455,-1.863125,101338.64
251397,7.444,-18.554,-10.854,-0.574890,1.818676,-1.184685,101338.64
251406,7.393,-17.156,-10.206,-0.602028,0.982731,-0.441328,101341.05
251416,7.514,-16.068,-9.338,-0.519551,0.134548,0.303626,101341.52
251426,7.587,-15.823,-8.671,-0.343422,-0.650313,1.022506,101341.52
251437,11.244,-15.874,-5.051,-0.158248,-1.145176,1.631772,101338.60
251446,8.290,-12.103,-3.770,0.115256,-1.591084,2.162817,101338.51
251456,10.418,-1.301,8.626,0.238706,-1.504350,2.227202,101338.51
251466,18.980,9.194,15.720,0.529238,-0.872203,1.523753,101338.26
251476,17.997,7.787,7.780,-0.073643,-0.440130,1.196506,101335.49
251487,11.254,-3.811,-1.274,-0.415789,-0.739176,1.762671,101337.16
251496,8.778,-19.187,-5.550,0.115256,-1.440497,2.528909,101337.74
251506,11.174,-20.402,-4.445,0.331293,-1.728368,2.618303,101341.74
251516,10.262,-8.624,-3.482,-0.235936,-1.406441,2.029258,101341.74
251527,8.108,-3.999,-0.958,-0.355661,-0.980222,1.853661,101338.98
251536,7.404,-6.083,0.877,-0.039588,-0.854112,1.831845,101338.98
251546,6.701,-5.961,2.318,0.032779,-0.849323,1.687111,101336.79
251556,7.133,-5.709,2.608,-0.041716,-0.746625,1.588139,101336.79
251567,7.581,-5.566,2.928,-0.283294,-0.602424,1.494487,101338.03
251577,7.555,-6.290,3.686,-0.660560,-0.443678,1.375650,101337.56
251586,7.424,-6.236,3.510,-0.773367,-0.359249,1.216726,101337.56
251596,7.499,-5.891,2.487,-0.698872,-0.333176,1.015589,101336.67
251607,8.080,-5.674,1.750,-0.641404,-0.285818,0.891075,101336.67
251617,8.235,-5.623,2.220,-0.698872,-0.218773,0.826690,101337.96
251626,8.508,-4.992,2.065,-0.691954,-0.194828,0.764433,101337.90
251636,8.724,-5.006,2.147,-0.647789,-0.199084,0.754855,101338.52
251646,8.715,-5.004,2.198,-0.662156,-0.202277,0.761240,101338.52
251656,8.610,-4.955,2.299,-0.693018,-0.190571,0.764965,101338.52
251666,8.169,-5.566,2.509,-0.735587,-0.184185,0.759112,101339.56
251676,7.876,-5.914,2.388,-0.787734,-0.154387,0.715479,101340.34
251686,7.683,-6.083,2.390,-0.854248,-0.094259,0.657479,101336.03
251697,7.696,-5.911,2.405,-0.909587,-0.039629,0.600188,101335.40
251706,7.873,-5.777,2.037,-0.934596,-0.005396,0.580323,101335.40
251716,7.950,-5.696,1.775,-0.948431,0.006842,0.574470,101338.95
251726,8.012,-5.610,1.915,-0.919165,-0.001140,0.574470,101340.30
251737,7.934,-5.682,2.019,-0.868083,-0.027213,0.573938,101338.59
251747,7.770,-5.937,2.031,-0.824982,-0.045305,0.571277,101336.64
251756,8.169,-5.941,2.140,-0.815404,-0.049029,0.550525,101337.89
251766,8.140,-5.937,2.020,-0.796248,-0.087341,0.538286,101336.44
251777,8.317,-5.738,1.891,-0.797844,-0.134699,0.542011,101336.44
251787,8.343,-5.640,1.950,-0.784541,-0.184717,0.564360,101338.20
251796,8.363,-5.810,1.800,-0.774963,-0.215580,0.593626,101340.50
251806,8.387,-5.996,1.483,-0.777092,-0.242185,0.616506,101340.50
251816,8.267,-6.073,1.411,-0.777092,-0.268259,0.634598,101338.41
251827,8.168,-6.435,1.336,-0.786138,-0.282626,0.640983,101340.48
251837,8.204,-6.624,1.502,-0.824982,-0.283690,0.642580,101338.77
251846,8.273,-6.607,1.083,-0.848927,-0.291139,0.643644,101337.88
251856,8.414,-6.576,0.835,-0.892027,-0.308167,0.654286,101337.59
251867,8.645,-6.278,0.978,-0.945771,-0.358717,0.674506,101338.16
251877,8.936,-5.768,1.342,-0.972908,-0.453433,0.731974,101338.84
251886,9.152,-5.410,1.630,-0.958541,-0.579543,0.811791,101339.57
251896,9.556,-5.270,2.054,-0.919697,-0.746093,0.901717,101339.57
251907,9.863,-5.387,2.649,-0.846266,-0.940313,0.997497,101339.57
251917,9.779,-6.166,2.882,-0.793587,-1.081322,1.113497,101338.80
251926,10.009,-7.093,2.845,-0.819661,-1.189341,1.219919,101337.45
251936,10.218,-7.489,2.930,-0.919165,-1.285653,1.316763,101342.03
251947,10.570,-7.561,2.917,-1.068688,-1.338863,1.403497,101337.66
251957,10.854,-7.415,2.532,-1.236835,-1.372919,1.487570,101337.66
251967,11.255,-7.115,2.072,-1.423073,-1.392607,1.579625,101340.54
251976,11.961,-6.911,1.325,-1.600266,-1.405377,1.676469,101337.49
251986,13.284,-6.753,0.812,-1.790229,-1.431983,1.753093,101340.23
251997,15.225,-6.189,1.759,-1.944541,-1.488919,1.804175,101340.23
252006,16.451,-5.574,3.202,-2.030742,-1.500625,1.891973,101340.23
252016,17.370,-4.872,4.279,-2.074375,-1.441561,2.032982,101337.98
252026,18.276,-4.054,5.922,-2.091403,-1.364405,2.219221,101335.95
252037,18.896,-4.027,7.922,-2.025953,-1.337267,2.483680,101336.88
252047,18.395,-5.271,8.948,-1.791293,-1.417084,2.769954,101332.76
252056,16.759,-7.597,8.097,-1.360816,-1.663450,2.949275,101332.76
252066,16.150,-7.783,7.442,-1.022394,-1.819359,2.931716,101339.76
252077,14.952,-8.136,6.700,-1.210761,-1.755505,2.633202,101336.95
252087,14.096,-7.092,6.250,-1.514596,-1.567139,2.249551,101337.95
252097,10.975,-5.575,5.081,-1.412431,-1.498496,1.906340,101333.87
252106,10.679,-5.841,4.176,-1.307605,-1.411763,1.719038,101336.74
252116,6.207,-5.722,3.622,-1.119238,-1.204240,1.481717,101336.21
252127,-3.330,-4.883,2.207,-0.755275,-0.793983,1.180011,101336.21
252136,-4.966,-6.066,-0.720,-0.753147,-0.372020,0.857020,101336.48
252146,1.903,-2.884,2.025,-0.650450,-0.100112,0.335020,101334.49
252156,4.663,1.283,3.773,0.169531,-0.043708,-0.418979,101334.49
252167,5.614,2.122,4.146,0.819770,-0.022956,-0.953217,101336.13
252177,5.024,1.904,3.087,1.092210,-0.001672,-1.262905,101334.30
252186,3.525,1.422,2.279,1.244393,0.054200,-1.597070,101335.91
252196,2.628,1.100,1.436,1.399769,0.255869,-1.975400,101335.20
252207,1.918,0.554,1.817,1.527476,0.526713,-2.254226,101335.20
252217,1.833,-0.034,2.456,1.693494,0.729447,-2.406941,101333.94
252227,2.595,-0.754,2.753,1.983494,0.816181,-2.555932,101334.08
252236,3.608,-1.670,2.590,2.325108,0.848640,-2.798042,101332.14
252247,4.235,-2.557,2.176,2.599677,0.907704,-3.127418,101332.14
252257,4.907,-3.335,1.908,2.734301,1.046052,-3.489785,101332.14
252267,5.862,-3.802,1.846,2.717273,1.255172,-3.821289,101335.00
252276,6.829,-3.852,1.802,2.640117,1.502070,-4.101711,101334.27
252286,7.421,-3.757,1.812,2.550190,1.764401,-4.307105,101331.36
252297,7.506,-4.208,1.995,2.501236,1.981501,-4.439600,101332.39
252307,8.487,-5.238,2.296,2.490062,2.146455,-4.535913,101332.39
252317,9.767,-6.196,2.267,2.549126,2.262455,-4.625307,101336.28
252326,10.679,-7.167,2.449,2.666190,2.351318,-4.704059,101333.89
252337,12.068,-8.193,1.771,2.762502,2.417299,-4.734389,101332.89
252347,12.304,-9.777,1.174,2.933842,2.392290,-4.708316,101332.89
252357,12.550,-11.990,1.081,3.026429,2.360896,-4.712573,101335.42
252366,13.744,-14.024,1.075,2.916282,2.355575,-4.689692,101335.42
252377,14.510,-15.740,1.123,2.612979,2.385905,-4.616793,101335.05
252387,13.701,-17.005,1.221,2.289457,2.407189,-4.459289,101336.14
252396,12.111,-17.783,0.781,2.056393,2.460400,-4.183124,101333.17
252402,11.139,-18.710,0.233,1.866962,2.547134,-3.893656,101333.17
252411,10.364,-19.916,-0.845,1.583347,2.639721,-3.561620,101340.60
252422,9.371,-21.620,-3.168,1.111898,2.731776,-3.122629,101338.26
252432,8.358,-22.341,-5.919,0.556907,2.753061,-2.673528,101341.27
252441,7.925,-21.298,-8.227,-0.042248,2.606730,-2.151529,101337.73
252451,7.518,-19.630,-9.679,-0.480707,2.200198,-1.516190,101337.73
252462,7.048,-18.051,-10.141,-0.735587,1.559006,-0.828172,101342.78
252472,7.203,-16.658,-9.179,-0.847862,0.820438,-0.128447,101342.88
252482,7.258,-16.067,-8.347,-0.789330,0.067503,0.551589,101343.34
252491,8.321,-16.215,-7.018,-0.672798,-0.596570,1.206084,101340.13
252502,11.736,-15.359,-4.384,-0.489752,-1.003634,1.706267,101340.13
252512,9.166,-9.328,-1.479,-0.313092,-1.427194,2.174524,101339.63
252522,16.429,3.754,8.035,-0.163569,-1.315983,1.922304,101337.29
252531,21.062,12.337,8.960,-0.277973,-0.895616,1.268873,101339.16
252541,15.620,6.714,2.523,-0.636083,-0.667341,1.374763,101337.96
252552,8.801,-9.202,-1.613,-0.249771,-0.975965,2.162285,101337.96
252562,8.088,-24.981,-3.690,0.337146,-1.451671,2.843918,101341.29
252571,10.664,-18.245,-1.754,0.076944,-1.575652,2.657147,101338.37
252581,9.902,-4.142,-0.418,-0.197624,-1.273414,2.048946,101341.13
252592,8.432,-2.277,-0.629,0.184963,-1.070148,1.996799,101340.24
252602,5.776,-6.016,1.471,0.431330,-1.098350,1.980304,101340.24
252612,5.879,-7.225,3.045,0.557972,-1.055781,1.838762,101340.80
252621,6.565,-7.165,3.086,0.379715,-0.954148,1.645074,101338.77
252632,6.826,-6.467,2.296,-0.237532,-0.714167,1.438084,101338.25
252642,7.092,-6.806,1.686,-0.713239,-0.456093,1.264084,101337.94
252652,7.803,-7.012,1.855,-0.897349,-0.242717,1.078910,101337.94
252661,8.113,-6.113,1.897,-0.875532,-0.149598,0.883093,101340.42
252672,8.560,-5.205,1.543,-0.787734,-0.108626,0.767093,101336.78
252682,8.784,-5.045,1.786,-0.777092,-0.047433,0.747405,101337.98
252692,8.718,-4.767,1.967,-0.775495,-0.006461,0.739956,101334.86
252701,8.927,-4.579,2.420,-0.714303,0.000989,0.746873,101334.86
252711,8.797,-4.954,2.730,-0.711110,-0.025617,0.770818,101338.18
252722,8.562,-5.503,2.684,-0.729734,-0.022424,0.759644,101341.15
252732,7.952,-6.405,2.669,-0.780284,-0.010185,0.713350,101337.49
252742,7.599,-6.509,2.311,-0.822321,0.012163,0.636726,101336.30
252751,7.610,-6.344,2.383,-0.900541,0.077081,0.551589,101336.30
252762,7.695,-6.022,2.350,-0.963330,0.150512,0.488800,101338.68
252772,7.803,-5.722,1.891,-0.956945,0.168603,0.460598,101337.27
252782,7.898,-5.537,1.708,-0.930871,0.156365,0.452084,101335.76
252791,8.208,-5.558,1.603,-0.881385,0.129227,0.437717,101338.01
252802,8.325,-5.853,1.688,-0.845734,0.101558,0.428672,101338.01
252812,8.523,-5.996,2.117,-0.863826,0.096236,0.427607,101336.59
252822,8.845,-5.624,2.177,-0.855312,0.071759,0.401534,101337.01
252831,8.498,-6.043,2.055,-0.863826,0.033448,0.430800,101336.48
252841,8.313,-6.072,1.925,-0.905862,-0.002204,0.437185,101339.09
252852,8.279,-5.683,2.080,-0.931936,-0.052754,0.450488,101339.09
252862,8.163,-5.581,2.043,-0.926615,-0.115011,0.485075,101339.82
252872,8.090,-5.750,1.785,-0.887948,-0.173366,0.523565,101339.30
252881,8.213,-5.792,1.870,-0.899477,-0.215048,0.550525,101339.30
252892,8.147,-5.558,2.450,-0.880853,-0.280497,0.585644,101337.48
252902,8.025,-5.542,2.660,-0.838284,-0.337965,0.643644,101337.48
252912,7.949,-5.809,2.930,-0.804229,-0.380534,0.698451,101339.05
252921,7.739,-5.980,2.686,-0.788266,-0.413525,0.759112,101338.42
252932,7.713,-6.292,2.126,-0.801569,-0.448112,0.809130,101336.91
252942,7.946,-6.279,1.471,-0.840945,-0.501323,0.842653,101338.78
252952,8.398,-6.104,1.017,-0.895752,-0.558259,0.882561,101338.78
252962,8.978,-5.880,0.615,-0.931936,-0.637543,0.930451,101340.38
252972,9.536,-5.746,0.371,-0.950560,-0.737580,0.986855,101336.89
252982,10.028,-5.973,0.410,-0.951624,-0.865286,1.051240,101339.17
252992,10.405,-6.319,0.775,-0.954816,-1.002570,1.128928,101338.39
253001,10.657,-6.345,1.290,-0.978761,-1.128680,1.223644,101338.39
253011,10.828,-6.414,1.938,-1.023459,-1.237763,1.328469,101340.30
253022,10.865,-6.684,2.482,-1.099018,-1.322900,1.431166,101337.60
253032,10.827,-7.077,2.612,-1.200651,-1.376111,1.528010,101335.41
253042,10.849,-7.445,2.333,-1.359752,-1.386221,1.616341,101337.23
253051,11.599,-7.361,2.316,-1.591752,-1.354827,1.691900,101337.23
253062,12.972,-6.777,2.528,-1.800339,-1.347377,1.761074,101338.16
253072,14.561,-6.036,3.553,-1.916339,-1.369194,1.845680,101335.46
253082,15.727,-5.303,4.709,-1.979128,-1.356955,1.963808,101336.55
253091,16.597,-4.978,5.030,-2.003073,-1.315451,2.115992,101336.04
253102,17.905,-4.851,6.239,-2.017972,-1.265965,2.289991,101336.04
253108,18.551,-5.238,7.710,-2.022761,-1.231910,2.452285,101337.45
253117,18.833,-6.224,8.290,-1.887605,-1.291506,2.670982,101337.45
253127,17.881,-7.915,7.897,-1.514064,-1.512331,2.940230,101335.66
253137,16.768,-7.822,7.300,-1.132541,-1.686331,2.978009,101334.99
253147,15.355,-7.564,6.122,-1.199055,-1.667707,2.706101,101334.79
253157,13.926,-7.696,5.624,-1.586431,-1.462313,2.319257,101337.39
253167,11.496,-6.515,4.831,-1.756174,-1.286717,1.962744,101336.97
253177,11.529,-5.938,4.292,-1.842376,-1.184552,1.684451,101336.30
253187,9.615,-4.978,3.818,-1.726376,-1.061102,1.509386,101336.30
253197,2.345,-4.681,2.745,-1.265568,-0.699268,1.356139,101333.73
253207,-5.922,-4.939,0.711,-1.037293,-0.233139,1.061882,101333.73
253217,-2.251,-6.228,0.246,-1.062835,0.093576,0.728782,101336.52
253227,1.780,-1.704,3.571,-0.556266,0.188291,-0.134833,101334.84
253237,4.238,1.058,3.727,0.269568,0.199998,-0.872337,101336.47
253247,5.778,1.683,3.087,0.720797,0.261723,-1.282593,101332.14
253257,5.768,1.995,2.606,0.971421,0.335686,-1.503951,101332.14
253267,5.307,1.616,2.266,1.180540,0.404328,-1.748189,101333.74
253277,4.531,1.193,1.769,1.306650,0.527777,-2.081822,101335.07
253287,3.823,1.113,1.682,1.500338,0.720401,-2.340960,101334.10
253297,3.284,0.385,1.913,1.780228,0.842786,-2.450574,101334.10
253306,3.451,-0.868,1.870,2.073420,0.876309,-2.589455,101334.10
253317,4.098,-2.027,1.654,2.331493,0.899190,-2.869345,101335.42
253327,4.786,-2.870,1.533,2.509750,0.976346,-3.239161,101336.47
253337,5.474,-3.655,1.773,2.582117,1.155135,-3.595675,101335.17
253347,6.509,-4.142,1.721,2.549126,1.388199,-3.877693,101332.98
253357,6.981,-4.263,1.702,2.509750,1.629245,-4.090004,101332.98
253367,7.309,-4.297,1.892,2.483145,1.866034,-4.229417,101334.36
253377,7.616,-5.303,1.962,2.489530,2.024602,-4.303913,101335.77
253387,8.559,-6.669,2.067,2.441640,2.206052,-4.369362,101332.44
253398,9.440,-7.405,1.852,2.408649,2.351850,-4.442261,101332.44
253407,10.224,-7.926,1.795,2.405989,2.497116,-4.455564,101335.65
253417,10.841,-8.563,1.897,2.537952,2.595024,-4.387986,101333.46
253427,11.257,-10.086,1.653,2.760906,2.587574,-4.275179,101333.46
253437,11.370,-12.095,1.563,2.942888,2.504033,-4.231014,101336.27
253447,11.934,-13.377,1.817,2.896062,2.455079,-4.226224,101333.46
253457,12.615,-14.462,1.890,2.693860,2.515739,-4.162372,101333.46
253467,12.408,-15.470,1.688,2.399071,2.658877,-4.079362,101336.18
253477,11.599,-16.790,0.963,2.034576,2.838730,-3.912280,101334.93
253488,10.937,-18.072,-0.005,1.590797,3.001024,-3.652078,101337.16
253497,10.925,-18.683,-1.359,1.066136,3.071794,-3.337069,101334.93
253507,11.144,-18.937,-3.199,0.576063,3.021776,-2.990666,101337.87
253517,10.390,-18.870,-5.270,0.257862,2.846712,-2.599033,101341.35
253528,8.777,-18.480,-7.051,0.055128,2.562565,-2.116409,101338.65
253537,7.702,-17.800,-8.422,-0.143349,2.133153,-1.591217,101338.65
253547,7.048,-17.337,-9.310,-0.332248,1.598914,-1.003236,101341.98
253557,6.692,-17.062,-9.484,-0.532321,1.029025,-0.352998,101341.98
253568,6.764,-16.664,-9.383,-0.685569,0.420291,0.307351,101343.11
253577,7.032,-16.076,-9.550,-0.751018,-0.211855,0.946414,101340.72
253587,10.288,-15.235,-7.556,-0.773367,-0.765249,1.503001,101342.17
253597,13.355,-10.730,-4.746,-0.442395,-1.226588,1.854194,101338.78
253607,11.463,-0.460,5.924,-0.031606,-1.508607,2.078744,101338.78
253618,21.621,12.632,14.804,0.514339,-1.112185,1.446597,101338.55
253627,21.518,13.637,6.519,0.165807,-0.854112,1.065607,101337.35
253637,13.253,-1.543,-2.074,-0.008193,-1.104203,1.849937,101338.55
253647,8.473,-20.751,-4.548,0.766559,-1.708680,2.778468,101338.55
253657,10.354,-23.955,-3.921,0.767091,-1.763487,2.876376,101338.55
253667,10.301,-10.122,-1.677,0.066834,-1.420276,2.239973,101341.04
253677,8.398,-2.912,-1.038,0.148779,-1.078130,2.002120,101338.23
253687,6.717,-5.713,0.816,0.366944,-1.043010,1.931350,101339.95
253698,6.219,-6.828,2.868,0.381311,-1.011084,1.792469,101338.43
253707,6.073,-7.664,2.965,0.207843,-0.889231,1.615808,101338.43
253717,6.318,-8.144,2.590,-0.262542,-0.709910,1.377955,101338.49
253727,6.950,-6.984,2.643,-0.702596,-0.534846,1.124671,101338.49
253737,7.379,-6.479,2.479,-0.903202,-0.361910,0.902249,101336.88
253748,7.859,-5.991,2.326,-0.979826,-0.256552,0.709626,101336.88
253757,8.307,-4.779,1.653,-0.886174,-0.217708,0.579259,101336.64
253767,8.611,-4.262,1.243,-0.704193,-0.182057,0.558506,101339.45
253777,8.929,-4.535,1.694,-0.613734,-0.113415,0.585112,101339.45
253787,8.996,-4.341,2.494,-0.651514,-0.062864,0.621295,101338.09
253797,8.977,-3.849,2.872,-0.636083,-0.047965,0.665460,101338.56
253807,8.593,-4.264,3.052,-0.530193,-0.091066,0.717075,101338.56
253817,8.129,-5.108,3.358,-0.522211,-0.132039,0.744213,101339.64
253828,7.722,-5.560,3.364,-0.604688,-0.142149,0.710690,101337.97
253838,7.415,-6.049,3.083,-0.696743,-0.124057,0.635130,101337.45
253847,7.536,-5.792,2.788,-0.808486,-0.072442,0.562231,101335.73
253857,7.915,-5.133,2.429,-0.871275,-0.046901,0.531369,101340.09
253868,8.270,-4.902,1.996,-0.824982,-0.078828,0.548396,101338.57
253878,8.516,-4.752,1.944,-0.761661,-0.137360,0.592561,101337.38
253887,8.547,-4.924,2.201,-0.704725,-0.194295,0.642580,101335.87
253897,8.450,-5.160,2.723,-0.688229,-0.234736,0.687809,101335.87
253907,8.197,-5.333,3.053,-0.680248,-0.279965,0.715479,101335.87
253918,8.047,-5.540,2.977,-0.691954,-0.311892,0.741020,101338.89
253927,7.985,-5.661,2.705,-0.730266,-0.340094,0.763901,101342.06
253933,8.048,-5.709,2.572,-0.759532,-0.358185,0.780396,101336.86
253942,7.892,-5.811,2.474,-0.778156,-0.340626,0.791570,101336.03
253953,8.311,-5.838,2.278,-0.816468,-0.342222,0.797424,101336.03
253963,8.343,-6.253,2.048,-0.838817,-0.337965,0.802745,101338.91
253972,8.528,-6.143,1.452,-0.872339,-0.312956,0.798488,101340.05
253982,8.656,-6.162,0.862,-0.882450,-0.326791,0.793699,101338.91
253992,8.967,-6.147,0.756,-0.887239,-0.332112,0.795827,101335.41
254003,8.960,-6.271,0.546,-0.901073,-0.340626,0.795827,101335.41
254012,8.953,-6.390,0.625,-0.913844,-0.345947,0.810194,101340.17
254022,9.073,-6.560,1.136,-0.970248,-0.395965,0.829882,101339.19
254032,9.135,-6.417,1.684,-1.011220,-0.476846,0.855424,101337.73
254043,9.110,-6.455,1.691,-1.058046,-0.560919,0.905442,101337.58
254052,9.536,-6.377,1.604,-1.108064,-0.663616,0.960249,101337.58
254062,9.936,-6.247,1.758,-1.160211,-0.797708,1.029956,101342.52
254072,10.471,-6.072,2.455,-1.199587,-0.950956,1.117222,101338.24
254083,10.756,-6.086,3.140,-1.189477,-1.119634,1.222047,101340.12
254092,10.891,-6.635,3.252,-1.188413,-1.271286,1.334854,101336.43
254102,10.803,-6.935,3.165,-1.233110,-1.397396,1.462029,101336.43
254112,10.758,-6.923,2.935,-1.310798,-1.482533,1.573772,101339.19
254123,10.937,-7.177,2.456,-1.415091,-1.500625,1.668487,101337.73
254133,11.321,-7.143,1.587,-1.571532,-1.482533,1.745643,101335.39
254142,12.032,-7.019,0.808,-1.771605,-1.479873,1.825460,101337.05
254152,13.678,-6.773,1.269,-1.991898,-1.484662,1.880799,101337.05
254162,15.425,-6.105,2.973,-2.164302,-1.454331,1.926028,101336.60
254168,16.172,-5.740,3.915,-2.243054,-1.384093,1.989349,101338.88
254177,16.700,-5.501,4.363,-2.298926,-1.282460,2.077680,101338.88
254187,17.983,-4.880,6.555,-2.402687,-1.111121,2.247955,101335.76
254197,19.266,-4.271,9.038,-2.365972,-1.049928,2.485808,101336.07
254208,18.349,-6.122,9.474,-2.086614,-1.187744,2.733771,101336.07
254218,16.419,-8.411,8.813,-1.669972,-1.441029,2.893404,101336.34
254228,16.102,-7.957,8.031,-1.358156,-1.607579,2.869991,101336.51
254237,15.127,-7.617,7.101,-1.508743,-1.544258,2.548597,101333.54
254247,13.443,-6.224,6.340,-1.799275,-1.320772,2.093111,101333.54
254258,10.748,-5.127,5.937,-1.730100,-1.192533,1.730212,101333.54
254267,10.267,-5.003,4.264,-1.575788,-1.101543,1.565790,101337.59
254277,6.043,-5.484,2.481,-1.329422,-0.864754,1.401368,101336.91
254287,-2.923,-5.838,0.051,-1.056981,-0.514093,1.099130,101335.88
254298,-5.294,-6.969,-1.570,-1.100082,-0.132039,0.794763,101336.39
254308,0.284,-2.385,3.004,-0.647257,0.071759,0.137075,101336.39
254317,3.934,1.320,4.883,0.426541,0.091980,-0.640869,101337.00
254327,5.981,2.065,4.619,1.052302,0.187227,-1.063896,101334.02
254338,5.830,2.313,3.308,1.264081,0.259062,-1.273015,101331.02
254348,4.234,1.497,2.474,1.404558,0.311209,-1.579511,101331.02
254358,3.203,1.210,1.138,1.472668,0.482548,-1.949327,101334.89
254367,2.335,0.849,1.427,1.511512,0.760309,-2.228153,101334.89
254377,2.164,0.146,2.188,1.634962,0.982731,-2.351070,101336.30
254388,2.817,-0.933,2.444,1.903677,1.081172,-2.480905,101332.08
254397,3.810,-1.705,2.215,2.234117,1.114162,-2.708116,101330.05
254403,4.445,-2.166,1.725,2.451218,1.140236,-2.936923,101330.05
254412,4.920,-2.555,1.308,2.617236,1.199832,-3.200849,101335.82
254423,5.719,-3.339,0.798,2.742814,1.345630,-3.541931,101336.40
254433,6.736,-3.782,0.678,2.753456,1.523887,-3.819161,101331.34
254442,7.290,-3.912,0.705,2.752392,1.730878,-4.039454,101331.76
254452,8.053,-3.862,1.065,2.741218,1.919777,-4.185784,101331.76
254462,9.036,-4.412,1.367,2.784319,1.998529,-4.267197,101334.99
254473,10.173,-5.618,1.397,2.925860,2.026199,-4.316151,101333.99
254483,11.083,-6.236,1.540,3.085493,2.023006,-4.391179,101333.27
254492,11.736,-7.373,1.411,3.265878,1.993740,-4.448114,101332.18
254502,11.740,-9.025,1.030,3.440410,1.909667,-4.461949,101332.18
254513,12.010,-10.885,0.893,3.563860,1.838364,-4.489087,101336.02
254523,12.422,-12.595,1.263,3.532997,1.793667,-4.520481,101338.16
254532,13.052,-14.273,1.840,3.312172,1.844217,-4.515692,101334.77
254542,12.729,-15.778,2.268,2.945016,1.966070,-4.465674,101335.46
254553,11.749,-17.571,2.268,2.561897,2.161355,-4.327857,101335.46
254563,10.690,-19.190,1.610,2.137805,2.426345,-4.072977,101337.64
254572,10.124,-20.522,-0.066,1.595054,2.722198,-3.745197,101337.86
254582,9.808,-21.495,-2.480,0.921403,2.978675,-3.397730,101336.66
254593,9.856,-21.537,-5.319,0.225935,3.088822,-3.000244,101335.14
254603,8.955,-20.417,-7.468,-0.395569,2.962180,-2.459620,101335.14
254613,7.649,-18.759,-8.446,-0.765385,2.542877,-1.845566,101339.77
254622,6.552,-17.434,-8.469,-0.921293,1.879868,-1.184685,101339.15
254632,6.410,-16.575,-7.573,-0.965991,1.117887,-0.457291,101339.21
254643,6.545,-16.116,-7.018,-0.864358,0.361759,0.252011,101343.12
254652,6.537,-16.033,-6.914,-0.705257,-0.314552,0.931515,101343.12
254662,9.542,-15.513,-4.499,-0.587661,-0.771102,1.512047,101342.09
254672,12.349,-12.384,-3.382,-0.247643,-1.169121,1.927093,101340.11
254683,11.566,-3.809,1.592,0.074284,-1.652808,2.284138,101337.16
254693,19.966,8.760,10.310,0.630871,-1.605451,1.861111,101336.31
254702,21.720,13.443,6.677,0.619164,-1.359084,1.414671,101336.31
254712,13.097,1.882,-1.029,0.342467,-1.305873,1.908469,101337.72
254723,6.516,-18.345,-6.671,0.660137,-1.594276,2.668322,101340.17
254733,8.398,-27.433,-5.409,0.433990,-1.600662,2.924266,101339.64
254743,10.815,-12.207,-0.161,-0.423239,-1.197322,2.388432,101338.56
254752,9.093,-2.230,0.511,-0.313624,-0.910515,2.011166,101338.56
254763,7.014,-4.358,0.344,0.192412,-0.896148,1.992010,101341.87
254773,6.413,-6.662,2.637,0.340339,-0.931268,1.944120,101336.46
254783,7.147,-6.656,3.153,0.305220,-0.925414,1.811093,101335.73
254792,6.700,-6.496,3.173,-0.082156,-0.865818,1.631240,101336.35
254802,6.671,-6.799,2.825,-0.586064,-0.712570,1.429038,101336.35
254813,7.463,-7.098,1.674,-0.816468,-0.571029,1.213001,101339.03
254823,7.998,-6.353,1.557,-0.856908,-0.490681,1.013992,101338.56
254832,8.502,-5.009,1.646,-0.804229,-0.435341,0.891075,101338.30
254842,8.864,-4.688,1.708,-0.698340,-0.372552,0.871387,101335.80
254853,9.136,-4.378,2.199,-0.646193,-0.402882,0.894800,101335.80
254863,8.814,-4.420,2.138,-0.579147,-0.433213,0.920873,101340.89
254873,8.691,-4.435,1.603,-0.464034,-0.479152,0.931515,101336.47
254882,8.302,-4.816,1.642,-0.405147,-0.503983,0.932580,101337.72
254893,7.925,-5.732,1.903,-0.375349,-0.507708,0.906506,101339.13
254903,7.551,-6.591,2.181,-0.476982,-0.447580,0.850635,101339.13
254913,7.380,-6.633,2.364,-0.617459,-0.343818,0.786249,101339.58
254922,7.336,-6.400,1.902,-0.749422,-0.212919,0.717607,101337.45
254932,7.793,-5.923,1.524,-0.849459,-0.101708,0.672910,101338.44
254943,8.131,-5.496,1.661,-0.867018,-0.068185,0.658543,101337.97
254953,8.206,-5.412,1.843,-0.804229,-0.088938,0.661736,101337.97
254963,8.161,-5.670,1.871,-0.731330,-0.125653,0.671314,101337.81
254972,8.231,-5.933,2.101,-0.672798,-0.148002,0.667057,101339.11
254983,7.847,-6.153,1.932,-0.641404,-0.156516,0.663332,101341.83
254993,7.912,-6.140,1.528,-0.653820,-0.142503,0.644531,101336.30
255002,7.948,-6.110,1.322,-0.661092,-0.142681,0.626616,101336.30
255012,8.179,-6.143,1.229,-0.664817,-0.143745,0.623424,101337.81
255023,8.485,-6.054,1.021,-0.675459,-0.154387,0.620231,101339.59
255033,8.438,-6.087,1.096,-0.677587,-0.172479,0.644176,101338.08
255043,8.440,-6.351,1.120,-0.690358,-0.182057,0.666525,101337.50
255052,8.374,-6.419,1.318,-0.722817,-0.182589,0.679827,101337.50
255063,8.410,-6.351,1.527,-0.758468,-0.199617,0.701644,101336.02
255073,8.329,-6.523,1.445,-0.780284,-0.223561,0.728782,101338.62
255083,8.143,-6.722,1.433,-0.818596,-0.247506,0.758048,101339.71
255092,8.137,-6.839,1.457,-0.884046,-0.270919,0.787314,101337.95
255102,8.456,-6.764,1.676,-0.955881,-0.308699,0.830414,101337.95
255109,8.829,-6.509,1.816,-0.996853,-0.347543,0.870855,101341.95
255118,9.309,-6.467,1.902,-1.023459,-0.399690,0.925662,101341.95
255128,9.768,-6.190,1.435,-1.058046,-0.485892,1.005479,101339.30
255138,10.325,-6.178,0.840,-1.101147,-0.599763,1.100194,101339.30
255148,10.703,-6.218,0.799,-1.143715,-0.743965,1.208212,101336.39
255158,10.915,-6.237,1.142,-1.176174,-0.900937,1.322084,101338.96
255168,11.047,-6.553,1.570,-1.219807,-1.046203,1.438084,101339.38
255178,11.199,-6.593,2.013,-1.274082,-1.168056,1.546102,101339.27
255187,11.223,-6.793,2.363,-1.321440,-1.256387,1.636561,101339.27
255198,11.243,-7.177,2.081,-1.397000,-1.306937,1.709992,101334.95
255208,11.906,-7.444,1.659,-1.538541,-1.343120,1.769588,101334.95
255218,13.187,-7.318,2.218,-1.710944,-1.389414,1.817478,101337.99
255227,14.608,-7.004,3.613,-1.920063,-1.370790,1.866432,101336.48
255238,15.373,-6.466,4.999,-2.136100,-1.233506,1.940928,101335.90
255248,16.582,-6.351,5.711,-2.309036,-1.032900,2.054799,101338.09
255258,18.086,-5.526,8.397,-2.452705,-0.899341,2.233056,101338.09
255268,18.786,-5.394,10.474,-2.421311,-0.818992,2.530505,101336.91
255278,17.098,-7.153,9.623,-2.066394,-0.926479,2.825826,101337.45
255288,15.251,-8.139,8.237,-1.682743,-1.069084,2.945019,101334.30
255298,14.539,-8.123,6.349,-1.551311,-1.082919,2.849771,101334.30
255307,14.168,-7.186,5.499,-1.840779,-0.945634,2.443771,101334.30
255318,11.720,-6.026,5.255,-2.107366,-0.740240,1.926028,101339.25
255328,9.730,-5.677,3.348,-2.062669,-0.625304,1.609423,101335.70
255338,7.784,-6.597,2.776,-2.063201,-0.359249,1.477460,101335.14
255348,0.850,-6.663,1.752,-1.800339,0.015356,1.234286,101335.45
255357,-5.929,-5.032,0.358,-1.663054,0.373466,0.777736,101335.45
255368,1.032,-2.616,2.087,-1.429458,0.607594,0.430268,101338.67
255378,6.600,2.035,4.364,-0.744101,0.735832,-0.099181,101334.56
255388,8.314,3.647,4.842,-0.024156,0.792768,-0.618520,101335.11
255398,6.942,3.601,3.252,0.471238,0.750731,-1.039951,101335.11
255408,5.015,3.007,1.081,0.876705,0.718805,-1.369327,101335.72
255418,3.346,1.780,0.337,1.218320,0.816181,-1.620483,101334.63
255428,2.976,0.815,1.222,1.429035,1.008805,-1.801400,101334.63
255438,3.705,0.394,1.953,1.666888,1.142896,-1.972740,101335.88
255448,4.399,-0.138,2.271,2.036705,1.184401,-2.197290,101333.69
255458,4.904,-0.863,1.797,2.449090,1.165245,-2.468134,101333.69
255463,5.022,-1.661,1.078,2.693860,1.175355,-2.699602,101334.13
255473,5.234,-2.398,0.783,2.818374,1.249850,-2.938519,101336.06
255482,5.969,-3.132,0.581,2.852429,1.419061,-3.270023,101332.31
255493,6.736,-3.569,0.589,2.802411,1.642547,-3.585032,101332.63
255503,7.353,-3.769,0.720,2.709291,1.873483,-3.837785,101332.63
255513,8.126,-3.546,0.868,2.637456,2.045355,-3.999546,101332.91
255523,9.297,-3.490,0.998,2.718337,2.101758,-4.095858,101333.78
255533,9.975,-5.015,0.912,2.898722,2.071428,-4.178867,101330.56
255543,10.872,-5.714,0.924,3.021108,2.058125,-4.309766,101333.38
255553,11.357,-6.448,1.447,3.157860,2.064510,-4.414591,101333.38
255563,12.137,-7.477,1.401,3.272264,2.026199,-4.489087,101335.77
255572,12.621,-9.016,1.575,3.419126,2.026199,-4.518353,101337.80
255583,12.646,-11.330,1.676,3.522355,1.988951,-4.515160,101334.78
255593,12.880,-13.402,2.031,3.433493,1.987355,-4.562518,101333.64
255603,13.096,-14.743,2.631,3.217456,2.047483,-4.547087,101333.64
255613,12.811,-16.166,2.984,2.983860,2.206584,-4.411931,101336.28
255623,12.022,-17.617,2.493,2.692796,2.421556,-4.146940,101338.25
255633,11.289,-18.851,0.931,2.287860,2.671648,-3.830867,101336.17
255643,11.014,-19.859,-1.537,1.686576,2.920675,-3.540867,101334.34
255653,11.058,-20.562,-4.450,0.953329,3.049446,-3.269491,101334.34
255663,9.657,-20.372,-6.533,0.233385,3.005813,-2.855510,101339.34
255673,7.464,-19.641,-7.081,-0.299257,2.764767,-2.343088,101341.89
255683,6.176,-18.706,-7.346,-0.702596,2.290125,-1.732758,101340.53
255693,6.105,-17.243,-7.579,-0.987807,1.603171,-1.002172,101339.34
255698,6.173,-15.882,-7.649,-1.063899,1.022107,-0.414722,101339.34
255708,6.528,-14.407,-7.315,-0.992064,0.431466,0.167938,101339.34
255718,7.319,-13.150,-6.604,-0.715367,-0.320405,0.908635,101341.34
255728,8.866,-12.953,-6.064,-0.337569,-1.039286,1.598781,101337.95
255738,14.293,-12.090,-2.622,0.073752,-1.519781,2.087258,101337.44
255749,11.055,-6.099,0.365,0.615972,-2.039652,2.493789,101336.94
255758,16.828,5.313,12.981,1.031017,-1.785836,2.276157,101339.23
255768,22.889,11.930,10.246,0.894265,-1.427194,1.681790,101337.67
255778,16.108,4.315,-1.230,0.202522,-1.415487,2.018615,101337.67
255788,8.434,-10.573,-6.011,0.188155,-1.700698,2.776340,101339.59
255798,7.119,-24.768,-3.306,0.554779,-1.908221,3.209477,101340.02
255808,10.797,-17.570,-0.664,0.091843,-1.628331,2.938101,101340.02
255818,9.572,-4.906,0.315,-0.319477,-1.468166,2.431000,101339.21
255828,7.608,-4.285,-0.581,0.328632,-1.467634,2.282010,101337.76
255838,5.734,-8.354,-0.527,0.424944,-1.367597,2.207515,101337.35
255848,5.340,-9.049,0.937,0.140798,-1.180295,2.018615,101337.55
255858,5.724,-8.281,1.445,-0.171019,-0.897745,1.702542,101339.34
255868,6.380,-7.750,1.467,-0.784009,-0.600827,1.411478,101337.56
255879,7.291,-6.489,0.757,-1.164468,-0.343818,1.158726,101336.84
255888,8.126,-5.340,0.854,-1.100082,-0.189506,0.992176,101335.02
255898,8.581,-5.062,1.647,-0.885110,-0.141617,0.921937,101335.02
255908,8.570,-5.009,1.957,-0.687165,-0.151727,0.874047,101335.02
255919,9.036,-4.832,2.450,-0.640872,-0.164497,0.858084,101340.58
255928,8.987,-4.889,2.066,-0.641936,-0.165029,0.855956,101338.64
255934,8.996,-4.926,1.533,-0.595642,-0.176204,0.852763,101334.95
255943,8.760,-4.771,1.558,-0.560523,-0.198552,0.861809,101336.25
255953,8.375,-5.159,1.939,-0.539771,-0.208130,0.855424,101336.25
255963,7.874,-5.992,2.515,-0.578615,-0.182589,0.813387,101335.83
255973,7.599,-6.293,2.559,-0.666413,-0.135231,0.740488,101337.59
255983,7.409,-6.335,2.350,-0.753679,-0.072974,0.673442,101337.91
255993,7.467,-6.096,2.311,-0.829771,-0.007525,0.589369,101335.25
256003,7.639,-5.737,1.899,-0.851587,0.012163,0.533497,101335.25
256013,7.833,-5.549,1.519,-0.820725,-0.014442,0.506892,101338.90
256023,7.878,-5.516,1.431,-0.743037,-0.066057,0.490928,101339.05
256033,7.903,-5.670,1.606,-0.672798,-0.095855,0.485607,101335.77
256044,8.024,-5.956,2.176,-0.620651,-0.103305,0.477094,101337.07
256053,8.049,-5.913,2.541,-0.600431,-0.093195,0.467516,101337.07
256063,7.980,-6.043,2.363,-0.602028,-0.076699,0.458470,101340.10
256073,7.859,-6.169,1.986,-0.633422,-0.054883,0.462727,101337.40
256083,8.265,-5.917,1.642,-0.674395,-0.037323,0.468048,101337.55
256093,8.491,-5.830,1.202,-0.687165,-0.054883,0.487204,101336.57
256103,8.717,-5.654,1.021,-0.685037,-0.086277,0.528176,101336.57
256113,8.874,-5.678,1.121,-0.687697,-0.130442,0.577130,101339.22
256123,8.949,-5.809,1.364,-0.685037,-0.180993,0.625020,101339.47
256134,8.955,-6.263,1.554,-0.713771,-0.217176,0.673442,101337.91
256143,8.753,-6.219,1.811,-0.771771,-0.249635,0.717607,101337.75
256153,8.503,-6.224,1.804,-0.812211,-0.283690,0.761772,101337.75
256163,8.504,-6.498,1.904,-0.861165,-0.319873,0.792103,101338.05
256168,8.429,-6.645,1.957,-0.900009,-0.347543,0.814451,101340.66
256178,8.599,-6.542,1.794,-0.938321,-0.375745,0.845846,101340.66
256188,8.933,-6.399,1.430,-0.975037,-0.440130,0.891607,101339.36
256198,9.386,-6.119,1.173,-1.003770,-0.532185,0.959185,101340.66
256208,9.838,-5.697,0.801,-1.027715,-0.657231,1.054965,101340.66
256219,10.272,-5.583,0.912,-1.031440,-0.820057,1.164047,101338.30
256229,10.412,-5.860,1.241,-1.036229,-0.992992,1.287497,101339.23
256238,10.615,-6.216,1.876,-1.056981,-1.146240,1.412010,101336.11
256248,10.835,-6.544,2.561,-1.097954,-1.271818,1.519497,101336.11
256259,10.854,-6.924,3.080,-1.173514,-1.364405,1.619001,101336.11
256268,10.859,-7.353,3.082,-1.283128,-1.410166,1.706267,101339.47
256278,11.167,-7.484,2.674,-1.446486,-1.424001,1.786084,101337.08
256288,12.083,-7.361,2.260,-1.621550,-1.444221,1.871221,101339.63
256299,13.478,-7.026,2.522,-1.798743,-1.474019,1.936139,101336.19
256309,14.921,-7.050,3.613,-1.998284,-1.436772,1.997863,101336.19
256318,16.175,-6.716,4.641,-2.218045,-1.234038,2.076616,101337.63
256328,18.271,-6.560,6.074,-2.450045,-1.019598,2.180377,101337.27
256338,19.924,-5.369,8.834,-2.647990,-0.846662,2.378322,101334.26
256349,19.358,-5.957,10.235,-2.530393,-0.791855,2.685349,101334.26
256359,16.774,-7.450,9.189,-2.140357,-0.905726,2.847642,101336.98
256368,15.440,-7.505,7.744,-1.755642,-1.082919,2.915220,101336.98
256378,14.413,-7.810,6.495,-1.744467,-1.132937,2.682156,101339.59
256389,13.436,-7.012,5.658,-2.090339,-0.909451,2.231992,101336.04
256398,10.175,-5.749,5.347,-2.083953,-0.723213,1.863239,101335.05
256404,9.427,-5.740,4.856,-1.903568,-0.617855,1.705203,101335.05
256413,8.200,-6.025,3.833,-1.804596,-0.439598,1.570579,101336.12
256423,2.395,-6.150,2.837,-1.601330,-0.055415,1.316763,101336.90
256434,-5.697,-5.405,-0.125,-1.547055,0.368677,0.975680,101336.85
256443,-1.124,-4.530,0.028,-1.599201,0.662401,0.589901,101335.60
256453,4.761,0.771,2.967,-0.994725,0.808731,-0.046502,101335.60
256463,7.323,3.098,4.320,-0.106101,0.771484,-0.639273,101336.19
256474,6.766,3.300,3.429,0.529238,0.652291,-1.059639,101337.48
256483,5.158,3.123,1.922,0.955458,0.608658,-1.392740,101334.42
256493,4.015,2.693,0.936,1.332191,0.703906,-1.659327,101334.67
256503,3.109,1.592,1.228,1.578026,0.903979,-1.874832,101334.67
256514,3.126,0.935,2.040,1.785017,1.091814,-2.043510,101337.04
256524,3.681,0.372,2.591,2.086191,1.182272,-2.222299,101333.91
256533,4.422,-0.347,2.306,2.421952,1.204089,-2.483565,101333.13
256543,4.994,-1.106,1.814,2.701310,1.242401,-2.826244,101331.77
256553,5.632,-2.059,1.533,2.850301,1.371171,-3.207234,101331.77
256564,6.282,-2.815,1.302,2.874778,1.576034,-3.565344,101335.88
256573,6.966,-3.194,1.324,2.863071,1.818676,-3.865454,101333.95
256583,7.708,-3.418,1.410,2.822099,2.070896,-4.094793,101333.53
256593,8.717,-3.659,1.648,2.801878,2.245428,-4.266665,101330.98
256604,9.536,-4.851,1.440,2.833273,2.364088,-4.375747,101330.98
256614,10.499,-5.545,1.437,2.818374,2.489666,-4.459821,101335.48
256623,11.554,-5.913,1.370,2.894998,2.547134,-4.540169,101335.95
256633,12.811,-6.630,1.388,3.037071,2.550327,-4.546555,101332.92
256644,13.909,-8.443,1.039,3.281842,2.498712,-4.476316,101332.77
256653,14.177,-11.403,0.364,3.540979,2.359299,-4.442793,101332.77
256663,14.073,-14.346,0.307,3.565456,2.224143,-4.454500,101336.59
256673,13.864,-16.775,0.829,3.382942,2.162951,-4.361913,101333.53
256684,13.138,-17.962,1.303,3.078043,2.200198,-4.193766,101333.78
256694,11.801,-18.255,0.984,2.750264,2.275226,-3.955381,101333.16
256703,10.461,-19.171,0.235,2.393750,2.399208,-3.625473,101333.16
256713,9.674,-20.690,-1.354,1.812154,2.548198,-3.242354,101338.90
256723,9.011,-21.878,-3.807,1.056026,2.650363,-2.859235,101338.27
256734,8.011,-21.811,-6.411,0.304155,2.655684,-2.446317,101337.87
256743,6.892,-20.625,-8.090,-0.319477,2.457207,-1.937621,101338.54
256753,6.250,-18.868,-8.751,-0.681844,2.000125,-1.328355,101338.54
256759,6.298,-17.522,-8.810,-0.801037,1.518034,-0.838282,101342.48
256769,6.516,-16.311,-8.612,-0.814339,0.961447,-0.318943,101342.48
256779,6.972,-14.970,-8.019,-0.655771,0.185631,0.379185,101338.83
256789,7.451,-14.225,-7.826,-0.331716,-0.575818,1.046451,101341.44
256798,9.306,-13.991,-6.763,-0.032138,-1.211689,1.647735,101339.41
256808,13.355,-11.168,-3.167,0.345128,-1.569267,2.029258,101339.39
256819,12.031,-1.833,3.723,0.685678,-1.831065,2.247423,101339.17
256829,20.286,10.355,12.448,1.000687,-1.422937,1.637625,101337.83
256838,19.928,11.248,6.247,0.526577,-1.077598,1.190653,101337.83
256848,13.597,-1.100,-4.031,-0.085881,-1.083983,1.747239,101339.02
256859,7.725,-18.676,-5.254,0.101421,-1.455396,2.586909,101339.02
256869,9.910,-25.404,-1.814,0.392485,-1.484130,2.882230,101340.01
256878,11.352,-12.505,-0.276,-0.200817,-1.246276,2.371404,101339.27
256888,8.455,-2.933,-1.020,-0.321074,-1.059506,1.978175,101338.60
256899,7.341,-4.418,-0.010,-0.056615,-0.957873,1.959019,101338.80
256909,6.426,-6.805,1.861,-0.029478,-0.930203,1.913258,101338.80
256919,6.275,-7.036,3.207,-0.081092,-0.824313,1.799386,101338.09
256928,6.651,-6.833,2.961,-0.367367,-0.682240,1.599845,101337.70
256939,6.876,-6.629,2.299,-0.794651,-0.526864,1.372634,101338.16
256949,7.291,-6.550,1.834,-0.936725,-0.397561,1.177882,101338.16
256958,8.117,-5.823,1.952,-0.862229,-0.339561,1.002286,101338.16
256968,8.587,-4.859,1.986,-0.739844,-0.327323,0.894800,101338.22
256978,9.109,-4.681,2.241,-0.662688,-0.300717,0.884158,101338.63
256989,9.046,-4.717,2.342,-0.674927,-0.287415,0.901185,101337.69
256994,8.982,-4.608,1.808,-0.655239,-0.284754,0.907038,101335.56
257003,8.862,-4.692,1.542,-0.615330,-0.281029,0.920341,101335.56
257013,8.523,-4.923,1.658,-0.564248,-0.286883,0.910763,101338.00
257024,8.465,-5.376,1.806,-0.542964,-0.284222,0.870855,101340.50
257034,8.106,-5.986,1.986,-0.587661,-0.262938,0.822433,101337.00
257044,7.508,-6.236,2.103,-0.629165,-0.226222,0.754855,101337.38
257053,7.112,-6.377,2.144,-0.694615,-0.160240,0.673442,101337.38
257063,7.054,-6.388,2.053,-0.749954,-0.081488,0.592029,101336.80
257074,7.319,-6.091,1.746,-0.793055,-0.017103,0.536690,101337.05
257084,7.780,-5.544,1.564,-0.788798,0.001521,0.513277,101337.12
257093,8.112,-5.362,1.350,-0.728138,-0.016039,0.514873,101334.71
257103,8.109,-5.533,1.467,-0.661624,-0.039984,0.527644,101334.71
257114,8.019,-5.785,1.702,-0.636615,-0.049562,0.543607,101341.86
257124,8.204,-5.799,2.168,-0.639275,-0.049029,0.548928,101338.02
257133,8.191,-5.935,2.261,-0.643000,-0.072442,0.550525,101338.33
257143,8.078,-5.999,2.260,-0.665881,-0.091598,0.567020,101336.45
257154,8.255,-6.127,2.007,-0.696743,-0.111818,0.563295,101336.45
257164,8.229,-6.184,1.686,-0.721220,-0.144809,0.568616,101339.25
257174,8.248,-6.186,1.635,-0.754743,-0.161837,0.573938,101339.92
257183,8.371,-6.309,1.658,-0.799972,-0.176204,0.587772,101338.78
257193,8.463,-6.641,1.514,-0.846266,-0.196424,0.597350,101338.58
257204,8.465,-6.700,1.679,-0.915440,-0.209727,0.592561,101338.58
257214,8.535,-6.387,1.558,-1.000578,-0.244846,0.610121,101341.45
257223,8.610,-6.216,1.587,-1.058578,-0.311892,0.642048,101337.59
257229,8.824,-5.860,1.785,-1.084119,-0.394369,0.676103,101338.75
257239,8.874,-5.362,2.182,-1.078266,-0.509837,0.716543,101338.75
257249,8.830,-5.032,2.454,-0.997385,-0.674791,0.809130,101335.05
257259,8.868,-5.381,2.318,-0.887239,-0.814203,0.917148,101335.05
257269,9.358,-5.934,2.175,-0.823917,-0.928607,1.023038,101341.16
257278,9.754,-6.308,1.968,-0.818064,-1.031304,1.115625,101338.07
257289,9.979,-7.040,1.972,-0.864890,-1.112717,1.194910,101338.02
257299,10.277,-7.490,2.030,-0.971844,-1.180295,1.277919,101338.02
257308,10.538,-7.429,2.012,-1.097954,-1.240955,1.350818,101338.02
257318,10.943,-7.186,1.812,-1.222468,-1.286717,1.431698,101338.40
257329,11.303,-6.879,1.574,-1.311862,-1.350038,1.513643,101336.99
257339,11.600,-6.763,1.173,-1.388486,-1.404313,1.597717,101337.82
257349,12.131,-6.862,0.817,-1.499165,-1.452735,1.682322,101335.38
257358,13.465,-6.591,1.118,-1.627403,-1.509139,1.746175,101335.38
257369,14.782,-6.211,2.430,-1.719458,-1.554368,1.808432,101339.48
257379,15.846,-5.938,3.759,-1.791825,-1.550643,1.896762,101335.21
257389,16.915,-5.651,5.178,-1.883880,-1.479873,2.020744,101335.45
257399,18.494,-5.082,7.824,-1.988174,-1.363873,2.194212,101335.45
257409,19.133,-4.656,9.642,-1.931770,-1.317047,2.457074,101335.08
257419,17.734,-6.341,9.471,-1.660394,-1.368130,2.732175,101335.75
257429,15.583,-7.701,7.816,-1.296963,-1.511267,2.880101,101335.75
257438,14.728,-7.723,6.633,-1.079862,-1.542130,2.862010,101335.70
257448,13.768,-8.175,5.485,-1.371990,-1.393671,2.526780,101336.38
257459,12.370,-6.923,4.966,-1.797678,-1.154221,2.055331,101336.38
257464,9.822,-5.961,4.480,-1.815238,-1.066955,1.804175,101338.50
257474,9.723,-6.241,3.896,-1.724247,-0.972240,1.723295,101333.34
257483,7.645,-5.959,3.386,-1.589623,-0.787598,1.556744,101335.28
257494,-0.538,-5.325,2.233,-1.329422,-0.416185,1.274726,101337.16
257504,-4.027,-5.065,-0.163,-1.261312,-0.080956,0.869258,101337.16
257514,2.631,-3.058,1.112,-1.144780,0.077613,0.450488,101339.48
257524,5.468,1.451,3.302,-0.396101,0.148383,-0.231144,101334.26
257533,6.561,2.857,4.215,0.411641,0.156897,-0.770172,101336.35
257544,6.274,2.824,3.556,0.932045,0.127099,-1.092098,101333.85
257554,4.756,2.218,2.650,1.286430,0.103686,-1.394869,101333.85
257564,3.632,1.549,1.636,1.567384,0.218090,-1.707749,101338.98
257573,2.826,0.426,1.719,1.728081,0.449025,-1.979125,101334.81
257584,2.592,-0.459,2.315,1.864301,0.652291,-2.168556,101337.36
257594,2.830,-1.436,2.571,2.129292,0.752328,-2.328721,101331.73
257604,3.602,-2.247,2.424,2.451750,0.799686,-2.555932,101331.73
257613,4.369,-2.543,2.075,2.716741,0.837465,-2.885840,101335.59
257624,5.113,-2.858,1.802,2.850832,0.961979,-3.280133,101332.77
257634,5.897,-3.505,1.665,2.806135,1.193979,-3.654207,101335.59
257644,6.765,-3.578,1.678,2.664062,1.474933,-3.956977,101332.26
257653,6.990,-3.359,1.744,2.549126,1.746309,-4.145344,101332.26
257664,7.786,-3.321,2.024,2.432594,1.951703,-4.260812,101333.52
257674,8.838,-4.062,2.142,2.456539,2.084198,-4.338500,101332.74
257684,9.692,-5.472,1.893,2.564025,2.145391,-4.401821,101333.74
257694,10.527,-6.230,2.035,2.693860,2.207648,-4.511968,101332.59
257699,11.146,-7.127,2.163,2.798154,2.245960,-4.579013,101332.59
257709,11.632,-7.990,2.194,2.865200,2.303428,-4.640738,101332.59
257719,12.616,-9.291,2.010,2.900851,2.396547,-4.682243,101334.67
257729,12.941,-11.222,2.334,2.913089,2.454547,-4.672132,101334.42
257739,13.088,-13.379,2.713,2.819970,2.518400,-4.667344,101336.19
257750,13.208,-15.110,3.068,2.617769,2.637593,-4.648720,101331.75
257759,12.923,-16.627,3.069,2.308081,2.816914,-4.533784,101334.83
257769,12.137,-18.254,2.285,1.951035,3.052638,-4.271986,101337.22
257779,11.498,-19.895,0.174,1.460962,3.311776,-3.917069,101337.22
257788,11.457,-20.752,-3.191,0.712816,3.490565,-3.582904,101337.53
257799,11.229,-20.708,-5.896,-0.003936,3.479390,-3.309932,101336.75
257809,9.860,-20.072,-7.251,-0.464211,3.277721,-2.834225,101336.75
257819,8.185,-19.224,-7.930,-0.700468,2.881831,-2.231345,101340.17
257828,7.406,-18.032,-8.673,-0.779220,2.244896,-1.572061,101338.61
257839,6.989,-16.573,-9.168,-0.715367,1.429703,-0.795181,101338.88
257849,6.755,-15.067,-9.146,-0.548285,0.570346,0.016287,101338.88
257859,7.021,-14.276,-8.737,-0.278505,-0.232075,0.818176,101341.66
257869,9.787,-14.174,-6.746,0.061513,-0.928607,1.505662,101340.98
257880,13.440,-12.573,-4.597,0.538816,-1.491579,1.989882,101340.57
257889,8.289,-7.080,0.316,0.942687,-2.006661,2.490065,101337.85
257899,17.442,4.828,13.485,1.295476,-1.627267,2.185698,101337.85
257909,23.995,11.712,9.849,0.746871,-1.121763,1.413075,101337.85
257918,15.629,0.055,-2.986,-0.340230,-1.004699,1.756285,101340.24
257929,8.481,-18.205,-8.088,-0.507312,-1.331946,2.617239,101342.84
257935,8.182,-24.561,-3.648,-0.258285,-1.533084,2.955661,101341.70
257944,11.923,-16.964,-0.119,-0.113551,-1.572460,2.741220,101339.35
257954,10.093,-4.978,-1.200,-0.312028,-1.435708,2.226138,101339.35
257964,7.288,-4.244,-2.571,-0.136964,-1.300552,2.089386,101339.80
257974,6.878,-7.303,0.240,0.208908,-1.238295,2.026597,101340.94
257984,6.655,-7.234,1.397,0.259458,-1.146240,1.861111,101337.14
257994,6.882,-6.899,1.908,0.072688,-0.980222,1.699350,101339.27
258003,7.226,-6.771,2.233,-0.324266,-0.730130,1.547698,101339.27
258014,7.148,-6.755,1.999,-0.799972,-0.539103,1.359331,101340.47
258024,7.157,-6.648,1.747,-0.942046,-0.332112,1.164047,101338.08
258034,7.438,-6.326,2.004,-0.958541,-0.192699,0.959185,101336.63
258044,7.992,-5.336,1.887,-0.890963,-0.127782,0.795295,101335.27
258054,8.654,-4.893,2.202,-0.877661,-0.070314,0.747405,101335.27
258064,8.843,-4.807,2.603,-0.925550,-0.046369,0.753791,101340.83
258074,8.819,-4.602,2.523,-0.876064,-0.074571,0.769754,101339.84
258084,8.504,-4.659,2.804,-0.793587,-0.120864,0.795827,101337.97
258094,8.314,-4.748,2.755,-0.709514,-0.175140,0.804873,101336.66
258104,7.986,-5.360,2.710,-0.670670,-0.210259,0.795295,101336.66
258114,7.505,-5.771,2.547,-0.675991,-0.213984,0.753791,101338.30
258124,7.186,-5.965,2.089,-0.696743,-0.193231,0.686745,101339.66
258134,7.163,-6.044,2.085,-0.722817,-0.160773,0.606396,101337.99
258144,7.264,-5.855,2.125,-0.736119,-0.122993,0.536158,101335.70
258154,7.587,-5.534,1.967,-0.725477,-0.092130,0.492525,101335.70
258164,7.853,-5.589,1.920,-0.681844,-0.095323,0.474965,101339.41
258174,8.043,-5.631,1.933,-0.643000,-0.115543,0.468048,101335.97
258184,8.286,-5.497,2.028,-0.613202,-0.130974,0.474965,101338.16
258194,8.129,-5.688,2.159,-0.595642,-0.139488,0.495717,101336.59
258204,8.071,-5.718,2.478,-0.595642,-0.139488,0.512213,101336.59
258214,8.088,-5.841,2.497,-0.579679,-0.160773,0.518598,101339.16
258224,8.054,-5.872,2.545,-0.588193,-0.192699,0.529772,101337.18
258234,8.222,-5.860,2.326,-0.608945,-0.217176,0.549461,101337.85
258244,8.690,-5.849,2.266,-0.639807,-0.242185,0.561699,101334.79
258254,8.847,-5.894,1.859,-0.661092,-0.272516,0.574470,101334.79
258265,9.015,-6.141,1.498,-0.714835,-0.285818,0.618103,101339.64
258274,9.341,-6.364,1.141,-0.791459,-0.296993,0.622892,101337.92
258284,9.311,-6.279,1.324,-0.862229,-0.317213,0.660139,101339.64
258294,9.191,-6.310,1.469,-0.939385,-0.347011,0.705901,101338.95
258304,9.000,-6.335,1.798,-0.995257,-0.401286,0.745809,101338.95
258314,8.811,-6.275,2.120,-1.041550,-0.485892,0.789974,101341.69
258324,8.893,-6.199,2.304,-1.076137,-0.580607,0.836268,101337.31
258334,8.975,-6.125,2.430,-1.087312,-0.676919,0.890011,101340.59
258344,9.206,-6.281,2.323,-1.086780,-0.767910,0.962378,101338.05
258354,9.712,-6.230,2.194,-1.096890,-0.865818,1.036873,101338.05
258364,9.918,-6.492,1.913,-1.118174,-0.974368,1.116689,101338.52
258374,10.119,-6.922,1.898,-1.188413,-1.080790,1.209809,101338.26
258384,10.349,-6.900,2.098,-1.308669,-1.168588,1.318359,101336.38
258394,10.631,-6.532,2.328,-1.429458,-1.250533,1.426909,101336.18
258405,10.939,-6.253,2.114,-1.513709,-1.330527,1.539185,101336.18
258414,11.149,-6.369,1.500,-1.557165,-1.393139,1.634432,101337.83
258424,11.539,-6.460,0.643,-1.630596,-1.453267,1.717441,101337.25
258435,12.462,-6.365,0.377,-1.713073,-1.513928,1.785019,101336.52
258444,14.025,-6.140,1.158,-1.835990,-1.562882,1.823331,101335.95
258454,15.048,-5.827,2.347,-1.921660,-1.564478,1.874414,101335.95
258464,16.340,-5.906,3.941,-1.997219,-1.492643,1.948909,101339.87
258475,18.360,-4.890,6.658,-2.116412,-1.370258,2.085661,101334.29
258484,19.425,-4.383,9.262,-2.033403,-1.325029,2.344267,101334.45
258494,18.271,-5.828,9.488,-1.684339,-1.431983,2.652358,101336.32
258504,15.935,-7.647,7.701,-1.234706,-1.674093,2.833276,101336.32
258514,15.020,-7.945,7.416,-0.927679,-1.840643,2.816248,101335.67
258525,13.674,-8.866,6.788,-1.179189,-1.719677,2.520395,101334.42
258534,13.200,-7.719,6.113,-1.414027,-1.467634,2.227735,101334.69
258544,10.457,-6.212,5.305,-1.310266,-1.320240,1.954230,101333.91
258554,10.068,-5.792,4.462,-1.184156,-1.187744,1.730744,101333.91
258565,5.327,-5.830,3.040,-1.037293,-0.952020,1.404029,101336.33
258574,-2.831,-6.150,0.894,-0.853183,-0.501855,1.159790,101336.33
258584,-4.616,-6.709,-1.699,-1.034101,-0.074039,0.804873,101337.27
258594,1.879,-3.011,1.427,-1.001110,0.260126,0.281809,101337.11
258605,5.355,1.363,3.882,-0.232211,0.369741,-0.446117,101337.11
258614,6.929,2.428,4.490,0.388229,0.363888,-0.976098,101336.84
258624,6.088,2.206,3.051,0.722926,0.309080,-1.303346,101335.16
258634,4.417,1.858,1.739,0.952797,0.331429,-1.602391,101335.54
258644,3.274,1.283,0.765,1.153934,0.512878,-1.893988,101333.60
258654,2.655,0.667,1.247,1.270467,0.774144,-2.090868,101333.60
258664,2.746,0.212,2.097,1.424778,0.962511,-2.204207,101337.27
258674,3.309,-0.628,2.414,1.724356,1.031153,-2.350006,101334.83
258684,4.053,-1.351,2.201,2.058521,1.050309,-2.591583,101333.78
258695,4.666,-1.880,1.703,2.327237,1.099263,-2.912978,101333.63
258704,5.007,-2.453,1.563,2.478888,1.226438,-3.245546,101333.63
258714,5.614,-3.108,1.419,2.494319,1.429703,-3.546721,101333.55
258724,6.178,-3.370,1.470,2.455475,1.664896,-3.808518,101331.88
258735,6.694,-3.432,1.665,2.409714,1.920841,-4.005931,101332.66
258744,7.458,-3.681,2.008,2.373530,2.134217,-4.141087,101331.26
258754,8.708,-3.923,2.227,2.462924,2.263520,-4.237399,101331.26
258760,9.137,-5.017,2.117,2.610851,2.274694,-4.283160,101334.91
258769,9.814,-5.991,2.007,2.673640,2.339611,-4.355527,101334.91
258780,10.677,-6.558,2.293,2.748135,2.446565,-4.475252,101334.39
258790,11.688,-7.337,2.374,2.828484,2.535428,-4.546022,101334.34
258799,12.920,-8.607,2.290,2.923732,2.616308,-4.566243,101336.00
258809,13.662,-10.561,2.441,2.994502,2.657281,-4.550812,101334.20
258820,14.116,-12.650,2.832,2.962044,2.675372,-4.574224,101336.17
258830,14.594,-14.756,3.262,2.825823,2.719005,-4.572096,101338.63
258839,14.415,-16.787,3.387,2.599145,2.819042,-4.475784,101338.63
258849,13.421,-18.515,2.717,2.281475,2.972822,-4.237399,101336.75
258860,12.189,-19.551,0.651,1.832374,3.151611,-3.919197,101336.75
258870,11.178,-20.103,-1.906,1.266210,3.284106,-3.574922,101339.70
258879,10.779,-20.824,-4.632,0.635128,3.311244,-3.196592,101339.07
258889,9.544,-21.292,-7.038,0.046614,3.218657,-2.705987,101338.13
258899,7.700,-20.696,-8.598,-0.415789,2.880767,-2.136097,101338.96
258910,6.483,-19.434,-9.404,-0.757404,2.290657,-1.501823,101338.96
258920,6.460,-17.728,-9.639,-1.018670,1.516437,-0.733456,101341.80
258929,6.985,-15.838,-9.540,-1.122963,0.701245,0.079075,101341.53
258939,7.722,-14.436,-9.261,-0.983018,-0.100644,0.878304,101341.17
258950,11.453,-13.917,-6.819,-0.745697,-0.813671,1.591331,101341.17
258959,13.609,-10.607,-5.882,-0.222101,-1.506478,2.111203,101341.17
258969,12.002,-1.522,3.871,0.176981,-1.900239,2.385239,101342.80
258979,22.830,10.655,12.865,0.571274,-1.489983,1.695093,101339.78
258990,21.292,12.246,4.455,-0.184854,-1.056313,1.292286,101334.52
258995,15.542,3.597,-4.270,-0.808486,-0.975433,1.706267,101339.09
259004,9.668,-9.496,-5.997,-0.681312,-1.237231,2.343735,101339.09
259014,7.330,-24.091,-2.014,0.157825,-1.606515,2.962046,101341.27
259024,11.088,-18.501,1.194,0.270100,-1.577249,2.784322,101341.07
259035,9.325,-6.196,-1.201,-0.002340,-1.525102,2.187826,101337.41
259045,7.897,-4.090,-2.609,0.255201,-1.413359,2.008505,101340.45
259054,6.511,-6.195,0.766,0.383972,-1.282460,1.963808,101340.45
259064,5.742,-6.946,3.097,0.416963,-1.145176,1.858450,101339.27
259075,5.803,-7.956,2.988,0.316926,-1.025983,1.630708,101341.77
259085,6.580,-8.360,1.855,-0.117276,-0.862093,1.320487,101338.17
259094,7.666,-7.095,1.568,-0.574890,-0.687029,1.084763,101340.36
259104,8.067,-5.690,1.769,-0.789862,-0.477910,0.946414,101340.36
259115,8.149,-5.640,2.311,-0.884578,-0.309231,0.861277,101339.64
259125,8.481,-4.896,2.777,-0.910119,-0.199617,0.793699,101337.81
259134,8.323,-4.664,2.089,-0.844670,-0.174075,0.737295,101337.08
259144,8.461,-4.740,1.157,-0.765917,-0.122461,0.695791,101336.41
259154,8.794,-4.619,1.643,-0.735587,-0.048497,0.695791,101336.41
259165,8.708,-4.429,2.208,-0.721220,-0.019763,0.704304,101339.43
259175,8.540,-4.780,2.347,-0.609477,-0.041580,0.703240,101337.98
259184,7.943,-5.716,2.335,-0.562652,-0.067653,0.700048,101337.55
259194,7.479,-6.139,2.341,-0.590853,-0.043176,0.633002,101335.57
259205,7.291,-6.212,2.571,-0.662688,0.008970,0.539883,101335.57
259215,7.250,-6.121,2.650,-0.732927,0.053668,0.455277,101338.39
259224,7.331,-5.961,2.498,-0.801569,0.095172,0.380782,101337.88
259230,7.464,-5.728,2.335,-0.844670,0.122842,0.336617,101336.47
259239,7.750,-5.580,2.330,-0.862229,0.141466,0.310543,101336.47
259250,8.082,-5.477,2.375,-0.872872,0.146787,0.297773,101337.05
259260,8.401,-5.074,2.261,-0.845202,0.127099,0.304158,101337.05
259270,8.264,-5.308,2.153,-0.810083,0.095704,0.327039,101338.13
259279,8.062,-5.601,2.194,-0.798908,0.072824,0.342470,101337.87
259290,8.010,-5.641,2.534,-0.814339,0.055264,0.356305,101336.52
259300,7.891,-5.578,2.886,-0.835624,0.035044,0.374396,101336.52
259309,7.946,-5.558,2.873,-0.849991,0.006310,0.392488,101336.52
259319,7.879,-5.648,2.765,-0.869679,-0.013910,0.416965,101341.10
259330,7.955,-5.787,2.569,-0.897881,-0.037323,0.436653,101339.96
259340,8.358,-5.931,2.321,-0.921826,-0.070314,0.460066,101337.98
259350,8.739,-6.016,2.467,-0.977165,-0.082020,0.464323,101337.41
259359,9.082,-5.695,2.673,-1.003770,-0.124589,0.472837,101337.41
259369,9.334,-5.728,1.909,-1.012284,-0.191103,0.521791,101340.91
259380,9.378,-5.670,1.673,-1.044211,-0.277305,0.562231,101339.14
259390,9.366,-5.453,1.587,-1.061238,-0.377341,0.642048,101338.63
259399,9.397,-5.344,1.652,-1.067092,-0.481103,0.721332,101338.63
259409,9.565,-5.375,1.722,-1.080394,-0.603488,0.799020,101339.66
259420,9.884,-5.405,2.089,-1.090504,-0.745029,0.875112,101342.16
259430,9.980,-5.631,2.502,-1.088908,-0.890827,0.955460,101342.16
259439,10.010,-5.968,2.815,-1.088908,-1.019598,1.046983,101337.63
259449,10.075,-6.404,3.068,-1.112321,-1.142515,1.139038,101336.12
259460,10.212,-6.623,3.328,-1.184688,-1.247341,1.231625,101336.12
259470,10.458,-6.509,3.477,-1.259183,-1.337799,1.330065,101339.31
259480,10.755,-6.611,3.296,-1.320908,-1.426130,1.418928,101338.38
259489,10.609,-7.344,2.685,-1.390082,-1.478808,1.504597,101335.83
259500,10.667,-7.659,1.434,-1.511935,-1.494772,1.583882,101337.39
259510,11.269,-7.068,0.635,-1.667843,-1.494772,1.649331,101337.66
259520,12.851,-6.297,0.147,-1.800871,-1.515524,1.706799,101338.23
259530,14.748,-5.989,0.749,-1.857807,-1.600662,1.748304,101337.34
259539,15.678,-5.557,2.324,-1.857807,-1.650680,1.797790,101336.41
259550,16.041,-5.533,3.153,-1.860999,-1.613964,1.895698,101336.41
259560,16.764,-4.765,4.800,-1.924320,-1.546919,2.025533,101336.41
259569,17.486,-4.038,8.071,-1.937623,-1.460717,2.236780,101337.24
259579,17.558,-4.801,9.432,-1.779587,-1.504882,2.497514,101336.66
259590,16.144,-6.764,8.355,-1.457128,-1.675689,2.689074,101335.48
259600,15.074,-7.925,7.381,-1.128816,-1.806588,2.806670,101335.41
259610,14.722,-8.381,6.715,-1.068688,-1.771469,2.684285,101335.41
259619,14.044,-8.191,6.264,-1.474156,-1.503818,2.304358,101338.63
259630,11.244,-6.121,5.521,-1.724247,-1.335671,1.939863,101337.21
259640,11.068,-5.530,5.321,-1.684339,-1.207432,1.745643,101337.54
259650,8.948,-4.735,4.939,-1.576321,-1.080790,1.575368,101337.54
259659,2.511,-4.483,3.838,-1.259183,-0.726405,1.421588,101337.54
259670,-2.811,-5.785,1.009,-1.078266,-0.284222,1.178414,101337.96
259680,-0.837,-7.565,-0.907,-1.407642,0.115925,0.886286,101338.95
259690,1.433,-3.243,1.887,-1.303880,0.399539,0.138140,101335.62
259700,4.623,1.236,3.199,-0.465098,0.435013,-0.718380,101334.45
259709,6.232,2.563,3.256,0.162614,0.332493,-1.184153,101334.45
259720,6.097,2.964,2.813,0.636724,0.209576,-1.488520,101336.22
259730,5.169,3.221,2.286,1.046448,0.134548,-1.771602,101337.47
259740,4.368,2.582,1.611,1.509384,0.173392,-2.078630,101333.36
259750,3.150,1.202,1.305,1.918576,0.320255,-2.294666,101333.38
259760,2.209,-0.070,1.822,2.221347,0.501704,-2.400024,101331.44
259770,2.364,-1.401,2.281,2.541145,0.618236,-2.489950,101333.00
259780,2.990,-2.579,2.595,2.860410,0.700181,-2.692684,101333.00
259789,3.879,-3.329,2.789,3.036539,0.822034,-3.010886,101332.44
259800,4.805,-3.799,2.759,3.052502,1.017318,-3.368996,101332.69
259810,5.516,-4.133,2.603,2.968429,1.272199,-3.706353,101332.69
259820,6.047,-4.334,2.199,2.822631,1.551025,-3.999014,101331.49
259829,6.590,-4.633,2.006,2.663530,1.847410,-4.208665,101333.41
259840,7.526,-5.050,2.077,2.499640,2.103887,-4.342757,101336.85
259850,8.523,-5.780,1.934,2.400136,2.287997,-4.399160,101332.12
259860,9.560,-6.231,1.970,2.362888,2.441244,-4.433215,101332.12
259870,10.421,-6.743,1.820,2.416099,2.559372,-4.473124,101336.52
259879,11.406,-7.080,1.937,2.530503,2.668987,-4.472059,101335.45
259890,12.353,-7.854,2.290,2.765695,2.721666,-4.420444,101330.61
259900,13.131,-9.523,2.782,3.063144,2.726987,-4.347013,101330.61
259910,13.811,-12.017,2.842,3.260025,2.740290,-4.274647,101330.61
259919,13.976,-14.504,2.409,3.213731,2.761042,-4.273050,101336.55
259930,13.465,-15.825,2.642,2.949805,2.790840,-4.349674,101336.45
259940,12.762,-17.968,2.195,2.651824,2.941427,-4.173546,101336.13
259950,12.514,-19.728,0.622,2.216558,3.121813,-3.852151,101338.05
259960,12.354,-19.985,-2.093,1.650393,3.205354,-3.528629,101338.05
259970,11.785,-19.933,-4.172,1.090081,3.147886,-3.175840,101339.57
259980,10.952,-20.459,-5.760,0.523384,3.003152,-2.759198,101341.54
259990,8.541,-20.454,-7.012,0.002449,2.717409,-2.306905,101337.43
260000,6.409,-20.219,-8.198,-0.443459,2.324180,-1.748722,101337.43
260011,5.496,-19.056,-9.277,-0.925018,1.798456,-1.052722,101340.98
260020,5.698,-17.177,-9.613,-1.313990,1.176951,-0.270521,101340.98
260030,6.876,-15.274,-9.037,-1.448082,0.478291,0.524451,101339.63
260040,8.019,-14.381,-8.351,-1.307605,-0.276240,1.256634,101341.92
260049,12.043,-13.160,-5.505,-1.082523,-0.922222,1.838230,101339.58
260060,15.565,-6.168,-1.207,-0.521679,-1.511799,2.118652,101339.58
260070,13.387,5.006,11.403,0.068963,-1.589487,2.104817,101340.88
260080,23.601,16.868,15.710,0.509018,-1.035561,1.365717,101337.45
260090,19.824,11.697,2.910,-0.181129,-0.925946,1.230029,101337.23
260100,12.451,-2.950,-6.582,-0.226890,-1.363873,2.095239,101335.45
260110,8.947,-15.716,-4.231,0.439843,-1.824680,2.781129,101341.13
260120,10.008,-20.721,-0.969,0.917678,-1.812441,2.844982,101340.08
260130,9.748,-14.336,-1.379,0.690467,-1.650680,2.488468,101340.08
260140,8.417,-7.253,-2.926,0.641513,-1.585763,2.128762,101338.83
260150,8.528,-5.967,-0.259,0.628210,-1.386753,2.004781,101336.86
260160,6.881,-5.864,2.581,0.416430,-1.230313,1.907405,101336.86
260170,5.938,-7.228,2.623,0.195605,-1.093561,1.752561,101339.87
260179,6.129,-8.701,2.466,-0.278505,-0.916901,1.543442,101338.04
260190,6.700,-7.184,2.351,-0.914908,-0.667341,1.310377,101337.73
260200,7.076,-5.776,2.350,-1.265568,-0.384259,1.111368,101337.26
260210,7.491,-6.034,2.181,-1.315587,-0.225690,0.935240,101337.26
260220,8.127,-5.069,1.169,-1.123495,-0.169286,0.781460,101340.60
260230,8.703,-4.139,0.633,-0.869679,-0.138956,0.722928,101338.16
260240,8.935,-4.469,1.351,-0.707385,-0.100644,0.745277,101336.65
260250,8.841,-4.603,2.401,-0.627037,-0.103837,0.778268,101336.65
260260,8.714,-4.233,2.833,-0.536578,-0.144277,0.804873,101336.65
260270,8.380,-4.509,3.046,-0.453037,-0.216112,0.828818,101337.10
260280,8.006,-5.118,2.797,-0.450908,-0.256020,0.822965,101338.45
260290,7.684,-5.736,2.697,-0.503765,-0.253182,0.765852,101337.85
260300,7.280,-6.205,2.834,-0.578615,-0.250167,0.677167,101337.85
260311,6.984,-6.287,2.588,-0.670670,-0.213984,0.562763,101337.85
260320,7.235,-5.928,2.065,-0.748890,-0.146938,0.460598,101340.45
260330,7.743,-5.312,1.688,-0.760596,-0.095855,0.417497,101337.64
260340,8.224,-4.995,1.656,-0.715899,-0.080424,0.427075,101337.44
260350,8.517,-4.923,1.585,-0.643000,-0.096919,0.462195,101337.44
260360,8.592,-5.142,1.739,-0.572230,-0.128846,0.504763,101339.11
260370,8.356,-5.442,2.456,-0.523275,-0.176736,0.534029,101339.11
260380,8.126,-5.575,2.831,-0.500395,-0.221965,0.547864,101338.80
260390,7.822,-5.864,2.828,-0.533386,-0.226222,0.555314,101338.11
260400,7.885,-5.843,2.719,-0.593514,-0.222497,0.547864,101338.33
260410,8.027,-5.647,2.455,-0.657899,-0.229947,0.557974,101338.33
260420,8.238,-5.633,2.105,-0.703661,-0.242717,0.583516,101339.77
260430,8.356,-5.613,1.854,-0.744101,-0.262406,0.618635,101338.37
260441,8.612,-5.564,2.095,-0.760064,-0.283690,0.653754,101337.59
260450,8.674,-5.879,2.165,-0.763257,-0.308699,0.685149,101336.16
260460,8.751,-6.074,2.377,-0.781349,-0.328919,0.706965,101340.54
260470,8.831,-6.196,2.642,-0.796248,-0.356057,0.725589,101337.57
260481,8.514,-6.613,2.050,-0.847862,-0.366699,0.741020,101338.20
260490,8.674,-6.673,1.853,-0.926615,-0.354461,0.744213,101338.20
260500,8.884,-6.423,1.691,-1.026119,-0.385323,0.770818,101336.79
260510,8.934,-6.359,1.826,-1.077202,-0.430020,0.812323,101336.79
260520,9.129,-6.374,1.814,-1.124559,-0.489616,0.864470,101338.30
260526,9.327,-6.157,1.811,-1.139459,-0.552937,0.904910,101337.78
260535,9.609,-6.109,1.755,-1.155422,-0.627965,0.962378,101334.19
260545,10.041,-6.120,1.664,-1.184156,-0.743965,1.044855,101337.67
260555,10.417,-6.466,1.704,-1.219275,-0.876992,1.129460,101337.67
260566,10.664,-6.674,1.898,-1.278339,-1.014277,1.225240,101339.66
260575,10.834,-6.913,2.260,-1.362945,-1.131341,1.327405,101339.35
260585,10.951,-7.055,2.357,-1.433715,-1.234570,1.438616,101339.09
260595,11.188,-6.991,2.054,-1.498633,-1.321304,1.538653,101336.54
260605,11.454,-7.225,1.328,-1.567807,-1.397396,1.628047,101336.54
260615,12.092,-6.840,0.795,-1.655073,-1.450607,1.703606,101341.15
260625,13.118,-6.645,0.739,-1.781183,-1.490515,1.760542,101340.63
260635,14.182,-6.426,1.318,-1.866853,-1.534148,1.811093,101337.24
260645,15.089,-5.721,3.014,-1.963164,-1.576185,1.887184,101338.13
260655,15.775,-5.625,4.028,-2.062669,-1.505414,1.971258,101338.13
260665,17.280,-5.623,5.888,-2.212192,-1.371322,2.076083,101332.79
260675,18.726,-4.781,8.891,-2.294137,-1.252662,2.257533,101337.84
260685,18.208,-5.697,10.499,-2.177605,-1.212754,2.564028,101334.04
260696,16.668,-7.791,10.252,-1.838119,-1.318643,2.805074,101334.76
260705,15.714,-7.936,8.807,-1.449146,-1.499561,2.876376,101334.76
260715,15.214,-7.874,7.145,-1.392211,-1.495304,2.653955,101335.77
260725,13.794,-6.596,6.126,-1.720522,-1.328753,2.183569,101338.42
260736,9.796,-5.479,5.491,-1.776926,-1.171249,1.792469,101337.17
260745,8.651,-5.731,4.699,-1.561422,-0.999378,1.617405,101337.42
260755,5.346,-6.609,3.246,-1.412431,-0.706717,1.488634,101337.42
260761,0.051,-7.069,2.275,-1.286321,-0.373084,1.344432,101338.59
260770,-4.705,-6.409,0.461,-1.296431,-0.075635,1.053900,101338.59
260781,-0.754,-5.567,0.246,-1.346981,0.172860,0.621827,101335.66
260791,4.412,-0.209,2.868,-0.852651,0.352181,-0.029475,101336.18
260800,6.911,2.328,4.320,-0.082689,0.416567,-0.648851,101334.57
260810,6.731,2.961,4.028,0.414834,0.379851,-1.055915,101335.36
260820,4.732,2.872,2.613,0.769219,0.331429,-1.354428,101334.05
260831,3.493,2.673,1.204,1.159256,0.408585,-1.636446,101332.13
260840,2.683,1.793,1.017,1.470540,0.604933,-1.905162,101332.13
260850,2.467,0.784,1.698,1.649329,0.831612,-2.116941,101333.58
260860,2.728,-0.103,2.139,1.865365,0.989649,-2.271785,101333.58
260871,3.148,-1.190,2.332,2.202723,1.065740,-2.442060,101336.80
260880,3.663,-2.177,2.168,2.565622,1.119483,-2.680978,101335.55
260890,4.316,-2.748,2.018,2.782722,1.241869,-2.994390,101334.41
260900,5.259,-3.140,1.713,2.838062,1.440878,-3.328555,101333.41
260911,6.139,-3.557,1.471,2.835401,1.672346,-3.639840,101333.41
260921,6.838,-4.011,1.449,2.775273,1.941061,-3.888335,101332.78
260930,7.506,-4.236,1.474,2.666723,2.193813,-4.062335,101332.67
260940,8.672,-4.334,1.531,2.617769,2.351850,-4.156518,101333.50
260951,9.655,-5.392,1.349,2.688007,2.415171,-4.188977,101333.50
260960,10.797,-5.910,1.130,2.739622,2.482217,-4.249105,101333.50
260970,11.960,-6.017,1.239,2.872649,2.493923,-4.304445,101337.55
260980,12.972,-6.923,1.315,3.111034,2.458804,-4.287417,101335.09
260990,13.911,-8.272,1.601,3.423383,2.374730,-4.262940,101332.91
260996,14.326,-10.019,1.650,3.670814,2.260859,-4.235271,101335.52
261005,14.281,-11.891,1.519,3.783621,2.154437,-4.275711,101335.52
261015,14.220,-13.293,1.922,3.625052,2.090052,-4.361381,101334.62
261025,14.023,-14.596,2.899,3.382410,2.164015,-4.331050,101334.10
261036,13.266,-16.505,3.422,3.139768,2.349189,-4.158114,101332.74
261046,12.532,-18.778,2.297,2.792833,2.564694,-3.875564,101332.49
261055,11.407,-20.369,-0.101,2.235182,2.734969,-3.563748,101332.49
261065,10.669,-21.023,-3.156,1.514705,2.836070,-3.262574,101339.98
261075,10.429,-21.165,-6.183,0.761238,2.861611,-2.906060,101340.55
261086,8.966,-20.742,-7.802,0.153568,2.721134,-2.423969,101338.26
261095,6.890,-20.501,-8.615,-0.277973,2.347061,-1.846098,101339.62
261105,5.801,-20.006,-9.501,-0.693018,1.768125,-1.199584,101339.62
261115,5.805,-18.693,-9.864,-1.063899,1.092346,-0.447713,101340.82
261126,6.120,-16.808,-9.292,-1.250669,0.410181,0.316396,101341.07
261135,7.709,-15.443,-8.001,-1.209165,-0.253892,1.039533,101342.74
261145,13.484,-14.353,-4.461,-0.942046,-0.777488,1.626983,101342.48
261155,9.719,-9.921,-3.523,-0.440798,-1.507542,2.242102,101342.48
261166,14.581,1.902,9.469,-0.047037,-1.552240,2.215496,101338.02
261175,23.059,13.037,12.943,0.214761,-1.203176,1.489166,101335.20
261185,19.526,9.104,1.820,-0.327459,-1.038221,1.463093,101335.72
261195,10.320,-8.467,-4.251,-0.342890,-1.329818,2.336285,101339.73
261206,7.460,-25.598,-5.639,0.229660,-1.732625,3.053037,101339.73
261216,10.667,-20.085,-1.956,-0.126854,-1.677285,2.873184,101339.42
261225,10.738,-4.398,0.382,-0.622248,-1.390478,2.277221,101337.81
261235,8.193,-1.237,-0.304,-0.234340,-1.242020,2.173991,101334.38
261245,5.062,-5.212,1.441,0.090247,-1.207432,2.166010,101337.81
