399360 9.648 -0.251 1.159 0.016 -0.039 0.132
399370 9.713 -0.359 1.098 0.031 -0.033 0.124
399380 9.703 -0.440 0.900 0.063 -0.034 0.123
399390 9.682 -0.291 0.922 0.086 -0.029 0.122
399400 9.633 -0.175 0.972 0.098 -0.014 0.117
399411 9.652 -0.249 1.029 0.097 0.003 0.117
399420 9.677 -0.199 1.108 0.094 0.014 0.118
399430 9.686 -0.130 1.257 0.094 0.024 0.118
399440 9.676 -0.044 1.282 0.090 0.031 0.120
399450 9.647 -0.140 1.197 0.084 0.040 0.126
399460 9.593 -0.238 1.250 0.076 0.049 0.127
399470 9.583 -0.226 1.325 0.070 0.057 0.120
399480 9.613 -0.329 1.329 0.072 0.062 0.114
399491 9.662 -0.393 1.319 0.069 0.062 0.110
399500 9.690 -0.332 1.213 0.066 0.065 0.106
399510 9.670 -0.364 1.240 0.060 0.072 0.102
399520 9.695 -0.304 1.247 0.049 0.079 0.101
399531 9.690 -0.290 1.319 0.041 0.091 0.099
399540 9.686 -0.321 1.396 0.039 0.102 0.097
399550 9.642 -0.371 1.365 0.037 0.110 0.093
399560 9.666 -0.486 1.240 0.035 0.117 0.087
399570 9.645 -0.531 1.201 0.032 0.125 0.075
399581 9.647 -0.455 1.233 0.027 0.132 0.059
399590 9.654 -0.462 1.292 0.036 0.139 0.047
399600 9.692 -0.494 1.383 0.044 0.143 0.039
399610 9.712 -0.479 1.409 0.049 0.149 0.032
399621 9.719 -0.384 1.374 0.058 0.151 0.031
399626 9.734 -0.345 1.345 0.061 0.150 0.035
399635 9.751 -0.393 1.294 0.069 0.149 0.040
399645 9.729 -0.330 1.282 0.067 0.149 0.051
399655 9.696 -0.314 1.453 0.058 0.151 0.065
399666 9.685 -0.308 1.587 0.050 0.149 0.086
399675 9.691 -0.254 1.708 0.049 0.141 0.108
399685 9.661 -0.203 1.549 0.050 0.132 0.136
399695 9.612 -0.308 1.435 0.057 0.124 0.163
399706 9.622 -0.334 1.533 0.069 0.120 0.184
399716 9.703 -0.337 1.598 0.086 0.114 0.203
399725 9.700 -0.363 1.638 0.119 0.101 0.226
399735 9.701 -0.397 1.623 0.156 0.091 0.251
399746 9.659 -0.388 1.506 0.172 0.082 0.276
399756 9.542 -0.389 1.464 0.180 0.078 0.293
399765 9.282 -0.280 1.502 0.177 0.081 0.301
399775 9.703 -0.683 1.523 0.191 0.087 0.307
399785 9.757 -0.831 1.561 0.181 0.085 0.327
399796 9.623 -0.804 1.574 0.169 0.091 0.332
399806 9.625 -0.829 1.682 0.171 0.094 0.330
399815 9.775 -0.874 1.823 0.183 0.086 0.319
399825 9.818 -0.898 1.958 0.192 0.077 0.310
399836 9.785 -0.934 1.909 0.182 0.064 0.307
399846 9.747 -0.970 1.891 0.155 0.048 0.305
399855 9.688 -0.886 1.903 0.127 0.034 0.305
399865 9.633 -0.839 1.875 0.112 0.025 0.310
399876 9.634 -0.870 1.806 0.118 0.015 0.317
399886 9.627 -0.970 1.847 0.121 0.009 0.320
399896 9.621 -1.129 1.865 0.115 0.009 0.313
399905 9.680 -1.339 2.024 0.099 0.003 0.299
399916 9.688 -1.368 1.986 0.063 -0.002 0.277
399926 9.628 -1.367 1.853 0.009 -0.005 0.256
399936 9.611 -1.343 1.770 -0.048 -0.005 0.236
399945 9.617 -1.184 1.683 -0.089 -0.006 0.225
399955 9.709 -1.169 1.785 -0.108 -0.008 0.221
399966 9.737 -1.141 1.852 -0.111 -0.013 0.226
399976 9.698 -1.122 1.956 -0.112 -0.028 0.240
399986 9.689 -1.092 2.036 -0.122 -0.050 0.260
399995 9.611 -0.917 2.092 -0.142 -0.076 0.289
400006 9.562 -0.752 2.021 -0.164 -0.104 0.331
400016 9.649 -0.304 2.168 -0.178 -0.122 0.382
400026 9.727 -1.061 2.182 -0.203 -0.151 0.434
400035 9.612 -1.384 1.397 -0.190 -0.173 0.451
400046 9.564 -1.453 1.525 -0.177 -0.173 0.459
400056 9.567 -1.742 1.777 -0.192 -0.176 0.459
400066 9.579 -1.736 1.646 -0.229 -0.175 0.447
400076 9.654 -1.645 1.754 -0.285 -0.171 0.434
400086 9.658 -1.878 1.521 -0.328 -0.162 0.424
400096 9.630 -1.921 1.326 -0.360 -0.154 0.415
400106 9.645 -1.750 1.342 -0.401 -0.141 0.416
400116 9.631 -1.803 1.326 -0.428 -0.137 0.430
400125 9.610 -1.579 1.333 -0.429 -0.137 0.458
400136 9.650 -1.423 1.519 -0.416 -0.149 0.499
400146 9.654 -1.480 1.907 -0.396 -0.171 0.547
400156 9.595 -1.792 1.776 -0.373 -0.198 0.590
400166 9.558 -2.085 1.532 -0.362 -0.207 0.604
400176 9.465 -2.268 1.604 -0.346 -0.210 0.596
400186 9.502 -2.303 1.641 -0.318 -0.196 0.580
400196 9.689 -2.514 1.509 -0.295 -0.182 0.554
400206 9.744 -2.764 1.487 -0.285 -0.148 0.505
400216 9.908 -2.752 0.978 -0.330 -0.104 0.439
400226 9.975 -2.481 1.019 -0.396 -0.088 0.407
400236 10.062 -2.150 1.154 -0.430 -0.106 0.406
400246 10.063 -2.051 1.259 -0.426 -0.137 0.439
400257 10.012 -2.071 1.300 -0.418 -0.175 0.496
400266 10.086 -2.128 1.475 -0.418 -0.220 0.571
400276 10.320 -2.041 1.628 -0.446 -0.275 0.640
400286 10.426 -2.177 2.082 -0.484 -0.336 0.707
400296 10.763 -1.411 2.317 -0.529 -0.408 0.761
400306 11.152 -1.579 1.925 -0.494 -0.491 0.813
400316 11.377 -2.296 1.171 -0.475 -0.546 0.897
400326 11.336 -2.307 0.861 -0.504 -0.595 0.972
400336 11.447 -2.511 0.832 -0.529 -0.640 1.043
400347 11.613 -2.607 0.744 -0.563 -0.689 1.109
400356 11.915 -2.975 0.664 -0.623 -0.745 1.175
400366 12.243 -2.537 0.455 -0.679 -0.801 1.249
400376 12.701 -1.954 0.343 -0.681 -0.856 1.307
400381 13.139 -2.265 0.275 -0.645 -0.912 1.365
400392 13.391 -2.088 0.431 -0.633 -0.951 1.429
400401 13.535 -1.520 0.153 -0.671 -0.975 1.526
400411 13.802 -1.150 -0.668 -0.751 -1.000 1.618
400421 14.289 -0.844 -1.279 -0.811 -1.065 1.707
400432 14.706 -0.183 -0.844 -0.860 -1.145 1.788
400441 14.670 0.523 -0.070 -0.902 -1.189 1.881
400451 14.747 1.154 0.499 -0.896 -1.177 1.955
400461 14.915 0.842 1.101 -0.898 -1.167 2.028
400472 15.306 0.800 1.946 -0.978 -1.143 2.072
400482 15.332 0.933 2.727 -1.019 -1.117 2.127
400491 15.517 1.028 2.742 -0.960 -1.114 2.188
400501 14.739 0.911 2.940 -0.718 -1.182 2.254
400512 13.883 1.495 3.242 -0.368 -1.185 2.280
400522 12.653 -0.080 3.606 0.004 -1.156 2.224
400531 11.464 -0.273 3.550 0.108 -1.142 2.061
400541 10.318 -0.378 2.780 0.009 -1.141 1.818
400551 9.861 0.099 2.095 -0.086 -1.084 1.590
400562 12.255 0.071 -0.097 -0.121 -1.148 1.450
400572 7.984 -1.165 1.228 -0.180 -1.209 1.453
400581 4.121 -2.325 3.073 -0.103 -0.884 1.276
400591 3.666 -4.038 3.771 0.029 -0.520 0.972
400602 3.621 -4.642 3.414 -0.058 -0.211 0.735
400612 3.878 -1.343 3.173 -0.093 -0.127 0.282
400621 5.275 1.589 2.036 0.058 -0.161 -0.286
400631 5.846 2.575 1.402 0.174 -0.148 -0.725
400642 5.756 2.746 1.077 0.222 -0.047 -1.008
400652 5.430 3.249 1.251 0.269 0.087 -1.239
400662 4.893 3.297 1.441 0.326 0.193 -1.555
400671 4.428 2.732 1.446 0.435 0.309 -1.916
400681 4.562 1.971 1.502 0.609 0.449 -2.223
400692 5.103 0.930 1.503 0.760 0.578 -2.507
400702 5.588 0.078 1.405 0.885 0.685 -2.776
400707 5.877 -0.431 1.353 0.948 0.769 -2.988
400716 6.252 -0.365 1.286 0.962 0.865 -3.191
400727 6.774 0.309 1.457 0.904 0.993 -3.462
400737 7.617 1.261 1.713 0.836 1.116 -3.719
400747 8.261 1.165 1.724 0.797 1.230 -3.957
400756 8.842 0.838 1.796 0.731 1.327 -4.139
400766 9.427 0.467 2.076 0.725 1.435 -4.288
400777 10.696 -0.166 2.200 0.764 1.535 -4.423
400787 11.672 -1.500 1.989 0.763 1.614 -4.566
400797 11.857 -1.794 1.802 0.607 1.666 -4.699
400806 12.503 -1.262 1.679 0.403 1.726 -4.833
400817 13.760 -0.517 1.768 0.337 1.790 -4.935
400827 14.533 -1.221 1.518 0.375 1.841 -5.012
400837 14.962 -2.021 1.324 0.307 1.857 -5.070
400846 15.509 -2.544 1.100 0.171 1.866 -5.108
400857 16.179 -3.416 0.835 0.001 1.852 -5.117
400867 16.784 -4.216 0.426 -0.170 1.848 -5.059
400877 17.312 -4.671 0.050 -0.315 1.821 -4.938
400887 17.658 -5.256 -0.152 -0.356 1.796 -4.756
400897 17.341 -5.940 -0.250 -0.272 1.759 -4.482
400907 16.982 -7.268 -0.286 -0.108 1.773 -4.137
400917 16.391 -8.833 -0.406 0.000 1.780 -3.739
400922 15.921 -10.072 -0.958 0.032 1.744 -3.398
400932 15.331 -11.038 -2.026 0.002 1.652 -3.001
400942 14.421 -12.261 -3.418 -0.098 1.456 -2.426
400952 13.441 -13.293 -4.259 -0.247 1.195 -1.812
400962 12.666 -14.280 -4.250 -0.420 0.866 -1.143
400972 12.156 -14.800 -3.485 -0.568 0.482 -0.436
400982 11.907 -14.895 -2.587 -0.663 0.114 0.276
400992 11.947 -14.679 -1.965 -0.737 -0.178 0.978
401002 12.692 -13.960 -1.073 -0.802 -0.388 1.640
401012 15.041 -6.882 0.950 -0.809 -0.475 2.140
401022 13.218 3.649 2.228 -0.491 -0.685 2.414
401032 13.256 25.636 2.411 0.173 -0.692 2.097
401042 11.423 25.264 -2.680 0.576 -0.897 1.536
401052 12.187 9.134 -6.552 1.149 -0.743 1.952
401062 14.937 -4.369 -4.715 1.679 -0.679 2.550
401072 16.703 -9.842 -0.309 2.286 -0.401 3.104
401082 19.543 -12.109 -1.664 2.352 -0.414 3.128
401092 14.702 -7.362 -1.249 2.133 -0.445 2.855
401102 9.167 0.751 -0.413 2.090 -0.127 2.434
401112 6.090 0.741 3.562 2.106 0.035 2.129
401122 6.138 -5.905 5.295 1.933 -0.084 1.872
401132 8.142 -8.037 4.059 1.162 -0.255 1.640
401142 10.163 -6.279 1.629 -0.043 -0.380 1.389
401153 10.607 -2.723 0.388 -1.025 -0.352 1.154
401162 10.016 -0.679 -0.085 -1.471 -0.216 1.024
401172 9.680 0.960 -0.303 -1.332 -0.044 0.938
401182 9.737 2.076 0.105 -0.851 0.101 0.929
401192 9.994 2.194 1.072 -0.326 0.172 0.963
401202 9.926 1.482 1.904 0.143 0.152 1.005
401212 9.581 -0.029 2.261 0.301 0.091 1.001
401222 9.908 -1.025 2.868 0.111 0.052 0.929
401232 9.931 -2.034 3.385 -0.268 -0.007 0.840
401243 9.733 -1.890 2.935 -0.710 -0.052 0.705
401248 9.684 -1.003 2.322 -0.969 -0.059 0.626
401257 9.792 -0.024 1.787 -1.041 -0.065 0.612
401267 9.888 0.787 1.439 -0.931 -0.078 0.639
401277 9.886 0.717 1.310 -0.710 -0.089 0.694
401288 9.916 0.204 1.386 -0.527 -0.109 0.738
401297 9.871 -0.258 1.707 -0.411 -0.153 0.756
401307 9.734 -0.936 2.076 -0.397 -0.182 0.738
401317 9.645 -1.257 2.100 -0.439 -0.196 0.711
401328 9.540 -1.047 2.101 -0.484 -0.206 0.690
401337 9.552 -0.689 2.112 -0.484 -0.223 0.688
401347 9.558 -0.302 2.222 -0.438 -0.257 0.704
401357 9.520 -0.519 2.268 -0.357 -0.289 0.727
401368 9.581 -0.682 2.070 -0.304 -0.291 0.754
401378 9.649 -0.919 1.910 -0.265 -0.278 0.767
401387 9.774 -1.269 1.611 -0.261 -0.261 0.775
401397 9.908 -1.476 1.265 -0.268 -0.265 0.762
401408 10.128 -1.117 0.950 -0.300 -0.266 0.742
401418 10.249 -1.288 0.917 -0.310 -0.260 0.730
401427 10.431 -1.616 0.875 -0.352 -0.247 0.740
401437 10.656 -1.160 0.768 -0.402 -0.239 0.748
401447 10.420 -1.233 0.814 -0.391 -0.254 0.768
401458 10.409 -1.355 1.039 -0.391 -0.254 0.800
401463 10.457 -1.647 1.056 -0.399 -0.260 0.827
401472 10.493 -1.727 1.229 -0.427 -0.272 0.854
401482 10.630 -1.902 1.622 -0.478 -0.302 0.893
401492 10.813 -2.076 2.046 -0.567 -0.338 0.941
401503 10.940 -1.803 2.042 -0.671 -0.376 1.000
401513 11.057 -1.598 1.910 -0.751 -0.440 1.076
401522 11.344 -1.137 1.922 -0.807 -0.518 1.180
401532 11.796 -0.534 1.541 -0.807 -0.617 1.298
401543 12.006 -0.280 1.435 -0.773 -0.724 1.439
401553 12.230 -0.359 1.444 -0.729 -0.830 1.595
401562 12.565 -0.491 1.503 -0.691 -0.932 1.756
401572 12.901 -1.138 1.289 -0.680 -1.026 1.898
401583 13.159 -1.289 0.929 -0.725 -1.106 2.030
401593 13.318 -1.118 0.342 -0.815 -1.170 2.144
401603 14.016 -0.760 -0.764 -0.903 -1.241 2.240
401612 15.162 0.169 -1.354 -0.964 -1.338 2.306
401623 16.009 0.921 -0.829 -1.010 -1.426 2.349
401633 16.366 1.555 -0.104 -1.152 -1.406 2.405
401643 17.032 2.953 0.273 -1.321 -1.373 2.472
401652 17.472 4.028 1.569 -1.470 -1.384 2.480
401662 18.086 5.562 3.391 -1.586 -1.327 2.486
401673 19.339 5.462 5.393 -1.540 -1.315 2.563
401683 19.308 4.042 5.490 -1.215 -1.402 2.770
401693 18.905 4.638 6.006 -0.628 -1.408 2.974
401702 16.972 3.776 5.376 -0.036 -1.439 2.981
401713 15.088 3.024 4.805 0.240 -1.512 2.752
401723 13.728 2.449 4.096 0.151 -1.631 2.341
401733 17.781 2.822 1.682 0.285 -1.849 2.086
401742 12.308 1.693 3.473 0.587 -1.824 2.029
401753 6.834 -0.725 1.025 0.415 -1.276 1.855
401763 -0.822 -6.462 2.307 0.135 -0.965 1.347
401773 0.824 -8.993 2.012 -0.117 -0.639 0.881
401783 1.272 -3.960 4.948 -0.341 -0.391 0.284
401788 1.144 1.518 6.148 -0.265 -0.195 -0.367
401798 1.892 3.012 5.771 -0.068 -0.049 -0.963
401808 3.344 2.816 4.113 -0.046 0.185 -1.421
401818 3.736 3.448 2.428 -0.172 0.411 -1.596
401828 3.020 3.873 1.733 -0.191 0.559 -1.846
401838 2.197 4.553 1.536 -0.062 0.694 -2.163
401848 2.129 3.646 1.932 0.126 0.894 -2.494
401858 2.944 2.798 2.286 0.265 1.062 -2.802
401868 3.816 1.455 2.213 0.461 1.180 -3.068
401878 4.677 0.881 1.845 0.678 1.266 -3.321
401888 5.474 0.413 1.542 0.838 1.361 -3.630
401898 6.628 -0.244 1.132 0.939 1.466 -3.915
401908 7.396 -0.290 0.924 0.906 1.570 -4.188
401918 7.797 0.655 1.058 0.852 1.685 -4.424
401928 9.366 1.475 1.275 0.925 1.816 -4.622
401938 10.633 -0.643 1.247 0.989 1.922 -4.814
401948 10.587 -0.656 1.511 0.863 1.950 -4.957
401958 11.687 -0.470 1.913 0.703 1.961 -5.095
401968 13.354 -0.405 2.084 0.672 2.000 -5.212
401978 14.383 -0.802 2.134 0.723 2.055 -5.311
401988 15.110 -1.288 2.213 0.831 2.122 -5.388
401998 16.260 -2.217 2.181 0.955 2.173 -5.473
402003 17.345 -3.036 2.073 0.958 2.177 -5.550
402013 18.233 -3.993 2.092 0.821 2.164 -5.620
402023 19.308 -5.868 2.332 0.474 2.149 -5.626
402033 19.928 -7.454 2.580 0.071 2.136 -5.482
402043 20.256 -9.160 2.575 -0.337 2.168 -5.218
402054 20.592 -11.061 1.511 -0.782 2.227 -4.856
402063 20.274 -13.011 -0.679 -1.216 2.264 -4.443
402073 19.096 -15.360 -3.386 -1.520 2.204 -3.967
402083 17.179 -16.743 -5.649 -1.719 2.048 -3.305
402094 15.648 -17.340 -7.257 -1.721 1.742 -2.501
402103 14.186 -17.774 -7.737 -1.534 1.272 -1.581
402113 12.812 -17.238 -7.489 -1.223 0.727 -0.561
402123 12.340 -15.800 -7.205 -0.734 0.226 0.465
402134 12.758 -14.321 -7.422 -0.140 -0.203 1.432
402144 14.504 -9.801 -4.856 0.451 -0.525 2.250
402153 13.600 1.704 -1.965 1.249 -0.747 2.656
402163 11.816 24.233 9.113 1.864 -0.509 2.399
402173 12.874 30.228 0.075 1.635 -0.601 1.442
402184 14.219 8.733 -8.294 1.039 -0.755 1.852
402193 18.932 -6.272 -10.161 0.981 -0.935 2.794
402203 19.138 -11.493 0.094 1.567 -0.658 3.446
402213 19.900 -12.574 1.266 1.885 -0.519 3.399
402219 16.067 -8.902 -0.129 1.899 -0.563 3.216
402229 11.979 -2.604 -2.485 1.933 -0.470 2.888
402238 7.076 -0.165 1.149 1.886 -0.273 2.513
402248 6.022 -4.716 3.242 1.599 -0.246 2.225
402258 7.472 -7.679 3.847 0.957 -0.306 1.956
402269 9.230 -5.519 3.187 -0.050 -0.408 1.721
402279 9.473 -2.253 2.121 -0.955 -0.399 1.493
402288 9.762 -1.184 1.155 -1.244 -0.288 1.295
402298 9.831 0.002 -0.054 -1.139 -0.192 1.128
402309 9.605 1.021 -0.232 -0.807 -0.076 1.033
402319 9.904 0.880 1.040 -0.477 0.007 1.021
402328 9.984 1.111 2.076 -0.219 -0.001 1.018
402338 9.793 0.837 2.195 -0.008 -0.040 1.030
402349 9.877 -0.263 2.709 0.020 -0.066 1.012
402359 9.750 -1.180 3.370 -0.183 -0.116 0.946
402369 9.618 -1.950 3.189 -0.491 -0.150 0.829
402378 9.416 -1.630 2.590 -0.763 -0.153 0.691
402388 9.368 -0.748 1.736 -0.865 -0.140 0.602
402399 9.526 -0.474 1.102 -0.822 -0.123 0.571
402409 9.729 -0.098 1.008 -0.722 -0.100 0.558
402418 9.805 -0.134 1.153 -0.590 -0.090 0.563
402428 9.870 -0.648 1.700 -0.487 -0.093 0.571
402439 9.864 -1.002 2.271 -0.482 -0.100 0.553
402449 9.876 -1.150 2.485 -0.532 -0.113 0.524
402459 9.768 -1.123 2.661 -0.604 -0.125 0.496
402468 9.706 -1.193 2.388 -0.669 -0.134 0.482
402479 9.629 -1.013 1.989 -0.712 -0.142 0.473
402489 9.787 -0.948 1.778 -0.705 -0.154 0.483
402499 9.848 -0.491 1.578 -0.660 -0.174 0.510
402508 10.073 -0.517 1.542 -0.595 -0.198 0.552
402519 10.183 -0.516 1.422 -0.546 -0.225 0.603
402529 10.052 -0.456 1.421 -0.508 -0.251 0.659
402539 10.280 -0.608 1.727 -0.490 -0.272 0.722
402544 10.512 -0.381 2.042 -0.509 -0.288 0.766
402553 10.737 -0.548 1.926 -0.511 -0.327 0.799
402564 10.663 -1.053 1.999 -0.535 -0.374 0.856
402574 10.601 -1.116 1.808 -0.601 -0.406 0.913
402584 10.499 -1.107 1.873 -0.637 -0.455 0.958
402594 10.387 -1.325 1.907 -0.656 -0.503 1.005
402604 10.281 -1.520 1.908 -0.676 -0.539 1.067
402614 10.322 -1.408 1.788 -0.693 -0.588 1.135
402624 10.530 -1.271 1.246 -0.695 -0.656 1.207
402634 10.915 -1.129 1.002 -0.691 -0.736 1.287
402643 11.535 -0.914 1.082 -0.678 -0.835 1.379
402654 12.197 -0.883 1.494 -0.681 -0.925 1.483
402664 12.547 -0.159 1.827 -0.697 -0.994 1.598
402674 12.727 -0.206 1.875 -0.652 -1.070 1.718
402684 12.849 -0.918 1.744 -0.600 -1.152 1.845
402694 13.095 -1.185 1.608 -0.610 -1.214 1.962
402704 13.336 -1.132 1.369 -0.668 -1.251 2.065
402714 13.558 -1.069 0.458 -0.762 -1.284 2.162
402724 14.028 -0.920 -0.898 -0.884 -1.331 2.271
402734 15.204 0.320 -1.615 -1.009 -1.405 2.354
402744 16.460 1.567 -1.024 -1.087 -1.489 2.397
402754 17.545 2.537 0.157 -1.211 -1.510 2.435
402759 18.212 3.529 0.639 -1.379 -1.488 2.470
402769 18.447 4.592 1.902 -1.584 -1.461 2.504
402779 18.662 6.320 4.260 -1.736 -1.414 2.587
402789 18.930 6.555 5.623 -1.554 -1.446 2.769
402799 19.750 5.563 5.571 -1.038 -1.489 2.979
402809 19.646 4.395 6.305 -0.354 -1.531 3.134
402820 17.542 3.254 5.678 0.226 -1.565 3.090
402829 15.472 2.045 5.128 0.466 -1.584 2.790
402839 14.644 1.986 3.975 0.388 -1.722 2.352
402849 17.459 3.126 2.163 0.556 -2.032 2.140
402860 10.363 3.073 4.359 0.657 -1.788 1.948
402869 6.191 3.233 3.619 0.290 -1.231 1.572
402879 0.952 -1.193 3.782 -0.014 -0.775 1.024
402889 2.826 -5.867 0.950 -0.282 -0.508 0.762
402899 1.121 -5.912 3.282 -0.346 -0.413 0.387
402909 0.120 -3.624 3.598 -0.123 -0.368 -0.450
402919 1.083 -1.366 3.339 0.223 -0.388 -1.343
402929 1.296 -0.796 2.969 0.562 -0.281 -2.047
402939 1.256 -0.358 2.802 0.603 -0.055 -2.525
402950 1.582 -0.139 2.946 0.540 0.182 -2.835
402959 1.547 -0.268 3.094 0.541 0.387 -3.027
402969 1.681 -0.688 3.467 0.505 0.644 -3.099
402975 2.547 -0.852 2.954 0.363 0.936 -3.080
402984 3.624 0.763 1.327 0.375 1.142 -3.069
402995 3.739 4.065 0.821 0.611 1.322 -3.289
403004 4.752 3.396 1.171 0.812 1.460 -3.672
403014 6.246 1.589 0.868 0.902 1.493 -3.897
403024 6.279 1.045 1.568 0.893 1.497 -4.137
403035 8.101 -0.115 1.059 1.017 1.601 -4.346
403045 9.311 -2.092 0.764 1.024 1.720 -4.520
403054 10.107 -2.453 0.082 0.828 1.810 -4.667
403064 10.724 -1.111 0.367 0.698 1.825 -4.773
403075 11.906 -0.342 0.679 0.790 1.884 -4.837
403085 12.563 -0.906 1.088 0.981 1.961 -4.927
403094 13.141 -1.521 1.296 1.066 2.005 -5.003
403104 14.250 -1.805 1.678 1.132 2.046 -5.088
403115 15.494 -2.668 2.083 1.244 2.077 -5.174
403125 16.734 -3.834 2.128 1.270 2.048 -5.235
403135 17.705 -4.834 2.193 1.087 1.974 -5.278
403144 18.423 -6.385 2.238 0.762 1.935 -5.235
403154 18.798 -7.024 2.222 0.405 1.933 -5.061
403165 18.994 -7.467 1.706 0.081 1.946 -4.803
403175 18.813 -8.782 0.996 -0.165 1.968 -4.487
403184 18.373 -11.038 0.094 -0.336 2.012 -4.121
403194 17.883 -13.782 -1.681 -0.556 2.010 -3.689
403205 16.771 -15.771 -4.206 -0.888 1.879 -3.144
403215 15.107 -16.444 -6.165 -1.166 1.599 -2.469
403225 13.692 -16.298 -6.875 -1.299 1.211 -1.676
403234 12.459 -16.058 -6.540 -1.266 0.761 -0.799
403245 11.909 -15.263 -5.782 -1.029 0.288 0.113
403255 12.134 -14.178 -4.877 -0.655 -0.134 0.970
403265 12.799 -13.291 -4.004 -0.279 -0.462 1.745
403274 14.311 -4.478 0.955 0.041 -0.595 2.290
403284 12.204 9.661 6.276 0.489 -0.642 2.263
403295 12.342 29.293 8.797 0.864 -0.371 1.747
403300 13.577 28.819 -0.836 0.576 -0.577 1.232
403310 13.126 14.939 -6.473 0.414 -0.788 1.695
403319 16.510 1.724 -10.347 0.905 -0.801 2.630
403330 16.202 -7.771 -1.014 1.847 -0.550 3.404
403340 19.136 -11.649 -0.405 2.406 -0.381 3.563
403350 15.792 -9.422 0.867 2.158 -0.561 3.265
403359 9.791 -1.412 1.059 2.233 -0.346 2.861
403369 7.104 0.025 1.149 2.436 -0.093 2.454
403380 6.490 -3.625 2.340 2.307 -0.216 2.198
403390 8.639 -8.016 2.772 1.798 -0.359 1.907
403400 10.150 -7.769 2.159 0.611 -0.492 1.758
403409 10.372 -4.490 1.481 -0.642 -0.518 1.565
403420 9.824 -2.483 0.120 -1.396 -0.395 1.303
403430 9.422 -0.078 -1.306 -1.510 -0.199 1.096
403440 9.595 1.486 -0.892 -1.080 -0.010 1.018
403449 9.708 1.315 0.527 -0.533 0.095 1.012
403460 9.927 1.261 1.823 -0.181 0.111 1.029
403470 9.734 0.869 2.173 0.101 0.065 1.053
403480 9.913 -0.194 2.456 0.161 0.021 1.044
403490 10.103 -1.767 3.697 -0.148 -0.027 0.982
403500 9.805 -2.492 3.595 -0.581 -0.059 0.855
403510 9.598 -1.490 2.522 -0.962 -0.042 0.721
403520 9.668 0.257 1.749 -1.041 -0.062 0.647
403530 9.745 0.491 0.971 -0.859 -0.101 0.634
403539 9.780 0.091 0.806 -0.640 -0.126 0.665
403550 9.813 -0.219 1.138 -0.449 -0.142 0.692
403560 9.605 -1.076 1.615 -0.333 -0.145 0.683
403570 9.567 -1.691 1.629 -0.355 -0.128 0.627
403580 9.576 -1.573 1.768 -0.443 -0.105 0.553
403590 9.662 -1.435 1.957 -0.516 -0.078 0.499
403600 9.765 -1.181 1.994 -0.568 -0.057 0.471
403610 9.922 -0.752 1.945 -0.591 -0.044 0.455
403620 10.044 -0.525 1.768 -0.590 -0.047 0.465
403625 10.213 -0.582 1.398 -0.567 -0.057 0.479
403635 10.113 -0.413 1.295 -0.530 -0.079 0.516
403645 10.007 -0.552 1.353 -0.477 -0.109 0.579
403655 10.122 -0.503 1.403 -0.451 -0.138 0.653
403665 10.189 -0.627 1.225 -0.410 -0.183 0.721
403675 9.984 -0.710 1.562 -0.378 -0.228 0.802
403685 10.067 -0.858 1.776 -0.374 -0.268 0.883
403695 10.171 -1.014 1.946 -0.387 -0.310 0.957
403705 10.280 -1.197 2.092 -0.419 -0.336 1.018
403716 10.423 -1.665 1.949 -0.485 -0.346 1.064
403725 10.448 -1.830 1.682 -0.556 -0.357 1.098
403735 10.496 -1.957 1.515 -0.621 -0.373 1.131
403745 10.697 -1.872 1.178 -0.680 -0.396 1.169
403756 10.844 -1.507 0.977 -0.711 -0.444 1.216
403765 11.050 -1.325 0.837 -0.693 -0.513 1.283
403775 11.391 -1.002 0.924 -0.653 -0.598 1.376
403785 11.610 -0.657 1.314 -0.612 -0.685 1.491
403795 11.927 -0.808 1.508 -0.566 -0.763 1.617
403806 12.252 -0.879 1.426 -0.553 -0.833 1.750
403815 12.649 -1.434 1.185 -0.551 -0.903 1.852
403825 12.740 -1.891 0.656 -0.605 -0.959 1.954
403835 12.877 -1.927 -0.261 -0.702 -0.999 2.028
403846 13.297 -1.878 -1.304 -0.803 -1.054 2.087
403855 13.959 -1.086 -1.973 -0.874 -1.133 2.128
403865 14.974 -0.060 -1.779 -0.907 -1.227 2.157
403875 15.545 0.755 -0.633 -0.947 -1.315 2.198
403886 15.883 1.599 0.455 -1.092 -1.302 2.253
403896 17.158 2.690 1.550 -1.209 -1.292 2.298
403905 18.016 3.953 3.220 -1.364 -1.302 2.341
403915 18.979 5.418 6.039 -1.508 -1.270 2.388
403926 19.752 4.431 6.707 -1.486 -1.224 2.513
403936 19.009 3.863 6.064 -1.124 -1.274 2.741
403945 17.729 3.687 5.870 -0.602 -1.282 2.915
403955 15.699 2.514 5.264 -0.141 -1.310 2.906
403965 14.137 2.155 4.736 0.072 -1.302 2.678
403976 12.898 2.410 3.540 0.029 -1.422 2.274
403986 15.817 2.759 1.964 0.153 -1.703 1.984
403995 10.509 1.510 3.191 0.087 -1.582 1.847
404005 7.688 1.021 1.450 -0.378 -1.095 1.709
404016 1.052 -3.728 2.854 -0.562 -0.665 1.361
404026 -0.652 -9.468 3.050 -0.699 -0.271 1.088
404035 0.725 -6.565 4.290 -0.741 -0.104 0.674
404045 1.018 -0.644 4.481 -0.353 -0.098 -0.311
404056 2.619 1.463 3.075 0.096 -0.139 -1.168
404066 3.780 2.467 1.835 0.191 -0.025 -1.601
404076 4.265 2.534 1.702 0.124 0.193 -1.826
404085 4.345 3.809 1.904 0.066 0.462 -2.012
404096 3.791 4.986 1.582 0.274 0.683 -2.349
404106 2.852 4.495 2.167 0.545 0.872 -2.728
404116 3.118 3.630 1.989 0.653 1.115 -3.054
404125 4.077 2.419 1.543 0.820 1.263 -3.269
404135 4.835 1.522 1.567 0.998 1.316 -3.449
404146 5.845 -0.043 1.217 1.143 1.348 -3.686
404156 6.528 0.341 1.331 1.175 1.398 -3.968
404166 7.776 1.268 1.192 1.280 1.497 -4.284
404175 9.445 -0.250 0.918 1.367 1.612 -4.581
404186 9.628 -1.406 1.064 1.154 1.729 -4.788
404196 9.751 -1.017 1.283 0.757 1.769 -4.955
404206 11.121 0.557 1.572 0.562 1.851 -5.081
404215 12.246 0.432 1.809 0.681 1.947 -5.173
404226 13.335 -0.365 2.010 0.911 2.073 -5.234
404236 14.769 -1.047 1.839 1.205 2.194 -5.312
404246 16.079 -3.056 1.384 1.478 2.200 -5.388
404256 17.099 -4.716 1.368 1.485 2.092 -5.479
404265 18.253 -5.693 1.251 1.155 1.979 -5.574
404276 19.281 -6.934 1.275 0.640 1.890 -5.556
404286 19.691 -7.839 1.658 0.055 1.812 -5.389
404296 19.321 -8.346 2.136 -0.411 1.756 -5.095
404305 18.818 -9.315 2.280 -0.695 1.765 -4.744
404316 18.412 -11.608 1.684 -0.841 1.838 -4.338
404326 18.210 -15.708 -0.457 -1.030 1.894 -3.856
404336 17.153 -18.365 -3.643 -1.367 1.823 -3.221
404346 15.606 -18.554 -6.561 -1.724 1.585 -2.463
404356 13.922 -17.608 -7.973 -1.829 1.193 -1.622
404366 12.814 -16.392 -7.738 -1.607 0.710 -0.703
404376 12.665 -15.234 -6.528 -1.118 0.208 0.263
404381 13.857 -12.277 -2.835 -0.670 -0.073 0.928
404391 14.623 -11.925 -5.061 0.007 -0.307 1.509
404401 12.117 -7.927 1.433 0.584 -0.588 2.391
404411 15.684 23.129 5.128 1.066 -0.621 2.218
404421 15.241 32.872 -0.890 1.043 -0.856 1.316
404431 15.942 8.254 -11.273 0.609 -0.889 2.004
404441 17.695 -7.505 -7.575 0.863 -0.845 3.186
404451 17.719 -10.139 0.318 1.798 -0.480 3.631
404461 18.303 -8.435 1.852 1.958 -0.453 3.384
404471 12.407 -3.238 -0.392 1.925 -0.509 3.057
404482 7.420 -0.491 -0.116 1.999 -0.241 2.650
404491 5.543 -2.648 4.009 2.027 -0.100 2.383
404501 5.950 -5.993 6.039 1.705 -0.187 2.058
404511 8.829 -7.052 4.077 0.769 -0.406 1.823
404521 9.947 -4.084 1.411 -0.456 -0.590 1.642
404531 10.235 -2.235 0.727 -1.019 -0.478 1.427
404541 10.468 -0.762 0.219 -1.067 -0.292 1.196
404551 9.698 0.632 -0.289 -0.926 -0.144 1.080
404561 9.673 0.704 0.154 -0.623 -0.021 1.050
404572 9.656 0.500 1.264 -0.325 -0.005 1.012
404581 9.650 0.631 1.397 -0.091 -0.021 0.982
404591 9.640 0.031 1.654 0.047 -0.019 0.951
404596 9.794 -0.821 2.468 -0.011 -0.027 0.911
404606 9.883 -1.614 3.094 -0.213 -0.035 0.839
404617 9.744 -2.279 3.379 -0.582 -0.050 0.713
404626 9.641 -1.610 2.605 -0.941 -0.046 0.570
404636 9.659 -0.086 1.569 -1.059 -0.029 0.501
404646 9.834 0.493 1.065 -0.944 -0.021 0.504
404657 9.961 0.195 0.938 -0.781 -0.006 0.540
404666 9.864 -0.158 1.231 -0.644 -0.015 0.584
404676 9.762 -0.686 1.734 -0.542 -0.040 0.595
404686 9.703 -1.124 2.496 -0.498 -0.097 0.573
404697 9.478 -1.090 2.795 -0.527 -0.158 0.542
404707 9.425 -0.839 2.759 -0.575 -0.187 0.533
404716 9.440 -0.752 2.583 -0.579 -0.213 0.540
404726 9.463 -0.431 2.084 -0.554 -0.227 0.570
404737 9.601 -0.510 1.732 -0.489 -0.238 0.601
404747 9.716 -0.639 1.590 -0.429 -0.249 0.632
404756 9.676 -0.746 1.487 -0.394 -0.248 0.658
404766 9.700 -0.938 1.598 -0.369 -0.239 0.683
404776 9.655 -0.883 1.824 -0.357 -0.225 0.706
404787 9.712 -0.858 1.979 -0.338 -0.216 0.732
404797 9.759 -1.078 1.885 -0.304 -0.229 0.753
404806 9.885 -1.117 1.769 -0.289 -0.242 0.778
404816 9.921 -1.336 1.736 -0.294 -0.252 0.805
404827 9.883 -1.626 1.343 -0.289 -0.273 0.817
404837 10.241 -1.876 0.841 -0.329 -0.298 0.810
404846 10.341 -1.721 0.596 -0.406 -0.304 0.808
404856 10.442 -1.618 0.676 -0.460 -0.313 0.815
404867 10.509 -1.622 0.952 -0.484 -0.316 0.838
404877 10.572 -2.035 1.094 -0.505 -0.332 0.868
404887 10.522 -2.027 1.282 -0.552 -0.361 0.897
404896 10.523 -1.788 1.541 -0.583 -0.416 0.932
404907 10.450 -1.557 1.883 -0.596 -0.475 0.994
404917 10.454 -1.260 2.059 -0.584 -0.547 1.069
404922 10.584 -1.360 2.045 -0.572 -0.602 1.135
404932 10.872 -1.452 1.910 -0.563 -0.660 1.200
404941 10.964 -1.551 1.944 -0.579 -0.733 1.292
404952 11.376 -1.426 1.635 -0.612 -0.783 1.389
404962 11.575 -1.497 1.393 -0.608 -0.843 1.481
404972 11.656 -1.866 1.265 -0.611 -0.904 1.576
404981 11.833 -2.115 1.163 -0.631 -0.953 1.662
404992 12.009 -2.655 0.730 -0.679 -0.994 1.729
405002 12.100 -2.408 0.025 -0.777 -1.019 1.780
405012 12.716 -1.865 -0.627 -0.837 -1.052 1.819
405022 13.466 -1.700 -0.900 -0.837 -1.116 1.860
405031 14.146 -1.051 -0.526 -0.851 -1.177 1.912
405042 14.416 -0.716 -0.368 -0.899 -1.233 1.979
405052 14.870 0.246 -0.371 -0.981 -1.269 2.068
405062 15.380 1.676 0.252 -1.052 -1.308 2.136
405071 16.312 2.089 1.369 -1.076 -1.337 2.194
405082 17.609 3.077 3.011 -1.201 -1.315 2.236
405092 18.707 3.196 4.357 -1.316 -1.281 2.311
405102 18.383 2.458 4.384 -1.310 -1.284 2.502
405111 17.553 2.837 4.021 -1.036 -1.308 2.715
405122 16.534 3.237 4.508 -0.554 -1.310 2.786
405132 15.725 2.137 3.810 -0.114 -1.318 2.751
405137 14.271 1.125 3.531 0.087 -1.344 2.626
405147 13.254 0.808 2.750 0.062 -1.394 2.378
405156 13.154 1.279 1.421 -0.096 -1.542 2.027
405167 14.587 1.947 0.454 -0.012 -1.750 1.842
405177 9.666 1.414 1.304 -0.188 -1.550 1.705
405187 5.942 0.031 1.568 -0.449 -1.144 1.445
405197 0.970 -1.640 4.444 -0.611 -0.676 1.035
405207 0.891 -5.335 2.886 -0.628 -0.217 0.748
405217 0.050 -5.833 3.469 -0.462 -0.054 0.415
405227 -0.379 -4.203 3.078 -0.190 0.034 -0.256
405237 1.565 -2.369 1.836 0.101 0.056 -0.991
405246 2.555 -0.875 0.749 0.252 0.109 -1.584
405257 2.930 0.516 1.062 0.301 0.209 -2.047
405267 2.900 1.411 1.974 0.392 0.429 -2.362
405277 3.499 1.174 2.242 0.436 0.774 -2.494
405287 4.287 2.234 0.389 0.693 1.006 -2.525
405297 3.822 3.284 -0.099 1.109 1.072 -2.709
405307 4.420 2.721 0.470 1.355 1.159 -2.999
405317 5.923 0.214 0.390 1.483 1.179 -3.269
405327 6.970 -1.408 0.680 1.518 1.108 -3.498
405337 7.783 -2.188 0.789 1.437 1.052 -3.738
405347 8.625 -2.365 0.547 1.280 1.076 -3.944
405357 9.703 -2.668 0.219 1.137 1.144 -4.131
405367 10.242 -2.941 0.054 1.005 1.181 -4.258
405378 10.447 -2.900 0.458 0.869 1.191 -4.340
405387 10.694 -2.746 1.047 0.776 1.188 -4.398
405397 11.121 -2.647 1.578 0.714 1.205 -4.440
405407 11.626 -2.841 1.902 0.688 1.245 -4.458
405417 11.947 -2.951 1.861 0.698 1.301 -4.454
405427 12.598 -3.195 1.701 0.764 1.375 -4.463
405437 13.418 -3.504 1.523 0.875 1.452 -4.464
405447 14.029 -3.753 1.366 1.003 1.511 -4.456
405457 14.421 -3.888 1.403 1.157 1.577 -4.441
405468 14.890 -4.293 1.165 1.288 1.642 -4.416
405477 15.130 -4.499 0.406 1.322 1.627 -4.391
405487 15.268 -4.132 -0.128 1.244 1.543 -4.368
405497 15.646 -3.677 0.031 1.137 1.483 -4.330
405508 15.869 -3.248 0.886 1.119 1.450 -4.238
405517 16.314 -4.062 1.570 1.165 1.459 -4.067
405527 16.001 -6.172 1.554 1.159 1.479 -3.824
405537 15.195 -8.495 0.715 1.010 1.487 -3.521
405548 14.385 -10.572 -0.935 0.697 1.429 -3.162
405558 13.561 -12.002 -2.904 0.237 1.302 -2.730
405567 12.873 -11.405 -3.963 -0.164 1.136 -2.234
405577 12.187 -10.059 -3.640 -0.358 0.928 -1.708
405587 11.402 -8.576 -2.805 -0.278 0.675 -1.150
405598 10.693 -7.791 -2.012 0.015 0.431 -0.595
405607 10.261 -7.953 -1.570 0.410 0.240 -0.036
405617 10.518 -8.322 -1.687 0.740 0.102 0.528
405627 10.997 -7.776 -2.010 0.903 0.007 1.021
405638 12.686 -3.410 -0.679 0.914 -0.048 1.359
405648 11.147 -0.916 -1.904 1.027 -0.148 1.541
405657 10.508 8.692 1.362 1.043 -0.245 1.618
405667 10.623 14.870 2.481 0.977 -0.228 1.222
405678 12.102 9.304 -0.584 0.744 -0.185 1.205
405688 14.865 1.698 -3.283 0.552 -0.226 1.555
405697 15.276 -2.471 -1.847 0.492 -0.166 1.895
405707 15.239 -1.542 0.646 0.456 -0.016 2.104
405718 14.548 -1.691 2.528 0.546 0.081 2.224
405728 14.104 -3.342 3.190 0.841 0.208 2.353
405738 13.033 -0.608 3.343 1.204 0.210 2.335
405747 9.637 0.752 2.188 1.457 0.127 2.069
405757 7.447 -0.433 2.126 1.460 0.135 1.890
405768 7.606 -2.416 2.149 1.320 0.125 1.761
405778 8.549 -3.604 2.027 0.937 0.070 1.558
405787 9.531 -2.696 1.469 0.389 0.046 1.365
405797 9.853 -1.858 0.445 -0.083 0.040 1.187
405808 10.061 -1.469 -0.526 -0.372 0.082 1.015
405818 10.095 -0.609 -0.480 -0.465 0.160 0.841
405828 9.902 0.431 0.370 -0.423 0.231 0.708
405837 9.791 0.814 1.318 -0.294 0.284 0.627
405848 9.810 1.082 1.951 -0.198 0.298 0.579
405858 9.798 1.340 2.289 -0.107 0.277 0.559
405868 9.743 1.450 2.598 -0.028 0.243 0.549
405877 9.920 1.573 3.378 -0.009 0.176 0.540
405888 9.804 1.423 3.770 -0.058 0.078 0.531
405894 9.643 0.998 3.433 -0.105 0.021 0.536
405903 9.659 0.630 2.775 -0.148 -0.008 0.533
405913 9.600 0.353 2.039 -0.181 -0.045 0.501
405922 9.635 0.313 1.227 -0.184 -0.068 0.462
405933 9.751 0.466 0.804 -0.203 -0.057 0.436
405943 9.950 0.360 0.734 -0.196 -0.054 0.423
405953 9.865 0.633 1.002 -0.192 -0.073 0.417
405963 9.634 0.875 1.472 -0.138 -0.073 0.418
405972 9.606 0.565 1.701 -0.089 -0.060 0.427
405983 9.425 0.313 1.609 -0.022 -0.069 0.425
405993 9.356 0.090 1.360 0.032 -0.075 0.406
406003 9.478 -0.153 1.373 0.025 -0.064 0.376
406012 9.634 -0.268 1.257 -0.024 -0.052 0.351
406023 9.733 -0.157 1.217 -0.090 -0.044 0.328
406033 9.709 -0.020 1.308 -0.138 -0.035 0.317
406043 9.653 0.152 1.251 -0.156 -0.024 0.319
406053 9.639 0.304 1.190 -0.158 -0.008 0.334
406063 9.672 0.256 1.274 -0.137 -0.001 0.353
406073 9.799 0.151 1.356 -0.132 -0.001 0.375
406083 9.947 0.138 1.653 -0.124 -0.013 0.402
406093 10.059 0.177 1.897 -0.123 -0.035 0.439
406103 10.144 0.123 2.146 -0.138 -0.071 0.479
406113 10.075 -0.083 2.346 -0.133 -0.123 0.514
406123 9.984 -0.181 2.171 -0.170 -0.165 0.545
406133 9.820 -0.336 2.079 -0.198 -0.200 0.561
406144 9.685 -0.554 1.766 -0.234 -0.204 0.559
406153 9.494 -0.329 1.653 -0.236 -0.200 0.548
406163 9.467 0.023 1.786 -0.197 -0.190 0.532
406173 9.481 -0.231 1.594 -0.135 -0.175 0.507
406183 9.629 -0.785 1.013 -0.075 -0.175 0.464
406193 9.656 -0.831 1.072 -0.023 -0.162 0.399
406203 9.710 -1.518 0.887 0.001 -0.142 0.327
406213 9.604 -1.480 0.768 -0.063 -0.122 0.262
406218 9.469 -1.195 0.929 -0.100 -0.101 0.218
406228 9.465 -1.087 0.935 -0.126 -0.083 0.176
406238 9.478 -0.749 1.033 -0.126 -0.069 0.145
406248 9.463 -0.840 1.265 -0.100 -0.059 0.130
406258 9.521 -0.794 1.165 -0.036 -0.053 0.124
406268 9.582 -0.740 1.059 -0.014 -0.046 0.127
406279 9.604 -0.705 1.226 -0.006 -0.042 0.139
406288 9.641 -0.367 1.256 -0.008 -0.039 0.166
406298 9.697 0.072 1.427 -0.018 -0.026 0.209
406308 9.877 -0.147 1.481 -0.012 -0.023 0.259
406319 9.878 0.031 1.472 0.002 -0.025 0.314
406328 9.953 -0.363 1.647 0.011 -0.037 0.357
406338 9.860 -0.654 1.766 0.015 -0.064 0.379
406348 9.801 -0.892 1.711 0.009 -0.089 0.392
406359 9.832 -0.857 1.614 0.005 -0.118 0.392
406369 9.849 -0.937 1.454 0.005 -0.140 0.387
406378 9.835 -0.778 1.371 0.001 -0.152 0.391
406388 9.817 -0.479 1.148 0.035 -0.161 0.400
406398 9.785 -0.542 1.157 0.106 -0.169 0.409
406409 9.792 -0.540 1.245 0.173 -0.174 0.417
406418 9.797 -0.680 0.932 0.243 -0.181 0.420
406428 9.805 -0.797 0.710 0.328 -0.198 0.431
406438 9.971 -0.353 0.885 0.413 -0.225 0.443
406449 10.042 -0.130 1.207 0.541 -0.274 0.443
406459 10.063 0.023 1.434 0.691 -0.305 0.432
406468 10.138 -0.401 0.885 0.841 -0.307 0.416
406478 10.374 -0.683 -0.080 0.957 -0.334 0.448
406489 10.298 -0.024 -0.886 1.058 -0.364 0.453
406499 10.384 0.387 -1.195 1.247 -0.391 0.451
406508 10.145 1.168 -0.951 1.456 -0.410 0.448
406518 10.619 0.089 -1.115 1.763 -0.440 0.441
406529 10.826 -0.762 -2.257 1.975 -0.532 0.520
406539 10.733 0.177 -3.571 2.125 -0.636 0.558
406544 10.776 1.068 -4.382 2.349 -0.721 0.580
406553 10.873 1.993 -5.102 2.697 -0.813 0.608
406563 11.014 3.281 -5.779 3.288 -0.962 0.658
406574 11.131 4.262 -5.943 3.986 -1.133 0.708
406584 11.268 4.375 -5.082 4.691 -1.294 0.740
406594 11.069 3.992 -3.587 5.278 -1.417 0.766
406603 10.769 3.618 -1.763 5.702 -1.479 0.766
406614 10.348 2.967 0.074 5.961 -1.504 0.743
406624 10.028 2.654 1.409 6.101 -1.497 0.706
406634 9.722 2.202 2.594 6.164 -1.479 0.663
406643 9.509 1.546 3.635 6.152 -1.438 0.618
406653 9.178 0.751 4.527 6.065 -1.378 0.575
406664 8.913 0.257 5.158 5.891 -1.298 0.525
406674 8.564 -0.427 5.572 5.650 -1.203 0.476
406684 8.378 -0.938 5.888 5.362 -1.098 0.432
406693 8.238 -1.594 6.135 5.045 -0.989 0.384
406704 7.884 -2.600 6.293 4.668 -0.876 0.333
406714 7.534 -3.486 6.317 4.256 -0.753 0.281
406724 7.366 -3.986 6.301 3.805 -0.622 0.217
406733 7.280 -4.360 6.279 3.348 -0.499 0.148
406744 7.224 -4.847 6.300 2.894 -0.378 0.078
406754 7.120 -5.349 6.492 2.423 -0.250 0.003
406759 7.091 -5.473 6.565 2.065 -0.148 -0.057
406769 7.146 -5.417 6.477 1.711 -0.050 -0.118
406778 7.359 -5.338 6.554 1.261 0.081 -0.191
406789 7.994 -4.939 6.421 0.829 0.203 -0.242
406799 8.975 -4.197 5.768 0.392 0.310 -0.284
406809 9.904 -2.896 3.397 -0.001 0.381 -0.345
406819 10.195 -1.908 1.076 -0.184 0.396 -0.378
406829 10.876 -1.333 -0.113 -0.191 0.390 -0.363
406839 11.721 -0.375 -0.776 -0.099 0.362 -0.304
406849 11.907 0.220 0.795 0.028 0.388 -0.238
406859 11.847 -0.340 0.643 0.100 0.385 -0.160
406868 11.075 -1.106 1.215 0.105 0.358 -0.079
406879 10.384 -1.486 1.902 0.052 0.338 -0.035
406889 9.916 -1.930 2.226 -0.020 0.311 -0.025
406899 9.682 -1.976 1.908 -0.064 0.281 -0.027
406909 9.641 -1.727 1.660 -0.070 0.250 -0.025
406919 9.679 -1.636 1.593 -0.042 0.218 -0.019
406929 9.545 -1.708 1.386 -0.010 0.197 -0.006
406939 9.449 -1.810 1.294 0.015 0.184 0.009
406949 9.358 -1.924 1.351 0.022 0.183 0.020
406959 9.302 -2.109 1.274 0.013 0.181 0.026
406969 9.241 -2.098 1.323 0.014 0.176 0.034
406975 9.193 -1.925 1.525 0.020 0.170 0.043
406984 9.319 -1.851 1.604 0.011 0.164 0.060
406994 9.537 -1.942 1.760 -0.031 0.148 0.084
407004 9.727 -1.714 1.815 -0.078 0.127 0.103
407014 9.938 -1.398 1.995 -0.087 0.106 0.126
407024 10.008 -1.669 2.004 -0.079 0.085 0.141
407034 9.945 -1.928 1.488 -0.063 0.068 0.140
407045 9.896 -1.998 1.391 -0.060 0.059 0.132
407054 9.903 -2.079 1.618 -0.079 0.049 0.120
407064 9.888 -2.283 1.734 -0.137 0.043 0.109
407074 9.855 -2.406 1.852 -0.204 0.025 0.107
407085 9.810 -2.006 2.033 -0.287 -0.005 0.120
407094 9.826 -1.848 2.067 -0.346 -0.033 0.148
407104 9.874 -1.864 2.068 -0.386 -0.075 0.184
407114 9.874 -1.629 2.315 -0.423 -0.118 0.229
407124 9.884 -1.729 2.347 -0.447 -0.160 0.280
407135 9.753 -1.606 2.193 -0.467 -0.198 0.321
407144 9.789 -1.811 2.029 -0.468 -0.224 0.352
407154 9.812 -2.152 1.604 -0.467 -0.237 0.370
407164 9.718 -2.151 1.342 -0.467 -0.236 0.369
407175 9.708 -2.505 1.292 -0.468 -0.230 0.359
407184 9.757 -2.383 1.321 -0.499 -0.214 0.346
407194 9.665 -2.431 1.101 -0.525 -0.199 0.320
407204 9.637 -2.083 0.533 -0.533 -0.179 0.307
407215 9.862 -1.980 0.195 -0.477 -0.179 0.294
407225 10.000 -2.221 0.479 -0.413 -0.195 0.309
407234 10.151 -2.377 0.673 -0.382 -0.207 0.330
407244 10.140 -2.380 0.907 -0.379 -0.224 0.356
407255 10.087 -2.317 1.305 -0.390 -0.255 0.380
407265 10.078 -2.413 1.805 -0.405 -0.301 0.408
407274 9.996 -2.452 1.952 -0.427 -0.338 0.427
407284 9.879 -2.540 2.003 -0.464 -0.365 0.449
407294 9.768 -2.551 2.045 -0.486 -0.400 0.474
407300 9.720 -2.454 1.843 -0.492 -0.413 0.491
407310 9.642 -2.273 1.616 -0.464 -0.430 0.508
407319 9.743 -2.502 1.348 -0.428 -0.458 0.535
407329 9.981 -2.637 1.108 -0.418 -0.483 0.570
407340 10.133 -2.653 0.628 -0.435 -0.511 0.611
407350 10.286 -2.371 -0.010 -0.442 -0.545 0.658
407359 10.327 -2.377 -0.134 -0.449 -0.579 0.717
407369 10.396 -2.061 -0.019 -0.427 -0.615 0.775
407379 10.514 -2.084 -0.206 -0.381 -0.639 0.836
407390 10.747 -2.510 -0.449 -0.328 -0.678 0.885
407400 10.901 -2.511 -0.376 -0.302 -0.724 0.927
407409 11.154 -2.374 -0.261 -0.281 -0.755 0.956
407419 11.425 -2.514 -0.266 -0.272 -0.792 0.982
407430 11.696 -2.595 -0.103 -0.300 -0.829 1.015
407440 11.832 -2.420 0.048 -0.338 -0.865 1.045
407449 11.814 -2.158 0.279 -0.377 -0.907 1.088
407459 11.785 -2.013 0.315 -0.398 -0.961 1.139
407470 12.565 -1.369 0.116 -0.407 -1.039 1.205
407480 13.372 -0.241 1.128 -0.361 -1.146 1.260
407490 13.716 0.008 2.013 -0.282 -1.208 1.365
407499 14.213 0.225 1.610 -0.293 -1.244 1.499
407510 14.512 0.769 1.788 -0.314 -1.318 1.645
407520 15.085 1.869 2.549 -0.305 -1.347 1.802
407530 15.691 2.176 3.027 -0.244 -1.328 1.949
407539 15.763 1.305 2.861 -0.158 -1.314 2.095
407549 16.370 0.814 2.296 -0.098 -1.341 2.279
407560 16.677 1.355 2.824 -0.015 -1.375 2.428
407570 16.263 1.258 2.969 0.146 -1.353 2.496
407580 15.418 0.265 3.568 0.310 -1.340 2.511
407589 14.378 1.093 3.732 0.402 -1.360 2.401
407600 13.231 0.742 3.297 0.454 -1.414 2.163
407610 12.932 -0.146 2.807 0.484 -1.411 1.910
407620 14.748 -1.002 0.505 0.602 -1.500 1.873
407629 5.765 -4.026 2.452 0.490 -1.343 1.937
407640 4.607 -6.710 3.371 0.342 -0.937 1.748
407650 8.368 -3.949 2.302 0.194 -0.742 1.478
407660 7.020 0.656 3.272 0.261 -0.636 1.018
407670 7.153 3.597 2.966 0.378 -0.540 0.431
407680 7.212 3.727 2.083 0.443 -0.547 -0.093
407690 6.351 3.105 1.521 0.465 -0.540 -0.477
407700 5.360 2.461 1.578 0.526 -0.456 -0.793
407710 5.257 1.755 1.665 0.642 -0.353 -1.080
407719 5.677 1.352 1.970 0.835 -0.264 -1.352
407730 6.069 1.311 2.201 1.119 -0.178 -1.648
407740 6.165 1.136 2.151 1.435 -0.095 -1.987
407750 6.117 1.026 1.999 1.689 -0.007 -2.356
407760 6.327 0.627 1.930 1.850 0.093 -2.743
407770 6.484 0.129 1.894 1.877 0.193 -3.109
407780 6.483 -0.012 2.089 1.793 0.283 -3.403
407790 6.510 0.265 2.393 1.697 0.368 -3.670
407800 6.719 0.797 2.768 1.649 0.476 -3.940
407810 7.235 0.372 2.947 1.646 0.612 -4.238
407820 7.757 -0.257 3.092 1.601 0.716 -4.479
407830 8.094 -0.184 3.649 1.454 0.860 -4.707
407840 9.093 -1.822 3.998 1.396 1.019 -4.912
407851 9.536 -2.236 4.009 1.164 1.169 -5.118
407860 10.461 -2.146 3.895 1.028 1.304 -5.304
407870 10.864 -3.015 3.770 0.930 1.440 -5.453
407880 12.217 -2.953 3.659 0.765 1.582 -5.595
407890 13.601 -2.843 3.183 0.681 1.694 -5.685
407900 14.526 -3.932 2.461 0.605 1.732 -5.732
407910 16.004 -5.532 1.628 0.372 1.782 -5.730
407920 17.452 -7.373 0.858 0.046 1.808 -5.682
407930 18.471 -9.410 0.193 -0.324 1.796 -5.566
407941 19.024 -11.229 -0.162 -0.673 1.772 -5.350
407950 18.647 -12.274 -0.226 -0.906 1.729 -5.023
407960 17.663 -12.154 -0.123 -0.960 1.661 -4.603
407970 16.503 -12.045 -0.208 -0.932 1.603 -4.128
407981 15.844 -13.470 -0.957 -0.913 1.577 -3.619
407990 15.167 -15.607 -2.279 -0.997 1.504 -3.048
408000 14.433 -16.345 -3.878 -1.135 1.342 -2.366
408010 13.871 -16.016 -5.356 -1.130 1.080 -1.643
408020 13.244 -15.344 -6.218 -0.972 0.756 -0.867
408031 12.865 -14.484 -6.262 -0.704 0.397 -0.074
408040 12.777 -13.615 -5.841 -0.294 0.033 0.717
408050 12.583 -12.672 -4.997 0.228 -0.294 1.463
408056 12.698 -11.631 -4.226 0.628 -0.479 1.971
408066 13.402 -2.842 0.977 0.987 -0.496 2.278
408076 11.493 12.438 6.668 1.504 -0.339 2.015
408085 11.607 25.131 7.481 1.576 -0.019 1.323
408095 13.472 16.755 -0.666 0.986 -0.256 1.096
408105 18.806 -0.554 -8.677 0.854 -0.530 1.944
408116 19.257 -12.887 -3.522 1.389 -0.395 2.952
408125 20.992 -15.471 -2.112 1.594 -0.211 3.254
408135 17.080 -7.257 -0.485 0.958 -0.331 2.914
408145 9.239 0.161 -0.832 0.788 -0.180 2.449
408156 6.223 -1.518 1.120 0.890 0.033 2.147
408166 6.393 -3.729 3.380 0.827 0.059 1.941
408175 7.752 -2.250 3.840 0.602 0.022 1.651
408185 9.520 -2.528 2.563 0.325 -0.117 1.441
408196 10.423 -1.877 1.887 0.091 -0.177 1.268
408206 10.840 -1.494 1.774 -0.131 -0.166 1.125
408215 10.548 -1.223 2.175 -0.394 -0.163 1.007
408225 9.854 -0.559 1.875 -0.597 -0.180 0.897
408236 9.490 0.028 1.277 -0.641 -0.166 0.803
408246 9.277 0.454 0.991 -0.509 -0.101 0.736
408256 9.564 0.396 1.154 -0.340 -0.035 0.702
408265 9.807 0.884 1.440 -0.240 0.015 0.708
408271 9.780 0.766 1.784 -0.182 0.035 0.717
408281 9.704 -0.087 2.125 -0.200 0.025 0.723
408291 9.610 -0.761 2.205 -0.311 0.001 0.681
408301 9.490 -1.017 2.316 -0.448 -0.023 0.602
408310 9.430 -1.007 2.222 -0.595 -0.039 0.522
408321 9.454 -0.519 2.241 -0.709 -0.053 0.459
408331 9.461 0.023 2.188 -0.768 -0.044 0.437
408341 9.588 0.295 1.675 -0.733 -0.026 0.448
408350 9.707 0.512 1.335 -0.596 -0.015 0.473
408360 9.753 0.811 1.375 -0.443 -0.011 0.523
408371 9.838 0.418 1.568 -0.283 -0.018 0.588
408381 9.747 -0.252 1.937 -0.202 -0.042 0.651
408391 9.650 -0.754 2.181 -0.204 -0.072 0.682
408400 9.719 -0.758 2.102 -0.278 -0.098 0.700
408411 9.598 -0.596 2.547 -0.356 -0.130 0.728
408421 9.650 -0.284 2.766 -0.384 -0.160 0.783
408431 9.686 0.146 2.756 -0.374 -0.194 0.873
408440 9.927 -0.054 1.973 -0.291 -0.258 0.972
408451 10.181 -0.639 1.284 -0.204 -0.336 1.052
408461 10.427 -0.646 1.420 -0.249 -0.358 1.132
408471 10.383 -0.778 1.758 -0.354 -0.377 1.191
408481 10.338 -0.837 1.646 -0.422 -0.388 1.249
408491 10.225 -0.760 1.709 -0.452 -0.397 1.299
408501 10.387 -1.464 1.845 -0.441 -0.417 1.313
408511 10.345 -2.035 1.800 -0.462 -0.420 1.296
408521 10.301 -2.473 1.750 -0.502 -0.449 1.243
408530 10.285 -2.437 2.005 -0.553 -0.501 1.188
408541 10.375 -2.030 2.367 -0.613 -0.519 1.158
408551 10.663 -1.628 1.983 -0.612 -0.539 1.142
408561 10.870 -1.883 1.655 -0.610 -0.551 1.182
408571 11.036 -1.877 1.360 -0.625 -0.578 1.237
408581 11.165 -1.239 1.664 -0.626 -0.617 1.300
408591 11.307 -1.377 1.967 -0.597 -0.646 1.373
408597 11.458 -1.618 1.930 -0.591 -0.658 1.438
408606 11.731 -2.005 1.592 -0.605 -0.678 1.511
408616 12.052 -1.842 0.863 -0.648 -0.721 1.594
408626 12.124 -2.376 -0.016 -0.665 -0.783 1.666
408636 12.259 -2.868 -0.091 -0.758 -0.810 1.757
408646 12.534 -2.400 -0.771 -0.876 -0.838 1.849
408656 13.113 -1.591 -1.384 -0.949 -0.888 1.929
408666 14.135 -0.905 -1.365 -0.953 -0.970 1.983
408676 14.881 -0.663 -0.460 -0.948 -1.054 2.041
408686 15.824 -0.122 -0.171 -1.031 -1.094 2.134
408696 16.511 1.426 0.055 -1.168 -1.120 2.235
408707 17.053 2.667 0.834 -1.259 -1.193 2.353
408716 18.064 4.125 2.252 -1.341 -1.219 2.433
408726 19.091 5.060 4.296 -1.371 -1.183 2.464
408736 20.050 4.051 4.829 -1.383 -1.111 2.577
408747 19.816 3.145 4.136 -1.196 -1.144 2.842
408756 18.104 4.651 4.618 -0.764 -1.176 2.983
408766 16.997 3.618 3.592 -0.299 -1.205 2.927
408776 14.788 3.171 4.416 -0.169 -1.331 2.677
408786 13.818 1.994 3.590 -0.310 -1.473 2.306
408797 17.269 2.424 0.455 -0.261 -1.713 2.079
408806 12.318 1.962 2.115 -0.007 -1.796 2.083
408816 7.532 0.400 1.262 -0.129 -1.328 1.915
408826 0.600 -2.817 2.837 -0.203 -0.946 1.437
408837 0.304 -6.681 2.861 -0.052 -0.466 0.996
408846 0.946 -2.808 4.391 0.211 -0.254 0.461
408856 1.097 0.912 3.746 0.775 -0.160 -0.411
408866 3.031 2.027 1.958 1.045 -0.104 -1.087
408877 4.132 1.973 0.968 0.968 0.014 -1.465
408887 3.913 1.836 1.828 0.808 0.240 -1.718
408896 3.556 3.320 1.887 0.740 0.530 -2.049
408906 2.799 2.989 2.533 0.827 0.678 -2.513
408916 2.346 2.097 2.666 0.899 0.822 -2.855
408922 2.822 1.824 2.471 0.944 0.894 -3.021
408932 3.556 1.649 2.139 0.975 0.894 -3.158
408941 4.406 1.133 1.670 0.961 0.861 -3.411
408951 5.024 0.381 1.582 0.952 0.866 -3.739
408962 5.780 -0.448 1.530 0.937 0.926 -4.039
408972 6.482 -0.415 1.685 0.752 1.021 -4.313
408981 7.455 -0.424 1.663 0.455 1.130 -4.574
408991 8.441 -0.509 1.621 0.148 1.220 -4.798
409001 9.521 -0.833 1.535 -0.132 1.302 -4.973
409012 10.358 -1.098 1.410 -0.355 1.383 -5.108
409022 11.226 -1.076 1.233 -0.552 1.484 -5.213
409027 11.961 -0.756 1.108 -0.645 1.586 -5.277
409036 12.739 -0.420 1.208 -0.561 1.735 -5.317
409047 13.980 -0.337 1.477 -0.186 1.941 -5.350
409057 15.353 -1.098 1.714 0.334 2.114 -5.385
409067 16.652 -2.414 1.969 0.770 2.213 -5.406
409076 17.684 -4.708 1.488 1.009 2.261 -5.376
409086 18.079 -6.611 0.944 0.935 2.202 -5.346
409097 18.258 -7.871 0.385 0.606 2.111 -5.310
409107 18.710 -8.716 0.003 0.161 2.076 -5.163
409116 19.148 -8.941 -0.781 -0.338 2.001 -4.909
409126 19.099 -10.012 -0.996 -0.772 1.888 -4.588
409137 18.299 -12.495 -0.797 -1.121 1.756 -4.120
409147 17.032 -14.403 -0.945 -1.323 1.636 -3.575
409157 15.835 -16.079 -2.642 -1.466 1.461 -2.866
409166 14.517 -17.196 -5.063 -1.556 1.212 -2.055
409177 12.898 -16.837 -6.449 -1.564 0.900 -1.177
409187 12.296 -15.258 -6.545 -1.435 0.516 -0.265
409197 12.509 -12.858 -6.011 -1.080 0.085 0.597
409206 12.965 -11.117 -5.211 -0.541 -0.323 1.376
409217 14.690 -6.062 -1.537 0.125 -0.521 1.974
409227 12.296 1.165 2.508 0.810 -0.661 2.314
409237 12.898 22.976 7.912 1.197 -0.425 2.017
409246 13.377 25.696 0.426 0.868 -0.576 1.327
409256 15.349 8.994 -9.092 0.572 -0.722 1.850
409267 17.130 -5.699 -5.610 0.862 -0.748 2.779
409277 18.059 -11.570 -0.886 1.782 -0.449 3.383
409287 19.899 -11.243 -0.779 1.878 -0.462 3.343
409296 14.104 -4.039 -1.338 1.729 -0.565 2.896
409307 8.247 0.305 -0.726 1.801 -0.260 2.484
409317 5.692 -1.408 2.820 1.831 -0.040 2.246
409327 5.901 -4.448 4.624 1.591 -0.060 1.907
409336 7.682 -6.287 3.890 1.030 -0.204 1.615
409347 9.759 -4.409 2.389 0.148 -0.394 1.389
409357 10.466 -2.393 1.986 -0.481 -0.406 1.162
409367 10.724 -1.418 1.667 -0.863 -0.342 1.001
409377 9.964 0.083 1.174 -1.041 -0.275 0.902
409387 9.401 1.362 0.795 -0.875 -0.173 0.861
409397 9.252 1.541 1.256 -0.484 -0.088 0.841
409407 9.446 1.994 1.860 -0.045 -0.043 0.840
409417 9.591 1.468 1.849 0.305 -0.041 0.880
409426 9.484 0.563 2.086 0.416 -0.058 0.890
409437 9.753 -0.133 2.511 0.280 -0.082 0.880
409447 9.937 -0.968 2.890 -0.039 -0.115 0.860
409457 9.786 -1.780 2.183 -0.375 -0.157 0.786
409462 9.737 -1.700 1.537 -0.558 -0.184 0.707
409472 9.684 -1.081 0.747 -0.711 -0.158 0.647
409482 9.932 -0.431 0.334 -0.833 -0.095 0.622
409492 10.040 0.377 0.867 -0.799 -0.045 0.649
409502 9.854 0.296 1.586 -0.663 -0.038 0.699
409512 9.752 -0.510 1.859 -0.544 -0.033 0.739
409522 9.743 -0.995 2.061 -0.537 -0.046 0.742
409532 9.642 -0.662 2.674 -0.554 -0.105 0.713
409542 9.515 -0.360 2.885 -0.555 -0.171 0.698
409552 9.472 -0.545 2.452 -0.520 -0.212 0.695
409562 9.527 -0.661 1.855 -0.459 -0.235 0.719
409572 9.613 -0.484 1.806 -0.398 -0.248 0.750
409582 9.642 -0.337 1.981 -0.337 -0.251 0.786
409592 9.744 -0.685 1.865 -0.307 -0.253 0.831
409603 9.761 -0.918 1.596 -0.308 -0.246 0.860
409612 9.780 -1.403 1.321 -0.312 -0.243 0.874
409622 9.811 -1.536 1.071 -0.320 -0.239 0.873
409632 9.879 -1.638 1.105 -0.319 -0.245 0.865
409643 9.988 -1.544 1.386 -0.345 -0.244 0.857
409652 9.744 -1.526 1.682 -0.360 -0.254 0.852
409662 9.908 -1.660 1.815 -0.374 -0.262 0.860
409672 10.000 -1.371 1.881 -0.401 -0.269 0.874
409677 10.101 -1.250 1.867 -0.410 -0.279 0.885
409688 10.311 -1.815 1.767 -0.415 -0.295 0.902
409697 10.351 -2.030 1.533 -0.502 -0.295 0.925
409707 10.356 -1.673 1.310 -0.581 -0.301 0.949
409717 10.638 -1.712 0.646 -0.607 -0.324 0.984
409728 10.541 -1.652 0.385 -0.608 -0.347 1.044
409738 10.813 -1.630 0.385 -0.609 -0.377 1.111
409747 10.913 -1.663 0.697 -0.597 -0.429 1.183
409757 11.217 -2.072 1.140 -0.615 -0.479 1.261
409767 11.389 -1.967 1.636 -0.658 -0.538 1.325
409778 11.426 -1.818 2.210 -0.685 -0.603 1.391
409787 11.701 -2.089 2.011 -0.695 -0.663 1.467
409797 11.954 -2.590 1.549 -0.745 -0.731 1.547
409807 12.118 -2.782 1.196 -0.853 -0.787 1.627
409818 12.279 -2.526 0.577 -0.979 -0.823 1.694
409828 13.141 -2.829 -0.365 -1.099 -0.895 1.772
409837 13.718 -1.706 -0.943 -1.199 -0.971 1.865
409847 14.554 -1.258 -1.036 -1.226 -1.067 1.922
409858 15.163 -1.031 -0.734 -1.291 -1.132 1.991
409868 15.816 0.058 -1.147 -1.406 -1.167 2.092
409877 16.347 1.301 -1.002 -1.554 -1.249 2.181
409887 17.011 3.310 0.068 -1.680 -1.318 2.264
409893 17.894 4.439 1.063 -1.721 -1.316 2.294
409903 19.056 4.646 2.325 -1.732 -1.287 2.297
409913 19.232 4.614 4.114 -1.601 -1.280 2.391
409922 18.115 4.058 5.185 -1.446 -1.227 2.555
409932 16.820 3.286 4.766 -1.003 -1.256 2.715
409943 16.371 3.239 4.750 -0.473 -1.283 2.792
409953 15.416 1.628 4.204 -0.076 -1.359 2.741
409963 13.906 1.061 4.326 0.053 -1.374 2.537
409972 13.324 1.561 2.817 0.012 -1.476 2.194
409982 14.257 1.416 1.549 0.074 -1.680 1.950
409993 10.435 1.043 2.262 0.098 -1.628 1.944
410003 6.123 -0.273 2.259 -0.083 -1.144 1.725
410012 1.780 -1.966 4.385 -0.086 -0.711 1.383
410022 2.036 -4.647 3.488 -0.062 -0.228 1.134
410033 1.857 -4.647 3.712 0.219 -0.086 0.849
410043 0.821 -3.786 3.080 0.569 -0.066 0.202
410053 2.135 -2.806 1.489 0.783 -0.112 -0.472
410062 3.027 -1.870 0.342 0.778 -0.110 -1.049
410073 3.191 -1.338 0.372 0.642 -0.049 -1.552
410083 2.682 -0.745 0.566 0.506 0.092 -1.954
410093 2.450 -0.626 0.844 0.288 0.332 -2.234
410102 3.575 0.114 0.312 0.124 0.567 -2.348
410113 3.349 1.857 -0.113 0.231 0.595 -2.503
410123 3.120 2.067 -0.218 0.373 0.616 -2.770
410133 3.903 0.971 0.105 0.482 0.708 -3.034
410143 4.999 0.004 0.401 0.611 0.789 -3.271
410152 5.591 -0.646 0.822 0.708 0.844 -3.518
410163 6.404 -1.068 0.500 0.789 0.925 -3.749
410173 7.149 -1.865 0.211 0.831 0.993 -3.943
410183 7.837 -2.231 0.013 0.784 1.051 -4.129
410192 8.476 -2.113 0.369 0.720 1.106 -4.311
410203 9.849 -1.831 0.167 0.754 1.179 -4.427
410213 10.575 -2.485 0.591 0.837 1.212 -4.539
410218 10.709 -2.612 0.594 0.867 1.280 -4.603
410228 11.105 -2.377 0.919 0.918 1.291 -4.639
410237 12.049 -2.283 1.241 1.094 1.350 -4.650
410248 12.963 -2.174 1.539 1.429 1.436 -4.649
410258 13.572 -2.746 1.836 1.761 1.502 -4.689
410268 14.250 -3.985 2.112 1.971 1.546 -4.710
410277 14.984 -5.463 2.153 1.983 1.555 -4.698
410288 15.454 -7.010 1.800 1.710 1.520 -4.673
410298 15.944 -7.883 0.934 1.239 1.436 -4.576
410308 16.104 -7.757 0.117 0.696 1.292 -4.442
410318 15.774 -6.312 0.031 0.281 1.167 -4.274
410328 15.519 -4.611 -0.024 0.070 1.079 -4.110
410338 15.009 -3.852 -0.036 0.065 1.022 -3.933
410348 14.417 -4.427 0.440 0.209 1.048 -3.711
410358 13.669 -5.823 0.910 0.440 1.136 -3.427
410369 12.975 -7.428 0.406 0.608 1.218 -3.079
410378 12.527 -8.489 -0.779 0.640 1.233 -2.678
410388 12.427 -8.904 -1.859 0.634 1.183 -2.233
410398 12.283 -8.331 -2.540 0.679 1.082 -1.745
410408 12.078 -7.896 -2.856 0.848 0.914 -1.227
410418 11.607 -8.352 -2.680 1.068 0.669 -0.682
410428 11.097 -9.526 -2.161 1.173 0.406 -0.145
410434 10.788 -10.223 -1.571 1.146 0.239 0.244
410443 10.588 -10.351 -1.189 1.032 0.118 0.621
410454 11.146 -9.072 -0.890 0.863 -0.010 1.101
410463 12.984 -4.392 -0.799 0.780 -0.092 1.431
410473 11.634 0.783 -0.374 0.827 -0.269 1.759
410483 11.777 13.752 1.640 0.869 -0.341 1.548
410493 11.480 15.032 2.669 0.708 -0.187 1.217
410504 13.448 6.187 -0.339 0.539 -0.126 1.376
410513 15.875 -2.545 -3.322 0.526 -0.170 1.873
410523 16.227 -4.130 -1.900 0.626 -0.124 2.351
410533 15.685 -4.839 1.374 0.928 0.060 2.559
410544 15.845 -2.693 2.028 1.317 0.207 2.577
410553 11.912 1.465 1.628 1.665 0.181 2.331
410563 7.562 0.065 0.428 1.864 0.260 1.999
410573 6.522 -2.455 1.051 1.833 0.284 1.874
410584 7.175 -3.549 2.283 1.584 0.261 1.641
410594 9.214 -4.081 2.101 1.069 0.282 1.437
410603 10.115 -1.989 1.274 0.455 0.230 1.258
410613 9.974 -0.486 0.880 0.099 0.240 1.097
410624 10.189 0.068 1.286 -0.048 0.317 0.962
410634 9.968 0.757 1.909 -0.053 0.349 0.849
410643 9.837 1.349 1.943 0.035 0.339 0.796
410653 9.927 1.224 1.095 0.176 0.284 0.760
410663 10.128 0.720 0.347 0.277 0.234 0.735
410674 10.241 0.024 0.318 0.292 0.184 0.707
410684 10.216 -0.370 0.558 0.220 0.158 0.672
410693 10.187 -0.487 1.131 0.100 0.128 0.633
410703 9.973 -0.262 1.391 -0.022 0.100 0.586
410714 9.770 0.161 1.446 -0.095 0.085 0.530
410724 9.646 0.163 1.369 -0.121 0.086 0.499
410733 9.616 0.072 1.123 -0.158 0.103 0.461
410743 9.676 -0.001 0.749 -0.178 0.130 0.424
410754 9.791 0.104 0.859 -0.200 0.160 0.393
410759 9.792 0.113 1.161 -0.241 0.172 0.372
410769 9.685 0.076 1.438 -0.278 0.177 0.346
410778 9.543 -0.012 1.708 -0.284 0.170 0.304
410788 9.497 0.004 1.849 -0.295 0.152 0.268
410799 9.607 -0.008 2.076 -0.314 0.130 0.235
410809 9.524 0.295 2.000 -0.332 0.109 0.208
410819 9.630 0.340 1.700 -0.288 0.081 0.202
410828 9.679 0.462 1.639 -0.236 0.064 0.208
410839 9.616 0.372 1.697 -0.179 0.048 0.226
410849 9.528 0.253 1.666 -0.123 0.039 0.242
410859 9.598 0.095 1.675 -0.091 0.031 0.251
410868 9.617 0.096 1.726 -0.088 0.021 0.255
410878 9.763 -0.066 1.829 -0.108 0.014 0.260
410889 9.771 0.001 1.883 -0.123 0.000 0.262
410899 9.812 -0.054 1.827 -0.107 -0.024 0.272
410909 9.850 -0.218 1.628 -0.117 -0.046 0.288
410918 9.959 -0.314 1.481 -0.139 -0.076 0.307
410929 10.023 -0.225 1.629 -0.157 -0.108 0.329
410939 9.993 -0.145 1.527 -0.159 -0.139 0.361
410949 10.042 -0.195 1.640 -0.170 -0.159 0.399
410958 9.909 0.014 1.718 -0.186 -0.170 0.430
410969 9.767 -0.245 1.432 -0.200 -0.168 0.453
410975 9.650 -0.747 1.221 -0.239 -0.154 0.458
410984 9.401 -0.891 1.310 -0.277 -0.126 0.443
410994 9.594 -0.883 1.508 -0.330 -0.095 0.402
411003 9.722 -0.407 1.660 -0.311 -0.102 0.349
411014 9.768 -0.525 1.502 -0.271 -0.105 0.318
411024 9.715 -0.753 1.134 -0.231 -0.095 0.300
411034 9.624 -0.640 1.007 -0.220 -0.071 0.279
411044 9.654 -0.442 1.301 -0.226 -0.042 0.255
411054 9.648 -0.361 1.351 -0.233 -0.024 0.247
411064 9.680 -0.073 1.681 -0.232 -0.013 0.254
411074 9.710 -0.120 2.150 -0.192 -0.027 0.266
411084 9.761 -0.608 2.004 -0.167 -0.054 0.267
411094 9.719 -0.685 1.815 -0.192 -0.065 0.278
411104 9.677 -0.415 1.624 -0.198 -0.075 0.293
411114 9.813 -0.485 1.162 -0.192 -0.081 0.310
411124 9.804 -0.173 1.108 -0.157 -0.091 0.334
411134 9.654 -0.042 1.058 -0.074 -0.099 0.375
411144 9.771 -0.001 1.029 0.021 -0.098 0.406
411154 9.941 -0.609 1.472 0.096 -0.099 0.443
411164 9.817 -0.649 1.282 0.134 -0.109 0.452
411174 9.813 -1.007 0.929 0.154 -0.116 0.440
411184 9.889 -1.040 0.597 0.172 -0.127 0.420
411194 9.801 -0.784 0.270 0.182 -0.121 0.412
411204 9.718 -0.622 0.094 0.245 -0.120 0.415
411214 9.944 -0.286 0.053 0.367 -0.127 0.425
411224 10.271 0.372 0.048 0.522 -0.137 0.416
411234 10.181 0.303 -0.139 0.773 -0.153 0.387
411244 10.481 0.041 0.205 0.973 -0.185 0.409
411254 10.639 0.129 -0.138 1.062 -0.206 0.447
411265 10.843 0.363 -0.949 1.194 -0.253 0.497
411274 10.830 0.922 -0.354 1.351 -0.311 0.557
411284 10.875 0.868 -0.675 1.538 -0.347 0.608
411294 10.745 0.480 -1.361 1.775 -0.412 0.663
411299 10.500 0.520 -2.332 1.984 -0.472 0.683
411310 10.217 1.149 -3.148 2.265 -0.555 0.706
411319 9.794 1.626 -3.849 2.724 -0.667 0.736
411329 9.665 2.118 -3.492 3.242 -0.761 0.742
411339 9.944 2.240 -4.214 3.779 -0.863 0.766
411350 9.603 2.135 -3.384 4.299 -0.967 0.760
411360 9.800 2.191 -2.418 4.776 -1.040 0.764
411369 9.868 2.400 -1.632 5.186 -1.109 0.775
411379 9.700 2.152 0.257 5.487 -1.150 0.768
411389 9.891 2.248 1.430 5.671 -1.159 0.753
411400 10.065 1.933 2.317 5.758 -1.157 0.745
411409 9.886 1.366 3.093 5.777 -1.153 0.730
411419 9.789 0.941 4.216 5.686 -1.098 0.706
411429 9.288 0.097 4.615 5.526 -1.048 0.666
411440 8.919 -0.208 5.022 5.291 -0.976 0.619
411449 8.517 -1.026 5.152 5.046 -0.901 0.576
411459 8.561 -1.341 5.019 4.765 -0.802 0.539
411469 8.499 -1.622 4.908 4.487 -0.723 0.526
411480 8.785 -1.507 4.199 4.231 -0.652 0.523
411490 8.757 -1.845 4.077 4.004 -0.610 0.541
411499 8.876 -1.887 4.648 3.768 -0.576 0.565
411509 9.021 -1.830 4.774 3.547 -0.562 0.580
411515 8.791 -2.279 4.946 3.400 -0.574 0.588
411525 8.620 -2.347 5.789 3.228 -0.567 0.596
411535 8.583 -2.495 6.637 2.957 -0.545 0.590
411544 8.469 -3.250 7.203 2.622 -0.505 0.563
411554 8.212 -4.064 7.649 2.211 -0.440 0.506
411565 8.267 -4.715 7.567 1.763 -0.334 0.421
411575 8.371 -5.319 6.584 1.283 -0.240 0.317
411584 8.611 -5.162 4.868 0.817 -0.150 0.200
411594 8.950 -4.263 3.264 0.444 -0.068 0.086
411604 9.719 -3.553 2.137 0.199 0.017 -0.001
411615 10.156 -2.629 0.570 0.050 0.084 -0.063
411625 10.214 -2.435 -0.236 -0.020 0.123 -0.092
411634 10.281 -2.291 0.128 -0.020 0.150 -0.107
411644 10.041 -2.023 0.991 0.012 0.158 -0.124
411655 9.679 -2.108 1.598 0.039 0.164 -0.128
411665 9.503 -2.331 1.778 0.015 0.181 -0.129
411674 9.648 -2.350 1.834 -0.064 0.198 -0.130
411684 9.647 -2.159 1.495 -0.169 0.204 -0.115
411695 9.515 -1.957 1.220 -0.228 0.208 -0.094
411705 9.405 -1.934 1.038 -0.219 0.205 -0.068
411715 9.515 -1.952 0.962 -0.177 0.193 -0.037
411724 9.407 -2.240 1.313 -0.143 0.181 -0.012
411735 9.558 -2.369 1.530 -0.147 0.172 0.001
411745 9.707 -2.161 1.784 -0.181 0.155 0.009
411755 9.697 -1.735 2.039 -0.174 0.112 0.009
411764 9.703 -1.634 1.774 -0.142 0.089 0.031
411774 9.834 -1.847 1.302 -0.108 0.076 0.055
411785 9.993 -1.797 1.235 -0.080 0.073 0.072
411795 9.992 -2.054 1.495 -0.075 0.073 0.081
411805 9.745 -2.335 1.335 -0.099 0.074 0.080
411814 9.725 -2.547 1.409 -0.146 0.076 0.074
411825 9.847 -2.513 1.644 -0.217 0.067 0.071
411835 9.949 -2.481 2.054 -0.300 0.050 0.078
411845 10.103 -2.110 2.310 -0.399 0.041 0.109
411854 10.256 -2.084 2.450 -0.512 0.042 0.153
411865 10.559 -2.448 1.829 -0.611 0.042 0.193
411875 10.497 -2.352 1.497 -0.690 0.042 0.232
411885 10.299 -2.118 1.932 -0.738 0.041 0.274
411895 10.425 -2.070 1.860 -0.717 0.040 0.301
411905 10.251 -2.594 1.529 -0.693 0.014 0.313
411915 10.317 -2.359 1.353 -0.707 -0.001 0.294
411925 10.026 -2.580 0.631 -0.721 -0.044 0.281
411935 9.884 -1.603 0.300 -0.694 -0.063 0.264
411944 9.872 -2.405 0.169 -0.586 -0.102 0.261
411955 9.855 -2.472 0.645 -0.553 -0.155 0.301
411965 9.677 -2.205 1.393 -0.560 -0.190 0.343
411975 9.634 -2.238 1.834 -0.564 -0.230 0.384
411985 9.677 -1.951 2.264 -0.563 -0.272 0.419
411995 9.549 -1.792 2.314 -0.529 -0.317 0.448
412005 9.677 -2.109 1.983 -0.483 -0.350 0.490
412015 9.801 -2.398 1.482 -0.473 -0.390 0.537
412025 9.870 -2.437 1.032 -0.493 -0.425 0.579
412035 10.043 -2.547 0.521 -0.519 -0.454 0.626
412045 10.187 -2.533 0.225 -0.538 -0.489 0.672
412055 10.270 -2.137 0.636 -0.501 -0.545 0.710
412065 10.164 -1.989 1.144 -0.419 -0.583 0.738
412076 10.120 -2.225 1.187 -0.324 -0.595 0.767
412085 10.147 -2.781 1.123 -0.266 -0.611 0.789
412095 10.089 -2.841 1.235 -0.260 -0.628 0.807
412105 10.037 -2.802 1.444 -0.265 -0.631 0.823
412115 10.168 -2.557 1.242 -0.250 -0.648 0.856
412125 10.479 -2.180 1.585 -0.188 -0.676 0.897
412135 10.770 -2.391 1.679 -0.119 -0.701 0.951
412145 10.958 -2.504 1.721 -0.086 -0.735 1.021
412155 11.048 -2.234 1.484 -0.121 -0.759 1.098
412165 11.273 -2.294 0.869 -0.163 -0.788 1.189
412175 11.672 -2.416 0.399 -0.223 -0.824 1.278
412185 12.016 -2.242 -0.145 -0.307 -0.861 1.370
412195 12.919 -1.526 -1.250 -0.404 -0.918 1.451
412206 13.958 -0.351 -0.976 -0.428 -1.008 1.511
412215 14.031 0.139 -0.377 -0.396 -1.039 1.586
412225 14.081 0.011 -0.896 -0.430 -1.020 1.685
412235 14.161 0.578 -0.834 -0.542 -1.075 1.770
412246 14.775 1.836 0.557 -0.612 -1.134 1.851
412256 15.740 1.845 2.094 -0.552 -1.193 1.954
412265 16.517 1.950 3.134 -0.454 -1.227 2.087
412271 17.034 1.496 3.206 -0.349 -1.245 2.190
412280 17.117 1.374 3.450 -0.236 -1.247 2.319
412291 16.791 2.240 3.382 -0.072 -1.248 2.424
412301 16.128 1.416 3.364 0.126 -1.306 2.474
412310 15.351 2.488 2.727 0.297 -1.402 2.388
412320 14.375 1.010 2.416 0.398 -1.569 2.152
412331 17.767 -0.428 1.051 0.612 -1.733 2.001
412341 13.493 -2.681 2.629 0.927 -1.845 2.066
412350 5.762 -4.386 2.185 0.635 -1.456 2.039
412360 2.117 -6.948 4.545 0.573 -1.112 1.572
412370 7.296 -3.747 3.260 0.582 -0.729 1.228
412381 6.096 1.325 3.847 0.543 -0.506 0.725
412391 6.538 4.240 3.103 0.551 -0.352 0.185
412400 6.876 4.545 2.537 0.507 -0.388 -0.313
412410 5.802 3.642 2.468 0.405 -0.392 -0.720
412421 4.475 2.600 2.619 0.345 -0.277 -1.086
412431 4.005 1.556 2.705 0.333 -0.120 -1.403
412440 4.131 0.684 2.619 0.381 0.024 -1.689
412450 4.351 0.386 2.363 0.519 0.141 -1.991
412461 4.605 0.575 1.906 0.691 0.239 -2.352
412471 4.715 0.632 1.586 0.846 0.338 -2.758
412481 4.854 0.568 1.366 0.957 0.449 -3.125
412490 5.376 0.589 1.363 1.007 0.576 -3.454
412500 5.990 0.442 1.568 1.052 0.688 -3.716
412511 6.578 0.414 1.970 1.087 0.787 -3.978
412521 7.439 0.413 2.118 1.124 0.871 -4.232
412530 8.519 0.022 2.223 1.180 0.962 -4.480
412540 9.467 -0.610 2.574 1.185 1.060 -4.691
412551 10.916 -1.687 2.965 1.177 1.124 -4.832
412561 11.561 -2.795 3.185 1.115 1.201 -4.979
412571 11.796 -2.962 3.307 0.997 1.285 -5.127
412580 11.888 -3.467 3.102 0.867 1.374 -5.236
412591 12.703 -2.515 3.030 0.685 1.467 -5.332
412596 13.510 -2.473 3.098 0.668 1.547 -5.378
412606 14.195 -3.323 3.063 0.639 1.610 -5.406
412616 15.157 -4.968 2.878 0.510 1.666 -5.434
412625 16.000 -7.059 2.507 0.284 1.718 -5.429
412636 16.561 -9.458 1.648 -0.033 1.763 -5.356
412646 16.895 -11.884 0.327 -0.432 1.808 -5.174
412656 17.095 -13.412 -0.691 -0.841 1.846 -4.890
412665 17.007 -13.695 -1.499 -1.113 1.814 -4.519
412676 16.585 -13.046 -2.212 -1.204 1.735 -4.087
412686 16.353 -13.557 -2.977 -1.097 1.639 -3.602
412696 15.705 -15.548 -3.927 -0.827 1.499 -3.005
412706 14.830 -17.221 -5.333 -0.509 1.289 -2.256
412716 14.391 -17.983 -6.584 -0.190 0.999 -1.426
412726 13.747 -18.483 -6.972 0.149 0.664 -0.550
412736 13.140 -18.247 -6.632 0.501 0.312 0.313
412746 12.976 -17.461 -6.115 0.836 -0.018 1.120
412755 13.686 -12.286 -2.491 1.069 -0.253 1.767
412766 12.705 -1.696 -0.493 1.356 -0.332 1.997
412776 10.897 22.070 5.999 1.302 -0.317 1.582
412786 10.929 24.307 2.708 0.982 -0.349 0.857
412796 15.211 8.134 -4.984 0.839 -0.438 1.337
412806 19.080 -8.631 -5.462 1.018 -0.488 2.285
412816 19.964 -14.885 -0.129 1.491 -0.193 2.978
412826 19.200 -11.041 -0.079 1.280 -0.147 3.002
412836 11.283 -2.055 -0.637 1.107 -0.200 2.544
412846 6.859 0.595 0.900 1.276 0.014 2.137
412856 6.513 -3.027 2.279 1.298 0.074 1.908
412866 7.261 -3.929 3.643 0.966 0.012 1.748
412876 9.141 -4.004 2.954 0.477 -0.076 1.521
412887 10.632 -2.982 1.829 -0.016 -0.155 1.336
412896 11.018 -1.961 1.335 -0.360 -0.194 1.215
412906 10.629 -0.946 1.609 -0.624 -0.192 1.117
412916 9.855 -0.310 1.472 -0.720 -0.161 1.044
412926 9.197 0.131 1.067 -0.660 -0.104 0.975
412936 9.289 0.681 1.233 -0.459 -0.029 0.914
412946 9.733 1.191 1.568 -0.192 0.027 0.907
412956 9.955 0.921 2.065 0.007 0.039 0.941
412966 9.835 -0.212 2.586 0.029 -0.001 0.973
412977 9.509 -0.919 2.821 -0.101 -0.066 0.938
412986 9.379 -0.917 2.770 -0.277 -0.116 0.858
412996 9.360 -0.895 2.514 -0.463 -0.140 0.780
413006 9.518 -1.270 1.543 -0.625 -0.137 0.715
413017 9.585 -1.004 0.616 -0.663 -0.121 0.681
413026 9.623 -0.537 0.522 -0.568 -0.102 0.666
413036 9.819 0.023 0.706 -0.400 -0.108 0.684
413046 9.838 -0.026 1.204 -0.230 -0.143 0.732
413057 9.688 -0.474 1.460 -0.105 -0.162 0.775
413067 9.755 -0.905 1.616 -0.087 -0.159 0.791
413076 9.690 -1.081 1.873 -0.139 -0.174 0.787
413086 9.725 -0.910 2.011 -0.163 -0.180 0.783
413096 9.786 -0.937 1.907 -0.210 -0.187 0.806
413107 9.801 -0.941 1.566 -0.208 -0.206 0.823
413116 9.917 -0.864 1.264 -0.196 -0.203 0.848
413126 9.946 -1.237 1.051 -0.176 -0.205 0.856
413136 10.000 -1.442 1.093 -0.200 -0.204 0.876
413147 9.963 -1.344 1.195 -0.255 -0.180 0.905
413157 10.265 -1.822 1.248 -0.297 -0.178 0.948
413166 9.834 -1.275 1.470 -0.362 -0.188 1.002
413176 9.950 -1.324 1.477 -0.373 -0.201 1.047
413187 10.142 -1.333 1.659 -0.381 -0.226 1.105
413197 10.606 -1.353 1.993 -0.381 -0.262 1.161
413206 10.733 -1.706 2.197 -0.403 -0.294 1.206
413216 11.075 -2.169 1.799 -0.475 -0.320 1.247
413227 11.142 -2.100 1.307 -0.552 -0.360 1.271
413237 11.179 -2.080 1.028 -0.588 -0.387 1.299
413246 11.237 -2.187 0.950 -0.596 -0.406 1.334
413256 11.579 -2.337 0.874 -0.598 -0.432 1.378
413266 11.869 -2.319 0.899 -0.611 -0.468 1.435
413277 12.139 -2.288 0.546 -0.636 -0.516 1.500
413287 12.516 -2.617 0.467 -0.687 -0.581 1.582
413296 12.694 -2.227 0.758 -0.769 -0.636 1.674
413306 12.929 -2.258 0.616 -0.839 -0.680 1.752
413317 13.360 -2.353 0.117 -0.944 -0.726 1.832
413327 13.930 -2.391 -0.175 -1.077 -0.797 1.926
413337 14.724 -1.202 -0.257 -1.201 -0.879 2.031
413346 15.442 0.002 0.505 -1.294 -0.979 2.119
413357 16.030 0.861 0.889 -1.401 -1.032 2.232
413367 16.955 2.070 0.868 -1.564 -1.057 2.363
413377 17.543 3.663 1.717 -1.710 -1.046 2.484
413386 18.874 5.222 2.474 -1.774 -1.004 2.577
413396 20.125 5.682 4.497 -1.788 -0.959 2.625
413407 21.243 4.003 4.268 -1.673 -0.944 2.727
413417 19.780 3.493 5.038 -1.309 -1.062 2.970
413427 17.752 3.820 5.644 -0.861 -1.062 3.058
413436 15.533 3.391 5.419 -0.462 -1.105 2.950
413447 13.824 2.616 5.037 -0.377 -1.168 2.601
413457 13.833 1.525 3.161 -0.399 -1.229 2.260
413462 17.357 2.162 0.579 -0.101 -1.371 2.148
413471 9.976 1.525 2.460 0.034 -1.297 2.074
413481 3.433 -1.836 2.217 -0.299 -0.828 1.769
413492 -0.003 -7.309 3.754 -0.579 -0.349 1.327
413502 1.677 -7.526 3.279 -0.896 0.038 0.960
413512 1.642 -1.707 4.513 -1.012 0.189 0.371
413521 2.960 3.681 4.105 -0.737 0.260 -0.415
413532 4.266 5.533 2.159 -0.428 0.296 -0.949
413542 4.095 5.665 0.713 -0.260 0.351 -1.270
413552 3.015 4.580 0.452 -0.162 0.408 -1.618
413561 2.126 3.759 0.310 -0.022 0.584 -1.921
413572 1.836 2.777 1.105 0.106 0.798 -2.191
413582 2.674 2.210 1.496 0.212 0.979 -2.438
413592 3.673 1.977 1.429 0.388 1.081 -2.748
413602 4.796 1.470 0.929 0.622 1.163 -3.089
413612 5.481 0.764 0.626 0.812 1.244 -3.435
413622 6.204 0.182 0.364 0.901 1.327 -3.742
413632 6.915 -0.274 0.246 0.881 1.404 -4.002
413642 7.214 0.609 0.640 0.795 1.487 -4.239
413651 8.546 1.717 0.833 0.890 1.613 -4.475
413662 10.196 -1.362 0.590 0.995 1.700 -4.685
413672 10.061 -1.803 0.600 0.752 1.744 -4.835
413682 10.657 -2.272 1.096 0.449 1.754 -4.990
413692 12.410 -1.464 1.205 0.244 1.799 -5.058
413702 13.013 -1.525 1.142 0.283 1.857 -5.113
413712 13.417 -1.524 1.173 0.477 1.947 -5.148
413722 14.255 -1.841 1.108 0.737 2.016 -5.188
413732 15.216 -2.751 1.052 0.952 2.025 -5.238
413742 16.218 -4.054 1.156 0.941 1.988 -5.284
413752 17.311 -5.632 1.304 0.677 1.950 -5.291
413762 18.151 -7.268 1.405 0.310 1.924 -5.195
413772 18.325 -8.275 1.321 -0.068 1.896 -5.001
413783 18.430 -8.609 0.941 -0.357 1.888 -4.735
413792 18.647 -9.491 0.211 -0.540 1.916 -4.415
413802 19.002 -12.224 -1.247 -0.660 1.935 -4.023
413812 17.937 -15.448 -3.022 -0.816 1.870 -3.481
413822 16.203 -17.244 -4.874 -0.986 1.665 -2.775
413832 14.804 -18.104 -6.711 -1.026 1.316 -1.958
413842 13.429 -18.393 -7.683 -0.942 0.888 -1.050
413852 12.388 -17.616 -7.229 -0.710 0.426 -0.077
413862 13.362 -14.790 -4.712 -0.282 0.014 0.874
413873 15.029 -11.359 -4.835 0.458 -0.287 1.684
413882 12.297 -7.113 3.086 1.129 -0.536 2.578
413893 16.330 26.766 5.632 1.791 -0.564 2.255
413902 15.865 30.464 -1.617 1.543 -0.727 1.463
413913 16.457 2.840 -10.231 0.952 -0.786 2.220
413922 17.924 -12.883 -4.675 1.178 -0.647 3.423
413932 19.716 -13.745 0.582 1.802 -0.477 3.752
413942 17.453 -8.009 0.655 1.702 -0.538 3.359
413953 9.199 -2.489 -2.331 1.396 -0.505 2.860
413963 6.335 -3.637 -0.096 1.375 -0.192 2.539
413972 6.843 -4.880 2.709 1.195 -0.144 2.204
413982 7.675 -4.948 3.920 0.670 -0.190 1.829
413992 9.170 -3.699 2.465 -0.153 -0.297 1.620
414003 9.788 -1.479 1.810 -0.769 -0.287 1.420
414012 10.115 -0.446 1.973 -0.904 -0.175 1.276
414022 9.946 -0.200 1.096 -0.835 -0.110 1.112
414032 9.720 0.626 0.017 -0.613 -0.043 1.007
414043 9.825 0.055 1.072 -0.343 0.008 0.980
414053 9.540 0.481 2.107 -0.148 -0.002 0.949
414062 9.573 0.575 2.127 0.082 -0.022 0.924
414072 9.758 -0.008 2.851 0.159 -0.045 0.899
414083 10.087 -1.532 3.175 -0.025 -0.103 0.825
414093 9.947 -2.244 2.648 -0.364 -0.147 0.711
414102 9.739 -1.639 1.858 -0.675 -0.120 0.595
414112 9.611 -0.348 1.038 -0.792 -0.077 0.534
414123 9.733 -0.157 0.584 -0.704 -0.045 0.530
414133 9.981 -0.387 0.572 -0.626 -0.019 0.549
414143 10.085 -0.612 1.140 -0.564 -0.017 0.561
414152 9.904 -0.985 1.893 -0.549 -0.032 0.553
414162 9.837 -1.181 2.452 -0.606 -0.040 0.532
414173 9.765 -1.049 2.643 -0.689 -0.046 0.521
414183 9.759 -0.956 2.753 -0.773 -0.058 0.525
414192 9.879 -0.607 2.581 -0.819 -0.084 0.533
414202 9.894 -0.537 2.322 -0.801 -0.111 0.552
414213 9.740 -0.335 2.086 -0.737 -0.133 0.574
414218 9.799 -0.673 1.937 -0.671 -0.154 0.591
414228 9.965 -0.569 1.808 -0.629 -0.168 0.601
414237 9.975 -0.766 1.506 -0.565 -0.195 0.612
414247 9.891 -0.885 1.404 -0.511 -0.218 0.637
414258 9.920 -0.974 1.530 -0.451 -0.248 0.656
414268 9.939 -1.195 1.615 -0.421 -0.265 0.683
414278 9.937 -1.322 1.639 -0.412 -0.268 0.703
414287 9.984 -1.509 1.726 -0.418 -0.274 0.720
414298 10.038 -1.775 1.734 -0.440 -0.287 0.735
414308 10.141 -1.869 1.679 -0.501 -0.301 0.765
414318 10.232 -1.842 1.573 -0.573 -0.321 0.802
414327 10.272 -1.605 1.369 -0.632 -0.365 0.855
414338 10.344 -1.264 1.477 -0.671 -0.441 0.926
414348 10.417 -1.059 1.717 -0.683 -0.518 1.012
414358 10.590 -0.983 1.725 -0.683 -0.585 1.105
414368 10.900 -0.835 1.774 -0.679 -0.657 1.204
414377 11.214 -0.543 1.895 -0.648 -0.734 1.306
414388 11.506 -0.351 2.177 -0.595 -0.810 1.410
414398 11.742 -0.304 2.201 -0.511 -0.881 1.521
414408 11.896 -0.739 1.875 -0.418 -0.946 1.644
414417 12.136 -1.288 1.428 -0.376 -1.013 1.748
414428 12.297 -1.833 1.117 -0.416 -1.083 1.843
414438 12.507 -1.693 0.864 -0.522 -1.128 1.921
414448 12.690 -1.598 0.239 -0.608 -1.166 1.992
414458 12.935 -1.472 -0.451 -0.685 -1.205 2.062
414468 13.370 -1.088 -1.303 -0.774 -1.240 2.123
414478 14.417 -0.009 -1.741 -0.861 -1.301 2.162
414488 15.441 1.405 -0.459 -0.896 -1.378 2.174
414498 16.144 2.071 0.984 -0.922 -1.387 2.217
414508 16.709 2.010 1.600 -1.100 -1.334 2.283
414518 16.828 3.606 3.070 -1.305 -1.320 2.352
414528 17.860 4.039 4.919 -1.376 -1.329 2.461
414538 18.933 3.728 6.659 -1.342 -1.332 2.638
414548 19.725 3.547 6.167 -0.984 -1.364 2.891
414558 18.689 4.240 5.855 -0.448 -1.365 3.037
414568 16.979 2.259 4.975 0.061 -1.375 3.042
414578 15.534 1.609 4.319 0.290 -1.409 2.873
414588 14.917 1.404 2.904 0.285 -1.555 2.570
414598 17.386 1.520 1.574 0.596 -1.842 2.432
414608 10.006 -0.832 2.358 0.716 -1.561 2.288
414618 2.134 -4.101 2.912 0.191 -1.100 1.857
414628 2.123 -6.802 2.855 -0.153 -0.718 1.237
414639 4.225 -3.881 2.599 -0.406 -0.515 0.653
414648 2.791 1.328 4.102 -0.462 -0.319 0.008
414658 3.546 4.505 3.728 -0.281 -0.135 -0.604
414668 3.750 4.945 2.455 -0.072 -0.069 -1.096
414679 2.998 4.587 1.871 0.058 0.024 -1.481
414688 2.104 4.499 1.987 0.244 0.189 -1.813
414698 1.817 3.804 2.255 0.488 0.377 -2.121
414708 2.554 2.877 2.564 0.731 0.554 -2.443
414718 3.503 1.822 2.349 1.018 0.693 -2.764
414729 4.147 0.805 2.106 1.292 0.808 -3.092
414738 5.054 -0.014 1.796 1.450 0.912 -3.429
414748 5.944 -0.405 1.542 1.434 1.003 -3.795
414758 6.805 -1.102 1.429 1.259 1.091 -4.137
414769 7.564 -0.349 1.409 1.055 1.168 -4.311
414778 7.994 0.896 1.657 0.853 1.270 -4.517
414788 9.850 0.400 1.310 0.918 1.373 -4.740
414798 10.509 -2.031 1.351 0.994 1.437 -4.868
414809 10.772 -2.958 1.422 0.735 1.481 -4.980
414819 11.816 -2.134 1.705 0.571 1.508 -5.075
414828 12.711 -1.763 1.912 0.559 1.582 -5.149
414838 13.402 -1.802 2.116 0.671 1.661 -5.188
414849 14.130 -2.179 2.355 0.856 1.759 -5.203
414859 15.004 -2.934 2.350 1.053 1.833 -5.210
414868 15.863 -3.922 2.104 1.120 1.848 -5.246
414878 16.533 -4.975 1.876 0.957 1.838 -5.289
414888 17.002 -5.982 1.889 0.631 1.857 -5.286
414899 17.379 -7.282 1.943 0.256 1.903 -5.185
414909 17.646 -8.357 1.916 -0.065 1.960 -4.962
414918 17.792 -9.089 1.295 -0.330 1.986 -4.668
414928 17.829 -9.635 0.151 -0.544 1.957 -4.314
414939 17.669 -10.910 -1.134 -0.689 1.914 -3.922
414949 16.903 -12.727 -2.453 -0.835 1.817 -3.463
414958 15.594 -13.599 -3.590 -0.989 1.643 -2.871
414968 14.383 -14.030 -4.437 -1.019 1.394 -2.210
414974 13.503 -14.423 -4.844 -0.974 1.169 -1.674
414984 12.616 -14.893 -5.015 -0.926 0.910 -1.102
414994 11.808 -15.176 -5.203 -0.809 0.538 -0.295
415003 12.032 -14.679 -5.321 -0.629 0.191 0.506
415013 12.495 -13.946 -5.285 -0.415 -0.128 1.236
415024 13.008 -13.084 -5.320 -0.173 -0.420 1.905
415034 14.658 -4.230 -0.996 0.125 -0.586 2.407
415044 12.433 11.108 2.978 0.735 -0.635 2.306
415053 11.568 30.933 4.900 1.126 -0.441 1.677
415064 10.406 20.971 -3.036 0.844 -0.649 1.291
415074 15.617 5.427 -8.362 0.963 -0.604 1.963
415084 19.595 -9.385 -4.336 1.427 -0.568 2.763
415093 20.323 -13.012 3.039 1.971 -0.134 3.234
415104 19.579 -11.776 2.244 1.873 -0.050 3.118
415114 13.475 -5.049 -0.966 1.672 -0.187 2.739
415124 8.082 -0.543 0.378 1.418 -0.156 2.357
415134 6.241 -3.626 3.254 1.086 -0.106 2.187
415143 7.056 -5.964 4.336 0.580 -0.192 2.020
415154 8.708 -4.138 3.219 -0.141 -0.337 1.747
415164 9.287 -1.696 2.092 -0.764 -0.355 1.520
415174 9.677 -0.644 1.161 -0.989 -0.228 1.339
415183 10.030 -0.282 0.438 -0.857 -0.118 1.172
415194 9.710 0.268 0.054 -0.647 -0.020 1.060
415204 9.762 0.481 1.142 -0.467 0.070 1.009
415214 9.939 0.808 2.183 -0.358 0.092 0.984
415223 9.903 0.667 2.033 -0.246 0.053 0.945
415234 9.874 -0.126 1.975 -0.220 0.044 0.921
415244 9.994 -0.998 2.878 -0.348 0.017 0.858
415254 9.885 -1.645 3.554 -0.627 -0.017 0.771
415264 9.847 -1.541 3.005 -0.926 -0.050 0.663
415273 9.865 -0.389 2.313 -1.077 -0.067 0.580
415284 9.871 -0.007 2.187 -1.023 -0.074 0.556
415294 10.012 -0.241 2.040 -0.924 -0.084 0.566
415299 10.022 -0.179 1.729 -0.852 -0.099 0.573
415309 9.882 -0.042 1.485 -0.755 -0.113 0.586
415319 10.007 -0.493 1.556 -0.637 -0.126 0.590
415329 10.030 -0.979 2.042 -0.600 -0.141 0.583
415339 9.768 -0.852 2.301 -0.621 -0.150 0.564
415349 9.606 -0.995 2.200 -0.620 -0.158 0.548
415358 9.679 -0.996 2.248 -0.627 -0.184 0.539
415369 9.502 -0.929 2.272 -0.617 -0.207 0.525
415379 9.333 -0.351 2.333 -0.588 -0.198 0.530
415389 9.328 -0.552 2.308 -0.503 -0.193 0.550
415399 9.241 -0.437 2.278 -0.426 -0.199 0.587
415409 9.441 -0.893 1.781 -0.339 -0.216 0.629
415419 9.655 -1.417 1.095 -0.285 -0.263 0.662
415429 9.822 -1.242 1.125 -0.285 -0.298 0.688
415439 9.951 -1.123 1.357 -0.301 -0.312 0.713
415449 10.028 -1.064 1.423 -0.316 -0.324 0.755
415459 9.895 -1.083 1.403 -0.295 -0.339 0.802
415469 9.882 -1.214 1.404 -0.299 -0.342 0.856
415479 9.929 -1.329 1.570 -0.315 -0.357 0.903
415490 10.024 -1.406 1.787 -0.342 -0.373 0.951
415499 10.117 -1.531 1.891 -0.371 -0.394 0.989
415509 10.256 -1.655 1.839 -0.398 -0.421 1.022
415519 10.451 -1.889 1.588 -0.429 -0.452 1.050
415529 10.706 -2.316 1.092 -0.494 -0.501 1.071
415539 10.953 -2.292 0.662 -0.589 -0.543 1.098
415549 11.101 -1.713 0.759 -0.680 -0.594 1.147
415559 11.235 -1.275 0.798 -0.716 -0.649 1.206
415569 11.494 -1.239 0.707 -0.704 -0.719 1.303
415580 11.696 -0.871 0.725 -0.684 -0.792 1.407
415589 11.742 -0.771 0.956 -0.631 -0.866 1.503
415599 11.929 -0.940 1.065 -0.562 -0.934 1.597
415609 12.164 -1.241 1.166 -0.518 -1.002 1.673
415620 12.331 -1.491 1.301 -0.525 -1.050 1.738
415629 12.471 -1.581 1.027 -0.584 -1.079 1.782
415639 12.787 -1.306 0.229 -0.646 -1.112 1.821
415649 13.675 -0.655 -0.210 -0.677 -1.192 1.852
415660 13.950 -0.347 0.546 -0.683 -1.280 1.901
415670 14.427 -0.156 1.256 -0.763 -1.332 2.000
415679 15.295 0.833 1.749 -0.950 -1.347 2.098
415689 16.020 2.374 2.525 -1.100 -1.382 2.198
415699 17.225 3.706 3.439 -1.160 -1.389 2.308
415710 18.701 3.873 4.983 -1.119 -1.358 2.469
415719 19.588 3.394 4.624 -0.957 -1.320 2.705
415729 19.030 3.621 4.147 -0.584 -1.306 2.921
415739 18.047 3.646 3.512 -0.133 -1.290 2.990
415750 16.077 2.239 3.489 0.206 -1.334 2.942
415760 14.592 1.835 4.700 0.227 -1.377 2.673
415769 14.565 2.379 3.687 0.215 -1.508 2.336
415779 16.806 1.693 0.858 0.543 -1.797 2.167
415790 10.581 -0.677 1.967 0.666 -1.678 2.154
415800 4.291 -4.077 1.366 0.244 -1.214 1.904
415809 -0.886 -7.163 4.602 -0.073 -0.809 1.350
415819 2.644 -5.595 3.924 -0.211 -0.387 0.915
415830 3.076 0.119 4.372 -0.166 -0.223 0.264
415840 3.068 2.820 4.108 0.167 -0.138 -0.482
415850 4.243 3.704 2.616 0.328 -0.000 -0.950
415859 4.276 3.736 1.592 0.359 0.116 -1.280
415869 3.434 3.545 1.622 0.370 0.177 -1.641
415880 2.402 3.368 1.761 0.413 0.314 -2.024
415890 2.323 2.570 2.031 0.471 0.496 -2.378
415899 2.960 1.486 1.983 0.527 0.638 -2.668
415909 3.658 0.459 1.541 0.648 0.740 -2.927
415920 4.455 -0.693 1.063 0.769 0.827 -3.212
415930 5.243 -0.853 0.965 0.792 0.909 -3.526
415940 6.275 -0.778 0.668 0.762 0.993 -3.841
415949 6.916 -0.578 0.638 0.703 1.076 -4.093
415960 7.754 -0.060 0.721 0.605 1.191 -4.293
415970 8.259 0.326 1.080 0.566 1.309 -4.487
415980 9.996 -0.345 0.940 0.678 1.394 -4.627
415989 10.541 -1.943 1.281 0.777 1.471 -4.727
416000 11.001 -2.296 1.709 0.775 1.515 -4.788
416010 11.755 -2.393 2.058 0.706 1.558 -4.847
416020 12.587 -1.900 2.432 0.815 1.664 -4.886
416030 13.302 -2.628 2.224 1.105 1.766 -4.915
416039 13.937 -3.753 1.714 1.333 1.801 -4.949
416050 14.551 -4.695 1.293 1.383 1.769 -4.991
416060 15.255 -5.438 1.074 1.251 1.733 -5.013
416070 16.110 -6.128 0.935 0.894 1.695 -5.039
416079 16.529 -6.701 1.028 0.418 1.622 -5.001
416090 16.609 -6.761 1.236 -0.070 1.567 -4.879
416100 16.577 -6.318 1.244 -0.434 1.567 -4.725
416110 16.597 -6.154 1.240 -0.621 1.610 -4.547
416120 16.609 -7.332 1.166 -0.692 1.707 -4.323
416130 16.573 -9.887 0.648 -0.859 1.797 -4.021
416140 16.195 -11.760 -0.914 -1.165 1.804 -3.583
416150 15.726 -12.494 -3.069 -1.483 1.647 -3.055
416160 14.844 -13.144 -4.858 -1.675 1.384 -2.434
416169 13.506 -13.737 -5.634 -1.670 1.069 -1.703
416180 12.401 -14.358 -5.628 -1.489 0.683 -0.909
416190 11.973 -14.024 -5.364 -1.199 0.269 -0.088
416200 11.962 -12.651 -5.045 -0.828 -0.107 0.703
416210 12.348 -11.013 -4.362 -0.411 -0.406 1.453
416220 14.056 -2.663 -0.274 0.099 -0.512 2.016
416230 11.607 8.461 4.951 0.681 -0.579 2.116
416240 12.467 27.251 7.765 1.095 -0.317 1.655
416250 12.711 20.754 -1.176 0.736 -0.570 1.281
416260 15.330 6.746 -8.895 0.674 -0.673 1.980
416270 16.755 -3.392 -5.995 1.011 -0.721 2.661
416280 16.310 -6.880 2.946 1.700 -0.418 3.075
416290 19.030 -9.803 1.946 1.934 -0.377 3.190
416301 15.771 -5.211 1.076 1.949 -0.557 3.080
416310 9.548 2.236 1.008 2.184 -0.482 2.677
416320 4.826 1.974 3.893 2.294 -0.412 2.385
416330 4.735 -4.829 5.299 2.137 -0.406 2.216
416340 7.479 -8.407 4.693 1.403 -0.537 2.017
416350 9.688 -5.206 2.241 0.205 -0.613 1.775
416360 10.521 -3.250 0.539 -0.595 -0.586 1.555
416370 10.606 -2.260 -0.741 -0.883 -0.457 1.355
416380 10.044 -0.533 -1.745 -0.835 -0.292 1.173
416391 9.708 0.631 -1.627 -0.503 -0.163 1.054
416400 9.761 1.088 -0.572 -0.077 -0.065 0.996
416410 9.636 1.473 0.490 0.271 -0.000 0.992
416420 9.524 0.072 1.524 0.402 0.023 0.955
416431 9.655 -1.316 2.115 0.236 0.037 0.873
416440 9.901 -2.359 2.745 -0.137 0.020 0.777
416450 9.792 -2.340 2.997 -0.587 0.016 0.655
416460 9.753 -1.283 2.145 -0.946 0.035 0.540
416471 9.764 -0.407 0.916 -1.035 0.057 0.495
416481 9.820 0.155 0.405 -0.950 0.081 0.501
416490 9.909 0.421 0.704 -0.818 0.099 0.525
416500 9.891 0.867 1.805 -0.629 0.082 0.551
416510 9.700 -0.077 2.655 -0.443 0.025 0.559
416521 9.520 -0.818 2.497 -0.418 -0.020 0.538
416530 9.460 -0.871 2.408 -0.437 -0.055 0.498
416540 9.400 -0.607 2.297 -0.438 -0.079 0.471
416550 9.418 -0.500 2.028 -0.401 -0.092 0.472
416561 9.526 -0.496 1.715 -0.339 -0.094 0.487
416571 9.692 -0.576 1.381 -0.290 -0.090 0.509
416580 9.816 -0.692 1.366 -0.262 -0.092 0.532
416590 9.879 -0.687 1.582 -0.264 -0.095 0.560
416601 9.824 -0.815 1.702 -0.288 -0.101 0.592
416611 9.746 -0.670 1.798 -0.311 -0.117 0.628
416620 9.718 -0.567 1.773 -0.310 -0.139 0.671
416630 9.769 -0.839 1.932 -0.282 -0.168 0.716
416641 9.767 -0.756 2.175 -0.274 -0.201 0.760
416651 9.868 -1.034 2.346 -0.281 -0.229 0.800
416661 9.934 -1.281 2.122 -0.324 -0.248 0.833
416670 9.853 -1.338 1.870 -0.376 -0.267 0.852
416680 10.022 -1.640 1.763 -0.437 -0.273 0.863
416691 10.273 -1.697 1.462 -0.523 -0.258 0.861
416701 10.254 -1.873 1.099 -0.581 -0.253 0.853
416710 10.223 -2.042 0.849 -0.628 -0.252 0.859
416720 10.368 -2.148 0.835 -0.710 -0.250 0.879
416731 10.548 -1.666 0.903 -0.777 -0.263 0.892
416741 10.734 -1.554 1.270 -0.796 -0.297 0.915
416751 10.533 -0.807 2.017 -0.761 -0.361 0.924
416760 10.232 -1.342 2.314 -0.671 -0.412 0.984
416771 10.202 -1.784 2.045 -0.620 -0.447 1.039
416781 10.269 -2.064 1.819 -0.612 -0.491 1.083
416791 10.271 -2.116 1.732 -0.617 -0.532 1.121
416800 10.486 -2.168 1.500 -0.634 -0.572 1.163
416811 10.678 -1.919 1.314 -0.638 -0.612 1.208
416821 10.842 -2.124 1.045 -0.624 -0.653 1.267
416831 10.991 -2.249 0.888 -0.623 -0.687 1.336
416841 11.115 -2.181 0.686 -0.627 -0.731 1.406
416850 11.268 -2.320 0.525 -0.639 -0.775 1.472
416861 11.620 -2.495 0.170 -0.672 -0.805 1.529
416871 12.368 -2.404 -0.405 -0.721 -0.846 1.591
416881 13.134 -2.106 -0.708 -0.729 -0.908 1.647
416890 13.646 -2.092 -0.347 -0.713 -0.981 1.705
416901 13.769 -1.839 -0.368 -0.762 -1.008 1.787
416911 14.231 -1.130 -1.019 -0.846 -1.038 1.878
416921 14.634 -0.120 -0.533 -0.922 -1.127 1.962
416931 15.277 0.782 0.379 -0.977 -1.186 2.020
416941 16.206 0.978 1.052 -1.044 -1.218 2.098
416951 16.946 1.293 2.125 -1.184 -1.211 2.167
416961 17.450 1.744 3.354 -1.445 -1.150 2.195
416971 17.058 2.018 4.348 -1.691 -1.047 2.271
416980 16.683 1.640 3.793 -1.599 -1.067 2.431
416991 16.036 2.384 4.472 -1.250 -1.112 2.562
417001 15.640 2.307 4.233 -0.821 -1.119 2.561
417011 14.237 1.481 3.851 -0.454 -1.117 2.488
417021 12.568 0.509 3.096 -0.332 -1.142 2.248
417031 12.126 0.564 2.165 -0.428 -1.193 1.970
417041 13.356 0.629 1.070 -0.386 -1.282 1.798
417051 9.539 0.842 1.910 -0.448 -1.197 1.773
417060 6.045 0.005 2.593 -0.510 -0.885 1.527
417071 3.110 -1.136 4.339 -0.453 -0.443 1.203
417081 2.986 -3.819 2.662 -0.379 -0.042 0.961
417091 1.855 -4.658 2.422 -0.257 0.101 0.672
417101 1.784 -3.536 1.507 -0.025 0.095 0.090
417112 3.069 -1.960 0.388 0.222 -0.011 -0.566
417121 3.596 -0.579 -0.290 0.422 -0.038 -1.117
417131 3.811 0.345 0.042 0.539 -0.009 -1.617
417136 3.720 0.711 0.551 0.626 0.079 -1.948
417146 3.353 0.485 1.141 0.689 0.243 -2.167
417157 3.695 -0.048 1.110 0.711 0.488 -2.312
417166 4.280 0.692 0.171 0.771 0.639 -2.338
417176 3.841 1.574 -0.091 0.905 0.665 -2.506
417186 4.159 1.490 0.312 1.045 0.757 -2.782
417197 5.195 0.518 0.619 1.165 0.865 -3.094
417206 6.148 -0.703 0.867 1.213 0.929 -3.373
417216 6.862 -1.592 1.057 1.131 0.984 -3.609
417226 7.627 -2.011 1.039 0.995 1.053 -3.827
417236 8.609 -2.086 0.980 0.878 1.125 -4.010
417246 9.589 -2.121 0.631 0.776 1.174 -4.149
417256 10.110 -2.201 0.590 0.802 1.227 -4.249
417266 10.433 -2.191 1.053 0.895 1.298 -4.303
417276 11.206 -2.204 1.098 1.073 1.357 -4.323
417287 11.811 -2.715 0.996 1.370 1.401 -4.340
417296 12.332 -3.536 0.868 1.646 1.434 -4.367
417306 13.024 -4.319 0.595 1.752 1.431 -4.406
417316 13.717 -4.634 0.439 1.703 1.397 -4.438
417327 14.089 -4.713 0.424 1.567 1.357 -4.456
417336 14.268 -4.740 0.583 1.378 1.323 -4.459
417346 14.240 -4.896 1.019 1.150 1.295 -4.444
417356 14.153 -5.044 1.517 0.914 1.258 -4.381
417367 14.252 -4.837 1.581 0.738 1.224 -4.267
417377 14.513 -4.211 1.310 0.655 1.198 -4.144
417386 14.700 -3.870 0.947 0.605 1.178 -4.032
417396 14.768 -3.943 0.822 0.532 1.181 -3.912
417406 14.708 -4.184 0.885 0.447 1.222 -3.782
417417 14.343 -4.791 0.942 0.413 1.285 -3.626
417427 13.913 -5.558 0.490 0.365 1.327 -3.422
417436 13.553 -6.187 -0.313 0.249 1.306 -3.150
417446 13.029 -6.443 -0.727 0.127 1.244 -2.833
417457 12.257 -6.643 -0.663 0.061 1.165 -2.446
417462 11.781 -6.639 -0.709 0.072 1.082 -2.097
417471 11.446 -6.473 -0.955 0.167 0.978 -1.719
417481 11.216 -6.829 -1.511 0.332 0.804 -1.234
417491 10.921 -7.580 -1.988 0.411 0.594 -0.722
417502 10.618 -7.947 -2.521 0.405 0.378 -0.184
417512 10.512 -7.964 -3.029 0.438 0.153 0.372
417521 10.747 -7.709 -3.342 0.551 -0.064 0.897
417531 11.062 -6.929 -3.334 0.744 -0.242 1.354
417542 11.341 -6.050 -2.656 0.987 -0.358 1.755
417552 12.145 -2.424 -0.546 1.198 -0.405 2.061
417562 10.316 10.590 3.438 1.314 -0.301 1.857
417571 8.495 19.577 7.203 1.422 -0.088 1.342
417582 9.722 15.227 3.342 1.259 -0.026 1.068
417592 12.097 5.788 -0.357 1.086 -0.085 1.305
417602 15.114 -0.376 -2.835 1.036 -0.154 1.695
417611 15.537 -2.764 -2.435 0.816 -0.167 1.959
417622 15.544 -3.382 -0.194 0.606 -0.058 2.194
417632 15.225 -4.292 2.029 0.668 0.068 2.368
417642 14.911 -3.373 1.932 0.939 0.128 2.425
417651 11.657 0.751 1.525 1.197 0.073 2.225
417661 8.038 -0.066 0.609 1.360 0.100 1.926
417672 7.071 -2.018 1.530 1.409 0.192 1.744
417677 7.745 -3.443 2.186 1.411 0.202 1.563
417687 8.723 -3.218 2.193 1.210 0.172 1.357
417697 9.794 -3.079 0.962 0.744 0.109 1.117
417707 10.092 -1.439 0.266 0.267 0.086 0.975
417717 10.223 -0.500 0.467 -0.013 0.152 0.858
417727 9.974 0.617 0.826 -0.135 0.237 0.756
417736 9.753 1.490 1.013 -0.120 0.277 0.683
417746 9.828 1.722 1.699 0.002 0.275 0.644
417757 9.767 1.403 1.802 0.096 0.242 0.619
417767 9.764 0.791 1.962 0.132 0.217 0.577
417777 9.963 0.894 2.246 0.115 0.189 0.529
417787 9.898 1.010 2.459 0.046 0.137 0.494
417797 9.860 0.706 2.453 -0.019 0.094 0.481
417807 9.738 0.734 2.337 -0.077 0.047 0.464
417817 9.585 1.089 2.357 -0.115 0.011 0.449
417827 9.619 1.074 2.006 -0.121 -0.002 0.445
417837 9.658 1.086 1.585 -0.105 -0.004 0.451
417847 9.852 0.697 0.675 -0.096 0.006 0.457
417857 9.773 0.392 0.580 -0.075 0.004 0.466
417867 9.696 0.275 0.730 -0.038 0.008 0.455
417876 9.718 0.222 1.108 -0.021 0.014 0.433
417887 9.627 0.028 1.202 -0.061 0.017 0.399
417897 9.436 -0.077 1.163 -0.085 0.015 0.375
417907 9.300 -0.014 1.229 -0.040 0.011 0.355
417917 9.328 0.265 1.155 0.016 0.013 0.343
417927 9.454 0.642 1.207 0.063 0.015 0.346
417937 9.679 0.645 1.280 0.090 0.022 0.363
417947 9.856 0.275 1.161 0.095 0.031 0.385
417957 9.831 -0.050 0.940 0.075 0.036 0.404
417967 9.994 -0.164 0.853 0.037 0.041 0.414
417977 10.108 -0.284 1.143 -0.029 0.036 0.417
417987 10.232 -0.522 1.356 -0.142 0.030 0.405
417997 10.151 -0.341 1.622 -0.246 0.015 0.397
418008 10.014 -0.249 1.660 -0.331 -0.002 0.405
418017 9.951 0.145 1.863 -0.386 -0.021 0.431
418027 9.824 0.518 2.144 -0.444 -0.024 0.470
418037 9.490 0.503 2.213 -0.432 -0.026 0.498
418048 9.488 -0.128 2.124 -0.403 -0.015 0.504
418057 9.617 -0.588 1.910 -0.378 -0.011 0.482
418067 9.531 -0.719 1.580 -0.319 -0.034 0.431
418077 9.903 -0.882 1.642 -0.331 -0.046 0.390
418087 10.052 -0.454 1.828 -0.339 -0.066 0.351
418098 10.083 -0.427 2.011 -0.345 -0.082 0.332
418107 9.806 -0.256 1.719 -0.382 -0.095 0.331
418117 9.526 0.044 1.485 -0.375 -0.087 0.321
418127 9.481 0.190 1.527 -0.344 -0.075 0.322
418138 9.520 0.280 1.560 -0.303 -0.064 0.334
418147 9.662 -0.042 1.453 -0.255 -0.070 0.351
418157 9.667 -0.237 1.448 -0.226 -0.069 0.370
418167 9.565 -0.372 1.469 -0.199 -0.074 0.388
418178 9.576 -0.546 1.359 -0.181 -0.082 0.404
418188 9.528 -0.300 1.331 -0.180 -0.090 0.418
418197 9.707 -0.071 1.241 -0.146 -0.092 0.432
418207 9.871 -0.071 1.406 -0.078 -0.096 0.464
418217 9.990 -0.241 1.254 0.013 -0.105 0.500
418228 10.034 -0.146 1.144 0.112 -0.125 0.531
418237 10.058 -0.335 0.967 0.216 -0.148 0.549
418247 10.152 -0.543 0.779 0.269 -0.171 0.541
418257 10.188 -0.223 0.491 0.326 -0.179 0.517
418268 10.301 0.267 0.025 0.436 -0.187 0.501
418278 10.226 -0.201 -0.463 0.641 -0.209 0.510
418287 10.582 0.284 -0.733 0.800 -0.233 0.544
418297 10.609 0.753 -1.094 1.012 -0.266 0.532
418308 10.262 0.414 -1.404 1.259 -0.311 0.553
418318 10.329 0.552 -0.832 1.526 -0.354 0.561
418328 10.573 0.389 -0.789 1.761 -0.394 0.590
418337 10.740 0.224 -1.938 1.994 -0.459 0.611
418348 10.867 0.632 -3.235 2.269 -0.553 0.631
418358 10.857 1.373 -4.067 2.634 -0.665 0.655
418368 10.840 2.611 -4.368 3.103 -0.772 0.697
418377 10.783 3.675 -4.010 3.686 -0.875 0.735
418387 10.667 3.273 -3.200 4.257 -0.953 0.760
418398 10.450 2.992 -2.633 4.738 -1.017 0.774
418408 10.278 2.779 -1.926 5.108 -1.065 0.768
418417 10.151 2.282 -0.611 5.388 -1.097 0.768
418427 10.144 2.403 0.894 5.564 -1.108 0.762
418438 9.882 2.135 1.798 5.648 -1.101 0.750
418448 9.671 1.611 2.215 5.667 -1.087 0.737
418458 9.320 1.122 3.066 5.617 -1.060 0.724
418467 9.029 0.693 4.236 5.506 -1.013 0.698
418478 8.834 -0.226 5.168 5.340 -0.962 0.648
418488 8.445 -1.245 5.876 5.081 -0.889 0.592
418498 8.105 -1.823 6.090 4.773 -0.801 0.539
418507 7.927 -2.258 6.154 4.422 -0.699 0.488
418518 7.618 -2.757 6.129 4.047 -0.589 0.438
418528 7.366 -3.205 6.164 3.664 -0.469 0.384
418538 7.310 -3.837 6.093 3.286 -0.360 0.327
418547 7.404 -3.808 5.905 2.907 -0.258 0.265
418557 7.613 -4.033 5.669 2.540 -0.177 0.217
418568 8.042 -3.716 5.703 2.172 -0.114 0.184
418578 8.459 -3.133 5.656 1.858 -0.075 0.168
418588 8.699 -3.047 5.297 1.578 -0.052 0.160
418597 8.864 -2.400 5.029 1.338 -0.050 0.169
418608 9.235 -1.480 5.633 1.129 -0.055 0.182
418618 9.788 -1.651 6.110 0.931 -0.054 0.176
418628 10.006 -1.988 5.898 0.687 -0.014 0.164
418638 9.971 -2.630 4.327 0.407 0.034 0.125
418648 10.071 -2.958 1.623 0.156 0.047 0.077
418658 9.892 -2.515 -0.068 0.006 0.045 0.033
418668 9.911 -2.170 -0.320 -0.044 0.058 -0.001
418678 9.911 -1.972 -0.047 -0.007 0.076 -0.022
418688 9.780 -1.803 0.519 0.078 0.086 -0.028
418698 9.564 -1.995 1.451 0.151 0.102 -0.039
418708 9.440 -2.282 2.001 0.146 0.109 -0.043
418718 9.291 -1.869 2.684 0.090 0.075 -0.038
418728 8.899 -1.395 3.328 0.040 0.053 -0.026
418738 8.955 -1.173 3.317 -0.024 0.065 0.015
418748 9.485 -1.308 2.197 -0.066 0.066 0.050
418758 9.926 -1.753 0.562 -0.083 0.036 0.072
418768 10.036 -1.435 -0.301 -0.081 0.037 0.090
418778 10.092 -1.067 -0.651 -0.006 0.058 0.113
418788 10.637 -1.333 -0.417 0.132 0.073 0.152
418798 10.299 -1.879 0.670 0.254 0.073 0.163
418808 9.816 -2.380 1.921 0.329 0.068 0.140
418819 9.622 -2.782 2.387 0.307 0.049 0.089
418828 9.765 -2.704 2.419 0.232 0.018 0.033
418838 9.738 -2.356 2.313 0.150 -0.030 -0.001
418848 9.745 -2.083 2.013 0.091 -0.074 -0.006
418859 9.755 -1.903 1.797 0.062 -0.121 0.020
418868 9.689 -1.622 1.733 0.049 -0.172 0.068
418878 9.658 -1.509 1.640 0.039 -0.218 0.133
418888 9.773 -1.208 2.037 0.019 -0.250 0.209
418898 9.814 -1.563 1.903 -0.008 -0.279 0.272
418909 9.673 -1.762 1.485 -0.043 -0.293 0.315
418918 9.612 -2.016 1.210 -0.065 -0.298 0.337
418928 9.502 -2.143 0.875 -0.083 -0.294 0.349
418938 9.471 -2.218 0.786 -0.087 -0.286 0.348
418949 9.427 -2.430 0.774 -0.082 -0.275 0.333
418958 9.367 -2.543 0.735 -0.076 -0.258 0.317
418968 9.362 -2.566 0.837 -0.064 -0.242 0.295
418974 9.425 -2.452 0.984 -0.059 -0.233 0.280
418983 9.502 -2.253 1.086 -0.067 -0.223 0.276
418994 9.597 -2.282 1.229 -0.084 -0.217 0.284
419003 9.721 -2.211 1.135 -0.116 -0.219 0.301
419013 9.884 -2.385 1.263 -0.162 -0.217 0.321
419023 9.872 -2.660 0.947 -0.198 -0.233 0.331
419034 9.914 -2.516 0.954 -0.256 -0.247 0.350
419044 10.225 -2.195 1.302 -0.320 -0.264 0.391
419053 10.438 -2.089 1.323 -0.382 -0.284 0.462
419063 10.559 -1.875 0.849 -0.439 -0.308 0.550
419074 10.638 -1.746 1.226 -0.469 -0.388 0.646
419084 10.745 -1.719 1.604 -0.488 -0.472 0.738
419093 10.739 -1.864 1.961 -0.512 -0.554 0.833
419103 11.110 -2.039 1.810 -0.537 -0.637 0.919
419113 11.368 -2.343 1.695 -0.593 -0.712 0.998
419124 12.333 -1.502 1.131 -0.650 -0.745 1.053
419134 12.506 -1.945 0.037 -0.621 -0.796 1.126
419143 12.455 -1.657 -0.248 -0.580 -0.854 1.205
419153 12.862 -1.851 -0.577 -0.500 -0.931 1.292
419164 12.909 -1.808 -0.359 -0.406 -1.013 1.381
419174 13.081 -2.015 0.086 -0.387 -1.082 1.457
419183 13.265 -2.485 -0.396 -0.402 -1.139 1.532
419193 14.257 -1.717 -0.235 -0.390 -1.216 1.590
419204 14.419 -0.669 1.013 -0.275 -1.301 1.642
419214 14.130 -0.965 1.293 -0.199 -1.317 1.709
419224 14.550 -1.290 0.853 -0.235 -1.333 1.801
419233 15.109 -0.332 0.973 -0.340 -1.373 1.905
419244 15.677 0.982 1.429 -0.447 -1.387 2.007
419254 16.536 1.541 1.812 -0.486 -1.388 2.088
419264 16.825 2.027 2.953 -0.539 -1.388 2.180
419273 17.086 2.099 2.878 -0.668 -1.364 2.255
419283 17.167 1.760 3.088 -0.815 -1.365 2.307
419294 16.450 1.927 3.770 -0.821 -1.412 2.371
419299 15.377 2.090 4.807 -0.711 -1.423 2.390
419309 14.129 2.264 4.178 -0.493 -1.368 2.417
419318 12.290 1.620 3.404 -0.230 -1.409 2.339
419329 10.637 1.110 3.140 -0.304 -1.465 2.034
419339 10.205 -0.506 2.783 -0.490 -1.438 1.719
419349 12.769 -2.408 0.877 -0.631 -1.430 1.660
419359 8.340 -3.413 1.914 -0.786 -1.215 1.781
419368 3.274 -4.179 3.142 -0.577 -0.762 1.611
419379 3.618 -4.133 3.363 -0.337 -0.339 1.328
419389 3.940 0.444 4.351 -0.055 -0.106 0.751
419399 5.323 2.804 2.999 0.262 0.026 0.123
419408 5.966 3.849 1.672 0.360 0.112 -0.276
419419 6.136 3.858 1.638 0.330 0.185 -0.616
419429 5.376 3.438 1.661 0.311 0.239 -1.024
419439 4.231 2.548 1.450 0.368 0.369 -1.416
419449 3.975 1.589 1.183 0.441 0.563 -1.723
419459 4.332 0.742 0.847 0.551 0.716 -1.982
419469 4.769 0.406 0.716 0.726 0.816 -2.247
419479 5.268 0.571 0.837 0.905 0.906 -2.560
419489 5.914 0.527 0.768 1.040 1.015 -2.930
419499 6.477 0.459 0.761 1.111 1.120 -3.261
419509 7.028 0.512 0.826 1.125 1.221 -3.537
419515 7.374 0.393 0.780 1.105 1.288 -3.720
419524 7.741 0.389 0.889 1.094 1.352 -3.883
419534 8.397 -0.008 0.844 1.088 1.425 -4.081
419544 8.905 -0.199 1.046 1.079 1.484 -4.259
419554 10.171 0.080 1.488 1.193 1.547 -4.407
419564 10.870 -1.632 1.386 1.395 1.605 -4.563
419574 10.904 -2.188 0.868 1.252 1.658 -4.704
419584 11.725 -1.630 0.834 1.103 1.692 -4.854
419594 12.476 -2.098 0.930 1.100 1.743 -4.963
419604 13.162 -2.392 0.760 1.054 1.772 -5.071
419614 14.184 -2.379 0.512 0.978 1.748 -5.158
419624 15.219 -3.042 0.308 0.882 1.698 -5.182
419634 16.168 -4.046 0.243 0.739 1.653 -5.147
419644 16.523 -4.736 0.329 0.599 1.604 -5.061
419654 16.455 -5.398 0.695 0.483 1.546 -4.942
419664 16.160 -6.055 1.008 0.387 1.531 -4.794
419674 16.018 -7.086 1.087 0.300 1.593 -4.567
419684 16.133 -8.413 0.986 0.248 1.683 -4.282
419694 16.339 -9.735 0.654 0.174 1.715 -3.965
419704 16.317 -11.424 0.085 0.032 1.706 -3.602
419715 15.780 -13.112 -1.061 -0.186 1.635 -3.208
419724 14.867 -13.642 -2.607 -0.491 1.477 -2.738
419734 13.879 -13.163 -3.419 -0.735 1.246 -2.164
419744 12.800 -12.925 -3.004 -0.792 0.965 -1.500
419755 12.261 -12.961 -2.424 -0.671 0.662 -0.783
419764 12.095 -13.269 -2.449 -0.372 0.375 -0.032
419774 12.215 -13.714 -3.127 0.022 0.134 0.716
419784 12.348 -13.914 -3.503 0.393 -0.070 1.411
419794 14.110 -8.772 -1.882 0.705 -0.233 1.974
419805 12.913 1.093 -1.986 1.204 -0.366 2.172
419814 12.054 22.397 2.282 1.434 -0.361 1.934
419824 11.657 20.135 -2.945 1.152 -0.472 1.369
419834 14.726 5.842 -7.416 0.916 -0.538 1.809
419840 16.634 -4.230 -8.198 0.913 -0.627 2.305
419850 17.001 -7.543 -2.919 0.996 -0.470 2.703
419859 16.273 -7.360 2.660 1.120 -0.146 2.861
419869 15.358 -6.639 3.900 1.255 0.028 2.793
419879 13.285 -4.119 1.614 1.437 0.080 2.611
419890 9.682 -1.742 0.490 1.536 0.019 2.293
419899 7.087 -2.539 3.343 1.446 0.002 2.009
419909 7.937 -5.101 4.251 1.106 -0.043 1.816
419919 9.447 -4.843 3.029 0.460 -0.245 1.611
419930 10.062 -2.298 1.877 -0.129 -0.408 1.392
419940 10.424 -1.185 0.942 -0.547 -0.406 1.254
419949 10.042 -0.376 0.415 -0.741 -0.291 1.174
419959 9.464 0.241 0.278 -0.703 -0.126 1.100
419970 9.059 0.769 0.627 -0.468 0.012 1.029
419980 9.257 1.209 1.233 -0.187 0.100 0.988
419989 9.539 0.977 1.723 0.049 0.134 0.985
419999 9.880 0.131 1.700 0.162 0.120 0.978
420009 10.202 -0.378 1.618 0.067 0.070 0.943
420020 10.108 -1.124 1.854 -0.184 0.028 0.914
420030 9.836 -1.235 2.379 -0.481 0.020 0.854
420039 9.715 -0.926 2.413 -0.799 0.002 0.779
420049 9.643 -0.619 1.839 -0.965 -0.004 0.732
420055 9.679 -0.036 1.187 -0.952 0.005 0.718
420065 9.773 0.352 0.973 -0.854 0.014 0.730
420075 9.837 0.246 1.171 -0.685 0.021 0.766
420084 9.799 -0.285 1.451 -0.512 0.005 0.792
420094 9.673 -0.784 1.918 -0.414 -0.033 0.784
420105 9.642 -1.068 2.181 -0.377 -0.068 0.745
420115 9.654 -1.222 2.144 -0.362 -0.121 0.696
420124 9.641 -1.112 2.218 -0.359 -0.160 0.653
420134 9.805 -0.725 1.940 -0.380 -0.163 0.641
420145 9.864 -0.791 1.736 -0.395 -0.153 0.664
420155 9.835 -0.586 1.606 -0.392 -0.155 0.701
420165 9.818 -0.680 1.651 -0.370 -0.160 0.742
420174 9.830 -0.961 1.480 -0.360 -0.176 0.775
420185 9.952 -1.215 1.402 -0.386 -0.182 0.796
420195 10.042 -1.365 1.665 -0.448 -0.184 0.810
420205 9.872 -1.337 1.578 -0.502 -0.189 0.821
420214 9.963 -1.423 1.418 -0.535 -0.197 0.840
420225 10.119 -1.356 1.283 -0.556 -0.209 0.862
420235 10.126 -1.241 1.310 -0.560 -0.235 0.895
420245 10.511 -1.329 1.724 -0.572 -0.264 0.936
420255 10.566 -1.167 1.849 -0.587 -0.288 0.975
420264 10.614 -1.660 1.901 -0.614 -0.314 1.023
420275 10.384 -1.663 1.667 -0.650 -0.353 1.060
420285 10.122 -1.696 1.438 -0.657 -0.382 1.101
420295 10.280 -1.916 1.331 -0.623 -0.427 1.135
420304 10.396 -1.843 1.732 -0.590 -0.486 1.168
420315 10.642 -1.650 2.155 -0.563 -0.548 1.208
420325 10.827 -1.652 2.437 -0.530 -0.595 1.250
420335 11.128 -2.003 2.373 -0.515 -0.635 1.312
420345 11.387 -1.950 2.106 -0.558 -0.674 1.386
420355 11.518 -1.594 1.647 -0.589 -0.720 1.463
420365 11.656 -1.848 1.116 -0.590 -0.770 1.559
420375 11.923 -1.932 0.861 -0.637 -0.822 1.670
420380 12.136 -1.817 0.510 -0.684 -0.860 1.745
420390 12.393 -2.232 -0.044 -0.737 -0.899 1.812
420400 13.051 -2.181 -0.991 -0.860 -0.951 1.904
420410 14.427 -1.189 -1.501 -0.949 -1.026 1.964
420420 15.024 -0.944 -0.612 -0.975 -1.132 2.033
420430 15.643 -0.461 -0.489 -1.051 -1.169 2.137
420440 16.485 0.775 -0.687 -1.201 -1.201 2.255
420450 17.135 2.279 -0.302 -1.335 -1.268 2.340
420460 17.766 3.356 0.707 -1.395 -1.309 2.394
420470 18.838 4.188 2.492 -1.455 -1.273 2.428
420481 19.106 4.161 3.823 -1.522 -1.224 2.528
420490 18.237 3.371 3.421 -1.363 -1.222 2.736
420500 17.275 4.671 3.815 -0.842 -1.235 2.870
420510 16.577 3.352 3.242 -0.200 -1.260 2.839
420520 14.753 1.963 3.746 0.098 -1.359 2.655
420530 13.728 0.803 3.317 0.002 -1.459 2.329
420540 15.045 1.312 1.319 -0.039 -1.573 2.071
420550 14.095 1.316 1.263 0.372 -1.866 2.021
420560 9.075 -0.170 2.462 0.512 -1.490 1.972
420571 1.897 -2.054 3.383 0.340 -1.073 1.603
420580 0.756 -6.550 3.097 0.253 -0.547 1.135
420590 3.147 -4.450 2.062 0.264 -0.362 0.763
420600 2.296 -0.796 2.285 0.410 -0.357 0.051
420611 3.217 1.116 2.034 0.536 -0.324 -0.635
420620 4.301 2.135 1.325 0.502 -0.200 -1.084
420630 4.455 3.046 1.377 0.433 -0.050 -1.391
420640 3.897 3.594 1.675 0.466 0.046 -1.736
420651 2.732 2.733 1.932 0.565 0.149 -2.123
420661 2.458 1.626 1.813 0.624 0.321 -2.424
420670 2.904 1.206 1.845 0.641 0.451 -2.639
420680 3.809 0.619 1.705 0.730 0.540 -2.869
420690 4.554 -0.420 1.602 0.894 0.606 -3.124
420701 5.268 -1.021 1.533 0.960 0.695 -3.420
420710 5.931 -1.429 1.450 0.915 0.804 -3.716
420720 6.534 -1.433 1.450 0.807 0.916 -3.959
420730 7.265 -1.379 1.521 0.659 1.035 -4.168
420741 8.192 -1.480 1.651 0.530 1.143 -4.357
420751 9.083 -1.561 1.766 0.414 1.221 -4.512
420760 9.807 -1.683 1.988 0.333 1.288 -4.632
420770 10.637 -1.847 2.470 0.327 1.385 -4.713
420781 11.470 -2.103 2.641 0.341 1.480 -4.769
420791 11.935 -2.410 2.691 0.462 1.591 -4.793
420800 12.563 -2.833 2.509 0.714 1.725 -4.809
420810 13.176 -3.614 2.176 0.952 1.812 -4.840
420820 13.632 -4.196 1.949 1.010 1.848 -4.895
420831 14.483 -4.518 1.629 0.827 1.852 -4.965
420841 15.294 -4.722 1.126 0.469 1.847 -5.012
420850 15.786 -5.187 0.894 0.013 1.796 -5.011
420860 16.100 -5.776 0.928 -0.469 1.750 -4.928
420871 16.563 -5.715 0.850 -0.818 1.744 -4.782
420881 16.934 -5.618 0.406 -0.922 1.741 -4.590
420890 17.191 -6.146 0.055 -0.821 1.769 -4.355
420900 17.081 -8.030 -0.274 -0.659 1.824 -4.048
420911 16.298 -10.334 -0.923 -0.596 1.849 -3.614
420921 15.508 -12.238 -2.349 -0.645 1.778 -3.081
420931 14.836 -13.905 -4.338 -0.764 1.572 -2.478
420940 14.153 -15.197 -5.731 -0.908 1.287 -1.801
420951 13.332 -15.815 -6.118 -1.013 0.928 -1.048
420961 12.442 -15.460 -5.594 -1.022 0.495 -0.263
420971 12.228 -14.588 -4.862 -0.903 0.070 0.517
420980 13.176 -12.718 -2.919 -0.688 -0.251 1.279
420990 14.721 -6.635 -2.569 -0.200 -0.407 1.862
421001 11.859 6.633 5.158 0.288 -0.555 2.214
421011 14.816 30.300 1.387 0.710 -0.528 1.546
421021 12.528 20.133 -3.739 0.424 -0.702 1.322
421030 15.415 2.237 -8.438 0.482 -0.607 2.008
421041 16.813 -7.335 -2.491 0.754 -0.545 2.621
421051 16.692 -8.037 3.327 1.329 -0.212 2.864
421061 16.748 -7.870 2.052 1.490 -0.218 2.771
421070 12.640 -3.135 0.355 1.645 -0.231 2.537
421081 9.012 0.333 1.318 1.702 -0.155 2.226
421091 6.754 -1.560 3.758 1.596 -0.209 2.036
421101 7.420 -4.921 4.019 1.287 -0.315 1.851
421110 9.594 -5.564 1.918 0.559 -0.433 1.619
421121 10.072 -2.564 0.738 -0.229 -0.455 1.436
421131 9.743 -0.888 0.199 -0.613 -0.290 1.250
421136 9.679 -0.903 -0.405 -0.663 -0.147 1.130
421146 9.513 -0.227 -0.541 -0.585 -0.034 1.023
421155 9.454 0.726 0.512 -0.390 0.093 0.932
421166 9.658 0.817 1.602 -0.229 0.157 0.905
421176 9.780 0.368 2.217 -0.122 0.143 0.880
421186 9.659 0.026 2.437 -0.078 0.100 0.829
421196 9.958 -0.349 3.215 -0.164 0.041 0.774
421206 9.864 -0.930 3.932 -0.406 -0.049 0.711
421216 9.727 -0.419 3.529 -0.691 -0.117 0.629
421226 9.598 0.560 2.802 -0.814 -0.141 0.588
421236 9.615 0.785 1.961 -0.778 -0.131 0.603
421245 9.782 0.686 1.357 -0.689 -0.113 0.642
421256 9.904 0.115 1.292 -0.603 -0.112 0.678
421266 9.911 -0.397 1.517 -0.577 -0.119 0.682
421276 9.710 -0.631 1.954 -0.604 -0.115 0.662
421286 9.568 -0.743 2.104 -0.604 -0.120 0.629
421296 9.429 -0.651 2.191 -0.583 -0.129 0.587
421306 9.469 -0.676 2.131 -0.552 -0.137 0.558
421316 9.422 -0.432 1.751 -0.505 -0.143 0.551
421326 9.440 -0.232 1.764 -0.433 -0.157 0.553
421336 9.461 -0.311 1.829 -0.345 -0.177 0.566
421346 9.615 -0.676 1.705 -0.299 -0.182 0.583
421352 9.588 -0.756 1.573 -0.278 -0.182 0.587
421361 9.551 -0.879 1.598 -0.266 -0.182 0.586
421371 9.536 -0.965 1.871 -0.273 -0.169 0.587
421381 9.718 -0.704 1.815 -0.313 -0.156 0.601
421391 9.787 -0.640 1.851 -0.331 -0.165 0.631
421401 9.921 -0.487 1.974 -0.342 -0.176 0.678
421411 10.023 -0.698 2.066 -0.356 -0.192 0.735
421422 10.028 -0.819 2.168 -0.375 -0.232 0.789
421431 9.876 -0.789 2.225 -0.395 -0.278 0.853
421441 9.751 -0.992 2.386 -0.408 -0.313 0.915
421451 9.817 -1.110 2.419 -0.435 -0.341 0.971
421462 9.812 -0.938 2.282 -0.456 -0.377 1.023
421471 10.071 -1.216 2.229 -0.465 -0.420 1.067
421481 10.366 -1.148 2.243 -0.528 -0.432 1.096
421491 10.552 -1.383 2.128 -0.549 -0.439 1.092
421501 10.533 -2.021 1.600 -0.568 -0.438 1.096
421512 10.767 -1.739 0.788 -0.599 -0.449 1.084
421521 10.493 -1.895 0.622 -0.575 -0.480 1.081
421531 10.405 -1.904 0.585 -0.573 -0.499 1.096
421541 10.493 -1.845 0.724 -0.560 -0.529 1.122
421552 10.521 -1.951 1.167 -0.532 -0.573 1.155
421561 10.596 -2.376 1.497 -0.529 -0.614 1.189
421571 10.979 -2.704 1.256 -0.581 -0.663 1.222
421581 11.478 -2.630 0.849 -0.688 -0.699 1.252
421592 11.456 -2.250 0.656 -0.780 -0.750 1.311
421602 11.830 -1.830 0.515 -0.809 -0.784 1.371
421611 11.913 -2.019 0.636 -0.815 -0.836 1.453
421621 12.312 -1.878 0.478 -0.819 -0.883 1.539
421632 13.000 -1.800 0.460 -0.792 -0.962 1.615
421642 13.506 -1.616 1.232 -0.771 -1.048 1.690
421651 13.832 -1.424 1.258 -0.810 -1.096 1.781
421661 14.392 -1.034 0.584 -0.895 -1.147 1.885
421671 14.968 0.074 0.652 -0.977 -1.223 1.987
421677 15.432 0.922 0.936 -1.035 -1.253 2.065
421687 16.247 1.323 0.778 -1.086 -1.253 2.144
421696 17.015 1.456 0.985 -1.182 -1.256 2.250
421706 17.472 2.100 1.907 -1.330 -1.216 2.327
421716 17.329 2.814 3.252 -1.464 -1.159 2.379
421727 16.941 1.631 3.498 -1.424 -1.151 2.507
421737 16.245 2.310 3.932 -1.212 -1.181 2.632
421746 15.431 3.247 4.673 -0.830 -1.173 2.640
421756 14.584 0.981 4.125 -0.456 -1.157 2.541
421767 12.957 0.275 3.402 -0.297 -1.142 2.399
421777 11.589 0.222 2.248 -0.384 -1.170 2.126
421786 12.310 0.588 0.707 -0.482 -1.224 1.881
421796 11.146 1.100 0.946 -0.481 -1.266 1.825
421807 7.970 1.619 1.157 -0.623 -1.040 1.605
421817 5.596 0.704 1.849 -0.590 -0.770 1.266
421827 3.438 -0.724 1.998 -0.556 -0.425 0.905
421836 3.057 -4.112 2.001 -0.513 -0.200 0.747
421847 1.513 -3.776 3.377 -0.149 -0.057 0.468
421857 1.503 -3.223 2.666 0.283 -0.014 -0.132
421867 2.815 -2.553 1.464 0.666 -0.042 -0.758
421876 3.054 -1.764 0.749 0.907 -0.035 -1.322
421886 2.609 -1.669 0.749 0.943 0.075 -1.749
421897 2.337 -1.344 0.657 0.788 0.306 -1.990
421907 3.236 -0.889 0.309 0.566 0.533 -2.134
421917 3.728 -0.509 0.846 0.432 0.682 -2.276
421926 4.605 -0.475 0.740 0.400 0.849 -2.365
421937 4.763 0.718 0.002 0.467 0.945 -2.505
421947 4.775 1.326 0.141 0.544 1.068 -2.759
421957 5.774 0.336 0.036 0.560 1.154 -3.066
421966 6.782 -1.144 -0.463 0.596 1.157 -3.273
421977 7.174 -1.802 -0.184 0.580 1.149 -3.426
421987 7.869 -1.901 -0.086 0.495 1.212 -3.631
421997 8.558 -1.852 0.197 0.521 1.283 -3.813
422002 10.031 -1.618 -0.077 0.660 1.347 -3.899
422011 10.784 -2.460 -0.186 0.769 1.384 -4.004
422022 10.237 -2.303 -0.375 0.798 1.367 -4.097
422032 10.340 -1.821 -0.109 0.716 1.324 -4.180
422042 11.298 -0.564 0.519 0.841 1.368 -4.229
422052 11.761 -1.129 1.025 1.105 1.410 -4.288
422062 12.192 -1.939 1.302 1.325 1.466 -4.335
422072 12.696 -2.344 1.495 1.526 1.527 -4.376
422082 13.376 -2.793 1.426 1.701 1.577 -4.429
422092 13.961 -3.325 1.104 1.777 1.593 -4.467
422102 14.533 -3.844 0.463 1.729 1.566 -4.493
422112 14.927 -4.336 0.068 1.507 1.486 -4.521
422122 15.209 -4.149 0.203 1.176 1.394 -4.523
422132 15.607 -3.511 0.322 0.873 1.318 -4.474
422142 15.945 -2.912 0.403 0.682 1.254 -4.403
422152 15.903 -2.787 0.704 0.645 1.233 -4.306
422162 15.668 -3.777 1.448 0.730 1.279 -4.161
422172 14.884 -5.702 1.770 0.864 1.369 -3.924
422182 14.223 -7.070 0.997 0.891 1.417 -3.589
422192 13.996 -8.594 -0.138 0.762 1.398 -3.187
422202 13.457 -9.955 -1.305 0.546 1.326 -2.711
422212 12.767 -10.561 -2.521 0.335 1.178 -2.167
422217 12.215 -10.690 -3.096 0.253 1.010 -1.709
422227 11.603 -10.707 -2.934 0.286 0.782 -1.220
422237 11.052 -10.536 -2.491 0.389 0.459 -0.552
422247 10.725 -9.783 -2.050 0.534 0.167 0.110
422257 10.620 -9.231 -2.002 0.761 -0.062 0.741
422267 10.826 -8.620 -2.176 0.978 -0.223 1.320
422278 10.943 -7.232 -1.913 1.142 -0.336 1.781
422287 11.915 -1.187 -0.603 1.238 -0.394 2.057
422297 10.396 14.295 1.913 1.287 -0.372 1.674
422307 9.205 21.395 4.198 1.252 -0.304 1.137
422318 9.895 12.703 3.109 1.144 -0.131 1.062
422327 14.769 3.141 -1.228 1.030 -0.069 1.419
422337 15.658 -2.303 -2.132 0.952 -0.198 1.876
422347 15.733 -2.786 -1.002 0.906 -0.089 2.152
422358 15.523 -1.913 0.382 0.741 -0.013 2.299
422368 14.226 -2.896 1.734 0.775 0.081 2.391
422377 12.826 -2.574 3.574 1.031 0.250 2.374
422387 11.130 -0.438 3.135 1.281 0.241 2.287
422397 8.921 -0.333 1.434 1.292 0.135 2.092
422408 7.532 -1.933 2.543 1.277 0.143 1.923
422417 8.360 -2.487 2.491 1.192 0.144 1.697
422427 9.205 -3.011 1.050 0.811 0.057 1.465
422433 9.430 -2.013 -0.010 0.440 0.044 1.341
422443 9.710 -1.653 -0.703 0.189 0.086 1.214
422453 10.017 -0.838 -1.365 -0.020 0.161 1.058
422462 10.103 0.034 -0.909 -0.083 0.251 0.918
422472 9.825 0.849 0.237 -0.066 0.319 0.826
422482 9.643 1.256 1.149 0.004 0.356 0.782
422493 9.536 1.073 2.144 0.113 0.344 0.740
422503 9.482 1.152 2.663 0.163 0.318 0.679
422512 9.627 0.611 3.096 0.125 0.266 0.641
422522 9.816 0.189 3.220 0.057 0.194 0.605
422533 10.031 0.313 2.783 -0.014 0.116 0.572
422543 10.108 0.394 2.120 -0.055 0.043 0.549
422552 9.973 0.427 1.290 -0.052 -0.006 0.535
422562 9.914 0.333 0.677 -0.034 -0.024 0.515
422573 9.876 0.339 0.513 0.006 -0.027 0.501
422583 9.864 0.321 0.709 0.032 -0.014 0.485
422593 9.861 0.346 1.087 0.040 -0.003 0.471
422602 9.762 0.122 1.575 0.021 -0.004 0.441
422612 9.676 -0.200 1.635 -0.005 -0.014 0.413
422623 9.544 -0.273 1.454 -0.053 -0.017 0.371
422633 9.464 -0.243 1.306 -0.094 -0.009 0.324
422642 9.472 -0.209 1.039 -0.116 0.001 0.283
422652 9.482 -0.073 1.010 -0.115 0.016 0.248
422663 9.500 -0.038 1.034 -0.082 0.027 0.225
422673 9.512 -0.122 1.078 -0.049 0.043 0.200
422683 9.557 -0.214 1.003 -0.019 0.060 0.175
422692 9.630 -0.238 1.061 -0.021 0.081 0.150
422703 9.674 -0.103 1.039 -0.059 0.105 0.133
422713 9.698 0.174 1.299 -0.104 0.132 0.126
422723 9.810 0.116 1.426 -0.136 0.148 0.127
422732 9.805 0.087 1.585 -0.149 0.148 0.140
422743 9.767 0.054 1.580 -0.157 0.142 0.155
422753 9.883 -0.154 1.549 -0.186 0.137 0.166
422758 9.981 -0.172 1.621 -0.226 0.137 0.170
422768 10.097 -0.219 1.703 -0.269 0.136 0.185
422777 10.257 0.030 1.934 -0.332 0.134 0.208
422788 10.259 0.098 2.200 -0.363 0.106 0.230
422798 9.907 0.107 2.325 -0.370 0.068 0.266
422808 9.806 0.205 2.192 -0.362 0.023 0.302
422818 9.623 0.061 2.180 -0.348 -0.032 0.337
422828 9.464 -0.096 2.025 -0.338 -0.067 0.358
422838 9.508 -0.285 1.864 -0.318 -0.091 0.363
422848 9.666 -0.497 1.694 -0.313 -0.107 0.353
422858 9.738 -0.482 1.327 -0.295 -0.099 0.333
422867 9.781 -0.297 1.457 -0.268 -0.071 0.308
422878 9.811 -0.510 1.525 -0.258 -0.054 0.288
422888 9.639 -0.559 1.542 -0.265 -0.046 0.261
422898 9.449 -0.554 1.749 -0.246 -0.039 0.222
422908 9.431 -0.747 1.800 -0.237 -0.040 0.180
422918 9.512 -0.999 1.754 -0.237 -0.046 0.152
422928 9.498 -0.870 1.598 -0.268 -0.047 0.133
422938 9.532 -0.794 1.503 -0.264 -0.046 0.124
422948 9.549 -0.835 1.169 -0.214 -0.039 0.123
422958 9.521 -0.765 0.788 -0.210 -0.028 0.134
422968 9.475 -0.580 0.659 -0.230 -0.021 0.148
422974 9.583 -0.639 0.802 -0.246 -0.016 0.158
422983 9.601 -0.394 0.923 -0.273 -0.009 0.178
422993 9.621 0.286 1.234 -0.285 0.012 0.202
423003 9.758 0.992 2.019 -0.242 0.041 0.222
423013 9.870 0.615 2.459 -0.177 0.064 0.236
423023 10.017 -0.414 1.956 -0.107 0.049 0.242
423033 9.844 -0.553 1.819 -0.075 0.028 0.248
423044 9.849 -0.628 1.774 -0.070 0.009 0.255
423053 9.751 -0.610 1.822 -0.091 -0.009 0.265
423063 9.820 -0.190 1.651 -0.094 -0.028 0.285
423073 9.855 -0.151 1.426 -0.037 -0.055 0.320
423084 9.899 -0.014 0.937 0.038 -0.071 0.359
423093 9.987 -0.167 0.586 0.145 -0.094 0.388
423103 10.028 -0.099 0.530 0.223 -0.101 0.417
423113 10.056 0.011 0.554 0.323 -0.105 0.425
423123 10.200 -0.217 0.481 0.435 -0.112 0.413
423134 10.241 -0.157 0.200 0.571 -0.116 0.403
423143 10.044 0.111 0.116 0.739 -0.114 0.395
423153 10.029 0.093 -0.304 0.931 -0.124 0.431
423163 10.344 0.754 -1.018 1.129 -0.160 0.479
423174 10.348 0.607 -1.172 1.432 -0.231 0.534
423183 10.529 1.245 -0.994 1.705 -0.298 0.600
423193 10.856 1.039 -2.176 2.084 -0.402 0.646
423203 11.153 1.609 -4.221 2.505 -0.556 0.722
423214 11.076 2.877 -5.093 3.075 -0.722 0.789
423223 11.172 4.167 -3.951 3.752 -0.848 0.871
423233 11.213 4.707 -3.226 4.424 -0.970 0.952
423243 10.951 3.797 -2.027 4.969 -1.063 0.993
423254 10.570 3.089 -0.863 5.323 -1.112 0.989
423264 10.266 2.501 0.170 5.524 -1.124 0.963
423273 9.982 2.023 1.292 5.639 -1.112 0.931
423283 9.643 1.726 2.443 5.666 -1.085 0.885
423293 9.464 1.506 2.956 5.636 -1.049 0.853
423299 9.413 1.427 3.141 5.604 -1.024 0.835
423309 9.406 1.326 3.323 5.564 -1.000 0.818
423318 9.245 1.071 3.640 5.476 -0.970 0.802
423328 9.106 0.704 4.039 5.344 -0.933 0.788
423339 8.889 0.202 4.380 5.192 -0.900 0.769
423349 8.683 -0.184 4.633 4.999 -0.863 0.740
423358 8.240 -1.140 5.353 4.767 -0.810 0.712
423368 8.015 -1.691 6.139 4.473 -0.733 0.675
423378 7.755 -2.452 7.010 4.136 -0.642 0.619
423389 7.623 -3.115 7.214 3.759 -0.538 0.539
423399 7.591 -3.906 7.260 3.341 -0.436 0.448
423408 7.705 -4.223 7.214 2.893 -0.332 0.355
423418 7.985 -4.481 7.080 2.433 -0.236 0.271
423429 8.234 -4.558 7.007 1.963 -0.145 0.194
423439 8.556 -4.142 6.450 1.490 -0.050 0.120
423448 8.914 -3.978 5.469 1.073 0.018 0.053
423458 8.969 -3.456 4.350 0.736 0.060 0.000
423469 8.858 -2.880 3.145 0.501 0.070 -0.022
423479 9.127 -2.051 2.528 0.367 0.058 -0.015
423489 9.451 -1.242 2.662 0.299 0.039 0.009
423498 9.913 -1.061 3.296 0.278 0.061 0.019
423508 10.307 -1.429 2.923 0.226 0.065 0.021
423519 10.242 -1.999 1.703 0.156 0.042 0.020
423529 10.156 -2.205 0.942 0.110 0.020 0.007
423538 9.984 -2.048 0.466 0.075 0.015 0.026
423548 9.664 -1.614 0.464 0.067 0.020 0.043
423559 9.567 -1.751 0.882 0.104 0.027 0.068
423569 9.806 -2.085 1.567 0.097 0.031 0.078
423579 9.556 -2.307 1.993 0.052 0.035 0.054
423588 9.276 -2.237 1.881 -0.001 0.024 0.023
423599 9.188 -2.150 1.644 -0.037 0.029 -0.000
423609 9.243 -2.097 1.259 -0.041 0.038 -0.005
423619 9.600 -1.871 1.192 -0.029 0.049 -0.003
423628 9.805 -1.800 1.094 0.005 0.058 0.006
423639 10.091 -1.591 1.092 0.016 0.060 0.014
423649 10.253 -1.500 1.513 0.032 0.057 0.014
423659 10.303 -1.458 1.764 0.043 0.048 0.014
423669 10.170 -1.703 1.835 0.028 0.032 0.010
423678 10.133 -1.785 1.873 -0.035 0.015 0.002
423689 10.097 -1.817 1.922 -0.122 0.004 -0.014
423699 9.889 -2.045 1.508 -0.205 -0.005 -0.022
423709 9.691 -1.848 1.417 -0.256 -0.011 -0.019
423718 9.662 -1.639 1.517 -0.258 -0.017 0.001
423729 9.707 -1.763 1.611 -0.256 -0.031 0.034
423739 9.653 -1.824 1.790 -0.286 -0.054 0.073
423749 9.603 -1.711 1.979 -0.338 -0.082 0.109
423759 9.617 -1.590 2.041 -0.384 -0.108 0.148
423769 9.548 -1.572 1.841 -0.385 -0.148 0.191
423779 9.531 -1.053 1.829 -0.366 -0.176 0.251
423789 9.649 -1.120 1.867 -0.335 -0.197 0.316
423799 9.634 -1.427 1.525 -0.299 -0.212 0.376
423809 9.666 -1.992 1.235 -0.285 -0.217 0.418
423819 9.685 -2.192 0.841 -0.274 -0.224 0.431
423829 9.667 -2.326 0.852 -0.278 -0.229 0.432
423839 9.767 -2.328 0.987 -0.275 -0.233 0.430
423849 9.793 -2.285 1.046 -0.279 -0.241 0.438
423859 9.826 -2.227 0.911 -0.281 -0.254 0.452
423869 10.019 -2.164 1.294 -0.285 -0.290 0.464
423879 9.758 -2.198 1.822 -0.280 -0.341 0.468
423889 9.769 -2.394 1.848 -0.309 -0.359 0.498
423899 9.870 -2.399 1.810 -0.355 -0.390 0.525
423909 9.964 -2.350 1.859 -0.401 -0.429 0.555
423919 10.080 -2.624 1.813 -0.473 -0.452 0.595
423929 10.305 -2.382 1.445 -0.565 -0.473 0.636
423940 10.409 -1.954 1.023 -0.605 -0.508 0.673
423949 10.528 -1.633 0.663 -0.592 -0.537 0.714
423959 10.646 -1.736 0.365 -0.509 -0.568 0.754
423969 10.663 -2.148 0.250 -0.423 -0.606 0.808
423980 10.746 -2.525 0.138 -0.389 -0.629 0.855
423989 10.834 -2.758 0.081 -0.383 -0.667 0.893
423999 10.758 -2.406 0.553 -0.370 -0.704 0.921
424009 10.965 -2.689 0.847 -0.342 -0.730 0.953
424019 11.059 -2.843 0.731 -0.346 -0.756 1.002
424030 11.391 -2.363 0.397 -0.349 -0.772 1.042
424039 11.744 -2.722 0.299 -0.352 -0.820 1.105
424049 11.923 -2.181 0.035 -0.379 -0.869 1.181
424054 12.234 -1.913 0.299 -0.392 -0.910 1.241
424065 12.757 -1.805 0.160 -0.393 -0.956 1.296
424075 13.917 -1.453 0.187 -0.365 -1.039 1.370
424084 14.464 -0.998 0.731 -0.293 -1.129 1.442
424094 14.458 -0.997 0.476 -0.285 -1.161 1.536
424104 14.733 -0.539 -0.374 -0.349 -1.205 1.653
424115 14.869 0.442 -0.354 -0.390 -1.276 1.765
424124 15.009 1.348 0.172 -0.398 -1.308 1.879
424134 15.460 1.346 0.870 -0.409 -1.319 1.993
424144 15.824 2.187 1.591 -0.447 -1.329 2.093
424155 16.304 2.103 2.758 -0.543 -1.305 2.137
424165 16.534 1.246 2.966 -0.671 -1.288 2.162
424174 16.042 0.002 2.985 -0.772 -1.296 2.213
424184 15.486 1.127 3.744 -0.657 -1.301 2.270
424195 14.435 1.268 3.925 -0.355 -1.307 2.302
424205 13.056 0.801 2.850 -0.076 -1.384 2.263
424214 11.530 0.152 2.241 -0.009 -1.452 2.048
424224 11.183 0.059 2.574 -0.090 -1.473 1.740
424235 13.526 0.521 1.108 0.079 -1.571 1.648
424245 8.074 -1.433 2.016 0.057 -1.334 1.671
424255 3.667 -3.177 3.163 -0.112 -0.938 1.516
424264 3.851 -5.086 3.183 0.048 -0.561 1.250
424274 3.453 -2.399 4.005 0.107 -0.349 0.869
424285 3.951 0.760 3.626 0.301 -0.192 0.232
424295 5.518 2.650 2.210 0.428 -0.134 -0.328
424304 5.625 3.255 1.454 0.497 -0.115 -0.706
424314 5.024 3.296 1.579 0.520 -0.092 -1.042
424325 3.913 2.424 1.887 0.565 -0.027 -1.470
424335 3.376 1.101 1.572 0.606 0.149 -1.831
424345 3.679 -0.121 1.284 0.649 0.335 -2.086
424354 4.402 -0.522 1.307 0.729 0.466 -2.291
424365 5.248 -0.457 1.543 0.856 0.564 -2.534
424375 6.221 -0.512 1.410 0.977 0.663 -2.856
424380 6.720 -0.711 1.353 1.043 0.734 -3.097
424390 7.111 -0.962 1.305 1.053 0.806 -3.299
424399 7.489 -1.082 1.337 1.013 0.907 -3.507
424410 7.818 -1.288 1.381 0.969 1.017 -3.705
424420 8.184 -1.284 1.403 0.909 1.119 -3.897
424430 8.807 -1.785 1.333 0.836 1.203 -4.075
424439 9.454 -2.059 1.345 0.737 1.272 -4.208
424450 9.817 -1.792 1.846 0.643 1.350 -4.318
424460 10.752 -1.529 2.143 0.709 1.446 -4.397
424470 11.657 -2.397 1.992 0.841 1.544 -4.440
424480 11.648 -3.078 1.683 0.856 1.636 -4.504
424489 11.769 -2.916 1.626 0.801 1.709 -4.574
424500 12.628 -2.499 1.752 0.781 1.799 -4.637
424510 13.269 -2.499 1.851 0.841 1.883 -4.690
424520 13.911 -2.782 1.685 0.841 1.953 -4.735
424529 14.532 -3.612 1.337 0.736 1.976 -4.763
424540 15.247 -4.353 0.792 0.509 1.946 -4.780
424550 15.636 -5.056 0.312 0.237 1.901 -4.761
424560 15.849 -5.175 0.043 -0.009 1.857 -4.678
424570 16.128 -4.649 -0.177 -0.163 1.824 -4.552
424580 16.355 -4.264 -0.099 -0.207 1.780 -4.406
424590 16.245 -4.811 0.310 -0.192 1.776 -4.211
424595 16.158 -5.904 0.541 -0.183 1.801 -4.019
424605 15.856 -7.526 0.729 -0.195 1.818 -3.774
424615 15.520 -9.932 -0.332 -0.260 1.794 -3.355
424625 14.987 -11.887 -2.301 -0.398 1.659 -2.833
424635 14.354 -13.064 -4.349 -0.550 1.430 -2.233
424645 13.620 -13.619 -5.642 -0.651 1.134 -1.571
424655 12.849 -13.820 -5.607 -0.656 0.778 -0.855
424665 12.224 -13.992 -4.786 -0.575 0.381 -0.100
424675 11.926 -13.337 -3.959 -0.390 0.008 0.656
424685 12.213 -12.291 -3.455 -0.101 -0.281 1.377
424695 12.860 -11.554 -3.344 0.253 -0.493 2.054
424706 14.439 -5.129 0.043 0.631 -0.603 2.603
424715 13.039 11.290 3.922 1.143 -0.568 2.453
424725 11.004 27.396 6.014 1.467 -0.273 1.796
424735 10.013 18.692 -3.160 1.095 -0.479 1.365
424745 12.072 5.531 -5.666 1.076 -0.549 1.820
424755 15.417 -3.944 -3.878 1.404 -0.585 2.275
424765 17.952 -10.958 1.287 1.806 -0.317 2.759
424775 20.981 -12.498 -0.335 1.806 -0.245 3.047
424785 16.171 -5.645 -0.629 1.799 -0.331 2.826
424796 9.350 1.562 -1.013 1.689 -0.183 2.317
424805 5.323 -0.824 1.283 1.517 -0.052 2.084
424811 5.231 -4.798 2.772 1.329 -0.040 1.992
424820 6.640 -6.050 3.421 0.955 -0.078 1.844
424830 9.237 -4.621 2.440 0.275 -0.154 1.545
424841 10.514 -2.593 1.083 -0.369 -0.172 1.287
424850 10.533 -1.500 0.597 -0.719 -0.122 1.142
424860 10.217 -0.250 0.664 -0.761 -0.042 1.009
424870 9.633 0.931 0.743 -0.596 0.043 0.918
424881 9.430 1.323 1.277 -0.336 0.119 0.903
424890 9.629 1.405 2.223 -0.082 0.135 0.901
424900 9.728 1.057 2.509 0.136 0.093 0.913
424910 9.631 0.538 2.724 0.233 0.027 0.902
424921 9.708 -0.324 3.012 0.162 -0.035 0.876
424931 9.762 -0.719 3.146 0.010 -0.080 0.849
424940 9.561 -0.518 3.035 -0.177 -0.130 0.811
424950 9.674 -0.077 2.132 -0.349 -0.156 0.781
424961 9.745 0.137 1.113 -0.451 -0.162 0.763
424971 9.853 0.061 0.157 -0.510 -0.116 0.764
424980 9.987 -0.134 0.084 -0.504 -0.034 0.764
424990 9.958 -0.904 0.493 -0.504 0.022 0.747
425000 9.722 -1.260 1.228 -0.472 0.046 0.697
425011 9.437 -1.503 1.906 -0.459 0.054 0.626
425020 9.340 -1.565 2.136 -0.473 0.058 0.540
425030 9.303 -1.465 2.209 -0.479 0.060 0.451
425040 9.490 -1.345 2.179 -0.470 0.056 0.373
425051 9.688 -1.123 2.070 -0.472 0.059 0.329
425061 9.721 -0.812 1.900 -0.456 0.069 0.300
425070 9.915 -0.565 1.513 -0.424 0.073 0.302
425080 9.921 -0.444 1.563 -0.398 0.073 0.327
425091 9.950 -0.422 1.415 -0.365 0.057 0.373
425101 10.006 -0.639 1.543 -0.351 0.029 0.435
425110 9.963 -0.578 1.907 -0.374 0.002 0.510
425120 9.836 -0.491 2.066 -0.393 -0.039 0.592
425131 9.831 -0.622 2.302 -0.404 -0.087 0.680
425141 9.769 -0.355 2.594 -0.418 -0.137 0.771
425151 9.911 -0.205 2.978 -0.437 -0.174 0.866
425160 10.008 -0.281 2.898 -0.448 -0.209 0.957
425170 10.395 -0.856 2.483 -0.454 -0.239 1.021
425181 10.407 -1.302 1.994 -0.480 -0.265 1.053
425191 10.368 -1.899 1.773 -0.521 -0.283 1.063
