129574,8.076,-4.742,1.686,0.018448,0.011923,0.014677,102140.86
129584,8.087,-4.736,1.752,0.021109,0.009794,0.016806,102141.38
129590,8.071,-4.715,1.743,0.024302,0.006070,0.019466,102139.61
129599,8.065,-4.735,1.772,0.023770,0.005005,0.022127,102139.61
129609,8.099,-4.733,1.774,0.023237,0.003941,0.023191,102139.61
129619,8.036,-4.819,1.729,0.022173,0.003409,0.023723,102141.83
129629,8.029,-4.801,1.694,0.022173,0.002877,0.022127,102143.06
129639,8.040,-4.769,1.720,0.026430,0.002345,0.019998,102140.33
129649,8.048,-4.776,1.694,0.031751,0.001813,0.021062,102140.33
129659,8.027,-4.772,1.723,0.035476,0.001281,0.023723,102143.54
129669,8.033,-4.806,1.726,0.036008,0.003409,0.023723,102143.54
129679,8.038,-4.814,1.702,0.033880,0.004473,0.025851,102143.85
129689,7.995,-4.819,1.731,0.031751,0.006070,0.025319,102141.57
129699,8.015,-4.837,1.723,0.030155,0.007134,0.024787,102143.27
129710,8.019,-4.866,1.698,0.029268,0.008908,0.024787,102139.88
129719,8.016,-4.796,1.732,0.027494,0.010326,0.022659,102139.88
129729,8.027,-4.772,1.778,0.026962,0.010326,0.027980,102142.05
129739,8.059,-4.775,1.749,0.025898,0.011923,0.029044,102141.60
129750,8.093,-4.686,1.783,0.026430,0.011391,0.032769,102139.73
129759,8.056,-4.799,1.768,0.036540,0.009262,0.034365,102145.13
129769,8.042,-4.867,1.729,0.042393,0.006070,0.035962,102139.76
129779,8.014,-4.830,1.753,0.040265,0.007666,0.032769,102138.46
129789,8.007,-4.864,1.793,0.039733,0.008730,0.030108,102138.46
129799,8.011,-4.874,1.726,0.043990,0.007134,0.026384,102141.35
129809,7.998,-4.928,1.737,0.042393,0.008198,0.023191,102141.35
129819,7.957,-4.884,1.711,0.038669,0.010326,0.019466,102143.61
129829,7.977,-4.861,1.735,0.033880,0.014583,0.016273,102140.30
129839,8.024,-4.861,1.767,0.033348,0.014583,0.016806,102140.66
129849,8.008,-4.803,1.759,0.036008,0.013519,0.018402,102142.31
129859,8.030,-4.757,1.815,0.038137,0.012987,0.022659,102142.31
129869,8.013,-4.818,1.834,0.038137,0.009262,0.026916,102143.31
129880,8.017,-4.797,1.854,0.039201,0.007666,0.030108,102140.47
129889,7.997,-4.818,1.866,0.039733,0.003941,0.031173,102138.77
129899,8.021,-4.835,1.832,0.042926,0.002345,0.032237,102138.77
129909,7.997,-4.880,1.829,0.038137,0.001813,0.032769,102138.77
129920,8.015,-4.857,1.765,0.035476,0.000749,0.034365,102140.77
129929,8.004,-4.835,1.815,0.034944,0.001281,0.034897,102140.30
129939,7.961,-4.880,1.764,0.036540,0.001813,0.037558,102142.88
129949,7.983,-4.866,1.789,0.034412,0.002877,0.040218,102140.39
129959,7.986,-4.830,1.838,0.037604,0.001281,0.040751,102140.39
129970,7.942,-4.937,1.783,0.042393,-0.000316,0.040751,102140.19
129979,7.949,-4.941,1.766,0.046650,-0.000848,0.039686,102140.39
129989,7.959,-4.888,1.744,0.046118,0.000216,0.040751,102141.25
129999,7.979,-4.863,1.756,0.045586,0.002345,0.042347,102141.25
130010,8.050,-4.757,1.837,0.044522,0.000749,0.048200,102141.84
130019,8.098,-4.633,1.923,0.045054,-0.004573,0.052989,102140.64
130029,8.062,-4.698,2.041,0.050907,-0.012554,0.059374,102140.64
130039,7.925,-5.027,1.954,0.057825,-0.023196,0.055117,102141.78
130050,7.874,-5.151,1.810,0.050907,-0.021068,0.040218,102140.59
130059,7.846,-5.112,1.681,0.042393,-0.013618,0.023723,102140.59
130065,7.880,-5.093,1.609,0.040265,-0.007765,0.013081,102143.96
130074,7.905,-5.049,1.603,0.043990,-0.001912,0.007228,102142.21
130084,7.886,-5.051,1.601,0.054632,0.003941,0.002439,102141.07
130095,7.880,-4.990,1.617,0.064742,0.007666,0.005099,102136.46
130104,7.876,-4.945,1.682,0.074320,0.012455,0.007228,102136.46
130114,7.872,-4.923,1.777,0.073256,0.016712,0.012549,102141.49
130124,7.962,-4.876,1.888,0.063146,0.017244,0.017870,102141.13
130135,7.977,-4.815,2.078,0.053036,0.009262,0.025851,102141.45
130144,8.026,-4.712,2.131,0.042926,0.001813,0.032769,102139.84
130154,7.977,-4.849,2.050,0.032283,0.005005,0.039686,102139.84
130164,7.944,-4.983,1.872,0.021109,0.002877,0.040751,102140.35
130174,7.931,-4.985,1.876,0.015256,0.002877,0.038622,102140.91
130184,7.893,-5.002,1.719,0.017384,0.004473,0.033301,102141.07
130194,7.919,-4.991,1.653,0.023237,0.007666,0.031705,102139.73
130204,7.889,-4.997,1.698,0.032815,0.010326,0.030108,102139.73
130214,7.883,-4.996,1.716,0.036540,0.016712,0.029044,102142.08
130225,7.869,-5.016,1.772,0.033880,0.022033,0.030108,102140.47
130234,7.886,-4.963,1.829,0.029623,0.027354,0.029044,102140.53
130244,7.886,-4.961,1.896,0.024834,0.031079,0.030640,102138.14
130254,7.944,-4.899,1.914,0.020045,0.029482,0.033833,102138.14
130265,7.995,-4.819,1.975,0.020577,0.024161,0.038622,102141.58
130274,7.990,-4.921,1.942,0.027494,0.017776,0.042347,102142.19
130284,7.968,-4.864,1.961,0.033348,0.005538,0.045540,102141.67
130294,7.937,-4.827,2.057,0.042393,-0.005105,0.043943,102138.36
130305,7.924,-5.048,1.890,0.053036,-0.008297,0.037026,102138.36
130315,7.904,-5.136,1.726,0.059953,-0.007233,0.029576,102140.91
130324,7.814,-5.160,1.712,0.059421,-0.001380,0.023191,102144.27
130334,7.852,-5.073,1.734,0.043990,0.013519,0.022659,102140.87
130344,7.919,-4.903,1.877,0.023770,0.021501,0.024787,102139.30
130354,8.001,-4.715,2.094,0.016852,0.018308,0.032769,102139.30
130364,8.072,-4.606,2.321,0.018981,0.010859,0.039154,102143.10
130374,7.922,-4.931,1.993,0.032815,0.000216,0.047136,102140.77
130384,7.880,-5.045,1.750,0.051439,-0.007765,0.057778,102138.02
130395,7.838,-5.069,1.845,0.059421,-0.011490,0.059374,102139.95
130404,7.816,-5.099,1.784,0.049843,-0.001912,0.057778,102139.95
130414,7.846,-5.016,1.764,0.044522,0.003409,0.056714,102140.39
130424,7.837,-5.130,1.711,0.057292,0.003941,0.055117,102140.19
130435,7.778,-5.204,1.737,0.065274,0.006070,0.053521,102136.67
130444,7.717,-5.195,1.792,0.057292,0.012987,0.049796,102137.66
130454,7.694,-5.184,1.783,0.045054,0.022565,0.047136,102137.66
130464,7.752,-5.137,1.819,0.031751,0.031611,0.047136,102142.46
130475,7.919,-4.876,1.949,0.024834,0.035336,0.052457,102141.12
130485,7.945,-4.842,2.092,0.026962,0.023629,0.061503,102138.99
130494,7.902,-4.978,2.030,0.041861,0.015115,0.069484,102139.40
130504,7.807,-5.158,1.878,0.050907,0.007666,0.071081,102139.40
130514,7.762,-5.116,1.907,0.045586,0.005005,0.068952,102141.87
130525,7.724,-5.061,1.894,0.048247,0.007134,0.066824,102140.98
130534,7.730,-5.084,1.854,0.054632,0.006602,0.070549,102137.93
130544,7.707,-5.058,1.816,0.065274,0.006070,0.074273,102138.60
130554,7.701,-4.994,1.822,0.073788,0.007134,0.080659,102138.60
130565,7.756,-5.032,1.820,0.087091,0.006602,0.088640,102142.88
130574,7.781,-5.073,1.878,0.097201,0.004473,0.096090,102140.70
130584,7.764,-5.075,1.932,0.099329,0.004473,0.101411,102138.73
130594,7.764,-5.088,1.893,0.096136,0.007666,0.105668,102140.39
130605,7.807,-5.013,1.990,0.100393,0.001813,0.109393,102140.39
130615,7.714,-5.048,2.015,0.116357,-0.012022,0.116842,102140.55
130624,7.704,-5.117,2.015,0.132320,-0.020004,0.120035,102142.56
130634,7.725,-5.183,2.070,0.136045,-0.026389,0.126952,102140.50
130644,7.689,-5.195,2.044,0.124870,-0.026921,0.134402,102137.08
130655,7.702,-5.143,2.054,0.105714,-0.026921,0.147172,102137.08
130664,7.808,-4.963,2.150,0.094540,-0.029050,0.162604,102140.40
130674,7.858,-4.906,2.232,0.091348,-0.035967,0.182292,102140.96
130684,7.951,-4.875,2.224,0.080705,-0.039160,0.200916,102138.90
130695,7.870,-5.240,2.083,0.071659,-0.040224,0.203576,102141.38
130704,7.626,-5.564,1.844,0.059953,-0.038628,0.199851,102141.38
130714,7.515,-5.655,1.755,0.038137,-0.024261,0.180695,102142.48
130724,7.578,-5.663,1.667,0.020045,-0.004573,0.158347,102139.59
130735,7.550,-5.643,1.719,0.001953,0.016180,0.141851,102139.68
130745,7.590,-5.465,1.831,-0.010818,0.028950,0.126420,102138.55
130754,7.701,-5.216,2.046,-0.005496,0.020437,0.117906,102138.55
130764,7.655,-5.131,2.282,0.023237,-0.014151,0.116842,102141.61
130775,7.610,-5.304,2.246,0.062081,-0.046077,0.119503,102142.69
130785,7.623,-5.324,2.258,0.070595,-0.067362,0.126952,102143.94
130794,7.760,-5.134,2.394,0.061549,-0.076407,0.134934,102138.81
130804,7.772,-5.192,2.362,0.037604,-0.074279,0.143980,102138.81
130814,7.585,-5.634,2.133,0.003549,-0.067362,0.144512,102143.97
130825,7.495,-5.626,1.995,-0.039552,-0.052462,0.132805,102141.33
130834,7.529,-5.513,1.943,-0.067753,-0.036499,0.119503,102137.86
130844,7.580,-5.470,1.869,-0.079460,-0.029582,0.113117,102138.91
130854,7.556,-5.451,1.895,-0.071478,-0.031178,0.110457,102138.91
130865,7.511,-5.435,1.948,-0.064561,-0.033307,0.108861,102142.81
130875,7.501,-5.398,2.089,-0.064561,-0.039692,0.109925,102142.30
130884,7.515,-5.300,2.178,-0.062432,-0.049270,0.115246,102138.83
130894,7.601,-5.213,2.203,-0.062610,-0.059203,0.128726,102138.42
130905,7.671,-5.013,2.406,-0.062432,-0.078004,0.144512,102138.42
130915,7.608,-5.082,2.363,-0.051258,-0.107802,0.163668,102141.54
130924,7.556,-5.371,2.131,-0.043808,-0.120572,0.181760,102141.90
130934,7.521,-5.404,2.021,-0.052322,-0.122701,0.193998,102140.82
130945,7.529,-5.451,1.864,-0.065093,-0.115784,0.206237,102139.26
130955,7.565,-5.571,1.735,-0.078928,-0.105141,0.220071,102139.26
130965,7.578,-5.547,1.765,-0.093827,-0.097692,0.234971,102141.15
130974,7.506,-5.507,1.839,-0.112983,-0.090242,0.250402,102139.54
130984,7.488,-5.619,1.809,-0.134799,-0.081728,0.266365,102139.34
130995,7.558,-5.593,1.791,-0.159808,-0.072683,0.279136,102137.21
131004,7.489,-5.427,1.935,-0.172579,-0.076940,0.290310,102137.21
131014,7.370,-5.508,1.875,-0.152891,-0.096095,0.304677,102143.30
131024,7.359,-5.684,1.791,-0.127882,-0.113655,0.316915,102141.74
131035,7.361,-5.657,1.828,-0.112983,-0.124297,0.325429,102140.82
131045,7.386,-5.712,1.863,-0.111918,-0.121637,0.332347,102139.37
131054,7.446,-5.737,1.809,-0.126817,-0.113655,0.339264,102139.37
131064,7.447,-5.765,1.760,-0.136928,-0.105673,0.342989,102141.53
131075,7.373,-5.766,1.753,-0.138524,-0.106738,0.347246,102138.58
131085,7.262,-5.787,1.655,-0.127350,-0.114187,0.352567,102140.30
131094,7.257,-5.735,1.667,-0.105001,-0.124829,0.361081,102138.89
131104,7.228,-5.741,1.631,-0.074671,-0.141857,0.373319,102138.89
131115,7.171,-5.829,1.652,-0.051258,-0.157288,0.390879,102141.96
131125,7.190,-5.789,1.805,-0.042744,-0.168462,0.411631,102141.65
131135,7.148,-5.728,1.905,-0.050194,-0.178040,0.437704,102138.40
131144,7.165,-5.829,1.880,-0.067221,-0.176444,0.465374,102138.55
131154,7.164,-6.021,1.780,-0.098616,-0.165802,0.484530,102138.55
131165,7.294,-6.151,1.663,-0.150230,-0.147178,0.501558,102139.78
131175,7.477,-6.220,1.628,-0.198120,-0.132279,0.512732,102141.13
131184,7.495,-6.240,1.481,-0.219937,-0.129618,0.522842,102140.50
131194,7.367,-6.361,1.289,-0.223129,-0.133343,0.536677,102139.06
131205,7.377,-6.437,1.319,-0.238561,-0.132811,0.549447,102139.06
131215,7.424,-6.350,1.416,-0.254524,-0.130683,0.563282,102141.80
131224,7.347,-6.510,1.662,-0.267827,-0.132811,0.579778,102140.98
131234,7.309,-6.671,1.633,-0.288579,-0.139196,0.593080,102138.54
131245,7.372,-6.768,1.430,-0.315184,-0.146114,0.603723,102141.27
131250,7.377,-6.848,1.446,-0.331148,-0.155692,0.614365,102141.27
131260,7.294,-6.988,1.480,-0.351900,-0.158884,0.623411,102141.27
131270,7.090,-7.279,1.609,-0.380634,-0.155692,0.633521,102141.20
131279,7.306,-7.053,1.817,-0.415753,-0.142389,0.643631,102140.37
131290,7.878,-7.279,1.437,-0.454065,-0.136536,0.637778,102140.84
131300,8.081,-7.335,1.181,-0.495570,-0.133343,0.656934,102140.57
131310,8.275,-7.123,0.876,-0.539735,-0.134407,0.688328,102142.74
131319,8.357,-7.002,0.807,-0.561551,-0.149306,0.736218,102141.09
131330,8.513,-7.314,0.857,-0.573258,-0.169527,0.786236,102141.09
131340,8.719,-7.593,0.942,-0.586560,-0.198793,0.826677,102138.18
131350,8.731,-7.559,1.172,-0.601459,-0.232316,0.857539,102138.60
131359,8.732,-7.529,1.401,-0.617955,-0.265306,0.881484,102138.60
131371,8.765,-7.462,1.443,-0.634095,-0.299716,0.909863,102141.44
131380,8.780,-7.419,1.474,-0.650946,-0.325435,0.938952,102141.44
131390,8.761,-7.217,1.465,-0.673294,-0.351508,0.976732,102142.53
131400,8.625,-7.113,1.522,-0.690854,-0.375985,1.020365,102139.78
131409,8.514,-7.241,1.529,-0.721716,-0.388756,1.067722,102139.78
131420,8.381,-7.226,1.706,-0.788230,-0.382371,1.111355,102138.29
131430,8.394,-7.520,1.866,-0.875496,-0.360022,1.145410,102139.45
131440,8.451,-7.771,1.974,-0.978193,-0.317985,1.167759,102138.26
131449,8.307,-7.720,1.989,-1.098450,-0.258389,1.181594,102138.26
131460,8.270,-7.686,1.906,-1.235202,-0.179637,1.189575,102138.26
131470,8.582,-7.673,1.913,-1.411863,-0.069490,1.207135,102142.10
131480,9.108,-7.326,2.046,-1.620450,0.061409,1.241190,102140.80
131489,9.418,-6.664,2.258,-1.804560,0.176877,1.319410,102140.02
131500,9.206,-6.425,2.422,-1.901936,0.247647,1.440199,102138.84
131510,9.043,-7.060,2.440,-1.890761,0.275317,1.586529,102138.84
131520,9.114,-7.858,2.329,-1.838615,0.288088,1.732327,102139.91
131530,9.591,-7.790,2.083,-1.796578,0.290748,1.841410,102140.95
131539,9.793,-7.426,1.797,-1.793385,0.300858,1.882914,102136.59
131550,9.475,-7.238,1.694,-1.849257,0.318950,1.862162,102136.59
131560,8.823,-7.093,1.701,-1.903000,0.327996,1.810015,102137.32
131569,8.072,-7.065,1.870,-1.852449,0.307776,1.773300,102137.32
131579,7.416,-7.047,2.008,-1.677917,0.255097,1.756804,102139.96
131590,6.843,-6.764,1.945,-1.424633,0.182198,1.749887,102140.79
131600,6.410,-6.692,1.650,-1.111221,0.109299,1.720621,102139.24
131610,5.840,-6.955,0.899,-0.849423,0.060877,1.629098,102139.24
131620,5.332,-6.888,-0.100,-0.731294,0.063537,1.480639,102141.02
131630,5.584,-5.105,-1.906,-0.784505,0.101317,1.195429,102142.05
131640,4.421,-4.402,-1.903,-0.757900,0.090675,0.967154,102138.17
131650,5.209,-2.685,-0.155,-0.322102,0.015648,0.826145,102141.63
131660,6.254,-0.742,0.055,0.239806,-0.187086,0.554769,102143.84
131670,5.767,-0.335,-0.078,0.850668,-0.407912,0.315319,102140.69
131680,5.190,-0.669,-0.340,1.357769,-0.531893,0.097154,102138.88
131690,4.803,-1.064,-0.385,1.657346,-0.555306,-0.149745,102138.88
131699,4.410,-1.680,-0.317,1.748337,-0.499967,-0.409946,102140.48
131709,4.063,-2.195,-0.118,1.710025,-0.376517,-0.670148,102140.48
131720,3.942,-2.647,-0.074,1.606796,-0.225398,-0.920240,102138.52
131725,4.073,-3.036,-0.201,1.506759,-0.116316,-1.097964,102141.68
131735,4.255,-3.376,-0.436,1.404594,-0.025325,-1.267175,102138.98
131744,4.560,-3.886,-0.871,1.292851,0.070455,-1.482148,102136.24
131755,4.844,-4.296,-1.288,1.183237,0.151868,-1.712551,102136.24
131765,5.100,-4.592,-1.494,1.059787,0.237537,-1.965835,102140.05
131775,5.415,-4.776,-1.515,0.907072,0.332253,-2.222844,102141.34
131785,5.660,-4.615,-1.428,0.759677,0.429629,-2.463890,102135.13
131794,5.945,-4.292,-1.374,0.691035,0.507849,-2.662367,102137.45
131805,6.261,-4.217,-1.242,0.758081,0.542968,-2.814018,102137.45
131815,6.598,-4.513,-1.165,0.944319,0.543500,-2.935871,102139.80
131825,6.924,-4.997,-1.341,1.185897,0.508913,-3.036972,102139.70
131834,7.200,-5.731,-1.599,1.443438,0.442932,-3.130091,102138.15
131845,7.323,-6.770,-1.818,1.644576,0.372161,-3.221614,102137.21
131855,7.335,-7.897,-1.938,1.723860,0.321079,-3.313137,102137.21
131865,7.270,-8.726,-1.811,1.678099,0.305647,-3.401468,102139.31
131874,7.234,-9.156,-1.501,1.544539,0.330657,-3.481284,102138.13
131885,7.261,-9.305,-1.088,1.372136,0.387592,-3.550458,102135.58
131895,7.449,-9.272,-0.732,1.180044,0.472730,-3.608458,102134.70
131905,7.746,-9.184,-0.507,0.988485,0.571170,-3.658477,102134.70
131915,8.153,-9.123,-0.396,0.784687,0.685042,-3.713284,102139.54
131924,8.692,-9.017,-0.506,0.567054,0.795188,-3.765963,102140.68
131935,9.374,-9.011,-0.595,0.375494,0.885115,-3.796293,102139.38
131945,9.842,-9.105,-0.600,0.233421,0.953757,-3.802146,102141.40
131955,10.073,-8.998,-0.668,0.115825,0.998986,-3.792568,102141.40
131964,10.276,-8.611,-0.651,0.015788,1.031977,-3.765963,102141.27
131975,10.593,-8.215,-0.555,-0.034763,1.046344,-3.721266,102140.45
131985,10.827,-7.906,-0.517,-0.027845,1.034106,-3.661669,102138.12
131995,10.914,-7.933,-0.336,0.037072,1.005372,-3.592495,102141.63
132004,10.768,-8.602,-0.236,0.164247,0.963335,-3.507357,102141.63
132015,10.203,-9.241,-0.325,0.242999,0.928748,-3.391890,102143.95
132025,9.489,-9.667,-0.404,0.258430,0.922895,-3.232789,102141.67
132035,8.829,-9.837,-0.424,0.206283,0.950564,-3.027394,102140.17
132045,8.348,-9.739,-0.371,0.077513,1.007500,-2.793266,102138.72
132055,8.173,-9.537,-0.307,-0.103937,1.069225,-2.562330,102138.72
132065,7.993,-9.362,-0.306,-0.310927,1.105940,-2.346826,102143.59
132075,7.804,-9.460,-0.461,-0.518982,1.096362,-2.124936,102140.95
132080,7.451,-9.702,-0.541,-0.675955,1.062840,-1.942955,102141.77
132089,7.031,-9.866,-0.649,-0.821221,1.005904,-1.713615,102141.77
132100,6.945,-9.856,-0.805,-0.980854,0.905867,-1.350716,102137.59
132110,7.052,-9.230,-0.616,-1.065459,0.763262,-0.955359,102137.59
132120,7.109,-8.213,-0.359,-1.052156,0.580748,-0.560534,102144.36
132130,7.097,-7.334,-0.238,-0.963294,0.393446,-0.204020,102142.70
132141,6.873,-6.628,-0.179,-0.823881,0.219446,0.079595,102140.67
132150,6.661,-6.045,-0.333,-0.628597,0.053959,0.282860,102140.67
132160,6.495,-5.737,-0.458,-0.402982,-0.092903,0.419613,102140.67
132170,6.402,-5.519,-0.439,-0.197588,-0.204646,0.499429,102142.89
132179,6.438,-4.958,1.816,0.009403,-0.253600,0.510071,102142.11
132190,5.580,-6.539,2.855,0.225971,-0.199857,0.524970,102143.05
132201,4.517,-8.571,5.670,0.260558,-0.010958,0.657998,102141.96
132210,7.371,-6.829,6.478,0.023770,0.293409,0.651613,102141.96
132220,10.870,-2.391,5.720,-0.586560,0.500400,0.396732,102142.01
132230,12.891,-0.326,5.785,-0.885606,0.585537,0.211558,102141.18
132240,14.814,-1.728,3.861,-0.904762,0.470069,0.255191,102139.32
132250,14.598,-3.275,2.266,-0.763753,0.157189,0.548915,102141.50
132260,13.414,-3.127,2.418,-0.296028,-0.139728,0.944273,102146.00
132271,12.159,-2.498,1.889,0.310577,-0.346187,1.236401,102142.64
132280,10.641,-1.860,1.033,0.835769,-0.510077,1.398695,102142.64
132290,9.254,-1.607,1.066,1.215695,-0.620756,1.449777,102139.95
132300,7.925,-1.964,2.228,1.373732,-0.619159,1.431685,102139.28
132310,6.559,-3.327,3.532,1.254007,-0.491453,1.359851,102139.28
132320,6.250,-5.722,4.079,0.880466,-0.284462,1.274713,102142.14
132330,7.145,-6.773,3.309,0.311641,-0.089710,1.154456,102142.81
132340,7.968,-5.847,2.672,-0.236432,0.061409,1.008126,102140.33
132350,8.512,-4.428,2.068,-0.555166,0.157721,0.896383,102138.98
132360,9.038,-3.478,1.596,-0.603588,0.171556,0.854878,102143.35
132370,9.424,-3.229,1.279,-0.442359,0.137501,0.860200,102141.07
132380,9.413,-3.379,1.023,-0.203441,0.092804,0.877227,102140.09
132390,9.132,-3.382,1.394,0.013127,0.060877,0.886273,102139.32
132400,8.801,-3.641,1.918,0.158393,0.044382,0.882016,102139.32
132410,8.467,-4.194,2.290,0.183402,0.043849,0.857007,102139.32
132420,8.163,-4.564,2.481,0.062081,0.084290,0.803264,102143.69
132430,8.051,-4.589,2.552,-0.151827,0.158785,0.723979,102143.69
132435,8.138,-4.430,2.861,-0.298157,0.194436,0.662255,102140.53
132445,8.256,-4.190,3.113,-0.372120,0.189115,0.605851,102139.70
132455,8.348,-4.030,3.137,-0.390744,0.166767,0.547851,102139.70
132465,8.555,-3.859,2.897,-0.339129,0.130583,0.514328,102143.13
132475,8.751,-3.534,2.903,-0.265166,0.075244,0.506879,102142.56
132485,8.568,-3.513,3.111,-0.189074,0.011391,0.507411,102141.52
132495,8.336,-3.956,2.908,-0.165129,-0.021068,0.506879,102139.41
132505,8.350,-4.223,2.783,-0.206102,-0.020536,0.491980,102139.41
132515,8.305,-4.235,2.732,-0.256652,-0.009894,0.468035,102143.21
132525,8.339,-4.062,2.421,-0.297093,0.009794,0.446218,102142.38
132535,8.471,-3.773,2.473,-0.319441,0.017776,0.429191,102143.10
132545,8.482,-3.629,2.513,-0.276872,-0.006169,0.428126,102142.49
132555,8.300,-3.833,2.426,-0.176836,-0.047851,0.435931,102142.49
132566,8.165,-4.023,2.386,-0.105533,-0.076407,0.436640,102145.54
132575,8.184,-4.259,2.306,-0.081588,-0.086517,0.431319,102140.01
132585,8.233,-4.194,2.516,-0.100744,-0.084389,0.429191,102141.45
132595,8.165,-4.091,2.607,-0.127882,-0.084389,0.432383,102141.66
132605,8.202,-4.076,2.531,-0.149166,-0.083325,0.446750,102141.66
132615,8.226,-3.989,2.590,-0.155019,-0.094499,0.464842,102138.77
132625,8.245,-3.922,2.515,-0.140120,-0.109398,0.490383,102141.37
132635,8.209,-4.127,2.399,-0.134267,-0.115784,0.510603,102143.38
132645,8.191,-4.438,2.244,-0.141184,-0.113655,0.520714,102138.77
132655,8.216,-4.520,2.188,-0.156616,-0.106738,0.520714,102138.77
132665,8.163,-4.487,2.206,-0.158744,-0.100352,0.514860,102143.07
132675,8.099,-4.690,2.072,-0.155551,-0.097692,0.506347,102139.55
132685,8.089,-4.836,2.022,-0.160873,-0.093435,0.491447,102142.20
132696,8.099,-4.758,2.029,-0.151827,-0.098224,0.473888,102139.13
132705,8.038,-4.771,2.087,-0.121496,-0.111527,0.465906,102139.13
132715,7.910,-4.934,2.005,-0.095423,-0.122169,0.457392,102140.26
132725,7.955,-4.947,1.969,-0.101276,-0.118444,0.452603,102140.84
132736,8.014,-4.783,2.119,-0.120964,-0.110995,0.451539,102141.55
132745,8.044,-4.620,2.235,-0.128414,-0.110462,0.460053,102141.87
132755,8.028,-4.650,2.314,-0.123093,-0.120040,0.473888,102141.87
132765,7.967,-4.672,2.200,-0.117772,-0.131747,0.493044,102143.27
132775,7.871,-4.766,2.072,-0.117240,-0.138132,0.511668,102139.70
132785,7.845,-4.796,2.081,-0.115111,-0.146646,0.533484,102140.05
132795,7.822,-4.824,1.996,-0.108726,-0.154095,0.555833,102140.21
132805,7.785,-4.934,1.986,-0.108194,-0.160481,0.578181,102140.21
132815,7.699,-5.061,2.095,-0.115111,-0.166866,0.601062,102140.98
132826,7.679,-5.036,2.197,-0.134799,-0.170591,0.620218,102139.88
132835,7.858,-4.830,2.349,-0.156084,-0.172719,0.642035,102141.02
132845,7.914,-4.941,2.423,-0.153423,-0.188150,0.661723,102139.99
132855,7.828,-5.280,2.192,-0.145441,-0.205710,0.677154,102139.99
132866,7.768,-5.365,2.023,-0.153423,-0.214756,0.686200,102142.00
132875,7.651,-5.452,1.922,-0.160340,-0.216352,0.688860,102141.84
132885,7.544,-5.644,1.742,-0.166726,-0.214224,0.687796,102140.66
132895,7.451,-5.734,1.647,-0.178964,-0.208371,0.685135,102140.39
132905,7.406,-5.779,1.698,-0.194395,-0.207306,0.683007,102140.39
132911,7.396,-5.809,1.755,-0.206634,-0.205710,0.681411,102143.16
132920,7.450,-5.856,1.764,-0.218872,-0.206242,0.680879,102143.16
132930,7.577,-5.949,1.813,-0.247074,-0.201453,0.682475,102141.75
132940,7.756,-5.895,1.799,-0.292304,-0.189747,0.689392,102140.61
132951,7.828,-5.774,1.734,-0.327955,-0.175912,0.707484,102137.52
132961,7.755,-5.837,1.712,-0.343386,-0.176976,0.733557,102142.49
132970,7.690,-5.918,1.822,-0.358285,-0.183894,0.766548,102141.60
132980,7.679,-6.022,1.839,-0.371588,-0.191875,0.797943,102140.46
132990,7.645,-6.288,1.802,-0.385423,-0.196132,0.828805,102140.46
133001,7.565,-6.574,1.775,-0.415221,-0.187618,0.854878,102136.90
133010,7.570,-6.630,1.837,-0.466836,-0.163141,0.874034,102136.90
133020,8.100,-6.761,1.392,-0.534414,-0.137068,0.883080,102139.09
133030,8.377,-6.865,0.983,-0.589753,-0.141147,0.907735,102141.18
133041,8.528,-6.671,0.687,-0.625404,-0.153031,0.945869,102141.18
133051,8.601,-6.856,0.370,-0.647221,-0.178040,1.003337,102139.24
133060,8.676,-7.295,0.058,-0.691386,-0.194004,1.068787,102139.24
133070,9.086,-7.593,0.127,-0.812175,-0.182297,1.131575,102139.64
133081,10.287,-6.842,1.313,-0.959037,-0.200389,1.187447,102139.25
133091,11.187,-6.004,2.667,-0.916468,-0.352040,1.266199,102137.78
133100,10.840,-7.017,2.773,-0.710542,-0.513802,1.368896,102137.78
133110,10.379,-8.469,2.063,-0.689258,-0.549985,1.437006,102137.78
133121,10.694,-8.372,1.671,-0.928175,-0.483471,1.479043,102140.71
133130,11.039,-7.803,1.601,-1.211789,-0.410572,1.525337,102140.55
133140,11.050,-7.632,1.054,-1.385789,-0.371728,1.595575,102140.77
133150,11.176,-7.138,0.437,-1.536376,-0.331288,1.683905,102138.70
133160,11.337,-6.459,0.182,-1.685899,-0.277013,1.775428,102138.70
133171,11.161,-6.346,0.059,-1.771569,-0.250407,1.855777,102141.32
133181,10.798,-6.576,0.110,-1.790725,-0.240297,1.916437,102142.57
133190,10.268,-6.916,0.463,-1.750816,-0.226994,1.948364,102138.59
133200,9.553,-7.431,0.823,-1.668339,-0.212095,1.952621,102138.59
133211,8.795,-8.045,0.985,-1.532119,-0.233912,1.941447,102142.16
133221,8.409,-7.928,1.323,-1.344285,-0.311068,1.924951,102137.34
133230,8.132,-7.226,1.644,-1.124523,-0.433985,1.891428,102137.34
133240,7.503,-6.708,1.723,-0.814835,-0.609049,1.863226,102139.16
133251,6.601,-6.834,1.464,-0.477478,-0.802737,1.835025,102139.05
133260,5.681,-7.321,1.176,-0.178432,-0.980462,1.793520,102139.05
133270,4.794,-7.609,1.028,0.042393,-1.095398,1.713704,102142.43
133280,4.428,-7.065,0.867,0.138705,-1.125196,1.566841,102139.32
133291,4.776,-5.526,0.489,0.089751,-1.087416,1.317282,102142.07
133301,5.602,-3.107,0.253,-0.006029,-1.060810,0.980988,102140.10
133311,4.973,-2.555,-0.284,-0.039019,-1.079966,0.646824,102140.28
133320,4.663,-2.819,0.286,0.037072,-1.109232,0.482934,102138.69
133330,5.896,-1.419,0.430,0.240338,-1.226297,0.218475,102140.91
133341,6.009,-0.732,0.657,0.508521,-1.383269,-0.082167,102135.89
133350,5.740,-0.732,0.829,0.797989,-1.541838,-0.330130,102135.89
133360,5.229,-1.145,0.954,1.053934,-1.674865,-0.567983,102135.89
133370,4.726,-1.924,1.207,1.230062,-1.742975,-0.804772,102140.48
133381,4.389,-2.680,1.428,1.309347,-1.746168,-1.050074,102139.70
133390,4.244,-3.139,1.588,1.318393,-1.717966,-1.286863,102138.61
133400,4.272,-3.433,1.738,1.360961,-1.700406,-1.498643,102138.05
133410,4.298,-4.043,1.655,1.464191,-1.688168,-1.699248,102138.05
133421,4.376,-4.551,1.570,1.544007,-1.652516,-1.881762,102141.23
133431,4.559,-4.959,1.449,1.593493,-1.599838,-2.050441,102139.17
133441,4.701,-5.433,1.386,1.588172,-1.533324,-2.205817,102137.92
133450,4.789,-5.857,1.368,1.521126,-1.450315,-2.348954,102137.92
133460,4.881,-6.169,1.559,1.426943,-1.354535,-2.487303,102139.58
133471,5.039,-6.394,1.821,1.361493,-1.266737,-2.627780,102139.58
133480,5.268,-6.440,2.150,1.370539,-1.199691,-2.758679,102139.47
133490,5.476,-6.689,2.385,1.463659,-1.158719,-2.868826,102139.84
133500,5.566,-7.231,2.512,1.627016,-1.138499,-2.943321,102135.80
133511,5.683,-7.730,2.509,1.828686,-1.141691,-2.976844,102135.80
133521,5.834,-8.471,2.421,2.031952,-1.168829,-2.982697,102138.77
133530,5.931,-9.179,2.356,2.191585,-1.199691,-2.963541,102136.87
133540,6.006,-9.648,2.475,2.306520,-1.212994,-2.929486,102137.95
133551,6.260,-9.999,2.588,2.354410,-1.202352,-2.902349,102139.14
133561,6.468,-10.295,2.850,2.332594,-1.174682,-2.879468,102140.44
133571,6.562,-10.668,2.999,2.266080,-1.130517,-2.851798,102141.33
133580,6.595,-11.075,3.116,2.166044,-1.074113,-2.806037,102141.33
133591,6.515,-11.502,3.117,2.076117,-1.003875,-2.727284,102139.25
133601,6.411,-11.666,2.910,1.975016,-0.912352,-2.625652,102140.70
133610,6.332,-11.640,2.730,1.865401,-0.811251,-2.497413,102140.70
133621,6.152,-11.725,2.639,1.750466,-0.703055,-2.332459,102139.92
133630,5.807,-11.821,2.499,1.641915,-0.617563,-2.187725,102139.92
133641,5.388,-11.827,2.325,1.482814,-0.522315,-2.036606,102138.58
133651,5.047,-11.786,2.191,1.308815,-0.428664,-1.875909,102139.45
133660,4.929,-11.602,1.954,1.100760,-0.302022,-1.712019,102139.45
133670,4.979,-11.053,1.984,0.858118,-0.141857,-1.568349,102140.99
133681,5.305,-10.115,2.001,0.635696,0.020437,-1.439579,102141.59
133691,5.652,-9.229,1.906,0.459035,0.169427,-1.336882,102140.60
133700,5.883,-8.561,1.695,0.314301,0.297134,-1.261322,102140.60
133710,6.015,-8.000,1.439,0.180742,0.407812,-1.199597,102140.60
133721,6.211,-7.396,1.145,0.055696,0.498803,-1.155432,102143.80
133731,6.424,-7.046,1.085,-0.031570,0.558932,-1.125102,102143.33
133741,6.777,-7.192,0.857,-0.098793,0.610192,-1.090870,102141.36
133750,6.836,-7.192,0.712,-0.194395,0.664822,-1.058588,102141.36
133761,6.695,-7.050,0.683,-0.281129,0.716968,-1.013359,102141.36
133771,6.644,-6.901,0.571,-0.342322,0.753684,-0.948974,102143.88
133781,6.880,-6.850,0.574,-0.397129,0.795721,-0.871818,102141.34
133790,7.206,-6.493,0.655,-0.441294,0.835629,-0.809029,102140.35
133800,7.518,-5.730,0.739,-0.457258,0.849464,-0.766992,102140.35
133811,7.968,-4.892,0.785,-0.412560,0.821794,-0.737194,102144.51
133821,8.354,-4.418,0.692,-0.321570,0.759537,-0.707928,102144.51
133830,8.551,-4.259,0.599,-0.211955,0.679188,-0.676001,102142.60
133840,8.660,-4.295,0.667,-0.101808,0.592455,-0.636625,102142.60
133851,8.591,-4.495,0.726,0.009403,0.507849,-0.586075,102140.63
133861,8.518,-4.645,0.782,0.123806,0.423776,-0.520625,102140.63
133871,8.409,-4.845,0.687,0.244063,0.341831,-0.438680,102144.16
133880,8.253,-5.125,0.502,0.359531,0.265739,-0.343433,102143.64
133891,8.215,-5.309,0.359,0.431366,0.209336,-0.241268,102141.94
133901,8.179,-5.227,0.264,0.462228,0.157721,-0.136442,102141.25
133911,8.167,-5.007,0.912,0.482980,0.111427,-0.030552,102142.91
133920,8.265,-5.561,1.473,0.567054,0.112492,0.073209,102139.91
133931,7.606,-6.493,1.461,0.513310,0.096528,0.251466,102139.33
133941,8.527,-5.012,1.966,0.372834,0.157721,0.341925,102139.33
133951,9.443,-2.432,2.585,0.125935,0.254565,0.273282,102141.56
133960,9.947,-1.262,3.438,-0.025717,0.392913,0.199319,102141.56
133970,10.313,-1.210,3.481,-0.152891,0.499335,0.164200,102141.17
133981,10.153,-2.061,3.703,-0.216744,0.511574,0.209961,102138.84
133991,9.710,-3.673,4.163,-0.041680,0.430693,0.383961,102138.95
134001,10.109,-4.334,4.016,0.320155,0.254033,0.640438,102138.38
134010,10.884,-3.476,1.999,0.617604,-0.008297,0.768677,102138.38
134021,10.064,-3.210,1.343,0.764998,-0.192939,0.791025,102143.69
134031,9.055,-3.770,1.135,0.776705,-0.180169,0.793154,102144.11
134041,8.485,-4.133,0.696,0.611219,-0.071618,0.806456,102139.59
134050,8.387,-4.526,0.495,0.408485,0.046510,0.805392,102139.59
134061,8.591,-4.621,0.801,0.266412,0.128455,0.775062,102139.59
134071,8.694,-4.088,1.651,0.232357,0.170492,0.744732,102142.45
134081,8.323,-3.821,2.217,0.282375,0.163574,0.720255,102141.93
134090,8.138,-3.970,2.333,0.348889,0.142822,0.690989,102140.57
134096,8.133,-4.289,2.301,0.381879,0.143354,0.651613,102140.21
134106,8.439,-4.729,2.137,0.374430,0.150803,0.617557,102140.21
134116,8.639,-4.767,2.033,0.314834,0.164638,0.581906,102140.70
134126,8.697,-4.650,2.299,0.273329,0.179537,0.531888,102141.94
134135,8.584,-4.441,2.655,0.213201,0.194436,0.480805,102140.33
134146,8.408,-4.220,2.824,0.164247,0.203482,0.430787,102138.73
134156,8.370,-4.152,2.803,0.163182,0.189647,0.396200,102138.73
134166,8.347,-4.231,2.698,0.179146,0.170492,0.360016,102142.11
134175,8.228,-4.442,2.432,0.164247,0.165703,0.330750,102139.98
134185,8.403,-4.117,2.430,0.107311,0.173152,0.306805,102143.56
134196,8.669,-3.461,2.872,0.088687,0.130583,0.297760,102140.14
134206,8.439,-3.545,2.890,0.159990,0.075244,0.303081,102140.14
134216,8.300,-4.076,2.651,0.213733,0.051831,0.305741,102143.60
134225,8.315,-4.168,2.640,0.180742,0.049703,0.309998,102139.76
134236,8.263,-4.146,2.756,0.112632,0.054492,0.319576,102141.26
134246,8.251,-4.307,2.653,0.048247,0.060877,0.337136,102140.85
134256,8.321,-4.406,2.617,-0.006029,0.064070,0.344585,102140.85
134265,8.187,-4.511,2.516,-0.051258,0.068326,0.349374,102140.32
134276,8.120,-4.320,2.455,-0.104469,0.083226,0.344053,102138.77
134286,8.240,-4.067,2.697,-0.120964,0.082693,0.342989,102139.45
134296,8.239,-4.238,2.833,-0.091698,0.048638,0.341925,102140.23
134305,8.263,-4.557,2.775,-0.072542,0.018308,0.333411,102140.23
134316,8.057,-4.735,2.640,-0.091166,0.008198,0.317448,102141.99
134326,8.016,-4.699,2.555,-0.139588,0.017244,0.300420,102139.77
134336,8.072,-4.456,2.550,-0.185882,0.027354,0.295631,102141.48
134345,8.060,-4.183,2.643,-0.195460,0.023629,0.308402,102139.35
134355,8.068,-4.145,2.722,-0.182157,0.010326,0.329686,102139.35
134366,8.238,-4.143,2.742,-0.177368,0.004473,0.349374,102144.34
134376,8.356,-4.377,2.683,-0.193331,0.007134,0.362677,102139.43
134386,8.266,-4.777,2.429,-0.208230,0.008198,0.360548,102140.04
134395,8.186,-4.845,2.262,-0.227386,0.016712,0.344585,102138.70
134406,8.056,-4.961,2.125,-0.241221,0.030547,0.325429,102138.70
134416,8.028,-5.018,2.042,-0.265698,0.048106,0.307870,102140.91
134426,8.076,-4.963,2.232,-0.293368,0.059813,0.295631,102140.91
134435,7.960,-4.736,2.418,-0.303478,0.060877,0.292438,102143.91
134446,7.831,-4.542,2.659,-0.317313,0.053959,0.302016,102139.46
134456,7.831,-4.405,2.882,-0.321570,0.029482,0.320108,102139.46
134466,7.869,-4.365,2.852,-0.301349,-0.004573,0.342989,102140.89
134475,7.871,-4.459,2.824,-0.271019,-0.030646,0.358952,102138.81
134486,7.698,-5.016,2.647,-0.255588,-0.050866,0.362145,102140.27
134496,7.719,-5.022,2.515,-0.283790,-0.047141,0.356824,102139.80
134506,7.773,-5.011,2.455,-0.305606,-0.045545,0.349374,102139.80
134516,7.791,-5.081,2.238,-0.314652,-0.048738,0.345117,102141.76
134525,7.798,-4.823,2.145,-0.309863,-0.064169,0.347246,102143.05
134536,7.795,-4.603,2.327,-0.268891,-0.099820,0.365870,102141.24
134546,7.738,-4.624,2.505,-0.208762,-0.148242,0.391943,102139.38
134556,7.657,-4.565,2.702,-0.162469,-0.191343,0.415356,102139.38
134565,7.586,-4.530,2.874,-0.137460,-0.224334,0.438237,102142.40
134576,7.544,-4.802,2.730,-0.115643,-0.246683,0.462181,102142.51
134586,7.494,-5.054,2.435,-0.102873,-0.266903,0.479209,102136.65
134596,7.483,-5.182,2.275,-0.106065,-0.275416,0.488255,102139.20
134605,7.516,-5.457,2.117,-0.116707,-0.275949,0.489319,102139.20
134616,7.638,-5.588,1.919,-0.127350,-0.280205,0.489851,102141.63
134626,7.718,-5.526,1.978,-0.127350,-0.292444,0.485594,102139.55
134636,7.662,-5.591,2.066,-0.126285,-0.306811,0.482402,102139.86
134646,7.604,-5.692,2.090,-0.132139,-0.314793,0.476016,102137.28
134656,7.626,-5.645,2.102,-0.149166,-0.314260,0.469631,102137.28
134666,7.611,-5.698,2.102,-0.175772,-0.309471,0.469631,102139.96
134676,7.623,-5.665,2.034,-0.209295,-0.300426,0.474420,102142.60
134686,7.665,-5.558,1.978,-0.238028,-0.293508,0.484530,102141.35
134695,7.686,-5.573,1.932,-0.247074,-0.293508,0.501025,102141.10
134706,7.656,-5.722,1.840,-0.264102,-0.287123,0.521778,102141.10
134716,7.598,-5.752,1.929,-0.297093,-0.275949,0.547851,102139.35
134726,7.651,-5.632,1.858,-0.326359,-0.270627,0.576585,102141.59
134735,7.670,-5.678,1.956,-0.338597,-0.278077,0.610108,102143.18
134746,7.615,-5.820,2.136,-0.355625,-0.287655,0.643631,102139.04
134756,7.711,-5.967,2.143,-0.403515,-0.281802,0.672897,102139.04
134766,8.203,-6.048,1.775,-0.460450,-0.281802,0.706420,102140.99
134776,8.412,-6.045,1.555,-0.488120,-0.297765,0.746860,102140.01
134786,8.390,-6.068,1.173,-0.483331,-0.328627,0.787833,102138.20
134796,8.485,-6.186,0.970,-0.462579,-0.375453,0.830934,102138.77
134806,8.558,-6.263,0.844,-0.427460,-0.436114,0.871374,102138.77
134816,8.484,-6.221,0.818,-0.386487,-0.498903,0.910218,102139.55
134825,8.470,-6.250,0.738,-0.337533,-0.565416,0.949594,102140.27
134836,8.452,-6.261,0.879,-0.291772,-0.640976,0.992163,102140.27
134846,8.367,-6.435,1.066,-0.238028,-0.721324,1.032603,102139.39
134856,8.300,-6.597,1.377,-0.201845,-0.790499,1.069319,102139.39
134866,8.352,-6.871,1.790,-0.192799,-0.847434,1.102309,102137.73
134876,8.584,-7.025,2.165,-0.209295,-0.888939,1.126786,102140.06
134886,8.769,-7.146,2.392,-0.251863,-0.904370,1.145942,102140.52
134896,8.855,-7.172,2.258,-0.322634,-0.893196,1.169887,102136.95
134905,9.012,-7.025,2.020,-0.409368,-0.877765,1.203942,102136.95
134916,9.247,-6.840,1.849,-0.481203,-0.875636,1.254493,102139.27
134926,9.430,-6.944,1.867,-0.543282,-0.879361,1.323844,102138.45
134936,9.554,-7.133,2.019,-0.608909,-0.860737,1.384328,102139.84
134946,9.623,-7.376,2.022,-0.714799,-0.802737,1.448713,102135.54
134956,9.493,-7.864,1.773,-0.869111,-0.706957,1.498199,102135.54
134966,9.779,-8.161,1.755,-1.095257,-0.581912,1.529061,102140.26
134976,10.543,-7.534,2.481,-1.393239,-0.439838,1.571630,102141.24
134986,11.131,-6.088,3.530,-1.663550,-0.314260,1.666346,102141.20
134995,11.081,-5.367,3.942,-1.837018,-0.215820,1.814272,102137.41
135006,11.084,-6.396,3.755,-1.924284,-0.147710,1.957942,102137.41
135016,10.918,-7.763,3.508,-1.987073,-0.111527,2.085648,102140.71
135026,10.766,-8.547,3.603,-2.059972,-0.113655,2.203777,102137.87
135036,10.883,-8.282,3.328,-2.078064,-0.136536,2.282529,102139.05
135046,10.869,-7.869,2.999,-1.999312,-0.150903,2.320841,102137.87
135056,10.534,-7.511,2.743,-1.838083,-0.159417,2.323501,102137.87
135066,9.858,-7.333,2.275,-1.654505,-0.163673,2.294235,102138.73
135076,9.042,-7.186,1.643,-1.468798,-0.153563,2.243153,102140.65
135086,8.297,-7.285,0.886,-1.327257,-0.113123,2.151630,102139.13
135096,8.151,-6.988,-0.608,-1.301716,-0.056187,1.992529,102139.82
135106,8.904,-5.031,-3.171,-1.355991,-0.103545,1.716364,102139.82
135116,7.439,-3.575,-2.949,-0.948395,-0.387159,1.532254,102141.43
135126,7.099,-2.172,-0.845,0.031219,-0.704297,1.489153,102139.87
135136,7.789,-0.296,-0.078,0.984228,-1.000150,1.239062,102140.65
135146,6.662,-0.071,0.259,1.780264,-1.223636,0.938420,102138.73
135156,5.570,-0.924,-0.084,2.323548,-1.309838,0.669704,102138.73
135166,5.047,-1.116,-0.849,2.429970,-1.250242,0.326493,102141.09
135176,4.039,-1.419,-0.589,2.292686,-1.061875,-0.047580,102138.18
135186,3.526,-1.837,-0.449,2.030355,-0.793159,-0.408882,102136.37
135196,3.565,-2.251,-0.404,1.675438,-0.519123,-0.749965,102138.55
135206,3.906,-2.530,-0.455,1.307750,-0.303618,-1.061249,102138.55
135216,4.392,-2.609,-0.846,1.011365,-0.159949,-1.345927,102139.09
135226,4.758,-2.667,-1.410,0.794797,-0.069490,-1.624753,102137.84
135236,4.912,-2.688,-1.687,0.664430,-0.006701,-1.897725,102137.37
135246,5.041,-2.770,-1.694,0.585145,0.047042,-2.168569,102137.27
135256,5.361,-2.935,-1.482,0.527145,0.092271,-2.443138,102137.27
135266,5.715,-3.165,-1.308,0.486173,0.126326,-2.727284,102136.33
135276,5.956,-3.325,-1.155,0.476063,0.146547,-3.002385,102135.61
135281,6.041,-3.331,-1.034,0.505329,0.155060,-3.191284,102134.98
135291,6.133,-3.388,-0.855,0.584613,0.159317,-3.357835,102134.98
135302,6.277,-3.599,-0.366,0.756485,0.156125,-3.553651,102134.98
135311,6.504,-3.991,0.119,0.978907,0.136969,-3.737761,102134.98
135321,6.819,-4.508,0.434,1.220484,0.105574,-3.917614,102136.39
135331,7.177,-5.372,0.392,1.447163,0.086418,-4.100659,102134.55
135342,7.537,-6.349,0.056,1.586576,0.112492,-4.265614,102133.86
135351,8.023,-7.291,-0.226,1.578594,0.196565,-4.401301,102133.86
135361,8.567,-8.032,-0.173,1.447695,0.309904,-4.514109,102133.86
135371,8.946,-8.728,0.098,1.295512,0.396106,-4.608824,102136.70
135382,9.448,-9.467,0.331,1.206650,0.434418,-4.666292,102139.28
135391,10.028,-10.215,0.398,1.203989,0.443464,-4.697687,102137.73
135401,10.287,-10.778,0.380,1.272631,0.444528,-4.705668,102136.39
135411,10.234,-11.235,0.523,1.397145,0.429629,-4.669485,102136.39
135421,10.246,-11.560,0.668,1.559438,0.373225,-4.585412,102140.28
135432,10.299,-12.175,0.659,1.734502,0.275849,-4.443870,102140.13
135441,10.410,-13.083,0.536,1.879236,0.154528,-4.242733,102138.63
135451,10.258,-14.077,0.633,1.955328,0.068326,-4.010733,102139.30
135461,9.554,-14.882,1.136,1.929787,0.057684,-3.798421,102141.79
135472,8.514,-15.363,1.620,1.806869,0.114620,-3.566422,102140.43
135481,7.653,-15.352,1.627,1.634466,0.222106,-3.276954,102140.43
135491,7.066,-15.310,0.770,1.459934,0.360987,-2.950771,102141.63
135501,6.841,-15.748,-0.079,1.257732,0.463152,-2.621395,102140.27
135512,5.926,-15.415,-0.340,0.994338,0.461023,-2.257964,102140.27
135521,4.986,-15.464,-0.279,0.774044,0.372161,-1.771083,102143.73
135531,4.416,-15.801,-0.264,0.560668,0.260418,-1.203854,102143.06
135541,3.911,-15.576,-0.421,0.373366,0.127923,-0.606827,102141.92
135552,4.164,-14.171,-0.310,0.280246,-0.059380,0.014677,102138.50
135562,4.445,-12.674,-0.140,0.340375,-0.297233,0.605851,102142.20
135571,4.475,-11.872,0.308,0.469145,-0.510609,1.106034,102143.30
135581,4.661,-10.054,3.064,0.621861,-0.556902,1.399227,102139.25
135591,6.287,-6.178,5.345,0.488301,-0.329160,1.406676,102139.36
135601,9.672,0.227,7.996,0.100925,0.123666,1.057080,102139.36
135611,12.316,2.749,6.032,-0.431184,0.631831,0.588291,102139.36
135621,12.977,0.202,1.999,-0.783441,0.722821,0.455796,102142.77
135631,12.735,-1.204,-0.437,-0.787166,0.412601,0.564346,102141.23
135642,12.439,-1.728,0.001,-0.564744,0.164638,0.744200,102139.41
135652,12.217,-3.198,1.680,-0.154487,0.113556,0.970878,102141.34
135661,12.108,-5.725,2.420,0.357402,0.115684,1.256089,102141.34
135671,11.840,-7.568,0.325,0.844815,-0.014683,1.529061,102140.23
135682,10.517,-6.063,-1.048,1.040099,-0.201985,1.615263,102143.79
135692,8.439,-4.675,0.422,1.000191,-0.180169,1.531190,102138.15
135701,7.764,-4.846,1.704,0.732008,-0.066829,1.420511,102138.15
135711,7.523,-5.431,2.847,0.357402,0.010859,1.326328,102141.13
135721,7.465,-5.154,2.840,-0.035295,0.113024,1.238530,102141.13
135731,7.977,-3.526,2.257,-0.319441,0.218914,1.159777,102143.09
135741,8.489,-2.409,2.270,-0.392340,0.240730,1.117741,102141.38
135751,8.866,-2.042,2.229,-0.262505,0.174216,1.122530,102141.06
135756,9.093,-2.048,2.052,-0.044873,0.099721,1.136897,102141.06
135767,9.205,-2.386,1.662,0.224907,0.012987,1.148071,102140.32
135776,9.061,-3.224,1.297,0.534063,-0.093435,1.147539,102143.79
135786,8.607,-4.256,1.446,0.662833,-0.146646,1.106034,102141.46
135796,8.234,-5.044,1.728,0.579292,-0.122169,1.042181,102141.46
135806,8.246,-4.864,2.046,0.394650,-0.059912,0.964493,102141.46
135817,8.296,-4.077,2.538,0.269604,-0.033307,0.915539,102141.20
135826,8.284,-3.798,2.581,0.269072,-0.058848,0.893722,102141.92
135836,8.350,-4.381,2.100,0.321751,-0.112591,0.866053,102143.06
135846,8.586,-4.878,1.736,0.308980,-0.132279,0.842640,102141.36
135857,8.631,-4.979,1.690,0.188191,-0.104077,0.816567,102141.36
135866,8.607,-4.710,1.869,0.029623,-0.060976,0.791557,102143.81
135876,8.455,-4.539,2.050,-0.085313,-0.037031,0.775062,102140.86
135886,8.436,-4.390,2.133,-0.128946,-0.044481,0.766548,102141.59
135897,8.416,-4.503,2.098,-0.107662,-0.075343,0.755906,102141.84
135906,8.336,-4.835,1.947,-0.076267,-0.105673,0.730365,102141.84
135916,8.203,-5.012,1.720,-0.079460,-0.113123,0.695778,102142.38
135926,8.181,-5.005,1.471,-0.114047,-0.097692,0.656401,102141.02
135937,8.311,-5.019,1.362,-0.158744,-0.075343,0.627135,102142.11
135947,8.289,-5.034,1.213,-0.185350,-0.063105,0.603190,102137.92
135956,8.191,-4.818,1.185,-0.183753,-0.051930,0.586695,102137.92
135966,8.069,-4.972,1.398,-0.175772,-0.048206,0.575521,102144.57
135976,8.053,-5.255,1.416,-0.201313,-0.039692,0.560622,102143.80
135987,8.089,-5.064,1.462,-0.256120,-0.012022,0.545723,102141.88
135996,8.077,-4.849,1.785,-0.281129,-0.011490,0.540934,102140.49
136006,7.844,-4.936,1.784,-0.297625,-0.015215,0.542530,102140.49
136016,8.013,-4.378,1.847,-0.306138,-0.021600,0.555301,102143.30
136027,7.934,-4.167,1.854,-0.211955,-0.073747,0.576585,102140.14
136036,7.845,-4.723,1.615,-0.117772,-0.118444,0.600530,102138.78
136046,7.896,-4.993,1.571,-0.091166,-0.147178,0.621282,102141.06
136056,7.854,-5.026,1.777,-0.093295,-0.165270,0.635117,102141.06
136067,7.807,-5.045,2.015,-0.114047,-0.178040,0.646824,102140.83
136077,7.614,-4.884,2.100,-0.131074,-0.198261,0.655337,102143.20
136086,7.505,-4.789,2.071,-0.110322,-0.229123,0.667044,102139.95
136096,7.407,-4.882,2.029,-0.064561,-0.278077,0.680879,102142.22
136107,7.315,-5.177,1.870,-0.011882,-0.315857,0.693649,102142.22
136112,7.339,-5.486,1.686,0.009403,-0.330224,0.700567,102142.30
136121,7.529,-5.687,1.480,0.000889,-0.336077,0.703759,102142.30
136131,7.798,-5.690,1.351,-0.036359,-0.336077,0.709612,102140.13
136141,7.925,-5.781,1.273,-0.069882,-0.337673,0.721319,102139.05
136152,8.060,-5.871,1.143,-0.094359,-0.346719,0.736218,102139.88
136162,8.151,-6.064,1.118,-0.119368,-0.355233,0.747392,102139.95
136172,8.173,-6.141,1.226,-0.152891,-0.363215,0.759631,102142.44
136181,8.196,-6.193,1.358,-0.198652,-0.365875,0.772934,102139.55
136192,8.199,-6.287,1.346,-0.241221,-0.362682,0.785172,102139.55
136202,8.414,-6.340,1.142,-0.293900,-0.356829,0.798475,102140.63
136211,8.635,-6.501,0.936,-0.351368,-0.357893,0.820291,102140.63
136221,8.816,-6.453,0.576,-0.404047,-0.363215,0.847961,102141.04
136231,8.901,-6.369,0.417,-0.439698,-0.378114,0.881484,102143.21
136242,8.949,-6.303,0.426,-0.457790,-0.415361,0.922988,102141.35
136252,9.022,-6.323,0.631,-0.453533,-0.469636,0.965557,102139.95
136261,8.946,-6.495,0.977,-0.450340,-0.529765,1.009190,102139.95
136271,8.980,-6.510,1.062,-0.473221,-0.580847,1.054420,102140.80
136282,8.969,-6.354,1.173,-0.508872,-0.628737,1.106034,102141.32
136292,8.914,-6.429,1.244,-0.539203,-0.687269,1.162970,102139.26
136301,9.003,-6.533,1.416,-0.566872,-0.753783,1.221502,102139.26
136311,9.084,-6.642,1.707,-0.599863,-0.819233,1.275245,102139.26
136322,9.183,-6.777,1.922,-0.648285,-0.865526,1.322603,102142.15
136332,9.381,-6.938,1.962,-0.703624,-0.901177,1.365172,102138.48
136341,9.708,-7.109,1.917,-0.772799,-0.926719,1.399759,102141.63
136351,10.040,-7.285,1.676,-0.855808,-0.941086,1.429557,102140.02
136361,10.312,-7.499,1.245,-0.957441,-0.941086,1.455098,102140.02
136372,10.626,-7.650,0.681,-1.093661,-0.927783,1.471061,102143.59
136382,11.427,-7.518,0.496,-1.277771,-0.919801,1.485428,102141.94
136391,12.660,-6.770,1.096,-1.489551,-0.919801,1.506713,102139.11
136401,13.502,-5.589,2.497,-1.663550,-0.916609,1.562052,102139.11
136412,13.644,-4.220,3.767,-1.774229,-0.873508,1.690291,102139.89
136422,13.379,-4.624,4.075,-1.815734,-0.823489,1.861098,102139.20
136431,13.119,-6.222,3.863,-1.785404,-0.857544,2.013281,102139.20
136441,13.194,-8.085,3.445,-1.751349,-0.932040,2.181428,102136.47
136452,13.068,-8.748,3.799,-1.723679,-1.107636,2.307538,102139.47
136462,13.094,-7.591,4.572,-1.567771,-1.243324,2.394272,102139.47
136471,12.693,-6.684,4.257,-1.221367,-1.319948,2.407043,102141.09
136481,11.344,-6.670,3.666,-0.849423,-1.381141,2.362345,102139.12
136492,9.807,-6.522,3.275,-0.518450,-1.425838,2.272419,102140.15
136502,8.173,-6.305,2.950,-0.284322,-1.384865,2.145777,102139.48
136512,6.803,-6.172,2.659,-0.160873,-1.257159,2.005300,102139.30
136521,6.004,-5.945,1.768,-0.190671,-1.057086,1.786070,102139.66
136531,5.173,-6.065,-0.238,-0.385423,-0.879361,1.450309,102138.52
136542,3.873,-7.093,-0.892,-0.542395,-0.768682,1.190108,102138.23
136552,4.379,-5.586,0.637,-0.420010,-0.662260,0.994823,102138.23
136561,4.851,-2.870,1.272,-0.159808,-0.634591,0.632989,102138.23
136571,4.473,-0.767,1.489,0.163182,-0.635655,0.239227,102142.23
136582,4.246,0.452,1.131,0.567586,-0.694187,-0.123139,102141.45
136587,3.982,1.053,0.915,0.923567,-0.771875,-0.364717,102139.80
136597,3.748,1.129,0.864,1.302429,-0.842113,-0.569579,102141.00
136606,3.448,0.665,0.923,1.797823,-0.915012,-0.803708,102141.00
136616,3.151,-0.223,1.166,2.233621,-0.959177,-1.011230,102138.13
136627,2.970,-1.310,1.173,2.511383,-0.966095,-1.219285,102136.94
136637,2.956,-2.307,0.966,2.638557,-0.955985,-1.444368,102136.94
136646,3.028,-3.090,0.582,2.633768,-0.913948,-1.694991,102137.30
136656,3.246,-3.566,0.323,2.523621,-0.840517,-1.962643,102137.30
136667,3.620,-3.789,0.272,2.373566,-0.747398,-2.238276,102138.72
136677,3.952,-3.965,0.369,2.225640,-0.642572,-2.510716,102138.52
136686,4.296,-4.183,0.508,2.080374,-0.545728,-2.775174,102137.69
136696,4.579,-4.526,0.424,1.929255,-0.473361,-3.027926,102134.89
136707,4.770,-5.163,0.411,1.758447,-0.389288,-3.275357,102134.89
136717,4.985,-5.826,0.592,1.539218,-0.274352,-3.512678,102137.59
136727,5.232,-6.354,0.842,1.326906,-0.134939,-3.718073,102137.75
136736,5.588,-6.525,1.039,1.227402,-0.005105,-3.880898,102132.47
136747,6.074,-6.606,1.317,1.289127,0.089079,-4.015522,102133.81
136757,6.653,-7.121,1.510,1.529640,0.114620,-4.111302,102133.81
136767,7.359,-8.136,1.297,1.881365,0.073115,-4.182604,102140.41
136776,7.864,-9.400,0.938,2.188924,0.026822,-4.218788,102139.58
136786,8.127,-10.311,0.748,2.316098,0.026290,-4.239008,102139.42
136797,8.272,-10.952,0.706,2.240007,0.082161,-4.258164,102136.16
136807,8.319,-11.366,0.873,1.990979,0.191244,-4.279449,102136.16
136817,8.420,-11.567,1.088,1.653090,0.355134,-4.297008,102141.30
136826,8.731,-11.668,1.318,1.306686,0.556271,-4.307650,102139.59
136837,9.041,-11.830,1.392,1.032117,0.766987,-4.301797,102138.66
136847,9.314,-11.926,1.181,0.800650,0.972913,-4.285302,102136.58
136857,9.451,-11.997,0.811,0.587806,1.164473,-4.231026,102136.58
136866,9.309,-12.225,0.463,0.431366,1.306546,-4.103852,102142.57
136877,9.158,-12.455,0.034,0.306320,1.391683,-3.894201,102140.65
136887,9.204,-12.676,-0.299,0.150412,1.466179,-3.642513,102139.51
136897,9.234,-12.369,-0.560,-0.046469,1.533225,-3.410513,102142.10
136906,8.848,-11.561,-1.086,-0.249203,1.598674,-3.224807,102142.10
136916,8.652,-11.642,-1.270,-0.409368,1.654014,-3.084862,102141.00
136927,7.954,-11.562,-1.507,-0.605716,1.691261,-2.909798,102143.84
136937,7.811,-11.158,-1.714,-0.786102,1.702435,-2.639486,102143.33
136942,7.810,-10.880,-1.886,-0.896248,1.679023,-2.385670,102142.70
136951,7.573,-10.901,-2.116,-1.002670,1.628472,-2.110569,102142.70
136962,7.443,-11.039,-2.286,-1.124523,1.514601,-1.762037,102142.70
136972,7.316,-10.901,-2.303,-1.173477,1.319317,-1.440643,102143.99
136982,6.680,-11.013,-2.228,-1.137826,1.061775,-1.101157,102144.20
136992,5.969,-11.353,-2.116,-1.085147,0.807427,-0.698350,102142.77
137001,5.640,-11.396,-1.836,-1.068120,0.601500,-0.245525,102142.77
137012,5.718,-11.037,-1.567,-1.045771,0.426968,0.203044,102145.27
137022,6.121,-10.055,-1.145,-0.944670,0.263611,0.565943,102145.27
137032,6.513,-8.664,0.965,-0.658927,0.134840,0.791025,102142.47
137041,7.098,-7.493,2.121,-0.354028,0.019372,0.986310,102142.78
137052,9.362,-2.310,5.495,-0.186414,0.012987,0.962365,102140.56
137062,11.826,1.983,7.111,-0.178964,0.215189,0.608512,102140.56
137072,12.758,1.328,5.645,-0.232707,0.348216,0.400989,102145.06
137082,12.893,-1.355,3.256,-0.209295,0.219978,0.449411,102141.23
137092,12.973,-2.730,2.465,-0.108194,-0.034371,0.638842,102141.59
137102,13.493,-3.169,3.213,0.127531,-0.197196,0.888401,102141.20
137112,13.372,-3.105,2.564,0.490430,-0.320646,1.149667,102141.55
137122,11.185,-3.888,1.669,0.892705,-0.464315,1.361447,102142.65
137132,9.107,-5.488,1.069,1.107145,-0.510077,1.472658,102143.01
137142,8.482,-6.578,1.281,0.921971,-0.393013,1.484896,102143.01
137152,8.064,-6.685,2.318,0.461696,-0.200389,1.427961,102143.16
137161,7.474,-5.717,3.295,-0.053386,-0.047673,1.325264,102143.16
137171,7.450,-4.523,3.693,-0.459918,0.073648,1.214053,102141.94
137182,8.026,-3.483,3.411,-0.655203,0.129519,1.139025,102142.77
137192,8.563,-2.969,2.915,-0.632322,0.109831,1.095924,102141.27
137202,8.941,-3.050,2.270,-0.502487,0.060877,1.079961,102136.61
137211,9.195,-3.149,1.773,-0.346579,0.010326,1.077300,102136.61
137222,8.914,-3.438,1.670,-0.163533,-0.024793,1.061869,102142.63
137232,8.472,-3.974,1.862,-0.057111,-0.029582,1.030475,102141.34
137242,8.285,-4.665,2.144,-0.047001,-0.014683,0.966621,102140.88
137252,8.191,-5.037,2.454,-0.098616,0.006070,0.875631,102140.88
137262,8.239,-4.852,2.769,-0.185350,0.033207,0.778787,102140.88
137272,8.355,-4.347,2.891,-0.254524,0.051299,0.701631,102144.81
137282,8.454,-3.890,2.963,-0.290707,0.048106,0.658530,102143.00
137292,8.536,-3.506,3.234,-0.300817,0.035868,0.642035,102140.14
137297,8.562,-3.396,3.474,-0.299221,0.023097,0.640970,102141.13
137307,8.467,-3.448,3.612,-0.293900,-0.000316,0.647356,102141.13
137317,8.332,-3.663,3.702,-0.297093,-0.034903,0.650016,102142.67
137327,8.192,-3.752,3.608,-0.331680,-0.053527,0.645227,102143.09
137336,8.139,-3.770,3.450,-0.379038,-0.060444,0.639374,102140.25
137347,8.229,-3.743,3.096,-0.413625,-0.061508,0.642035,102140.50
137357,8.364,-3.709,2.718,-0.430120,-0.056187,0.655869,102140.50
137367,8.435,-3.886,2.458,-0.432781,-0.051930,0.676090,102141.55
137377,8.422,-3.962,2.392,-0.420542,-0.050866,0.697906,102140.71
137387,8.235,-4.042,2.505,-0.392340,-0.056187,0.708548,102141.02
137397,8.075,-4.110,2.631,-0.352432,-0.066297,0.711209,102140.82
137407,7.989,-4.032,2.874,-0.311992,-0.086517,0.710145,102140.82
137417,7.759,-3.744,3.171,-0.265521,-0.120572,0.709435,102144.28
137426,7.586,-3.675,3.213,-0.198652,-0.144517,0.709080,102142.78
137437,7.470,-4.054,2.938,-0.117240,-0.169527,0.717062,102141.17
137447,7.594,-4.860,2.416,-0.073607,-0.191875,0.728236,102141.17
137457,7.923,-5.427,1.805,-0.102340,-0.190811,0.729833,102141.17
137467,8.227,-5.288,1.597,-0.166726,-0.151967,0.718126,102142.98
137477,8.169,-5.067,1.614,-0.186414,-0.118444,0.711209,102141.69
137487,8.103,-4.954,1.734,-0.177368,-0.101417,0.712273,102140.61
137497,8.014,-4.912,1.954,-0.146506,-0.101417,0.717062,102137.30
137506,7.805,-4.940,2.338,-0.124157,-0.109398,0.721851,102137.30
137517,7.598,-5.149,2.421,-0.115111,-0.110462,0.717594,102142.02
137527,7.529,-5.198,2.475,-0.125753,-0.104077,0.713869,102140.98
137537,7.530,-5.167,2.539,-0.136928,-0.097160,0.704823,102142.48
137547,7.446,-5.257,2.488,-0.132139,-0.095031,0.701099,102138.70
137556,7.463,-5.517,2.230,-0.134267,-0.090242,0.701099,102138.70
137567,7.637,-5.734,2.089,-0.162469,-0.081728,0.700567,102141.20
137577,7.771,-5.755,2.141,-0.211423,-0.062573,0.702163,102142.07
137587,7.777,-5.804,2.215,-0.256652,-0.040224,0.709080,102140.62
137596,7.764,-5.753,2.303,-0.309863,-0.021068,0.720255,102138.80
137607,7.732,-5.573,2.528,-0.367331,-0.008829,0.735686,102138.80
137617,7.670,-5.392,2.728,-0.391808,-0.009894,0.763356,102142.64
137627,7.574,-5.535,2.769,-0.405111,-0.018940,0.793686,102144.03
137637,7.576,-5.767,2.769,-0.440762,-0.017343,0.820823,102140.92
137647,7.621,-5.953,2.714,-0.495037,-0.013086,0.842640,102139.02
137657,7.852,-5.961,2.588,-0.548781,-0.012022,0.865521,102139.02
137667,7.955,-6.017,2.410,-0.590285,-0.029050,0.891594,102141.30
137677,8.070,-6.023,2.402,-0.607845,-0.056187,0.926713,102139.91
137687,8.202,-6.202,2.354,-0.614230,-0.093435,0.965025,102140.63
137697,8.345,-6.430,2.216,-0.624340,-0.125361,1.002273,102139.64
137707,8.464,-6.616,2.101,-0.653074,-0.141857,1.037924,102139.64
137717,8.422,-6.636,1.843,-0.695643,-0.149306,1.071447,102141.05
137726,8.349,-6.518,1.529,-0.736615,-0.158352,1.111355,102142.91
137737,8.351,-6.423,1.330,-0.750982,-0.192939,1.163502,102141.05
137747,8.394,-6.477,1.376,-0.748322,-0.245086,1.222566,102140.42
137757,8.374,-6.652,1.580,-0.749918,-0.294040,1.286952,102140.42
137767,8.420,-6.911,1.783,-0.781845,-0.322242,1.348144,102142.14
137773,8.447,-7.085,1.887,-0.824946,-0.333416,1.390181,102140.13
137782,8.621,-7.266,1.967,-0.880817,-0.331288,1.430089,102140.13
137792,8.907,-7.515,1.924,-0.970744,-0.317985,1.478511,102138.98
137802,9.333,-7.763,1.749,-1.077698,-0.296701,1.518951,102138.88
137812,9.808,-8.067,1.477,-1.201679,-0.276481,1.554603,102138.88
137822,10.370,-8.269,1.348,-1.350138,-0.254664,1.583869,102141.78
137832,10.945,-8.310,1.566,-1.528927,-0.206242,1.616328,102138.53
137842,11.545,-8.364,2.101,-1.779550,-0.109930,1.659428,102137.28
137852,12.779,-7.613,3.201,-2.103605,0.019372,1.715832,102137.28
137862,13.948,-5.961,4.617,-2.362211,0.124730,1.812144,102137.28
137872,13.911,-5.067,5.120,-2.434045,0.193372,1.961667,102142.69
137882,13.185,-5.476,4.833,-2.390412,0.265739,2.123428,102139.53
137892,12.334,-6.422,4.153,-2.357422,0.348748,2.266033,102137.98
137902,11.027,-7.973,4.165,-2.272816,0.404088,2.416620,102140.52
137912,10.590,-9.287,4.152,-2.083917,0.404620,2.567208,102140.52
137922,10.672,-9.436,3.686,-1.931734,0.397170,2.636914,102139.11
137932,10.101,-9.076,2.903,-1.893422,0.463152,2.583171,102140.95
137943,9.357,-8.411,2.303,-1.979624,0.606822,2.450144,102139.52
137952,8.549,-7.559,1.941,-2.106266,0.770179,2.271887,102139.52
137962,7.379,-7.066,1.843,-2.177037,0.887243,2.085648,102142.90
137972,6.406,-6.417,1.929,-2.175440,0.959078,1.899942,102142.90
137982,5.280,-5.811,1.673,-2.147770,1.016546,1.681777,102140.05
137992,4.307,-4.669,2.064,-2.054119,1.104876,1.437006,102139.59
138002,4.019,-2.692,1.273,-1.865752,1.176179,1.086346,102138.09
138007,2.320,-3.274,-0.462,-1.742303,1.213959,0.820823,102138.09
138017,0.734,-4.570,-0.700,-1.661422,1.337408,0.694181,102139.81
138028,1.767,-3.048,0.016,-1.502321,1.499170,0.498897,102140.69
138037,3.625,-0.367,-0.607,-1.227221,1.501830,0.097686,102139.97
138047,4.407,1.313,-0.784,-0.789294,1.392748,-0.281708,102137.48
138057,4.946,2.277,-1.148,-0.164597,1.201188,-0.570644,102137.48
138067,4.822,2.422,-1.588,0.510118,0.966528,-0.794130,102144.09
138077,4.541,1.831,-1.573,1.160356,0.761133,-0.988882,102143.27
138087,4.254,0.792,-1.315,1.699915,0.605225,-1.204386,102140.22
138097,4.209,-0.075,-1.149,2.107511,0.466345,-1.441175,102137.38
138107,4.227,-0.860,-1.090,2.414539,0.350877,-1.693395,102137.38
138118,4.152,-1.854,-1.081,2.616740,0.279042,-1.944019,102140.41
138128,4.173,-2.726,-0.855,2.729193,0.256516,-2.204398,102137.41
138137,4.438,-3.230,-0.691,2.733804,0.274253,-2.431963,102139.43
138147,4.917,-3.719,-0.506,2.651328,0.309904,-2.681523,102135.76
138157,5.503,-4.466,-0.512,2.426245,0.353005,-2.934275,102135.76
138167,5.919,-5.668,-0.760,2.047915,0.414198,-3.193413,102140.66
138177,6.080,-6.724,-0.980,1.541347,0.540308,-3.441908,102139.32
138187,6.267,-7.080,-0.875,1.023604,0.742510,-3.639321,102138.74
138198,6.551,-6.853,-0.408,0.632503,0.952161,-3.778201,102136.93
138207,7.011,-6.402,0.072,0.476595,1.106473,-3.884623,102136.93
138217,7.590,-6.418,0.320,0.588870,1.178839,-3.984128,102141.02
138227,8.297,-7.218,0.126,0.861310,1.184161,-4.063412,102140.29
138237,8.961,-8.383,-0.268,1.130558,1.165537,-4.117155,102138.16
138247,9.392,-9.288,-0.571,1.292851,1.164473,-4.149082,102139.37
138257,9.790,-9.804,-0.669,1.338613,1.182032,-4.160256,102139.37
138267,10.166,-10.036,-0.588,1.288594,1.202784,-4.152806,102138.27
138277,10.419,-10.096,-0.284,1.141200,1.228858,-4.133118,102142.51
138288,10.577,-10.001,0.170,0.910797,1.274619,-4.102788,102140.45
138297,10.704,-9.820,0.604,0.669751,1.337940,-4.059155,102137.29
138307,10.868,-9.598,0.959,0.472338,1.415628,-4.003816,102137.29
138317,11.063,-9.459,0.933,0.340375,1.494381,-3.927724,102142.72
138328,11.191,-9.599,0.533,0.245127,1.567812,-3.818642,102142.41
138337,10.869,-9.800,0.122,0.153072,1.625280,-3.680293,102141.64
138347,10.391,-9.862,-0.383,0.051971,1.668913,-3.512678,102143.30
138357,10.149,-9.967,-0.895,-0.067753,1.721059,-3.327504,102143.30
138368,9.854,-10.110,-1.203,-0.218872,1.766821,-3.146587,102144.12
138377,9.485,-9.779,-1.517,-0.423735,1.789701,-2.942257,102141.41
138387,9.296,-9.194,-1.704,-0.595606,1.762564,-2.700679,102142.30
138397,9.088,-8.785,-1.987,-0.715331,1.665720,-2.421854,102141.01
138407,8.773,-8.894,-2.456,-0.788762,1.502362,-2.103120,102141.01
138418,8.187,-9.308,-2.643,-0.832395,1.282601,-1.762569,102144.46
138427,7.507,-9.769,-2.653,-0.830799,1.015482,-1.375194,102142.90
138437,7.074,-9.982,-2.419,-0.799404,0.744638,-0.938864,102141.66
138447,6.921,-9.749,-1.920,-0.737680,0.483372,-0.469011,102143.99
138458,7.012,-9.161,-1.606,-0.633386,0.238602,-0.012460,102143.99
138467,7.179,-8.589,-1.508,-0.499826,0.020969,0.378108,102140.29
138477,7.218,-8.263,-1.551,-0.363074,-0.163141,0.680879,102144.02
138483,7.190,-8.100,-1.618,-0.275808,-0.286591,0.859135,102145.57
138492,7.179,-7.913,-1.579,-0.199184,-0.399398,0.996952,102145.57
138503,7.178,-7.181,0.346,-0.068818,-0.525508,1.131043,102141.59
138512,7.868,-5.623,3.010,0.208412,-0.523912,1.167227,102141.59
138522,8.598,-2.675,5.369,0.257898,-0.441435,1.074108,102143.06
138532,9.501,-0.287,7.433,0.273329,-0.202517,0.814970,102140.89
138543,10.741,-0.147,6.520,0.129127,0.006070,0.587227,102139.59
138553,11.266,-1.556,4.074,-0.003900,-0.018940,0.465906,102139.59
138562,10.967,-2.979,2.531,0.006742,-0.196664,0.468035,102139.59
138572,11.362,-3.404,2.393,0.102522,-0.325435,0.570200,102145.28
138583,12.387,-2.530,2.515,0.285035,-0.405251,0.688860,102143.42
138593,12.162,-2.055,2.585,0.578228,-0.467508,0.829869,102142.84
138603,10.589,-4.506,1.715,1.095261,-0.566126,1.105680,102141.66
138612,10.236,-6.425,-0.104,1.415769,-0.708022,1.369961,102141.66
138622,9.953,-5.881,0.407,1.478558,-0.766022,1.493410,102141.72
138633,8.817,-4.765,2.335,1.296576,-0.650022,1.454566,102141.77
138643,7.313,-4.560,3.358,0.947512,-0.506884,1.364640,102142.25
138652,6.481,-5.061,4.056,0.575035,-0.382903,1.267264,102142.25
138662,6.920,-4.915,4.218,0.154669,-0.224866,1.158713,102141.31
138673,7.637,-4.261,3.703,-0.252928,-0.094499,1.066126,102142.30
138682,8.087,-3.854,3.123,-0.523771,-0.028518,1.001209,102142.30
138692,8.431,-3.738,2.361,-0.665313,0.023097,0.962365,102141.89
138702,8.902,-3.530,1.465,-0.692982,0.073115,0.950658,102140.23
138713,9.016,-3.451,1.058,-0.583368,0.090675,0.958640,102140.23
138723,8.682,-3.657,1.365,-0.414689,0.096528,0.968750,102142.27
138732,8.180,-4.468,1.694,-0.295496,0.118877,0.941080,102137.77
138742,7.971,-5.304,1.990,-0.284854,0.166767,0.860200,102138.75
138753,8.078,-5.300,2.560,-0.365203,0.228492,0.754310,102141.23
138763,8.093,-4.710,3.079,-0.448744,0.276381,0.662255,102143.49
138773,8.180,-4.219,3.225,-0.483331,0.283831,0.597869,102141.57
138782,8.293,-3.897,3.307,-0.467900,0.254565,0.564346,102139.82
138792,8.380,-3.795,3.393,-0.408836,0.196565,0.553172,102139.30
138803,8.326,-3.965,3.460,-0.332212,0.124198,0.553704,102139.30
138812,8.210,-4.252,3.448,-0.277937,0.056088,0.549980,102139.30
138822,8.133,-4.444,3.369,-0.276340,0.014051,0.538273,102142.35
138832,8.173,-4.429,3.292,-0.310395,-0.015747,0.527631,102141.46
138843,8.221,-4.135,3.159,-0.351900,-0.033307,0.523906,102144.46
138853,8.241,-3.950,2.874,-0.379038,-0.031178,0.534016,102139.60
138862,8.283,-4.083,2.655,-0.375313,-0.035435,0.550512,102139.60
138872,8.270,-4.122,2.591,-0.344983,-0.049270,0.569135,102143.08
138883,8.142,-4.214,2.621,-0.296028,-0.064701,0.580310,102141.03
138893,7.949,-4.598,2.578,-0.258249,-0.073747,0.580842,102141.22
138902,7.790,-4.857,2.485,-0.257717,-0.069490,0.572860,102141.22
138912,7.665,-4.801,2.599,-0.280065,-0.055123,0.558493,102142.07
138923,7.570,-4.757,2.660,-0.290175,-0.043417,0.544658,102142.07
138933,7.604,-4.742,2.625,-0.299221,-0.038095,0.535613,102141.51
138942,7.700,-4.515,2.774,-0.301349,-0.057784,0.539869,102141.20
138952,7.639,-4.394,2.860,-0.268359,-0.093435,0.550512,102138.55
138957,7.619,-4.439,2.727,-0.223661,-0.110995,0.561154,102138.55
138968,7.675,-4.672,2.609,-0.188542,-0.122169,0.570200,102142.38
138978,7.849,-4.903,2.427,-0.162469,-0.125894,0.577649,102141.45
138987,7.906,-4.739,2.295,-0.121496,-0.128022,0.583502,102143.21
138997,7.743,-5.233,2.109,-0.095423,-0.124829,0.589356,102139.48
139008,7.829,-5.353,2.051,-0.139588,-0.095563,0.601062,102139.48
139018,7.839,-5.215,2.250,-0.182689,-0.074811,0.606383,102142.22
139027,7.771,-5.230,2.430,-0.205570,-0.062040,0.611704,102141.70
139037,7.754,-5.197,2.542,-0.201845,-0.066829,0.612768,102138.39
139047,7.665,-5.328,2.526,-0.186946,-0.079068,0.613833,102139.22
139058,7.588,-5.564,2.408,-0.183753,-0.077472,0.615429,102139.22
139068,7.651,-5.546,2.345,-0.214083,-0.058316,0.615961,102142.81
139077,7.815,-5.535,2.454,-0.257717,-0.041288,0.622346,102140.42
139087,7.813,-5.583,2.466,-0.298157,-0.027453,0.640970,102137.73
139098,7.730,-5.432,2.301,-0.344450,-0.005637,0.671301,102138.36
139108,7.783,-5.401,2.429,-0.384359,0.001281,0.716530,102138.36
139117,7.796,-5.409,2.666,-0.415753,-0.003508,0.771337,102142.55
139127,7.834,-5.534,2.831,-0.440230,-0.009894,0.830934,102140.13
139138,7.742,-5.658,2.896,-0.468432,-0.031178,0.880952,102136.62
139148,7.767,-5.961,2.929,-0.498762,-0.050334,0.919264,102140.23
139157,8.019,-6.288,2.850,-0.540267,-0.063637,0.940548,102140.23
139167,8.236,-6.542,2.661,-0.587625,-0.072683,0.955979,102141.55
139177,8.325,-6.558,2.418,-0.636579,-0.071086,0.976199,102141.19
139188,8.433,-6.476,2.175,-0.687661,-0.067362,1.003337,102140.27
139198,8.566,-6.448,1.882,-0.719056,-0.078536,1.041117,102138.23
139207,8.612,-6.481,1.719,-0.725973,-0.108334,1.087410,102138.23
139217,8.499,-6.524,1.698,-0.718524,-0.145050,1.139025,102140.95
139228,8.279,-6.600,1.676,-0.722248,-0.172719,1.190640,102142.34
139238,8.180,-6.605,1.746,-0.739808,-0.195600,1.241722,102140.02
139247,8.204,-6.637,1.991,-0.763221,-0.224866,1.291741,102137.89
139257,8.209,-6.678,2.303,-0.783973,-0.255728,1.342291,102137.89
139268,8.253,-6.850,2.436,-0.807918,-0.273288,1.395502,102144.36
139278,8.497,-7.149,2.381,-0.859533,-0.274352,1.447649,102139.80
139287,8.854,-7.582,2.222,-0.937753,-0.269563,1.490217,102136.53
139297,9.386,-7.854,2.016,-1.041514,-0.254132,1.524272,102139.39
139308,10.006,-8.016,1.943,-1.184120,-0.224866,1.563117,102139.39
139318,10.781,-8.179,1.871,-1.362908,-0.175912,1.606750,102142.78
139328,11.677,-8.259,1.925,-1.587459,-0.094499,1.657832,102142.31
139337,12.401,-7.631,2.262,-1.848725,0.030547,1.730199,102141.48
139347,12.380,-6.636,2.860,-2.092963,0.200822,1.848859,102138.13
139358,12.201,-6.477,3.013,-2.266431,0.370033,1.971777,102138.13
139368,12.289,-6.538,3.023,-2.435642,0.529134,2.067024,102142.45
139377,11.961,-6.804,3.190,-2.549513,0.664822,2.149502,102140.91
139387,10.960,-7.699,3.376,-2.505348,0.725482,2.251667,102136.86
139398,10.185,-8.963,3.594,-2.330816,0.730271,2.383630,102138.27
139408,10.353,-9.194,3.515,-2.160009,0.727078,2.455465,102138.27
139417,10.215,-8.639,3.107,-2.088706,0.756344,2.425134,102140.25
139427,9.672,-8.135,2.655,-2.073807,0.828711,2.355428,102140.72
139438,9.078,-7.368,2.239,-2.094027,0.913849,2.240492,102138.55
139448,8.173,-6.612,1.923,-2.110523,0.970785,2.075006,102136.31
139458,6.981,-6.281,1.695,-2.091367,0.985684,1.885575,102136.31
139467,6.216,-5.787,1.398,-2.035495,0.980895,1.699337,102142.65
139478,5.294,-5.499,0.702,-1.986009,0.981959,1.501392,102141.82
139488,4.545,-4.299,1.130,-1.867349,1.003243,1.283227,102139.80
139498,4.202,-2.913,0.400,-1.620450,1.021335,0.993759,102138.88
139507,2.082,-4.258,-1.161,-1.460817,1.081995,0.731961,102138.88
139517,2.210,-4.292,-0.667,-1.401752,1.260252,0.561686,102141.25
139528,4.481,-1.644,-0.540,-1.267661,1.327830,0.250402,102142.86
139538,5.610,0.479,-0.728,-0.955312,1.239500,-0.124736,102138.77
139547,6.082,1.491,-0.876,-0.472689,1.084656,-0.429635,102138.14
139557,6.163,1.720,-1.382,0.079109,0.877665,-0.652056,102138.14
139568,5.821,1.387,-1.640,0.648998,0.660565,-0.834570,102139.90
139578,5.507,0.560,-1.579,1.161952,0.485500,-1.018148,102138.35
139588,5.469,-0.339,-1.410,1.550392,0.355134,-1.216625,102138.45
139597,5.388,-1.222,-1.203,1.816979,0.259886,-1.444368,102136.95
139608,5.189,-1.950,-1.017,1.973420,0.200822,-1.700845,102136.95
139618,5.096,-2.408,-0.931,2.025034,0.182730,-1.968496,102140.16
139628,5.133,-2.820,-0.881,1.996833,0.209868,-2.240936,102137.68
139637,5.363,-3.072,-0.731,1.919677,0.267336,-2.504863,102139.07
139648,5.597,-3.250,-0.614,1.803677,0.349813,-2.756551,102137.73
139658,5.854,-3.514,-0.510,1.660539,0.447189,-2.993871,102137.73
139668,6.150,-3.853,-0.426,1.494521,0.544033,-3.221082,102140.13
139677,6.429,-4.372,-0.516,1.305090,0.638216,-3.432862,102137.06
139687,6.769,-4.905,-0.540,1.087457,0.745170,-3.630275,102137.80
139698,7.254,-5.277,-0.444,0.852797,0.871280,-3.819706,102138.47
139708,7.758,-5.647,-0.348,0.628778,1.005372,-3.998495,102138.47
139718,8.301,-5.935,-0.221,0.466485,1.146381,-4.176219,102139.96
139727,8.904,-6.170,-0.126,0.390393,1.277280,-4.354476,102138.62
139738,9.577,-6.459,-0.270,0.410081,1.382105,-4.518898,102139.49
139748,10.287,-7.141,-0.474,0.475531,1.466179,-4.648201,102138.46
139758,10.816,-8.049,-0.591,0.524485,1.520454,-4.731210,102138.46
139767,11.315,-9.003,-0.792,0.557476,1.527371,-4.761540,102139.66
139778,11.747,-9.897,-0.979,0.607494,1.485335,-4.749834,102141.31
139788,12.068,-10.991,-1.069,0.709659,1.403390,-4.705314,102138.63
139798,11.973,-11.794,-1.110,0.807567,1.315060,-4.629045,102137.58
139807,11.416,-12.343,-1.338,0.907072,1.204381,-4.471540,102137.58
139817,10.718,-12.746,-1.584,1.032650,1.081463,-4.221981,102140.46
139828,10.178,-13.233,-1.411,1.199200,0.943647,-3.908036,102141.02
139838,9.663,-13.306,-0.992,1.378521,0.793592,-3.578660,102139.10
139848,9.097,-13.175,-0.603,1.581787,0.652583,-3.250348,102141.38
139857,8.453,-13.615,-0.579,1.819640,0.517427,-2.905541,102141.38
139868,7.720,-14.168,-1.205,1.963310,0.400363,-2.538385,102143.77
139878,7.080,-14.385,-2.146,1.938833,0.315225,-2.158991,102142.27
139888,6.375,-14.545,-2.461,1.780796,0.195501,-1.783322,102143.50
139897,5.317,-14.384,-2.100,1.563163,0.011391,-1.388496,102145.05
139908,4.319,-14.647,-1.035,1.421622,-0.206774,-0.925029,102145.05
139918,3.471,-16.002,-0.172,1.393420,-0.342462,-0.391855,102142.29
139928,2.527,-17.347,-0.924,1.217824,-0.441435,0.309466,102141.66
139937,2.380,-17.065,0.435,0.971989,-0.463783,1.039521,102141.46
139948,7.130,-10.399,3.915,0.686246,-0.380242,1.547153,102139.76
139958,15.711,4.868,5.410,0.123274,-0.182829,1.177869,102139.76
139968,17.454,6.562,2.493,-0.458322,0.232216,0.538805,102143.49
139978,15.640,-3.530,-2.125,-0.582303,0.223170,0.777190,102143.34
139987,12.165,-6.943,-0.598,-0.258781,-0.063637,1.342291,102144.79
139998,10.517,-7.605,4.287,0.185531,-0.030646,1.661025,102138.63
140008,11.811,-8.651,2.087,0.513843,-0.030114,1.884511,102138.63
140018,10.480,-6.720,-0.334,0.742650,-0.315857,1.921759,102144.48
140027,7.476,-5.081,0.908,0.858118,-0.356297,1.766914,102142.27
140038,7.064,-5.141,1.690,0.488301,-0.174848,1.639208,102142.11
140048,7.084,-5.481,3.114,-0.002304,-0.014151,1.543428,102143.41
140058,7.584,-5.422,3.078,-0.442359,0.119941,1.392309,102143.41
140068,8.087,-4.206,2.568,-0.678615,0.168895,1.236933,102144.91
140078,8.647,-2.380,2.689,-0.584964,0.130583,1.150199,102142.80
140088,9.098,-1.260,2.708,-0.249735,0.012987,1.134236,102142.13
140098,9.099,-1.783,2.273,0.187659,-0.122169,1.141153,102141.82
140107,8.959,-3.203,1.500,0.565989,-0.231783,1.145410,102141.82
140118,8.677,-4.814,1.341,0.697953,-0.281270,1.107098,102145.37
140128,8.311,-5.689,1.600,0.548962,-0.236572,1.016640,102141.43
140138,8.102,-5.544,2.098,0.255237,-0.132279,0.929374,102141.84
140143,8.107,-4.878,2.497,0.029623,-0.052462,0.876163,102140.71
140152,8.212,-4.121,2.888,-0.133735,-0.000316,0.836787,102140.71
140163,8.530,-3.452,2.940,-0.237496,0.018840,0.808585,102140.71
140173,8.768,-3.430,2.712,-0.224194,-0.011490,0.789961,102142.76
140183,8.787,-3.588,2.477,-0.142249,-0.062573,0.781447,102142.49
140193,8.639,-3.862,2.521,-0.068285,-0.108334,0.776126,102142.85
140203,8.285,-4.340,2.600,-0.081056,-0.116848,0.741539,102142.85
140213,8.058,-4.406,2.524,-0.168322,-0.096095,0.701631,102143.92
140223,8.084,-4.040,2.524,-0.234304,-0.092903,0.689924,102143.92
140233,8.300,-4.113,2.172,-0.221533,-0.125894,0.712273,102145.42
140242,8.499,-4.242,1.701,-0.197056,-0.161545,0.739943,102141.53
140253,8.648,-4.113,1.708,-0.189074,-0.164738,0.769209,102142.78
140263,8.758,-4.224,1.845,-0.199717,-0.162609,0.795282,102142.78
140273,8.671,-4.507,1.694,-0.215148,-0.150903,0.808053,102146.41
140283,8.379,-4.559,1.789,-0.223661,-0.150371,0.816034,102143.05
140293,8.090,-4.694,2.015,-0.207166,-0.164738,0.813374,102139.99
140303,7.910,-4.926,1.966,-0.178964,-0.179637,0.796878,102140.64
140313,7.780,-5.127,1.665,-0.158744,-0.190279,0.775594,102141.67
140323,7.734,-5.394,1.513,-0.175772,-0.182829,0.751649,102140.84
140334,7.852,-5.322,1.535,-0.219937,-0.165802,0.729300,102141.67
140343,7.856,-4.852,1.685,-0.252395,-0.156756,0.719190,102141.67
140353,7.825,-4.678,1.737,-0.233772,-0.162077,0.723447,102140.44
140363,7.895,-4.787,1.717,-0.194928,-0.179637,0.738878,102140.44
140372,8.024,-5.125,1.552,-0.165662,-0.199857,0.755374,102141.97
140383,8.063,-5.389,1.432,-0.169386,-0.207839,0.763356,102143.05
140393,8.088,-5.560,1.404,-0.197056,-0.203050,0.764420,102143.05
140403,8.051,-5.595,1.413,-0.225790,-0.197728,0.767080,102140.94
140413,7.914,-5.577,1.491,-0.252928,-0.197728,0.770805,102140.94
140423,7.811,-5.597,1.686,-0.277937,-0.204646,0.777190,102142.03
140433,7.847,-5.531,1.668,-0.300285,-0.213160,0.787300,102140.73
140443,7.965,-5.536,1.743,-0.315184,-0.227527,0.803796,102143.11
140453,8.279,-5.530,1.682,-0.329019,-0.250407,0.824016,102143.11
140463,8.392,-5.645,1.695,-0.342854,-0.268499,0.857539,102143.11
140473,8.487,-5.750,1.516,-0.366799,-0.279141,0.894255,102143.45
140483,8.573,-5.989,1.319,-0.405643,-0.283398,0.933099,102143.55
140493,8.685,-6.100,1.155,-0.456193,-0.295105,0.967154,102139.98
140503,8.724,-6.180,1.056,-0.500891,-0.316389,1.002273,102141.07
140513,8.789,-6.101,1.019,-0.529625,-0.344059,1.040053,102141.07
140523,8.866,-5.995,1.176,-0.540799,-0.386095,1.082089,102141.60
140533,8.900,-6.155,1.283,-0.540799,-0.435581,1.129447,102142.32
140544,8.944,-6.380,1.225,-0.548781,-0.478150,1.175741,102140.40
140553,8.909,-6.391,1.061,-0.573258,-0.513269,1.220438,102140.40
140563,8.868,-6.336,1.026,-0.600927,-0.558499,1.268860,102144.50
140573,8.856,-6.410,0.914,-0.619551,-0.608517,1.322071,102143.16
140583,8.903,-6.539,0.856,-0.645625,-0.650022,1.378474,102143.16
140593,9.060,-6.683,0.824,-0.693514,-0.686737,1.432217,102142.53
140603,9.231,-6.937,0.801,-0.763753,-0.716003,1.485428,102143.31
140613,9.533,-7.147,0.921,-0.871771,-0.732499,1.538107,102143.31
140623,9.969,-7.405,1.049,-1.017037,-0.734627,1.582805,102143.20
140634,10.548,-8.009,0.802,-1.201147,-0.708022,1.617392,102140.36
140643,11.524,-8.565,0.340,-1.468266,-0.646829,1.624309,102141.45
140653,12.960,-8.571,0.109,-1.843404,-0.542535,1.608878,102140.27
140663,15.086,-7.321,0.841,-2.282926,-0.436114,1.593979,102142.70
140674,16.814,-4.224,2.659,-2.608577,-0.395673,1.648786,102136.28
140683,16.800,-2.187,3.735,-2.561752,-0.489857,1.806291,102137.63
140693,16.227,-2.523,3.965,-2.233972,-0.696847,1.992529,102137.63
140703,15.059,-4.198,4.143,-1.900871,-0.894260,2.177171,102138.66
140713,13.332,-7.093,4.301,-1.494872,-1.114554,2.398529,102138.66
140723,12.879,-9.094,4.871,-1.090468,-1.395507,2.616162,102140.39
140733,13.098,-8.343,5.472,-0.858468,-1.566847,2.683740,102141.11
140743,12.284,-7.420,4.845,-0.682872,-1.569507,2.628400,102137.91
140753,11.096,-6.844,3.868,-0.575918,-1.503526,2.499630,102137.08
140764,9.943,-5.944,3.528,-0.531753,-1.410939,2.316052,102137.08
140773,8.707,-5.307,3.040,-0.510469,-1.339104,2.102676,102140.23
140783,8.007,-4.618,3.381,-0.351900,-1.337507,1.894621,102138.93
140793,6.916,-4.054,3.602,-0.162469,-1.346021,1.615263,102138.87
140804,5.807,-3.033,2.890,-0.049129,-1.301856,1.245979,102138.87
140813,3.681,-4.003,0.210,-0.184817,-1.228957,0.814438,102138.87
140823,0.376,-8.050,-0.096,-0.328487,-1.046443,0.613833,102141.60
140833,1.648,-7.189,1.395,-0.386487,-0.819765,0.414824,102138.45
140844,3.124,-3.651,1.853,-0.335405,-0.737820,-0.009800,102136.43
140854,3.006,-1.519,2.400,-0.119368,-0.703055,-0.454821,102139.94
140863,3.043,-0.550,2.240,0.041329,-0.670774,-0.776038,102139.94
140873,3.292,0.440,1.895,0.230228,-0.701636,-1.088919,102138.48
140883,3.541,1.109,1.758,0.607494,-0.809123,-1.385304,102139.20
140894,3.927,0.852,1.775,1.044356,-0.902242,-1.668918,102137.25
140903,4.141,-0.013,2.019,1.442906,-0.970352,-1.948808,102139.67
140913,4.128,-1.121,2.087,1.771218,-1.018242,-2.209542,102140.14
140923,4.006,-2.331,2.143,1.982998,-1.037930,-2.453248,102135.89
140933,3.934,-3.527,2.212,2.084099,-1.030480,-2.674073,102135.89
140943,3.964,-4.481,2.181,2.089952,-0.993765,-2.883193,102137.23
140953,4.193,-5.021,2.072,2.030888,-0.935233,-3.086458,102135.27
140963,4.756,-5.139,2.020,1.975016,-0.874040,-3.276954,102135.27
140974,5.421,-5.191,2.065,1.961181,-0.803801,-3.466917,102136.41
140983,5.926,-5.361,2.326,1.967566,-0.717600,-3.663798,102138.17
140993,6.246,-5.477,2.666,1.979805,-0.631930,-3.848972,102137.28
141003,6.523,-5.651,3.073,1.968099,-0.536682,-4.018715,102137.03
141014,6.991,-6.180,3.371,1.897328,-0.418022,-4.181008,102137.03
141024,7.376,-7.047,3.490,1.860612,-0.271160,-4.339577,102136.60
141033,7.723,-7.845,3.686,1.839328,-0.073215,-4.472072,102134.95
141043,8.094,-8.335,3.642,1.865401,0.133244,-4.569980,102135.57
141053,8.451,-8.682,3.518,1.969695,0.300858,-4.606164,102135.57
141063,8.896,-9.081,3.268,2.126135,0.423776,-4.577430,102135.57
141073,9.410,-9.735,3.110,2.310245,0.505189,-4.506127,102136.41
141083,9.862,-10.844,2.981,2.454447,0.570106,-4.450255,102139.09
141093,10.326,-12.265,2.643,2.460300,0.664467,-4.444934,102137.33
141104,10.397,-13.170,2.376,2.353346,0.783482,-4.469411,102137.33
141113,10.224,-13.634,1.981,2.145823,0.955353,-4.492292,102137.33
141123,9.988,-13.845,1.269,1.867530,1.138399,-4.459834,102140.62
141133,10.122,-13.366,0.529,1.603603,1.271427,-4.335852,102138.43
141144,10.498,-13.177,0.382,1.492392,1.317188,-4.111834,102138.23
141154,10.311,-13.697,0.708,1.515273,1.267170,-3.804275,102138.23
141163,9.439,-14.387,1.040,1.518998,1.179372,-3.432862,102140.02
141173,8.677,-14.780,0.850,1.451952,1.118179,-3.032183,102140.02
141184,8.038,-14.975,0.405,1.397677,1.063904,-2.632037,102139.97
141194,7.516,-14.951,-0.814,1.385970,0.980363,-2.231890,102142.77
141203,7.366,-15.018,-2.656,1.304026,0.847335,-1.868459,102140.02
141213,6.618,-14.865,-2.989,1.158760,0.589794,-1.511414,102140.02
141223,5.105,-15.018,-1.903,1.071494,0.266803,-1.058588,102145.12
141234,3.942,-15.873,-1.169,1.028393,-0.000848,-0.478589,102143.91
141244,3.267,-16.043,-1.245,0.901219,-0.112591,0.160475,102142.10
141253,4.037,-14.326,-0.172,0.727219,-0.125894,0.728768,102140.73
141263,5.537,-12.355,-1.305,0.652191,-0.170059,1.144878,102143.73
141274,5.973,-11.111,-1.404,0.718705,-0.419618,1.522676,102145.50
141284,9.815,-4.696,1.627,0.982099,-0.634058,1.695080,102145.08
141293,16.160,5.671,1.924,1.049677,-0.674499,1.305575,102145.08
141303,17.697,5.407,-0.786,0.980503,-0.531893,0.903300,102140.94
141314,16.286,-3.341,-4.545,1.135347,-0.552646,1.143282,102140.94
141324,12.380,-7.697,-3.923,1.342870,-0.623416,1.584933,102143.52
141333,9.123,-8.817,1.124,1.389163,-0.395673,1.799373,102146.53
141343,9.182,-12.261,2.788,1.276888,-0.026389,1.963263,102141.81
141353,10.996,-11.873,0.490,0.995402,-0.009894,2.111190,102143.63
141364,8.908,-6.982,1.799,0.713384,-0.103013,1.974437,102143.63
141374,7.518,-3.859,3.287,0.424448,-0.050334,1.794052,102144.45
141383,6.723,-3.063,4.535,0.140302,-0.067894,1.662621,102138.69
141393,6.884,-4.159,4.335,-0.082120,-0.063637,1.564181,102141.13
141404,7.930,-4.180,2.627,-0.410964,-0.012022,1.440199,102141.13
141413,8.791,-3.014,1.434,-0.488120,-0.007765,1.350805,102141.13
141423,9.334,-2.114,0.864,-0.263570,-0.062573,1.342291,102145.46
141433,9.305,-2.227,0.752,0.055696,-0.137600,1.382731,102143.29
141444,9.003,-3.027,0.819,0.381347,-0.184426,1.388584,102143.34
141453,8.745,-3.938,1.123,0.636228,-0.230187,1.340695,102142.62
141463,8.369,-4.845,1.831,0.696888,-0.245618,1.259282,102142.62
141473,8.034,-5.248,2.343,0.550558,-0.214756,1.168291,102143.92
141484,8.132,-4.886,2.475,0.331329,-0.168462,1.075704,102144.66
141494,8.403,-4.354,2.329,0.165843,-0.146646,1.020897,102140.88
141503,8.576,-3.890,2.072,0.071659,-0.154628,0.995355,102140.88
141513,8.546,-4.022,1.606,0.057825,-0.173251,0.977796,102143.82
141523,8.611,-4.535,1.384,0.078045,-0.178040,0.964493,102143.82
141534,8.607,-4.813,1.390,0.062614,-0.174848,0.938952,102143.66
141543,8.428,-4.887,1.450,0.019513,-0.156756,0.899576,102143.05
141553,8.285,-4.979,1.333,-0.034763,-0.127490,0.859667,102138.91
141563,8.144,-4.951,1.376,-0.116707,-0.090774,0.827209,102138.91
141574,8.094,-4.667,1.475,-0.218340,-0.045013,0.799539,102140.59
141584,8.196,-4.371,1.631,-0.269423,-0.020536,0.788365,102143.74
141593,8.291,-4.305,1.711,-0.226322,-0.043417,0.788365,102142.87
141603,8.199,-4.483,1.713,-0.128414,-0.095563,0.791557,102141.16
141614,8.093,-4.945,1.633,-0.050194,-0.140261,0.784640,102141.15
141624,8.046,-5.464,1.470,-0.074671,-0.140793,0.764420,102140.95
141634,8.094,-5.315,1.313,-0.178432,-0.099288,0.744732,102142.60
141643,8.093,-4.971,1.392,-0.243882,-0.070554,0.733557,102142.60
141654,8.130,-5.057,1.386,-0.263038,-0.066829,0.733557,102140.12
141664,8.028,-4.993,1.421,-0.247074,-0.084389,0.738346,102140.12
141673,8.132,-4.540,1.570,-0.174175,-0.126426,0.742603,102140.01
141683,7.874,-4.930,1.571,-0.053918,-0.186554,0.756438,102138.35
141693,7.755,-5.192,1.498,-0.034230,-0.205178,0.773466,102138.09
141704,7.748,-5.355,1.566,-0.074671,-0.198261,0.776658,102140.95
141714,7.863,-5.455,1.723,-0.144909,-0.173251,0.774530,102140.95
141723,7.890,-5.420,1.760,-0.200249,-0.157288,0.773998,102139.52
141733,7.874,-5.538,1.584,-0.231111,-0.153031,0.778255,102139.20
141744,7.857,-5.619,1.292,-0.263038,-0.148242,0.788365,102139.63
141754,7.913,-5.550,1.170,-0.283258,-0.153563,0.802732,102139.63
141763,7.929,-5.547,1.315,-0.288047,-0.167398,0.826145,102139.63
141773,7.956,-5.562,1.613,-0.293368,-0.184426,0.854346,102142.13
141784,7.974,-5.857,1.835,-0.313588,-0.191875,0.877227,102142.22
141794,8.194,-6.149,1.762,-0.377441,-0.185490,0.892658,102139.33
141804,8.401,-6.065,1.671,-0.452823,-0.179105,0.915184,102136.79
141813,8.447,-6.023,1.522,-0.487588,-0.188683,0.941612,102136.79
141824,8.624,-6.107,1.203,-0.506212,-0.216352,0.974603,102140.37
141834,8.749,-6.367,0.915,-0.518982,-0.254132,1.010255,102141.30
141844,8.793,-6.569,0.752,-0.539203,-0.286591,1.041117,102142.90
141853,8.824,-6.801,0.618,-0.562083,-0.309471,1.063465,102142.11
141863,8.935,-6.914,0.503,-0.608909,-0.316389,1.082621,102144.50
141874,9.064,-6.818,0.411,-0.655735,-0.326499,1.101777,102141.55
141884,9.139,-6.554,0.466,-0.676487,-0.360022,1.133704,102141.55
141893,8.986,-6.326,0.468,-0.659459,-0.422811,1.178933,102142.89
141903,8.817,-6.386,0.535,-0.632854,-0.500499,1.230016,102139.27
141914,8.765,-6.570,0.764,-0.617423,-0.580847,1.275245,102139.27
141924,8.710,-6.800,1.136,-0.628597,-0.652682,1.314621,102141.88
141933,8.702,-7.023,1.542,-0.679680,-0.697912,1.350273,102140.79
141943,8.762,-7.266,1.820,-0.773863,-0.712279,1.383263,102139.54
141954,9.093,-7.348,1.979,-0.903166,-0.703765,1.408273,102138.66
141964,9.625,-7.520,1.960,-1.048964,-0.685141,1.430621,102141.41
141974,10.379,-7.636,1.847,-1.211789,-0.663324,1.455098,102140.07
141983,11.229,-7.684,1.841,-1.406541,-0.623948,1.478511,102141.98
141993,12.210,-7.257,1.874,-1.642798,-0.557967,1.511502,102139.55
142004,13.374,-6.205,2.054,-1.916835,-0.478150,1.573759,102139.55
142014,14.473,-5.170,2.123,-2.122229,-0.448884,1.661557,102139.55
142023,15.572,-4.505,2.293,-2.236101,-0.478150,1.756272,102142.16
142033,16.080,-4.110,3.077,-2.294633,-0.531893,1.869080,102141.17
142044,15.559,-4.445,3.735,-2.211092,-0.634058,2.035098,102139.31
142054,14.259,-6.519,3.961,-1.900871,-0.842645,2.264437,102138.02
142064,13.889,-8.443,4.069,-1.531055,-1.134242,2.490052,102138.02
142073,14.169,-7.430,4.467,-1.315019,-1.327397,2.556566,102138.37
142084,13.498,-6.106,4.276,-1.076633,-1.386994,2.498565,102139.71
142094,12.237,-5.778,3.685,-0.794083,-1.414131,2.387355,102135.84
142104,10.683,-5.896,3.663,-0.524836,-1.452443,2.259648,102135.84
142113,9.457,-5.395,3.468,-0.293900,-1.447122,2.101612,102141.27
142124,8.454,-4.736,2.918,-0.193863,-1.360388,1.896749,102141.27
142134,7.282,-4.179,2.470,-0.133203,-1.272058,1.645594,102140.13
142144,6.498,-3.944,0.698,-0.185350,-1.181599,1.279502,102140.09
142153,3.552,-6.852,-0.549,-0.321570,-1.071453,0.985777,102141.38
142163,3.107,-7.766,0.627,-0.333276,-0.895856,0.825080,102141.38
142174,4.030,-4.801,1.552,-0.151295,-0.859141,0.465906,102143.55
142184,3.533,-2.645,2.056,0.179146,-0.886811,0.107264,102140.66
142194,3.234,-1.450,2.167,0.428705,-0.857012,-0.239671,102139.09
142203,3.143,-0.520,1.928,0.594191,-0.841581,-0.603102,102136.59
142214,3.191,0.681,1.862,0.896962,-0.893728,-0.952166,102141.97
142224,3.496,1.055,1.908,1.313604,-0.935765,-1.276221,102140.00
142234,3.679,0.432,2.059,1.712686,-0.962370,-1.589102,102136.95
142243,3.715,-0.539,2.082,2.042062,-0.984187,-1.877505,102136.95
142254,3.660,-1.722,2.059,2.254374,-0.984719,-2.121743,102137.42
142264,3.636,-3.076,1.969,2.337915,-0.960774,-2.335652,102137.42
142274,3.644,-4.314,1.926,2.291089,-0.914480,-2.542642,102137.48
142283,3.813,-5.005,1.852,2.164447,-0.854352,-2.761872,102138.72
142294,4.237,-4.967,1.894,2.045254,-0.782517,-2.985358,102138.88
142304,4.756,-4.805,2.024,1.982466,-0.709086,-3.207780,102136.70
142314,5.101,-4.946,2.214,1.973420,-0.637783,-3.424880,102136.70
142324,5.393,-5.228,2.491,1.978209,-0.568077,-3.634531,102134.09
142333,5.748,-5.443,2.902,1.923934,-0.493581,-3.830348,102137.17
142344,6.289,-5.829,3.147,1.799420,-0.396737,-4.017118,102134.11
142354,6.884,-6.417,3.360,1.720668,-0.269563,-4.200164,102134.11
142363,7.475,-7.086,3.568,1.673842,-0.098224,-4.370971,102134.11
142373,7.860,-7.663,3.662,1.714282,0.074712,-4.514109,102136.63
142384,8.089,-8.203,3.645,1.863273,0.222638,-4.606164,102137.41
142394,8.202,-8.924,3.539,2.027695,0.357794,-4.629577,102137.57
142404,8.300,-9.931,3.427,2.139438,0.496675,-4.607228,102135.65
142413,8.706,-10.815,3.392,2.171365,0.632895,-4.582219,102135.65
142424,9.334,-11.464,3.387,2.171365,0.746766,-4.569448,102139.39
142434,9.673,-12.350,3.119,2.174025,0.854253,-4.562531,102135.70
142444,9.589,-13.336,2.689,2.068667,0.989408,-4.564659,102136.25
142454,9.365,-13.692,2.372,1.832943,1.150638,-4.565723,102136.25
142464,9.212,-13.970,2.027,1.552521,1.343261,-4.514641,102141.70
142474,9.084,-14.656,1.548,1.250815,1.560362,-4.389595,102141.70
142484,8.850,-15.489,1.234,0.895365,1.771610,-4.227834,102141.27
142494,8.373,-16.165,1.255,0.536723,1.925390,-4.028293,102140.49
142503,7.718,-16.322,1.449,0.215329,2.031279,-3.749467,102137.29
142514,7.078,-15.992,1.730,-0.047001,2.151536,-3.361559,102137.29
142524,6.984,-15.428,1.090,-0.192267,2.239866,-2.893835,102140.62
142534,7.068,-15.679,-0.797,-0.238561,2.240931,-2.462826,102141.70
142544,6.969,-16.487,-2.866,-0.375313,2.130784,-2.163780,102141.91
142554,6.299,-16.006,-3.801,-0.682872,1.889738,-1.869524,102141.80
142564,5.494,-15.583,-3.542,-0.888267,1.553977,-1.365616,102141.64
142574,4.980,-15.272,-3.238,-0.814835,1.177243,-0.677598,102142.31
142584,5.180,-14.463,-3.444,-0.497698,0.764858,0.057778,102143.30
142594,6.054,-12.871,-2.698,-0.044873,0.317354,0.737814,102143.30
142604,6.939,-11.383,-4.551,0.407421,-0.151435,1.310897,102141.59
142614,8.026,-7.656,-3.449,0.918778,-0.707490,1.798309,102141.59
142624,13.699,3.916,2.545,1.506227,-0.990040,1.734456,102144.02
142635,18.873,11.720,4.585,1.841634,-0.834309,1.058854,102142.91
142644,20.273,5.297,-0.483,2.013328,-0.769746,0.885741,102142.91
142654,16.962,-6.180,-6.329,2.065475,-1.091141,1.308768,102139.42
142664,11.005,-11.857,-1.484,2.181475,-1.096994,1.808419,102139.42
142674,10.119,-12.751,1.450,1.541879,-0.554242,2.027116,102144.49
142684,10.473,-12.182,1.608,0.771384,-0.146114,2.130346,102141.54
142694,9.028,-9.041,1.971,0.463824,-0.146646,2.111722,102139.68
142704,7.412,-5.240,4.155,0.241402,-0.134939,1.987740,102139.68
142713,6.770,-3.120,5.774,0.042926,-0.161545,1.860034,102139.68
142724,6.475,-3.758,5.823,-0.068818,-0.232316,1.721685,102143.43
142734,7.038,-4.933,3.989,-0.237496,-0.247215,1.575887,102144.21
142744,8.019,-4.163,2.035,-0.347643,-0.207839,1.436474,102142.66
142754,8.856,-3.139,1.266,-0.280597,-0.189215,1.365704,102141.93
142764,9.196,-3.153,0.902,-0.156616,-0.194536,1.370493,102141.93
142774,9.093,-3.621,0.449,-0.020928,-0.162077,1.373685,102142.13
142784,8.795,-4.407,0.774,0.079641,-0.115251,1.348144,102140.88
142794,8.343,-5.461,1.859,0.050907,-0.070554,1.270456,102140.11
142804,7.991,-5.756,2.815,-0.107129,-0.029050,1.143814,102144.07
142814,7.997,-4.904,3.487,-0.251331,-0.001380,1.019832,102143.04
142824,8.238,-3.769,3.723,-0.314120,-0.012554,0.942677,102142.32
142834,8.301,-3.287,3.427,-0.282726,-0.050866,0.918199,102142.32
142843,8.275,-3.508,2.913,-0.223129,-0.080132,0.913943,102143.35
142854,8.289,-3.951,2.600,-0.199184,-0.091306,0.911282,102141.12
142864,8.276,-4.339,2.487,-0.218340,-0.080664,0.903832,102141.12
142874,8.206,-4.566,2.584,-0.255588,-0.063637,0.883080,102143.78
142883,8.063,-4.672,2.591,-0.308267,-0.044481,0.849557,102142.75
142894,7.962,-4.606,2.538,-0.359882,-0.018940,0.817631,102141.30
142904,8.060,-4.532,2.482,-0.413093,0.008730,0.799007,102140.98
142914,8.159,-4.430,2.311,-0.454065,0.031611,0.798475,102143.69
142924,8.190,-4.354,2.196,-0.466304,0.046510,0.806456,102143.53
142935,8.230,-4.508,2.269,-0.447680,0.043849,0.810713,102144.56
142944,8.095,-4.846,2.314,-0.411496,0.027354,0.806989,102141.14
142954,7.845,-5.113,2.348,-0.391808,0.012987,0.786236,102141.14
142964,7.625,-5.075,2.467,-0.390212,0.006070,0.763356,102141.14
142973,7.574,-4.908,2.503,-0.384891,-0.000848,0.745796,102140.92
142984,7.620,-4.767,2.296,-0.375845,-0.004040,0.739943,102141.08
142990,7.925,-4.633,2.229,-0.335405,-0.025857,0.750585,102139.84
142999,7.950,-4.799,2.124,-0.265698,-0.059380,0.758034,102140.56
143009,7.975,-4.794,2.239,-0.204506,-0.080664,0.767612,102140.56
143019,7.893,-4.982,2.165,-0.105533,-0.115251,0.780383,102140.31
143029,7.681,-5.287,2.136,-0.067753,-0.130150,0.794750,102143.16
143039,7.413,-5.353,2.244,-0.079992,-0.125894,0.802200,102139.80
143049,7.378,-5.583,2.347,-0.135863,-0.101949,0.804328,102140.88
143058,7.548,-5.574,2.484,-0.223129,-0.063637,0.810713,102140.88
143069,7.620,-5.420,2.524,-0.277405,-0.036499,0.824016,102140.62
143079,7.670,-5.505,2.436,-0.307735,-0.014151,0.842108,102141.04
143089,7.683,-5.608,2.294,-0.345515,0.011923,0.864456,102139.70
143099,7.632,-5.765,2.106,-0.377973,0.029482,0.887337,102141.24
143109,7.673,-5.941,2.026,-0.416285,0.043849,0.907025,102141.24
143119,7.858,-6.060,1.944,-0.463111,0.057684,0.927777,102140.96
143129,7.934,-6.159,1.993,-0.510469,0.069391,0.953319,102140.74
143139,7.968,-6.238,2.042,-0.562083,0.077904,0.983649,102142.30
143149,8.078,-6.282,2.112,-0.613698,0.083226,1.016640,102139.35
143159,8.132,-6.288,2.181,-0.663716,0.075776,1.052823,102139.35
143169,8.147,-6.266,2.224,-0.700964,0.050235,1.092731,102142.08
143179,8.265,-6.471,2.212,-0.730762,0.014051,1.135832,102140.84
143188,8.448,-6.579,2.173,-0.764817,-0.028518,1.177337,102140.63
143199,8.639,-6.639,2.320,-0.803661,-0.074811,1.219906,102141.67
143209,8.849,-6.788,2.348,-0.833459,-0.110462,1.265135,102141.67
143219,8.940,-6.877,2.112,-0.871239,-0.127490,1.318346,102142.80
143229,8.962,-6.713,1.767,-0.925514,-0.143453,1.377410,102140.25
143239,8.989,-6.599,1.269,-0.967019,-0.175912,1.449777,102138.95
143249,9.102,-6.543,0.875,-0.987239,-0.226462,1.539704,102137.83
143259,9.425,-6.599,0.967,-1.005863,-0.300426,1.635483,102137.83
143269,9.825,-6.965,1.218,-1.025551,-0.373857,1.730731,102141.69
143279,10.383,-7.710,1.491,-1.094193,-0.413765,1.812144,102141.69
143289,11.348,-8.332,1.718,-1.260211,-0.411104,1.877593,102141.02
143299,12.613,-8.882,1.822,-1.535312,-0.353104,1.925483,102137.59
143309,14.290,-9.004,1.882,-1.940248,-0.230719,1.966456,102137.59
143320,16.695,-6.830,2.794,-2.476614,-0.048738,2.031905,102144.25
143329,18.019,-4.201,3.819,-2.812376,0.061409,2.163336,102141.20
143339,18.360,-3.317,4.076,-2.770339,0.008198,2.355960,102139.44
143345,18.433,-3.324,4.487,-2.656467,-0.053527,2.502290,102140.06
143354,17.927,-4.082,4.751,-2.501091,-0.130683,2.625740,102140.06
143364,15.954,-6.405,4.769,-2.051991,-0.370132,2.815703,102140.06
143374,14.137,-9.887,4.614,-1.450174,-0.680884,3.036528,102141.13
143384,13.393,-11.055,4.504,-1.142083,-0.837856,3.132308,102138.45
143394,12.769,-9.891,4.505,-1.083019,-0.750058,3.061538,102138.01
143405,12.194,-7.641,4.226,-1.053753,-0.575526,2.887006,102138.01
143414,11.313,-5.441,3.279,-1.045239,-0.474425,2.615630,102141.48
143424,9.240,-4.769,2.329,-1.033000,-0.462187,2.310731,102141.48
143434,7.285,-4.623,1.712,-1.037789,-0.462187,2.015942,102141.17
143444,4.996,-4.198,2.524,-0.973404,-0.388756,1.695080,102141.38
143454,4.342,-2.993,2.177,-0.891459,-0.207839,1.270456,102138.69
143465,1.684,-5.515,-0.663,-1.146695,0.009262,0.800249,102142.55
143474,-0.468,-8.200,0.738,-1.249569,0.274253,0.654805,102142.55
143484,2.070,-4.347,2.095,-1.258083,0.469537,0.371723,102137.18
143495,3.485,-0.229,1.687,-1.141551,0.481776,-0.125800,102138.41
143504,3.422,1.193,1.538,-0.855808,0.470601,-0.558937,102139.20
143514,3.996,2.118,1.133,-0.440762,0.391317,-0.896827,102140.15
143524,4.534,2.747,0.608,0.076448,0.234345,-1.189487,102141.45
143535,4.439,2.368,0.226,0.612815,0.088547,-1.453414,102137.04
143544,4.294,1.208,0.177,1.088521,-0.004040,-1.695524,102137.04
143554,4.149,-0.038,0.156,1.403530,-0.048738,-1.935505,102134.87
143564,3.930,-1.224,0.061,1.572741,-0.069490,-2.177083,102134.87
143575,3.788,-2.261,-0.097,1.645108,-0.081196,-2.422918,102136.27
143584,3.904,-3.046,-0.221,1.639255,-0.074279,-2.684716,102135.65
143594,4.157,-3.561,-0.179,1.608392,-0.056719,-2.957688,102133.63
143604,4.635,-3.727,0.112,1.593493,-0.024261,-3.217890,102134.15
143614,5.153,-3.730,0.357,1.606264,0.020437,-3.477559,102134.15
143625,5.642,-3.873,0.680,1.672246,0.084290,-3.746275,102137.09
143634,5.993,-4.441,1.049,1.679163,0.178473,-4.007540,102134.48
143644,6.128,-5.307,1.384,1.557842,0.307244,-4.246990,102132.85
143654,6.135,-6.502,1.602,1.339145,0.463684,-4.464622,102132.85
143664,6.180,-7.632,1.936,1.074154,0.691959,-4.665760,102132.85
143674,6.448,-8.464,2.208,0.749567,0.991537,-4.849338,102136.25
143684,6.788,-8.917,2.330,0.477127,1.312931,-4.999925,102138.27
143694,7.406,-8.963,2.478,0.310045,1.602399,-5.087723,102136.00
143705,8.238,-9.124,2.479,0.273861,1.806729,-5.107411,102136.05
143714,9.067,-9.884,2.315,0.307916,1.932839,-5.091980,102136.05
143724,9.869,-10.946,2.123,0.313769,2.017445,-5.058457,102137.56
143734,10.275,-11.979,1.834,0.343568,2.106307,-5.002053,102138.91
143745,10.414,-12.619,1.447,0.426045,2.205279,-4.915852,102137.72
143755,10.538,-12.634,1.343,0.592063,2.271793,-4.749834,102137.72
143764,10.881,-12.267,1.407,0.946448,2.234013,-4.450788,102140.18
143774,11.255,-12.304,1.309,1.480686,2.071188,-4.066605,102141.23
143784,11.215,-13.504,0.759,1.996833,1.848234,-3.694660,102141.23
143795,10.768,-15.255,0.000,2.288429,1.661995,-3.376991,102139.93
143804,9.669,-16.883,-0.770,2.249585,1.557702,-3.116257,102137.60
143814,8.180,-17.562,-1.679,1.807401,1.533757,-2.869890,102137.60
143819,7.331,-16.837,-1.946,1.304558,1.548124,-2.676202,102141.07
143830,6.902,-15.423,-1.293,0.883659,1.535353,-2.461762,102139.98
143839,6.747,-13.815,-0.337,0.606430,1.423078,-2.143028,102142.62
143849,6.533,-13.814,-1.186,0.592063,1.230986,-1.809927,102138.48
143859,5.810,-14.766,-2.467,0.604301,0.979298,-1.483212,102138.48
143869,4.351,-15.364,-2.507,0.553751,0.721225,-1.074552,102143.88
143880,3.387,-16.358,-2.595,0.492558,0.488693,-0.484974,102142.27
143889,3.302,-16.509,-2.845,0.405292,0.302455,0.216347,102142.47
143899,3.911,-15.229,-3.152,0.369641,0.076308,0.867649,102144.23
143909,4.755,-13.437,-2.764,0.490430,-0.230719,1.432750,102144.23
143920,7.096,-8.750,-0.838,0.772448,-0.506352,1.790859,102144.02
143929,11.387,2.069,1.912,0.998062,-0.763893,1.707318,102141.44
143939,16.541,12.072,6.799,1.423218,-0.601068,1.212988,102140.14
143949,21.177,12.252,4.025,1.568484,-0.409508,0.799007,102140.09
143960,22.531,5.498,-1.878,1.945750,-0.794756,0.975667,102140.09
143970,18.130,-3.076,-3.948,2.280447,-1.203416,1.495006,102145.00
143979,11.533,-7.715,-0.580,2.467217,-1.137434,1.936125,102143.66
143989,6.965,-10.517,1.979,2.000025,-0.751655,2.069153,102143.77
144000,6.139,-15.177,6.044,1.688209,-0.352572,2.220272,102139.25
144010,9.484,-14.657,2.652,1.344466,-0.302554,2.388419,102139.25
144019,8.722,-9.601,1.961,0.613879,-0.375453,2.283593,102144.98
144029,7.282,-5.868,3.603,-0.059240,-0.300426,2.044144,102142.54
144039,6.006,-5.516,4.317,-0.586028,-0.198261,1.795116,102142.09
144050,6.625,-4.629,2.801,-0.938817,-0.091306,1.629098,102142.29
144059,8.710,-2.012,1.260,-0.836652,-0.059912,1.496071,102142.29
144069,10.067,-1.503,0.507,-0.317313,-0.157820,1.469997,102143.24
144079,9.839,-3.009,0.162,0.205751,-0.287655,1.529061,102142.62
144090,8.767,-4.570,0.740,0.562265,-0.333416,1.514162,102141.43
144099,7.980,-6.166,1.637,0.618668,-0.292976,1.394970,102141.74
144109,7.604,-6.870,2.390,0.294613,-0.179637,1.209796,102141.74
144119,7.675,-5.955,3.073,-0.128946,-0.029050,1.027282,102141.16
144130,8.119,-4.214,3.461,-0.347111,0.048106,0.896915,102141.00
144140,8.443,-3.117,3.377,-0.323166,0.027354,0.849557,102139.66
144149,8.536,-3.144,3.009,-0.175239,-0.035435,0.860732,102141.05
144159,8.501,-3.999,2.532,-0.062964,-0.087582,0.874566,102141.05
144169,8.402,-4.772,2.411,-0.075735,-0.087582,0.864456,102144.60
144175,8.200,-4.940,2.572,-0.157680,-0.055655,0.837851,102142.54
144184,8.044,-4.682,2.720,-0.257717,-0.007233,0.802732,102142.54
144194,7.977,-4.513,2.785,-0.365735,0.050767,0.756970,102143.48
144204,8.218,-4.581,2.524,-0.456193,0.097592,0.725576,102140.41
144215,8.405,-4.327,2.394,-0.514193,0.133244,0.719190,102140.41
144225,8.402,-4.111,2.417,-0.523239,0.144950,0.730365,102142.07
144235,8.302,-4.161,2.613,-0.502487,0.134308,0.743667,102143.85
144244,8.193,-4.423,2.888,-0.491845,0.114088,0.752713,102141.88
144254,8.135,-4.491,3.099,-0.500891,0.101317,0.755374,102141.88
144265,8.022,-4.497,3.107,-0.514193,0.094400,0.756970,102141.88
144274,7.910,-4.671,2.836,-0.516854,0.094400,0.759631,102141.93
144284,7.663,-5.044,2.400,-0.567937,0.109831,0.775062,102143.70
144294,8.240,-4.381,2.496,-0.593478,0.121537,0.795282,102139.87
144305,8.042,-4.194,2.386,-0.441294,0.054492,0.817099,102141.37
144315,7.896,-4.669,2.188,-0.279533,-0.010958,0.850089,102141.37
144324,7.596,-5.233,2.099,-0.216212,-0.038095,0.869245,102143.09
144334,7.380,-5.677,2.162,-0.252928,-0.017875,0.863392,102142.10
144345,7.536,-5.629,2.424,-0.347111,0.032143,0.852750,102141.95
144355,7.683,-5.222,2.707,-0.407771,0.069391,0.845833,102141.95
144365,7.718,-4.981,2.749,-0.402982,0.082161,0.853814,102142.70
144374,7.659,-5.105,2.734,-0.379038,0.085354,0.877759,102142.70
144385,7.464,-5.522,2.593,-0.377973,0.092271,0.911814,102139.55
144395,7.389,-5.950,2.323,-0.435441,0.118877,0.942144,102138.61
144404,7.397,-6.115,2.248,-0.547716,0.174748,0.966089,102137.84
144414,7.406,-6.119,2.200,-0.670634,0.229556,0.988970,102137.84
144424,7.596,-5.881,2.143,-0.757368,0.257225,1.018236,102142.23
144435,7.858,-5.707,2.133,-0.782909,0.233280,1.056548,102142.63
144445,8.045,-5.667,2.200,-0.755239,0.169427,1.101777,102141.45
144454,8.154,-5.874,2.333,-0.717459,0.098657,1.146475,102139.18
144464,8.299,-6.172,2.482,-0.691386,0.042785,1.190640,102141.26
144475,8.465,-6.396,2.501,-0.691918,0.003409,1.226291,102138.82
144485,8.594,-6.595,2.452,-0.706285,-0.024793,1.263007,102142.55
144494,8.685,-6.585,2.119,-0.736083,-0.047141,1.307172,102142.55
144504,8.839,-6.663,1.910,-0.773863,-0.075875,1.364107,102140.07
144515,9.082,-6.690,1.683,-0.815900,-0.113123,1.427428,102140.07
144525,9.263,-6.811,1.419,-0.864854,-0.139196,1.497135,102142.31
144534,9.405,-6.919,0.940,-0.922322,-0.159417,1.570034,102139.63
144544,9.501,-6.957,0.659,-1.001074,-0.181765,1.651447,102135.53
144555,9.734,-7.113,0.469,-1.094725,-0.203582,1.731795,102139.67
144565,10.110,-7.454,0.444,-1.230413,-0.208903,1.813740,102139.67
144575,10.638,-7.821,0.538,-1.436340,-0.178572,1.887703,102141.29
144584,11.953,-8.016,0.894,-1.728468,-0.108334,1.944107,102141.96
144594,13.720,-7.832,1.634,-2.078064,-0.005105,1.990401,102136.84
144605,15.650,-7.181,2.242,-2.468632,0.132180,2.042015,102136.84
144615,17.156,-5.629,3.036,-2.853880,0.241262,2.128217,102136.84
144624,17.804,-3.411,4.558,-3.060871,0.266803,2.277208,102141.20
144634,17.527,-2.321,5.246,-2.901238,0.159849,2.458125,102137.33
144645,16.452,-3.647,4.993,-2.396798,-0.130150,2.680547,102138.56
144650,15.457,-6.113,4.834,-1.904064,-0.416426,2.870510,102134.48
144659,15.022,-8.634,4.517,-1.424101,-0.695251,3.040253,102134.48
144669,14.568,-10.702,4.406,-0.957973,-0.936829,3.184455,102139.50
144679,13.950,-11.070,4.276,-0.741936,-0.979930,3.173813,102138.22
144690,13.068,-9.773,3.899,-0.807386,-0.895324,3.020033,102137.64
144700,11.800,-7.691,3.559,-0.940413,-0.783581,2.783244,102138.00
144709,10.518,-6.346,2.633,-0.954248,-0.759636,2.496969,102138.00
144719,8.034,-5.920,1.949,-1.016505,-0.794756,2.180896,102139.46
144730,5.738,-5.022,2.202,-1.058542,-0.727710,1.817997,102140.82
144740,4.588,-3.283,2.503,-1.034065,-0.594150,1.384328,102139.10
144749,2.985,-3.010,1.124,-1.029276,-0.451545,0.889466,102138.59
144759,-0.631,-6.372,1.196,-1.063331,-0.195600,0.610108,102138.59
144770,0.692,-4.969,2.852,-1.067055,0.080565,0.405246,102141.14
144780,2.712,-0.819,2.156,-1.070248,0.160914,-0.055561,102140.09
144790,2.655,0.919,2.117,-0.902101,0.211996,-0.536056,102137.41
144799,3.124,1.668,2.098,-0.572725,0.244455,-0.894166,102139.17
144809,3.771,2.481,1.503,-0.138524,0.164638,-1.213964,102139.17
144820,3.824,2.177,0.922,0.347292,0.060877,-1.518863,102137.05
144830,3.811,0.833,0.563,0.779365,-0.008829,-1.773744,102136.95
144839,3.798,-0.695,0.345,1.059255,-0.036499,-1.984991,102135.18
144849,3.801,-1.995,0.193,1.198136,-0.026389,-2.189322,102134.10
144860,3.999,-2.941,-0.108,1.221017,0.012987,-2.418129,102134.10
144870,4.331,-3.563,-0.542,1.173127,0.064070,-2.671413,102135.55
144879,4.625,-4.089,-0.893,1.098099,0.125794,-2.923633,102137.37
144889,4.941,-4.247,-0.947,1.042760,0.195501,-3.150312,102136.54
144900,5.254,-4.256,-0.626,1.045420,0.281702,-3.367413,102134.16
144910,5.557,-4.298,0.089,1.111402,0.362051,-3.564293,102134.16
144920,5.813,-4.499,0.775,1.191750,0.423244,-3.757449,102136.59
144929,6.141,-4.818,1.328,1.245494,0.475390,-3.951669,102132.83
144940,6.477,-5.392,1.556,1.281145,0.546693,-4.146421,102134.89
144950,6.740,-6.127,1.832,1.313604,0.657904,-4.329999,102131.38
144960,7.090,-6.606,1.943,1.332759,0.793592,-4.484843,102131.38
144969,7.504,-6.934,1.774,1.416301,0.910124,-4.596054,102133.20
144979,8.127,-7.429,1.394,1.539750,1.004308,-4.662568,102138.16
144990,8.737,-8.234,0.797,1.623824,1.075610,-4.706201,102138.02
145000,9.274,-9.445,0.338,1.634466,1.127225,-4.748237,102137.04
145005,9.560,-10.724,0.137,1.575934,1.163940,-4.786549,102137.04
145014,9.661,-11.992,-0.033,1.438117,1.220876,-4.837100,102137.04
145025,9.637,-13.206,0.034,1.182705,1.336876,-4.906806,102138.70
145035,9.565,-13.440,0.199,0.920374,1.472564,-4.938200,102138.81
145045,9.745,-13.086,0.298,0.743714,1.590692,-4.891375,102139.06
145055,10.149,-12.535,0.357,0.703806,1.661995,-4.743980,102138.18
145064,10.531,-12.380,0.392,0.812356,1.655610,-4.509320,102139.68
145075,10.791,-12.976,0.085,0.996466,1.580050,-4.227302,102138.85
145085,10.370,-14.138,-0.114,1.101292,1.469371,-3.939963,102138.85
145095,9.230,-14.863,-0.366,1.014558,1.376784,-3.630807,102138.29
145104,8.302,-14.823,-0.803,0.773512,1.354436,-3.283339,102138.85
145115,7.802,-14.518,-1.058,0.557476,1.358693,-2.908734,102138.85
145125,7.465,-14.233,-1.399,0.446797,1.316124,-2.536257,102141.70
145135,7.279,-14.051,-2.411,0.415402,1.199592,-2.173358,102140.83
145145,7.131,-14.296,-3.523,0.385072,1.008032,-1.822698,102140.36
145155,6.527,-14.049,-3.689,0.319090,0.719097,-1.457138,102142.95
145165,5.934,-13.840,-2.990,0.351549,0.352473,-1.006974,102145.81
145175,5.196,-14.428,-2.321,0.486173,-0.001912,-0.461561,102143.38
145185,4.475,-15.035,-2.073,0.618136,-0.258389,0.122163,102142.39
145195,4.416,-14.608,-1.617,0.702209,-0.437178,0.703759,102142.80
145205,4.732,-12.982,1.758,0.887916,-0.538279,1.179997,102142.80
145215,6.054,-10.646,3.364,1.056062,-0.599471,1.559924,102142.80
145225,10.951,-0.405,8.676,0.958154,-0.415361,1.481704,102142.99
145234,15.288,5.629,6.988,0.391457,0.103446,0.850089,102139.32
145245,16.288,2.032,2.382,-0.048065,0.244987,0.677686,102140.15
145255,16.062,-2.035,-1.187,-0.223661,-0.021600,0.891062,102139.88
145265,13.978,-4.092,-0.954,-0.082120,-0.250939,1.250768,102139.88
145275,12.528,-3.912,-0.401,0.166375,-0.269563,1.541832,102145.12
145285,10.604,-4.964,0.791,0.380283,-0.233380,1.708382,102143.20
145295,8.513,-7.463,3.495,0.669219,-0.167930,1.815869,102142.16
145305,8.969,-8.941,4.668,0.950705,-0.120040,1.985080,102142.16
145315,9.121,-7.025,3.285,0.836301,-0.207839,2.017006,102143.08
145325,7.303,-5.441,3.578,0.537255,-0.272224,1.873337,102143.08
145335,6.393,-5.757,3.676,0.138173,-0.222738,1.677520,102142.97
145345,6.922,-6.227,2.823,-0.331680,-0.103013,1.513630,102144.42
145355,8.240,-4.619,1.380,-0.714799,0.026822,1.386456,102143.28
145360,9.158,-2.962,0.922,-0.744065,0.078437,1.330585,102143.28
145370,9.615,-2.092,0.964,-0.518450,0.052363,1.334841,102143.55
145380,9.558,-2.230,1.252,-0.125753,-0.045545,1.380071,102143.97
145390,8.974,-3.397,1.786,0.231824,-0.137600,1.398162,102141.84
145399,8.453,-4.553,2.376,0.419127,-0.199857,1.347080,102140.50
145410,7.949,-5.395,2.925,0.346760,-0.210499,1.234805,102140.50
145420,7.740,-5.623,3.125,0.099329,-0.155692,1.100713,102142.44
145430,7.950,-5.164,3.010,-0.173111,-0.075875,0.985777,102142.13
145440,8.309,-4.056,2.856,-0.338065,-0.017343,0.910750,102140.27
145449,8.606,-3.300,2.422,-0.342854,-0.005637,0.891062,102139.75
145460,8.708,-3.256,2.163,-0.246542,-0.029582,0.911282,102139.75
145470,8.580,-3.813,2.262,-0.148102,-0.059912,0.933631,102143.27
145480,8.258,-4.473,2.348,-0.119013,-0.067007,0.925472,102142.40
145489,7.956,-4.783,2.558,-0.170983,-0.041288,0.891062,102142.40
145500,7.759,-4.775,2.696,-0.276872,0.007134,0.842640,102141.21
145510,7.809,-4.607,2.567,-0.389148,0.066198,0.797943,102141.21
145520,7.919,-4.400,2.402,-0.452469,0.108235,0.777190,102143.48
145529,8.023,-4.335,2.307,-0.449276,0.117281,0.771337,102145.09
145540,8.041,-4.358,2.329,-0.400854,0.098657,0.773998,102142.49
145550,7.965,-4.417,2.416,-0.332744,0.069923,0.762291,102140.23
145560,7.827,-4.668,2.648,-0.288579,0.049703,0.744732,102140.23
145570,7.638,-4.671,2.751,-0.274744,0.036932,0.725044,102143.78
145580,7.488,-5.015,2.546,-0.263570,0.028418,0.704291,102143.63
145590,7.651,-5.529,2.058,-0.309863,0.043849,0.678218,102141.45
145600,8.062,-5.024,1.907,-0.348707,0.053427,0.652677,102140.33
145610,8.048,-4.975,1.667,-0.263038,0.020969,0.638842,102140.33
145619,8.051,-5.075,1.647,-0.174175,-0.006701,0.632989,102143.66
145630,7.802,-5.240,1.816,-0.145973,-0.014151,0.629264,102142.37
145640,7.977,-5.091,1.966,-0.122029,-0.018407,0.635117,102137.66
145650,7.796,-5.180,2.117,-0.110854,-0.023196,0.643631,102141.65
145659,7.779,-5.175,2.337,-0.158744,-0.001380,0.653209,102141.65
145670,7.975,-4.881,2.599,-0.223129,0.023097,0.676090,102142.53
145680,8.074,-4.420,2.897,-0.232175,0.021501,0.717594,102143.52
145690,7.989,-4.173,3.180,-0.198120,-0.004573,0.774530,102139.63
145700,7.793,-4.404,3.286,-0.141717,-0.043417,0.841576,102140.25
145710,7.582,-5.165,2.985,-0.124689,-0.075875,0.899044,102140.25
145720,7.510,-5.631,2.801,-0.186946,-0.066297,0.941080,102141.08
145730,7.372,-5.983,2.596,-0.291239,-0.025325,0.965025,102140.78
145740,7.386,-6.351,2.200,-0.400854,0.019904,0.981521,102140.63
145750,7.626,-6.464,1.844,-0.516322,0.067794,0.991631,102138.30
145760,7.834,-6.339,1.681,-0.606781,0.108235,1.002273,102138.30
145770,8.153,-6.187,1.604,-0.654138,0.120473,1.021429,102140.70
145780,8.366,-6.295,1.416,-0.656267,0.092271,1.050695,102140.07
145789,8.446,-6.488,1.434,-0.647221,0.048638,1.086346,102139.20
145800,8.551,-6.493,1.771,-0.655735,-0.011490,1.123062,102139.87
145810,8.639,-6.575,2.258,-0.673826,-0.063105,1.156585,102139.87
145820,8.794,-6.697,2.509,-0.699900,-0.091839,1.192768,102139.34
145830,8.953,-6.834,2.478,-0.749386,-0.108866,1.235337,102141.11
145836,9.048,-6.906,2.258,-0.797276,-0.121637,1.270988,102141.72
145845,9.163,-6.884,1.878,-0.848358,-0.129618,1.316750,102141.72
145855,9.232,-6.738,1.384,-0.904762,-0.155692,1.385392,102140.02
145865,9.387,-6.589,1.103,-0.938817,-0.206774,1.466805,102140.02
145875,9.558,-6.680,1.076,-0.952120,-0.274352,1.554603,102141.44
145885,9.753,-6.908,1.274,-0.981918,-0.335013,1.642933,102142.70
145895,9.995,-7.247,1.432,-1.045239,-0.370132,1.723282,102138.58
145905,10.488,-7.747,1.596,-1.164964,-0.378114,1.789795,102138.58
145915,11.257,-8.275,1.445,-1.341092,-0.369600,1.840878,102138.58
145925,12.184,-8.741,1.172,-1.589587,-0.316389,1.875997,102144.89
145935,13.397,-8.838,1.116,-1.976431,-0.183894,1.898878,102140.97
145945,15.499,-7.377,2.010,-2.509605,0.003941,1.931336,102139.36
145955,17.312,-4.156,3.856,-2.928375,0.126859,2.037758,102138.58
145965,17.693,-2.431,4.728,-2.914541,0.074712,2.217612,102138.58
145975,17.371,-2.485,4.701,-2.619220,-0.088114,2.415024,102141.26
145985,16.068,-4.047,4.410,-2.209495,-0.329160,2.600199,102139.24
145995,14.042,-6.749,4.450,-1.638009,-0.650022,2.827941,102137.02
146006,12.911,-9.425,4.365,-1.047899,-0.936297,3.042914,102136.86
146015,12.560,-10.451,3.921,-0.719588,-1.050168,3.119538,102141.47
146025,12.213,-9.556,3.820,-0.725441,-0.955453,3.000877,102137.84
146035,11.433,-7.666,3.417,-0.851019,-0.771343,2.776327,102137.84
146045,10.061,-6.075,2.514,-0.955845,-0.659600,2.506547,102141.52
146055,8.144,-5.687,1.738,-1.050028,-0.625545,2.236768,102138.45
146065,6.632,-5.344,1.329,-1.137294,-0.618095,1.963263,102138.45
146075,4.801,-4.651,2.403,-1.112285,-0.568077,1.641337,102139.81
146085,4.620,-2.870,2.609,-0.961698,-0.443563,1.263539,102140.89
146096,2.752,-3.551,0.517,-1.023955,-0.336077,0.803796,102138.63
146105,-0.247,-6.642,1.473,-0.961698,-0.133343,0.612768,102138.05
146115,1.863,-4.048,2.669,-0.860065,0.041189,0.371191,102143.13
146125,3.393,-0.472,2.296,-0.698303,0.038528,-0.096534,102138.98
146136,3.205,0.633,2.206,-0.415753,0.045446,-0.539249,102139.36
146145,3.509,1.401,1.839,-0.072010,0.035336,-0.882992,102136.88
146155,3.891,1.951,1.233,0.342503,-0.041288,-1.192680,102136.88
146165,3.723,1.451,0.753,0.761806,-0.125361,-1.484276,102136.88
146176,3.582,0.260,0.637,1.122044,-0.150903,-1.749799,102140.47
146185,3.556,-1.158,0.562,1.331163,-0.130683,-1.988716,102138.45
146191,3.618,-2.122,0.503,1.389695,-0.105673,-2.156863,102137.31
146200,3.704,-2.764,0.449,1.383310,-0.071618,-2.323413,102136.95
146210,3.944,-3.390,0.205,1.338081,-0.022664,-2.559670,102136.95
146221,4.237,-3.836,-0.054,1.285402,0.027354,-2.798055,102136.38
146230,4.675,-4.072,-0.136,1.253475,0.078969,-3.016752,102132.17
146240,5.138,-4.205,-0.110,1.265182,0.128987,-3.232789,102132.64
146250,5.532,-4.297,0.147,1.329567,0.177941,-3.442972,102134.77
146260,5.992,-4.429,0.582,1.399273,0.229556,-3.635596,102134.77
146270,6.313,-4.655,0.991,1.456741,0.265739,-3.827155,102135.47
146280,6.742,-5.136,1.319,1.446099,0.316290,-4.021907,102134.69
146290,7.198,-5.948,1.447,1.407787,0.395574,-4.216660,102134.22
146300,7.610,-6.824,1.707,1.360429,0.519023,-4.403962,102134.58
146311,7.963,-7.306,1.625,1.341805,0.655953,-4.560580,102134.58
146320,8.260,-7.460,1.415,1.423218,0.736124,-4.630641,102135.48
146330,8.630,-8.071,1.108,1.599347,0.779757,-4.640751,102138.38
146340,9.084,-9.229,0.894,1.788778,0.780821,-4.606696,102136.82
146351,9.589,-10.464,0.864,1.857952,0.766455,-4.597650,102136.46
146360,9.925,-11.561,0.774,1.805273,0.763794,-4.643944,102136.46
146370,10.081,-12.191,0.772,1.682356,0.802638,-4.724292,102138.85
146380,10.110,-12.097,0.879,1.522723,0.891500,-4.780696,102138.63
146391,10.371,-11.591,1.103,1.388099,0.998986,-4.773778,102137.45
146400,11.016,-11.028,1.145,1.348723,1.083060,-4.687045,102136.77
146410,11.739,-11.361,1.139,1.392356,1.121904,-4.533265,102136.77
146420,11.843,-12.400,0.993,1.420558,1.123500,-4.355008,102140.91
146430,11.384,-13.431,0.690,1.318925,1.130950,-4.179944,102138.53
146440,10.487,-14.007,0.643,1.124705,1.166601,-3.968697,102141.42
146450,9.311,-14.096,0.663,0.917714,1.207573,-3.689871,102140.75
146460,8.366,-14.354,-0.038,0.732008,1.259720,-3.361027,102140.75
146470,8.068,-15.155,-0.960,0.550558,1.331555,-3.043890,102142.46
146481,7.504,-15.051,-1.649,0.293017,1.333683,-2.730477,102142.51
146490,6.715,-14.840,-2.177,0.024302,1.230986,-2.316496,102142.10
146500,5.620,-15.505,-2.477,-0.203973,1.021867,-1.772147,102140.91
146510,4.438,-16.395,-2.271,-0.382230,0.770711,-1.130955,102140.91
146521,4.066,-16.066,-1.721,-0.531753,0.522216,-0.438148,102144.36
146530,4.280,-14.462,-1.011,-0.600395,0.309372,0.238695,102144.14
146540,4.540,-12.662,-0.728,-0.503551,0.107170,0.802732,102143.11
146550,4.922,-11.018,0.450,-0.228450,-0.108866,1.195961,102140.53
146561,5.439,-9.880,1.343,0.203091,-0.262646,1.398695,102140.53
146571,7.998,-5.220,4.206,0.427109,-0.358426,1.510438,102144.34
146580,12.996,2.627,7.007,0.447861,-0.118444,1.129979,102141.08
146590,16.326,4.765,4.548,0.130192,0.165703,0.679282,102141.75
146600,17.247,1.165,-0.172,0.045586,0.049171,0.623943,102140.77
146611,15.445,-3.749,-2.194,0.223843,-0.308407,0.905429,102140.77
146620,13.775,-6.118,-1.076,0.700081,-0.490389,1.307172,102142.90
146630,13.271,-5.413,-1.982,0.893237,-0.448352,1.538639,102142.95
146640,10.368,-5.598,-2.161,0.858118,-0.359490,1.593447,102143.84
146651,7.998,-6.384,0.383,0.697953,-0.146646,1.572695,102144.71
146660,7.620,-5.851,4.732,0.385604,0.091207,1.531190,102144.71
146670,7.707,-5.007,8.564,0.270668,0.172088,1.522676,102140.54
146680,7.714,-4.722,7.889,0.264283,0.041189,1.498731,102142.66
146691,7.244,-4.547,5.479,0.161054,-0.137068,1.377942,102140.24
146700,7.536,-4.943,3.625,-0.049662,-0.166334,1.230548,102141.07
146710,8.354,-5.008,2.054,-0.335405,-0.115251,1.135300,102141.07
146720,8.958,-4.137,0.714,-0.527496,-0.034903,1.093796,102143.84
146731,9.441,-3.348,-0.250,-0.501955,0.052895,1.085814,102144.31
146741,9.633,-3.436,-0.176,-0.274744,0.089611,1.102309,102141.20
146750,9.469,-4.199,0.407,-0.084249,0.088547,1.118805,102141.77
146760,9.101,-4.751,1.465,-0.030506,0.093336,1.091135,102141.77
146770,8.690,-4.569,2.453,-0.098084,0.086950,1.018768,102145.77
146781,8.351,-4.047,3.208,-0.216212,0.077904,0.921924,102143.13
146790,8.192,-4.024,3.536,-0.308799,0.076308,0.826677,102142.37
146800,8.317,-3.958,3.448,-0.392340,0.060877,0.762291,102140.20
146810,8.558,-3.391,3.285,-0.453533,0.053959,0.725044,102140.20
146821,8.782,-2.918,3.139,-0.478542,0.045978,0.719190,102143.37
146830,8.908,-3.115,2.963,-0.463111,0.022033,0.735154,102142.59
146840,8.827,-3.528,2.918,-0.442359,-0.010426,0.750053,102144.34
146850,8.536,-3.736,2.944,-0.439166,-0.031710,0.754842,102141.91
146861,8.300,-3.877,2.842,-0.465771,-0.033307,0.753245,102141.91
146871,8.214,-4.050,2.671,-0.507276,-0.028518,0.755374,102145.64
146880,8.374,-3.815,2.539,-0.559955,-0.011490,0.763356,102143.69
146890,8.514,-3.439,2.568,-0.580175,0.003941,0.780915,102140.42
146900,8.524,-3.465,2.550,-0.547184,-0.007765,0.808585,102142.08
146911,8.420,-3.695,2.564,-0.488120,-0.033307,0.827741,102142.08
146920,8.244,-3.992,2.618,-0.414689,-0.062573,0.828273,102141.54
146930,7.992,-4.242,2.641,-0.351368,-0.088646,0.814438,102144.49
146940,7.692,-4.462,2.703,-0.321038,-0.099820,0.785172,102143.26
146951,7.607,-4.542,2.710,-0.332212,-0.092371,0.764952,102140.98
146960,7.656,-4.334,2.682,-0.358285,-0.079600,0.753778,102140.98
146970,7.628,-4.291,2.578,-0.363074,-0.078536,0.759099,102141.86
146980,7.623,-4.104,2.513,-0.360946,-0.079600,0.777723,102139.28
146991,8.004,-3.058,2.971,-0.290707,-0.102481,0.812842,102141.92
147001,8.026,-2.846,3.141,-0.012946,-0.209967,0.850089,102140.58
147010,7.473,-3.973,2.871,0.200430,-0.307875,0.894787,102140.58
147020,7.531,-4.762,2.548,0.253109,-0.336077,0.924585,102140.02
147031,7.505,-5.443,2.065,0.216925,-0.338205,0.929906,102141.36
147041,7.626,-5.552,1.874,0.088155,-0.289251,0.920860,102140.95
147050,7.681,-5.117,1.896,-0.026249,-0.240829,0.918199,102139.81
147060,7.686,-4.920,1.803,-0.029974,-0.232316,0.935759,102139.81
147070,7.700,-5.329,1.519,0.013127,-0.253068,0.963429,102140.48
147081,7.813,-5.874,1.349,0.024302,-0.265838,0.986842,102140.59
147090,7.908,-6.012,1.415,-0.024120,-0.245618,0.995888,102139.25
147100,7.883,-5.874,1.661,-0.095955,-0.212095,1.004933,102139.86
147110,7.816,-5.713,1.871,-0.145973,-0.191875,1.021429,102139.86
147121,7.777,-5.643,2.064,-0.166194,-0.187618,1.044309,102143.20
147131,7.676,-5.854,2.217,-0.177900,-0.186554,1.070915,102142.26
147140,7.626,-6.138,2.319,-0.225790,-0.178040,1.096988,102139.84
147150,7.752,-6.425,2.499,-0.313056,-0.155692,1.121997,102141.07
147161,8.080,-6.427,2.472,-0.410432,-0.133875,1.139557,102141.07
147171,8.482,-6.696,2.148,-0.494505,-0.129618,1.159777,102143.44
147180,8.761,-6.797,1.997,-0.576982,-0.132279,1.191172,102142.34
147190,8.958,-6.737,1.823,-0.645092,-0.140261,1.231612,102141.72
147201,9.198,-6.818,1.536,-0.686597,-0.163673,1.275777,102139.23
147211,9.384,-6.894,1.343,-0.714267,-0.192407,1.331117,102139.23
147221,9.441,-6.952,1.221,-0.744597,-0.225398,1.392309,102143.91
147230,9.485,-7.054,1.131,-0.781313,-0.258389,1.453502,102142.36
147240,9.503,-7.107,1.171,-0.823349,-0.297765,1.515759,102137.23
147251,9.571,-6.965,1.230,-0.859001,-0.348848,1.579612,102139.81
147260,9.595,-6.891,1.421,-0.870707,-0.405783,1.643997,102139.81
147270,9.479,-7.048,1.579,-0.885074,-0.458462,1.714768,102140.92
147280,9.454,-7.351,1.628,-0.937753,-0.487196,1.774896,102141.89
147291,9.759,-7.936,1.619,-1.040982,-0.502095,1.818529,102139.42
147301,10.506,-8.447,1.690,-1.209661,-0.484003,1.844070,102139.78
147310,11.476,-8.797,1.716,-1.457092,-0.421215,1.853648,102139.78
147320,12.692,-8.939,1.726,-1.781147,-0.310004,1.857905,102143.52
147331,14.522,-7.800,2.124,-2.212156,-0.150903,1.878658,102139.89
147341,15.998,-5.505,3.161,-2.596339,-0.015747,1.963795,102137.19
147350,16.699,-4.165,3.449,-2.702761,0.003409,2.104272,102138.13
147360,16.961,-3.714,3.741,-2.678816,-0.022664,2.240492,102138.13
147371,16.098,-4.074,4.228,-2.580908,-0.083325,2.363942,102140.91
147377,14.643,-5.330,4.209,-2.367000,-0.200389,2.482070,102139.99
147386,13.147,-7.583,4.459,-1.984945,-0.381838,2.662987,102139.99
147396,12.824,-9.480,4.439,-1.489019,-0.618095,2.879556,102140.60
147405,13.136,-8.881,4.319,-1.253294,-0.705361,2.896584,102137.45
147416,12.867,-7.551,4.141,-1.195826,-0.632994,2.754510,102137.45
147426,11.716,-6.313,3.424,-1.168156,-0.528701,2.549116,102138.11
147436,10.143,-5.273,2.387,-1.183055,-0.472297,2.334144,102139.02
147445,8.046,-5.076,2.331,-1.138890,-0.476022,2.126089,102137.00
147456,6.637,-4.777,3.120,-0.952652,-0.468572,1.904199,102137.00
147466,5.523,-3.861,3.335,-0.721184,-0.412701,1.592383,102137.00
147476,4.511,-3.205,1.420,-0.712138,-0.292976,1.169355,102140.47
147485,0.692,-6.696,-0.402,-0.839312,-0.129618,0.845300,102141.25
147496,0.512,-7.293,0.861,-0.910438,0.134485,0.620395,102140.00
147506,2.560,-3.443,1.287,-0.849955,0.203482,0.242420,102140.00
147516,2.831,-0.918,1.412,-0.655203,0.207207,-0.240203,102140.00
147526,2.808,0.353,1.374,-0.422671,0.229024,-0.631836,102141.49
147535,3.345,1.824,0.897,-0.018799,0.147611,-0.969194,102139.02
147546,3.584,2.446,0.559,0.514907,0.001813,-1.273028,102137.77
147556,3.624,1.989,0.608,1.078411,-0.125894,-1.556111,102137.77
147566,3.661,0.901,0.692,1.574870,-0.215288,-1.808331,102140.85
147575,3.647,-0.299,0.726,1.921805,-0.277013,-2.022239,102140.85
147586,3.602,-1.533,0.738,2.122410,-0.311600,-2.232955,102139.30
147596,3.594,-2.772,0.588,2.196906,-0.325967,-2.451652,102137.80
147606,3.756,-3.679,0.490,2.175621,-0.325435,-2.686312,102136.62
147615,4.132,-4.009,0.535,2.098465,-0.300958,-2.933211,102136.62
147625,4.695,-3.979,0.511,2.038337,-0.258921,-3.177449,102135.68
147636,5.259,-3.915,0.838,2.050044,-0.206242,-3.414238,102135.21
147646,5.700,-4.101,1.365,2.030355,-0.143453,-3.635596,102132.52
147656,6.192,-4.521,1.786,1.880301,-0.081196,-3.838862,102134.49
147665,6.630,-5.329,1.913,1.696190,-0.016811,-4.037338,102136.50
147676,6.983,-6.374,2.080,1.523255,0.100785,-4.241669,102136.20
147686,7.366,-7.204,2.034,1.374796,0.273189,-4.427375,102135.63
147695,7.696,-7.655,1.991,1.300833,0.466877,-4.548696,102135.63
147705,8.045,-8.147,2.011,1.274228,0.658436,-4.598182,102134.55
147716,8.378,-9.012,2.283,1.273163,0.810620,-4.600842,102134.55
147726,8.760,-10.007,2.390,1.249750,0.918638,-4.607760,102136.50
147731,9.012,-10.674,2.287,1.227934,0.986216,-4.621595,102137.06
147740,9.281,-11.094,2.034,1.201328,1.061775,-4.641283,102134.78
147750,9.582,-11.413,1.786,1.173127,1.189482,-4.664696,102137.78
147761,9.899,-11.665,1.673,1.161420,1.329427,-4.659907,102137.78
147771,10.206,-11.828,1.403,1.141732,1.441170,-4.619466,102139.65
147781,10.516,-11.941,1.109,1.116723,1.504491,-4.559870,102138.73
147790,10.701,-12.310,0.598,1.095439,1.525243,-4.489100,102137.32
147801,10.548,-12.908,0.028,1.035842,1.531628,-4.384806,102137.95
147811,10.184,-13.303,-0.401,0.888448,1.560362,-4.221448,102137.95
147821,9.788,-13.148,-0.290,0.715512,1.589628,-3.984128,102142.85
147830,9.642,-12.919,-0.033,0.636228,1.578454,-3.680293,102138.87
147841,9.496,-13.446,-0.169,0.706466,1.518326,-3.351981,102141.35
147851,8.935,-15.127,-1.171,0.769965,1.443121,-3.010367,102140.41
147861,8.038,-15.740,-2.229,0.629310,1.375720,-2.683119,102140.41
147871,7.221,-15.465,-3.056,0.374962,1.258656,-2.221248,102144.06
147880,6.419,-15.483,-3.377,0.189256,1.014418,-1.662001,102143.45
147891,5.453,-16.170,-3.200,0.105714,0.688234,-1.041561,102145.36
147901,4.829,-16.378,-2.687,0.024302,0.373225,-0.393983,102144.95
147910,4.811,-15.246,-1.610,-0.040084,0.123134,0.266897,102144.95
147920,5.317,-13.421,0.138,0.077513,-0.050334,0.835190,102144.57
