59887,8.673,-3.995,0.252,-0.086486,0.125515,-0.419282,101818.24
59897,8.588,-3.880,0.200,-0.079569,0.119662,-0.423007,101816.40
59908,8.573,-3.763,0.210,-0.077441,0.117002,-0.422475,101818.71
59918,8.692,-3.868,0.146,-0.084358,0.122323,-0.422475,101816.96
59927,8.926,-3.978,0.114,-0.109899,0.139350,-0.421943,101816.96
59937,9.068,-3.948,0.142,-0.154064,0.163295,-0.423007,101818.85
59948,9.065,-3.670,0.347,-0.189184,0.184580,-0.419282,101818.95
59958,8.911,-3.433,0.546,-0.201422,0.192029,-0.403319,101817.21
59968,8.721,-3.385,0.546,-0.204083,0.197882,-0.377600,101819.05
59977,8.731,-3.340,0.454,-0.225899,0.208524,-0.352768,101819.05
59987,8.953,-3.260,0.499,-0.253569,0.217038,-0.326695,101819.98
59998,9.057,-3.123,0.668,-0.259954,0.204268,-0.294236,101817.69
60008,9.023,-3.010,0.771,-0.239202,0.177130,-0.255924,101817.33
60017,9.048,-3.067,0.832,-0.211532,0.143075,-0.214952,101819.38
60027,9.175,-3.326,0.777,-0.196633,0.120726,-0.179301,101819.38
60038,9.105,-3.575,0.851,-0.217385,0.126047,-0.153227,101817.34
60048,8.823,-3.601,0.999,-0.275918,0.160103,-0.136732,101816.46
60057,8.601,-3.607,1.141,-0.352541,0.209589,-0.127154,101815.85
60067,8.495,-3.613,1.191,-0.427037,0.262268,-0.123429,101816.35
60078,8.430,-3.582,0.999,-0.497275,0.311754,-0.126090,101816.35
60088,8.556,-3.387,0.675,-0.554743,0.348469,-0.127154,101817.95
60097,8.815,-3.186,0.337,-0.584541,0.358047,-0.121833,101820.62
60107,9.121,-3.097,-0.027,-0.562193,0.326121,-0.107998,101819.07
60118,9.549,-2.934,-0.306,-0.490358,0.267589,-0.085117,101818.15
60128,9.651,-3.047,-0.340,-0.390853,0.206396,-0.063833,101818.15
60138,9.275,-3.342,-0.100,-0.303587,0.164891,-0.051594,101820.18
60147,8.883,-3.511,0.137,-0.259954,0.153185,-0.054255,101819.62
60157,8.686,-3.633,0.322,-0.258358,0.163295,-0.068622,101817.55
60168,8.516,-3.752,0.401,-0.276450,0.180855,-0.089906,101816.68
60178,8.415,-3.852,0.373,-0.304119,0.203736,-0.114915,101816.68
60187,8.427,-3.800,0.213,-0.336046,0.221827,-0.137264,101821.73
60197,8.609,-3.520,-0.046,-0.351477,0.219699,-0.151631,101820.09
60208,8.997,-3.272,-0.352,-0.324872,0.180855,-0.150035,101818.34
60218,9.313,-3.107,-0.522,-0.257294,0.116470,-0.131411,101817.31
60227,9.465,-2.905,-0.559,-0.168963,0.045699,-0.102145,101817.31
60237,9.453,-2.847,-0.291,-0.068395,-0.017090,-0.064897,101820.89
60248,9.233,-3.037,0.049,0.018339,-0.058595,-0.031374,101819.59
60258,9.115,-3.255,0.292,0.056119,-0.064448,-0.004769,101817.64
60267,9.058,-3.424,0.362,0.045477,-0.051677,0.013323,101818.83
60277,9.018,-3.441,0.392,0.004504,-0.031457,0.023965,101818.83
60288,8.923,-3.312,0.436,-0.038597,-0.018686,0.038332,101821.42
60298,8.819,-3.160,0.510,-0.055624,-0.021879,0.061213,101818.14
60308,8.722,-3.052,0.513,-0.044450,-0.040503,0.088883,101818.97
60317,8.787,-3.117,0.412,-0.021037,-0.066044,0.117617,101816.59
60327,8.902,-3.210,0.387,-0.000285,-0.093714,0.147415,101816.59
60338,8.956,-3.122,0.459,0.012486,-0.117127,0.174552,101819.78
60348,9.075,-3.090,0.614,0.025257,-0.137347,0.202222,101821.42
60357,9.123,-3.159,0.807,0.041220,-0.155971,0.229892,101815.67
60367,9.203,-2.807,1.032,0.044945,-0.157567,0.257029,101818.81
60378,9.224,-2.509,1.187,0.063036,-0.156503,0.277782,101818.81
60388,9.086,-3.128,0.890,0.129018,-0.163420,0.294809,101820.70
60398,8.919,-3.869,0.447,0.193935,-0.178851,0.300130,101819.31
60407,8.679,-4.160,0.074,0.179568,-0.193218,0.283103,101820.03
60418,8.543,-4.030,0.054,0.147642,-0.188961,0.249580,101817.81
60428,8.586,-3.854,0.096,0.122101,-0.172466,0.220846,101817.81
60438,8.816,-3.818,0.137,0.100284,-0.160228,0.195837,101819.13
60447,8.966,-3.863,0.079,0.076871,-0.145328,0.174020,101818.97
60457,8.977,-4.103,-0.048,0.060376,-0.122448,0.157525,101818.97
60468,8.803,-4.373,-0.143,0.047073,-0.101163,0.136773,101816.91
60478,8.547,-4.452,-0.316,0.018871,-0.075090,0.107507,101816.91
60487,8.389,-4.329,-0.341,-0.029019,-0.038374,0.076644,101818.45
60497,8.339,-4.146,-0.267,-0.074248,-0.003255,0.046846,101817.31
60508,8.403,-4.052,-0.230,-0.097661,0.023350,0.028222,101820.09
60518,8.586,-3.965,-0.091,-0.101386,0.031864,0.013323,101817.27
60527,8.683,-3.907,0.122,-0.093404,0.027607,0.005341,101817.27
60537,8.808,-3.593,0.393,-0.090211,0.020690,0.005874,101822.53
60548,8.947,-3.279,0.663,-0.079037,0.011644,0.011727,101818.88
60558,9.038,-3.450,0.771,-0.039661,-0.012833,0.021305,101823.05
60563,9.084,-3.451,0.805,-0.009331,-0.035182,0.028222,101818.22
60572,9.027,-3.636,0.769,0.012486,-0.052209,0.028222,101818.22
60582,8.941,-3.986,0.562,0.042284,-0.074026,0.018112,101818.22
60593,8.795,-4.310,0.323,0.044945,-0.085200,0.002149,101819.16
60603,8.657,-4.332,0.125,0.016743,-0.082007,-0.016475,101821.23
60613,8.626,-4.110,0.082,-0.016780,-0.069237,-0.032970,101819.93
60622,8.617,-3.907,-0.006,-0.038064,-0.062319,-0.038292,101819.93
60633,8.674,-3.737,-0.049,-0.037532,-0.064448,-0.035631,101820.80
60643,8.771,-3.591,-0.076,-0.020505,-0.076154,-0.026053,101820.80
60653,8.690,-3.585,-0.135,0.004504,-0.091585,-0.013282,101819.88
60662,8.787,-3.585,-0.111,0.023128,-0.099035,0.002149,101819.68
60673,8.977,-3.515,0.030,0.039624,-0.107017,0.008534,101818.65
60683,8.858,-3.938,0.133,0.066229,-0.117836,0.007647,101820.71
60693,8.713,-4.190,0.106,0.074743,-0.116595,-0.000512,101820.71
60703,8.535,-4.180,0.018,0.048137,-0.102228,-0.019136,101817.26
60712,8.465,-4.083,-0.051,0.008761,-0.076686,-0.036163,101816.24
60723,8.465,-3.957,-0.076,-0.022101,-0.060191,-0.050530,101817.10
60733,8.493,-3.842,-0.088,-0.035404,-0.050613,-0.056383,101818.69
60743,8.579,-3.742,-0.064,-0.034872,-0.053806,-0.057447,101819.30
60752,8.665,-3.649,0.003,-0.021037,-0.066576,-0.049998,101818.98
60763,8.730,-3.615,0.122,-0.004009,-0.077751,-0.038824,101818.98
60773,8.822,-3.606,0.152,0.008229,-0.086796,-0.023925,101816.94
60783,8.871,-3.723,0.153,0.010890,-0.093714,-0.009025,101816.94
60792,8.920,-3.633,0.146,0.000247,-0.094778,0.005341,101820.58
60803,8.993,-3.550,0.137,-0.010395,-0.094246,0.022901,101818.92
60813,9.047,-3.667,0.085,-0.004542,-0.104356,0.043121,101817.95
60823,9.046,-3.702,0.049,-0.001349,-0.116062,0.062809,101817.84
60833,8.983,-3.633,0.069,-0.002413,-0.125640,0.080901,101817.84
60843,8.963,-3.636,0.161,-0.003477,-0.141604,0.102185,101816.05
60853,8.957,-3.623,0.247,-0.000285,-0.156503,0.126130,101819.23
60863,8.826,-3.635,0.253,0.004504,-0.171402,0.151140,101816.55
60873,8.771,-3.849,0.224,0.005036,-0.182576,0.171892,101816.55
60882,8.724,-4.121,0.124,-0.007202,-0.188429,0.187323,101816.55
60893,8.615,-4.216,-0.001,-0.040193,-0.185769,0.201158,101818.93
60903,8.589,-4.053,0.001,-0.090743,-0.182044,0.219782,101819.65
60913,8.740,-3.867,0.077,-0.132780,-0.183108,0.249580,101816.66
60922,8.995,-3.697,0.165,-0.159386,-0.188961,0.289488,101817.18
60933,9.209,-3.629,0.373,-0.176413,-0.200136,0.340039,101817.18
60943,9.356,-3.661,0.716,-0.193973,-0.215567,0.394314,101817.96
60953,9.578,-3.511,0.976,-0.219514,-0.233659,0.449121,101819.34
60963,9.793,-3.194,1.161,-0.237606,-0.263989,0.510314,101815.54
60973,9.941,-3.186,1.324,-0.225899,-0.307090,0.577359,101817.36
60983,9.913,-3.581,1.336,-0.211000,-0.344870,0.639616,101818.64
60993,9.888,-4.031,1.348,-0.223239,-0.362961,0.693359,101817.47
61002,10.061,-4.349,1.315,-0.271129,-0.368815,0.735396,101817.47
61012,10.362,-4.471,1.395,-0.323807,-0.379989,0.775836,101816.84
61023,10.678,-4.397,1.506,-0.354670,-0.402337,0.822662,101818.50
61033,10.885,-4.271,1.646,-0.347752,-0.448631,0.874277,101818.50
61043,11.057,-4.165,1.791,-0.299862,-0.510888,0.933873,101820.13
61052,11.115,-4.150,1.814,-0.226431,-0.573145,0.998790,101820.60
61063,10.888,-4.347,1.761,-0.142890,-0.624227,1.066368,101820.24
61073,10.348,-4.725,1.646,-0.091275,-0.634337,1.130754,101817.16
61083,9.750,-5.118,1.504,-0.096597,-0.589108,1.167469,101819.71
61093,9.524,-5.014,1.328,-0.157257,-0.502374,1.171194,101816.32
61103,9.589,-4.071,1.243,-0.223239,-0.404998,1.135010,101818.12
61113,9.756,-2.612,1.155,-0.208872,-0.320925,1.065304,101816.21
61123,9.908,-1.170,1.011,-0.073716,-0.287402,0.981763,101816.21
61132,9.925,0.027,1.129,0.218412,-0.323585,0.896093,101816.21
61143,9.385,0.602,1.583,0.679219,-0.399677,0.815745,101819.07
61153,8.825,0.685,2.428,1.196962,-0.441182,0.724222,101818.30
61163,8.518,0.717,2.894,1.609879,-0.403402,0.552350,101819.59
61173,8.218,0.440,2.804,1.862632,-0.298576,0.338974,101816.91
61182,7.914,-0.308,2.144,1.904136,-0.136815,0.087286,101816.91
61193,7.650,-0.667,1.541,1.677457,0.082947,-0.198989,101817.63
61203,7.712,-0.887,1.403,1.340100,0.348469,-0.476750,101817.22
61213,7.953,-1.056,1.345,0.979329,0.602286,-0.740676,101816.81
61223,8.260,-1.196,1.145,0.679752,0.780010,-0.976401,101816.81
61233,8.549,-1.358,0.845,0.467972,0.893350,-1.184988,101817.83
61243,8.749,-1.689,0.522,0.332284,0.965717,-1.381869,101817.83
61253,8.905,-2.137,0.235,0.225330,1.028506,-1.568639,101816.75
61262,9.030,-2.338,0.119,0.137532,1.087038,-1.723483,101815.72
61273,9.145,-2.344,0.084,0.130082,1.123221,-1.833098,101815.41
61283,9.284,-2.394,0.035,0.233312,1.124285,-1.898015,101815.41
61293,9.453,-2.688,-0.209,0.416357,1.092891,-1.926749,101818.07
61303,9.551,-3.068,-0.463,0.625476,1.040212,-1.935263,101817.24
61313,9.612,-3.286,-0.698,0.828742,0.972102,-1.930474,101814.16
61323,9.660,-3.508,-0.856,1.029348,0.882708,-1.917703,101815.31
61333,9.719,-3.803,-0.956,1.223036,0.770965,-1.892162,101818.09
61343,9.676,-4.307,-1.059,1.396503,0.640065,-1.862896,101818.70
61353,9.579,-4.761,-1.107,1.526870,0.510231,-1.822456,101818.86
61363,9.617,-5.182,-1.112,1.610412,0.394763,-1.790529,101818.86
61373,9.611,-5.471,-1.063,1.626375,0.301112,-1.768713,101815.94
61383,9.449,-5.472,-0.906,1.594448,0.229277,-1.739446,101815.94
61393,9.227,-5.363,-0.802,1.538045,0.170213,-1.692089,101818.30
61399,9.065,-5.333,-0.756,1.484834,0.132965,-1.647924,101818.05
61408,8.814,-5.289,-0.609,1.425237,0.110084,-1.595777,101817.73
61418,8.541,-5.216,-0.383,1.349678,0.092525,-1.506382,101814.19
61428,8.438,-5.156,-0.355,1.288485,0.081350,-1.406878,101814.19
61437,8.293,-5.117,-0.435,1.231017,0.073901,-1.308438,101820.16
61448,8.137,-5.252,-0.602,1.143219,0.080818,-1.211594,101818.09
61458,8.005,-5.465,-0.784,1.005403,0.102103,-1.119007,101816.05
61468,7.811,-5.403,-0.884,0.839917,0.130304,-1.023227,101818.61
61477,7.796,-5.320,-0.917,0.694651,0.150525,-0.922126,101818.61
61488,7.779,-5.435,-0.999,0.580247,0.145203,-0.815704,101817.16
61498,7.740,-5.530,-1.046,0.492449,0.112213,-0.699172,101818.09
61508,7.702,-5.494,-1.005,0.437642,0.057937,-0.563484,101818.19
61518,7.635,-5.587,-0.916,0.419018,-0.008576,-0.409704,101818.86
61528,7.511,-5.890,-0.856,0.402522,-0.082007,-0.241025,101818.86
61538,7.305,-6.223,-0.706,0.363678,-0.143732,-0.073411,101822.31
61548,7.040,-6.448,1.348,0.345055,-0.142136,0.056956,101817.75
61558,5.937,-8.055,2.139,0.249807,-0.065512,0.247451,101816.67
61568,4.728,-9.602,4.196,0.030046,0.130836,0.469341,101820.00
61578,6.064,-9.232,6.603,-0.347220,0.475644,0.629506,101820.00
61588,11.267,-3.953,5.712,-1.035770,0.753937,0.491690,101817.59
61598,13.533,-1.121,4.398,-1.592889,0.883240,0.280974,101818.63
61608,13.948,-2.647,3.496,-1.758907,0.890689,0.324607,101816.00
61618,13.491,-4.018,2.414,-1.609385,0.694341,0.584809,101816.00
61628,12.739,-3.222,2.060,-1.101220,0.366561,0.919506,101816.00
61638,11.777,-1.722,1.630,-0.328596,0.022286,1.179176,101817.48
61648,10.230,-1.153,0.622,0.389220,-0.225677,1.290387,101818.04
61658,8.529,-1.638,0.312,0.863862,-0.353383,1.309542,101816.91
61668,7.273,-3.450,1.454,1.014981,-0.330503,1.284533,101815.57
61678,7.303,-5.640,3.316,0.852687,-0.150650,1.254203,101815.57
61688,8.111,-6.539,2.907,0.394009,0.019626,1.156827,101817.51
61698,7.606,-6.528,2.527,-0.118413,0.165956,0.999323,101819.05
61708,7.812,-5.100,2.931,-0.543569,0.322396,0.862570,101815.66
61718,8.792,-2.466,2.754,-0.735660,0.376139,0.771580,101816.18
61728,9.604,-0.832,2.148,-0.490890,0.296323,0.774240,101816.18
61739,9.791,-1.309,1.680,0.011422,0.118066,0.848203,101819.59
61748,9.563,-2.901,1.744,0.422743,-0.082540,0.931212,101816.61
61758,8.893,-4.386,1.874,0.527036,-0.187365,0.959946,101818.31
61768,8.090,-4.806,2.329,0.347183,-0.145861,0.918442,101815.89
61778,7.799,-4.186,3.031,0.121568,-0.070833,0.837029,101815.89
61788,7.954,-3.577,2.903,0.055055,-0.063384,0.767855,101818.84
61798,8.493,-3.218,2.232,0.181697,-0.123512,0.744442,101818.99
61808,8.811,-3.310,1.706,0.351440,-0.206521,0.743910,101819.80
61818,8.850,-3.885,1.493,0.443495,-0.252815,0.751359,101813.70
61828,8.649,-4.426,1.317,0.395073,-0.228870,0.742846,101813.70
61838,8.486,-4.530,1.343,0.254064,-0.160760,0.713580,101817.38
61848,8.492,-4.457,1.610,0.112523,-0.092650,0.677396,101817.74
61858,8.680,-4.294,1.822,0.013550,-0.046888,0.650791,101818.15
61869,8.664,-4.155,1.880,-0.021569,-0.035714,0.620460,101816.62
61878,8.554,-4.243,1.902,-0.002413,-0.049017,0.589066,101816.62
61888,8.440,-4.322,1.846,0.013018,-0.062319,0.562460,101816.38
61898,8.299,-4.389,1.754,0.008761,-0.056466,0.533727,101819.20
61908,8.151,-4.499,1.722,-0.014120,-0.038907,0.502332,101817.92
61918,8.057,-4.311,1.698,-0.039661,-0.013897,0.472534,101817.72
61928,8.096,-4.462,1.462,-0.065202,0.017497,0.448589,101817.72
61938,8.147,-4.664,1.528,-0.098193,0.047827,0.426240,101817.98
61948,8.213,-4.411,1.786,-0.128523,0.074433,0.402295,101820.45
61958,8.328,-4.222,1.892,-0.150340,0.098910,0.385268,101814.84
61968,8.396,-4.457,1.886,-0.156193,0.104763,0.372497,101816.54
61978,8.318,-4.450,1.922,-0.162578,0.103167,0.360791,101816.54
61988,8.105,-4.386,1.931,-0.172156,0.103167,0.354938,101820.97
61993,7.995,-4.368,1.964,-0.182798,0.103167,0.354938,101819.42
62003,8.033,-4.340,2.088,-0.197165,0.099974,0.358130,101819.42
62013,8.149,-4.336,2.295,-0.206211,0.084011,0.370369,101817.22
62023,8.000,-4.262,2.342,-0.215789,0.063259,0.391653,101816.23
62033,8.046,-4.180,2.198,-0.233349,0.049956,0.426772,101816.23
62044,8.262,-4.221,2.001,-0.238138,0.038249,0.459763,101817.93
62053,8.327,-3.974,2.204,-0.246119,0.022286,0.490626,101813.87
62063,8.175,-4.347,1.947,-0.160982,-0.022411,0.520956,101817.93
62073,7.769,-5.218,1.780,-0.155661,-0.036246,0.528938,101817.93
62083,7.842,-5.000,2.098,-0.240798,0.003130,0.502332,101817.93
62093,7.863,-4.693,1.853,-0.202486,-0.004319,0.491158,101818.73
62103,7.331,-6.484,1.042,-0.264211,0.037185,0.452314,101816.57
62113,6.708,-8.768,-0.023,-0.700364,0.248610,0.343586,101816.73
62124,8.277,-4.446,1.864,-1.364082,0.557588,0.217121,101816.73
62134,11.769,2.654,5.052,-0.632963,0.207460,0.417727,101816.73
62143,8.353,-4.530,2.242,0.646761,-0.380521,0.611415,101817.94
62153,6.149,-8.899,0.395,0.320578,-0.241640,0.556075,101816.64
62163,7.957,-6.099,1.590,-0.330193,0.054745,0.456571,101817.00
62174,7.945,-5.221,2.175,-0.513771,0.145203,0.417727,101817.00
62183,8.220,-4.917,2.107,-0.557936,0.165956,0.420387,101815.59
62193,8.362,-5.200,1.967,-0.495147,0.112745,0.439543,101815.59
62203,7.879,-5.849,2.051,-0.466945,0.076561,0.442736,101817.86
62214,7.699,-5.683,2.185,-0.536651,0.096781,0.427305,101814.67
62223,7.910,-5.533,2.175,-0.581881,0.105827,0.418259,101816.63
62234,8.120,-5.489,2.153,-0.608131,0.095008,0.419145,101819.41
62243,8.514,-5.192,2.119,-0.631899,0.068048,0.425176,101819.41
62254,8.520,-5.265,1.929,-0.604229,0.026543,0.452314,101817.81
62264,8.325,-5.352,1.493,-0.577092,-0.008576,0.480516,101817.61
62273,8.228,-5.601,1.342,-0.572835,-0.043163,0.503396,101819.77
62283,8.129,-5.752,1.234,-0.567514,-0.074026,0.516167,101817.99
62294,7.943,-5.860,1.057,-0.556871,-0.097439,0.525213,101817.32
62304,7.787,-5.783,1.039,-0.567514,-0.125108,0.532662,101816.24
62313,7.750,-5.282,1.385,-0.569642,-0.168741,0.547029,101816.24
62323,7.643,-5.115,1.602,-0.510578,-0.233127,0.578956,101817.01
62333,7.311,-5.138,1.862,-0.444064,-0.308686,0.614607,101817.01
62344,7.101,-5.342,2.141,-0.383936,-0.369347,0.646534,101818.53
62353,6.877,-5.703,2.066,-0.334450,-0.406062,0.671543,101816.78
62363,6.793,-6.014,1.722,-0.320083,-0.423622,0.678460,101817.45
62373,6.774,-6.123,1.389,-0.321679,-0.436925,0.671543,101819.55
62384,6.596,-6.188,1.078,-0.325404,-0.441182,0.662497,101819.55
62394,6.487,-6.212,0.690,-0.336046,-0.438521,0.650259,101818.11
62403,6.625,-6.333,0.598,-0.343495,-0.441182,0.635892,101817.38
62413,6.822,-6.352,0.592,-0.344560,-0.456081,0.622057,101817.42
62424,6.872,-6.525,0.674,-0.340835,-0.462998,0.606093,101817.42
62433,6.925,-6.743,0.571,-0.352009,-0.457677,0.589066,101817.42
62443,7.114,-6.595,0.429,-0.382339,-0.450227,0.572038,101820.16
62453,7.275,-6.423,0.422,-0.402560,-0.460870,0.564057,101819.39
62464,7.420,-6.338,0.455,-0.392982,-0.490668,0.566717,101819.39
62474,7.374,-6.424,0.540,-0.372762,-0.525787,0.577359,101815.84
62483,7.164,-6.551,0.574,-0.366908,-0.553457,0.588002,101815.84
62493,6.890,-6.600,0.577,-0.374358,-0.565163,0.597048,101821.59
62503,6.817,-6.800,0.691,-0.390853,-0.577934,0.597048,101816.51
62514,7.098,-6.881,1.182,-0.410541,-0.608264,0.593323,101816.27
62523,7.508,-6.913,1.845,-0.414798,-0.646576,0.597580,101816.27
62533,8.039,-7.202,2.274,-0.417459,-0.672117,0.610350,101817.25
62543,8.485,-7.338,2.356,-0.444596,-0.677970,0.626314,101816.44
62554,8.772,-7.336,2.163,-0.499936,-0.662539,0.651855,101816.44
62563,8.845,-7.196,1.606,-0.569642,-0.634337,0.682717,101816.48
62573,8.912,-6.998,1.068,-0.633495,-0.623163,0.718901,101815.41
62583,8.756,-6.842,0.762,-0.668615,-0.640723,0.763066,101815.41
62594,8.509,-6.883,0.680,-0.697881,-0.658814,0.805102,101818.34
62604,8.333,-7.152,0.969,-0.723422,-0.675842,0.835965,101814.95
62613,8.117,-7.488,1.469,-0.740449,-0.691805,0.855653,101817.63
62623,7.778,-7.762,2.005,-0.779825,-0.677438,0.863635,101816.23
62633,7.456,-8.048,2.456,-0.849000,-0.629016,0.868424,101819.77
62644,7.232,-8.443,2.861,-0.952229,-0.548136,0.895029,101817.92
62654,7.216,-8.277,3.181,-1.071954,-0.450227,0.939726,101816.17
62663,7.406,-7.687,3.393,-1.196467,-0.339549,0.988680,101815.45
62673,7.548,-7.247,3.531,-1.313532,-0.224081,1.046680,101815.45
62684,7.613,-7.063,3.353,-1.420486,-0.099567,1.112130,101815.45
62693,7.343,-7.144,2.919,-1.576926,0.055277,1.169065,101820.70
62703,7.352,-7.233,2.325,-1.854155,0.243112,1.180240,101816.13
62713,7.593,-6.982,1.971,-2.153201,0.409662,1.154166,101817.88
62724,7.927,-6.621,1.639,-2.330393,0.515020,1.135543,101816.08
62734,8.123,-6.294,1.367,-2.377219,0.546946,1.130754,101816.08
62743,8.371,-6.139,1.076,-2.293678,0.509166,1.127029,101816.27
62753,8.505,-6.563,0.644,-2.090944,0.410726,1.125965,101815.08
62764,8.420,-7.217,-0.322,-1.820632,0.265992,1.137671,101815.55
62774,8.544,-7.840,-1.979,-1.586504,0.124983,1.137671,101815.55
62784,10.169,-5.261,-3.961,-1.349183,-0.141072,1.100423,101820.22
62793,9.489,-1.342,-1.408,-0.330193,-0.767365,1.193542,101820.22
62803,8.711,0.575,1.036,1.305513,-1.451658,1.351047,101817.80
62814,6.921,0.438,1.020,2.617695,-1.966740,1.389359,101816.31
62823,5.378,-0.675,0.957,3.461621,-2.201401,1.278680,101815.75
62833,4.328,-2.291,0.422,3.820795,-2.206722,1.032313,101815.75
62843,3.442,-4.743,-0.857,3.653181,-1.976850,0.734864,101814.64
62854,2.851,-6.725,-2.070,2.880025,-1.555951,0.421451,101817.58
62864,3.300,-7.172,-1.951,1.848797,-1.039273,0.133580,101816.86
62873,4.356,-6.645,-1.531,0.946339,-0.592301,-0.111723,101815.76
62883,4.795,-5.629,-1.528,0.319513,-0.310815,-0.333080,101817.76
62894,4.817,-4.638,-1.575,-0.016780,-0.130429,-0.531557,101816.37
62904,4.921,-3.868,-1.521,-0.105642,-0.008044,-0.719392,101815.40
62913,5.131,-3.289,-1.434,-0.003477,0.065919,-0.874768,101815.40
62923,5.629,-3.063,-1.469,0.272688,0.074433,-0.988107,101814.16
62934,6.095,-3.382,-1.932,0.675495,0.004726,-1.054089,101814.16
62944,6.366,-4.334,-2.510,1.086816,-0.103824,-1.087612,101819.11
62953,6.768,-5.127,-3.192,1.342760,-0.190026,-1.138162,101816.91
62963,7.440,-5.547,-3.486,1.425237,-0.265053,-1.230749,101816.81
62973,7.637,-5.825,-3.155,1.446522,-0.351787,-1.338768,101815.36
62984,7.360,-6.016,-2.600,1.451843,-0.432668,-1.437740,101815.36
62994,6.885,-6.229,-2.041,1.462485,-0.490136,-1.528731,101816.26
63003,6.496,-6.421,-1.576,1.453439,-0.506631,-1.620786,101816.77
63013,6.687,-6.446,-1.382,1.412467,-0.494925,-1.716566,101815.54
63024,7.085,-6.697,-1.141,1.366705,-0.484282,-1.819795,101815.54
63034,7.673,-6.869,-1.230,1.330522,-0.494925,-1.920364,101815.54
63043,8.122,-7.110,-1.367,1.286889,-0.524723,-2.016144,101817.73
63053,8.343,-7.380,-1.400,1.245916,-0.567824,-2.094896,101818.56
63064,8.309,-7.402,-1.308,1.201751,-0.610392,-2.161409,101814.09
63074,8.051,-7.252,-0.882,1.173017,-0.636466,-2.220474,101818.25
63083,7.770,-7.013,-0.228,1.180467,-0.642851,-2.272620,101818.25
63093,7.635,-7.022,0.304,1.206008,-0.624759,-2.324235,101817.88
63104,7.588,-7.387,0.714,1.203880,-0.576337,-2.377978,101814.48
63114,7.503,-7.688,1.061,1.153861,-0.490668,-2.433318,101815.00
63124,7.459,-7.865,1.282,1.070852,-0.378925,-2.480675,101815.00
63133,7.343,-8.013,1.300,0.942614,-0.238448,-2.529629,101818.57
63143,7.332,-7.990,1.415,0.742008,-0.064448,-2.588694,101814.71
63154,7.503,-7.741,1.589,0.499898,0.131369,-2.649886,101814.71
63164,7.797,-7.313,1.655,0.270027,0.318139,-2.705758,101814.10
63173,7.957,-6.989,1.725,0.091770,0.487882,-2.749923,101814.51
63183,8.055,-6.688,1.785,-0.037532,0.644854,-2.783446,101814.51
63194,8.221,-6.220,1.857,-0.108303,0.782139,-2.809519,101818.09
63204,8.488,-5.878,1.814,-0.099257,0.890157,-2.826547,101817.37
63214,8.445,-6.087,1.693,-0.015716,0.969441,-2.828675,101816.95
63223,8.154,-6.660,1.297,0.102945,1.014671,-2.810051,101816.13
63234,7.985,-7.414,0.799,0.199789,1.041808,-2.773336,101815.42
63244,8.135,-7.980,0.525,0.253000,1.066285,-2.732363,101819.69
63254,8.700,-7.906,0.590,0.271091,1.087038,-2.687134,101818.30
63263,9.203,-7.365,0.764,0.298229,1.075331,-2.634455,101818.30
63273,9.072,-7.028,0.906,0.371128,1.027442,-2.557831,101811.72
63284,8.591,-7.086,1.023,0.459458,0.975295,-2.449281,101811.72
63294,8.101,-7.268,1.100,0.512669,0.946029,-2.319446,101818.30
63303,7.696,-7.353,1.097,0.520651,0.935919,-2.193868,101817.94
63313,7.442,-7.500,0.889,0.471697,0.934854,-2.087446,101817.38
63324,7.319,-7.602,0.903,0.382834,0.921552,-1.987410,101814.55
63334,7.320,-7.942,0.971,0.329091,0.863019,-1.868217,101814.55
63344,7.144,-8.478,0.899,0.267367,0.806616,-1.728272,101822.02
63353,6.823,-8.544,0.923,0.158284,0.800231,-1.581942,101817.13
63364,6.635,-7.980,1.103,0.028981,0.834818,-1.444126,101817.19
63374,6.731,-7.045,1.312,-0.057220,0.858763,-1.312694,101817.19
63383,6.860,-6.279,1.384,-0.047110,0.844396,-1.184456,101817.19
63393,6.795,-6.028,1.196,0.030046,0.802359,-1.051961,101821.14
63404,6.641,-5.962,0.857,0.092302,0.760322,-0.929043,101818.33
63414,6.530,-5.860,0.659,0.099220,0.735313,-0.830071,101819.30
63424,6.561,-5.753,0.528,0.064101,0.719350,-0.744933,101817.91
63433,6.685,-5.813,0.412,0.016211,0.694341,-0.660860,101817.91
63443,6.781,-5.971,0.276,-0.017844,0.653368,-0.556566,101820.51
63454,6.955,-6.044,0.209,-0.038597,0.609203,-0.434181,101821.34
63464,7.326,-5.873,0.069,-0.060945,0.561313,-0.319778,101819.99
63474,7.763,-5.543,-0.128,-0.079569,0.492139,-0.212291,101818.05
63483,8.067,-5.290,-0.374,-0.048707,0.375607,-0.086713,101818.82
63494,8.198,-5.228,-0.656,0.057183,0.215442,0.079837,101816.46
63504,8.112,-5.324,-0.864,0.201385,0.031864,0.276717,101816.46
63513,7.943,-5.308,-0.899,0.332816,-0.145861,0.482112,101818.82
63523,7.921,-5.366,-0.793,0.454669,-0.309218,0.680057,101817.65
63534,7.985,-5.006,0.796,0.591953,-0.449163,0.856717,101817.65
63544,9.689,-1.525,4.068,0.822889,-0.458209,0.873213,101819.57
63554,10.975,1.646,6.710,0.805330,-0.332631,0.730607,101818.23
63563,13.187,2.394,7.172,0.733495,-0.126173,0.582148,101817.51
63574,14.639,-0.023,4.467,0.578651,-0.130429,0.576295,101816.32
63584,14.571,-1.991,2.648,0.425935,-0.254943,0.671543,101816.32
63594,14.299,-2.958,1.940,0.289715,-0.324649,0.830112,101820.07
63604,13.285,-3.473,0.438,0.234376,-0.385842,1.046148,101818.84
63613,10.917,-4.116,-0.044,0.384963,-0.471512,1.307414,101818.18
63624,10.268,-4.280,0.163,0.647293,-0.510888,1.531964,101818.18
63634,10.449,-3.360,0.273,0.842045,-0.555585,1.636790,101818.18
63644,9.035,-3.061,1.073,0.957513,-0.576870,1.634662,101817.79
63653,7.090,-4.112,1.984,0.880889,-0.498649,1.542607,101819.54
63665,6.178,-5.395,2.703,0.467085,-0.317555,1.367010,101818.82
63674,6.758,-5.500,2.918,-0.030615,-0.126173,1.198331,101818.82
63684,8.170,-4.652,2.557,-0.457899,0.046231,1.057322,101818.82
63693,9.193,-3.397,1.935,-0.605293,0.096249,0.990809,101819.25
63704,9.503,-2.560,1.561,-0.493550,0.054745,0.987084,101821.14
63714,9.483,-2.350,1.583,-0.246119,-0.019751,1.026460,101818.17
63724,8.990,-2.518,2.459,0.034302,-0.089989,1.081800,101818.17
63734,8.995,-3.339,3.496,0.326963,-0.135751,1.150974,101820.16
63744,9.199,-3.357,3.097,0.473293,-0.253879,1.177047,101820.16
63754,7.851,-3.797,3.396,0.476486,-0.332099,1.150442,101818.01
63764,7.692,-4.358,3.363,0.328027,-0.316668,1.104148,101818.88
63773,8.154,-4.323,3.118,0.117312,-0.290062,1.047212,101817.29
63783,8.403,-4.228,2.460,-0.010395,-0.268778,1.002515,101817.29
63794,8.621,-3.883,2.155,-0.030083,-0.277292,0.987616,101820.36
63804,8.663,-3.828,2.037,0.007165,-0.304961,0.982295,101816.34
63814,8.532,-4.312,1.737,0.042816,-0.323585,0.983359,101818.81
63823,8.462,-4.811,1.489,0.012486,-0.314007,0.980699,101818.09
63834,8.289,-4.970,1.552,-0.082762,-0.281016,0.955157,101819.49
63844,8.221,-4.781,1.780,-0.183863,-0.240044,0.913121,101816.35
63854,8.153,-4.580,1.981,-0.264211,-0.215035,0.874809,101817.38
63863,8.134,-4.431,2.027,-0.298266,-0.201200,0.839690,101817.38
63874,8.145,-4.507,1.776,-0.308908,-0.191090,0.800313,101817.07
63884,8.054,-4.644,1.564,-0.282303,-0.192686,0.765194,101817.07
63894,8.051,-4.659,1.439,-0.240798,-0.192686,0.734332,101817.90
63903,8.084,-4.513,1.556,-0.216853,-0.186833,0.707726,101817.63
63913,7.967,-4.652,1.390,-0.199294,-0.171934,0.688038,101816.82
63924,8.003,-4.868,1.255,-0.213661,-0.144264,0.669947,101817.59
63934,8.099,-4.721,1.506,-0.271661,-0.104888,0.649726,101817.59
63944,8.012,-4.756,1.558,-0.320083,-0.069237,0.634295,101818.96
63953,7.979,-4.738,1.644,-0.351477,-0.053806,0.625249,101817.80
63964,7.946,-4.745,1.822,-0.353073,-0.055934,0.618864,101816.76
63974,7.874,-4.834,1.695,-0.341899,-0.065512,0.614607,101816.76
63984,7.888,-4.827,1.651,-0.334982,-0.074026,0.609286,101816.76
63993,7.961,-4.790,1.680,-0.319018,-0.085732,0.606626,101819.59
64004,7.994,-4.773,1.656,-0.300395,-0.101163,0.617268,101817.43
64014,7.991,-4.750,1.603,-0.279110,-0.118191,0.628442,101818.57
64024,7.977,-4.727,1.571,-0.256762,-0.137879,0.647066,101815.70
64033,7.951,-4.836,1.540,-0.238670,-0.155971,0.668350,101815.70
64044,7.885,-5.026,1.457,-0.229092,-0.170338,0.684314,101819.57
64054,7.864,-5.090,1.533,-0.228560,-0.182044,0.697084,101818.34
64064,7.768,-5.363,1.513,-0.223239,-0.191622,0.701873,101817.57
64074,7.584,-5.551,1.319,-0.225367,-0.201200,0.698681,101817.57
64084,7.608,-5.437,1.269,-0.231752,-0.202796,0.699745,101819.52
64094,7.706,-5.377,1.365,-0.238138,-0.204393,0.702405,101817.21
64104,7.692,-5.431,1.370,-0.241863,-0.212374,0.713048,101817.21
64114,7.673,-5.411,1.436,-0.250908,-0.212906,0.723158,101815.93
64123,7.650,-5.500,1.451,-0.267404,-0.213439,0.732203,101816.13
64134,7.606,-5.686,1.272,-0.290284,-0.209714,0.746570,101816.13
64144,7.742,-5.534,1.261,-0.324872,-0.200668,0.767323,101820.47
64154,7.751,-5.739,1.288,-0.354670,-0.202796,0.789139,101816.63
64164,7.769,-5.846,1.200,-0.379679,-0.204925,0.815213,101818.78
64174,7.793,-6.026,1.273,-0.408945,-0.213971,0.840754,101815.80
64184,7.742,-6.407,1.236,-0.454706,-0.213971,0.859910,101817.56
64194,7.801,-6.630,1.096,-0.533459,-0.197475,0.866827,101817.72
64204,7.960,-6.564,1.115,-0.604229,-0.191622,0.873213,101816.53
64214,8.255,-6.608,1.106,-0.640945,-0.211842,0.887047,101814.83
64224,8.815,-6.602,1.008,-0.652119,-0.261861,0.909928,101814.83
64234,9.001,-6.619,1.106,-0.650523,-0.315071,0.946112,101814.83
64244,8.847,-6.833,1.111,-0.657972,-0.351787,0.992937,101819.89
64253,8.737,-7.150,1.102,-0.686174,-0.391163,1.041359,101817.58
64264,8.843,-7.186,1.298,-0.738321,-0.421493,1.082332,101818.34
64274,9.121,-7.204,1.240,-0.789403,-0.441182,1.122772,101817.63
64284,9.411,-7.396,0.789,-0.854321,-0.455016,1.164276,101817.63
64294,9.695,-7.481,0.231,-0.934669,-0.467255,1.211634,101820.40
64304,9.968,-7.374,-0.163,-1.026724,-0.484815,1.268038,101819.16
64314,10.463,-7.233,-0.099,-1.121440,-0.517805,1.335084,101818.40
64324,11.176,-6.991,0.473,-1.201256,-0.581659,1.409047,101818.40
64334,11.791,-6.895,1.498,-1.241697,-0.672117,1.484607,101817.55
64344,12.169,-6.790,2.270,-1.227330,-0.782264,1.550588,101817.55
64354,12.118,-7.387,2.298,-1.184229,-0.861548,1.607524,101814.79
64364,11.965,-7.638,2.124,-1.275752,-0.872723,1.639983,101814.93
64374,12.460,-7.228,2.355,-1.490724,-0.828557,1.653285,101814.27
64379,13.075,-6.743,2.725,-1.659935,-0.783328,1.660735,101814.27
64389,13.691,-6.205,3.151,-1.812118,-0.732778,1.684680,101818.08
64399,14.197,-5.776,3.359,-1.975476,-0.673714,1.746405,101817.77
64409,13.910,-6.242,3.139,-2.035073,-0.666796,1.854955,101819.94
64419,13.484,-7.383,2.690,-1.949935,-0.761512,2.024698,101814.38
64429,13.608,-7.173,2.816,-1.791366,-0.952539,2.155597,101814.38
64439,13.075,-5.852,3.424,-1.672706,-1.107383,2.141762,101818.45
64449,11.906,-4.918,3.878,-1.469972,-1.196245,2.100790,101817.48
64459,10.315,-4.387,3.661,-1.117183,-1.301071,2.046515,101816.56
64468,8.465,-4.233,3.193,-0.703734,-1.404832,1.929450,101817.28
64479,6.582,-4.635,3.205,-0.267404,-1.485713,1.805469,101817.28
64489,5.418,-5.605,2.841,0.127422,-1.524025,1.707561,101817.39
64499,5.092,-6.256,1.973,0.271623,-1.481988,1.531964,101818.78
64508,4.566,-6.973,0.766,0.201385,-1.383548,1.281873,101816.31
64519,3.667,-6.157,-1.150,-0.167367,-1.121750,0.933873,101815.59
64529,2.873,-5.251,-0.677,-0.594651,-0.827493,0.585341,101815.59
64539,4.086,-2.828,1.831,-0.356798,-0.766833,0.371965,101817.12
64549,5.583,-0.341,2.496,0.100284,-0.878576,0.058020,101814.65
64559,5.574,0.670,2.148,0.595678,-1.092484,-0.238897,101813.93
64569,5.036,0.778,1.740,1.160247,-1.336722,-0.506016,101816.65
64579,4.420,0.162,1.665,1.657237,-1.498484,-0.791759,101816.65
64589,3.950,-0.922,1.758,1.973843,-1.542117,-1.076970,101817.80
64599,3.762,-1.823,1.919,2.076007,-1.510722,-1.353667,101815.73
64609,3.499,-2.776,2.059,2.033971,-1.445273,-1.616529,101814.30
64619,3.489,-3.626,2.072,1.900944,-1.360667,-1.875134,101814.92
64629,3.721,-4.263,1.948,1.727476,-1.280851,-2.136400,101814.92
64640,3.859,-4.665,1.850,1.586999,-1.206355,-2.398731,101817.59
64649,4.086,-4.773,1.974,1.489623,-1.123346,-2.651483,101813.99
64659,4.426,-4.856,2.210,1.434815,-1.037144,-2.890932,101814.66
64669,4.796,-4.840,2.454,1.423109,-0.957860,-3.109097,101815.79
64678,5.263,-4.957,2.603,1.427898,-0.881236,-3.307042,101815.79
64689,5.652,-5.465,2.734,1.459292,-0.816319,-3.490088,101814.19
64699,5.919,-6.243,2.948,1.530063,-0.757787,-3.649188,101811.25
64709,6.204,-6.909,3.150,1.621586,-0.700319,-3.776363,101812.89
64719,6.532,-7.287,3.322,1.789733,-0.669457,-3.867353,101811.56
64729,6.928,-7.512,3.431,2.061108,-0.687016,-3.903537,101811.56
64739,7.428,-7.855,3.624,2.419218,-0.740227,-3.898748,101815.02
64749,8.034,-8.570,3.961,2.768282,-0.810998,-3.892363,101811.36
64759,8.324,-9.548,4.179,3.006667,-0.873255,-3.907794,101813.42
64769,8.236,-10.301,4.351,3.106704,-0.882833,-3.931206,101810.91
64779,8.033,-10.694,4.646,3.097126,-0.816319,-3.925885,101810.91
64789,8.024,-10.827,4.948,3.034337,-0.688080,-3.894491,101816.45
64799,8.218,-10.648,5.245,2.957713,-0.535365,-3.842344,101812.90
64809,8.505,-10.538,5.386,2.897585,-0.382649,-3.773170,101814.49
64819,8.673,-10.895,5.223,2.847567,-0.242172,-3.696014,101816.34
64829,8.522,-11.286,4.767,2.758704,-0.094778,-3.615133,101816.34
64839,8.446,-11.383,4.234,2.634191,0.072304,-3.516161,101814.92
64849,8.597,-11.187,3.788,2.496374,0.239387,-3.398033,101817.50
64859,8.961,-10.956,3.522,2.348448,0.390506,-3.263409,101816.52
64869,9.263,-10.697,3.372,2.204778,0.517680,-3.109097,101815.13
64879,9.311,-10.655,3.116,2.082925,0.619313,-2.952657,101815.13
64889,9.151,-10.822,2.283,1.946173,0.716157,-2.814308,101820.76
64899,8.594,-11.661,0.941,1.746632,0.822579,-2.713207,101819.27
64909,7.874,-11.661,0.114,1.393311,0.910909,-2.649886,101818.29
64919,7.593,-10.899,0.175,0.997953,1.000304,-2.517923,101816.24
64929,7.641,-10.377,0.401,0.703697,1.047130,-2.305079,101816.24
64940,7.450,-10.140,0.182,0.489788,1.061496,-2.051263,101818.80
64949,7.194,-9.968,-0.057,0.358357,1.051386,-1.800639,101819.22
64959,7.107,-10.214,-0.288,0.262045,1.022120,-1.544694,101818.19
64969,7.007,-10.567,-0.743,0.141257,0.984873,-1.271722,101815.16
64974,6.853,-10.572,-0.957,0.024724,0.940708,-1.054089,101815.16
64984,6.636,-10.278,-1.026,-0.079037,0.862487,-0.824750,101815.16
64994,6.586,-9.706,-0.931,-0.164174,0.724139,-0.527300,101821.54
65004,6.502,-9.080,-0.820,-0.182798,0.575148,-0.255924,101818.80
65014,6.283,-8.365,-0.684,-0.118945,0.430414,-0.014879,101818.09
65025,6.052,-7.750,-0.650,0.052394,0.275038,0.201158,101817.80
65034,5.875,-7.289,-0.902,0.317917,0.097846,0.401231,101820.06
65044,5.811,-7.172,-1.396,0.633990,-0.100099,0.583745,101818.73
65054,5.644,-7.231,-1.886,0.935164,-0.303365,0.747635,101818.73
65064,6.105,-7.164,-1.351,1.186852,-0.478429,0.884387,101821.55
65074,6.173,-7.435,0.443,1.459292,-0.566759,0.959946,101820.73
65084,6.344,-8.042,4.111,1.568375,-0.553989,1.148845,101820.73
65095,13.407,-0.359,6.541,1.373445,-0.305848,0.928552,101817.99
65104,17.468,2.507,3.894,0.833531,-0.088393,0.588002,101817.99
65115,18.953,-3.351,-0.663,0.345055,0.043570,0.629506,101818.96
65124,15.465,-9.146,-2.955,-0.002945,-0.004852,1.079139,101817.68
65134,11.408,-8.527,-1.838,-0.140230,0.060598,1.479818,101817.68
65144,10.611,-5.221,-1.094,-0.272725,0.204268,1.613909,101819.23
65155,10.116,-2.479,-0.702,-0.266340,0.203203,1.612845,101817.37
65164,8.437,-1.607,2.125,-0.060413,0.128708,1.608056,101817.93
65174,7.356,-2.397,5.396,0.112523,0.111681,1.615506,101817.93
65184,7.067,-4.148,7.315,0.120504,0.095717,1.606992,101817.93
65195,7.167,-5.723,7.598,0.142321,0.025479,1.567616,101820.33
65204,7.572,-6.147,4.980,0.110394,-0.082007,1.454276,101820.64
65214,7.674,-5.454,2.543,0.004504,-0.130429,1.298368,101819.47
65224,8.565,-4.519,1.169,-0.088083,-0.107017,1.200992,101819.05
65234,9.384,-4.053,0.152,-0.096064,-0.086264,1.172790,101819.05
65245,9.545,-3.311,-0.267,0.008761,-0.068173,1.175983,101820.61
65254,9.435,-2.898,0.373,0.249807,-0.082007,1.197267,101817.89
65264,8.985,-3.368,1.488,0.487128,-0.129897,1.220680,101817.33
65274,8.221,-4.287,2.277,0.520119,-0.145328,1.195671,101817.33
65285,7.395,-5.577,2.709,0.338137,-0.082540,1.099891,101820.34
65294,7.477,-5.981,2.761,-0.017844,0.035589,0.970589,101820.34
65304,7.657,-5.897,2.709,-0.358927,0.160103,0.825855,101816.19
65314,8.173,-5.093,2.357,-0.567514,0.240451,0.710387,101820.20
65325,8.640,-4.040,2.186,-0.591459,0.237791,0.663029,101818.97
65334,8.811,-3.706,2.099,-0.475459,0.171809,0.668882,101818.97
65344,8.722,-3.895,2.084,-0.354138,0.099442,0.686442,101821.25
65354,8.498,-3.983,2.375,-0.304651,0.063259,0.694424,101819.77
65364,8.267,-3.960,2.651,-0.320615,0.064855,0.685378,101819.77
65375,8.263,-4.123,2.610,-0.363716,0.078690,0.660369,101813.03
65384,8.264,-4.301,2.421,-0.397771,0.081350,0.633231,101818.29
65394,8.131,-4.402,2.214,-0.393514,0.074433,0.616203,101818.24
65404,7.951,-4.506,2.057,-0.373826,0.066451,0.599176,101818.54
65414,7.862,-4.662,1.966,-0.364248,0.065919,0.583745,101818.54
65424,7.876,-4.596,1.997,-0.374890,0.068580,0.569910,101817.10
65434,7.799,-4.500,2.274,-0.380743,0.073901,0.567249,101817.10
65444,8.002,-4.525,2.515,-0.393514,0.070176,0.565653,101819.15
65455,8.143,-4.559,2.579,-0.427569,0.068048,0.565121,101815.60
65464,8.110,-4.326,2.675,-0.455771,0.076029,0.562460,101815.90
65474,7.769,-4.449,2.614,-0.457367,0.069644,0.564589,101817.34
65484,7.746,-4.528,2.615,-0.473330,0.071240,0.558736,101817.34
65495,7.963,-4.077,2.873,-0.447257,0.046231,0.572571,101817.41
65505,7.641,-4.046,2.790,-0.313165,-0.018686,0.594919,101816.92
65514,7.442,-4.402,2.653,-0.218450,-0.068705,0.622589,101818.05
65524,7.627,-4.365,2.689,-0.170560,-0.094778,0.639616,101818.05
65534,7.565,-4.590,2.675,-0.113092,-0.121384,0.658772,101818.05
65545,7.502,-4.956,2.434,-0.113624,-0.133090,0.677928,101817.26
65554,7.809,-4.949,2.302,-0.138633,-0.137347,0.690167,101818.27
65564,8.032,-4.923,2.052,-0.140762,-0.143732,0.701873,101816.63
65574,7.946,-5.241,1.691,-0.136505,-0.145328,0.718901,101817.91
65585,7.891,-5.624,1.224,-0.148743,-0.146393,0.732736,101817.91
65595,7.997,-5.729,1.057,-0.198230,-0.124044,0.736460,101817.95
65604,7.975,-5.713,1.189,-0.257826,-0.092118,0.736460,101817.59
65614,7.959,-5.695,1.468,-0.297734,-0.075090,0.738057,101816.49
65625,7.904,-5.622,1.618,-0.307312,-0.076686,0.740717,101816.49
65635,7.777,-5.494,1.810,-0.304651,-0.089989,0.747102,101818.34
65644,7.665,-5.221,2.099,-0.290284,-0.107017,0.764130,101819.27
65654,7.539,-4.830,2.464,-0.252505,-0.135751,0.790735,101819.27
65665,7.405,-4.636,2.737,-0.176945,-0.183640,0.833836,101815.27
65675,7.132,-4.889,2.770,-0.093936,-0.235787,0.880130,101819.17
65684,6.736,-5.746,2.209,-0.040193,-0.276227,0.920570,101819.17
65694,6.489,-7.490,1.196,-0.088083,-0.274631,0.931212,101819.25
65704,6.853,-7.821,0.535,-0.319551,-0.191622,0.897690,101817.19
65715,7.328,-7.385,0.908,-0.576560,-0.071365,0.846607,101817.41
65725,7.772,-6.994,1.103,-0.718633,-0.005384,0.818405,101817.86
65734,8.149,-6.844,1.049,-0.776101,0.008451,0.807231,101817.05
65744,8.297,-6.929,1.047,-0.826651,0.004726,0.802442,101818.80
65755,8.341,-7.008,1.266,-0.899550,0.004194,0.801910,101818.29
65765,8.546,-6.610,1.759,-0.972981,-0.019218,0.812552,101816.96
65774,8.647,-6.372,2.107,-0.999055,-0.071897,0.840754,101816.96
65784,8.669,-6.241,2.181,-0.971917,-0.146925,0.892901,101816.96
65795,8.635,-6.357,2.172,-0.944780,-0.225145,0.957286,101818.36
65805,8.628,-6.505,2.119,-0.945844,-0.296448,1.028056,101818.05
65814,8.605,-6.800,1.929,-0.957018,-0.354448,1.099359,101817.95
65824,8.720,-7.117,1.607,-1.005440,-0.403402,1.163744,101814.19
65835,8.930,-7.205,1.354,-1.083128,-0.434264,1.218020,101814.19
65845,9.160,-7.235,0.945,-1.158688,-0.451292,1.273359,101816.73
65855,9.449,-7.093,0.713,-1.228926,-0.472044,1.327634,101816.15
65864,9.823,-6.974,0.501,-1.290119,-0.503971,1.385102,101813.23
65874,10.693,-6.946,0.566,-1.333752,-0.553989,1.441506,101813.23
65885,11.742,-7.063,0.768,-1.351843,-0.641255,1.495249,101818.59
65894,12.604,-7.155,1.051,-1.350779,-0.726392,1.529836,101818.59
65904,13.016,-7.306,1.090,-1.386963,-0.766301,1.558038,101819.37
65914,13.169,-6.618,1.335,-1.501898,-0.749805,1.597946,101815.15
65925,13.290,-5.269,1.861,-1.605128,-0.732778,1.668717,101814.07
65934,13.602,-4.147,2.591,-1.596614,-0.783860,1.785249,101814.07
65944,14.123,-3.888,3.511,-1.485935,-0.932851,1.978937,101816.64
65954,14.548,-4.856,4.357,-1.247018,-1.188796,2.235414,101814.95
65965,14.709,-6.423,4.940,-0.820266,-1.507529,2.494551,101816.39
65975,14.025,-8.227,4.658,-0.372762,-1.740594,2.682386,101814.71
65985,12.149,-9.735,3.784,-0.134908,-1.795401,2.755285,101816.35
65994,10.454,-10.448,3.466,-0.203551,-1.660245,2.685046,101818.76
66004,9.348,-9.604,3.546,-0.484505,-1.413346,2.505725,101811.98
66015,8.689,-8.072,3.419,-0.715972,-1.159530,2.298734,101811.98
66024,7.960,-7.131,2.842,-0.835165,-1.001493,2.115689,101814.29
66034,6.938,-6.584,2.628,-0.806963,-0.956796,1.989047,101814.29
66044,5.924,-5.739,3.253,-0.661165,-0.925934,1.845909,101816.02
66055,5.955,-4.277,3.165,-0.454174,-0.914759,1.576129,101815.50
66065,4.145,-4.523,1.130,-0.353606,-0.894539,1.245157,101816.06
66074,1.774,-6.345,0.426,-0.495147,-0.656686,0.996130,101817.56
66084,3.093,-4.731,1.372,-0.468541,-0.478961,0.756148,101817.56
66095,4.586,-2.284,1.992,-0.187587,-0.483750,0.432626,101815.04
66105,4.674,-0.706,2.400,0.164137,-0.508759,0.102185,101815.77
66115,4.351,0.041,1.924,0.480210,-0.516741,-0.253796,101816.09
66124,4.168,0.292,1.595,0.756375,-0.532172,-0.570933,101816.09
66135,3.852,-0.018,1.392,1.043715,-0.519402,-0.880089,101816.09
66145,3.649,-0.846,1.051,1.207072,-0.443842,-1.179667,101817.03
66154,3.599,-1.530,0.634,1.243788,-0.343273,-1.465942,101816.11
66164,3.725,-1.913,0.193,1.253366,-0.262925,-1.746896,101812.31
66174,3.931,-2.333,-0.202,1.270393,-0.192686,-2.025722,101813.64
66185,4.182,-2.759,-0.216,1.290614,-0.105420,-2.302418,101813.64
66195,4.467,-3.008,-0.001,1.329990,-0.009108,-2.576455,101814.30
66204,4.837,-3.114,0.215,1.366173,0.084543,-2.833464,101811.48
66214,5.057,-3.289,0.270,1.412467,0.161699,-3.081427,101811.68
66225,5.084,-3.700,0.316,1.445990,0.233534,-3.305978,101811.68
66235,5.246,-4.221,0.455,1.453439,0.314414,-3.518821,101813.29
66244,5.677,-4.851,0.715,1.432155,0.420304,-3.736454,101813.29
66254,6.074,-5.519,0.716,1.376283,0.543222,-3.950362,101814.99
66265,6.406,-6.172,0.507,1.340100,0.671992,-4.145647,101812.98
66275,6.772,-6.784,0.192,1.336907,0.809276,-4.297830,101812.48
66284,7.167,-7.535,-0.170,1.343292,0.943900,-4.384032,101812.48
66294,7.617,-8.273,-0.311,1.325733,1.056708,-4.432986,101812.55
66305,8.050,-8.842,-0.186,1.303916,1.135992,-4.490454,101815.02
66315,8.482,-9.042,-0.097,1.294870,1.186010,-4.572399,101814.24
66325,9.044,-9.071,0.074,1.299659,1.226450,-4.641573,101811.43
66334,9.649,-9.566,0.137,1.364577,1.244010,-4.663390,101813.99
66344,9.902,-10.245,-0.039,1.423109,1.235496,-4.649555,101816.46
66355,9.947,-10.490,-0.287,1.424705,1.221129,-4.612307,101814.62
66365,10.162,-10.452,-0.568,1.370430,1.209955,-4.551647,101814.62
66374,10.374,-10.556,-0.651,1.221439,1.211551,-4.469170,101813.70
66384,10.418,-10.627,-0.661,0.974540,1.225386,-4.378711,101813.70
66395,10.291,-10.984,-0.584,0.784577,1.222194,-4.279206,101817.25
66405,9.977,-11.606,-0.695,0.701213,1.183350,-4.141390,101816.34
66414,9.604,-11.800,-0.801,0.677091,1.156744,-3.986014,101816.34
66424,9.410,-11.722,-0.693,0.710082,1.158873,-3.773702,101814.11
66435,9.449,-12.035,-0.886,0.740944,1.179625,-3.534253,101814.11
66445,8.984,-12.352,-1.501,0.616431,1.220597,-3.262345,101818.48
66455,8.172,-12.844,-2.192,0.374321,1.264230,-2.964895,101819.53
66464,7.255,-13.094,-2.408,0.017807,1.275937,-2.644565,101815.81
66475,6.688,-12.846,-2.269,-0.327532,1.230175,-2.273153,101815.81
66485,6.479,-11.875,-2.285,-0.505789,1.080652,-1.856511,101815.81
66495,6.442,-10.981,-2.635,-0.452046,0.807680,-1.384529,101821.23
66504,6.311,-11.024,-2.977,-0.288688,0.440524,-0.854548,101822.10
66514,5.726,-11.315,-2.828,-0.122670,0.065387,-0.325631,101822.35
66525,4.910,-11.100,-2.353,0.028272,-0.273212,0.174730,101818.85
66535,4.447,-10.632,-2.010,0.112523,-0.469915,0.512442,101818.85
66545,4.669,-9.814,-0.870,0.173183,-0.592301,0.791268,101820.95
66554,3.544,-9.379,4.801,0.407311,-0.548668,0.945047,101819.21
66565,3.422,-11.454,10.543,0.456798,-0.190558,1.143524,101816.48
66575,12.073,-5.439,10.215,-0.290817,0.345809,0.899286,101817.48
66585,18.750,-1.540,7.010,-1.399201,0.648047,0.476791,101817.79
66594,23.277,-4.281,2.052,-1.976008,0.606543,0.450717,101818.71
66605,20.837,-7.001,-0.576,-1.872247,0.251093,0.971653,101818.71
66615,13.121,-5.349,0.766,-0.963403,-0.200668,1.552717,101816.96
66625,8.945,-2.944,0.326,0.071550,-0.583255,1.920404,101817.16
66634,8.220,-1.502,-0.705,0.761697,-0.849842,1.937432,101817.16
66644,7.331,-2.436,0.698,1.095329,-0.895603,1.873579,101822.58
66655,6.599,-5.356,2.574,1.046375,-0.790246,1.789505,101817.70
66665,7.151,-7.435,3.158,0.590889,-0.564099,1.669781,101817.86
66675,7.838,-7.104,2.945,-0.015716,-0.334227,1.501102,101815.44
66684,7.918,-5.312,3.274,-0.383936,-0.163952,1.355304,101818.96
66695,8.558,-3.613,2.830,-0.399367,-0.120319,1.279744,101822.60
66705,8.710,-2.745,2.215,-0.191844,-0.186833,1.255267,101819.68
66715,8.689,-3.053,2.312,0.114651,-0.270906,1.274955,101817.37
66724,8.795,-3.412,2.384,0.374853,-0.353383,1.288258,101817.37
66735,8.465,-3.591,2.490,0.479146,-0.385310,1.276020,101817.37
66745,8.039,-4.042,2.572,0.423275,-0.366154,1.244093,101818.99
66755,7.848,-4.404,2.634,0.256724,-0.312943,1.175983,101820.16
66764,8.028,-4.075,2.556,0.095495,-0.250686,1.083396,101818.43
66775,7.926,-4.112,2.314,0.024724,-0.185237,1.006772,101819.04
66785,8.232,-4.342,1.755,0.018339,-0.135751,0.957286,101819.04
66795,8.510,-4.387,1.404,0.028981,-0.127769,0.924295,101821.95
66805,8.452,-4.957,1.035,0.023128,-0.109145,0.904607,101818.52
66814,8.251,-5.166,1.118,-0.042853,-0.064448,0.883855,101818.59
66825,8.123,-4.549,1.647,-0.139697,0.000470,0.852460,101818.59
66835,7.976,-3.929,2.240,-0.191844,0.049956,0.828515,101818.94
66844,8.028,-3.363,2.931,-0.155661,0.054213,0.816277,101818.94
66854,8.026,-3.395,2.946,-0.029019,0.006855,0.812552,101816.78
66865,8.087,-4.800,1.975,0.101880,-0.085200,0.814148,101819.86
66875,8.437,-5.704,0.836,0.084321,-0.116062,0.795524,101816.31
66884,8.379,-5.568,0.766,-0.069991,-0.025604,0.755616,101816.31
66895,8.177,-5.005,0.947,-0.219514,0.085607,0.727947,101819.59
66905,8.177,-4.845,1.193,-0.264743,0.139882,0.716772,101819.27
66915,8.091,-4.967,1.710,-0.272193,0.148396,0.707726,101817.93
66925,7.932,-4.949,2.339,-0.297734,0.155314,0.690167,101816.37
66935,7.801,-4.938,2.612,-0.348284,0.170745,0.668882,101819.04
66945,7.928,-4.894,2.657,-0.390321,0.177130,0.646002,101819.55
66955,7.885,-4.682,2.800,-0.407881,0.161167,0.626314,101819.35
66965,7.727,-4.625,2.707,-0.388193,0.140414,0.616203,101819.35
66974,7.708,-4.647,2.429,-0.339771,0.112213,0.615139,101818.73
66984,7.687,-4.755,2.250,-0.275918,0.075497,0.622057,101818.73
66995,7.647,-5.042,2.065,-0.232285,0.041442,0.632167,101820.83
67000,7.674,-5.190,1.875,-0.230688,0.027607,0.636956,101821.09
67010,7.793,-5.236,1.831,-0.246652,0.028671,0.642809,101819.28
67019,7.853,-5.151,1.881,-0.262083,0.033460,0.652387,101818.56
67030,7.797,-5.192,1.956,-0.266872,0.041974,0.663561,101818.56
67040,7.760,-5.300,2.004,-0.272725,0.047827,0.669414,101819.01
67050,7.641,-5.308,2.198,-0.288156,0.045699,0.668882,101818.76
67060,7.474,-5.381,2.327,-0.296138,0.046763,0.666222,101816.24
67069,7.357,-5.216,2.479,-0.304119,0.036121,0.660901,101816.24
67080,7.193,-5.156,2.620,-0.289752,0.018561,0.663561,101816.24
67090,6.940,-5.105,2.539,-0.254633,-0.001127,0.675268,101820.39
67100,6.831,-5.082,2.333,-0.219514,-0.018686,0.694956,101817.88
67109,6.901,-5.298,2.080,-0.184927,-0.044228,0.722625,101817.77
67121,7.097,-5.557,1.949,-0.178187,-0.067463,0.753665,101817.56
67130,7.230,-5.660,1.935,-0.199826,-0.069237,0.776369,101817.56
67140,7.371,-5.866,1.843,-0.237606,-0.060191,0.799781,101817.80
67149,7.360,-5.998,1.726,-0.280174,-0.050613,0.817873,101818.52
67160,7.307,-6.133,1.689,-0.324340,-0.035714,0.833304,101818.16
67170,7.264,-6.297,1.819,-0.369569,-0.014962,0.848203,101814.66
67180,7.423,-6.460,1.991,-0.413734,0.000470,0.859378,101814.66
67190,7.560,-6.590,2.132,-0.449385,0.002598,0.862038,101817.34
67200,7.608,-6.597,2.165,-0.483440,-0.008044,0.864699,101816.21
67210,7.674,-6.728,2.277,-0.515367,-0.016558,0.871084,101817.60
67220,7.833,-6.784,2.136,-0.552615,-0.024540,0.883855,101818.32
67230,8.015,-6.801,1.944,-0.587202,-0.038374,0.904075,101818.32
67239,8.208,-6.764,1.792,-0.620193,-0.061255,0.933341,101819.08
67250,8.378,-6.905,1.639,-0.651587,-0.094246,0.971121,101819.03
67260,8.529,-6.984,1.602,-0.685110,-0.122980,1.017414,101818.11
67270,8.586,-7.079,1.533,-0.722358,-0.150650,1.065304,101817.17
67279,8.620,-7.318,1.339,-0.764394,-0.169273,1.111598,101817.17
67290,8.761,-7.371,1.130,-0.823458,-0.185237,1.152570,101819.64
67300,8.781,-7.379,1.124,-0.874009,-0.201732,1.193542,101819.08
67310,8.710,-7.354,1.232,-0.919238,-0.213971,1.237708,101816.52
67320,8.750,-7.405,1.290,-0.963403,-0.223549,1.285065,101818.00
67330,8.773,-7.604,1.272,-1.021403,-0.228338,1.330295,101818.00
67340,9.024,-7.645,1.577,-1.107605,-0.232062,1.370203,101818.03
67350,9.569,-7.748,2.015,-1.194871,-0.238448,1.402662,101817.83
67360,10.116,-7.958,2.294,-1.274688,-0.233127,1.436185,101815.78
67369,10.399,-7.951,2.518,-1.376853,-0.198539,1.473432,101814.39
67380,10.491,-7.617,2.671,-1.523715,-0.122448,1.522386,101814.39
67390,10.486,-7.379,2.963,-1.697183,-0.009108,1.587304,101816.55
67400,10.523,-6.965,3.402,-1.897788,0.129240,1.690001,101816.76
67409,10.793,-6.516,3.947,-2.074449,0.264928,1.805469,101814.29
67420,11.615,-6.587,4.700,-2.222375,0.332506,1.944882,101816.13
67430,12.897,-7.639,5.293,-2.272926,0.307497,2.088019,101816.13
67440,14.197,-8.793,5.593,-2.194173,0.262800,2.255101,101817.76
67449,14.671,-9.221,5.702,-2.092540,0.284616,2.407817,101817.91
67460,13.852,-9.108,5.428,-2.075513,0.402212,2.477523,101818.63
67470,12.199,-8.824,4.935,-2.143623,0.563974,2.467413,101817.45
67480,10.789,-8.162,4.266,-2.284100,0.712965,2.359927,101817.45
67490,9.610,-6.729,3.632,-2.399568,0.816726,2.194441,101818.02
67500,8.664,-5.661,3.274,-2.258027,0.839607,2.053964,101817.05
67510,7.272,-5.504,3.025,-1.871183,0.739570,1.961377,101815.41
67520,5.578,-5.532,2.795,-1.409311,0.624634,1.862404,101812.88
67530,4.656,-5.064,1.622,-1.026192,0.550139,1.673506,101812.88
67539,3.979,-5.202,-1.087,-0.829312,0.536836,1.356368,101821.02
67550,2.601,-6.389,-3.710,-0.892633,0.587919,1.122772,101818.25
67560,3.011,-4.711,-1.946,-0.625514,0.612396,1.002515,101817.02
67570,4.355,-2.283,-1.381,-0.106175,0.474047,0.713048,101814.80
67579,4.343,-0.702,-1.111,0.407844,0.289937,0.454442,101814.80
67590,3.675,-0.064,-0.969,0.986779,0.117534,0.236809,101819.54
67600,3.258,-0.358,-0.937,1.516228,0.001002,0.020241,101817.74
67610,3.061,-1.089,-1.148,1.861567,-0.026136,-0.255392,101816.62
67620,2.692,-1.985,-1.196,1.995127,0.031864,-0.547521,101816.82
67630,2.293,-2.926,-1.261,2.005769,0.147864,-0.817300,101816.82
67640,2.223,-3.542,-1.642,1.900411,0.292066,-1.084419,101819.76
67650,2.355,-3.899,-1.829,1.706723,0.457020,-1.323869,101817.13
67660,2.852,-4.028,-2.188,1.521549,0.596965,-1.544694,101814.46
67670,3.292,-4.048,-2.475,1.367769,0.691680,-1.779887,101815.24
67680,3.560,-4.130,-2.751,1.217182,0.761919,-2.019868,101815.24
67690,3.618,-4.433,-2.833,1.052760,0.840671,-2.253997,101819.09
67700,3.810,-4.574,-2.909,0.895256,0.923680,-2.472694,101816.63
67709,4.116,-4.502,-2.979,0.778724,0.992322,-2.659996,101816.06
67720,4.505,-4.466,-2.842,0.749458,1.021056,-2.813244,101813.23
67730,4.990,-4.547,-2.594,0.847366,0.994451,-2.943079,101813.23
67740,5.459,-4.859,-2.532,1.049036,0.914634,-3.051629,101816.81
67750,5.668,-5.654,-2.534,1.275715,0.813533,-3.151134,101817.48
67760,5.625,-6.540,-2.456,1.439072,0.738506,-3.246381,101813.88
67770,5.487,-7.180,-2.172,1.485898,0.724139,-3.346418,101816.91
67780,5.621,-7.488,-1.902,1.428430,0.761387,-3.442198,101816.91
67790,5.916,-7.609,-1.635,1.301788,0.821515,-3.541170,101817.97
67800,6.191,-7.968,-1.181,1.106504,0.925276,-3.634289,101816.48
67810,6.647,-8.180,-0.769,0.846302,1.062561,-3.726876,101817.56
67820,7.200,-8.103,-0.504,0.572798,1.206230,-3.819463,101815.05
67830,7.726,-7.841,-0.404,0.350908,1.334469,-3.900344,101815.05
67835,8.127,-7.538,-0.404,0.222669,1.416414,-3.948766,101818.60
67845,8.452,-7.374,-0.404,0.143385,1.479203,-3.980161,101818.60
67855,8.797,-7.407,-0.390,0.102945,1.538799,-3.997188,101817.63
67865,9.010,-7.701,-0.374,0.093899,1.582964,-3.989207,101816.24
67875,9.253,-7.920,-0.485,0.064101,1.626597,-3.973775,101814.09
67886,9.692,-8.017,-0.493,-0.003477,1.671294,-3.956748,101817.95
67895,10.274,-8.027,-0.313,-0.064670,1.702689,-3.932271,101818.17
67905,10.840,-8.254,-0.148,-0.087019,1.694175,-3.887041,101817.59
67915,11.155,-8.732,-0.037,-0.106707,1.674487,-3.812546,101817.59
67926,11.010,-9.291,0.047,-0.170560,1.681404,-3.717299,101816.72
67935,10.682,-9.557,0.307,-0.284963,1.719716,-3.593849,101816.72
67945,10.384,-9.498,0.453,-0.408945,1.766010,-3.433684,101820.69
67955,9.933,-9.334,0.436,-0.531330,1.797936,-3.239996,101817.45
67965,9.448,-9.179,0.344,-0.630303,1.802725,-3.013317,101818.38
67976,9.077,-9.309,0.071,-0.717037,1.785698,-2.768547,101817.81
67985,8.740,-9.642,-0.261,-0.836761,1.773459,-2.524308,101817.81
67995,8.374,-9.654,-0.513,-1.023000,1.767074,-2.294437,101819.49
68005,8.128,-9.073,-0.718,-1.224669,1.725037,-2.067226,101816.85
68016,8.129,-7.978,-0.837,-1.368871,1.624469,-1.824052,101818.82
68025,8.006,-6.980,-0.876,-1.392816,1.447808,-1.558529,101818.82
68035,7.864,-6.408,-1.083,-1.289587,1.207295,-1.281832,101818.82
68045,7.724,-6.497,-1.543,-1.111862,0.944432,-1.002474,101821.45
68055,7.602,-6.646,-1.941,-0.925624,0.688487,-0.732695,101819.70
68065,7.631,-6.327,-2.222,-0.739917,0.424561,-0.473025,101821.19
68076,7.566,-6.065,-2.370,-0.537538,0.111326,-0.193845,101818.79
68085,7.302,-6.206,-2.290,-0.371697,-0.143732,0.021837,101818.79
68096,6.888,-6.378,-1.910,-0.205147,-0.376796,0.214461,101822.29
68106,6.550,-6.549,-1.728,-0.067331,-0.556649,0.371433,101818.07
68115,6.514,-6.745,-1.135,0.036963,-0.697126,0.520424,101816.52
68125,4.295,-6.168,7.398,0.300889,-0.615714,0.608754,101819.09
68135,5.968,-4.240,14.664,0.270027,0.040910,0.530534,101817.09
68146,12.112,-0.523,12.101,-0.606890,0.709240,0.152736,101818.80
68155,13.271,-1.951,7.763,-1.335348,0.783735,-0.007961,101818.80
68165,12.955,-3.968,8.709,-1.585972,0.595900,0.086754,101816.33
68175,15.020,-2.277,8.160,-1.627476,0.420304,0.296406,101816.02
68185,16.406,0.323,3.617,-1.146981,-0.046888,0.636424,101816.02
68195,14.047,-0.163,1.154,-0.035936,-0.672117,1.127029,101816.98
68205,11.182,-2.200,0.880,0.954852,-1.065346,1.538350,101820.69
68215,9.357,-3.888,0.285,1.294870,-1.157933,1.691597,101816.78
68226,7.720,-4.787,0.444,1.108100,-1.026502,1.636258,101817.61
68235,6.373,-5.641,1.810,0.592486,-0.730649,1.470772,101817.61
68245,5.997,-5.905,3.492,-0.113624,-0.377860,1.273359,101819.08
68255,6.830,-4.970,4.456,-0.677128,-0.128301,1.106809,101816.69
68265,7.540,-4.184,4.556,-0.816009,-0.069769,1.001983,101816.69
68275,8.360,-3.776,4.040,-0.656376,-0.102760,0.983359,101816.69
68285,8.886,-3.412,3.092,-0.362119,-0.220888,1.004644,101816.69
68295,8.664,-3.411,2.737,-0.024230,-0.336888,1.030717,101820.52
68305,8.489,-3.809,2.647,0.209899,-0.404998,1.051469,101818.92
68315,8.360,-4.173,2.795,0.278009,-0.411915,1.048277,101819.95
68325,8.337,-4.226,2.610,0.108798,-0.339549,1.027524,101819.64
68335,7.784,-4.757,2.574,-0.151936,-0.221420,0.973249,101819.64
68345,7.823,-5.361,2.344,-0.383404,-0.103824,0.910992,101820.87
68356,8.061,-5.294,2.312,-0.559532,-0.029861,0.854057,101820.99
68366,8.280,-4.927,2.274,-0.615936,0.011644,0.801378,101818.55
68375,8.086,-4.543,2.733,-0.586138,0.011644,0.763598,101818.55
68385,7.892,-4.444,3.024,-0.478119,-0.022411,0.728479,101821.99
68396,7.831,-4.549,3.128,-0.365312,-0.071897,0.690167,101821.99
68405,7.875,-4.535,3.183,-0.312101,-0.096374,0.647598,101820.91
68415,7.746,-4.577,3.153,-0.320615,-0.089989,0.598644,101819.52
68425,7.681,-4.565,2.986,-0.352541,-0.070301,0.553947,101818.45
68435,7.807,-4.292,2.843,-0.363716,-0.053274,0.519360,101818.45
68446,7.784,-4.350,2.708,-0.335514,-0.049017,0.504993,101820.88
68455,7.790,-4.398,2.608,-0.301459,-0.052741,0.500204,101817.95
68465,7.741,-4.537,2.795,-0.289752,-0.046888,0.493286,101821.13
68475,7.544,-4.686,2.979,-0.304119,-0.034118,0.486369,101817.09
68486,7.444,-4.693,3.185,-0.341367,-0.027200,0.472534,101819.34
68495,7.560,-4.238,3.540,-0.383404,-0.055934,0.458167,101818.42
68505,7.438,-4.140,3.774,-0.402560,-0.082540,0.451782,101818.42
68515,7.501,-4.009,3.706,-0.397771,-0.095842,0.454974,101818.42
68526,7.993,-3.347,3.796,-0.370101,-0.110741,0.462956,101815.91
68535,8.056,-3.387,3.600,-0.300927,-0.132558,0.488497,101815.91
68545,8.015,-3.706,3.273,-0.203551,-0.158099,0.520424,101822.91
68551,7.760,-4.016,3.211,-0.151936,-0.172466,0.537983,101819.72
68560,7.539,-4.014,3.064,-0.113092,-0.168741,0.549158,101817.70
68571,7.451,-4.025,3.268,-0.053496,-0.165017,0.571506,101817.05
68580,7.363,-4.296,3.308,0.018871,-0.200136,0.588534,101817.05
68590,7.459,-4.666,3.050,0.067825,-0.240044,0.605029,101817.19
68600,7.639,-5.325,2.434,0.056651,-0.271439,0.620992,101820.02
68611,7.881,-6.103,1.517,-0.019441,-0.274631,0.634827,101817.80
68620,8.178,-6.233,1.018,-0.166835,-0.248026,0.643341,101815.03
68630,8.288,-5.326,1.385,-0.319018,-0.176191,0.650791,101815.03
68640,7.989,-4.522,2.238,-0.394578,-0.099567,0.672075,101817.82
68651,7.623,-4.695,2.696,-0.371165,-0.079347,0.693892,101816.54
68661,7.317,-5.288,2.823,-0.308908,-0.100631,0.690699,101816.49
68671,6.832,-5.770,2.814,-0.295960,-0.113225,0.656112,101814.74
68680,6.733,-5.903,2.548,-0.308376,-0.100631,0.608754,101814.74
68690,7.009,-5.737,2.238,-0.307312,-0.083072,0.569910,101818.16
68701,7.292,-5.483,2.016,-0.276982,-0.071897,0.558736,101816.92
68710,7.398,-5.525,2.001,-0.235477,-0.071365,0.561928,101815.53
68720,7.402,-5.436,2.207,-0.218982,-0.070833,0.573103,101814.09
68730,7.377,-5.242,2.557,-0.229624,-0.058595,0.586937,101814.09
68741,7.261,-5.413,2.795,-0.220046,-0.052741,0.601304,101817.23
68750,7.059,-5.931,2.605,-0.218982,-0.053806,0.600240,101816.36
68760,6.956,-6.135,2.325,-0.275918,-0.025604,0.588534,101816.98
68770,6.986,-5.990,2.265,-0.353606,0.018561,0.572571,101816.63
68781,7.129,-5.843,2.169,-0.373826,0.028139,0.565121,101816.63
68791,7.267,-6.050,2.239,-0.341367,0.005791,0.569910,101820.09
68800,7.314,-6.421,2.168,-0.335514,-0.011237,0.574167,101818.59
68810,7.527,-6.486,2.014,-0.392982,0.004726,0.576827,101818.59
68820,7.659,-6.413,2.038,-0.473330,0.040378,0.586937,101813.71
68831,7.696,-6.170,2.143,-0.551018,0.071772,0.615671,101813.71
68840,7.756,-6.010,2.325,-0.598908,0.086139,0.650259,101817.89
68850,7.684,-6.189,2.514,-0.610082,0.070708,0.693359,101817.22
68860,7.359,-6.294,2.491,-0.623917,0.058470,0.736460,101820.61
68871,7.023,-6.715,2.776,-0.659569,0.071240,0.775836,101816.09
68880,6.983,-7.307,3.046,-0.707459,0.112213,0.808827,101816.09
68890,7.580,-7.215,2.430,-0.812816,0.167020,0.808827,101817.84
68900,8.227,-7.202,1.718,-0.897954,0.172341,0.811488,101815.01
68911,8.497,-7.064,1.342,-0.924027,0.146800,0.843414,101814.49
68920,8.638,-6.924,0.979,-0.918174,0.114341,0.892901,101817.01
68930,8.786,-7.039,0.786,-0.928284,0.084011,0.954093,101817.01
68940,8.708,-7.147,0.663,-0.954890,0.056873,1.022203,101818.41
68951,8.594,-7.014,0.929,-1.017146,0.033992,1.087121,101816.45
68961,8.615,-6.910,1.379,-1.079403,-0.000595,1.152038,101815.13
68970,8.680,-7.373,1.535,-1.104412,-0.026668,1.219616,101814.55
68980,8.902,-7.662,1.615,-1.170394,-0.034650,1.263781,101814.55
68990,9.192,-7.890,1.543,-1.261917,-0.034650,1.302093,101817.20
69001,9.655,-8.126,1.395,-1.373128,-0.027732,1.327634,101820.28
69010,10.292,-8.407,1.104,-1.514669,-0.003787,1.345194,101816.48
69020,10.989,-8.332,0.752,-1.690265,0.047295,1.360625,101816.73
69030,11.725,-7.848,0.382,-1.927586,0.121791,1.386698,101816.73
69041,12.641,-6.894,0.272,-2.163311,0.185644,1.427671,101819.04
69050,13.455,-5.570,0.515,-2.337843,0.202139,1.490460,101817.66
69060,13.955,-4.480,0.735,-2.355402,0.151057,1.584111,101815.20
69070,14.087,-4.273,1.055,-2.226632,0.018561,1.695322,101816.01
69081,13.998,-4.725,1.889,-2.040394,-0.137347,1.823028,101816.01
69091,13.694,-5.738,2.845,-1.810522,-0.288466,1.980533,101818.34
69100,13.041,-7.046,3.504,-1.495513,-0.475769,2.139102,101817.87
69110,12.051,-8.124,3.362,-1.140064,-0.662539,2.232753,101814.07
69121,10.534,-9.146,3.242,-0.860706,-0.774282,2.261487,101818.38
69131,9.135,-9.339,3.552,-0.770248,-0.777475,2.221579,101818.38
69140,8.242,-8.177,3.698,-0.819202,-0.721603,2.124735,101816.79
69150,7.617,-7.296,2.860,-0.897422,-0.670521,1.991707,101816.13
69160,6.642,-7.378,2.321,-0.968724,-0.646576,1.854955,101816.95
69171,5.700,-7.059,1.477,-1.040027,-0.640191,1.692129,101818.02
69180,4.825,-6.406,1.597,-1.087385,-0.625292,1.483010,101818.02
69190,5.110,-4.974,1.723,-1.003312,-0.622099,1.257396,101817.13
69200,4.013,-5.237,1.598,-0.849532,-0.666264,1.044020,101815.78
69211,1.565,-4.920,2.624,-0.654780,-0.567292,0.843414,101815.02
69221,1.265,-4.493,2.095,-0.679789,-0.350723,0.522020,101812.86
69230,2.705,-3.281,2.242,-0.769183,-0.219824,0.239470,101812.86
69240,4.085,-1.241,2.708,-0.618596,-0.243237,-0.067558,101818.70
69251,4.679,0.207,2.535,-0.321147,-0.295383,-0.396933,101817.10
69261,4.666,0.548,2.154,-0.062009,-0.334227,-0.691190,101815.93
69266,4.602,0.422,1.861,0.116247,-0.367218,-0.879557,101816.59
69275,4.632,0.166,1.558,0.290247,-0.404998,-1.067392,101816.59
69285,4.636,-0.533,1.348,0.492449,-0.448631,-1.308438,101816.59
69296,4.659,-1.459,1.293,0.654742,-0.484815,-1.532988,101814.88
69306,4.669,-2.266,1.256,0.790430,-0.515677,-1.759667,101813.95
69316,4.543,-2.971,1.073,0.904834,-0.539090,-1.979428,101813.23
69325,4.497,-3.553,0.971,0.996889,-0.553989,-2.191740,101813.23
69336,4.692,-3.903,1.053,1.082559,-0.562503,-2.402455,101813.84
69346,5.035,-3.967,1.221,1.164504,-0.562503,-2.619556,101813.84
69355,5.503,-3.921,1.533,1.262944,-0.556117,-2.833996,101815.69
69365,5.851,-3.882,1.942,1.352338,-0.544943,-3.035134,101814.41
69376,6.162,-4.065,2.247,1.415659,-0.528980,-3.216583,101813.06
69386,6.380,-4.745,2.448,1.477384,-0.505922,-3.384020,101813.30
69395,6.502,-5.510,2.685,1.516228,-0.463530,-3.515629,101813.30
69405,6.610,-6.153,2.839,1.536448,-0.389035,-3.654510,101814.44
69415,6.885,-6.697,3.138,1.591256,-0.305494,-3.775831,101810.73
69426,7.457,-7.324,3.386,1.699806,-0.240576,-3.881720,101813.37
69436,8.159,-7.952,3.522,1.846668,-0.208117,-3.953023,101814.40
69446,8.823,-8.704,3.639,1.981292,-0.203861,-4.002509,101815.32
69455,9.082,-9.525,3.785,2.075475,-0.216099,-4.037629,101813.27
69466,9.059,-10.093,3.934,2.107402,-0.203328,-4.063170,101813.27
69476,8.860,-10.233,4.067,2.081329,-0.145328,-4.069555,101811.88
69485,8.717,-10.070,4.389,2.016943,-0.041567,-4.051463,101811.88
69495,8.832,-9.810,4.773,1.965861,0.091992,-4.007830,101818.75
69506,9.124,-9.783,4.895,1.978631,0.222891,-3.946638,101816.50
69516,9.352,-10.163,4.865,2.058448,0.331974,-3.862564,101815.98
69526,9.350,-10.814,4.476,2.193072,0.409130,-3.739647,101815.31
69535,9.151,-11.497,3.881,2.308539,0.469790,-3.584271,101815.31
69545,8.883,-12.536,3.005,2.346319,0.541625,-3.420381,101815.54
69556,8.639,-13.017,2.183,2.164870,0.638469,-3.286822,101816.59
69566,8.431,-12.460,2.135,1.818466,0.760322,-3.156455,101814.59
69575,8.167,-11.717,2.426,1.465678,0.883240,-2.994161,101814.59
69585,7.783,-11.085,2.398,1.158650,0.980084,-2.813244,101814.59
69596,7.565,-10.426,1.777,0.935696,1.063625,-2.639244,101820.82
69606,7.486,-10.804,1.535,0.831935,1.130671,-2.492914,101819.37
69615,6.842,-11.068,1.474,0.673898,1.170579,-2.334877,101819.63
69625,6.534,-10.800,1.482,0.516394,1.204634,-2.116180,101817.77
69636,6.464,-10.645,1.255,0.395073,1.220065,-1.840547,101817.77
69646,6.053,-10.495,0.939,0.276412,1.202506,-1.545226,101817.66
69656,5.987,-10.222,0.675,0.204578,1.128010,-1.255759,101820.80
69665,5.947,-10.137,0.252,0.192339,1.023185,-0.995557,101817.15
69676,5.868,-10.088,-0.283,0.173183,0.933790,-0.740144,101817.15
69686,5.955,-9.932,-0.778,0.134339,0.844396,-0.468236,101819.79
69696,6.101,-9.855,-1.388,0.098688,0.736909,-0.184090,101819.37
69705,6.376,-9.476,-1.840,0.098688,0.596965,0.092075,101819.37
69715,6.603,-8.653,-2.117,0.228523,0.375075,0.359727,101820.82
69726,7.080,-7.937,-1.807,0.537678,0.057405,0.639084,101818.80
69736,7.984,-6.614,-1.141,1.037861,-0.288998,0.895029,101818.80
69745,7.631,-7.372,-2.526,1.574760,-0.801952,1.221744,101819.87
69755,8.996,-6.002,1.692,2.195200,-1.169640,1.554313,101821.76
69766,16.354,2.950,4.380,2.500631,-1.317566,1.388827,101820.12
69776,20.980,4.143,2.053,2.410705,-1.195181,1.063708,101817.76
69786,19.685,-5.977,-4.400,2.009494,-1.049915,1.291983,101822.16
69795,11.717,-12.530,-6.847,1.598705,-0.942429,1.726717,101820.10
69806,7.143,-12.161,-4.640,0.944742,-0.525787,1.848570,101820.82
69816,8.639,-8.670,-3.140,-0.025826,0.000470,1.728313,101821.54
69826,9.297,-5.328,-0.647,-0.667550,0.295258,1.549524,101821.54
69835,7.849,-4.253,3.499,-0.799514,0.377203,1.459597,101821.54
69846,7.109,-3.845,8.054,-0.636688,0.364965,1.465451,101820.18
69856,8.170,-3.717,9.511,-0.351477,0.246304,1.535157,101816.90
69866,8.439,-3.536,6.842,-0.129587,-0.047952,1.523451,101818.13
69876,6.902,-4.032,4.589,0.003440,-0.249622,1.415964,101816.63
69885,6.823,-4.197,3.760,0.035367,-0.253347,1.301561,101816.63
69896,8.094,-3.552,2.271,0.038027,-0.203328,1.196203,101820.48
69906,9.041,-2.951,1.038,0.086449,-0.160760,1.128625,101819.05
69916,9.314,-3.415,0.673,0.214688,-0.144264,1.100423,101819.25
69925,9.447,-3.863,0.623,0.387623,-0.193218,1.123836,101819.25
69936,9.001,-4.277,0.922,0.561091,-0.273035,1.157359,101823.24
69946,8.183,-5.167,1.179,0.569605,-0.278356,1.145121,101823.24
69956,7.726,-6.019,1.321,0.340266,-0.183640,1.069029,101819.20
69965,7.784,-6.160,1.713,-0.025826,-0.043696,0.951433,101818.88
69976,8.143,-5.477,2.066,-0.334450,0.077093,0.824258,101819.49
69986,8.482,-4.534,2.191,-0.466413,0.136690,0.734332,101819.49
69996,8.628,-4.061,2.094,-0.472798,0.137222,0.689103,101821.13
70006,8.637,-4.237,1.840,-0.447789,0.122323,0.662497,101819.42
70016,8.571,-4.198,1.807,-0.439807,0.119130,0.645470,101819.27
70026,8.500,-3.879,2.195,-0.433954,0.118066,0.644405,101818.59
70036,8.463,-3.745,2.726,-0.421716,0.106892,0.651323,101819.87
70046,8.388,-3.983,2.782,-0.405220,0.078158,0.655580,101815.96
70055,8.395,-4.040,2.705,-0.406817,0.050488,0.660369,101815.34
70066,8.434,-3.888,2.742,-0.396706,0.020158,0.672075,101815.34
70076,8.437,-3.699,2.810,-0.365844,-0.026136,0.692295,101818.07
70086,8.220,-3.651,2.985,-0.314762,-0.089457,0.716772,101818.07
70095,7.863,-3.862,2.900,-0.228560,-0.145861,0.743910,101822.18
70106,7.587,-4.377,2.599,-0.160450,-0.188961,0.759341,101818.52
70116,7.572,-4.869,2.302,-0.160450,-0.206521,0.759341,101818.01
70126,7.636,-4.980,2.138,-0.215257,-0.193750,0.755616,101815.24
70136,7.741,-4.897,1.851,-0.271129,-0.170870,0.751359,101815.24
70146,7.841,-4.742,1.687,-0.334450,-0.136283,0.755616,101818.61
70156,8.073,-4.240,1.856,-0.354670,-0.126173,0.774772,101815.38
70166,8.146,-4.074,2.004,-0.254633,-0.186833,0.816809,101818.67
70175,7.823,-4.547,1.855,-0.112028,-0.262393,0.850864,101818.67
70185,7.742,-5.137,1.838,-0.059349,-0.305494,0.864699,101818.67
70196,7.596,-5.368,1.764,-0.059881,-0.323585,0.863635,101821.55
70206,7.479,-5.500,1.610,-0.088615,-0.318264,0.856185,101816.92
70216,7.542,-5.609,1.479,-0.129055,-0.305494,0.847139,101815.73
70225,7.681,-5.549,1.407,-0.164707,-0.292191,0.841818,101815.22
70236,7.820,-5.606,1.339,-0.174285,-0.291127,0.842350,101815.22
70246,7.860,-5.744,1.297,-0.181202,-0.294319,0.844479,101818.53
70256,7.870,-5.761,1.372,-0.203551,-0.295383,0.850332,101817.55
70266,7.854,-5.726,1.363,-0.228028,-0.291659,0.859378,101817.02
70276,7.858,-5.653,1.351,-0.242395,-0.292191,0.873213,101817.02
70286,7.825,-5.784,1.364,-0.247184,-0.298576,0.891836,101819.62
70296,7.842,-5.878,1.318,-0.259422,-0.303365,0.907268,101820.29
70305,7.966,-5.916,1.382,-0.278046,-0.313475,0.926423,101820.29
70316,7.914,-6.041,1.340,-0.290817,-0.329438,0.951965,101817.05
70326,7.861,-6.188,1.245,-0.314229,-0.339016,0.975910,101815.20
70336,7.837,-6.387,1.183,-0.352009,-0.345934,0.993469,101815.20
70346,7.897,-6.511,1.111,-0.388725,-0.356044,1.005176,101819.47
70355,7.994,-6.591,1.200,-0.425972,-0.376796,1.017414,101819.00
70366,8.172,-6.747,1.369,-0.456303,-0.407126,1.030185,101817.92
70376,8.267,-6.766,1.378,-0.483972,-0.436925,1.047745,101814.38
70386,8.498,-6.936,1.254,-0.520156,-0.461934,1.072754,101817.70
70396,8.859,-7.073,1.041,-0.572303,-0.487475,1.097231,101816.47
70406,9.168,-6.922,0.910,-0.621257,-0.522594,1.126497,101816.20
70416,9.196,-6.794,0.768,-0.647862,-0.569952,1.169598,101816.20
70426,9.099,-6.670,0.656,-0.659037,-0.621567,1.219616,101815.89
70435,9.059,-6.731,0.628,-0.668082,-0.680631,1.271763,101815.89
70446,9.029,-7.003,0.878,-0.701605,-0.739695,1.321781,101816.76
70456,9.028,-7.320,1.032,-0.767055,-0.772686,1.366478,101816.76
70466,9.311,-7.678,1.188,-0.894761,-0.771622,1.398405,101817.13
70476,9.860,-8.015,1.351,-1.077275,-0.754062,1.415432,101814.20
70486,10.709,-8.211,1.498,-1.287458,-0.730649,1.424478,101814.20
70496,11.858,-8.118,1.722,-1.533293,-0.697126,1.422882,101816.02
70506,13.347,-7.158,2.210,-1.795623,-0.650833,1.434056,101818.69
70516,14.644,-5.334,2.931,-2.023366,-0.636466,1.500570,101814.47
70526,15.546,-4.115,3.286,-2.092540,-0.692337,1.630405,101814.47
70536,16.607,-3.916,3.362,-2.063807,-0.788117,1.770350,101814.47
70546,17.114,-4.334,3.258,-2.038797,-0.896667,1.914551,101820.80
70556,16.396,-5.743,3.334,-1.921733,-1.040869,2.106643,101817.62
70565,15.366,-7.797,3.663,-1.613642,-1.268612,2.361523,101815.66
70576,15.198,-8.176,4.617,-1.287990,-1.493695,2.528606,101815.76
70586,14.568,-7.518,5.290,-1.166669,-1.597456,2.516900,101815.76
70596,13.455,-7.077,5.230,-1.081532,-1.600649,2.476459,101818.81
70606,12.300,-6.619,4.863,-0.870284,-1.590539,2.405689,101814.50
70616,10.678,-6.145,4.261,-0.655844,-1.581493,2.260955,101813.47
70626,9.223,-5.471,3.301,-0.491422,-1.602777,2.108239,101818.00
70636,7.869,-4.987,3.164,-0.241863,-1.697493,1.969359,101820.88
70646,6.598,-4.890,3.880,0.177440,-1.798061,1.782056,101819.86
70656,6.527,-3.837,2.851,0.403587,-1.831584,1.438845,101819.86
70666,2.687,-6.822,-0.456,0.359954,-1.782098,1.102020,101818.27
70676,1.127,-10.003,0.035,0.193403,-1.518704,0.982295,101816.83
70686,3.014,-6.885,1.291,0.247146,-1.401640,0.622589,101816.83
70696,3.410,-4.628,1.873,0.439415,-1.329982,0.174375,101818.93
70706,3.317,-3.429,1.965,0.574926,-1.262759,-0.139924,101818.93
70716,3.235,-2.287,1.798,0.662192,-1.271273,-0.503355,101813.04
70726,2.863,-1.699,1.618,0.747862,-1.326080,-0.840713,101815.30
70736,2.567,-1.832,1.494,0.882485,-1.338851,-1.120071,101815.30
70747,2.249,-2.492,1.613,0.984118,-1.279786,-1.335575,101817.16
70756,2.236,-3.111,1.664,1.032540,-1.195181,-1.515960,101812.84
70766,2.140,-3.632,1.670,1.072449,-1.118025,-1.704327,101815.16
70776,2.093,-4.055,1.567,1.100650,-1.060557,-1.925153,101815.16
70786,2.170,-4.198,1.442,1.122467,-1.005218,-2.166731,101815.16
70796,2.275,-4.343,1.467,1.168760,-0.939768,-2.405116,101814.86
70806,2.286,-4.504,1.523,1.242724,-0.879108,-2.624345,101814.19
70816,2.349,-4.684,1.493,1.332118,-0.822704,-2.828143,101814.66
70825,2.609,-4.726,1.521,1.419384,-0.753530,-3.016510,101811.63
70836,2.971,-4.724,1.663,1.512503,-0.676906,-3.201684,101811.63
70846,3.287,-4.693,1.853,1.618393,-0.602411,-3.383666,101813.94
70856,3.570,-4.720,2.064,1.714705,-0.520466,-3.551280,101812.66
70866,3.714,-5.029,2.351,1.784944,-0.423090,-3.706656,101812.14
70876,3.875,-5.563,2.523,1.801971,-0.302301,-3.861500,101812.14
70886,4.151,-6.083,2.649,1.742907,-0.151182,-4.004106,101813.90
70896,4.570,-6.472,2.657,1.666283,0.019093,-4.131812,101813.90
70906,5.112,-6.554,2.596,1.655641,0.180323,-4.241426,101813.43
70916,5.713,-6.608,2.319,1.740246,0.304304,-4.327096,101812.91
70926,6.367,-6.848,1.924,1.916907,0.375607,-4.385096,101811.37
70936,6.895,-7.669,1.449,2.106338,0.411258,-4.408509,101811.37
70946,7.228,-8.944,1.099,2.201585,0.442121,-4.402656,101813.23
70957,7.353,-10.028,0.902,2.171255,0.488946,-4.397335,101815.55
70966,7.431,-10.523,0.969,2.082393,0.555992,-4.404252,101816.11
70976,7.787,-10.539,1.140,2.036631,0.641130,-4.413830,101813.28
70986,8.388,-10.629,1.233,2.063237,0.722010,-4.398399,101816.11
70996,8.937,-11.133,1.160,2.116448,0.787992,-4.341995,101819.55
71006,9.495,-11.879,0.928,2.134007,0.840671,-4.262711,101815.75
71016,9.883,-12.832,0.430,2.072815,0.875790,-4.177573,101815.75
71026,9.898,-13.822,0.109,1.918503,0.902396,-4.070619,101818.42
71036,10.042,-14.429,0.243,1.695549,0.922084,-3.919500,101818.42
71046,9.880,-14.509,0.825,1.438540,0.914102,-3.709317,101818.35
71056,9.309,-13.576,1.528,1.204944,0.904524,-3.409739,101819.74
71066,8.910,-12.566,1.717,1.133109,0.924744,-3.028748,101817.59
71076,8.273,-13.869,1.029,1.242192,0.963588,-2.678620,101815.23
71087,7.143,-16.471,-0.327,1.120338,1.017331,-2.455666,101815.23
71096,5.807,-16.678,-1.194,0.533421,1.143973,-2.190675,101820.05
71106,5.286,-15.673,-1.269,-0.167899,1.268487,-1.772437,101819.23
71116,4.559,-15.360,-1.180,-0.708523,1.282854,-1.276511,101818.41
71127,3.934,-15.787,-1.050,-1.085789,1.175368,-0.751851,101818.41
71136,3.520,-15.786,-0.622,-1.337476,1.012542,-0.187814,101818.41
71146,3.957,-14.168,0.084,-1.462522,0.844396,0.425708,101822.41
71156,5.504,-11.237,0.440,-1.309275,0.599093,1.006772,101820.10
71166,6.892,-9.078,0.086,-0.831440,0.213846,1.454808,101819.59
71176,9.736,-2.502,4.809,-0.171092,-0.133090,1.650625,101819.12
71186,15.313,10.823,9.223,0.285458,-0.135751,1.067433,101819.12
71196,17.919,12.857,8.306,0.377513,0.261735,0.450717,101817.38
71206,18.719,4.452,2.736,0.440302,0.128708,0.577892,101817.27
71217,17.045,-1.731,-0.251,0.855880,-0.440649,0.952497,101817.84
71226,14.597,-4.833,0.240,1.085219,-0.619970,1.365414,101817.84
71236,14.709,-4.887,-1.874,1.088412,-0.560374,1.652221,101819.30
71246,10.958,-4.231,-3.434,0.891531,-0.459805,1.766625,101820.23
71256,7.030,-5.919,-1.792,0.640908,-0.238448,1.750129,101820.23
71266,6.422,-8.009,3.833,0.315256,0.050488,1.763432,101819.40
71276,8.044,-9.856,8.823,0.349844,0.173405,1.882093,101819.15
71286,9.949,-7.905,6.945,0.263642,-0.027732,1.908166,101819.15
71291,7.969,-4.818,5.361,0.150302,-0.239512,1.787377,101820.12
71301,6.195,-2.984,5.245,0.112523,-0.269842,1.666056,101817.80
71311,6.082,-2.928,4.846,-0.010927,-0.249090,1.542074,101818.07
71321,7.593,-3.451,3.425,-0.125863,-0.233659,1.467579,101818.23
71331,9.027,-3.099,1.461,-0.085954,-0.241640,1.438313,101818.23
71342,9.331,-3.227,0.424,0.146578,-0.270374,1.422882,101819.76
71351,8.942,-4.295,0.497,0.391348,-0.306026,1.408515,101817.55
71361,8.809,-4.730,1.149,0.500963,-0.320393,1.375524,101816.68
71371,8.543,-4.870,1.698,0.467440,-0.304429,1.304221,101818.52
71382,8.188,-5.433,1.547,0.291311,-0.243237,1.220680,101818.52
71391,8.012,-5.445,1.501,0.052394,-0.161292,1.136607,101818.23
71401,8.104,-4.887,1.741,-0.137037,-0.087329,1.053598,101820.97
71411,8.336,-3.988,2.161,-0.218982,-0.045824,0.997194,101820.14
71421,8.457,-3.650,2.585,-0.209936,-0.046356,0.972185,101816.75
71431,8.465,-3.858,2.647,-0.158853,-0.067108,0.958350,101816.75
71441,8.118,-4.453,2.363,-0.146083,-0.075622,0.934405,101820.70
71451,7.831,-4.828,2.122,-0.221110,-0.042099,0.895029,101820.91
71461,7.923,-4.551,2.167,-0.352541,0.024415,0.852992,101817.47
71472,8.136,-3.931,2.521,-0.430761,0.066983,0.825855,101818.75
71481,8.146,-3.949,2.646,-0.400963,0.046763,0.819469,101818.75
71491,8.103,-4.356,2.460,-0.309440,-0.020815,0.814680,101818.68
71501,7.993,-4.494,2.421,-0.243459,-0.071365,0.805102,101818.12
71512,7.844,-4.300,2.581,-0.214725,-0.096906,0.800313,101818.88
71521,7.803,-4.010,2.608,-0.190780,-0.112338,0.810424,101816.48
71532,7.850,-4.029,2.462,-0.140939,-0.138411,0.837029,101816.48
71541,7.861,-4.455,2.204,-0.074248,-0.171402,0.856185,101821.48
71552,7.744,-5.325,1.779,-0.039661,-0.197475,0.861506,101818.88
71561,7.742,-6.007,1.381,-0.121074,-0.170338,0.840754,101817.22
71571,7.770,-6.090,1.080,-0.246652,-0.113934,0.805102,101818.77
71581,8.125,-5.163,1.395,-0.329661,-0.061787,0.776901,101818.77
71591,7.976,-4.852,1.568,-0.263147,-0.073494,0.774772,101819.41
71602,7.821,-5.057,1.590,-0.181734,-0.092118,0.781158,101816.11
71611,7.638,-5.234,1.651,-0.152468,-0.097971,0.789671,101817.59
71621,7.435,-5.412,1.972,-0.181734,-0.090521,0.785947,101815.80
71631,7.357,-5.428,2.278,-0.241863,-0.071897,0.780093,101815.80
71642,7.468,-5.196,2.432,-0.272725,-0.069237,0.776901,101818.23
71651,7.453,-4.967,2.697,-0.263679,-0.099035,0.784882,101817.77
71661,7.299,-4.921,2.836,-0.228028,-0.133090,0.804038,101817.47
71671,7.198,-5.221,2.660,-0.203551,-0.153842,0.828515,101817.72
71682,7.271,-5.484,2.302,-0.215789,-0.153842,0.850332,101817.72
71692,7.422,-5.685,1.922,-0.251973,-0.142668,0.873745,101819.69
71701,7.586,-6.043,1.522,-0.295073,-0.127237,0.897690,101819.02
71711,7.793,-6.310,1.252,-0.352541,-0.106484,0.914185,101818.05
71721,7.862,-6.291,1.291,-0.420651,-0.080943,0.922699,101818.41
71731,7.836,-6.286,1.513,-0.464817,-0.073494,0.936534,101818.41
71741,7.679,-6.411,1.831,-0.489294,-0.077751,0.949836,101818.60
71751,7.448,-6.616,2.187,-0.535055,-0.066044,0.965268,101819.57
71761,7.700,-6.480,2.082,-0.602101,-0.050613,0.976442,101817.52
71772,7.994,-6.638,1.861,-0.645202,-0.062319,1.001451,101819.73
71781,8.249,-6.672,1.809,-0.685110,-0.082540,1.037102,101819.73
71791,8.586,-6.692,1.765,-0.724486,-0.113402,1.079671,101819.00
71801,8.904,-6.790,1.585,-0.755881,-0.153310,1.130221,101819.00
71812,9.041,-6.862,1.342,-0.786211,-0.195347,1.193542,101817.20
71821,9.229,-6.731,1.214,-0.822394,-0.243769,1.261653,101818.64
71831,9.381,-6.856,1.225,-0.835165,-0.311347,1.338276,101818.64
71841,9.429,-7.160,1.292,-0.841018,-0.383714,1.414368,101821.45
71852,9.336,-7.375,1.431,-0.879862,-0.436393,1.479818,101817.13
71862,9.282,-7.618,1.683,-0.952229,-0.466191,1.533561,101818.16
71871,9.452,-7.970,1.682,-1.046412,-0.469915,1.571873,101816.10
71881,9.831,-8.350,1.504,-1.181568,-0.439053,1.600606,101816.10
71891,10.477,-8.511,1.330,-1.360889,-0.397016,1.615506,101816.76
71902,11.447,-8.593,1.136,-1.572137,-0.357108,1.625084,101815.84
71911,12.641,-8.579,1.090,-1.816907,-0.292723,1.630937,101818.40
71921,14.435,-7.650,1.445,-2.139366,-0.196943,1.648496,101816.40
71931,16.547,-5.407,2.309,-2.429898,-0.148521,1.704368,101816.40
71942,17.768,-3.693,2.815,-2.505458,-0.217163,1.826753,101818.84
71951,18.164,-2.788,3.067,-2.402228,-0.348062,1.982661,101819.60
71961,17.088,-3.077,3.242,-2.239403,-0.487475,2.149744,101814.32
71971,14.821,-5.090,3.583,-1.953660,-0.664668,2.372698,101815.85
71982,12.934,-8.340,4.799,-1.544467,-0.863677,2.642478,101815.85
71992,13.306,-9.493,5.572,-1.193275,-1.029695,2.808496,101818.03
72001,13.397,-9.019,5.621,-1.054394,-1.074392,2.777101,101817.83
72007,12.953,-8.379,5.241,-1.058651,-1.005750,2.684514,101815.72
72016,12.239,-7.446,4.712,-1.077807,-0.910502,2.561597,101815.72
72027,10.831,-6.496,4.100,-1.071954,-0.791842,2.396643,101814.91
72037,9.728,-5.757,3.003,-1.054394,-0.770025,2.206147,101814.91
72046,7.860,-5.258,3.080,-0.909660,-0.840796,1.979469,101818.02
72056,6.569,-5.040,3.593,-0.668082,-0.824833,1.726717,101815.58
72067,5.591,-4.206,3.317,-0.513238,-0.755126,1.338809,101815.91
72077,1.100,-6.694,0.826,-0.618596,-0.554521,0.979634,101815.91
72086,-0.653,-9.607,0.753,-0.945312,-0.159163,0.791268,101815.91
72096,1.765,-5.666,1.662,-1.099623,0.017497,0.394314,101819.35
72107,3.055,-2.463,1.809,-0.941587,0.038781,-0.082457,101818.27
72117,3.248,-0.977,1.803,-0.696284,0.054213,-0.423539,101818.79
72126,3.320,0.406,1.266,-0.415862,0.011644,-0.741741,101817.80
72136,3.239,1.253,0.832,-0.014652,-0.101695,-1.055153,101817.80
72146,3.310,1.240,0.730,0.458394,-0.201732,-1.367502,101820.11
72157,3.660,0.586,0.650,0.919733,-0.262925,-1.672401,101815.33
72167,3.673,-0.449,0.648,1.258687,-0.293255,-1.934199,101814.30
72176,3.482,-1.477,0.610,1.476320,-0.305494,-2.167795,101814.66
72186,3.323,-2.194,0.613,1.603494,-0.308154,-2.396602,101815.69
72197,3.380,-2.810,0.474,1.701934,-0.314007,-2.611574,101812.23
72207,3.507,-3.253,0.701,1.819531,-0.317200,-2.801538,101812.23
72216,3.721,-3.540,1.017,1.966925,-0.305494,-2.976069,101811.16
72226,3.882,-3.984,1.359,2.121769,-0.271439,-3.150602,101810.28
72237,4.024,-4.481,1.802,2.219677,-0.199604,-3.338968,101810.28
72247,4.102,-4.854,2.111,2.236705,-0.100099,-3.540106,101812.87
72256,4.211,-5.142,2.475,2.163274,0.031864,-3.739115,101812.04
72266,4.580,-5.595,2.500,1.993531,0.200543,-3.935463,101814.51
72276,5.185,-6.248,2.471,1.832301,0.392102,-4.121170,101815.70
72287,5.722,-6.931,2.329,1.695549,0.599625,-4.290380,101815.70
72297,6.246,-7.314,1.974,1.624246,0.806084,-4.418619,101815.27
72306,6.876,-7.683,1.663,1.588595,0.997111,-4.480344,101813.97
72316,7.623,-8.219,1.473,1.589127,1.134928,-4.482472,101813.25
72327,8.066,-9.011,1.376,1.628503,1.190799,-4.478215,101813.25
72336,8.218,-10.180,1.392,1.690760,1.195588,-4.495243,101813.25
72346,8.209,-11.569,1.322,1.779622,1.189735,-4.501096,101819.12
72356,8.091,-12.365,1.214,1.849861,1.193460,-4.478215,101816.30
72367,8.189,-12.414,1.097,1.887109,1.224322,-4.436179,101817.12
72377,8.679,-12.097,0.978,1.883384,1.265827,-4.366472,101814.60
72387,9.372,-11.974,0.965,1.860503,1.292964,-4.251536,101814.60
72396,9.738,-12.330,0.819,1.817402,1.291368,-4.103078,101819.07
72407,9.685,-13.119,0.538,1.709916,1.277001,-3.947170,101819.07
72417,9.441,-13.938,0.490,1.501861,1.286579,-3.784344,101818.35
72427,9.138,-14.147,0.716,1.221439,1.325955,-3.578418,101818.35
72436,8.863,-13.615,1.114,0.973476,1.384487,-3.287354,101817.76
72446,9.057,-13.084,1.134,0.895788,1.407900,-2.929244,101817.76
72457,8.728,-13.645,0.278,0.966559,1.366928,-2.608382,101819.60
72467,7.570,-15.797,-0.900,0.933568,1.324359,-2.383299,101818.27
72476,5.861,-16.259,-1.627,0.513201,1.338726,-2.129483,101819.35
72486,5.274,-15.301,-1.677,-0.020505,1.379698,-1.737850,101819.35
72497,5.285,-14.392,-1.448,-0.397771,1.342450,-1.258419,101822.18
72507,5.254,-13.890,-1.445,-0.527605,1.153551,-0.773667,101820.02
72517,5.159,-13.655,-1.771,-0.474927,0.851845,-0.277209,101818.43
72526,4.881,-13.181,-2.121,-0.374358,0.545882,0.254901,101822.05
72537,5.038,-12.177,-2.281,-0.225899,0.253754,0.785947,101822.77
72547,5.604,-11.310,-2.527,0.018871,-0.063384,1.237708,101820.37
72557,7.935,-7.337,0.234,0.380174,-0.339549,1.519726,101819.54
72566,13.243,4.026,2.798,0.773935,-0.627952,1.346790,101819.54
72577,16.624,11.433,8.314,1.311366,-0.560906,0.916313,101818.87
72587,20.609,10.123,5.587,1.602962,-0.515145,0.731139,101818.87
72597,20.775,0.931,-1.852,1.924888,-0.901989,0.984423,101819.91
72602,16.691,-7.351,-4.482,1.957347,-1.136649,1.412772,101821.39
72611,13.138,-10.907,-3.204,1.830705,-1.062154,1.776203,101818.72
72622,10.789,-9.642,-3.048,1.041586,-0.600282,1.852294,101819.75
72632,7.752,-7.767,-0.449,0.142321,-0.091053,1.742680,101819.75
72642,7.034,-7.879,5.403,-0.171624,0.194690,1.750129,101820.20
72651,8.359,-8.139,9.277,0.027385,0.170745,1.855487,101817.17
72662,9.094,-5.951,7.780,0.218412,-0.198539,1.891671,101816.75
72672,6.563,-4.070,5.749,0.310467,-0.519402,1.734166,101818.86
72682,5.645,-4.340,4.469,0.177440,-0.529512,1.552184,101818.86
72691,6.888,-4.535,2.767,-0.106707,-0.439053,1.423414,101818.08
72701,8.712,-3.685,0.740,-0.266872,-0.324649,1.369671,101820.48
72712,9.615,-3.383,-0.607,-0.187055,-0.250686,1.373928,101821.47
72722,9.308,-4.183,-0.239,-0.008798,-0.202264,1.392020,101818.39
72731,8.674,-5.084,0.965,0.148174,-0.172998,1.371267,101818.39
72741,8.212,-5.500,2.129,0.200321,-0.160760,1.287194,101818.98
72752,8.019,-5.367,2.815,0.098156,-0.148521,1.171194,101820.27
72762,7.942,-4.846,3.054,-0.105110,-0.104356,1.058919,101820.42
72772,7.937,-4.318,3.264,-0.302523,-0.037842,0.966332,101819.30
72781,8.099,-3.737,3.216,-0.420119,-0.000595,0.896093,101819.30
72792,8.216,-3.583,2.954,-0.444064,0.002066,0.856717,101819.72
72802,8.327,-3.773,2.811,-0.403092,-0.010173,0.839158,101822.80
72812,8.260,-4.323,2.858,-0.369037,-0.030393,0.826387,101820.08
72821,8.085,-4.650,2.734,-0.387661,-0.034650,0.794460,101818.08
72832,7.937,-4.756,2.430,-0.480248,0.001002,0.751359,101818.08
72842,8.045,-4.494,2.319,-0.627997,0.074078,0.717482,101821.68
72852,8.293,-4.002,2.433,-0.737789,0.131369,0.708791,101818.80
72861,8.514,-3.500,2.699,-0.769183,0.152121,0.725818,101819.16
72871,8.483,-3.430,2.940,-0.684578,0.111681,0.756148,101820.70
72882,8.186,-3.901,3.114,-0.523881,0.027075,0.775304,101820.70
72892,7.703,-4.408,2.997,-0.379679,-0.054338,0.772644,101820.83
72901,7.369,-4.731,2.898,-0.323275,-0.088393,0.750295,101820.06
72911,7.355,-4.923,2.640,-0.340303,-0.082540,0.724754,101818.36
72922,7.550,-5.018,2.260,-0.371165,-0.071365,0.706130,101816.56
72932,7.593,-5.100,2.027,-0.383404,-0.066044,0.694424,101816.56
72942,7.704,-5.154,1.920,-0.406817,-0.045292,0.681121,101820.03
72951,7.724,-5.107,1.956,-0.440339,-0.018154,0.676332,101819.47
72962,8.232,-4.516,2.315,-0.436083,-0.009641,0.682717,101818.19
72972,8.087,-4.453,2.281,-0.294541,-0.067108,0.696552,101815.67
72982,7.740,-5.144,2.093,-0.221642,-0.097439,0.713580,101815.67
72991,7.712,-5.128,2.185,-0.247184,-0.085732,0.724754,101821.32
73001,7.592,-5.039,2.343,-0.277514,-0.079347,0.741781,101819.05
73012,7.524,-5.051,2.549,-0.307844,-0.075090,0.762002,101819.05
73022,7.553,-4.890,2.701,-0.320083,-0.085732,0.787011,101819.52
73031,7.529,-4.736,2.879,-0.291349,-0.113934,0.818405,101819.52
73041,7.416,-4.888,2.900,-0.254101,-0.149053,0.852992,101818.27
73052,7.358,-5.398,2.700,-0.233881,-0.179384,0.881726,101820.02
73062,7.422,-5.844,2.459,-0.261018,-0.186833,0.898754,101819.20
73072,7.533,-6.140,2.233,-0.329661,-0.167145,0.904607,101817.87
73081,7.768,-6.136,1.962,-0.417991,-0.135218,0.910460,101817.87
73092,7.903,-6.093,1.898,-0.494083,-0.102228,0.925359,101819.30
73102,7.908,-6.007,1.735,-0.548358,-0.080943,0.948240,101819.70
73112,7.915,-6.061,1.669,-0.576560,-0.072962,0.980167,101820.47
73121,8.052,-6.165,1.518,-0.604229,-0.082540,1.015818,101816.58
73132,8.043,-6.291,1.679,-0.635092,-0.099035,1.056258,101816.58
73142,8.011,-6.317,2.130,-0.675000,-0.134686,1.094038,101821.41
73152,7.897,-6.436,2.788,-0.715440,-0.179916,1.129157,101819.35
73161,8.007,-6.523,3.198,-0.759605,-0.207585,1.162680,101816.99
73171,8.224,-6.698,3.168,-0.810156,-0.225677,1.198331,101816.48
73182,8.535,-6.795,2.836,-0.864963,-0.251750,1.236111,101816.48
73192,8.688,-6.856,2.288,-0.909128,-0.279420,1.290919,101818.04
73202,8.841,-7.019,1.472,-0.957018,-0.296980,1.356900,101816.35
73211,9.215,-7.069,0.823,-1.028853,-0.327310,1.431396,101818.20
73222,9.698,-7.016,0.684,-1.101752,-0.373071,1.509616,101817.23
73232,10.097,-7.120,0.965,-1.153899,-0.421493,1.598478,101817.23
73242,10.499,-7.337,1.334,-1.212963,-0.459805,1.690533,101819.66
73251,11.009,-7.793,1.542,-1.289055,-0.478429,1.763964,101819.81
73262,11.707,-8.356,1.625,-1.428999,-0.466191,1.815047,101815.28
73272,12.758,-8.629,1.750,-1.643972,-0.413512,1.855487,101816.63
73282,14.231,-8.599,1.925,-1.952063,-0.310282,1.880496,101816.63
73292,16.602,-6.938,2.489,-2.353806,-0.176723,1.918276,101818.79
73302,18.444,-4.391,3.289,-2.663494,-0.121384,2.028423,101820.23
73312,19.196,-2.777,3.456,-2.679990,-0.215567,2.182734,101816.02
73318,18.977,-2.446,3.632,-2.550687,-0.331035,2.305652,101815.76
73327,17.634,-3.359,3.939,-2.342100,-0.473108,2.432826,101815.76
73336,14.657,-6.077,4.485,-1.944614,-0.699787,2.652587,101815.76
73347,12.756,-9.856,5.588,-1.484339,-0.889750,2.893633,101817.72
73357,13.433,-11.128,5.744,-1.242229,-0.997236,2.964936,101818.19
73367,13.666,-10.337,5.373,-1.334284,-0.934447,2.829248,101815.59
73377,13.068,-8.063,4.998,-1.448155,-0.766833,2.638753,101815.59
73387,11.553,-5.577,4.512,-1.421550,-0.650301,2.414202,101818.30
73397,9.629,-4.228,3.210,-1.278412,-0.686484,2.143891,101818.30
73407,6.920,-3.846,3.356,-1.034174,-0.779071,1.886882,101818.66
73417,5.255,-3.630,3.689,-0.722358,-0.766301,1.609120,101816.19
73426,4.340,-2.913,3.552,-0.534523,-0.671053,1.194607,101815.05
73437,0.817,-5.223,0.516,-0.612743,-0.494925,0.780093,101815.05
73447,-1.546,-9.466,-0.267,-0.895825,-0.112338,0.608754,101818.76
73457,0.806,-6.133,1.149,-0.988412,0.074433,0.286828,101820.87
73467,2.116,-2.866,1.279,-0.734064,0.077625,-0.192071,101817.88
73477,2.473,-1.473,1.415,-0.469073,0.126580,-0.552310,101814.02
73487,2.959,0.011,1.369,-0.214725,0.146800,-0.833796,101817.95
73497,3.142,1.040,1.066,0.185422,0.056873,-1.115814,101815.03
73507,3.366,1.157,0.728,0.668045,-0.044760,-1.402089,101813.80
73517,3.551,0.390,0.474,1.047971,-0.091053,-1.684107,101813.80
73527,3.621,-0.635,0.265,1.325733,-0.096906,-1.929942,101815.03
73537,3.408,-1.687,0.169,1.479513,-0.066044,-2.127887,101815.03
73547,3.141,-2.644,0.107,1.552944,-0.024540,-2.294437,101815.52
73556,3.011,-3.364,0.080,1.612540,0.010580,-2.462051,101815.48
73567,2.995,-3.967,0.116,1.688632,0.041442,-2.645629,101811.68
73577,3.120,-4.391,0.320,1.763659,0.085607,-2.833996,101809.52
73587,3.444,-4.568,0.423,1.830173,0.151589,-3.029813,101809.52
73597,3.890,-4.721,0.563,1.881788,0.241515,-3.229354,101813.88
73607,4.316,-4.920,0.824,1.902540,0.340488,-3.421445,101813.09
73617,4.653,-5.304,1.060,1.891898,0.433607,-3.601830,101810.27
73627,4.969,-5.892,1.243,1.847200,0.531515,-3.775298,101810.27
73636,5.218,-6.522,1.355,1.775898,0.646983,-3.930142,101810.27
73647,5.579,-6.910,1.339,1.701934,0.771497,-4.053060,101811.83
73657,6.088,-7.101,1.185,1.657237,0.885368,-4.148307,101815.06
73667,6.653,-7.384,0.902,1.675861,0.958799,-4.228656,101813.00
73677,7.253,-7.922,0.745,1.777494,1.000659,-4.285059,101812.68
73687,7.836,-8.568,0.647,1.885512,1.025313,-4.306876,101812.68
73697,8.355,-9.455,0.446,1.945109,1.043937,-4.303683,101817.20
73707,8.645,-10.468,0.248,1.891898,1.065753,-4.279738,101817.51
73717,8.708,-11.387,0.069,1.759934,1.091295,-4.247812,101817.10
73728,8.712,-12.073,-0.080,1.626907,1.128010,-4.212161,101814.75
73737,8.831,-12.325,-0.190,1.527935,1.183350,-4.166399,101818.75
73747,8.905,-12.290,-0.279,1.438008,1.238157,-4.094564,101819.89
73757,9.012,-12.070,-0.383,1.319348,1.283918,-3.992931,101819.89
73766,9.236,-11.856,-0.481,1.193770,1.313717,-3.855647,101818.23
73777,9.460,-11.972,-0.639,1.085219,1.302010,-3.686436,101816.91
73787,9.363,-12.384,-0.742,0.959641,1.252524,-3.495409,101816.91
73797,8.937,-12.489,-0.511,0.784045,1.190799,-3.271923,101820.33
73807,8.507,-11.879,-0.118,0.608449,1.156212,-3.013317,101819.52
73818,8.281,-11.266,0.065,0.532889,1.151955,-2.737152,101818.69
73827,7.939,-11.619,-0.167,0.591953,1.142909,-2.497171,101817.30
73837,7.308,-12.973,-0.571,0.637715,1.130139,-2.308272,101821.43
73847,6.326,-13.670,-1.222,0.481807,1.120028,-2.089043,101820.40
73858,5.859,-13.539,-1.575,0.173183,1.131735,-1.775098,101820.04
73867,5.736,-13.236,-1.436,-0.157789,1.115772,-1.405814,101817.79
73877,5.703,-13.230,-1.342,-0.387661,1.014671,-1.043447,101817.79
73887,5.366,-13.616,-1.748,-0.488761,0.822579,-0.665117,101817.79
73897,4.817,-13.992,-2.298,-0.501532,0.582598,-0.196328,101822.16
73907,4.768,-13.402,-2.486,-0.410541,0.293130,0.389525,101818.30
73917,5.859,-12.205,-2.084,-0.140762,-0.092118,1.013689,101821.69
73927,7.848,-7.465,3.082,0.343458,-0.453952,1.482478,101817.48
73937,12.518,4.768,9.141,0.766485,-0.555053,1.326038,101817.48
73948,16.666,11.895,11.881,0.908027,-0.131494,0.773176,101817.77
73957,18.294,7.023,6.624,0.762761,0.002066,0.668350,101818.25
73967,18.070,0.861,2.404,0.964430,-0.476833,1.038167,101819.11
73977,15.394,-3.189,0.673,1.004871,-0.784924,1.487799,101819.11
73988,13.330,-5.953,-0.583,1.025623,-0.773750,1.861340,101820.80
73997,10.412,-6.554,-1.775,0.848962,-0.644980,2.010863,101820.80
74007,7.380,-7.249,0.066,0.604724,-0.416704,2.013524,101819.66
74017,7.863,-6.867,4.170,0.400394,-0.174062,1.991175,101818.17
74027,8.383,-6.716,6.702,0.395605,-0.140539,2.002882,101817.92
74033,7.918,-6.763,6.450,0.440834,-0.257604,1.994900,101817.92
74042,6.969,-6.249,5.471,0.410504,-0.394888,1.930515,101821.46
74052,6.295,-5.714,4.118,0.229055,-0.433732,1.770882,101820.38
74062,6.766,-5.249,2.758,-0.101386,-0.337420,1.598478,101817.66
74072,7.805,-4.413,1.500,-0.323275,-0.220888,1.475561,101817.40
74082,8.884,-3.764,0.453,-0.267404,-0.152778,1.415964,101817.40
74092,9.356,-4.062,0.337,-0.033808,-0.144264,1.398937,101823.50
74102,8.967,-5.134,1.044,0.174247,-0.162888,1.384038,101817.28
74113,8.544,-5.740,1.545,0.202449,-0.161292,1.317524,101817.94
74122,8.152,-5.794,1.905,0.026321,-0.103292,1.200460,101817.17
74132,7.928,-5.520,2.405,-0.226963,-0.014429,1.078075,101817.17
74142,7.882,-4.809,2.930,-0.438743,0.057405,0.969524,101820.20
74152,8.054,-4.085,3.112,-0.511110,0.080818,0.888644,101818.30
74162,8.257,-3.670,3.097,-0.449917,0.047295,0.853524,101818.09
74172,8.376,-3.991,3.000,-0.358395,-0.002191,0.830644,101818.00
74182,8.182,-4.518,2.864,-0.325404,-0.026668,0.802974,101818.00
74192,7.967,-4.713,2.772,-0.385532,-0.003787,0.763598,101822.05
74202,7.905,-4.586,2.785,-0.496211,0.047827,0.723158,101819.98
74212,8.066,-4.306,2.817,-0.596780,0.094653,0.697616,101817.27
74222,8.279,-3.967,2.825,-0.631367,0.108488,0.694956,101818.39
74232,8.226,-3.953,2.829,-0.601569,0.093057,0.704534,101818.39
74243,8.018,-4.243,2.823,-0.539312,0.061662,0.710919,101818.15
74252,7.785,-4.513,2.839,-0.484505,0.026011,0.710387,101820.35
74262,7.660,-4.560,2.918,-0.464284,0.003130,0.702405,101819.90
74272,7.606,-4.593,2.968,-0.478651,0.005259,0.692295,101818.04
74281,7.581,-4.569,2.900,-0.493018,0.011112,0.685910,101818.04
74292,7.706,-4.659,2.787,-0.490358,0.007919,0.679525,101821.72
74302,7.653,-4.846,2.552,-0.479183,-0.000063,0.675268,101818.53
74312,7.565,-5.032,2.270,-0.481844,0.004194,0.665690,101818.73
74322,7.926,-4.806,2.292,-0.490890,0.019093,0.657708,101817.75
74332,7.928,-4.517,2.332,-0.422780,-0.010173,0.665158,101817.75
74342,7.750,-4.736,2.333,-0.348284,-0.043696,0.683249,101821.67
74352,7.716,-4.901,2.482,-0.325936,-0.052209,0.699213,101820.39
74362,7.727,-4.976,2.537,-0.331257,-0.053274,0.718369,101819.16
74373,7.663,-5.112,2.612,-0.349349,-0.050613,0.740717,101817.88
74382,7.617,-5.109,2.643,-0.384468,-0.041567,0.765194,101817.88
74392,7.672,-5.067,2.708,-0.416927,-0.033053,0.789139,101819.03
74402,7.657,-5.143,2.751,-0.429697,-0.031989,0.816809,101817.08
74413,7.592,-5.288,2.701,-0.439275,-0.034650,0.842882,101819.39
74422,7.523,-5.470,2.600,-0.453110,-0.031457,0.863102,101814.31
74432,7.478,-5.624,2.416,-0.479183,-0.017090,0.882791,101814.31
74442,7.534,-5.680,2.284,-0.520688,0.005791,0.903543,101821.31
74452,7.578,-5.619,2.349,-0.560596,0.019626,0.930680,101819.61
74462,7.685,-5.380,2.533,-0.577624,0.009515,0.962607,101818.13
74472,7.643,-5.288,2.884,-0.554743,-0.032521,1.000387,101817.30
74482,7.344,-5.665,3.167,-0.505789,-0.083604,1.040827,101817.30
74492,7.103,-6.345,3.118,-0.507385,-0.107549,1.069029,101820.58
74503,7.117,-6.891,2.908,-0.599440,-0.094778,1.079671,101818.94
74512,7.471,-6.912,2.795,-0.731403,-0.066576,1.083928,101815.53
74522,7.899,-6.739,2.628,-0.836229,-0.055402,1.097231,101816.00
74532,8.368,-6.590,2.339,-0.881991,-0.071365,1.124900,101816.00
74543,8.680,-6.845,1.632,-0.899550,-0.102228,1.169598,101817.23
74552,8.871,-7.317,0.899,-0.944780,-0.125108,1.217487,101818.88
74562,9.198,-7.183,0.322,-1.037367,-0.128301,1.269102,101818.00
74572,9.487,-6.882,0.054,-1.117183,-0.144796,1.332955,101815.33
74583,9.782,-6.699,0.015,-1.144321,-0.193750,1.407451,101815.33
74592,10.001,-6.746,0.322,-1.140596,-0.265585,1.490460,101820.41
74602,10.012,-7.051,0.626,-1.146981,-0.331035,1.571873,101817.02
74612,10.089,-7.687,0.808,-1.217220,-0.356044,1.636790,101819.80
74622,10.607,-8.254,0.900,-1.402926,-0.325182,1.684680,101817.69
74632,11.771,-8.626,1.085,-1.702504,-0.252815,1.711285,101817.69
74642,13.402,-8.298,1.506,-2.064871,-0.154906,1.729377,101819.33
74652,15.649,-7.063,2.245,-2.447990,-0.044760,1.755450,101819.17
74662,18.018,-4.277,3.027,-2.783751,0.006855,1.844845,101816.55
74673,19.226,-2.042,3.541,-2.851329,-0.087329,2.015120,101815.38
74682,19.809,-0.742,3.762,-2.611347,-0.304961,2.213597,101815.38
74692,19.062,-1.730,3.824,-2.212797,-0.590704,2.443468,101817.31
74702,17.095,-4.915,3.940,-1.679623,-0.958924,2.713248,101815.20
74713,15.212,-9.062,4.941,-1.113458,-1.295218,2.966532,101816.70
74722,14.276,-11.529,5.582,-0.737257,-1.466557,3.081468,101814.44
74732,13.579,-11.903,5.706,-0.697881,-1.432502,3.033046,101814.44
74742,12.835,-9.917,5.331,-0.911789,-1.255841,2.852129,101817.78
74747,12.127,-8.280,4.746,-1.029917,-1.123878,2.704734,101817.22
74758,11.315,-7.020,4.018,-0.999587,-1.083970,2.546165,101817.22
74768,9.812,-5.418,3.292,-0.913917,-1.122282,2.241267,101816.55
74777,7.408,-4.276,3.170,-0.867091,-1.068539,1.858148,101815.52
74787,5.632,-2.716,3.407,-0.842614,-0.917420,1.437249,101815.52
74798,3.819,-2.425,2.888,-0.799514,-0.788649,0.979102,101816.15
74808,-0.470,-6.242,0.073,-0.882523,-0.579530,0.644405,101813.71
74817,-2.495,-9.547,0.622,-1.262981,-0.228338,0.509249,101817.66
74827,-0.157,-6.183,2.306,-1.269367,-0.071365,0.135708,101817.66
74838,1.417,-3.201,2.524,-0.978835,-0.052741,-0.380438,101817.66
74848,1.370,-1.634,2.737,-0.669679,-0.011237,-0.745997,101818.43
74857,1.316,-0.421,2.499,-0.380743,0.037185,-1.074309,101815.80
74868,1.480,0.841,2.034,-0.033098,0.001002,-1.405636,101814.26
74877,1.880,1.594,1.840,0.362614,-0.075090,-1.658566,101814.26
74888,2.683,1.527,1.656,0.828210,-0.149053,-1.893758,101814.26
74898,2.946,0.577,1.527,1.210265,-0.215567,-2.130015,101814.47
74907,3.111,-0.693,1.418,1.485366,-0.211842,-2.372657,101814.31
74917,3.107,-2.018,1.196,1.596577,-0.149585,-2.593482,101810.92
74928,3.118,-3.292,1.048,1.550815,-0.033053,-2.813244,101810.92
74938,3.317,-4.082,0.784,1.429494,0.079754,-3.027684,101816.74
74947,3.444,-4.364,0.643,1.315091,0.169148,-3.219244,101816.74
74957,3.635,-4.298,0.708,1.281036,0.234598,-3.389519,101815.24
74968,4.065,-4.299,0.917,1.367769,0.281956,-3.543831,101814.79
74977,4.551,-4.516,1.255,1.539109,0.313882,-3.688565,101811.60
74988,4.981,-4.846,1.913,1.742020,0.354323,-3.842699,101814.02
74997,5.380,-5.394,2.330,1.893494,0.397956,-3.967390,101814.02
75008,5.681,-6.277,2.597,2.003641,0.471919,-4.109463,101815.66
75018,5.805,-7.104,2.828,2.025457,0.586322,-4.247280,101815.55
75028,6.168,-7.507,2.925,1.978631,0.729460,-4.364876,101812.21
75037,6.773,-7.621,3.095,1.969054,0.860891,-4.442564,101816.58
75047,7.411,-7.833,3.213,2.078668,0.948157,-4.481408,101814.33
75058,7.970,-8.381,3.000,2.253200,0.993918,-4.497903,101815.05
75067,8.540,-9.188,2.691,2.373989,1.040744,-4.508545,101815.05
75077,9.200,-10.155,2.467,2.359090,1.110983,-4.523977,101814.27
75087,9.825,-11.380,2.184,2.198393,1.198781,-4.534087,101814.27
75098,10.080,-13.023,1.834,1.941384,1.309992,-4.534619,101818.30
75108,9.800,-14.517,1.280,1.622118,1.466964,-4.536747,101814.90
75117,9.295,-15.270,0.565,1.244852,1.678744,-4.509078,101815.12
75127,9.200,-15.294,-0.015,0.899513,1.902230,-4.398931,101818.91
75138,9.597,-15.204,-0.401,0.654742,2.063991,-4.195665,101818.91
75148,9.811,-15.440,-0.214,0.488724,2.093789,-3.918968,101820.47
75158,9.244,-15.294,0.235,0.324302,2.003331,-3.570436,101818.45
75167,8.486,-14.049,0.509,0.263642,1.884138,-3.102180,101817.53
75177,8.554,-12.779,-0.316,0.345587,1.773459,-2.563152,101817.53
75188,8.220,-13.489,-1.527,0.534486,1.599459,-2.114584,101817.53
75197,7.226,-14.757,-3.204,0.595146,1.388212,-1.825648,101820.31
75207,6.270,-15.131,-4.214,0.377513,1.175900,-1.511703,101820.63
75217,5.620,-14.765,-4.149,0.102413,0.942304,-1.042383,101820.20
75228,5.252,-14.223,-3.598,0.022064,0.626763,-0.481007,101821.23
75237,5.160,-14.056,-3.385,0.129018,0.240451,0.080901,101821.23
75247,4.993,-13.991,-3.748,0.247678,-0.106484,0.613011,101820.07
75257,5.565,-13.099,-1.629,0.337605,-0.311347,1.103616,101821.51
75268,8.033,-8.944,0.359,0.608981,-0.481622,1.496313,101819.04
75278,12.290,2.203,6.848,0.850559,-0.603475,1.452680,101819.04
75288,17.674,9.865,8.515,0.997421,-0.326778,0.914185,101820.64
75297,19.413,5.912,4.519,0.921862,-0.261328,0.786479,101818.89
75308,18.583,-1.628,-1.252,0.944210,-0.606668,1.112662,101818.89
75318,14.174,-6.225,-1.011,0.996357,-0.847713,1.630405,101817.81
75327,11.918,-6.713,0.327,1.019770,-0.698723,1.927854,101820.91
75337,9.076,-7.308,2.159,0.890467,-0.508227,2.019377,101820.91
75343,7.270,-8.778,4.260,1.001678,-0.425750,2.101322,101820.76
75353,7.854,-9.536,4.485,1.068192,-0.408191,2.188056,101819.82
75363,7.890,-8.011,4.311,0.836724,-0.495989,2.180606,101818.90
75372,6.422,-6.365,4.714,0.419550,-0.503438,2.008735,101817.82
75382,5.832,-6.078,4.412,-0.107771,-0.353916,1.795891,101817.82
75393,6.552,-5.582,2.760,-0.648926,-0.176723,1.599010,101822.43
75403,8.122,-3.872,0.905,-0.914449,-0.052209,1.467579,101818.01
75412,9.410,-2.690,0.339,-0.725550,-0.029861,1.422882,101818.26
75422,9.679,-3.132,0.414,-0.365844,-0.081475,1.442570,101818.57
75432,9.285,-3.806,0.912,-0.059349,-0.136283,1.441506,101818.57
75443,8.510,-4.642,1.732,0.158284,-0.161824,1.367010,101820.91
75453,7.649,-5.871,2.136,0.176908,-0.167677,1.227065,101820.64
75463,7.429,-6.297,2.640,-0.032034,-0.090166,1.030007,101817.45
75472,7.729,-5.852,2.829,-0.257294,0.015369,0.864167,101816.06
75483,8.154,-4.719,2.570,-0.408945,0.088268,0.728479,101816.06
75493,8.449,-3.883,2.290,-0.408945,0.105295,0.667286,101819.71
75502,8.583,-3.747,2.363,-0.312101,0.069644,0.661965,101819.40
75512,8.574,-4.237,2.636,-0.222707,0.021222,0.661433,101817.04
75523,8.203,-4.848,3.102,-0.245055,0.007387,0.640148,101819.20
75533,8.006,-4.597,3.479,-0.376486,0.044103,0.600772,101819.20
75542,8.020,-4.080,3.636,-0.520688,0.094121,0.571506,101819.29
75552,8.325,-3.806,3.384,-0.607422,0.114341,0.572038,101819.40
75563,8.570,-3.661,3.162,-0.623917,0.102635,0.602369,101820.84
75573,8.464,-3.840,3.040,-0.597312,0.071772,0.644937,101819.09
75583,8.069,-4.391,3.028,-0.561306,0.031509,0.677751,101819.09
75592,7.659,-4.660,3.015,-0.553679,0.005791,0.685378,101820.17
75602,7.376,-4.432,3.098,-0.578156,-0.002723,0.690167,101818.31
75613,7.443,-4.063,3.299,-0.602101,0.002066,0.693892,101817.28
75623,7.576,-4.097,3.274,-0.576560,-0.011769,0.708259,101818.98
75632,7.586,-4.450,2.831,-0.519624,-0.037842,0.716772,101818.98
75642,7.453,-4.994,2.296,-0.491422,-0.046888,0.713580,101820.45
75653,7.612,-5.076,2.003,-0.520688,-0.026136,0.705066,101819.68
75663,7.932,-4.797,1.813,-0.483972,-0.035714,0.700809,101817.98
75672,7.858,-4.754,1.636,-0.375954,-0.077751,0.704002,101816.74
75682,7.777,-4.890,1.768,-0.290284,-0.110209,0.713048,101816.74
75693,7.600,-4.913,1.965,-0.233349,-0.130962,0.724222,101820.55
75703,7.432,-4.920,2.312,-0.216853,-0.130962,0.736992,101818.55
75712,7.272,-4.701,2.863,-0.213129,-0.126173,0.754020,101820.20
75722,7.107,-4.534,3.337,-0.182266,-0.143200,0.777965,101818.24
75732,6.913,-4.669,3.520,-0.131184,-0.177255,0.807763,101818.24
75743,6.865,-5.108,3.321,-0.103514,-0.207585,0.832240,101819.19
75753,6.975,-5.660,2.873,-0.134908,-0.206521,0.847671,101819.66
75762,7.268,-6.248,2.284,-0.222174,-0.172998,0.851396,101818.17
75772,7.717,-6.247,1.711,-0.345624,-0.119255,0.852460,101817.66
75783,7.924,-5.926,1.472,-0.429697,-0.072429,0.863635,101817.66
75793,8.021,-5.697,1.256,-0.455771,-0.055934,0.891836,101822.38
75802,8.139,-5.646,1.246,-0.446193,-0.069769,0.932277,101820.27
75812,8.171,-5.761,1.415,-0.424908,-0.097971,0.977506,101819.45
75823,8.107,-5.847,1.831,-0.418523,-0.143200,1.020075,101817.03
75833,7.927,-6.148,2.280,-0.417991,-0.178319,1.056258,101817.03
75843,7.758,-6.462,2.756,-0.440339,-0.196943,1.081800,101820.01
75852,7.715,-6.468,3.082,-0.499404,-0.210246,1.097763,101818.98
75863,7.825,-6.527,3.216,-0.552615,-0.216631,1.118515,101819.34
75873,8.068,-6.691,2.908,-0.591459,-0.234191,1.150442,101817.18
75883,8.330,-6.911,2.307,-0.639349,-0.255475,1.187157,101817.18
75892,8.542,-6.935,1.650,-0.713312,-0.264521,1.230258,101819.38
75902,8.816,-6.821,1.021,-0.792064,-0.279952,1.281873,101818.92
75913,9.246,-6.571,0.824,-0.836229,-0.332631,1.349983,101819.28
75923,9.447,-6.487,1.037,-0.845807,-0.407126,1.430331,101817.94
75932,9.545,-6.769,1.470,-0.830376,-0.483218,1.515469,101817.94
75942,9.599,-7.274,1.747,-0.847935,-0.534301,1.588368,101820.21
75953,9.698,-7.666,2.007,-0.932541,-0.541750,1.647432,101821.09
75963,10.046,-7.826,2.199,-1.064504,-0.521530,1.690001,101819.07
75973,10.623,-8.088,2.093,-1.218284,-0.495457,1.724588,101815.52
75982,11.286,-8.403,1.770,-1.400798,-0.453952,1.748001,101815.52
75993,12.108,-8.419,1.479,-1.654082,-0.375732,1.732570,101819.15
76003,13.377,-7.893,1.567,-1.982926,-0.254411,1.711285,101818.99
76013,15.465,-6.114,2.616,-2.365513,-0.133622,1.716074,101817.76
76022,17.234,-3.176,3.777,-2.625714,-0.101163,1.814515,101815.55
76033,17.269,-2.240,3.625,-2.578357,-0.198007,2.016184,101815.55
76043,16.742,-3.103,3.566,-2.343696,-0.360301,2.247120,101818.32
76053,15.174,-5.899,4.285,-2.040926,-0.551328,2.525413,101817.65
76058,13.990,-8.412,5.713,-1.740816,-0.686484,2.772844,101819.04
76067,14.561,-9.761,6.595,-1.457733,-0.793438,2.957486,101819.04
76078,15.151,-10.001,6.167,-1.245422,-0.876979,3.029853,101815.43
76088,14.275,-9.549,5.376,-1.301293,-0.786521,2.932477,101815.43
76098,12.706,-8.228,4.742,-1.468375,-0.571548,2.770716,101818.82
76108,11.165,-6.911,3.953,-1.536486,-0.406594,2.599376,101818.98
76118,9.999,-5.896,3.011,-1.484871,-0.406062,2.397707,101817.23
76128,8.340,-5.172,3.539,-1.250211,-0.478961,2.149212,101817.23
76138,6.576,-4.681,3.930,-0.895825,-0.465126,1.852294,101817.23
76147,5.202,-4.160,2.872,-0.730871,-0.392227,1.428203,101820.02
76157,1.216,-7.721,-0.279,-0.857513,-0.185237,1.083928,101819.30
76168,-0.526,-11.076,-0.258,-1.056522,0.136690,0.966864,101818.22
76178,1.697,-7.028,0.881,-0.897599,0.241870,0.565653,101818.91
76187,2.585,-4.516,0.795,-0.587734,0.235662,0.144222,101818.91
76197,2.324,-3.121,0.768,-0.247716,0.254286,-0.185686,101818.70
76208,2.425,-1.773,0.414,0.016743,0.261203,-0.467704,101815.63
76218,2.661,-0.748,0.046,0.290779,0.229277,-0.716199,101816.23
76228,2.942,-0.534,-0.179,0.631330,0.209057,-0.939153,101816.85
76238,3.197,-1.131,-0.304,0.938357,0.219167,-1.151465,101817.99
76248,3.438,-2.010,-0.291,1.201751,0.230341,-1.365373,101816.65
76258,3.363,-2.934,-0.368,1.405549,0.242047,-1.570235,101816.65
76268,2.885,-3.731,-0.408,1.526338,0.270249,-1.774566,101814.49
76277,2.364,-4.343,-0.429,1.580613,0.323460,-1.983153,101814.24
76288,1.947,-4.583,-0.505,1.602430,0.389442,-2.174712,101814.24
76299,1.764,-4.676,-0.616,1.617861,0.461809,-2.374076,101814.13
76308,1.759,-4.636,-0.684,1.599237,0.540029,-2.544528,101814.13
76318,1.910,-4.449,-0.525,1.561990,0.650708,-2.732895,101811.71
76327,2.312,-4.153,-0.303,1.534320,0.769368,-2.922326,101811.04
76338,2.728,-3.836,-0.147,1.514632,0.872597,-3.104840,101811.04
76348,3.130,-3.725,-0.172,1.508246,0.958799,-3.270858,101814.66
76358,3.537,-3.818,-0.312,1.490687,1.042341,-3.422510,101811.63
76368,3.928,-4.155,-0.540,1.453971,1.122157,-3.564583,101810.09
76378,4.181,-4.508,-0.698,1.408210,1.192928,-3.694950,101810.09
76388,4.349,-4.792,-0.772,1.386393,1.241882,-3.808289,101810.09
76398,4.447,-5.143,-0.808,1.411935,1.263698,-3.909922,101816.52
76407,4.601,-5.626,-0.937,1.462485,1.269019,-4.013683,101817.95
76418,4.953,-6.114,-1.040,1.491751,1.274873,-4.123298,101814.72
76428,5.440,-6.555,-1.091,1.498136,1.274340,-4.231849,101814.05
76438,5.996,-7.013,-1.109,1.541769,1.245606,-4.313262,101814.05
76448,6.523,-7.847,-1.212,1.627439,1.175900,-4.359555,101818.62
76457,6.880,-9.120,-1.472,1.732265,1.087570,-4.371793,101815.32
76468,7.255,-10.336,-1.840,1.780687,1.016799,-4.364344,101816.59
76478,7.706,-11.380,-2.188,1.747164,0.972102,-4.338803,101816.59
76488,8.251,-12.357,-2.298,1.635421,0.942304,-4.290913,101816.73
76497,8.805,-13.208,-2.043,1.474724,0.914102,-4.215353,101816.73
76508,9.252,-14.088,-1.674,1.326265,0.859295,-4.102546,101817.09
76518,9.439,-14.957,-1.367,1.217715,0.780010,-3.948766,101818.33
76528,9.288,-15.512,-1.004,1.105971,0.703919,-3.756675,101816.58
76537,8.899,-15.634,-0.475,0.985715,0.634744,-3.511904,101816.58
76548,8.200,-14.861,0.326,0.887274,0.571955,-3.170822,101821.95
76558,7.536,-13.597,1.165,0.877164,0.538433,-2.712675,101820.51
76568,7.285,-12.990,1.450,1.016045,0.503845,-2.209299,101816.55
76578,6.795,-13.778,0.328,1.212393,0.466598,-1.777758,101815.22
76588,5.567,-16.271,-1.209,1.291146,0.418176,-1.482437,101822.27
76598,4.295,-17.138,-2.110,0.946871,0.439460,-1.187117,101821.80
76608,4.254,-16.761,-1.908,0.402522,0.516616,-0.768878,101821.39
76618,4.610,-16.242,-1.661,-0.017844,0.513423,-0.280401,101821.39
76627,5.485,-15.146,1.699,-0.140762,0.427754,0.191580,101818.00
76638,8.880,-9.537,5.013,-0.054560,0.240983,0.713580,101818.00
76648,19.487,8.942,12.045,0.023128,0.245240,0.665690,101817.79
76658,25.805,16.389,10.226,-0.187055,0.467662,0.279378,101815.23
76667,23.282,3.286,2.224,0.105073,0.066983,0.822662,101816.87
76678,15.032,-5.136,-0.232,0.662724,-0.636466,1.711285,101818.73
76688,9.343,-4.682,1.161,0.870779,-0.715218,2.072588,101818.73
76698,8.324,-4.550,1.044,0.572798,-0.450760,2.048643,101821.34
76708,6.719,-6.218,3.429,0.422743,-0.293255,1.973083,101819.57
76718,5.807,-8.513,8.046,0.523311,-0.150650,2.047579,101818.90
76728,8.492,-9.677,7.218,0.581843,-0.200668,2.222643,101818.90
76738,8.249,-8.346,3.947,0.354100,-0.546539,2.158790,101818.90
76748,6.351,-7.098,3.106,0.031642,-0.588576,1.926790,101821.29
76758,6.408,-5.430,2.675,-0.389257,-0.410319,1.721928,101823.24
76768,7.638,-3.676,1.081,-0.573367,-0.296448,1.587836,101821.09
76778,8.905,-3.227,-0.321,-0.342431,-0.280484,1.542074,101822.21
76788,9.540,-4.381,-0.192,0.073679,-0.315071,1.536221,101822.21
76798,9.284,-5.045,0.617,0.331220,-0.346466,1.517065,101822.14
76808,8.374,-4.773,1.827,0.416889,-0.348594,1.435120,101819.20
76818,7.656,-5.002,2.554,0.352504,-0.301237,1.314864,101819.23
76828,7.322,-5.966,2.664,0.073679,-0.184172,1.173854,101819.23
76838,7.448,-6.245,2.333,-0.276450,-0.034118,1.020075,101819.92
76848,7.934,-5.251,2.203,-0.499936,0.081350,0.885983,101819.83
76858,8.230,-4.287,2.519,-0.537183,0.112213,0.816277,101819.83
76868,8.497,-3.928,2.709,-0.456835,0.082947,0.789671,101816.64
76878,8.377,-4.161,2.876,-0.381275,0.055809,0.770515,101816.42
76888,8.264,-4.470,3.007,-0.386064,0.059534,0.741781,101816.42
76898,8.154,-4.508,3.011,-0.471202,0.086139,0.704534,101821.43
76908,8.203,-4.225,2.970,-0.536119,0.115937,0.683781,101821.90
76918,8.111,-4.204,2.889,-0.556339,0.119662,0.688038,101819.68
76929,8.093,-4.391,2.760,-0.541972,0.102635,0.696020,101818.60
76938,7.970,-4.441,2.755,-0.513771,0.077093,0.703470,101817.88
76948,7.688,-4.441,2.744,-0.467477,0.039846,0.715176,101819.17
76958,7.489,-4.530,2.781,-0.424908,0.008451,0.722093,101816.91
76968,7.521,-4.636,2.860,-0.419055,-0.004852,0.725818,101818.50
76978,7.727,-4.835,2.852,-0.436615,-0.000063,0.721029,101818.50
76988,7.728,-5.034,2.564,-0.449917,0.012176,0.714112,101818.50
76998,7.625,-5.302,2.092,-0.458963,0.026543,0.699213,101818.81
77008,7.617,-5.428,1.800,-0.503661,0.049956,0.683781,101821.33
77014,7.964,-4.828,2.023,-0.531862,0.069112,0.685910,101819.33
77023,7.876,-4.669,1.992,-0.451514,0.043038,0.696552,101818.77
77033,7.533,-4.821,1.917,-0.335514,-0.003787,0.720497,101818.77
77043,7.400,-5.264,1.999,-0.291881,-0.025604,0.735396,101818.24
77053,7.437,-5.401,2.282,-0.316358,-0.015494,0.743378,101818.55
77063,7.407,-5.380,2.623,-0.358927,0.002598,0.747102,101820.98
77073,7.363,-5.468,2.770,-0.387661,0.013240,0.752424,101815.32
77083,7.483,-5.453,2.805,-0.429165,0.025479,0.761469,101815.32
77093,7.624,-5.314,2.821,-0.462688,0.032396,0.775304,101818.62
77103,7.741,-5.179,2.676,-0.466413,0.023882,0.801910,101819.38
77113,7.706,-5.356,2.496,-0.455771,0.001534,0.842350,101817.38
77123,7.704,-5.576,2.345,-0.464817,-0.014429,0.885451,101816.05
77133,7.787,-5.709,2.288,-0.504725,-0.009108,0.929084,101816.05
77144,7.856,-5.905,2.250,-0.552615,-0.000595,0.971121,101820.98
77153,7.923,-6.085,2.224,-0.609018,0.008451,1.011029,101817.55
77163,8.080,-6.112,2.145,-0.667018,0.012176,1.047212,101817.23
77173,8.189,-6.253,2.009,-0.709055,0.000470,1.083396,101815.64
77182,8.283,-6.470,1.843,-0.734596,-0.027732,1.116387,101815.64
77193,8.370,-6.581,1.892,-0.767587,-0.062319,1.145653,101819.64
77203,8.374,-6.583,1.899,-0.801110,-0.100099,1.173854,101821.33
77213,8.497,-6.751,1.869,-0.827183,-0.133622,1.207377,101818.52
77223,8.753,-6.806,1.855,-0.865495,-0.169806,1.244625,101817.69
77233,8.936,-6.757,1.863,-0.908064,-0.208650,1.289322,101817.69
77243,8.986,-6.658,1.746,-0.941587,-0.248026,1.343598,101819.09
77253,8.991,-6.575,1.510,-0.974578,-0.288466,1.410111,101819.16
77263,9.185,-6.573,1.370,-1.008101,-0.343273,1.481414,101819.00
77273,9.390,-6.712,1.461,-1.052266,-0.401273,1.556973,101817.25
77283,9.524,-7.039,1.549,-1.125697,-0.435860,1.626148,101817.25
77293,9.933,-7.366,1.521,-1.250743,-0.431604,1.688937,101819.59
77303,10.736,-7.823,1.353,-1.430064,-0.400209,1.745872,101820.20
77314,11.902,-8.198,1.258,-1.681751,-0.342209,1.755983,101816.97
77323,13.376,-8.077,1.470,-2.021770,-0.244833,1.753322,101814.55
77333,15.395,-6.589,2.306,-2.437347,-0.116595,1.768221,101814.55
77343,17.228,-3.888,3.509,-2.783219,-0.026668,1.868790,101819.04
77353,18.249,-2.032,3.941,-2.830577,-0.088393,2.033212,101820.41
77363,18.522,-1.870,3.961,-2.594852,-0.276760,2.220514,101816.52
77369,17.830,-2.920,3.738,-2.322944,-0.471512,2.396111,101817.18
77378,16.180,-5.011,3.923,-1.964834,-0.714686,2.610019,101817.18
77388,14.343,-8.367,5.528,-1.443898,-1.019053,2.884055,101817.18
77399,14.374,-10.992,6.429,-1.081000,-1.197842,3.029321,101818.59
77409,14.569,-11.499,5.891,-1.037899,-1.226043,2.994734,101815.25
77418,13.621,-10.073,5.672,-1.183697,-1.081842,2.825523,101815.53
77428,12.277,-8.549,5.151,-1.216688,-0.884429,2.668551,101815.53
77438,10.608,-7.612,3.459,-1.157623,-0.841328,2.515835,101820.53
77448,8.210,-6.990,3.392,-0.975110,-0.877512,2.320019,101820.53
77458,6.262,-6.236,3.608,-0.831440,-0.817915,1.993836,101817.95
77468,5.888,-4.495,3.098,-0.789403,-0.714686,1.562295,101816.67
77478,1.576,-5.241,0.878,-0.925091,-0.498649,1.100955,101818.17
77488,-1.152,-8.980,0.436,-1.285330,-0.004852,0.883855,101818.17
77498,0.976,-5.874,1.813,-1.408247,0.258011,0.612479,101817.21
77508,2.320,-2.187,1.778,-1.210834,0.322928,0.139433,101817.16
77518,2.020,-0.511,1.935,-0.958614,0.395827,-0.246346,101815.30
77529,2.002,0.803,1.495,-0.645734,0.428818,-0.559227,101815.21
77539,2.203,1.694,0.830,-0.228560,0.354323,-0.905630,101818.33
77548,2.424,1.648,0.300,0.253000,0.269717,-1.241392,101815.09
77558,2.624,1.021,-0.064,0.691458,0.228213,-1.529263,101816.33
77569,2.699,-0.043,-0.245,1.002210,0.234066,-1.778823,101816.33
77578,2.681,-1.077,-0.271,1.207072,0.265460,-1.999648,101813.23
77588,2.832,-1.726,-0.429,1.329990,0.301112,-2.218345,101813.23
77598,3.104,-2.192,-0.686,1.395971,0.333570,-2.432786,101814.05
77608,3.396,-2.415,-0.763,1.458583,0.359998,-2.659287,101813.16
77618,3.616,-2.514,-0.799,1.542302,0.375075,-2.847299,101813.16
77628,3.738,-2.768,-0.753,1.679586,0.397956,-3.040455,101811.13
77638,3.799,-3.148,-0.362,1.837622,0.442653,-3.223500,101811.13
77648,3.955,-3.626,0.285,1.958943,0.508634,-3.401225,101814.41
77659,4.237,-4.291,0.713,2.038228,0.566634,-3.589592,101812.35
77669,4.633,-5.003,0.929,2.055787,0.637405,-3.791794,101809.48
77678,5.127,-5.745,1.023,2.014283,0.729460,-3.989207,101809.48
77688,5.546,-6.478,0.924,1.945641,0.839607,-4.179170,101809.48
77699,5.984,-6.950,0.799,1.836026,0.977423,-4.341995,101816.73
77708,6.561,-7.237,0.790,1.718430,1.110451,-4.468637,101815.23
77718,7.201,-7.610,0.794,1.692889,1.187606,-4.573463,101813.90
77728,7.869,-8.304,0.498,1.758870,1.219533,-4.663922,101815.07
77739,8.554,-9.163,0.098,1.829109,1.244542,-4.736821,101815.07
77749,9.216,-9.996,-0.090,1.782283,1.286047,-4.774601,101817.51
77758,9.835,-10.706,-0.221,1.604558,1.330744,-4.795353,101817.80
77768,10.382,-11.477,-0.230,1.407146,1.349368,-4.819298,101817.80
77778,10.777,-12.297,-0.202,1.306045,1.354689,-4.833133,101814.90
77789,10.947,-12.990,-0.049,1.286357,1.367460,-4.795885,101816.48
77798,10.924,-13.446,0.168,1.282632,1.381294,-4.685738,101819.73
77808,11.012,-13.433,0.203,1.291678,1.378102,-4.500032,101819.73
77818,11.153,-13.108,0.443,1.321476,1.356817,-4.251536,101818.02
77829,11.038,-12.614,1.038,1.357127,1.299882,-3.933335,101817.05
77838,10.664,-12.155,1.286,1.376815,1.211551,-3.556601,101817.05
77848,10.210,-12.258,0.789,1.386393,1.148230,-3.163372,101820.33
77858,9.263,-13.928,-0.767,1.372558,1.161001,-2.843042,101818.69
77869,7.897,-16.308,-2.245,1.125660,1.197717,-2.666382,101820.13
77879,6.343,-16.191,-2.987,0.518522,1.226983,-2.443428,101816.94
77888,5.875,-15.266,-2.942,-0.053496,1.182817,-2.004437,101816.94
77898,5.252,-15.219,-2.842,-0.330725,0.968909,-1.376548,101821.13
77908,4.669,-15.397,-2.702,-0.395110,0.601221,-0.642768,101822.55
77919,4.258,-15.003,-2.412,-0.382872,0.197882,0.121874,101819.72
77928,3.957,-13.756,-2.084,-0.351477,-0.107549,0.839690,101819.72
77938,4.055,-12.123,-1.906,-0.175349,-0.368282,1.396276,101819.72
77948,4.346,-10.842,-2.098,0.130614,-0.643383,1.743744,101822.95
77959,5.922,-4.980,4.755,0.508412,-0.742356,1.808129,101820.91
77968,10.305,5.276,12.152,0.600467,-0.299640,1.222809,101817.61
77978,15.350,7.868,11.319,0.064101,0.495332,0.564057,101815.55
77988,18.515,3.375,5.479,-0.395642,0.552267,0.444332,101815.55
77999,18.419,-2.781,2.739,-0.313697,0.089864,0.616203,101819.57
78009,17.051,-6.919,2.360,-0.069459,-0.217695,1.160552,101820.68
78018,16.741,-4.464,-0.208,0.318981,-0.440117,1.632001,101821.68
78028,10.714,-2.714,-1.855,0.728174,-0.581659,1.826221,101821.68
78039,6.209,-4.739,-0.609,0.948999,-0.514613,1.884753,101822.33
78048,6.511,-6.956,2.751,0.781917,-0.330503,1.853359,101822.33
78058,7.630,-8.266,6.462,0.520651,-0.185237,1.822496,101820.89
78068,8.441,-8.169,6.569,0.270559,-0.179916,1.807065,101818.42
78078,7.441,-6.200,4.913,-0.049771,-0.265585,1.704900,101818.17
78084,6.405,-5.005,3.941,-0.297734,-0.267182,1.585175,101818.17
78094,6.685,-4.337,3.193,-0.505257,-0.217163,1.476093,101820.67
78103,8.275,-3.249,2.325,-0.569642,-0.177787,1.394680,101818.94
78113,9.455,-2.580,1.546,-0.342431,-0.209714,1.393084,101819.91
78124,9.470,-3.280,1.400,0.015147,-0.305494,1.423414,101816.20
78134,8.605,-4.433,1.634,0.274816,-0.386374,1.431396,101816.20
78143,7.836,-5.264,2.025,0.330688,-0.387438,1.372864,101819.95
78153,7.645,-5.761,2.202,0.168394,-0.319328,1.264313,101817.44
78163,7.975,-5.762,1.980,-0.114156,-0.212906,1.147781,101817.95
78174,8.188,-4.923,2.015,-0.332321,-0.113934,1.049341,101821.23
78183,8.219,-4.015,2.307,-0.375422,-0.061255,0.986552,101821.23
78193,8.289,-3.533,2.763,-0.309973,-0.081475,0.960479,101819.32
78203,8.081,-3.718,3.144,-0.228028,-0.134686,0.944515,101819.12
78214,7.845,-4.457,3.101,-0.172688,-0.163952,0.917910,101820.15
78224,7.602,-4.985,2.894,-0.196101,-0.156503,0.870552,101817.07
78233,7.657,-4.830,2.604,-0.305184,-0.108081,0.813616,101817.07
78243,7.963,-4.422,2.292,-0.428633,-0.035714,0.780093,101819.41
78254,8.364,-3.837,2.203,-0.489826,0.012176,0.781690,101818.73
78264,8.379,-3.727,2.429,-0.464284,0.008451,0.808295,101817.88
78273,8.028,-4.115,2.575,-0.385532,-0.029329,0.834369,101819.16
78283,7.660,-4.712,2.681,-0.299862,-0.076686,0.827983,101819.16
78294,7.527,-5.045,2.615,-0.249312,-0.113402,0.796589,101821.94
78304,7.565,-5.207,2.342,-0.247184,-0.120851,0.760937,101819.72
78313,7.785,-5.130,2.002,-0.287624,-0.107017,0.738057,101820.80
78324,8.050,-5.048,1.810,-0.316535,-0.084491,0.729188,101816.95
78333,8.063,-4.998,1.771,-0.329661,-0.066044,0.729011,101816.95
78344,7.848,-5.041,1.887,-0.325936,-0.061787,0.728479,101819.35
78353,7.564,-5.242,2.004,-0.311569,-0.065512,0.720497,101820.59
78363,7.544,-5.267,2.178,-0.316358,-0.060191,0.702405,101818.68
78373,7.386,-5.140,2.254,-0.279642,-0.074026,0.684314,101817.20
78384,7.338,-5.346,2.150,-0.254633,-0.076154,0.675268,101817.20
78394,7.412,-5.441,2.102,-0.263147,-0.058595,0.666754,101819.42
78403,7.536,-5.518,2.052,-0.292413,-0.030925,0.661965,101820.97
78413,7.623,-5.455,2.035,-0.323275,-0.006448,0.664093,101818.39
78424,7.696,-5.358,2.114,-0.345092,0.011112,0.676332,101817.78
78434,7.773,-5.182,2.430,-0.363716,0.007387,0.699745,101817.78
78443,7.697,-5.085,2.716,-0.372762,-0.010173,0.734864,101819.97
78453,7.594,-5.206,2.798,-0.377550,-0.029329,0.774772,101817.56
78464,7.542,-5.375,2.663,-0.386064,-0.049017,0.813084,101817.92
78474,7.443,-5.491,2.579,-0.393514,-0.070833,0.846075,101819.25
78483,7.366,-5.658,2.478,-0.400431,-0.086264,0.878534,101819.25
78493,7.366,-6.039,2.266,-0.417991,-0.089457,0.902479,101819.55
78503,7.612,-6.367,1.908,-0.464817,-0.077751,0.920570,101819.95
78514,7.706,-6.545,1.825,-0.537716,-0.055934,0.938130,101818.72
78524,7.911,-6.287,1.923,-0.615936,-0.033053,0.962075,101818.88
78533,8.085,-6.285,2.093,-0.652119,-0.039439,0.987084,101818.88
78543,8.184,-6.484,2.023,-0.662761,-0.076686,1.015818,101819.95
78554,8.238,-6.581,2.122,-0.668615,-0.110209,1.044552,101819.43
