50030,9.303,-2.394,0.049,-0.030154,-0.038523,0.027953,101819.30
50040,9.272,-2.394,0.011,-0.028026,-0.035331,0.026889,101819.63
50051,9.262,-2.431,-0.034,-0.023946,-0.030542,0.024938,101820.60
50061,9.313,-2.467,0.029,-0.021640,-0.028945,0.022632,101820.65
50070,9.280,-2.535,0.139,-0.017916,-0.030542,0.016779,101820.09
50080,9.280,-2.589,0.192,-0.018448,-0.027881,0.005605,101820.09
50091,9.266,-2.639,0.109,-0.024833,-0.026285,-0.007166,101821.38
50101,9.297,-2.546,0.010,-0.034411,-0.025221,-0.020469,101822.25
50110,9.371,-2.423,0.013,-0.039732,-0.023092,-0.027918,101820.86
50120,9.459,-2.355,0.048,-0.033879,-0.020432,-0.030579,101815.95
50130,9.464,-2.316,0.020,-0.021640,-0.019367,-0.031111,101815.95
50141,9.410,-2.313,0.058,-0.015255,-0.019900,-0.026854,101820.06
50151,9.374,-2.200,0.097,-0.012062,-0.019367,-0.019936,101821.61
50160,9.343,-2.236,0.132,-0.011530,-0.017771,-0.008762,101820.84
50170,9.270,-2.373,0.104,-0.012062,-0.017771,-0.002377,101818.42
50181,9.210,-2.464,0.083,-0.020576,-0.016707,0.000816,101818.42
50191,9.241,-2.418,0.067,-0.029090,-0.017239,0.001348,101820.95
50200,9.379,-2.423,0.109,-0.030686,-0.019367,-0.001313,101819.16
50210,9.515,-2.399,0.131,-0.023237,-0.024689,-0.004505,101820.23
50221,9.464,-2.423,0.128,-0.010466,-0.028945,-0.008762,101816.47
50231,9.373,-2.430,0.139,-0.007273,-0.029478,-0.011423,101816.47
50240,9.329,-2.412,0.089,-0.010998,-0.029478,-0.014615,101821.84
50250,9.323,-2.351,0.038,-0.014191,-0.031074,-0.014083,101820.88
50260,9.353,-2.326,0.006,-0.014723,-0.031074,-0.010891,101822.47
50271,9.412,-2.284,0.017,-0.008870,-0.034799,-0.004505,101816.23
50280,9.394,-2.246,0.031,-0.003549,-0.039056,0.005605,101816.23
50286,9.350,-2.301,0.036,0.000176,-0.042248,0.016779,101819.54
50295,9.352,-2.344,0.044,-0.003017,-0.044377,0.025825,101819.54
50306,9.429,-2.351,0.056,-0.020044,-0.049698,0.041256,101821.76
50316,9.507,-2.252,0.120,-0.042393,-0.054487,0.058816,101819.85
50326,9.572,-2.012,0.189,-0.057824,-0.060872,0.085421,101820.82
50335,9.648,-1.799,0.297,-0.053567,-0.069918,0.120008,101818.12
50345,9.650,-1.785,0.404,-0.045585,-0.081624,0.159385,101820.07
50356,9.625,-1.968,0.323,-0.030686,-0.092799,0.195036,101819.66
50366,9.630,-2.118,0.204,-0.011530,-0.114615,0.218449,101819.66
50375,9.468,-2.139,0.186,0.013479,-0.134835,0.233880,101820.95
50385,9.397,-2.369,0.149,0.050726,-0.150266,0.246651,101820.95
50396,9.359,-2.634,0.016,0.079460,-0.164101,0.246118,101827.11
50406,9.322,-2.815,0.003,0.075736,-0.171019,0.239911,101821.97
50415,9.332,-2.790,-0.014,0.052855,-0.171551,0.230687,101821.97
50425,9.258,-2.730,-0.065,0.029442,-0.166762,0.222706,101819.02
50436,9.225,-2.734,-0.135,0.031038,-0.166762,0.220045,101819.02
50446,9.241,-2.666,-0.116,0.033699,-0.172083,0.216852,101822.06
50456,9.197,-2.495,-0.103,0.029974,-0.169955,0.220045,101820.42
50465,9.195,-2.449,-0.123,0.029974,-0.164101,0.228559,101819.80
50476,9.229,-2.619,-0.172,0.031038,-0.158248,0.229623,101819.80
50486,9.306,-2.898,-0.267,0.034763,-0.156120,0.220577,101819.80
50496,9.344,-3.062,-0.330,0.043809,-0.159312,0.201953,101824.01
50505,9.285,-3.149,-0.345,0.040616,-0.158248,0.178541,101819.26
50515,9.310,-3.188,-0.275,0.026249,-0.149734,0.152999,101819.93
50526,9.232,-3.085,-0.270,0.000176,-0.138028,0.127103,101817.49
50536,9.149,-3.021,-0.264,-0.018448,-0.124725,0.109898,101817.49
50546,9.067,-3.027,-0.249,-0.029622,-0.110890,0.093403,101820.27
50555,9.037,-3.013,-0.278,-0.038136,-0.097055,0.079036,101821.30
50566,8.984,-2.997,-0.393,-0.041861,-0.084817,0.066265,101820.84
50576,8.922,-3.001,-0.507,-0.047714,-0.075239,0.057752,101819.32
50586,8.952,-3.019,-0.588,-0.055695,-0.069918,0.051898,101820.29
50595,9.073,-2.940,-0.586,-0.066870,-0.067789,0.047642,101821.12
50606,9.115,-2.821,-0.560,-0.082833,-0.061936,0.051366,101821.12
50616,9.146,-2.739,-0.530,-0.087090,-0.058211,0.060412,101820.60
50626,9.192,-2.667,-0.472,-0.077512,-0.064065,0.073715,101819.52
50635,9.200,-2.667,-0.379,-0.063677,-0.072578,0.092871,101819.52
50646,9.300,-2.705,-0.302,-0.065806,-0.082156,0.118944,101822.70
50656,9.509,-2.709,-0.181,-0.086558,-0.093331,0.151935,101823.27
50666,9.709,-2.689,-0.003,-0.123806,-0.104505,0.186522,101819.00
50676,9.836,-2.555,0.159,-0.180209,-0.116744,0.232816,101819.45
50685,9.947,-2.270,0.225,-0.233420,-0.125257,0.288687,101820.74
50696,10.367,-1.821,0.268,-0.277053,-0.135367,0.349880,101820.38
50706,10.687,-1.594,0.305,-0.310044,-0.159844,0.417458,101819.71
50716,10.977,-1.823,0.553,-0.331860,-0.183789,0.487164,101819.51
50725,11.268,-2.090,0.630,-0.352081,-0.208799,0.552082,101819.51
50736,11.527,-2.456,0.690,-0.382411,-0.230615,0.611678,101819.51
50746,11.581,-2.631,0.763,-0.445732,-0.242854,0.664889,101823.24
50756,11.637,-2.717,0.902,-0.525016,-0.231147,0.710650,101821.96
50765,11.852,-2.850,0.996,-0.619200,-0.213588,0.756412,101822.07
50776,12.132,-2.654,1.232,-0.748502,-0.191239,0.803769,101818.15
50786,12.376,-2.371,1.513,-0.860245,-0.178468,0.853788,101818.15
50796,12.557,-2.286,1.610,-0.906539,-0.178468,0.915513,101819.72
50806,12.454,-2.286,1.645,-0.943787,-0.182193,0.995861,101819.52
50816,12.163,-2.382,1.591,-1.007108,-0.180065,1.063439,101817.30
50826,11.885,-2.802,1.540,-1.081071,-0.166230,1.096430,101817.30
50836,11.586,-3.091,1.586,-1.151309,-0.138028,1.101751,101821.64
50845,11.227,-3.098,1.619,-1.185364,-0.105037,1.100155,101821.64
50855,10.712,-3.096,1.623,-1.133750,-0.076303,1.104944,101819.06
50866,10.205,-3.163,1.385,-0.993805,-0.064597,1.104412,101819.17
50876,9.535,-3.097,1.094,-0.834172,-0.068322,1.091641,101820.56
50885,8.853,-2.962,0.915,-0.693695,-0.042248,1.081531,101820.56
50896,8.306,-2.393,0.576,-0.598980,0.022137,1.053329,101821.52
50906,7.791,-1.331,0.052,-0.605897,0.133880,0.947439,101818.06
50916,7.327,0.268,-0.487,-0.686778,0.279146,0.748430,101819.36
50926,7.001,2.070,-0.632,-0.701677,0.429201,0.500999,101818.48
50936,6.777,3.397,-0.823,-0.498411,0.529770,0.255696,101819.78
50946,6.502,3.271,-0.673,-0.078044,0.595751,0.089678,101819.16
50956,6.738,3.480,0.323,0.397130,0.680357,-0.117312,101818.95
50966,7.067,4.015,0.812,0.752047,0.763366,-0.408909,101818.95
50976,7.335,4.306,0.814,0.962763,0.834137,-0.699441,101818.48
50985,7.484,4.106,0.527,1.112818,0.887880,-0.984119,101818.48
50996,7.607,3.437,0.277,1.210726,0.936834,-1.250174,101819.76
51001,7.803,2.763,0.117,1.237863,0.981531,-1.434816,101821.51
51011,7.990,2.062,-0.067,1.216047,1.027825,-1.607220,101817.34
51020,8.294,1.201,-0.302,1.133038,1.075714,-1.817403,101817.65
51031,8.632,0.460,-0.603,0.999478,1.102320,-2.004174,101817.65
51041,9.030,-0.081,-0.813,0.844102,1.105513,-2.169660,101819.86
51051,9.397,-0.577,-0.874,0.690322,1.091678,-2.326100,101820.27
51061,9.582,-0.953,-0.806,0.538139,1.076779,-2.469238,101819.03
51070,9.674,-1.114,-0.657,0.425864,1.061880,-2.585770,101819.30
51081,9.660,-1.120,-0.442,0.380634,1.050173,-2.666118,101819.30
51091,9.709,-1.062,-0.267,0.420011,1.045384,-2.718265,101817.56
51101,9.905,-1.094,-0.118,0.539735,1.039531,-2.745403,101819.98
51110,10.149,-1.326,-0.059,0.704157,1.035274,-2.753384,101816.98
51122,10.597,-1.824,-0.167,0.885252,1.035806,-2.751965,101818.02
51131,11.044,-2.272,-0.385,0.989900,1.026228,-2.747531,101818.02
51141,11.302,-2.667,-0.485,1.069185,0.993770,-2.735825,101820.63
51150,11.500,-3.007,-0.524,1.139955,0.938430,-2.707091,101818.21
51161,11.788,-3.404,-0.638,1.205937,0.852228,-2.654944,101821.10
51171,11.936,-3.691,-0.597,1.246909,0.745274,-2.580449,101818.46
51181,11.857,-3.895,-0.116,1.309698,0.647898,-2.474026,101818.46
51191,11.581,-4.333,0.363,1.408138,0.565953,-2.337806,101821.77
51201,11.104,-4.839,0.487,1.480505,0.498907,-2.166467,101820.29
51211,10.668,-5.240,0.419,1.488487,0.459531,-1.957880,101820.74
51221,10.304,-5.760,0.359,1.418249,0.445696,-1.714706,101818.16
51231,10.026,-6.382,0.102,1.256487,0.427073,-1.448119,101818.16
51241,9.648,-6.801,-0.114,0.990610,0.384504,-1.148896,101822.78
51251,9.290,-6.819,-0.151,0.748322,0.328632,-0.903771,101823.75
51261,8.786,-6.720,-0.110,0.511533,0.261054,-0.639844,101818.23
51271,8.553,-6.388,0.619,0.342323,0.197733,-0.375386,101822.31
51280,8.754,-6.292,1.344,0.298690,0.181770,-0.129551,101822.31
51291,8.278,-7.026,1.300,0.203442,0.130687,0.192908,101819.67
51301,8.110,-8.327,2.773,0.105534,0.157293,0.485568,101821.89
51311,9.705,-6.334,4.677,-0.166374,0.251476,0.700008,101820.95
51321,12.115,1.030,4.948,-0.694759,0.313733,0.529733,101819.05
51331,13.322,4.496,3.974,-1.106080,0.396210,0.331256,101819.05
51341,14.205,2.684,1.797,-1.168337,0.382375,0.397238,101820.99
51351,13.837,1.166,0.207,-0.911860,0.247752,0.632962,101822.43
51361,13.031,1.411,0.528,-0.322282,0.131220,0.891036,101820.16
51371,12.212,1.162,0.471,0.397130,0.041293,1.045879,101820.99
51381,10.645,-0.554,-0.393,0.816965,0.003513,1.104944,101820.99
51391,9.309,-1.889,-0.451,0.721717,0.054064,1.092705,101823.20
51401,8.866,-2.156,0.313,0.214616,0.156761,1.007568,101824.09
51410,8.670,-2.021,1.458,-0.411677,0.267440,0.877201,101822.23
51421,8.576,-1.225,2.789,-0.904943,0.363219,0.761733,101819.39
51431,9.079,0.032,3.955,-1.064044,0.432394,0.714907,101819.39
51441,9.681,0.885,4.724,-0.833640,0.427605,0.736192,101819.45
51450,10.391,0.712,5.279,-0.291952,0.366944,0.825054,101821.72
51461,10.536,-0.112,4.039,0.223662,0.231256,0.909659,101821.11
51471,9.417,-1.070,3.085,0.437038,0.108871,0.943182,101820.69
51481,9.357,-1.556,3.113,0.339662,0.072688,0.943714,101820.69
51491,9.620,-1.313,2.706,0.120965,0.068963,0.937329,101821.05
51501,9.640,-0.833,2.293,0.002304,0.075880,0.949568,101819.82
51511,9.783,-0.343,2.034,0.041681,0.043954,0.978302,101823.07
51521,9.699,-0.530,1.795,0.181093,-0.003404,1.002779,101821.48
51531,9.587,-1.069,1.598,0.302414,-0.015111,1.024595,101821.48
51540,9.485,-1.665,1.520,0.300286,-0.011918,1.021935,101822.27
51551,9.367,-1.737,2.010,0.172580,0.002981,0.985219,101819.74
51561,9.180,-1.363,2.396,0.036360,0.034376,0.940522,101817.12
51571,9.167,-1.244,2.278,0.001772,0.054064,0.899549,101819.74
51580,9.362,-1.459,2.076,0.024121,0.039697,0.855384,101819.74
51591,9.596,-1.678,2.147,0.059240,0.021605,0.816540,101821.79
51597,9.582,-1.836,2.279,0.065093,0.012027,0.788338,101820.76
51606,9.385,-2.067,2.228,0.047002,0.006174,0.754283,101820.76
51616,9.284,-2.124,2.418,-0.006209,0.000853,0.706926,101819.16
51627,9.314,-1.871,2.439,-0.051439,-0.000744,0.667549,101818.90
51636,9.504,-1.618,2.294,-0.056228,0.001385,0.631898,101818.90
51646,9.436,-1.840,2.106,-0.023237,-0.002340,0.598375,101820.81
51656,9.334,-1.865,2.129,-0.005677,0.000853,0.564320,101818.66
51666,9.303,-1.999,2.042,0.003901,0.013091,0.524944,101819.78
51676,9.344,-2.319,2.021,-0.013659,0.022137,0.480247,101819.78
51686,9.454,-2.121,2.283,-0.051971,0.023201,0.439806,101819.78
51696,9.428,-1.951,2.477,-0.063145,0.016816,0.412137,101822.31
51706,9.212,-1.921,2.588,-0.063677,0.003513,0.396706,101821.84
51717,9.127,-1.707,2.826,-0.076093,-0.016352,0.395641,101820.17
51726,8.993,-1.640,2.785,-0.088154,-0.028945,0.412669,101820.17
51736,9.024,-1.541,2.713,-0.090815,-0.046505,0.445660,101820.17
51746,9.069,-1.446,2.703,-0.088154,-0.060340,0.483972,101820.98
51757,8.988,-1.508,2.643,-0.077512,-0.072578,0.519623,101821.13
51766,9.094,-1.515,2.515,-0.055163,-0.087478,0.557403,101819.85
51776,9.213,-1.682,2.322,-0.028558,-0.093331,0.584008,101819.85
51786,9.253,-2.225,1.954,-0.016851,-0.091202,0.602632,101821.90
51795,9.288,-2.188,1.872,-0.055163,-0.076835,0.607953,101821.90
51806,9.422,-2.108,2.093,-0.069530,-0.070982,0.606357,101821.18
51816,9.289,-2.446,2.042,-0.054631,-0.076303,0.604760,101820.62
51826,9.167,-2.606,2.156,-0.081237,-0.072046,0.595715,101819.68
51836,9.113,-2.568,2.321,-0.124338,-0.066725,0.586137,101819.68
51847,9.130,-2.552,2.355,-0.146154,-0.065661,0.579219,101821.78
51856,9.046,-2.424,2.325,-0.157328,-0.070450,0.580816,101822.86
51866,9.066,-2.406,2.384,-0.126998,-0.082689,0.586669,101822.39
51876,8.915,-3.049,2.342,-0.111035,-0.092266,0.588797,101820.66
51887,9.065,-2.893,2.442,-0.179677,-0.083753,0.579219,101820.61
51896,9.187,-2.714,2.492,-0.197237,-0.082156,0.571770,101820.70
51906,9.127,-3.032,2.206,-0.219585,-0.078964,0.564320,101819.63
51916,9.170,-2.808,2.141,-0.262686,-0.075239,0.555274,101819.63
51927,9.177,-2.806,2.198,-0.268539,-0.080028,0.555274,101818.34
51936,9.264,-2.910,2.196,-0.277585,-0.082689,0.555274,101818.34
51946,9.222,-3.061,2.138,-0.283971,-0.088542,0.553678,101822.38
51956,9.199,-3.190,2.240,-0.306319,-0.093863,0.554210,101821.45
51966,9.083,-3.300,2.374,-0.330264,-0.095459,0.549953,101818.47
51977,8.877,-3.334,2.297,-0.357934,-0.090138,0.543568,101818.88
51986,8.847,-3.304,2.265,-0.374429,-0.093863,0.539843,101818.88
51996,8.805,-3.149,2.356,-0.371237,-0.103973,0.544632,101822.88
52006,8.909,-3.207,2.418,-0.365383,-0.108762,0.550485,101819.71
52017,8.899,-3.482,2.204,-0.384007,-0.108762,0.555806,101820.02
52026,8.781,-3.409,2.059,-0.420723,-0.106101,0.559531,101820.02
52036,8.891,-3.284,1.829,-0.425512,-0.118340,0.565384,101820.02
52046,8.878,-3.407,1.777,-0.396778,-0.137496,0.575494,101823.22
52057,8.810,-3.477,1.778,-0.369640,-0.156120,0.581880,101821.11
52066,8.839,-3.549,1.748,-0.345163,-0.174211,0.586669,101819.16
52072,8.912,-3.653,1.822,-0.331860,-0.186982,0.590394,101818.17
52081,9.017,-3.704,1.986,-0.326539,-0.201881,0.592522,101818.17
52091,9.043,-3.821,2.064,-0.327071,-0.213055,0.596779,101821.57
52101,9.107,-3.926,2.074,-0.344631,-0.217844,0.599439,101819.66
52111,9.060,-3.968,1.950,-0.378154,-0.218377,0.606357,101820.23
52121,8.976,-3.952,1.747,-0.413273,-0.217844,0.611678,101819.46
52131,8.970,-3.993,1.592,-0.424448,-0.229019,0.615403,101819.46
52142,8.984,-4.147,1.495,-0.426576,-0.241789,0.617531,101821.52
52151,9.025,-4.196,1.565,-0.426044,-0.259881,0.614871,101821.47
52161,8.957,-4.238,1.627,-0.415934,-0.278505,0.611678,101822.03
52171,8.945,-4.275,1.517,-0.412209,-0.296597,0.609549,101820.64
52182,9.007,-4.215,1.475,-0.407952,-0.323734,0.608485,101820.64
52192,8.989,-3.999,1.413,-0.376912,-0.364707,0.614516,101822.92
52201,8.852,-3.977,1.329,-0.332393,-0.403551,0.630302,101819.92
52211,8.787,-3.965,1.240,-0.278117,-0.451441,0.653715,101820.08
52221,8.714,-4.080,1.274,-0.222778,-0.504119,0.680320,101819.63
52231,8.629,-4.354,1.317,-0.182338,-0.553606,0.702669,101819.63
52241,8.486,-4.645,1.311,-0.173292,-0.590321,0.717568,101822.96
52251,8.469,-4.800,1.426,-0.185530,-0.622780,0.720228,101822.60
52261,8.484,-4.907,1.555,-0.197769,-0.658963,0.713843,101820.85
52272,8.375,-5.027,1.680,-0.206283,-0.693551,0.705329,101818.01
52281,8.366,-5.073,1.773,-0.221714,-0.724945,0.696283,101818.01
52291,8.598,-5.036,1.899,-0.227567,-0.766450,0.681916,101823.41
52301,9.076,-5.018,2.125,-0.212136,-0.821257,0.667017,101823.05
52312,9.858,-5.106,2.619,-0.178968,-0.891141,0.648571,101819.96
52321,10.227,-5.199,2.959,-0.166906,-0.938321,0.633494,101818.77
52331,10.418,-5.256,2.976,-0.210007,-0.952688,0.622320,101818.77
52341,10.556,-5.146,2.651,-0.314301,-0.939385,0.623384,101822.00
52352,10.561,-4.658,2.174,-0.416998,-0.930871,0.646797,101817.72
52361,10.335,-3.973,1.787,-0.458503,-0.951092,0.703201,101817.98
52371,10.325,-3.610,1.734,-0.428172,-1.005899,0.786210,101818.14
52381,10.564,-3.832,1.876,-0.360594,-1.074541,0.870815,101818.14
52391,10.493,-4.137,2.096,-0.335053,-1.117642,0.954889,101819.85
52402,10.133,-4.278,2.379,-0.374429,-1.122431,1.035237,101822.48
52411,9.994,-4.584,2.519,-0.439879,-1.093697,1.109201,101821.18
52421,9.987,-5.080,2.453,-0.540447,-1.038358,1.176246,101819.07
52431,9.927,-5.430,2.575,-0.687842,-0.958009,1.240632,101819.07
52442,9.847,-5.851,2.793,-0.849071,-0.873404,1.301292,101819.21
52451,9.929,-6.305,2.686,-1.053933,-0.790394,1.353971,101821.90
52461,10.256,-6.040,2.487,-1.340208,-0.754743,1.357164,101819.52
52471,10.322,-5.262,2.662,-1.550924,-0.762193,1.348650,101819.01
52482,10.285,-4.915,2.752,-1.654153,-0.766982,1.359292,101819.01
52492,10.219,-4.704,2.786,-1.698318,-0.750486,1.382173,101819.91
52501,9.910,-4.455,2.453,-1.672245,-0.727073,1.425274,101817.44
52511,9.650,-4.291,1.698,-1.607860,-0.708450,1.482742,101819.14
52521,9.355,-3.725,0.732,-1.461529,-0.719624,1.561494,101817.64
52531,9.329,-3.692,-0.171,-1.214631,-0.748358,1.627476,101817.64
52541,9.789,-4.675,-1.755,-0.960282,-0.792523,1.672173,101819.76
52551,10.701,-4.903,-3.102,-0.630906,-0.905862,1.755714,101818.62
52561,11.858,-2.045,-3.261,0.049130,-1.162871,1.828081,101820.37
52572,11.175,0.061,-1.063,1.395368,-1.514596,1.912154,101818.41
52581,10.213,0.892,1.279,2.982119,-1.750853,1.973879,101818.41
52591,8.918,0.492,2.014,4.243752,-1.897183,1.889273,101818.83
52601,7.496,-1.669,2.218,4.890797,-1.907293,1.771677,101819.66
52612,6.290,-5.037,1.523,4.733292,-1.777458,1.584907,101816.36
52621,5.000,-6.201,1.058,3.614798,-1.440101,1.281604,101818.94
52631,4.883,-5.975,1.298,2.261110,-0.958541,0.969256,101818.94
52641,5.645,-4.971,1.209,1.034597,-0.559459,0.623384,101818.71
52652,6.373,-3.893,0.310,0.097552,-0.340762,0.283898,101819.34
52662,6.671,-3.579,-0.942,-0.505328,-0.219973,-0.013019,101815.41
52671,6.388,-3.316,-1.863,-0.837365,-0.137496,-0.273753,101814.13
52681,6.416,-2.418,-2.100,-0.893236,-0.044377,-0.506817,101814.13
52691,6.992,-0.815,-2.126,-0.628778,0.001917,-0.737220,101818.46
52702,7.427,0.447,-2.377,-0.047182,-0.038523,-0.938890,101818.05
52711,7.417,0.497,-2.692,0.704157,-0.135367,-1.091605,101817.85
52721,7.096,-0.507,-2.787,1.413460,-0.238065,-1.227293,101813.37
52731,6.819,-1.993,-2.746,1.883312,-0.305110,-1.393844,101813.37
52742,6.674,-3.367,-2.444,2.036028,-0.323734,-1.590192,101821.08
52751,6.677,-4.423,-2.066,1.924817,-0.304046,-1.798779,101820.00
52761,6.928,-4.977,-1.647,1.648120,-0.242321,-2.020137,101818.14
52771,7.351,-5.010,-1.163,1.309698,-0.152395,-2.230320,101815.77
52782,7.742,-4.702,-0.838,1.009056,-0.065661,-2.419219,101815.77
52787,7.877,-4.542,-0.663,0.845166,-0.010322,-2.549054,101819.15
52796,7.885,-4.648,-0.691,0.742469,0.041293,-2.669843,101819.15
52806,7.881,-4.861,-0.795,0.648286,0.112064,-2.823091,101818.48
52816,8.016,-4.688,-0.985,0.594543,0.180174,-2.961971,101816.01
52827,8.324,-4.454,-1.071,0.600396,0.236577,-3.087017,101814.71
52837,8.541,-4.556,-1.016,0.643497,0.273293,-3.196632,101821.39
52846,8.612,-4.792,-0.698,0.672231,0.302027,-3.303586,101820.41
52856,8.683,-4.989,-0.358,0.689258,0.334486,-3.415329,101817.00
52867,8.756,-5.276,-0.051,0.698836,0.371201,-3.522283,101817.00
52877,8.915,-5.375,0.202,0.678616,0.416963,-3.621255,101816.95
52886,9.095,-5.358,0.364,0.657332,0.465385,-3.701604,101816.95
52896,9.248,-5.639,0.412,0.663717,0.504761,-3.754815,101818.78
52907,9.375,-6.131,0.387,0.666023,0.541654,-3.788870,101818.05
52917,9.540,-6.546,0.386,0.630194,0.571806,-3.799512,101818.05
52927,9.702,-6.638,0.571,0.574322,0.602137,-3.796319,101817.70
52936,10.014,-6.570,0.862,0.526965,0.633531,-3.785677,101817.70
52946,10.199,-6.677,0.990,0.475882,0.665458,-3.756411,101820.57
52957,10.281,-6.790,1.124,0.383827,0.708027,-3.711182,101819.74
52967,10.400,-6.811,1.297,0.282194,0.758045,-3.656374,101816.91
52976,10.443,-6.900,1.337,0.195992,0.809660,-3.582943,101816.91
52986,10.656,-6.993,1.335,0.119901,0.864999,-3.494081,101816.91
52997,10.861,-7.165,1.267,0.050194,0.919274,-3.396705,101821.23
53007,10.947,-7.260,1.145,-0.015255,0.967164,-3.292411,101817.98
53016,11.023,-7.740,1.026,-0.086558,0.999091,-3.161512,101819.99
53026,10.858,-8.159,0.854,-0.202558,1.012393,-2.992301,101821.48
53037,10.633,-8.157,0.666,-0.351016,1.020907,-2.795421,101821.48
53047,10.360,-7.821,0.611,-0.499475,1.020907,-2.582577,101819.40
53057,10.070,-7.709,0.547,-0.612814,1.001751,-2.356430,101820.18
53066,9.777,-7.847,0.417,-0.697952,0.979935,-2.123366,101819.71
53076,9.467,-8.208,0.319,-0.812888,0.970357,-1.901477,101819.71
53087,8.849,-8.475,0.589,-0.978906,0.961311,-1.683844,101821.47
53097,8.676,-8.001,0.692,-1.134814,0.945880,-1.466743,101821.47
53106,8.760,-7.115,0.538,-1.198135,0.900118,-1.248578,101821.47
53116,8.726,-6.345,0.298,-1.166209,0.824027,-1.038394,101819.00
53127,8.636,-5.851,0.159,-1.093310,0.727715,-0.852156,101821.20
53137,8.572,-5.540,-0.196,-1.007640,0.623953,-0.676028,101821.20
53146,8.757,-5.344,-0.746,-0.878337,0.518063,-0.496707,101822.20
53156,8.993,-5.200,-1.214,-0.663365,0.387164,-0.301955,101820.96
53167,9.103,-4.744,-1.671,-0.332925,0.219550,-0.083790,101820.96
53177,9.167,-4.382,-2.078,0.122029,0.016284,0.158320,101820.80
53187,9.061,-4.737,-2.259,0.628598,-0.213055,0.417990,101823.68
53196,8.885,-5.200,-1.157,1.085680,-0.435477,0.669678,101823.16
53207,7.497,-5.398,4.293,1.544358,-0.462615,0.838357,101818.88
53217,8.752,-2.965,9.437,1.471460,-0.142817,0.873476,101819.55
53226,11.930,2.822,11.006,0.790359,0.254137,0.574962,101819.55
53236,14.652,4.098,6.743,0.019864,0.398339,0.440339,101819.55
53246,15.732,1.587,3.589,-0.348356,0.161018,0.539843,101822.75
53257,15.569,-0.481,2.775,-0.435090,-0.050762,0.738852,101822.48
53267,14.719,-0.558,0.940,-0.361659,-0.174211,1.037898,101818.78
53277,13.732,0.699,-0.967,0.116176,-0.285422,1.332155,101819.97
53286,11.848,1.212,-1.632,0.750983,-0.375881,1.547127,101819.97
53297,9.932,1.057,-0.770,1.172414,-0.362046,1.658338,101820.48
53307,8.496,-0.287,0.293,1.241056,-0.285422,1.662063,101821.59
53317,7.518,-2.231,1.259,0.909552,-0.208799,1.547659,101821.20
53326,7.479,-3.572,1.999,0.295497,-0.124725,1.358760,101821.20
53337,8.252,-3.540,2.379,-0.389328,-0.026817,1.170393,101821.30
53347,8.902,-2.175,2.312,-0.920374,0.038633,1.022999,101821.30
53356,9.472,-0.427,1.827,-1.127365,0.060981,0.942118,101821.70
53366,9.933,0.679,1.487,-0.982631,0.043954,0.942118,101823.11
53377,9.657,0.344,3.068,-0.585677,0.049807,0.991604,101817.89
53382,10.149,-0.673,4.269,-0.221182,0.103550,1.075678,101817.89
53392,10.925,-0.905,4.202,0.132139,0.082266,1.177311,101820.63
53401,10.109,-0.620,3.469,0.520047,-0.058211,1.231586,101821.59
53411,8.527,-1.418,3.648,0.672763,-0.150799,1.225200,101818.41
53422,8.603,-2.180,3.992,0.573790,-0.174744,1.200723,101820.52
53432,8.865,-2.549,3.601,0.351368,-0.188578,1.156026,101820.52
53442,9.067,-2.423,2.724,0.116176,-0.180065,1.106540,101821.67
53451,9.462,-2.058,2.311,-0.014723,-0.166762,1.076742,101819.56
53462,9.735,-1.822,1.991,-0.040264,-0.171019,1.062907,101818.84
53472,9.677,-1.938,1.817,-0.032815,-0.176872,1.057054,101821.02
53482,9.490,-2.423,1.689,-0.046650,-0.165698,1.043219,101821.02
53491,9.322,-2.842,1.821,-0.142429,-0.136432,1.013953,101822.89
53501,9.323,-3.142,1.753,-0.315897,-0.105037,0.960210,101821.50
53512,9.507,-3.200,1.644,-0.476062,-0.090138,0.892100,101822.84
53522,9.613,-2.590,1.869,-0.567053,-0.084817,0.834632,101821.50
53531,9.323,-1.962,2.077,-0.548961,-0.089074,0.788870,101821.50
53541,9.122,-2.031,1.961,-0.413273,-0.101844,0.755880,101821.68
53552,9.061,-2.474,1.851,-0.270136,-0.121533,0.730870,101822.40
53562,9.039,-2.661,1.880,-0.202558,-0.122597,0.697348,101822.60
53572,9.122,-2.807,1.819,-0.221714,-0.110358,0.661164,101821.57
53581,9.101,-2.839,1.971,-0.278117,-0.109294,0.631898,101821.57
53592,9.025,-2.489,2.351,-0.302062,-0.129514,0.604228,101821.09
53602,8.804,-2.307,2.494,-0.269604,-0.147606,0.582944,101823.55
53612,8.593,-2.380,2.370,-0.217989,-0.164633,0.572302,101820.21
53621,8.638,-2.475,2.340,-0.175952,-0.176340,0.564320,101820.62
53632,8.867,-2.475,2.413,-0.159457,-0.182725,0.561660,101820.62
53642,8.993,-2.425,2.469,-0.157861,-0.197624,0.563256,101822.84
53652,8.916,-2.486,2.387,-0.144558,-0.233276,0.567513,101820.30
53661,8.816,-2.684,2.138,-0.113695,-0.263606,0.578687,101820.57
53671,8.814,-2.918,1.783,-0.087090,-0.277973,0.595715,101819.32
53682,8.957,-2.849,1.668,-0.087622,-0.282762,0.616467,101819.32
53692,9.173,-2.696,1.669,-0.111567,-0.280101,0.637751,101820.91
53702,9.379,-2.642,1.674,-0.124870,-0.275312,0.659036,101820.39
53711,9.385,-2.672,1.722,-0.109439,-0.289679,0.682981,101819.83
53722,9.244,-2.859,1.724,-0.076980,-0.299257,0.703733,101821.47
53732,9.161,-3.167,1.720,-0.058356,-0.311496,0.714375,101821.47
53742,9.102,-3.375,1.740,-0.067402,-0.317881,0.713843,101821.45
53751,9.012,-3.574,1.629,-0.089751,-0.315220,0.711182,101820.48
53762,9.074,-3.608,1.487,-0.121145,-0.312560,0.702669,101818.98
53772,9.063,-3.640,1.467,-0.143494,-0.314156,0.695751,101817.84
53782,9.000,-3.489,1.504,-0.168503,-0.315220,0.694687,101817.84
53791,8.942,-3.474,1.595,-0.188191,-0.313624,0.704797,101821.73
53801,8.973,-3.433,1.589,-0.207347,-0.314688,0.719696,101821.53
53812,9.097,-3.421,1.651,-0.236613,-0.316285,0.740981,101819.31
53822,9.238,-3.452,1.675,-0.263218,-0.318413,0.769182,101822.09
53831,9.383,-3.624,1.613,-0.289824,-0.326927,0.796320,101822.09
53841,9.541,-3.865,1.361,-0.334521,-0.335973,0.820797,101823.05
53852,9.878,-3.928,1.034,-0.387732,-0.352468,0.845274,101822.59
53862,10.006,-3.886,0.880,-0.419126,-0.382798,0.876136,101820.68
53872,9.831,-3.780,1.186,-0.429237,-0.408340,0.917109,101818.52
53881,9.602,-3.997,1.404,-0.425512,-0.430688,0.959678,101818.52
53892,9.522,-4.287,1.479,-0.443071,-0.450908,0.996925,101823.69
53902,9.460,-4.347,1.629,-0.498943,-0.465275,1.029916,101821.36
53912,9.655,-4.444,1.694,-0.541512,-0.486560,1.062375,101821.67
53921,10.163,-4.615,1.410,-0.558007,-0.509441,1.095366,101820.02
53932,10.607,-4.535,0.857,-0.576631,-0.548817,1.120375,101820.02
53942,10.846,-4.557,0.538,-0.588337,-0.591385,1.148045,101821.72
53952,10.984,-4.446,0.447,-0.585145,-0.646725,1.184228,101819.19
53962,11.082,-4.245,0.511,-0.577163,-0.708450,1.228393,101821.72
53971,11.240,-4.319,0.722,-0.556411,-0.776028,1.283733,101818.52
53978,11.481,-4.379,0.977,-0.554282,-0.829771,1.323641,101818.52
53987,11.714,-4.398,1.310,-0.570246,-0.881385,1.362485,101818.52
53997,11.942,-4.301,1.937,-0.595255,-0.951092,1.416228,101820.91
54007,12.459,-4.558,2.380,-0.630374,-1.006431,1.461989,101819.38
54017,13.115,-4.778,2.403,-0.703273,-1.036761,1.490723,101821.59
54027,13.521,-4.460,2.318,-0.835768,-1.061238,1.512008,101819.39
54037,13.878,-3.849,2.485,-0.962411,-1.100082,1.538613,101823.41
54047,14.427,-3.343,2.781,-1.067768,-1.149036,1.563090,101821.19
54056,14.871,-2.763,3.200,-1.221016,-1.159679,1.610980,101821.19
54067,15.011,-2.027,3.759,-1.485474,-1.119238,1.690264,101819.55
54077,14.934,-1.365,4.012,-1.769621,-1.057514,1.787640,101820.73
54087,14.672,-1.700,3.660,-1.892538,-1.040486,1.906833,101820.73
54096,14.251,-3.536,3.105,-1.823364,-1.090504,2.052099,101819.45
54107,13.876,-4.384,3.450,-1.706300,-1.209165,2.169695,101820.17
54117,13.534,-3.128,3.839,-1.542410,-1.281000,2.205347,101817.66
54127,12.818,-2.265,3.787,-1.263053,-1.296431,2.180870,101817.08
54137,11.794,-2.437,3.633,-0.945383,-1.306541,2.111695,101817.08
54147,10.765,-3.049,3.575,-0.622925,-1.314523,2.011659,101819.38
54157,9.849,-3.776,3.583,-0.348888,-1.298027,1.914815,101817.38
54167,8.930,-4.218,3.067,-0.213732,-1.223000,1.795090,101817.59
54176,8.163,-4.485,2.366,-0.220650,-1.140523,1.613641,101817.59
54187,7.443,-4.311,0.856,-0.347824,-1.095293,1.344925,101817.59
54197,6.093,-5.040,-0.369,-0.514906,-1.018670,1.090045,101820.05
54207,6.053,-4.357,0.814,-0.320686,-0.906927,0.927219,101817.20
54217,5.985,-1.626,2.046,0.195460,-0.863826,0.597311,101818.44
54226,5.784,0.091,2.147,0.649882,-0.865422,0.316357,101816.80
54237,5.041,1.129,1.700,1.083552,-0.934064,0.050834,101816.80
54247,4.235,1.810,1.571,1.588524,-1.006431,-0.255129,101819.63
54257,3.956,1.621,1.628,2.117441,-1.029844,-0.561092,101818.17
54267,3.923,0.538,1.777,2.556431,-1.027715,-0.848431,101816.63
54277,3.895,-0.924,1.888,2.794816,-1.017605,-1.132578,101816.63
54287,3.758,-2.136,1.968,2.816633,-1.005899,-1.414596,101817.56
54297,3.739,-2.831,1.926,2.727771,-0.995789,-1.682779,101817.56
54307,3.982,-2.966,1.822,2.643697,-0.988871,-1.947238,101815.59
54317,4.414,-3.011,1.822,2.610707,-0.988339,-2.210632,101813.80
54327,4.836,-3.317,2.004,2.594211,-0.985147,-2.469238,101814.88
54337,5.185,-3.726,2.424,2.563881,-0.964926,-2.704962,101814.88
54347,5.395,-4.150,2.872,2.503220,-0.936193,-2.933237,101818.89
54358,5.416,-4.684,3.244,2.378175,-0.887771,-3.162045,101814.30
54367,5.505,-5.023,3.594,2.129147,-0.793055,-3.388723,101816.16
54377,5.827,-5.068,3.703,1.827973,-0.664284,-3.603696,101812.62
54387,6.400,-4.792,4.051,1.653973,-0.498266,-3.801641,101814.79
54397,7.081,-4.647,4.238,1.658230,-0.331184,-3.953824,101816.27
54407,7.776,-4.975,4.109,1.821588,-0.192835,-4.052796,101814.59
54417,8.545,-5.662,3.929,2.047202,-0.077900,-4.090576,101814.59
54427,9.230,-6.712,3.820,2.254193,-0.000211,-4.083127,101814.59
54436,9.653,-7.748,3.870,2.395734,0.046614,-4.086852,101814.59
54447,9.975,-8.129,4.010,2.505881,0.089715,-4.108136,101816.34
54453,10.130,-8.171,4.250,2.613899,0.125899,-4.115585,101814.80
54462,10.244,-8.156,4.475,2.765018,0.163678,-4.099622,101815.41
54472,10.360,-8.117,4.573,2.985844,0.209972,-4.054925,101816.39
54481,10.523,-7.923,4.566,3.159312,0.253605,-3.984154,101816.39
54492,10.664,-8.184,4.376,3.245513,0.302559,-3.889438,101818.15
54502,10.832,-8.635,3.976,3.193367,0.351513,-3.796851,101819.09
54512,11.198,-9.015,3.649,3.036927,0.415366,-3.710650,101815.21
54522,11.599,-9.644,3.334,2.826211,0.485073,-3.618595,101816.55
54532,11.774,-10.287,3.011,2.557496,0.542008,-3.520154,101816.55
54542,11.743,-10.763,2.847,2.209496,0.585641,-3.405219,101820.11
54552,11.593,-10.701,2.946,1.850854,0.625550,-3.251439,101819.95
54562,11.465,-10.174,3.005,1.542230,0.686210,-3.055090,101818.61
54573,11.279,-9.589,2.793,1.305264,0.772234,-2.814045,101819.80
54582,10.893,-9.740,2.346,1.143148,0.863935,-2.644834,101819.80
54592,10.489,-10.740,1.765,0.959038,0.912889,-2.507550,101820.75
54602,9.869,-10.727,1.091,0.582836,0.970889,-2.322375,101820.70
54611,9.669,-10.022,0.484,0.219937,1.041127,-2.054724,101819.92
54622,9.426,-9.340,0.122,-0.084429,1.074650,-1.729605,101819.67
54632,9.258,-8.785,-0.048,-0.242466,1.031549,-1.408211,101819.67
54642,9.205,-8.399,-0.442,-0.249383,0.928852,-1.102248,101823.16
54652,8.988,-8.017,-0.954,-0.187127,0.808063,-0.807991,101821.31
54662,8.752,-7.133,-1.385,-0.082301,0.668650,-0.522780,101823.27
54672,8.587,-6.220,-1.596,0.097020,0.505825,-0.249808,101821.16
54682,8.523,-6.009,-1.871,0.374249,0.324908,-0.007166,101821.16
54692,8.166,-6.341,-2.122,0.691387,0.139201,0.212063,101822.75
54702,7.721,-6.627,-2.226,1.018102,-0.025221,0.437146,101822.75
54712,8.337,-6.458,-1.192,1.338964,-0.158248,0.674467,101822.28
54722,7.850,-7.318,1.318,1.694946,-0.195496,0.875604,101819.08
54732,7.713,-8.056,5.563,1.732725,-0.098120,1.153366,101819.08
54743,12.404,0.490,7.652,1.197423,0.171128,0.928283,101822.18
54752,15.645,6.013,4.689,0.352965,0.254137,0.607953,101818.05
54762,18.612,2.931,0.399,-0.099861,0.179642,0.649990,101822.07
54772,18.043,-2.916,-2.302,-0.337182,0.020009,1.026724,101820.32
54781,14.865,-3.789,-1.739,-0.391457,0.045018,1.422081,101820.32
54792,12.325,-1.305,-1.301,-0.245127,0.094504,1.622687,101825.88
54802,10.054,0.144,-1.059,0.060837,0.072155,1.672705,101822.78
54812,8.339,0.205,0.925,0.304011,0.066834,1.663659,101821.81
54822,7.650,-0.940,3.898,0.348708,0.100357,1.612044,101819.70
54832,8.162,-2.454,5.800,0.192268,0.130155,1.546063,101819.70
54842,8.673,-3.167,6.391,0.001240,0.103018,1.465182,101819.92
54852,8.893,-3.256,6.227,-0.068998,0.088119,1.386962,101820.28
54862,9.570,-2.771,4.178,-0.057824,0.049807,1.319384,101820.44
54872,9.709,-1.876,2.168,0.045937,-0.022028,1.261916,101822.03
54882,9.922,-1.611,1.173,0.221534,-0.048633,1.236375,101822.03
54892,10.043,-1.866,0.771,0.372121,-0.050762,1.231054,101823.60
54902,9.898,-1.642,0.919,0.461515,-0.035863,1.226265,101822.26
54913,9.673,-1.471,1.568,0.523772,-0.009257,1.221476,101820.93
54922,9.296,-1.948,2.417,0.490781,0.016284,1.200191,101821.13
54932,8.839,-2.722,2.743,0.329552,0.040761,1.139531,101821.13
54942,8.937,-3.243,2.585,0.093295,0.075348,1.049604,101822.82
54952,9.198,-3.547,2.464,-0.166906,0.089715,0.945311,101819.73
54962,9.510,-3.225,2.115,-0.360594,0.095568,0.855384,101820.09
54972,9.526,-2.243,2.034,-0.425512,0.093972,0.797384,101821.54
54982,9.479,-1.697,2.038,-0.372833,0.079605,0.771843,101821.54
54992,9.371,-1.663,2.200,-0.284503,0.050871,0.772907,101824.79
55002,9.216,-1.597,2.514,-0.221714,0.039165,0.773971,101820.55
55012,9.195,-1.606,2.721,-0.222778,0.038633,0.763861,101820.98
55022,9.258,-1.975,2.744,-0.253108,0.038633,0.747898,101819.73
55032,9.290,-2.161,2.508,-0.296741,0.035440,0.727146,101819.73
55043,9.250,-2.185,2.309,-0.319622,0.035972,0.704797,101821.13
55052,9.146,-2.333,2.156,-0.315897,0.037568,0.687770,101821.28
55062,8.889,-2.505,2.132,-0.307383,0.044486,0.669146,101821.80
55072,8.754,-2.675,2.173,-0.301530,0.055128,0.650522,101820.41
55083,8.724,-2.909,2.238,-0.300466,0.055128,0.634559,101820.41
55092,8.846,-2.690,2.400,-0.313237,0.046082,0.618595,101819.98
55102,8.948,-2.176,2.852,-0.321750,0.041825,0.606357,101820.28
55112,9.086,-2.074,3.012,-0.307916,0.030651,0.604760,101820.55
55122,9.144,-2.137,2.864,-0.286631,0.015220,0.607953,101822.30
55132,9.139,-2.309,2.707,-0.255769,0.001385,0.613806,101822.30
55142,9.090,-2.584,2.634,-0.264815,-0.005533,0.620192,101823.14
55152,9.065,-2.672,2.334,-0.237145,-0.018303,0.625513,101822.67
55162,9.060,-2.988,2.137,-0.235016,-0.023624,0.628705,101820.34
55173,9.143,-3.074,1.927,-0.242998,-0.032138,0.630834,101821.33
55182,9.143,-3.032,1.846,-0.254705,-0.039056,0.636155,101821.33
55192,9.157,-2.886,1.937,-0.263218,-0.041716,0.643605,101823.15
55202,9.167,-2.802,2.090,-0.252576,-0.049166,0.656375,101821.98
55213,9.143,-2.836,2.305,-0.230760,-0.059276,0.669678,101820.68
55222,9.244,-2.930,2.495,-0.221182,-0.071514,0.686173,101821.62
55232,9.177,-3.121,2.463,-0.224906,-0.081624,0.700008,101821.62
55242,9.015,-3.141,2.407,-0.241934,-0.084285,0.711715,101821.24
55252,8.793,-2.987,2.443,-0.250448,-0.085349,0.727678,101820.68
55262,8.665,-2.778,2.606,-0.234484,-0.091202,0.749494,101821.15
55272,8.578,-2.741,2.762,-0.189255,-0.102377,0.778228,101820.32
55282,8.501,-3.298,2.694,-0.139237,-0.130046,0.808558,101820.32
55292,8.549,-3.578,2.412,-0.159457,-0.151331,0.831439,101821.91
55303,8.526,-3.559,2.518,-0.226503,-0.151331,0.851127,101819.45
55312,8.611,-3.406,2.713,-0.265879,-0.154523,0.874008,101819.70
55322,8.980,-3.729,2.606,-0.267475,-0.162505,0.891568,101818.10
55332,9.182,-4.529,2.108,-0.288227,-0.173147,0.898485,101818.10
55343,9.180,-4.682,1.615,-0.381347,-0.173147,0.896889,101819.48
55352,9.361,-4.283,1.325,-0.486172,-0.174211,0.894760,101822.52
55362,9.684,-4.010,1.407,-0.515438,-0.198156,0.916577,101819.42
55372,9.857,-4.041,1.723,-0.495750,-0.234872,0.951696,101820.41
55383,9.800,-4.116,1.939,-0.490961,-0.266798,0.988412,101820.41
55393,9.641,-4.174,2.014,-0.507989,-0.288615,1.029384,101822.69
55402,9.447,-4.155,2.002,-0.529273,-0.316285,1.074081,101822.22
55412,9.553,-4.221,1.942,-0.543108,-0.357789,1.119311,101820.67
55422,9.786,-4.390,1.836,-0.544172,-0.404615,1.164008,101818.05
55432,9.851,-4.773,1.693,-0.553218,-0.457826,1.207641,101818.05
55442,9.948,-5.127,1.653,-0.616007,-0.503587,1.242760,101822.92
55452,10.166,-5.214,1.599,-0.741585,-0.544028,1.275751,101819.20
55462,10.525,-5.167,1.565,-0.874080,-0.583936,1.309274,101820.23
55473,10.762,-5.092,1.336,-0.998062,-0.620651,1.351310,101820.55
55482,11.051,-5.053,1.103,-1.122043,-0.664284,1.398136,101820.55
55492,11.620,-4.995,0.872,-1.247621,-0.728670,1.447622,101821.48
55502,12.643,-4.682,1.052,-1.369475,-0.801037,1.497109,101822.36
55513,13.913,-3.959,1.440,-1.472172,-0.878725,1.544466,101818.70
55522,14.829,-3.091,1.722,-1.503566,-0.975037,1.607787,101821.08
55532,15.316,-2.316,2.014,-1.470043,-1.076137,1.687604,101821.08
55542,15.359,-1.740,1.854,-1.407254,-1.167128,1.778595,101821.09
55553,15.401,-1.110,1.778,-1.381181,-1.238431,1.883420,101821.04
55563,15.997,-0.001,2.209,-1.381181,-1.320376,1.994099,101819.24
55572,16.756,0.765,2.873,-1.252942,-1.447550,2.116484,101818.15
55582,16.762,-0.242,2.885,-0.858117,-1.600798,2.276649,101818.15
55592,15.946,-2.792,2.837,-0.356338,-1.707220,2.463420,101821.29
55603,14.938,-5.167,3.289,0.036892,-1.757770,2.625713,101821.40
55612,14.108,-6.457,3.879,0.220469,-1.741807,2.700741,101818.87
55622,13.261,-6.705,4.158,0.194928,-1.671036,2.685310,101819.09
55632,12.049,-6.349,4.250,0.070947,-1.566743,2.587934,101819.09
55643,10.724,-5.850,3.984,-0.064209,-1.434247,2.461823,101819.75
55652,9.722,-5.559,3.129,-0.218521,-1.282596,2.354869,101821.14
55662,8.650,-5.230,2.641,-0.304723,-1.192670,2.243126,101819.59
55672,7.589,-4.649,3.052,-0.247255,-1.141055,2.014851,101817.13
55683,6.875,-3.807,2.610,-0.203090,-1.085715,1.664723,101817.13
55693,4.893,-4.029,2.309,-0.257897,-0.980890,1.306081,101821.84
55702,3.065,-5.587,1.755,-0.403695,-0.713239,0.997990,101819.57
55712,3.694,-4.568,2.082,-0.550558,-0.464743,0.729274,101818.13
55723,4.348,-2.645,2.124,-0.462759,-0.370028,0.416394,101818.43
55733,3.971,-1.107,2.204,-0.333457,-0.306707,0.069990,101818.43
55742,3.644,-0.161,1.664,-0.159457,-0.237000,-0.250340,101820.17
55752,3.496,0.105,0.953,0.016139,-0.200285,-0.532358,101820.48
55762,3.344,-0.221,0.574,0.216213,-0.174744,-0.807459,101817.91
55773,3.393,-0.879,0.394,0.405644,-0.134303,-1.071385,101818.38
55782,3.534,-1.465,0.284,0.541332,-0.093331,-1.320413,101818.38
55792,3.537,-1.958,0.224,0.663185,-0.071514,-1.557734,101818.48
55802,3.534,-2.323,0.196,0.820689,-0.057147,-1.773238,101817.80
55813,3.722,-2.491,0.175,1.019698,-0.044377,-1.974375,101816.26
55823,3.974,-2.610,0.127,1.247441,-0.028413,-2.185091,101814.30
55832,4.243,-2.748,0.287,1.464010,0.004577,-2.404852,101814.30
55842,4.536,-2.926,0.613,1.630560,0.060449,-2.614504,101814.95
55853,4.625,-3.266,0.936,1.726340,0.131220,-2.813513,101814.55
55863,4.582,-3.675,1.346,1.765716,0.212632,-2.999751,101815.78
55872,4.583,-4.270,1.625,1.730597,0.312137,-3.184925,101813.20
55882,4.825,-5.071,1.852,1.570432,0.447293,-3.378081,101813.20
55892,5.124,-5.947,2.016,1.251698,0.615972,-3.588797,101818.20
55903,5.354,-6.559,1.960,0.855808,0.804871,-3.798448,101813.87
55912,5.715,-6.896,1.720,0.446084,1.036338,-3.970851,101814.70
55922,6.039,-7.270,1.288,0.042213,1.288558,-4.088448,101815.62
55932,6.435,-7.342,1.168,-0.360594,1.528540,-4.158154,101815.62
55943,6.837,-7.154,1.263,-0.714447,1.720099,-4.196466,101817.59
55953,7.165,-6.908,1.335,-0.929952,1.877072,-4.225732,101814.09
55962,7.704,-6.386,1.177,-0.963475,2.015420,-4.235310,101817.12
55972,8.325,-6.001,0.925,-0.801713,2.143659,-4.203916,101818.46
55983,9.088,-6.181,0.468,-0.521292,2.254338,-4.132613,101818.46
55993,9.753,-6.403,-0.006,-0.202558,2.324044,-4.049604,101822.57
56002,10.303,-6.181,-0.533,0.127882,2.356503,-3.947438,101817.37
56012,10.886,-5.821,-0.906,0.495570,2.341604,-3.821328,101818.34
56023,11.416,-5.790,-1.080,0.865919,2.272961,-3.690429,101816.27
56033,11.734,-6.142,-1.022,1.158579,2.162283,-3.578154,101816.27
56042,11.994,-6.607,-0.801,1.318744,2.044686,-3.496209,101820.07
56052,12.250,-6.893,-0.564,1.339496,1.932943,-3.439806,101820.79
56062,12.465,-6.681,-0.548,1.275643,1.821732,-3.381274,101819.71
56073,12.673,-6.428,-0.573,1.204872,1.714778,-3.305182,101819.35
56082,12.978,-6.228,-0.619,1.168689,1.589200,-3.201421,101819.35
56092,13.312,-6.329,-0.706,1.171350,1.426375,-3.067861,101823.68
56102,13.194,-6.902,-1.014,1.185717,1.260357,-2.918870,101822.60
56113,12.860,-8.414,-0.839,1.171882,1.143292,-2.766687,101822.49
56123,11.818,-9.723,-0.737,0.973937,1.034742,-2.567678,101820.34
56132,10.724,-10.306,-0.573,0.678084,0.958118,-2.267568,101820.34
56142,10.108,-10.783,-0.998,0.391809,0.891072,-1.883385,101821.23
56153,9.825,-11.195,-1.521,0.097552,0.784118,-1.440669,101823.00
56163,9.640,-11.741,-1.703,-0.152007,0.584045,-0.969752,101823.09
56172,9.247,-12.153,-1.761,-0.383475,0.342999,-0.454138,101821.86
56182,9.164,-11.439,-1.745,-0.590998,0.118449,0.109898,101821.86
56193,9.067,-9.854,-1.454,-0.634631,-0.097055,0.690962,101825.63
56203,9.103,-7.870,-0.019,-0.434026,-0.304046,1.187421,101821.45
56213,9.113,-2.717,5.273,-0.059420,-0.299257,1.384833,101821.81
56222,10.404,5.267,10.105,-0.124338,-0.025753,1.091641,101818.98
56232,12.654,9.915,10.371,-0.498943,0.348852,0.639348,101818.98
56239,13.353,7.448,7.027,-0.706466,0.350449,0.556338,101819.85
56248,13.185,2.366,4.611,-0.591530,0.163146,0.631366,101819.85
56258,13.834,-1.799,4.069,-0.483512,0.006706,0.784081,101822.01
56267,15.734,-0.697,1.741,-0.364851,-0.176872,0.938925,101819.48
56278,15.580,1.140,-1.050,0.052323,-0.450908,1.104944,101818.30
56288,12.786,-0.308,-0.844,0.681277,-0.555202,1.339072,101822.46
56298,11.119,-1.729,0.274,1.068652,-0.487092,1.564687,101821.43
56307,10.579,-2.681,1.464,1.163900,-0.406743,1.701971,101819.73
56317,9.810,-3.366,2.425,1.001607,-0.344487,1.747732,101819.73
56328,8.517,-3.414,5.006,0.735552,-0.272652,1.708888,101821.79
56338,7.819,-3.567,6.429,0.481735,-0.229019,1.639714,101821.79
56347,7.452,-3.102,5.838,0.227387,-0.265734,1.533824,101821.16
56357,7.840,-2.435,4.919,0.085846,-0.293404,1.421549,101822.55
56368,8.682,-2.013,3.672,0.044341,-0.316285,1.326301,101821.67
56378,9.319,-1.863,2.367,0.053919,-0.331716,1.269898,101819.98
56388,9.656,-1.627,1.467,0.090103,-0.310964,1.247017,101819.98
56397,9.839,-1.283,1.244,0.166726,-0.257221,1.246485,101823.38
56408,9.772,-1.536,1.145,0.227919,-0.192303,1.252338,101820.20
56418,9.568,-2.543,1.295,0.182158,-0.140688,1.251274,101820.55
56428,9.380,-2.744,2.076,0.023589,-0.107166,1.218283,101820.55
56437,8.914,-2.480,2.848,-0.125934,-0.085349,1.145384,101820.55
56448,8.656,-2.565,3.308,-0.176484,-0.089606,1.069292,101824.30
56458,8.798,-2.602,3.278,-0.171695,-0.120468,1.001182,101821.92
56468,9.137,-2.207,3.170,-0.146686,-0.141753,0.942118,101822.13
56477,9.126,-1.951,3.107,-0.131787,-0.163569,0.902742,101824.03
56487,9.009,-2.078,2.874,-0.134448,-0.167294,0.879861,101824.03
56498,9.109,-2.051,2.776,-0.161585,-0.155055,0.863898,101821.67
56508,9.120,-1.841,2.855,-0.194044,-0.134835,0.852724,101820.80
56518,9.029,-1.989,2.844,-0.196705,-0.123129,0.846338,101824.88
56527,9.005,-2.188,2.831,-0.188191,-0.119936,0.837292,101822.11
56538,9.037,-2.276,2.867,-0.192980,-0.118872,0.826118,101824.58
56548,8.981,-2.462,2.767,-0.203622,-0.119936,0.815476,101823.92
56557,8.918,-2.752,2.557,-0.226503,-0.114615,0.804302,101823.92
56567,8.912,-2.951,2.322,-0.270668,-0.097588,0.784081,101821.55
56578,8.972,-2.941,2.289,-0.343035,-0.068854,0.762797,101821.23
56588,8.945,-2.825,2.424,-0.398906,-0.041716,0.743109,101821.23
56598,8.888,-2.780,2.576,-0.414337,-0.018835,0.726614,101820.13
56608,8.871,-2.968,2.399,-0.408484,0.001917,0.705329,101821.47
56617,8.945,-3.195,2.278,-0.419659,0.025330,0.687238,101821.36
56628,8.925,-2.972,2.515,-0.456374,0.034908,0.672871,101819.30
56638,8.840,-2.434,3.056,-0.457970,0.020541,0.663825,101821.48
56648,8.697,-2.338,3.289,-0.374429,-0.023092,0.668082,101819.84
56657,8.567,-2.717,2.914,-0.220650,-0.061936,0.677127,101820.98
56668,8.460,-3.494,2.518,-0.134980,-0.089606,0.675531,101821.55
56678,8.624,-3.571,2.542,-0.195640,-0.074175,0.664889,101821.55
56687,8.798,-3.523,2.476,-0.258961,-0.051294,0.654247,101821.55
56697,8.984,-3.632,2.209,-0.296209,-0.036395,0.646265,101820.51
56708,9.061,-3.862,1.955,-0.330264,-0.018303,0.636155,101822.05
56713,8.979,-3.996,1.870,-0.368044,0.005642,0.628705,101822.05
56723,8.884,-3.954,1.882,-0.422319,0.038633,0.622852,101819.27
56732,8.829,-3.643,2.180,-0.501071,0.068963,0.622852,101819.27
56742,8.882,-3.279,2.609,-0.535126,0.073752,0.635091,101823.02
56753,8.999,-3.343,2.848,-0.514906,0.060449,0.657971,101822.80
56763,8.906,-3.440,2.933,-0.485640,0.032779,0.678192,101821.93
56773,8.666,-3.537,2.992,-0.474466,0.006174,0.699476,101819.46
56782,8.628,-3.576,3.037,-0.490429,-0.010854,0.726614,101819.46
56793,8.750,-3.456,3.080,-0.520759,-0.024689,0.759604,101821.98
56803,8.885,-3.493,3.080,-0.539383,-0.049166,0.794724,101821.32
56813,8.907,-3.753,3.059,-0.551090,-0.069386,0.834100,101822.09
56822,8.998,-4.087,3.157,-0.583016,-0.088542,0.864962,101822.34
56834,9.191,-4.356,3.152,-0.635518,-0.114970,0.877023,101822.34
56843,9.259,-4.618,2.945,-0.672943,-0.133771,0.879861,101820.43
56853,9.242,-4.709,2.830,-0.723493,-0.155055,0.874540,101823.93
56862,9.244,-4.696,2.690,-0.752227,-0.175808,0.868687,101821.05
56872,9.428,-4.708,2.569,-0.762337,-0.193367,0.874540,101820.23
56883,9.705,-4.673,2.328,-0.780429,-0.218377,0.891036,101820.23
56893,9.905,-4.640,2.139,-0.804906,-0.245514,0.922430,101820.82
56903,10.053,-4.447,2.015,-0.830979,-0.277441,0.967659,101822.84
56912,10.091,-4.268,2.106,-0.843750,-0.310964,1.022467,101821.95
56923,10.043,-4.294,2.108,-0.840557,-0.348743,1.084723,101818.13
56933,10.009,-4.363,2.129,-0.836833,-0.383331,1.149109,101818.13
56943,9.923,-4.517,2.173,-0.838429,-0.418450,1.211366,101823.34
56952,9.899,-4.714,2.161,-0.859181,-0.450376,1.268834,101823.23
56963,10.214,-4.833,2.169,-0.912924,-0.478046,1.319384,101820.34
56973,10.899,-4.958,2.168,-0.967200,-0.506248,1.365145,101818.66
56983,11.621,-5.195,2.095,-1.027860,-0.532853,1.398668,101818.66
56993,12.185,-5.400,1.969,-1.141732,-0.538707,1.427402,101821.34
57003,12.548,-5.296,1.838,-1.332227,-0.513697,1.450815,101823.05
57013,12.929,-4.712,2.002,-1.567419,-0.484431,1.484338,101821.39
57023,13.598,-3.847,2.464,-1.788245,-0.469000,1.541806,101819.69
57033,14.327,-2.933,3.290,-1.984593,-0.462615,1.640246,101819.69
57042,14.843,-2.047,4.520,-2.135713,-0.455165,1.781255,101826.20
57053,15.009,-1.561,5.564,-2.218722,-0.436541,1.968026,101820.16
57063,14.792,-2.182,6.145,-2.204887,-0.396633,2.203218,101820.16
57073,14.622,-3.917,6.187,-2.100593,-0.333312,2.462888,101818.30
57082,14.927,-5.201,6.119,-1.962777,-0.260413,2.708190,101818.30
57093,15.113,-5.362,5.483,-1.880300,-0.195496,2.844943,101821.52
57103,14.448,-5.546,4.689,-1.911694,-0.113551,2.864631,101820.54
57113,13.532,-5.266,4.088,-2.079841,-0.005533,2.776833,101818.95
57122,12.335,-4.351,3.484,-2.222979,0.110467,2.641677,101819.62
57133,11.185,-3.562,2.982,-2.205951,0.197733,2.499603,101819.62
57143,10.185,-3.167,2.805,-2.021841,0.227531,2.344227,101822.03
57153,9.096,-2.668,2.914,-1.696722,0.234981,2.157457,101818.80
57163,7.658,-2.223,2.694,-1.286465,0.253605,1.928650,101820.08
57172,6.511,-1.787,1.262,-0.952833,0.266375,1.641310,101817.86
57183,4.218,-4.779,-1.699,-0.764998,0.287128,1.405054,101817.86
57193,3.243,-8.242,-1.972,-0.685713,0.463788,1.340668,101818.52
57203,4.347,-6.258,-1.125,-0.460631,0.571806,1.103347,101818.79
57212,4.508,-3.342,-1.083,-0.216393,0.594687,0.741513,101817.65
57223,4.163,-1.253,-1.102,0.081589,0.615439,0.414265,101819.04
57233,3.689,0.201,-1.553,0.485992,0.578724,0.099788,101819.04
57243,3.115,0.601,-1.818,0.945735,0.544137,-0.195000,101819.96
57252,3.027,0.125,-1.818,1.340561,0.563825,-0.480211,101818.26
57263,3.000,-0.547,-1.559,1.535313,0.601605,-0.759037,101818.05
57273,2.840,-1.013,-1.355,1.599698,0.640449,-1.043183,101815.43
57283,2.658,-1.519,-1.286,1.596505,0.687806,-1.324137,101815.43
57293,2.757,-2.062,-1.363,1.524670,0.741017,-1.588596,101817.68
57303,2.845,-2.564,-1.582,1.420909,0.775605,-1.843477,101817.82
57313,2.978,-2.795,-1.890,1.292138,0.806467,-2.082926,101815.87
57323,3.354,-2.720,-2.125,1.140487,0.841054,-2.327164,101814.79
57333,3.819,-2.592,-2.182,0.976065,0.870852,-2.575660,101814.79
57342,4.314,-2.453,-2.218,0.822286,0.897458,-2.823091,101818.82
57353,4.745,-2.428,-2.320,0.684469,0.922467,-3.061476,101818.26
57363,5.080,-2.602,-2.296,0.586561,0.952797,-3.273255,101816.66
57373,5.423,-2.877,-2.230,0.555699,0.983127,-3.438741,101815.99
57382,5.747,-3.161,-2.162,0.617955,1.005476,-3.571769,101815.99
57393,6.040,-3.562,-2.165,0.739276,1.017715,-3.681384,101817.56
57403,6.310,-4.130,-2.037,0.876029,1.025164,-3.784081,101821.22
57413,6.666,-4.726,-1.720,0.968616,1.041127,-3.890503,101818.06
57423,7.146,-5.138,-1.313,0.990432,1.069861,-4.001714,101815.95
57433,7.808,-5.347,-0.978,0.939882,1.106045,-4.121439,101815.95
57443,8.539,-5.399,-0.794,0.843570,1.150210,-4.235842,101819.09
57453,9.298,-5.461,-0.772,0.704689,1.209274,-4.326301,101818.01
57463,9.940,-5.710,-0.759,0.509405,1.278448,-4.386961,101820.23
57473,10.638,-6.088,-0.634,0.263570,1.352412,-4.427402,101818.37
57483,11.326,-6.542,-0.476,-0.001420,1.417329,-4.455071,101818.37
57493,11.818,-7.185,-0.393,-0.249383,1.460430,-4.473163,101819.55
57503,12.095,-7.730,-0.229,-0.471805,1.495017,-4.479016,101820.52
57512,12.399,-7.907,-0.082,-0.647402,1.541310,-4.464117,101817.34
57523,12.872,-7.688,-0.118,-0.762869,1.592925,-4.430594,101817.95
57533,13.386,-7.484,-0.333,-0.855456,1.645604,-4.374191,101817.95
57543,13.816,-7.324,-0.534,-0.923567,1.688173,-4.281072,101822.11
57553,14.020,-7.534,-0.523,-0.966667,1.706797,-4.155494,101818.56
57563,13.960,-8.395,-0.359,-1.033713,1.692430,-4.018741,101818.92
57573,13.278,-9.359,-0.092,-1.226337,1.660503,-3.853255,101820.56
57583,12.315,-9.499,-0.043,-1.487603,1.658907,-3.614338,101820.56
57593,11.695,-9.250,-0.266,-1.680227,1.678063,-3.299329,101822.18
57603,11.356,-9.128,-0.770,-1.788245,1.651989,-2.936430,101821.37
57613,11.026,-9.596,-1.518,-1.848373,1.528540,-2.551715,101820.85
57623,10.536,-10.671,-2.327,-1.940960,1.285898,-2.132944,101820.48
57633,9.725,-12.146,-3.081,-2.044722,0.941091,-1.605091,101820.48
57644,9.413,-12.416,-3.073,-2.134116,0.578192,-0.943147,101820.88
57653,9.654,-10.782,-2.487,-2.100593,0.248816,-0.204578,101823.50
57663,9.632,-8.879,-0.105,-1.794630,-0.007661,0.454706,101822.73
57673,9.242,-6.913,1.292,-1.226869,-0.140688,0.922430,101818.03
57682,8.827,-0.427,4.086,-0.875145,-0.162505,0.994265,101818.03
57693,9.863,6.024,7.360,-0.611218,0.057256,0.647861,101820.99
57703,11.555,7.226,7.252,-0.426044,0.183366,0.436082,101819.85
57713,12.934,5.427,6.743,-0.139769,0.059385,0.442999,101819.38
57723,13.562,3.380,9.109,0.222598,-0.048633,0.583476,101818.20
57733,14.038,-1.184,11.638,0.746194,-0.020432,0.956485,101818.20
57743,15.331,-5.884,7.001,1.309698,-0.235936,1.438576,101819.73
57753,12.818,-7.026,0.793,1.591716,-0.813807,1.708356,101821.48
57763,10.650,-5.900,-0.719,1.508175,-0.920761,1.722723,101818.38
57773,10.785,-5.442,-1.051,0.804726,-0.748358,1.672173,101820.60
57784,9.789,-4.899,-1.562,-0.227212,-0.525759,1.579408,101820.60
57793,9.437,-2.669,-0.707,-0.838961,-0.256156,1.490723,101824.71
57803,9.316,-0.710,1.914,-0.928356,-0.115147,1.416760,101821.68
57814,8.706,-1.023,4.022,-0.703273,-0.161441,1.355035,101818.32
57823,7.827,-1.110,4.591,-0.489897,-0.233276,1.281604,101818.01
57833,7.722,-1.089,4.660,-0.253640,-0.266798,1.171989,101818.01
57843,8.070,-1.764,4.144,-0.078044,-0.302982,1.074613,101820.63
57853,8.738,-2.010,3.694,-0.041329,-0.314156,0.993201,101819.45
57863,9.063,-1.985,3.212,-0.080173,-0.299789,0.917641,101817.85
57873,8.973,-1.782,2.832,-0.131787,-0.265202,0.861237,101820.34
57883,8.946,-1.699,2.753,-0.151475,-0.223698,0.827182,101820.34
57893,8.893,-1.671,2.939,-0.133384,-0.196560,0.802705,101820.20
57904,8.980,-1.920,3.318,-0.106246,-0.188046,0.770601,101821.45
57913,9.174,-2.323,3.198,-0.123273,-0.189110,0.729274,101820.78
57923,9.240,-2.570,2.999,-0.172760,-0.182193,0.675531,101818.88
57933,9.088,-2.422,2.896,-0.207347,-0.168890,0.623384,101818.88
57944,8.897,-2.170,2.902,-0.225438,-0.153459,0.587201,101820.84
57953,8.861,-2.089,3.096,-0.216393,-0.148138,0.565916,101822.45
57963,8.871,-1.906,3.503,-0.202558,-0.164633,0.551017,101819.87
57973,8.675,-1.863,3.751,-0.183934,-0.180597,0.540907,101819.13
57984,8.682,-2.101,3.602,-0.178081,-0.179532,0.533458,101819.13
57993,8.802,-2.323,3.314,-0.188723,-0.177936,0.523348,101822.35
58003,8.912,-2.396,3.047,-0.217989,-0.167294,0.510577,101822.87
58013,8.840,-2.353,2.843,-0.250980,-0.144413,0.501531,101820.70
58023,8.742,-2.352,2.737,-0.255237,-0.124725,0.491953,101821.05
58033,8.585,-2.215,2.904,-0.227567,-0.113551,0.483972,101821.05
58043,8.365,-2.155,3.141,-0.164778,-0.100248,0.474394,101823.55
58053,8.232,-2.393,3.414,-0.092943,-0.098120,0.469072,101821.53
58063,8.409,-2.492,3.425,-0.047182,-0.112487,0.462155,101822.20
58074,8.824,-2.432,3.411,-0.043989,-0.122597,0.469072,101817.16
58083,9.156,-2.417,3.122,-0.075384,-0.137496,0.482375,101817.16
58093,9.155,-2.443,2.820,-0.123806,-0.128450,0.497274,101821.77
58103,9.027,-2.550,2.588,-0.145090,-0.118340,0.515898,101820.64
58114,8.938,-2.768,2.328,-0.133916,-0.119936,0.531861,101820.80
58123,8.894,-3.094,2.249,-0.128595,-0.109294,0.538247,101819.41
58133,8.896,-3.431,2.248,-0.158393,-0.095459,0.536118,101819.41
58143,8.831,-3.468,2.376,-0.215328,-0.077900,0.524944,101822.80
58153,8.804,-3.224,2.548,-0.271732,-0.059276,0.515366,101823.43
58163,8.821,-2.938,2.737,-0.302594,-0.037459,0.513770,101823.54
58173,8.877,-2.850,2.805,-0.303659,-0.018835,0.521751,101819.20
58183,8.951,-2.784,2.919,-0.300466,-0.002872,0.529201,101819.20
58193,9.011,-2.777,3.042,-0.290356,0.004045,0.533458,101823.76
58204,8.890,-2.760,3.271,-0.277585,-0.006597,0.536118,101822.26
58213,8.705,-2.953,3.148,-0.241402,-0.018303,0.539311,101819.79
58223,8.605,-3.268,2.915,-0.215328,-0.018303,0.541439,101818.91
58233,8.627,-3.335,2.770,-0.221182,-0.016707,0.542504,101818.91
58244,8.590,-3.385,2.800,-0.242998,-0.003936,0.548889,101821.24
58253,8.561,-3.511,2.793,-0.275457,0.013623,0.557403,101820.88
58263,8.612,-3.631,2.826,-0.322815,0.027458,0.563788,101818.26
58273,8.598,-3.565,2.953,-0.377090,0.043954,0.570705,101818.30
58284,8.602,-3.391,3.134,-0.422319,0.054064,0.580816,101818.30
58293,8.657,-3.251,3.260,-0.431365,0.052999,0.595715,101822.52
58303,8.678,-3.392,3.241,-0.418594,0.036504,0.614871,101822.16
58313,8.761,-3.731,3.163,-0.412741,0.015752,0.632430,101821.33
58323,8.843,-3.811,3.146,-0.440411,-0.001808,0.646797,101817.72
58333,8.913,-3.852,3.190,-0.471805,-0.017239,0.664889,101817.72
58343,8.889,-4.005,3.224,-0.510649,-0.026817,0.688302,101821.85
58353,8.930,-3.977,3.170,-0.566521,-0.025753,0.712247,101822.88
58363,8.988,-3.974,3.220,-0.625053,-0.029478,0.742045,101817.73
58374,8.988,-4.039,3.171,-0.671346,-0.034799,0.777164,101816.65
58383,9.053,-4.054,2.998,-0.717108,-0.037459,0.812283,101816.65
58393,9.228,-4.003,2.676,-0.761273,-0.050230,0.851659,101820.24
58403,9.361,-4.137,2.409,-0.783622,-0.073111,0.896357,101820.45
58414,9.399,-4.189,2.259,-0.799053,-0.099184,0.947971,101820.51
58423,9.436,-4.135,2.245,-0.804906,-0.130046,0.995861,101820.65
58433,9.504,-4.296,2.242,-0.794796,-0.165698,1.049072,101820.65
58443,9.550,-4.527,2.284,-0.794264,-0.202413,1.099623,101823.14
58454,9.589,-4.639,2.326,-0.814484,-0.232211,1.144320,101821.03
58464,9.656,-4.791,2.391,-0.852796,-0.255624,1.190081,101818.45
58473,9.909,-4.782,2.427,-0.909200,-0.279037,1.233182,101819.59
58483,10.378,-4.709,2.454,-0.954961,-0.316817,1.280008,101819.59
58493,10.913,-4.708,2.388,-0.967200,-0.372688,1.328430,101822.77
58499,11.272,-4.764,2.380,-0.970392,-0.413661,1.361953,101819.42
58508,11.531,-4.837,2.255,-0.981034,-0.446652,1.396540,101819.42
58518,11.857,-4.973,1.960,-1.027860,-0.478046,1.438576,101824.11
58528,12.143,-5.113,1.581,-1.116722,-0.490817,1.479549,101819.88
58539,12.569,-4.871,1.303,-1.256667,-0.493477,1.521586,101819.88
58549,13.085,-4.266,1.342,-1.451419,-0.496138,1.580650,101820.21
58558,13.904,-3.414,1.693,-1.649896,-0.504652,1.656742,101819.90
58568,14.958,-2.380,2.317,-1.815382,-0.521147,1.741347,101818.35
58578,15.696,-1.390,2.988,-1.920740,-0.527532,1.855751,101818.35
58589,15.794,-1.191,3.122,-1.959584,-0.508376,2.005273,101818.35
58598,15.230,-1.841,3.041,-1.929786,-0.478578,2.159053,101820.55
58608,14.246,-3.170,3.186,-1.863272,-0.431220,2.308576,101818.84
58618,13.606,-5.204,3.594,-1.756318,-0.374285,2.456502,101820.44
58629,13.536,-6.195,3.989,-1.639786,-0.332248,2.550686,101818.42
58639,13.238,-6.658,3.646,-1.557309,-0.291276,2.567713,101818.42
58648,12.285,-6.602,3.335,-1.616906,-0.241789,2.504392,101822.96
58658,11.321,-5.769,3.330,-1.741951,-0.157716,2.380943,101818.74
58669,10.433,-5.107,2.819,-1.753658,-0.099184,2.247916,101819.55
58679,9.414,-5.211,2.238,-1.661603,-0.098652,2.137769,101819.55
58689,8.333,-6.014,1.911,-1.507291,-0.133771,2.012191,101821.98
58698,6.969,-6.112,2.440,-1.434392,-0.155055,1.823824,101821.98
58708,6.073,-4.936,2.883,-1.334887,-0.140156,1.554044,101819.80
58719,5.213,-3.893,2.229,-1.292851,-0.118872,1.189549,101818.16
58728,2.828,-5.484,1.456,-1.367878,0.024798,0.863366,101818.73
58738,2.744,-5.070,1.535,-1.598814,0.256265,0.616467,101818.73
58748,3.723,-1.609,1.332,-1.563162,0.323843,0.301458,101820.56
58759,3.807,0.873,1.312,-1.236447,0.295109,-0.045478,101819.98
58769,3.555,1.994,1.087,-0.842686,0.284999,-0.367404,101818.70
58778,3.673,2.434,0.466,-0.423915,0.265843,-0.636652,101815.88
58788,3.824,2.237,-0.176,0.028378,0.212100,-0.889936,101819.00
58799,4.004,1.513,-0.506,0.457258,0.173788,-1.141092,101818.39
58809,4.376,0.668,-0.632,0.772267,0.162614,-1.379477,101817.45
58818,4.741,-0.050,-0.694,0.982983,0.162082,-1.616798,101817.45
58828,4.904,-0.474,-0.881,1.141551,0.156229,-1.858908,101817.05
58839,4.954,-0.880,-0.999,1.273515,0.151972,-2.097293,101817.05
58849,4.996,-1.293,-1.034,1.379405,0.157293,-2.319715,101816.04
58858,5.148,-1.677,-0.850,1.465074,0.176449,-2.537348,101816.76
58868,5.409,-1.890,-0.586,1.533184,0.208376,-2.753384,101815.37
58878,5.690,-2.047,-0.252,1.583203,0.246155,-2.969953,101815.48
58889,5.962,-2.128,-0.023,1.615129,0.290320,-3.180668,101815.48
58899,6.286,-2.261,0.062,1.618322,0.331825,-3.373292,101816.12
58908,6.569,-2.705,0.138,1.585331,0.377586,-3.543567,101813.07
58918,6.980,-3.251,0.308,1.500726,0.441972,-3.705328,101813.54
58929,7.652,-3.595,0.499,1.356524,0.530834,-3.872411,101813.54
58938,8.379,-3.761,0.645,1.196359,0.632999,-4.048007,101813.54
58948,9.085,-3.883,0.705,1.082487,0.728247,-4.218815,101814.29
58958,9.820,-4.145,0.503,1.043111,0.802210,-4.368870,101817.63
58969,10.421,-4.738,0.187,1.052689,0.863403,-4.471567,101817.99
58974,10.758,-5.368,0.204,1.049496,0.910228,-4.521053,101815.68
58983,11.001,-6.088,0.444,1.002671,0.953329,-4.564686,101815.68
58993,11.336,-6.877,0.875,0.880818,0.985256,-4.637585,101820.13
59003,11.682,-7.241,1.141,0.797809,1.002283,-4.695585,101818.07
59014,11.988,-7.431,1.374,0.832928,1.018247,-4.711548,101819.57
59024,12.302,-7.457,1.516,0.947864,1.034210,-4.691860,101816.05
59033,12.656,-7.193,1.365,1.051625,1.048045,-4.653016,101816.05
59043,13.112,-6.753,1.231,1.109093,1.063476,-4.590227,101820.71
59054,13.762,-6.948,1.155,1.146340,1.074118,-4.486998,101819.32
59064,14.386,-7.709,1.068,1.155386,1.065604,-4.351842,101817.15
59073,14.696,-8.546,1.080,1.129845,1.033678,-4.183695,101819.73
59083,14.522,-9.304,1.040,1.071845,1.003348,-3.974044,101819.73
59094,13.762,-10.099,0.882,1.040983,1.032259,-3.690607,101820.81
59104,13.042,-11.448,0.777,1.020230,1.073054,-3.406283,101819.78
59114,11.755,-12.575,0.430,0.837717,1.052834,-3.050833,101820.03
59123,10.608,-13.085,-0.190,0.526965,0.990045,-2.611311,101818.33
59133,9.896,-13.889,-0.455,0.190671,0.854889,-2.071752,101818.33
59144,9.229,-14.858,-0.154,-0.048778,0.610118,-1.444394,101821.02
59154,8.711,-15.010,0.588,-0.193512,0.326504,-0.732963,101820.40
59163,8.361,-13.599,1.318,-0.247787,0.101954,0.032210,101822.05
59173,8.064,-11.443,1.827,-0.128595,-0.052890,0.751623,101823.45
59184,7.706,-10.216,1.617,0.190671,-0.192303,1.298100,101823.45
59194,8.599,-8.971,2.521,0.536011,-0.291808,1.646099,101821.91
59203,8.893,-4.345,2.623,0.765350,-0.301386,1.712613,101820.67
59213,9.648,2.267,5.083,0.676488,-0.197624,1.472631,101821.55
59224,12.592,7.492,4.038,0.481735,0.013091,1.108668,101818.45
59234,14.801,8.189,0.539,0.496102,-0.067257,1.009696,101818.45
59244,15.250,6.828,-1.151,0.978726,-0.318945,1.097494,101822.00
59253,14.585,3.860,-0.823,1.657698,-0.454633,1.281072,101824.64
59264,13.996,0.321,-0.588,2.139789,-0.386523,1.488595,101822.42
59274,12.082,-1.782,-1.019,2.135000,-0.235936,1.609916,101820.83
59284,8.532,-4.938,-0.020,1.848193,-0.068322,1.616833,101820.83
59293,7.800,-9.078,3.971,1.610340,0.203054,1.684943,101824.67
59303,11.507,-10.558,5.852,1.336304,0.379715,1.790301,101821.28
59314,12.608,-8.043,3.269,0.705221,0.124834,1.747200,101821.89
59324,9.721,-4.375,2.040,0.083717,-0.081624,1.564687,101819.06
59333,8.102,-1.655,2.900,-0.363255,0.004045,1.403989,101819.06
59343,8.045,-0.715,2.552,-0.654851,0.079073,1.330558,101820.05
59354,8.958,0.257,1.101,-0.582484,0.115256,1.305549,101818.66
59364,10.224,0.752,0.358,-0.122741,0.074816,1.319384,101819.84
59374,10.250,0.013,0.503,0.337002,-0.003936,1.361421,101821.80
59383,9.539,-1.287,0.905,0.584965,-0.030542,1.368870,101821.80
59394,9.110,-2.601,1.718,0.633919,-0.004468,1.294907,101821.82
59404,9.064,-3.936,2.194,0.449277,0.018944,1.169329,101820.70
59414,9.107,-4.280,2.058,0.077864,0.050871,1.011824,101820.48
59423,9.234,-3.431,2.089,-0.281310,0.098229,0.861769,101817.09
59433,9.474,-1.875,2.131,-0.413273,0.110467,0.761201,101817.09
59444,9.600,-0.778,2.246,-0.310044,0.077477,0.730338,101823.70
59454,9.541,-0.825,2.429,-0.102521,0.027458,0.732467,101819.57
59463,9.361,-1.527,2.776,0.041148,-0.010322,0.728210,101821.63
59473,9.289,-2.079,3.175,0.029442,-0.022028,0.692559,101817.15
59484,9.320,-2.373,3.368,-0.074319,-0.019900,0.637751,101817.15
59494,9.418,-2.535,2.777,-0.194576,-0.041716,0.590394,101820.93
59503,9.619,-2.077,1.966,-0.293549,-0.061936,0.564852,101820.93
59513,9.661,-1.663,1.719,-0.360594,-0.056083,0.569641,101823.04
59524,9.753,-1.545,1.596,-0.373365,-0.060340,0.601568,101821.70
59534,9.721,-1.591,1.627,-0.343035,-0.082156,0.645201,101821.70
59544,9.414,-1.654,1.987,-0.296209,-0.107698,0.688834,101821.34
59553,9.100,-1.642,2.498,-0.269072,-0.124193,0.722889,101821.61
59564,9.006,-1.646,2.937,-0.263218,-0.132175,0.745770,101820.11
59574,9.021,-1.671,3.207,-0.253108,-0.140688,0.762265,101819.80
59584,9.086,-1.677,3.145,-0.224906,-0.153991,0.770779,101819.80
59593,8.976,-1.701,3.049,-0.161585,-0.169955,0.781953,101821.34
59603,8.713,-1.732,3.012,-0.073255,-0.185918,0.793127,101818.45
59614,8.574,-2.139,2.901,0.029442,-0.207734,0.807494,101820.47
59624,8.654,-2.885,2.356,0.093827,-0.248175,0.815476,101819.48
59633,8.845,-3.213,1.975,0.049130,-0.258817,0.806962,101819.48
59643,8.912,-2.985,1.900,-0.042393,-0.242321,0.801109,101824.60
59654,8.982,-2.661,1.732,-0.073255,-0.239661,0.808026,101821.77
59664,9.095,-2.511,1.627,-0.039200,-0.260945,0.826650,101821.15
59674,9.223,-2.575,1.814,0.018800,-0.287551,0.854320,101818.73
59683,9.302,-2.929,2.008,0.061369,-0.316285,0.875072,101818.73
59689,9.192,-3.108,2.196,0.059772,-0.335973,0.881990,101821.16
59699,9.011,-3.327,2.175,0.045405,-0.340230,0.883054,101821.16
59709,8.900,-3.638,1.932,0.013479,-0.339165,0.885182,101820.09
59719,8.909,-3.638,1.649,-0.030154,-0.343422,0.888907,101821.05
59728,8.939,-3.616,1.512,-0.069530,-0.350340,0.896889,101821.88
59739,9.004,-3.634,1.343,-0.091879,-0.353000,0.912852,101823.29
59749,9.241,-3.610,1.212,-0.117420,-0.358321,0.928815,101821.02
59759,9.448,-3.567,1.133,-0.142429,-0.379606,0.953292,101820.30
59768,9.541,-3.582,1.251,-0.155732,-0.400890,0.981494,101820.30
59779,9.647,-3.783,1.349,-0.171695,-0.421642,1.006503,101818.87
59789,9.770,-3.932,1.438,-0.199365,-0.443459,1.029916,101818.87
59799,9.727,-4.051,1.371,-0.230227,-0.463147,1.051201,101819.55
59808,9.623,-4.094,1.215,-0.251512,-0.481239,1.070889,101822.07
59819,9.612,-4.033,1.161,-0.265879,-0.507844,1.092705,101818.68
59829,9.624,-4.050,1.306,-0.263218,-0.553074,1.115586,101819.34
59839,9.760,-4.221,1.554,-0.254172,-0.599367,1.143256,101819.34
59849,9.932,-4.482,1.656,-0.258429,-0.637147,1.167733,101820.45
59858,10.024,-4.630,1.474,-0.307383,-0.662688,1.189017,101819.18
59869,10.230,-4.418,1.305,-0.383475,-0.688229,1.217751,101821.66
59879,10.426,-4.174,1.300,-0.424448,-0.736119,1.256063,101821.66
59889,10.615,-4.162,1.432,-0.424448,-0.805826,1.310338,101821.66
59898,10.767,-4.286,1.652,-0.416998,-0.876596,1.365677,101820.40
59909,11.007,-4.600,1.822,-0.429237,-0.937789,1.414099,101823.34
59919,11.423,-4.932,1.766,-0.496282,-0.983018,1.454008,101818.85
59929,11.995,-5.095,1.603,-0.613879,-1.021862,1.481677,101817.37
59938,12.791,-5.076,1.444,-0.747438,-1.076137,1.500833,101817.37
59949,13.778,-5.049,1.358,-0.914521,-1.135734,1.511476,101820.91
59959,14.963,-4.689,1.601,-1.152374,-1.177238,1.522118,101820.69
59969,16.327,-3.134,2.544,-1.463658,-1.203312,1.554576,101819.94
59979,16.839,-0.948,3.542,-1.748337,-1.197991,1.660998,101819.94
59988,16.561,-0.285,3.426,-1.819639,-1.187881,1.819567,101821.80
59999,16.203,-0.372,3.200,-1.797291,-1.210229,1.964833,101822.88
60009,15.454,-0.877,3.289,-1.803676,-1.240559,2.094668,101822.88
60019,14.381,-2.572,3.412,-1.636594,-1.322504,2.272925,101818.91
60028,13.542,-5.030,4.216,-1.269970,-1.501825,2.463952,101816.96
60039,13.503,-4.970,4.632,-0.923034,-1.619421,2.562392,101816.96
60049,13.179,-3.950,4.347,-0.632502,-1.623146,2.537383,101822.66
60059,12.266,-3.552,3.703,-0.454246,-1.582706,2.445860,101820.95
60069,11.046,-3.183,3.503,-0.352081,-1.549715,2.306448,101818.73
60079,9.815,-2.985,3.469,-0.251512,-1.506082,2.154796,101816.98
60089,8.866,-3.027,3.506,-0.077512,-1.482137,2.027622,101820.58
60099,7.820,-2.748,3.787,0.189075,-1.486926,1.807329,101816.36
60109,7.181,-2.632,3.450,0.440231,-1.481605,1.502962,101815.84
60119,5.697,-3.656,1.277,0.461515,-1.479477,1.143256,101817.28
60129,4.466,-6.657,0.602,0.229515,-1.279403,0.947971,101817.28
60139,5.093,-5.143,1.500,0.062965,-1.087844,0.653715,101817.28
60149,5.422,-2.256,1.647,0.020396,-1.014413,0.200357,101821.13
60158,5.208,-0.422,1.784,0.017204,-0.980890,-0.190212,101818.77
60169,4.848,0.905,1.614,0.160341,-1.008027,-0.548854,101817.58
60179,4.427,1.750,1.267,0.488653,-1.072945,-0.880890,101818.77
60189,4.199,1.820,1.285,0.985111,-1.126156,-1.184725,101818.77
60199,4.242,1.143,1.587,1.522010,-1.157550,-1.462486,101817.95
60209,4.373,-0.047,1.907,1.973771,-1.182559,-1.721623,101817.28
60219,4.504,-1.434,2.270,2.289844,-1.194798,-1.979697,101816.66
60229,4.688,-2.556,2.508,2.467569,-1.185220,-2.234045,101816.66
60239,4.891,-3.171,2.646,2.543661,-1.162339,-2.479348,101816.06
60249,5.100,-3.402,2.859,2.578248,-1.127752,-2.711348,101816.06
60259,5.353,-3.439,3.091,2.604321,-1.076670,-2.919402,101812.86
60269,5.652,-3.473,3.362,2.630927,-1.008559,-3.108301,101814.25
60279,6.004,-3.228,3.824,2.712872,-0.931936,-3.279109,101813.48
60289,6.314,-4.159,4.128,2.801734,-0.860101,-3.447255,101813.48
60299,6.625,-4.823,4.343,2.631991,-0.744633,-3.625512,101813.63
60309,7.157,-4.461,4.554,2.377110,-0.605220,-3.794191,101810.29
60319,7.631,-4.768,4.530,2.258982,-0.466340,-3.957549,101812.76
60329,8.093,-5.718,4.270,2.219606,-0.308835,-4.111329,101811.29
60339,8.289,-6.865,4.055,2.140321,-0.106633,-4.254466,101814.54
60349,8.526,-7.491,4.346,1.949294,0.128027,-4.361952,101814.84
60359,8.835,-7.764,4.580,1.727404,0.347788,-4.445493,101815.35
60368,9.100,-7.950,4.656,1.540102,0.532430,-4.504558,101815.35
60379,9.300,-8.132,4.574,1.460285,0.693660,-4.547658,101813.76
60389,9.708,-8.484,4.340,1.471992,0.851164,-4.572135,101813.76
60399,10.057,-9.036,4.045,1.479973,1.006540,-4.575328,101815.92
60409,10.333,-9.491,3.678,1.431019,1.157127,-4.559365,101816.84
60420,10.744,-9.623,3.407,1.345882,1.301861,-4.512539,101816.33
60429,11.256,-9.902,3.138,1.276707,1.442338,-4.416759,101815.50
60439,11.660,-10.548,2.739,1.229882,1.571641,-4.268833,101815.50
60449,11.873,-11.116,2.210,1.200083,1.675934,-4.068228,101818.73
60460,11.931,-11.450,1.710,1.201680,1.755219,-3.811218,101815.13
60469,11.918,-11.839,1.463,1.232010,1.794595,-3.495677,101818.90
60479,11.793,-12.526,1.174,1.261276,1.789274,-3.128521,101818.90
60489,11.566,-13.367,0.629,1.203808,1.764264,-2.751788,101818.90
60499,11.269,-13.538,0.049,0.979258,1.737659,-2.396871,101821.56
60509,11.134,-12.798,-0.737,0.704689,1.682320,-2.063770,101818.67
60519,10.900,-11.632,-1.622,0.541864,1.524815,-1.757807,101821.97
60529,10.427,-10.133,-2.143,0.575919,1.272063,-1.465146,101819.03
60538,10.037,-9.574,-2.274,0.834524,0.975678,-1.144284,101819.03
60550,9.280,-10.073,-2.485,1.141551,0.634063,-0.781385,101821.66
60559,8.459,-10.411,-2.082,1.419845,0.315862,-0.382303,101820.58
60569,7.894,-11.115,-1.733,1.703991,0.082266,0.047109,101820.52
60579,7.578,-11.839,-1.843,1.874267,-0.063000,0.493549,101820.52
60590,8.264,-11.591,-0.292,1.921624,-0.121000,0.894228,101821.73
60599,8.916,-11.041,-1.841,1.919496,-0.221569,1.288522,101821.73
60609,10.622,-2.157,2.153,1.765716,-0.296597,1.456668,101823.28
60619,14.813,11.539,3.700,1.425698,-0.169422,0.876669,101819.27
60628,16.615,14.097,-0.156,1.100579,-0.059808,0.584008,101819.22
60639,17.653,6.540,-4.776,0.978194,-0.075239,0.841549,101819.22
60649,12.938,0.575,-2.364,0.902634,-0.032670,1.198595,101824.84
60659,7.669,-4.390,6.193,0.797276,0.298834,1.419953,101820.36
60669,9.278,-15.486,12.548,1.280964,0.702706,1.930778,101817.83
60680,19.693,-15.555,3.338,1.574689,0.352045,2.391585,101816.23
60689,14.760,-4.991,-1.074,1.290010,-0.547752,2.171292,101820.38
60699,7.545,-1.016,0.127,0.831864,-0.285954,1.846705,101820.83
60709,5.654,-3.870,2.346,-0.126998,-0.061404,1.799879,101820.22
60719,7.377,-4.023,2.230,-0.983695,-0.022560,1.689732,101820.22
60729,9.358,0.390,1.208,-1.295511,0.149843,1.587567,101819.55
60739,9.898,2.428,0.976,-0.703805,0.150908,1.543402,101819.55
60749,9.851,1.141,2.018,0.058708,-0.001808,1.596613,101824.40
60760,8.972,-1.492,3.289,0.541864,-0.138028,1.607433,101820.43
60769,8.894,-3.188,2.868,0.766414,-0.169422,1.476356,101820.43
60779,9.272,-4.208,2.390,0.619552,-0.166230,1.311402,101819.29
60789,9.319,-3.762,2.661,0.147038,-0.121533,1.166668,101819.29
60800,9.290,-2.930,2.961,-0.229163,-0.073111,1.044815,101819.81
60809,9.247,-1.800,2.488,-0.332393,-0.080028,0.960210,101821.39
60819,9.327,-1.017,2.072,-0.213200,-0.098120,0.927751,101819.45
60829,9.199,-1.432,1.605,0.016671,-0.118872,0.916577,101819.45
60839,9.048,-2.420,1.397,0.189607,-0.117808,0.881458,101819.45
60849,8.984,-3.281,1.437,0.201846,-0.084817,0.813347,101823.57
60859,8.987,-3.548,1.467,0.073075,-0.024689,0.729274,101822.60
60869,8.999,-3.048,1.644,-0.099861,0.034376,0.659036,101822.34
60879,9.219,-2.084,1.996,-0.225438,0.069495,0.622852,101821.01
60889,9.450,-1.539,2.212,-0.249916,0.080669,0.626045,101821.01
60899,9.549,-1.872,2.150,-0.182338,0.058853,0.643605,101823.05
60909,9.363,-2.238,2.132,-0.106778,0.029055,0.647329,101822.59
60919,9.067,-2.255,2.400,-0.087622,0.012559,0.646265,101820.05
60930,8.900,-2.128,2.571,-0.090283,0.000321,0.653183,101822.63
60940,8.839,-2.116,2.622,-0.069530,-0.014046,0.663825,101822.77
60949,8.782,-2.329,2.542,-0.064209,-0.024156,0.680320,101823.20
60959,8.818,-2.616,2.394,-0.081769,-0.032670,0.695219,101823.20
60969,8.834,-2.906,2.170,-0.112099,-0.039588,0.702137,101819.70
60979,9.231,-2.521,2.325,-0.182870,-0.024156,0.701072,101820.10
60989,9.204,-2.101,2.446,-0.184998,-0.026817,0.714907,101820.10
60999,9.110,-2.187,2.252,-0.086558,-0.047569,0.729274,101822.32
61009,9.082,-2.732,2.150,-0.033347,-0.057679,0.744705,101821.13
61020,9.029,-3.126,2.039,-0.050374,-0.051294,0.748430,101823.20
61029,9.098,-3.288,1.896,-0.099328,-0.051294,0.746834,101820.98
61039,9.169,-3.232,1.932,-0.149879,-0.049698,0.748962,101820.09
61049,9.110,-3.099,2.145,-0.172760,-0.053422,0.754283,101820.20
61060,9.041,-3.038,2.322,-0.167439,-0.066193,0.764393,101820.87
61069,9.005,-3.073,2.440,-0.159457,-0.080560,0.780357,101821.70
61079,9.013,-3.058,2.589,-0.162117,-0.091202,0.793127,101821.70
61089,8.984,-3.171,2.580,-0.162650,-0.099716,0.805898,101821.70
61100,8.887,-3.345,2.454,-0.174888,-0.100248,0.817072,101823.51
61109,8.821,-3.479,2.363,-0.197237,-0.094395,0.825054,101820.20
61119,8.793,-3.583,2.208,-0.228631,-0.084285,0.833568,101822.01
61129,8.805,-3.603,2.107,-0.256301,-0.076835,0.846338,101820.26
61139,8.778,-3.675,2.053,-0.273328,-0.079496,0.864430,101820.26
61150,8.757,-3.887,2.138,-0.294613,-0.089074,0.883054,101820.76
61159,8.761,-4.156,2.352,-0.347824,-0.097588,0.896357,101821.91
61169,8.766,-4.429,2.558,-0.437750,-0.097055,0.903806,101818.65
61179,8.954,-4.393,2.593,-0.555879,-0.092799,0.908595,101818.65
61190,9.168,-4.217,2.610,-0.637824,-0.108762,0.921366,101821.66
61199,9.598,-4.104,2.579,-0.661768,-0.150266,0.942650,101821.66
61209,10.003,-4.141,2.518,-0.667622,-0.199753,0.974045,101821.81
61219,10.157,-4.264,2.370,-0.690502,-0.232743,1.012889,101820.27
61230,9.997,-4.283,2.012,-0.735732,-0.253496,1.062907,101820.38
61235,9.951,-4.286,1.681,-0.768190,-0.273184,1.104412,101820.38
61244,10.060,-4.220,1.456,-0.787879,-0.308835,1.149109,101822.02
61254,10.293,-4.232,1.374,-0.782025,-0.375349,1.210834,101820.36
61264,10.507,-4.457,1.507,-0.758080,-0.446119,1.272558,101821.08
61275,10.748,-4.836,1.628,-0.775640,-0.499330,1.325769,101818.41
61284,10.997,-4.934,1.700,-0.854392,-0.538707,1.372063,101818.41
61294,11.167,-4.809,1.584,-0.947511,-0.576486,1.421017,101820.63
61304,11.416,-4.703,1.276,-1.024667,-0.622780,1.474760,101821.71
61315,11.908,-4.564,1.058,-1.087988,-0.683973,1.528503,101820.32
61324,12.580,-4.478,0.965,-1.112466,-0.768578,1.580118,101820.41
61334,13.187,-4.576,0.954,-1.129493,-0.860101,1.628008,101820.41
61344,13.737,-4.745,1.022,-1.207713,-0.929807,1.668980,101822.28
61355,14.676,-4.507,1.255,-1.462771,-0.967055,1.712790,101821.45
61364,16.014,-2.537,2.144,-1.789309,-0.986211,1.764228,101821.36
61374,16.774,0.107,3.266,-2.023437,-1.006963,1.888209,101819.70
61384,17.082,1.317,3.217,-1.919676,-1.070284,2.076576,101819.70
61394,17.399,1.343,3.153,-1.685016,-1.176174,2.245787,101823.58
61405,17.151,0.550,2.984,-1.479089,-1.289513,2.421383,101821.56
61414,16.276,-1.506,2.853,-1.119383,-1.400192,2.634227,101819.09
61424,15.262,-4.981,3.338,-0.606961,-1.562486,2.874741,101822.44
61434,15.132,-6.456,4.907,-0.340374,-1.646559,2.977438,101822.44
61445,14.580,-6.082,5.002,-0.283971,-1.589623,2.954557,101821.15
61454,13.207,-5.335,4.593,-0.234484,-1.460321,2.872612,101818.52
61464,11.612,-4.281,3.934,-0.213732,-1.327825,2.709255,101819.80
61474,10.351,-3.398,3.370,-0.216393,-1.242688,2.503328,101818.93
61485,9.353,-3.340,2.894,-0.203090,-1.199587,2.230888,101818.93
61495,8.503,-2.808,2.619,-0.158925,-1.175110,1.911622,101821.30
61504,7.093,-2.253,2.549,-0.087090,-1.151697,1.574264,101819.19
61514,5.288,-1.839,2.295,0.033699,-1.094229,1.201788,101818.72
61524,2.504,-5.147,0.490,-0.099328,-0.942046,0.863366,101819.86
61535,1.839,-8.040,1.538,-0.376026,-0.677587,0.701072,101819.86
61544,3.008,-5.156,2.303,-0.432429,-0.531257,0.305715,101820.93
61554,3.327,-2.490,2.095,-0.318026,-0.479110,-0.156689,101819.45
61564,3.018,-1.175,1.927,-0.128595,-0.422175,-0.534487,101818.57
61575,2.778,-0.387,1.470,0.068818,-0.368431,-0.863863,101815.99
61584,2.635,0.050,1.127,0.258781,-0.335441,-1.153862,101815.99
61594,2.666,0.310,1.234,0.530157,-0.302450,-1.418853,101818.43
61604,2.938,0.430,1.428,0.899974,-0.257221,-1.683844,101817.87
61615,3.388,0.096,1.662,1.246377,-0.215716,-1.960541,101818.07
61625,3.606,-0.443,1.771,1.508175,-0.168358,-2.236173,101813.63
61634,3.922,-0.820,1.780,1.686964,-0.123661,-2.483604,101813.63
61644,4.358,-1.482,1.842,1.832762,-0.090138,-2.699641,101814.15
61655,4.652,-2.459,1.809,1.919496,-0.064065,-2.888008,101813.63
61665,4.918,-3.123,1.663,1.934395,-0.026817,-3.069989,101811.27
61674,5.158,-3.359,1.633,1.893955,0.020541,-3.267934,101811.37
61684,5.429,-3.069,1.775,1.842872,0.086522,-3.478118,101811.37
61694,5.889,-2.545,1.850,1.833826,0.158357,-3.690429,101814.18
61705,6.516,-2.471,2.166,1.840744,0.238174,-3.887842,101813.52
61714,7.165,-2.784,2.552,1.836487,0.321715,-4.060778,101813.82
61724,7.828,-3.523,2.902,1.813074,0.408449,-4.227328,101810.37
61734,8.312,-4.600,3.228,1.713037,0.514871,-4.393879,101810.37
61745,8.714,-5.465,3.354,1.551808,0.648962,-4.551383,101815.41
61755,9.110,-5.952,3.186,1.393239,0.818173,-4.679622,101814.65
61764,9.492,-6.250,2.970,1.338432,1.000687,-4.753585,101813.51
61774,10.074,-6.653,2.809,1.400689,1.149678,-4.785511,101815.63
61785,10.938,-7.273,2.558,1.533716,1.220448,-4.792961,101815.63
61795,11.884,-8.232,2.204,1.663019,1.224173,-4.784447,101819.02
61804,12.677,-9.353,1.751,1.705588,1.189586,-4.756778,101816.70
61814,13.073,-10.433,1.261,1.593845,1.144357,-4.697181,101817.47
61825,13.243,-11.217,0.710,1.352267,1.122540,-4.613640,101816.30
61835,13.246,-11.754,0.357,1.069185,1.142228,-4.513072,101816.30
61844,13.225,-12.046,0.261,0.808451,1.185329,-4.388026,101819.70
61854,13.159,-12.488,0.465,0.598800,1.209806,-4.219347,101821.67
61864,12.762,-12.929,0.710,0.422139,1.198632,-3.984154,101819.61
61875,11.932,-12.857,0.884,0.284855,1.179476,-3.645732,101819.77
61884,11.033,-12.179,0.910,0.284855,1.187990,-3.185989,101819.77
61894,10.631,-11.845,0.806,0.349772,1.222045,-2.667182,101821.95
61904,10.310,-12.508,-0.048,0.354561,1.223109,-2.208504,101822.11
61915,9.854,-14.034,-1.350,0.202378,1.182668,-1.878596,101820.61
61925,9.152,-14.699,-2.043,-0.134980,1.094870,-1.604027,101820.45
61934,8.645,-13.479,-2.209,-0.557475,0.982595,-1.245385,101820.45
61944,8.612,-12.112,-1.633,-0.755420,0.821366,-0.786174,101821.20
61950,8.644,-11.447,-1.355,-0.720301,0.651623,-0.419551,101822.90
61960,8.585,-11.204,-1.327,-0.490429,0.456339,-0.067294,101822.90
61970,8.871,-11.016,0.267,-0.066338,0.232320,0.375953,101821.80
61979,9.055,-11.942,-0.304,0.372121,0.054596,0.859641,101816.24
61989,9.264,-8.268,3.497,0.551974,-0.064597,1.333751,101816.24
62000,14.078,6.165,7.486,0.394469,0.048210,1.022999,101821.38
62010,17.114,14.149,5.436,0.010818,0.163146,0.537183,101820.35
62020,18.517,6.661,-1.277,0.016671,0.074816,0.759072,101821.48
62029,16.000,-1.585,-3.048,0.323699,-0.234340,1.346521,101821.48
62040,12.493,-2.594,1.210,0.657332,-0.140688,1.665255,101821.48
62050,11.272,-1.902,2.224,0.642965,0.000853,1.741347,101823.56
62059,10.256,-4.855,3.517,0.993093,0.043421,1.889806,101822.27
62069,10.844,-7.180,3.643,1.249570,0.017880,2.024429,101820.20
62080,9.941,-5.037,3.887,0.902102,-0.065129,2.001549,101820.98
62090,8.233,-3.377,4.615,0.368928,-0.064065,1.881292,101820.98
62100,7.451,-3.577,4.563,-0.124338,-0.080028,1.729640,101822.38
62109,8.073,-3.440,3.400,-0.510117,-0.075771,1.575861,101822.18
62119,9.255,-1.331,1.719,-0.704869,-0.045973,1.471567,101821.51
62130,9.827,0.212,1.173,-0.517035,-0.032138,1.448687,101821.51
62140,9.832,-0.540,1.178,-0.172760,-0.036927,1.477420,101824.20
62149,9.629,-1.561,1.379,0.090635,-0.036927,1.479017,101824.20
62159,9.424,-2.131,2.143,0.255057,-0.024689,1.426338,101821.77
62170,9.195,-2.824,2.815,0.239625,-0.028413,1.332687,101822.65
62180,8.974,-3.194,3.459,0.033167,-0.025221,1.218815,101823.21
62189,9.011,-2.800,3.664,-0.188723,-0.028945,1.106008,101823.21
62199,9.066,-2.219,3.475,-0.315365,-0.043312,1.019274,101823.48
62210,9.076,-1.630,3.050,-0.355805,-0.059276,0.972980,101819.62
62220,9.086,-1.572,2.631,-0.307383,-0.067257,0.955953,101823.79
62230,9.198,-1.932,2.537,-0.245659,-0.073111,0.952228,101819.34
62239,9.256,-2.296,2.700,-0.239273,-0.073111,0.939990,101822.02
62249,9.179,-2.540,2.830,-0.303659,-0.064065,0.913384,101823.72
62260,9.096,-2.498,2.910,-0.409548,-0.043844,0.880393,101820.38
62270,9.096,-2.280,2.868,-0.488301,-0.030010,0.855384,101820.38
62279,9.030,-2.200,2.880,-0.514374,-0.026285,0.844742,101821.61
62289,9.055,-2.232,2.816,-0.474466,-0.035863,0.841017,101821.61
62300,9.059,-2.454,2.745,-0.390925,-0.055019,0.834632,101824.27
62305,8.919,-2.746,2.672,-0.336117,-0.068854,0.827714,101822.77
62315,8.737,-2.924,2.598,-0.320154,-0.073643,0.817072,101822.46
62324,8.599,-2.921,2.589,-0.328136,-0.067789,0.800045,101818.96
62334,8.652,-2.900,2.604,-0.337714,-0.056083,0.780889,101818.96
62345,8.685,-3.063,2.525,-0.339310,-0.041716,0.767586,101820.96
62355,8.559,-3.358,2.251,-0.349952,-0.023092,0.747366,101820.09
62364,8.650,-2.851,2.385,-0.353145,-0.019367,0.725549,101821.16
62374,8.667,-2.933,2.149,-0.193512,-0.049698,0.712779,101821.48
62385,8.729,-3.612,2.040,-0.115292,-0.057147,0.700540,101821.48
62395,8.638,-3.722,2.137,-0.152539,-0.037991,0.678192,101820.60
62404,8.661,-3.516,2.192,-0.205750,-0.017239,0.661696,101823.18
62414,8.742,-3.301,2.357,-0.247255,-0.001276,0.662228,101821.59
62425,8.852,-2.965,2.538,-0.255591,0.002094,0.679788,101821.74
62435,8.940,-2.910,2.646,-0.232888,-0.003936,0.710650,101821.74
62445,8.976,-3.009,2.779,-0.220117,-0.008725,0.747898,101822.86
62454,8.915,-3.250,2.831,-0.240338,-0.006597,0.783549,101824.41
62465,8.907,-3.418,2.944,-0.287695,0.002981,0.813880,101821.56
62475,8.833,-3.546,3.041,-0.349420,0.019477,0.839953,101819.45
62485,8.752,-3.736,3.123,-0.413805,0.032247,0.865494,101819.45
62494,8.726,-4.068,2.976,-0.474466,0.034376,0.887311,101822.17
62504,8.806,-4.223,2.738,-0.561200,0.035972,0.904870,101818.67
62515,9.051,-4.277,2.637,-0.655383,0.041293,0.921898,101819.03
62525,9.351,-4.193,2.548,-0.747970,0.042357,0.943714,101818.61
62534,9.559,-4.031,2.569,-0.815016,0.034908,0.975109,101818.61
62545,9.727,-3.924,2.573,-0.846943,0.012027,1.020338,101823.05
62555,9.872,-4.138,2.595,-0.849603,-0.023092,1.066632,101820.63
62565,10.032,-4.343,2.589,-0.874080,-0.065129,1.115054,101819.34
62575,10.266,-4.342,2.592,-0.912392,-0.107166,1.162412,101821.30
62584,10.473,-4.239,2.528,-0.943255,-0.157716,1.218283,101821.30
62595,10.743,-4.094,2.567,-0.960814,-0.215716,1.283733,101821.98
62605,10.873,-3.965,2.407,-0.969860,-0.271055,1.360888,101820.27
62615,10.827,-3.855,2.015,-0.965071,-0.317349,1.448154,101821.88
62624,10.701,-3.798,1.556,-0.950172,-0.380670,1.549255,101818.48
62635,10.712,-3.864,1.192,-0.929420,-0.457826,1.655145,101818.48
62645,10.991,-4.060,1.292,-0.911328,-0.547752,1.746136,101819.49
62655,11.532,-4.398,1.695,-0.916117,-0.640872,1.839787,101821.76
62664,12.255,-4.907,2.185,-0.963475,-0.712174,1.911090,101819.43
62674,13.219,-5.406,2.437,-1.101823,-0.750486,1.960044,101821.20
62685,14.350,-5.684,2.348,-1.392887,-0.749954,1.989310,101821.20
62695,16.048,-5.078,2.260,-1.855823,-0.711110,2.009530,101820.54
62705,18.208,-1.681,2.904,-2.414538,-0.667477,2.066998,101820.16
62714,19.224,1.384,3.656,-2.666758,-0.663752,2.232484,101820.23
62725,19.353,2.688,3.494,-2.469345,-0.751018,2.440007,101818.37
62735,18.748,2.138,4.170,-2.106979,-0.848394,2.643273,101818.37
62745,17.440,-0.262,4.101,-1.604135,-0.969183,2.865163,101822.01
62754,16.038,-4.766,4.045,-0.949640,-1.126688,3.108337,101818.62
62765,15.825,-8.212,4.686,-0.507457,-1.218743,3.253603,101818.55
62775,15.453,-8.575,4.925,-0.542044,-1.170853,3.190282,101818.46
62785,14.439,-6.850,4.534,-0.764998,-1.014413,3.043420,101818.46
62795,13.153,-4.981,3.658,-0.837365,-0.886174,2.845475,101819.97
62804,11.693,-4.123,2.803,-0.805970,-0.839881,2.584209,101819.75
62815,9.259,-4.427,1.743,-0.863970,-0.825514,2.283567,101819.45
62825,7.191,-3.974,2.054,-1.013493,-0.691954,1.967494,101817.95
62834,5.803,-2.229,2.636,-1.123640,-0.536046,1.575861,101817.95
62844,3.837,-2.705,1.018,-1.176851,-0.373220,1.151237,101824.72
62855,1.715,-6.813,0.929,-1.408851,-0.061936,0.970852,101820.14
62865,2.405,-5.085,2.485,-1.479621,0.168999,0.718632,101818.84
62875,2.731,-1.456,2.113,-1.342337,0.237109,0.222706,101817.45
62884,2.081,-0.068,1.619,-1.122576,0.306816,-0.175845,101817.45
62895,1.882,0.967,1.168,-0.813952,0.368008,-0.519055,101819.41
62905,2.075,1.863,0.419,-0.415402,0.382908,-0.851092,101819.30
62915,2.329,2.132,-0.147,-0.007273,0.397807,-1.150138,101817.20
62924,2.701,1.796,-0.257,0.358818,0.431862,-1.442266,101817.80
62935,3.144,1.282,-0.208,0.642433,0.477091,-1.713110,101817.80
62945,3.561,0.819,-0.099,0.893056,0.505293,-1.967458,101818.82
62955,3.869,0.280,-0.081,1.139423,0.513274,-2.222339,101816.51
62965,4.134,-0.462,-0.249,1.360249,0.504229,-2.478283,101815.63
62974,4.147,-1.014,-0.408,1.528927,0.489329,-2.722522,101814.13
62985,4.613,-1.296,-0.489,1.661423,0.480816,-2.947072,101814.13
62995,5.002,-1.501,-0.229,1.781680,0.482944,-3.168962,101817.62
63005,5.331,-1.746,0.061,1.862028,0.484540,-3.391916,101812.73
63014,5.642,-2.066,0.368,1.924817,0.497311,-3.629237,101812.77
63021,5.931,-2.337,0.697,1.951955,0.514339,-3.801641,101811.65
63030,6.237,-2.722,1.039,1.930138,0.532963,-3.962870,101811.65
63040,6.758,-3.284,1.501,1.801900,0.573935,-4.174118,101811.65
63050,7.567,-3.773,1.781,1.485294,0.643109,-4.398668,101815.09
63060,8.404,-4.294,1.859,1.197955,0.726118,-4.620558,101816.64
63070,9.180,-4.942,2.136,0.947331,0.862338,-4.834466,101814.70
63080,9.890,-5.627,2.026,0.780781,1.011861,-5.015915,101814.70
63090,10.573,-6.233,1.684,0.677552,1.176283,-5.120741,101815.78
63099,11.335,-6.768,1.409,0.641368,1.326870,-5.153199,101815.78
63110,12.044,-7.671,1.210,0.721185,1.404558,-5.161713,101817.28
63120,12.791,-8.761,1.036,0.880818,1.402430,-5.155860,101818.36
63130,13.549,-9.723,0.837,1.105900,1.321549,-5.093603,101818.56
63139,13.911,-10.058,0.613,1.350671,1.204485,-4.969090,101818.56
63150,13.943,-10.393,0.217,1.615661,1.100724,-4.796154,101819.16
63160,14.038,-11.189,-0.130,1.805092,1.038999,-4.574796,101820.66
63170,14.234,-12.220,-0.056,1.830101,0.996962,-4.330558,101818.59
63180,14.309,-12.858,0.544,1.739111,0.915017,-4.084191,101818.23
63191,13.759,-12.822,1.331,1.566707,0.775605,-3.805365,101821.65
63200,12.514,-12.317,1.945,1.377276,0.692595,-3.442466,101821.65
63210,11.289,-12.001,2.276,1.286817,0.729843,-2.992301,101821.65
63220,10.330,-13.433,1.632,1.290010,0.843182,-2.559696,101821.65
63229,9.503,-15.860,0.773,1.135166,0.903311,-2.246816,101820.41
63240,8.195,-16.369,0.526,0.587625,0.952797,-1.905201,101820.41
63250,7.905,-15.324,0.308,-0.046118,0.996962,-1.494413,101822.98
63260,7.679,-14.442,0.201,-0.560668,0.959714,-1.035202,101823.60
63269,7.394,-13.902,0.139,-0.867695,0.837329,-0.582376,101822.05
63280,8.090,-13.198,1.073,-0.972521,0.715476,-0.141257,101821.84
63290,8.985,-12.277,-0.895,-0.948576,0.579256,0.351476,101821.84
63300,8.793,-10.797,-1.527,-0.732539,0.275421,0.959146,101822.99
63310,12.338,-1.105,2.057,-0.271200,0.023201,1.325769,101820.07
63321,17.103,13.835,3.429,0.093827,-0.157716,0.921366,101817.91
63330,18.986,12.511,0.386,0.372653,-0.110358,0.784614,101817.91
63340,18.664,0.717,-4.113,0.697772,-0.163037,1.368870,101817.91
63350,14.539,-3.483,-2.614,1.056946,-0.211991,1.833402,101823.03
63360,10.252,-2.637,0.381,0.953185,-0.105037,1.872778,101823.70
63370,8.231,-3.577,3.885,0.781313,0.112064,1.840319,101820.97
63380,8.824,-8.675,8.198,1.053221,0.289256,1.980796,101820.52
63390,12.428,-9.663,7.136,1.027680,0.215293,2.124466,101820.52
63400,10.518,-5.084,4.308,0.519515,-0.114083,2.019640,101823.05
63410,7.475,-2.614,4.669,0.074139,-0.126854,1.841916,101822.34
63420,6.567,-3.687,4.133,-0.423915,-0.132175,1.669512,101822.63
63430,7.931,-2.911,2.074,-0.771383,-0.083753,1.491787,101822.63
63440,9.895,-0.079,0.663,-0.636759,-0.034267,1.392815,101824.06
63451,10.600,0.416,0.308,-0.126998,-0.037459,1.403457,101821.48
63460,10.147,-1.007,0.392,0.328488,-0.057147,1.440173,101821.48
63470,9.478,-2.437,1.026,0.604121,-0.055019,1.401329,101821.22
63480,9.164,-3.628,2.172,0.608910,-0.027881,1.295439,101823.08
63490,8.986,-3.906,2.886,0.291772,0.006174,1.150705,101823.08
63500,8.846,-3.738,3.160,-0.112631,0.065238,1.005971,101824.09
63510,8.908,-2.892,3.048,-0.393053,0.100357,0.876136,101822.09
63520,9.054,-1.653,2.967,-0.463824,0.107275,0.796320,101821.71
63531,9.137,-1.238,2.701,-0.363255,0.089715,0.771311,101822.18
63540,9.205,-1.810,2.581,-0.233420,0.066302,0.766522,101825.39
63550,9.213,-2.584,2.713,-0.198301,0.054596,0.745770,101824.09
63560,9.120,-2.667,2.885,-0.304191,0.063642,0.709586,101822.66
63570,9.057,-2.343,3.152,-0.473402,0.088119,0.676595,101821.88
63580,9.076,-1.756,3.251,-0.598980,0.101954,0.661696,101821.88
63590,9.074,-1.392,3.256,-0.619200,0.093972,0.670742,101821.88
63600,9.011,-1.444,3.212,-0.545236,0.066834,0.693623,101823.29
63610,9.000,-1.821,3.126,-0.438815,0.033844,0.711182,101821.68
63616,9.000,-2.212,3.055,-0.378686,0.013091,0.715971,101823.43
63625,8.985,-2.566,3.001,-0.336649,-0.002872,0.706926,101819.57
63635,8.899,-2.799,2.902,-0.338246,-0.018303,0.692559,101819.57
63645,8.858,-2.696,2.813,-0.379218,-0.023624,0.686173,101821.93
63655,8.884,-2.644,2.641,-0.393585,-0.019367,0.681916,101822.09
63665,9.043,-2.741,2.472,-0.404759,-0.016707,0.682449,101824.20
63675,9.248,-2.857,2.367,-0.450521,-0.003936,0.685109,101820.60
63685,9.491,-2.296,2.448,-0.477659,0.000853,0.702669,101820.60
63695,9.168,-2.192,2.452,-0.371237,-0.022028,0.726614,101822.06
63705,8.940,-2.832,2.400,-0.329732,-0.034267,0.759604,101822.31
63715,8.912,-2.979,2.528,-0.388796,-0.024689,0.783549,101820.88
63725,8.875,-2.772,2.629,-0.420723,-0.022560,0.808026,101821.64
63735,8.764,-2.802,2.779,-0.398906,-0.032315,0.834455,101821.64
63746,8.749,-3.050,2.878,-0.372833,-0.042248,0.849531,101822.08
63755,8.723,-3.187,2.949,-0.365915,-0.046505,0.859641,101821.98
63765,8.661,-3.365,3.044,-0.378154,-0.048633,0.868155,101820.73
63775,8.784,-3.638,2.925,-0.406356,-0.048633,0.876669,101819.86
63785,9.012,-3.868,2.769,-0.477659,-0.048101,0.886779,101819.86
63795,9.303,-3.746,2.563,-0.585145,-0.036927,0.904870,101823.66
63805,9.517,-3.431,2.380,-0.669218,-0.024689,0.937329,101820.68
63815,9.602,-3.286,2.279,-0.699548,-0.033202,0.989476,101822.99
63825,9.732,-3.273,2.204,-0.694227,-0.055551,1.043219,101819.70
63835,9.715,-3.598,2.141,-0.690502,-0.083753,1.101751,101819.70
63845,9.660,-3.831,2.139,-0.709658,-0.108762,1.157090,101820.07
63855,9.766,-3.999,2.240,-0.744778,-0.144945,1.208173,101821.98
63865,9.964,-4.141,2.403,-0.770851,-0.201349,1.253402,101819.40
63876,10.080,-4.155,2.677,-0.792135,-0.260413,1.294375,101821.73
63885,10.133,-4.248,2.789,-0.813420,-0.307771,1.332155,101821.73
63895,10.185,-4.311,2.586,-0.833640,-0.348743,1.368870,101821.23
63905,10.268,-4.422,2.077,-0.865034,-0.390248,1.415696,101819.33
63916,10.430,-4.459,1.617,-0.903878,-0.435477,1.466246,101822.53
63925,10.670,-4.429,1.384,-0.952833,-0.489752,1.525310,101820.42
63935,10.987,-4.359,1.479,-1.010833,-0.547752,1.591824,101820.42
63945,11.386,-4.313,1.689,-1.075218,-0.603092,1.667384,101823.94
63955,11.907,-4.241,1.954,-1.147585,-0.656835,1.748796,101823.73
63965,12.595,-4.360,2.015,-1.223676,-0.711110,1.817439,101819.97
63971,13.178,-4.642,1.932,-1.289658,-0.744633,1.870650,101821.88
63980,13.744,-4.870,1.675,-1.426410,-0.762193,1.907897,101821.88
63990,14.884,-4.537,1.593,-1.743548,-0.755275,1.946741,101821.88
64001,16.960,-2.466,2.305,-2.122942,-0.767514,1.996228,101823.24
64011,18.843,0.770,3.544,-2.327804,-0.857972,2.102649,101819.63
64020,19.206,2.585,4.274,-2.169235,-1.000046,2.290484,101821.82
64030,18.675,2.430,4.496,-1.722263,-1.146908,2.509181,101821.82
64040,17.370,-0.043,4.528,-1.220484,-1.273550,2.759805,101821.37
64050,16.014,-3.700,4.751,-0.748502,-1.355495,3.010429,101821.37
64060,15.648,-6.671,5.172,-0.364851,-1.390082,3.192410,101819.01
64070,15.322,-8.169,4.919,-0.204686,-1.345917,3.251474,101819.01
64080,14.185,-8.076,4.322,-0.386136,-1.210229,3.154098,101814.88
64091,12.901,-6.138,3.643,-0.789475,-0.977342,2.951542,101819.13
64100,11.909,-4.575,3.157,-0.979438,-0.831367,2.750759,101819.13
64110,10.560,-3.641,2.812,-1.028924,-0.779220,2.454906,101819.74
64120,8.405,-3.668,1.974,-1.142264,-0.757936,2.128191,101820.26
64131,6.501,-2.824,2.357,-1.210906,-0.680248,1.823824,101820.62
64141,5.148,-1.502,2.358,-1.116722,-0.606284,1.448154,101819.84
64150,2.738,-4.543,0.637,-1.027328,-0.443991,1.097494,101819.79
64160,2.149,-7.209,1.499,-1.191218,-0.139092,0.941586,101818.15
64171,3.267,-3.863,2.119,-1.206117,0.006706,0.554210,101818.15
64180,3.283,-1.045,1.762,-1.083199,0.072155,0.060944,101821.13
64190,2.769,0.207,1.583,-0.887915,0.161018,-0.326432,101821.13
64200,2.610,1.262,1.104,-0.573970,0.209440,-0.681881,101819.55
64210,2.481,1.879,0.389,-0.148815,0.234449,-1.035024,101819.32
64220,2.569,1.713,0.055,0.223130,0.279678,-1.298596,101819.32
64231,2.846,1.303,-0.060,0.583368,0.337678,-1.569972,101816.10
64240,3.322,0.855,-0.045,0.879221,0.386100,-1.828577,101816.10
64250,3.793,0.299,-0.050,1.114946,0.412706,-2.082394,101818.46
64261,4.215,-0.282,-0.108,1.296927,0.414834,-2.334082,101815.09
64271,4.621,-0.982,-0.246,1.437937,0.409513,-2.568742,101814.60
64280,4.927,-1.730,-0.348,1.552340,0.404724,-2.785843,101814.60
64290,5.088,-2.271,-0.324,1.645991,0.408449,-2.998155,101814.60
64301,5.170,-2.419,-0.045,1.725276,0.423880,-3.218980,101814.48
64310,5.271,-2.374,0.388,1.791790,0.455807,-3.453109,101815.83
64320,5.498,-2.364,0.813,1.847129,0.494651,-3.685108,101812.78
64330,5.824,-2.769,1.139,1.865753,0.528706,-3.897420,101813.72
64340,6.053,-3.260,1.409,1.813074,0.567550,-4.090044,101813.72
64351,6.519,-3.624,1.944,1.601826,0.658008,-4.286925,101814.55
64360,7.116,-3.997,2.186,1.348542,0.775072,-4.489126,101816.25
64370,7.911,-4.307,2.542,1.142084,0.932045,-4.689732,101814.86
64380,8.719,-4.718,2.386,1.019166,1.106045,-4.867456,101814.24
64391,9.498,-5.305,1.886,0.969680,1.285898,-5.006869,101816.98
64401,10.218,-6.285,1.434,0.890396,1.468943,-5.097860,101818.43
64410,10.844,-7.642,1.311,0.743001,1.610485,-5.136704,101818.43
64420,11.351,-9.542,1.328,0.594011,1.686576,-5.145218,101816.26
64431,11.839,-10.988,1.194,0.493442,1.737659,-5.147878,101816.15
64440,12.195,-11.772,1.236,0.471093,1.795127,-5.109566,101816.15
64450,12.386,-11.818,1.301,0.512598,1.850466,-5.012722,101821.41
64460,12.769,-11.357,1.045,0.565277,1.890907,-4.847236,101817.84
64471,13.586,-11.356,0.714,0.606781,1.921769,-4.610980,101819.14
64481,14.374,-12.508,0.839,0.603056,1.899952,-4.361952,101818.47
64491,14.189,-13.921,1.312,0.480671,1.793530,-4.116117,101821.74
64500,13.252,-13.705,1.340,0.188011,1.723292,-3.797916,101821.74
64510,12.535,-12.292,1.191,-0.065806,1.743512,-3.353604,101820.29
64521,12.013,-12.335,0.342,-0.011530,1.729677,-2.869384,101821.84
64530,11.846,-14.372,-1.505,0.090635,1.628577,-2.482008,101821.84
64540,11.126,-15.946,-3.330,-0.096668,1.380081,-2.113256,101821.84
64550,9.847,-16.510,-4.250,-0.464888,1.068797,-1.535917,101823.65
64561,9.150,-16.338,-3.657,-0.671346,0.713348,-0.731367,101823.34
64566,9.132,-15.268,-2.894,-0.636227,0.417495,-0.060909,101823.13
64575,9.781,-13.145,-1.576,-0.407952,0.112596,0.582412,101820.51
64585,10.059,-10.176,0.019,0.152892,-0.192835,1.305017,101820.51
64595,9.899,-2.768,2.137,0.694579,-0.456762,1.733897,101823.19
64606,11.094,8.776,7.432,1.166028,-0.337569,1.394943,101821.13
64615,13.592,12.286,5.451,1.299056,-0.104505,0.974577,101820.92
64625,16.209,6.660,0.451,1.384726,-0.193367,1.030980,101822.73
64635,17.069,0.862,-3.025,1.398560,-0.508376,1.273623,101822.73
64646,15.424,-2.550,-1.235,1.283625,-0.504119,1.562558,101824.33
64656,13.795,-2.790,-0.032,1.080359,-0.269991,1.730705,101822.38
64665,10.076,-4.022,2.308,0.976597,-0.157184,1.838723,101824.59
64675,9.623,-6.956,4.988,1.239992,-0.006065,1.990374,101820.78
64686,11.473,-7.546,4.311,1.191392,-0.077013,2.088105,101820.78
64696,10.279,-5.989,4.033,0.836120,-0.268927,2.038264,101821.37
64705,7.968,-4.293,4.032,0.255057,-0.305643,1.861604,101820.55
64715,6.889,-3.641,3.795,-0.343567,-0.215716,1.674833,101822.87
64726,7.967,-2.338,2.228,-0.764998,-0.117808,1.514136,101819.57
64736,9.529,-0.582,1.271,-0.762337,-0.085349,1.430595,101819.57
64745,10.171,0.023,1.303,-0.443604,-0.096523,1.423145,101822.17
64755,9.678,-0.286,1.185,-0.063677,-0.120468,1.441769,101822.17
64765,9.071,-1.544,1.677,0.252928,-0.118340,1.426338,101819.55
64776,9.069,-3.221,2.500,0.310396,-0.113019,1.349714,101819.75
64785,8.913,-3.873,3.301,0.090635,-0.091202,1.218283,101819.75
64795,8.851,-3.516,3.614,-0.182870,-0.067257,1.066100,101824.04
64805,9.022,-2.768,3.257,-0.343567,-0.065661,0.940522,101821.71
64816,9.242,-1.863,2.844,-0.370704,-0.070982,0.863898,101821.55
64826,9.334,-1.306,2.543,-0.282906,-0.078432,0.840485,101820.27
64835,9.267,-1.472,2.381,-0.163182,-0.093331,0.841549,101820.27
64845,9.191,-2.096,2.533,-0.090283,-0.100780,0.837825,101821.12
64856,9.088,-2.574,2.907,-0.107310,-0.094927,0.809091,101822.24
64866,8.958,-2.788,3.180,-0.192448,-0.083753,0.758008,101821.73
64875,8.869,-2.848,3.180,-0.303127,-0.071514,0.704797,101821.79
64885,8.876,-2.587,2.981,-0.398906,-0.053955,0.658504,101821.79
64896,8.974,-2.255,2.755,-0.461695,-0.041716,0.635091,101822.29
64906,9.104,-2.066,2.633,-0.465952,-0.037991,0.635091,101821.84
64916,9.116,-2.100,2.683,-0.428172,-0.049166,0.647329,101821.77
64925,9.011,-2.230,2.935,-0.381347,-0.065129,0.660100,101818.84
64935,8.847,-2.491,3.127,-0.352613,-0.078964,0.663293,101818.84
64946,8.794,-2.695,3.117,-0.357402,-0.091202,0.654779,101822.73
64956,8.820,-2.686,2.923,-0.388264,-0.094395,0.646265,101822.52
64965,8.794,-2.582,2.733,-0.405824,-0.093331,0.641476,101818.55
64975,8.756,-2.639,2.453,-0.395714,-0.093331,0.640412,101820.00
64986,8.683,-2.874,2.253,-0.378686,-0.091202,0.643605,101820.00
64996,8.794,-2.865,2.241,-0.378686,-0.086413,0.645733,101822.20
65005,8.889,-2.549,2.469,-0.336117,-0.095991,0.656375,101822.87
65015,8.600,-2.454,2.678,-0.230760,-0.115147,0.664889,101822.05
65026,8.379,-2.692,2.898,-0.178613,-0.118872,0.681384,101819.99
65036,8.355,-2.412,3.308,-0.186062,-0.106101,0.698412,101819.99
65045,8.278,-2.043,3.692,-0.142961,-0.110890,0.725017,101821.55
65055,8.233,-2.398,3.629,-0.062081,-0.133771,0.762265,101819.70
65065,8.531,-3.667,2.967,-0.017384,-0.177936,0.797916,101818.77
65076,9.036,-4.063,2.151,-0.109439,-0.196560,0.809623,101821.09
65086,9.207,-3.637,2.103,-0.253108,-0.167294,0.817604,101821.09
65095,9.140,-3.349,2.058,-0.307383,-0.155055,0.837825,101822.91
65105,9.159,-3.379,1.825,-0.282906,-0.168890,0.865494,101818.32
65116,9.010,-3.528,1.950,-0.257897,-0.177404,0.889439,101821.16
65126,8.748,-3.799,2.226,-0.250448,-0.165166,0.905935,101818.12
65135,8.636,-3.975,2.397,-0.267475,-0.149734,0.917641,101818.12
65145,8.656,-3.912,2.758,-0.303127,-0.150266,0.926155,101824.49
65156,8.500,-3.782,3.208,-0.326539,-0.174744,0.934136,101819.65
65161,8.327,-3.874,3.326,-0.329732,-0.176340,0.949036,101820.37
65171,8.397,-4.074,3.314,-0.336649,-0.176340,0.964999,101820.37
65181,8.652,-4.342,3.052,-0.372833,-0.189110,0.985751,101818.62
65190,8.913,-4.608,2.897,-0.439879,-0.204010,1.012357,101818.62
65201,9.267,-4.523,2.658,-0.521292,-0.219973,1.038430,101822.56
65211,9.756,-4.537,2.367,-0.573438,-0.247110,1.069292,101820.89
65221,10.240,-4.628,2.137,-0.608025,-0.286487,1.108136,101820.81
65230,10.643,-4.673,1.822,-0.634631,-0.312028,1.155494,101820.81
65241,10.894,-4.640,1.392,-0.672411,-0.332248,1.212962,101820.81
65251,10.985,-4.426,1.076,-0.708594,-0.360982,1.284797,101823.13
65261,11.099,-4.291,1.052,-0.706466,-0.419514,1.367806,101823.23
65270,11.368,-4.391,1.293,-0.672411,-0.495606,1.457200,101819.94
65282,11.506,-4.542,1.819,-0.652900,-0.572230,1.548901,101818.49
65291,11.481,-4.772,2.251,-0.670814,-0.619587,1.623219,101818.49
65301,11.466,-4.882,2.513,-0.738392,-0.652578,1.700374,101823.65
65311,11.761,-4.861,2.649,-0.835236,-0.679184,1.762631,101821.07
65320,12.244,-4.958,2.611,-0.918778,-0.714835,1.822760,101821.27
65331,12.790,-5.208,2.334,-1.009768,-0.745697,1.865861,101821.26
65341,13.485,-5.396,2.011,-1.176319,-0.753679,1.896191,101820.54
65351,14.452,-5.514,1.661,-1.468447,-0.733991,1.917475,101820.29
65360,16.005,-4.776,1.822,-1.917015,-0.693018,1.931310,101820.29
65371,17.593,-1.977,2.730,-2.456043,-0.635018,1.984521,101820.02
65381,18.070,0.439,3.583,-2.796061,-0.580743,2.117548,101819.98
65390,18.146,1.819,3.712,-2.815217,-0.594578,2.261218,101819.98
65401,17.388,1.089,4.108,-2.627382,-0.663752,2.433976,101819.83
65411,15.979,-1.851,4.184,-2.225639,-0.770174,2.644869,101819.83
65421,15.654,-5.314,4.888,-1.675970,-0.916505,2.907199,101818.84
65431,16.081,-5.327,5.367,-1.384906,-1.032504,2.993933,101819.56
65441,15.145,-4.022,4.755,-1.177383,-1.029844,2.967860,101822.05
65451,14.169,-3.596,3.639,-0.837897,-0.943642,3.141860,101821.83
65461,12.620,-3.840,2.606,-0.761273,-0.979826,2.818869,101819.05
65471,10.519,-3.681,2.255,-0.635163,-1.057514,2.478851,101817.45
65480,9.043,-3.658,3.362,-0.394649,-1.035165,2.223438,101817.45
65490,7.576,-3.444,3.878,-0.209475,-0.933000,1.885549,101817.45
65501,6.637,-2.617,2.398,-0.233420,-0.833495,1.460925,101820.52
65511,4.168,-4.888,-0.209,-0.464888,-0.760596,1.066100,101821.40
65521,2.780,-8.465,-0.002,-0.516503,-0.574890,0.939990,101820.52
65530,3.482,-5.358,1.384,-0.269604,-0.509973,0.600504,101819.45
65541,3.377,-3.086,1.682,0.155552,-0.515826,0.154063,101819.45
65551,2.935,-2.282,1.742,0.518983,-0.467936,-0.182230,101818.30
65561,2.833,-1.256,1.455,0.742469,-0.403551,-0.506817,101818.80
65571,2.614,-0.251,1.332,0.959038,-0.371624,-0.847367,101816.19
65581,2.657,0.307,1.269,1.193698,-0.327991,-1.194303,101816.19
65591,2.902,0.163,1.228,1.371955,-0.277441,-1.541238,101819.92
65601,3.042,-0.361,1.297,1.481037,-0.216248,-1.858376,101819.92
65610,3.117,-0.938,1.398,1.515625,-0.154523,-2.126559,101816.47
65620,3.133,-1.776,1.321,1.508707,-0.098120,-2.361219,101815.75
65631,3.109,-2.710,1.287,1.471992,-0.039588,-2.581513,101811.33
65641,3.199,-3.481,1.225,1.416652,0.024266,-2.797549,101811.33
65651,3.367,-3.639,1.295,1.353863,0.097697,-3.013586,101817.31
65660,3.644,-4.025,1.166,1.330983,0.174321,-3.241861,101813.91
65671,3.964,-4.149,1.136,1.190506,0.306816,-3.500998,101813.95
65681,4.403,-3.406,1.262,1.014909,0.463788,-3.737255,101814.45
65691,4.928,-2.687,1.214,0.938818,0.604797,-3.951695,101816.04
65701,5.498,-2.442,1.427,0.942542,0.730907,-4.128888,101813.41
65711,6.188,-2.699,1.556,0.982983,0.837861,-4.274686,101814.55
65721,6.788,-3.290,1.608,1.060139,0.915549,-4.391750,101814.55
65731,7.232,-4.021,1.513,1.163368,0.990045,-4.490191,101813.26
65740,7.666,-4.617,1.504,1.261808,1.059751,-4.557769,101813.26
65751,8.123,-5.320,1.485,1.409203,1.109769,-4.600338,101818.01
65757,8.533,-5.892,1.485,1.549680,1.124136,-4.624282,101814.87
65766,8.993,-6.597,1.440,1.710377,1.112962,-4.665787,101817.54
65776,9.735,-7.580,1.315,1.867349,1.083696,-4.746135,101814.71
65785,10.340,-8.661,0.949,1.918432,1.044320,-4.819567,101814.71
65796,10.620,-9.811,0.711,1.908322,1.014522,-4.832870,101818.43
65806,10.651,-10.755,0.631,1.791258,1.012393,-4.763163,101820.02
65816,10.724,-11.392,0.872,1.581606,1.029953,-4.642906,101819.98
65825,11.069,-12.059,1.226,1.364505,1.052834,-4.523181,101819.05
65836,11.319,-12.780,1.677,1.160707,1.079439,-4.411971,101819.05
65846,11.463,-13.243,1.864,0.897845,1.134246,-4.285328,101821.69
65856,11.573,-13.635,1.763,0.584965,1.218852,-4.116650,101823.75
65866,11.594,-13.812,1.587,0.279534,1.303457,-3.880393,101822.72
65875,11.336,-13.715,1.584,0.000176,1.371035,-3.551549,101824.02
65886,10.705,-13.315,1.858,-0.225438,1.413604,-3.127457,101824.02
65896,10.224,-12.905,2.118,-0.384007,1.457237,-2.647494,101822.52
65906,10.035,-13.043,1.129,-0.492558,1.502466,-2.194669,101821.73
65915,9.979,-14.757,-0.772,-0.608558,1.531200,-1.864761,101821.28
65926,9.616,-15.150,-1.711,-0.906007,1.444999,-1.618394,101819.52
65936,9.772,-13.615,-2.266,-1.235383,1.250246,-1.220376,101819.52
65946,10.220,-12.720,-2.429,-1.291254,0.961843,-0.616431,101823.81
65955,10.600,-12.105,-1.622,-0.934209,0.577660,0.071054,101826.14
65966,11.160,-10.615,-0.312,-0.255769,0.209440,0.728210,101822.58
65976,12.185,-2.497,2.676,0.276341,-0.159312,1.298632,101822.47
65986,15.611,13.631,8.563,0.572194,-0.090138,0.982026,101822.47
65996,17.992,19.222,6.330,0.721717,0.057788,0.619660,101821.57
66006,18.833,8.194,0.030,1.264469,-0.186982,1.051733,101822.45
66016,15.900,-1.280,-3.020,1.706120,-0.627037,1.687072,101822.80
66026,12.027,-3.782,-0.597,1.584267,-0.549349,1.941420,101821.73
66036,11.174,-3.554,-0.270,1.038322,-0.285422,1.946209,101821.73
66045,9.260,-4.824,2.941,0.878689,-0.140688,1.976007,101822.57
66056,9.559,-6.878,6.016,1.060139,0.016816,2.084558,101823.60
66066,10.715,-5.839,5.749,0.923386,-0.028413,2.147879,101820.30
66076,8.817,-3.748,5.822,0.696708,-0.233808,2.059016,101821.38
66085,7.054,-3.282,5.522,0.427460,-0.286487,1.882888,101821.38
66096,6.932,-3.675,4.216,0.058176,-0.268395,1.725916,101823.75
66106,8.445,-3.007,1.994,-0.321218,-0.213055,1.596081,101821.17
66116,9.938,-1.876,0.278,-0.495218,-0.148670,1.523182,101823.19
66126,10.316,-1.757,-0.230,-0.422851,-0.090670,1.493384,101824.89
66136,9.964,-2.132,0.210,-0.257897,-0.028945,1.469971,101824.89
66146,9.608,-2.193,1.262,-0.081237,0.033311,1.413567,101823.91
66156,9.308,-2.477,2.424,0.033167,0.049807,1.326833,101822.72
66166,8.974,-3.142,3.146,0.007093,0.023733,1.214558,101821.38
66176,8.833,-3.351,3.545,-0.139237,0.012559,1.080999,101822.20
66186,8.823,-3.041,3.648,-0.307383,0.023201,0.959146,101822.20
66196,8.897,-2.255,3.420,-0.415934,0.026394,0.872412,101824.14
66206,9.089,-1.576,3.007,-0.418594,0.021073,0.832503,101822.23
66215,9.205,-1.463,2.891,-0.340906,0.011495,0.828247,101822.13
66226,9.193,-1.866,2.993,-0.262686,0.000321,0.830375,101820.64
66236,9.120,-2.367,3.230,-0.242998,-0.011918,0.818669,101820.64
66246,8.956,-2.606,3.408,-0.294613,-0.016707,0.787274,101825.10
66256,8.920,-2.632,3.363,-0.385071,-0.011918,0.747366,101823.35
66266,9.045,-2.489,3.168,-0.484576,0.001917,0.717568,101819.02
66276,9.119,-2.313,2.901,-0.540447,0.010963,0.705861,101821.29
66286,9.092,-2.247,2.856,-0.534594,0.010963,0.710118,101821.29
66296,9.033,-2.352,2.937,-0.502668,0.001385,0.718100,101823.17
66306,8.816,-2.662,3.029,-0.442007,-0.006597,0.711182,101824.78
66316,8.676,-2.893,3.175,-0.429769,-0.012982,0.696815,101821.53
66326,8.586,-2.691,3.365,-0.473934,-0.011918,0.686173,101821.58
66336,8.569,-2.562,3.364,-0.490429,-0.006065,0.677127,101821.58
66347,8.588,-2.805,3.141,-0.489365,-0.003936,0.679788,101823.75
66352,8.572,-2.993,2.928,-0.503200,-0.003936,0.679788,101822.88
66361,8.808,-2.635,3.001,-0.533530,0.001385,0.687770,101822.88
66371,8.895,-2.291,2.999,-0.468081,-0.019367,0.709054,101820.77
66381,8.915,-2.550,2.768,-0.322815,-0.045441,0.727678,101821.73
66392,8.697,-3.337,2.610,-0.274393,-0.056083,0.746834,101821.73
66401,8.805,-3.382,2.589,-0.346227,-0.035331,0.755347,101821.93
66411,8.912,-3.001,2.690,-0.404759,-0.019367,0.773971,101821.82
66421,9.005,-2.874,2.794,-0.396778,-0.018835,0.803237,101820.54
66430,9.080,-3.066,2.885,-0.374429,-0.024689,0.837825,101820.54
66441,9.019,-3.389,3.084,-0.385604,-0.020432,0.867623,101820.54
66451,8.906,-3.667,3.180,-0.437750,-0.001276,0.887311,101823.79
66461,8.822,-3.801,3.122,-0.522888,0.024798,0.897953,101822.96
66471,8.705,-3.752,3.018,-0.607139,0.052113,0.914980,101822.21
66481,8.766,-3.619,2.842,-0.651658,0.060449,0.930944,101822.21
66491,8.930,-3.750,2.610,-0.663897,0.054064,0.959146,101822.21
66501,9.055,-4.026,2.465,-0.683585,0.045550,0.992136,101824.04
66511,9.188,-4.106,2.445,-0.744246,0.046082,1.028320,101821.26
66522,9.416,-3.916,2.525,-0.812888,0.040761,1.069824,101820.84
66531,9.528,-3.703,2.670,-0.849071,0.007238,1.124100,101820.84
66541,9.545,-3.607,2.828,-0.830979,-0.045973,1.184228,101821.34
66551,9.601,-3.814,2.995,-0.778833,-0.108230,1.247017,101821.34
66561,9.794,-4.215,3.267,-0.744778,-0.170487,1.305549,101820.58
66571,9.928,-4.436,3.333,-0.773512,-0.211991,1.359292,101822.28
66581,10.149,-4.463,3.289,-0.838429,-0.232743,1.414099,101822.42
66591,10.414,-4.376,2.894,-0.901218,-0.254028,1.474760,101822.42
66601,10.562,-4.280,2.300,-0.944319,-0.292872,1.547127,101821.24
66612,10.602,-4.217,1.602,-0.970392,-0.339698,1.632797,101821.29
66621,10.753,-4.153,1.024,-0.993273,-0.398230,1.730705,101822.12
66631,11.193,-4.289,0.921,-1.022007,-0.478046,1.819035,101822.30
66641,11.891,-4.581,1.151,-1.073089,-0.558927,1.911622,101821.63
66652,13.045,-5.264,1.508,-1.201860,-0.623312,1.982393,101822.81
66661,14.639,-5.691,1.889,-1.487603,-0.652046,2.018044,101819.72
66671,16.722,-5.260,2.550,-1.952667,-0.629165,2.025494,101819.72
66681,19.173,-2.693,3.462,-2.535327,-0.592982,2.046246,101821.98
66691,20.218,1.352,4.542,-3.010501,-0.572230,2.161714,101821.98
66701,20.182,4.544,4.903,-2.928556,-0.640340,2.352741,101820.67
66711,19.725,5.190,4.795,-2.342703,-0.802633,2.552814,101823.09
66721,17.753,2.168,4.048,-1.500373,-1.042082,2.774172,101820.72
66732,15.217,-3.100,2.801,-0.643677,-1.276743,3.012025,101820.16
66741,13.667,-7.764,3.166,-0.062081,-1.353367,3.209438,101820.16
66751,12.969,-9.795,3.917,0.088506,-1.255991,3.220612,101821.07
66761,12.787,-9.383,3.363,-0.173824,-1.063899,3.062043,101822.55
66771,12.412,-8.226,2.755,-0.570778,-0.901605,2.827383,101819.88
66782,11.369,-7.385,1.865,-0.934741,-0.821789,2.574099,101819.88
66791,9.009,-6.955,2.328,-1.289658,-0.726009,2.320282,101819.88
66801,7.290,-5.113,3.275,-1.488667,-0.588725,2.036668,101820.99
66811,6.053,-2.406,3.887,-1.483878,-0.480175,1.684943,101821.30
66821,4.589,-1.561,3.298,-1.331695,-0.397165,1.265109,101819.66
66827,2.471,-5.059,2.179,-1.227933,-0.254028,1.050136,101820.70
66836,2.771,-5.856,2.220,-1.357768,-0.047037,0.948503,101820.70
66846,3.874,-2.504,2.724,-1.418429,0.052999,0.639348,101819.66
66856,3.908,0.265,1.912,-1.250814,0.053532,0.158852,101820.32
66866,3.546,1.173,1.616,-1.048080,0.110467,-0.222670,101818.77
66876,3.787,1.857,1.358,-0.788411,0.145587,-0.571202,101817.60
66886,3.911,2.083,0.702,-0.492558,0.128027,-0.932505,101817.60
66896,3.921,1.575,0.144,-0.209475,0.136541,-1.255495,101818.79
66907,4.090,0.723,-0.044,0.026782,0.174321,-1.549220,101819.09
66916,4.201,-0.105,-0.038,0.200781,0.220082,-1.822724,101816.10
66926,4.193,-0.506,-0.017,0.346579,0.262119,-2.089843,101815.48
66936,4.269,-0.716,-0.128,0.511001,0.287128,-2.348449,101815.48
66947,4.514,-1.008,-0.195,0.714622,0.297947,-2.618228,101816.80
66956,4.764,-1.354,-0.105,0.917001,0.295642,-2.828412,101814.34
66966,4.968,-1.752,0.147,1.144744,0.294577,-3.050301,101812.43
66976,5.101,-2.092,0.534,1.354927,0.315330,-3.272723,101811.20
66987,5.313,-2.156,1.073,1.524138,0.365348,-3.503127,101811.20
66996,5.561,-2.169,1.541,1.671001,0.432926,-3.726613,101813.65
67006,5.806,-2.417,1.923,1.790725,0.506889,-3.935200,101814.12
67016,6.095,-2.715,2.154,1.863092,0.581917,-4.127292,101812.32
67026,6.418,-3.148,2.452,1.872670,0.663861,-4.296503,101812.05
67036,7.015,-3.639,2.852,1.794982,0.754852,-4.465714,101812.05
67046,7.728,-4.234,3.052,1.659826,0.855421,-4.646631,101816.30
67056,8.494,-4.916,3.192,1.510303,0.995898,-4.839787,101814.64
67066,9.306,-5.642,2.981,1.352799,1.175219,-5.035603,101813.97
67077,10.054,-6.403,2.554,1.203808,1.368375,-5.219713,101815.42
67086,10.726,-7.247,2.293,1.041515,1.568448,-5.358594,101815.42
67096,11.430,-8.208,2.338,0.837185,1.730742,-5.434154,101818.06
67106,12.126,-9.032,2.429,0.596139,1.829714,-5.459163,101818.27
67117,12.873,-9.744,2.418,0.385956,1.898356,-5.449584,101819.81
67126,13.643,-10.690,2.234,0.265699,1.959549,-5.400098,101818.31
67136,14.315,-11.693,1.674,0.195460,2.047347,-5.295273,101818.31
67146,14.904,-12.429,0.745,0.134268,2.155897,-5.120741,101822.78
67156,15.608,-13.060,-0.038,0.125222,2.222411,-4.886612,101822.47
67166,15.475,-13.836,0.240,0.128414,2.159090,-4.578521,101818.97
67176,14.046,-13.790,0.727,0.062433,2.018081,-4.111861,101818.86
67186,13.319,-12.973,0.144,0.008690,1.961145,-3.512705,101818.86
67196,13.298,-14.297,-1.970,0.231644,1.857384,-2.945476,101822.74
67207,12.683,-16.263,-4.435,0.474818,1.563659,-2.562357,101824.23
67216,10.466,-17.017,-5.031,0.620616,1.065604,-2.040357,101821.80
67226,8.192,-19.649,-4.299,0.796212,0.543605,-1.119807,101823.62
67236,7.535,-20.768,-3.562,0.789295,0.130687,0.035935,101823.62
67247,8.486,-17.699,-1.588,0.721717,-0.155055,1.083659,101822.37
67256,8.201,-14.420,-2.594,0.824946,-0.456762,1.854154,101820.66
67266,7.919,-2.531,3.923,1.089405,-0.617459,2.102117,101822.27
67276,12.332,13.051,8.289,1.288414,-0.335441,1.419953,101818.30
67287,17.592,15.203,5.270,1.184652,-0.082689,1.003843,101818.30
67297,21.876,4.433,-3.603,1.209129,-0.407275,1.231054,101823.29
67306,17.724,-6.198,-3.219,1.373551,-0.648321,1.839787,101823.71
67316,13.574,-9.165,2.191,1.365038,-0.339165,2.182998,101822.01
67326,11.884,-9.799,3.125,0.979258,-0.101312,2.355934,101819.27
67337,11.305,-9.009,2.130,0.960634,-0.077900,2.458631,101819.27
67346,10.033,-5.481,2.085,0.895185,-0.184854,2.353805,101823.03
67356,8.083,-3.753,4.232,0.613166,-0.234872,2.186191,101825.66
67366,6.922,-4.032,5.793,0.175240,-0.288615,2.010062,101822.72
67377,7.339,-3.969,4.959,-0.208943,-0.282230,1.783384,101818.39
67386,8.296,-2.307,2.867,-0.377622,-0.258817,1.565751,101818.39
67396,9.156,-0.208,1.863,-0.208411,-0.252964,1.454008,101823.40
67406,9.581,-0.050,1.406,0.128414,-0.271587,1.454540,101822.79
67417,9.589,-1.553,0.597,0.445552,-0.280633,1.461989,101821.24
67426,9.566,-3.410,0.252,0.549313,-0.249239,1.414631,101820.41
67436,9.501,-4.593,0.763,0.377442,-0.189110,1.311402,101820.41
67446,9.270,-4.312,1.753,0.016139,-0.111422,1.177311,101825.38
67457,9.103,-3.136,2.731,-0.286631,-0.055019,1.052797,101823.21
67467,9.076,-1.860,3.107,-0.409016,-0.043844,0.969788,101824.46
67476,9.158,-1.192,3.041,-0.368576,-0.053422,0.933072,101819.71
67486,9.150,-1.258,2.709,-0.249916,-0.080028,0.925091,101819.71
67496,9.031,-1.962,2.346,-0.156264,-0.095991,0.913916,101823.27
67507,8.950,-2.544,2.257,-0.142429,-0.085349,0.881458,101821.36
67516,8.944,-2.667,2.345,-0.176484,-0.063533,0.837825,101822.19
67526,8.821,-2.600,2.549,-0.192980,-0.043844,0.790999,101821.05
67536,8.679,-2.486,2.692,-0.191383,-0.028413,0.746834,101821.05
67542,8.608,-2.516,2.739,-0.187127,-0.022028,0.717036,101824.95
67552,8.679,-2.486,2.678,-0.192980,-0.021496,0.700008,101824.95
67562,8.909,-2.486,2.460,-0.227567,-0.015111,0.692559,101824.99
67571,9.255,-2.418,2.388,-0.292484,-0.013514,0.702137,101821.79
67581,9.363,-2.024,2.481,-0.337182,-0.016707,0.730870,101823.45
67592,9.230,-2.088,2.716,-0.286631,-0.025221,0.753751,101822.66
67602,9.077,-2.611,2.676,-0.235549,-0.049698,0.771311,101820.91
67611,8.909,-2.914,2.537,-0.232888,-0.070982,0.776100,101820.49
67621,8.915,-3.058,2.482,-0.271200,-0.061404,0.773439,101820.49
67632,8.946,-2.552,2.577,-0.320686,-0.047037,0.779825,101824.68
67641,8.802,-2.192,2.720,-0.268539,-0.070982,0.801109,101824.68
67651,8.666,-2.143,2.956,-0.212136,-0.088010,0.831439,101823.23
67661,8.454,-2.064,3.439,-0.168503,-0.085881,0.865494,101823.08
67672,8.275,-2.191,3.619,-0.101457,-0.092266,0.908063,101821.53
67682,8.366,-2.732,3.390,-0.055695,-0.114083,0.953292,101823.39
67691,8.764,-3.601,2.817,-0.071659,-0.138028,0.990008,101823.39
67701,9.265,-4.098,2.162,-0.184998,-0.144413,1.010228,101824.23
67712,9.470,-3.846,1.983,-0.339310,-0.127918,1.024063,101822.01
67722,9.408,-3.531,2.101,-0.432429,-0.110890,1.044283,101819.02
67732,9.216,-3.703,2.161,-0.447860,-0.099716,1.073549,101819.02
67741,9.058,-4.106,2.300,-0.471273,-0.090138,1.104944,101819.02
67751,8.984,-4.306,2.504,-0.546301,-0.077367,1.132081,101823.69
67762,9.106,-4.118,2.605,-0.642080,-0.065661,1.161347,101820.50
67772,9.528,-3.807,2.478,-0.704337,-0.084817,1.200723,101824.09
67781,9.705,-3.867,2.671,-0.716576,-0.133771,1.253934,101821.63
67791,9.738,-3.930,2.641,-0.720301,-0.179000,1.309806,101821.63
67802,9.861,-4.015,2.282,-0.720833,-0.219973,1.373127,101819.85
67812,10.116,-4.068,1.858,-0.715512,-0.271055,1.437512,101822.54
67822,10.421,-4.106,1.519,-0.683585,-0.337037,1.509347,101821.54
67831,10.755,-4.300,1.409,-0.633567,-0.413661,1.577457,101821.54
67842,10.894,-4.682,1.427,-0.605897,-0.479642,1.646099,101821.23
67852,10.960,-5.000,1.267,-0.631970,-0.517422,1.713677,101821.34
67861,11.009,-5.009,1.063,-0.708062,-0.542963,1.767420,101821.34
67871,11.272,-4.798,1.045,-0.783622,-0.588193,1.830209,101817.63
67881,11.667,-4.620,1.451,-0.837897,-0.654174,1.911622,101819.84
67892,12.022,-4.833,1.878,-0.879934,-0.716431,1.999952,101819.84
67902,12.612,-5.199,2.161,-0.980502,-0.759000,2.079237,101823.41
67911,13.665,-5.497,2.465,-1.183236,-0.778688,2.144686,101824.85
67921,15.319,-5.451,2.671,-1.495052,-0.767514,2.201622,101819.49
67932,17.472,-4.549,2.926,-1.923401,-0.732927,2.250576,101820.52
67942,19.640,-1.982,3.256,-2.416134,-0.704193,2.321879,101821.56
67952,20.767,0.530,3.334,-2.697620,-0.729202,2.445860,101819.50
67961,21.005,2.259,3.630,-2.675272,-0.812211,2.584209,101821.41
67972,19.914,2.026,4.455,-2.441144,-0.928211,2.730539,101819.14
67982,17.416,-0.983,4.663,-1.893603,-1.087844,2.917310,101819.14
67991,15.334,-6.695,5.205,-1.159291,-1.241091,3.178043,101819.14
68001,15.222,-8.734,6.080,-0.832044,-1.295899,3.266373,101818.98
68012,15.067,-7.173,5.860,-0.778833,-1.205972,3.171658,101821.20
68022,14.622,-4.628,4.565,-0.678796,-1.092633,2.993401,101820.95
68032,13.052,-3.256,3.314,-0.494154,-1.103807,2.746502,101819.60
68041,10.712,-3.509,2.367,-0.312705,-1.166596,2.493750,101819.60
68051,7.782,-3.703,2.441,-0.180209,-1.150101,2.215457,101821.30
68062,5.533,-3.531,2.815,-0.178081,-0.980890,1.847237,101819.98
68072,4.225,-3.299,1.368,-0.397310,-0.793587,1.360888,101819.28
68081,1.953,-6.968,0.237,-0.768723,-0.534450,1.077806,101819.28
68091,2.499,-5.879,1.659,-0.966135,-0.260413,0.866558,101821.47
68102,2.944,-1.824,1.986,-0.850135,-0.172615,0.362651,101821.47
68112,2.353,-0.114,1.745,-0.598980,-0.104505,-0.080597,101822.13
68121,2.335,0.973,1.152,-0.322815,-0.047569,-0.449349,101819.86
68131,2.409,1.841,0.485,0.010818,-0.035863,-0.813844,101820.22
68136,2.376,2.066,0.127,0.286451,-0.027349,-1.070853,101820.22
68147,2.669,1.939,0.067,0.575919,-0.002340,-1.306046,101818.52
68157,3.136,1.224,0.226,0.934029,0.043421,-1.590724,101819.50
68166,3.374,0.319,0.369,1.219772,0.089715,-1.848798,101818.05
68176,3.480,-0.485,0.338,1.412395,0.133348,-2.105807,101816.41
68187,3.443,-1.192,0.155,1.520946,0.171660,-2.361219,101816.41
68197,3.500,-1.772,-0.042,1.570964,0.204119,-2.618760,101816.84
68206,3.673,-2.272,-0.007,1.589056,0.248284,-2.874173,101818.07
68216,3.914,-2.464,0.225,1.577881,0.316394,-3.125861,101815.54
68227,4.323,-2.326,0.313,1.565643,0.403128,-3.380742,101814.41
68237,4.741,-2.106,0.301,1.581606,0.509550,-3.621787,101814.41
68247,5.276,-1.944,0.442,1.604487,0.619696,-3.843145,101813.80
68256,5.756,-2.224,0.757,1.577349,0.702173,-4.045879,101815.82
68267,6.235,-2.892,0.953,1.482102,0.760705,-4.240631,101814.68
68277,6.697,-3.782,0.999,1.283093,0.832540,-4.443897,101812.62
68287,7.284,-4.427,0.906,0.986175,0.943219,-4.639713,101812.62
68296,7.900,-4.763,0.976,0.752579,1.089549,-4.809988,101816.05
68306,8.740,-5.201,1.008,0.645625,1.255035,-4.962172,101816.77
68317,9.610,-5.841,0.572,0.704689,1.382210,-5.101585,101819.15
68327,10.431,-6.815,0.116,0.796212,1.469476,-5.198429,101817.09
68336,11.254,-7.706,-0.133,0.838249,1.522154,-5.242062,101817.09
68346,12.012,-8.588,-0.062,0.866451,1.524283,-5.258557,101821.49
68357,12.699,-9.558,0.030,0.888267,1.468411,-5.264943,101820.10
68367,13.199,-10.118,-0.009,0.897845,1.382742,-5.258025,101817.84
68377,13.384,-10.385,-0.110,0.880286,1.316760,-5.185126,101817.32
68386,13.452,-10.722,-0.200,0.830799,1.290155,-5.031346,101817.32
68397,13.591,-11.402,-0.189,0.747258,1.302393,-4.823823,101822.31
68407,13.713,-12.159,0.037,0.614231,1.321017,-4.596612,101821.08
68417,13.662,-12.630,0.522,0.451937,1.314100,-4.347053,101822.11
68426,13.200,-12.818,1.009,0.279534,1.292815,-4.032576,101820.56
68436,12.446,-12.945,1.231,0.142781,1.309311,-3.632430,101820.56
68447,11.513,-14.101,0.269,0.125222,1.384338,-3.181201,101823.73
68457,10.846,-16.428,-0.835,0.076268,1.423714,-2.785311,101820.84
68466,9.902,-16.808,-1.697,-0.216925,1.336980,-2.383568,101823.15
68476,9.653,-16.057,-2.289,-0.553750,1.152338,-1.847201,101824.09
68487,9.306,-16.259,-2.320,-0.674539,0.844779,-1.169826,101824.09
68493,8.869,-16.580,-2.248,-0.610686,0.549458,-0.585569,101824.28
68502,8.778,-16.108,-2.255,-0.447328,0.242963,0.046577,101824.28
68512,8.910,-14.362,-1.664,-0.164246,-0.107698,0.896889,101825.16
68521,8.421,-10.556,2.153,0.298157,-0.283826,1.577457,101824.08
68532,9.557,1.344,6.557,0.600928,-0.316285,1.696118,101824.19
68542,11.981,12.784,10.342,0.648286,0.031183,1.057054,101821.88
68552,14.635,12.231,5.399,0.339662,0.220082,0.761733,101821.88
68561,17.228,6.069,1.012,0.377974,-0.089606,0.959678,101822.48
68572,17.117,1.875,-0.430,0.527497,-0.351404,1.306081,101822.48
68582,14.288,-0.770,1.075,0.688726,-0.269991,1.646631,101822.48
68592,11.175,-2.833,3.224,0.905295,-0.136964,1.895659,101822.48
68601,9.404,-8.231,6.134,1.444854,-0.006597,2.175549,101826.06
68613,12.867,-10.249,3.336,1.743722,-0.015288,2.437879,101821.11
68622,11.900,-7.126,1.384,1.401221,-0.287019,2.351677,101821.11
68632,8.938,-5.536,2.385,0.823350,-0.323734,2.139897,101822.50
