60044,9.310,-2.885,0.085,-0.299716,0.165664,-0.036555,101832.97
60054,9.219,-2.996,0.125,-0.289073,0.156618,-0.033362,101831.58
60064,9.117,-3.233,0.117,-0.256083,0.135865,-0.024848,101831.58
60075,9.102,-3.422,-0.049,-0.209257,0.108196,-0.020591,101836.87
60084,9.110,-3.511,-0.270,-0.165624,0.078398,-0.015270,101833.05
60094,8.903,-3.898,-0.377,-0.175734,0.066159,-0.010481,101831.91
60104,9.358,-2.916,-0.251,-0.176798,0.054985,-0.019527,101831.91
60114,8.816,-4.300,-0.802,-0.121459,0.032636,-0.025380,101831.91
60124,8.829,-3.687,-0.276,-0.273110,0.087975,-0.037619,101833.91
60134,9.013,-3.060,-0.630,-0.302908,0.071480,-0.016334,101834.68
60140,8.029,-4.741,-1.017,-0.306101,0.112453,-0.028573,101832.93
60149,8.585,-4.481,-0.592,-0.479569,0.190673,-0.049325,101832.93
60160,9.131,-3.400,-0.345,-0.686027,0.237498,-0.054646,101832.62
60169,9.247,-2.812,-0.255,-0.693477,0.224196,-0.042408,101832.62
60179,9.158,-2.984,-0.174,-0.589715,0.195994,-0.033894,101833.06
60189,8.749,-3.787,-0.532,-0.534908,0.193865,-0.032830,101832.05
60199,8.281,-4.921,-0.752,-0.686027,0.270489,-0.042940,101831.20
60210,8.807,-4.319,-0.483,-0.947825,0.356159,-0.071142,101831.20
60219,9.321,-3.050,-0.286,-1.071807,0.358819,-0.088701,101831.20
60229,9.508,-2.363,-0.206,-1.027110,0.331150,-0.071674,101833.41
60239,9.978,-2.035,0.095,-0.878119,0.284324,-0.040811,101832.07
60249,9.545,-2.292,-0.090,-0.654633,0.206104,-0.041344,101830.21
60259,8.842,-3.590,-0.409,-0.580670,0.215682,-0.020059,101832.18
60269,9.200,-3.772,-0.258,-0.680174,0.274746,-0.029637,101832.18
60279,9.465,-3.079,-0.124,-0.757862,0.292838,-0.040811,101833.33
60290,9.194,-2.929,-0.207,-0.736046,0.281131,-0.029105,101834.88
60299,8.933,-3.623,-0.254,-0.721147,0.291241,-0.016334,101832.45
60309,8.833,-4.024,-0.110,-0.793514,0.326361,-0.024848,101832.15
60319,9.029,-3.664,0.033,-0.931862,0.372122,-0.037619,101833.24
60329,9.211,-3.091,0.311,-1.006357,0.395003,-0.039215,101830.91
60339,9.370,-2.752,0.365,-1.002101,0.406709,-0.039747,101830.91
60349,9.261,-2.888,0.386,-0.962192,0.435975,-0.044004,101832.87
60359,9.052,-3.420,0.699,-0.948890,0.483333,-0.070610,101832.05
60369,9.016,-3.755,1.223,-1.010082,0.560489,-0.103600,101832.05
60379,9.054,-3.979,1.638,-1.160137,0.670636,-0.152555,101832.99
60389,9.022,-4.091,2.072,-1.369256,0.788764,-0.187674,101833.55
60399,9.478,-3.846,2.360,-1.622008,0.918599,-0.219068,101832.84
60409,8.932,-3.292,2.001,-1.793880,0.990434,-0.245674,101829.95
60420,7.560,-4.345,1.498,-2.026944,1.156984,-0.234499,101829.95
60430,8.400,-3.526,1.653,-2.278632,1.282030,-0.258444,101833.45
60439,8.217,-2.627,0.672,-2.313219,1.275645,-0.266426,101830.43
60449,8.618,-2.326,-0.087,-2.202540,1.223498,-0.256848,101830.48
60460,10.117,-1.986,-1.153,-1.965751,1.084617,-0.257912,101830.48
60469,11.385,-1.451,-2.065,-1.652339,0.872837,-0.257380,101830.48
60479,11.469,-1.045,-2.960,-1.249532,0.600397,-0.245142,101833.25
60489,10.817,-1.075,-3.300,-0.820651,0.320507,-0.198316,101832.63
60499,10.174,-1.509,-3.400,-0.439661,0.051260,-0.155215,101832.06
60510,9.586,-1.800,-2.853,-0.079422,-0.198300,-0.136059,101831.80
60519,9.061,-2.661,-1.217,0.177587,-0.333988,-0.118500,101831.80
60529,8.800,-3.206,0.362,0.194082,-0.372299,-0.130206,101835.53
60539,8.721,-2.982,1.362,0.092981,-0.336116,-0.119564,101832.48
60550,8.725,-3.522,1.492,-0.060266,-0.237676,-0.100940,101832.17
60559,8.791,-3.863,1.041,-0.260872,-0.122740,-0.100408,101832.17
60569,9.078,-3.099,0.591,-0.415716,-0.026428,-0.104133,101834.98
60579,9.754,-2.260,0.094,-0.449239,0.010287,-0.104665,101834.98
60590,10.501,-1.970,-0.509,-0.381128,0.014012,-0.096151,101831.23
60599,10.499,-2.269,-0.776,-0.276303,-0.022171,-0.088701,101831.75
60609,10.177,-2.253,-1.108,-0.165092,-0.079107,-0.079655,101832.41
60614,9.911,-3.137,-1.318,-0.136890,-0.095070,-0.076463,101832.41
60624,9.814,-3.237,-1.340,-0.130505,-0.096667,-0.112646,101833.17
60635,9.574,-3.006,-1.043,-0.143808,-0.095070,-0.140848,101833.22
60644,9.597,-1.997,-0.325,-0.100707,-0.125933,-0.149362,101832.50
60654,9.350,-1.391,0.494,0.094578,-0.170630,-0.111582,101830.44
60664,8.742,-1.604,0.593,0.321256,-0.192978,-0.010481,101830.44
60675,8.253,-1.998,0.393,0.389899,-0.160520,0.015592,101832.92
60684,7.935,-2.489,0.030,0.337752,-0.124868,0.059757,101832.88
60694,8.074,-3.098,-0.142,0.290926,-0.099327,0.107647,101832.20
60704,8.844,-2.714,-0.049,0.265917,-0.061015,0.110840,101830.66
60715,9.424,-2.520,0.028,0.227605,-0.018446,0.104987,101830.66
60725,9.808,-1.953,0.062,0.264321,-0.012593,0.111372,101836.11
60734,10.107,-1.637,-0.253,0.378192,-0.046116,0.119354,101829.92
60744,9.985,-1.842,-0.549,0.553256,-0.100923,0.125739,101831.11
60754,9.481,-2.377,-0.719,0.703311,-0.153070,0.131060,101830.91
60765,8.897,-2.706,-0.781,0.777807,-0.198300,0.136913,101830.91
60774,8.824,-2.617,-0.569,0.831018,-0.239804,0.140638,101833.41
60784,9.089,-2.587,-0.187,0.908173,-0.282905,0.129996,101831.51
60794,9.234,-2.599,0.280,1.006082,-0.308978,0.115629,101831.71
60805,9.080,-2.925,0.915,1.088559,-0.296740,0.102326,101830.16
60814,9.010,-3.340,1.320,1.086430,-0.238208,0.085831,101830.16
60824,9.325,-3.422,1.297,0.993311,-0.156795,0.055500,101832.88
60834,10.001,-2.752,0.620,0.851770,-0.092942,0.024106,101833.66
60845,10.453,-2.260,-0.071,0.767164,-0.071657,0.021445,101831.85
60855,10.361,-2.218,-0.365,0.762908,-0.086024,0.048051,101830.88
60864,9.697,-2.254,-0.175,0.872522,-0.121144,0.087959,101830.88
60874,9.065,-2.417,0.234,1.028430,-0.178612,0.116693,101835.10
60884,8.921,-2.600,0.573,1.181678,-0.262685,0.125739,101829.38
60895,9.076,-2.656,0.517,1.304063,-0.319088,0.097005,101832.99
60904,9.332,-2.621,0.359,1.375366,-0.335584,0.090088,101832.01
60914,9.186,-3.194,0.281,1.430705,-0.351547,0.087959,101832.01
60924,9.139,-3.646,-0.014,1.480724,-0.377088,0.081574,101832.66
60935,9.278,-5.559,-0.569,1.375366,-0.348355,0.024106,101833.23
60944,8.546,-5.387,-0.520,0.998100,-0.224373,-0.014738,101833.75
60954,8.601,-4.706,-0.377,0.609128,-0.097731,-0.021123,101830.91
60964,8.657,-4.308,-0.389,0.286669,-0.011529,-0.043472,101830.91
60975,8.915,-3.429,-0.161,0.055734,0.048599,-0.059967,101831.84
60984,9.093,-2.749,0.009,0.002523,0.051260,-0.056775,101831.69
60994,9.047,-2.829,0.006,0.027532,0.033168,-0.039747,101834.02
61004,9.426,-2.746,0.159,0.033917,0.031572,-0.033362,101832.11
61015,9.472,-2.759,0.234,0.059458,0.024122,-0.024316,101832.11
61025,9.432,-2.869,0.196,0.067440,0.019333,-0.012610,101833.11
61034,9.419,-2.954,0.141,0.058926,0.023058,-0.006224,101833.63
61044,9.363,-2.957,0.112,0.041899,0.025719,-0.000903,101832.13
61054,9.327,-2.929,0.051,0.030724,0.028379,0.004950,101831.88
61065,9.313,-2.876,0.044,0.027532,0.031572,0.012399,101831.88
61074,9.332,-2.864,0.065,0.032853,0.036361,0.017188,101834.63
61084,9.303,-2.882,0.095,0.046688,0.038489,0.025702,101832.15
61090,9.277,-2.908,0.113,0.053605,0.040086,0.028895,101831.95
61100,9.325,-2.997,0.144,0.050945,0.044342,0.031555,101831.95
61110,9.363,-3.003,0.178,0.035513,0.048599,0.036344,101832.62
61119,9.333,-2.983,0.243,0.034981,0.048599,0.042198,101832.62
61129,9.273,-2.963,0.255,0.046688,0.044342,0.041133,101835.19
61139,9.310,-3.072,0.189,0.049348,0.036361,0.042198,101832.94
61150,9.316,-3.111,0.123,0.042963,0.033700,0.045922,101831.94
61160,9.263,-3.076,0.117,0.043495,0.037425,0.049647,101831.94
61169,9.250,-3.007,0.136,0.038706,0.039021,0.054436,101831.94
61179,9.205,-2.934,0.235,0.044559,0.036893,0.066675,101834.01
61190,9.176,-2.937,0.395,0.069568,0.036893,0.082106,101833.18
61200,9.263,-3.002,0.443,0.077550,0.033168,0.093812,101831.88
61209,9.329,-3.057,0.385,0.053073,0.028379,0.106583,101832.35
61219,9.321,-3.060,0.338,0.010504,0.035829,0.120950,101832.35
61230,9.357,-2.987,0.247,-0.049624,0.044875,0.134785,101832.84
61240,9.389,-2.928,0.224,-0.096982,0.044875,0.149152,101834.19
61250,9.426,-2.838,0.297,-0.115074,0.034765,0.164051,101830.17
61259,9.389,-2.790,0.409,-0.110285,0.020398,0.183739,101833.02
61270,9.307,-2.767,0.512,-0.081551,0.007095,0.209280,101834.05
61280,9.313,-2.807,0.517,-0.045899,-0.004612,0.230564,101831.52
61289,9.287,-2.764,0.426,-0.026743,-0.016318,0.245996,101831.52
61299,9.257,-2.751,0.403,-0.011844,-0.024300,0.260363,101830.18
61309,9.230,-2.797,0.354,0.020082,-0.033346,0.271537,101831.27
61320,9.217,-2.971,0.343,0.052009,-0.038667,0.277390,101831.27
61330,9.156,-3.221,0.291,0.066376,-0.036538,0.278986,101835.63
61339,9.077,-3.455,0.231,0.061587,-0.025896,0.278454,101832.63
61349,9.077,-3.579,0.133,0.037642,-0.013125,0.282711,101833.41
61360,9.174,-3.558,-0.075,0.006780,-0.001951,0.284840,101833.21
61370,9.183,-3.477,-0.222,-0.034193,0.011352,0.286968,101833.21
61380,9.125,-3.406,-0.188,-0.070376,0.031572,0.289097,101833.65
61389,9.114,-3.311,-0.041,-0.100175,0.051260,0.289629,101833.68
61400,9.120,-3.164,0.081,-0.115074,0.065627,0.288032,101830.43
61410,9.080,-3.101,0.252,-0.108688,0.070416,0.295482,101830.43
61419,9.082,-3.069,0.401,-0.076230,0.068287,0.309849,101830.43
61429,9.122,-3.055,0.432,-0.033129,0.053920,0.323684,101837.52
61440,9.177,-3.057,0.439,0.008376,0.039021,0.343372,101832.57
61450,9.210,-3.095,0.450,0.059990,0.022526,0.373702,101834.79
61460,9.225,-3.216,0.395,0.099367,0.010820,0.399243,101834.59
61469,9.218,-3.299,0.361,0.098302,0.007627,0.418399,101834.59
61479,9.109,-3.374,0.405,0.076486,0.009755,0.438087,101834.77
61490,8.944,-3.431,0.529,0.053073,0.011884,0.453518,101834.41
61500,8.956,-3.535,0.648,0.042963,0.011884,0.458307,101831.25
61509,8.944,-3.723,0.590,0.044027,0.006563,0.462564,101831.25
61519,8.883,-3.944,0.536,0.037110,-0.001419,0.465757,101832.92
61530,8.872,-4.133,0.423,0.020614,-0.011529,0.462032,101832.92
61540,8.883,-4.192,0.323,-0.007055,-0.018446,0.451390,101834.20
61549,8.933,-4.119,0.288,-0.038450,-0.021107,0.433830,101829.67
61559,8.868,-4.095,0.326,-0.056009,-0.021107,0.415739,101833.33
61570,8.797,-4.258,0.344,-0.055477,-0.019511,0.397115,101833.33
61580,8.701,-4.376,0.303,-0.060266,-0.017914,0.374766,101833.90
61590,8.652,-4.416,0.270,-0.085275,-0.013125,0.347097,101833.63
61599,8.683,-4.337,0.178,-0.130505,-0.003547,0.316234,101832.09
61609,8.774,-4.235,0.191,-0.165624,0.010287,0.290161,101834.13
61620,8.771,-4.188,0.208,-0.174138,0.020398,0.274197,101833.62
61630,8.788,-4.206,0.192,-0.162963,0.024122,0.263023,101831.85
61640,8.782,-4.138,0.099,-0.144872,0.024654,0.256638,101834.18
61649,8.704,-3.979,0.115,-0.106028,0.018801,0.251849,101834.18
61660,8.630,-3.929,0.180,-0.025147,0.007627,0.251317,101833.04
61670,8.603,-4.135,0.188,0.064247,-0.000887,0.243867,101833.04
61680,8.616,-4.605,0.079,0.115862,0.005498,0.223647,101835.27
61685,8.594,-4.923,-0.076,0.110009,0.019865,0.202363,101832.78
61694,8.564,-5.079,-0.115,0.070633,0.041150,0.177886,101830.88
61705,8.539,-5.096,-0.101,0.008908,0.070416,0.141170,101831.09
61715,8.556,-4.943,-0.058,-0.045899,0.094893,0.102326,101831.09
61724,8.588,-4.757,0.061,-0.080486,0.111920,0.064014,101833.07
61734,8.563,-4.589,0.214,-0.090064,0.122031,0.032088,101831.99
61745,8.567,-4.530,0.318,-0.075697,0.122031,0.005482,101829.93
61755,8.593,-4.539,0.361,-0.052817,0.114581,-0.019527,101833.65
61764,8.611,-4.558,0.341,-0.028340,0.102342,-0.040279,101833.65
61774,8.579,-4.548,0.386,-0.001202,0.089572,-0.062628,101833.55
61785,8.584,-4.538,0.411,0.023807,0.080526,-0.087637,101836.54
61795,8.667,-4.558,0.370,0.033917,0.071480,-0.112114,101833.60
61805,8.736,-4.510,0.415,0.031789,0.064031,-0.128077,101831.02
61814,8.762,-4.370,0.504,0.024871,0.056049,-0.140848,101831.02
61825,8.775,-4.221,0.629,0.026468,0.045939,-0.148298,101834.30
61835,8.822,-4.114,0.762,0.041367,0.026783,-0.148298,101835.69
61845,8.824,-4.051,0.795,0.061055,0.002838,-0.144573,101831.16
61854,8.837,-4.052,0.847,0.082339,-0.023768,-0.133931,101831.47
61864,8.859,-3.992,0.828,0.100431,-0.051437,-0.123821,101831.47
61875,8.877,-3.951,0.780,0.112137,-0.078575,-0.113178,101835.19
61885,8.907,-3.961,0.736,0.115330,-0.102520,-0.100940,101832.66
61894,8.913,-3.984,0.706,0.114798,-0.122208,-0.089766,101831.94
61904,8.904,-4.029,0.658,0.112137,-0.141896,-0.077527,101832.61
61915,8.891,-4.103,0.632,0.114798,-0.160520,-0.064756,101832.61
61925,8.860,-4.210,0.577,0.120119,-0.179144,-0.053582,101834.30
61935,8.825,-4.307,0.574,0.115330,-0.191382,-0.049325,101834.04
61944,8.854,-4.317,0.461,0.091917,-0.200428,-0.045068,101830.54
61955,8.842,-4.269,0.382,0.060523,-0.208410,-0.044536,101832.40
61965,8.848,-4.211,0.314,0.032853,-0.215327,-0.041344,101832.40
61975,8.852,-4.145,0.289,0.011569,-0.219584,-0.039215,101832.83
61984,8.833,-4.139,0.289,-0.002266,-0.224905,-0.036022,101833.91
61995,8.817,-4.131,0.252,-0.012909,-0.227566,-0.033362,101829.94
62005,8.812,-4.137,0.227,-0.019294,-0.229162,-0.030701,101829.83
62015,8.834,-4.154,0.171,-0.018762,-0.233951,-0.028573,101829.83
62025,8.847,-4.174,0.137,-0.015037,-0.237144,-0.031766,101833.92
62034,8.848,-4.190,0.071,-0.017698,-0.237144,-0.033894,101836.44
62041,8.865,-4.217,0.032,-0.024083,-0.233419,-0.036022,101833.14
62050,8.864,-4.254,-0.051,-0.040046,-0.227033,-0.040279,101833.14
62060,8.822,-4.246,-0.115,-0.067716,-0.213199,-0.046665,101831.44
62070,8.885,-4.216,-0.134,-0.101239,-0.189254,-0.055711,101831.44
62080,8.969,-4.151,-0.132,-0.134762,-0.166373,-0.063692,101832.82
62090,8.973,-4.088,-0.085,-0.162963,-0.147217,-0.078591,101833.73
62100,9.041,-3.902,-0.069,-0.183716,-0.124336,-0.089766,101830.55
62110,9.110,-3.847,-0.043,-0.195422,-0.109437,-0.100408,101830.55
62119,8.998,-3.939,0.024,-0.182652,-0.103584,-0.109454,101830.55
62130,8.861,-4.148,0.030,-0.146468,-0.104116,-0.113711,101835.13
62140,8.780,-4.270,-0.049,-0.105496,-0.112098,-0.122756,101834.16
62150,8.812,-4.205,-0.191,-0.073569,-0.121676,-0.136059,101835.23
62160,8.858,-4.085,-0.205,-0.047850,-0.127706,-0.147411,101832.01
62170,8.799,-4.002,-0.205,-0.039514,-0.127529,-0.157876,101832.01
62180,8.742,-3.955,-0.223,-0.036853,-0.116355,-0.163197,101835.41
62190,8.774,-3.895,-0.282,-0.034725,-0.096134,-0.165325,101832.16
62200,8.864,-3.744,-0.357,-0.036321,-0.071657,-0.166921,101834.70
62210,8.891,-3.385,-0.415,-0.038982,-0.047713,-0.167454,101832.06
62220,9.056,-2.899,-0.412,-0.044835,-0.021639,-0.188738,101833.52
62230,9.443,-2.578,-0.471,-0.053349,0.010287,-0.213215,101834.33
62239,9.826,-2.572,-0.409,-0.057074,0.026251,-0.239288,101834.33
62249,10.121,-2.267,-0.307,-0.051220,0.033168,-0.307398,101833.52
62260,10.141,-1.672,-0.278,-0.042707,0.048599,-0.399453,101830.67
62270,10.074,-1.039,-0.276,-0.031532,0.068287,-0.486719,101830.67
62280,10.039,-0.497,-0.328,-0.000670,0.065095,-0.577710,101833.98
62289,10.062,-0.305,-0.521,0.057862,0.045407,-0.659123,101833.00
62300,10.038,-0.153,-0.562,0.125440,0.023058,-0.735215,101831.70
62310,9.958,-0.015,-0.589,0.207917,0.005498,-0.818756,101829.80
62320,9.900,0.095,-0.592,0.275495,-0.008868,-0.903361,101829.80
62330,9.770,0.191,-0.537,0.335623,-0.029089,-0.982114,101834.39
62340,9.623,0.244,-0.520,0.421825,-0.051437,-1.048627,101831.27
62350,9.621,-0.078,-0.486,0.521862,-0.083364,-1.113545,101835.34
62360,9.692,-0.935,-0.533,0.616577,-0.123272,-1.150792,101835.34
62369,9.824,-1.731,-0.466,0.676174,-0.148813,-1.164095,101835.34
62380,9.763,-2.319,-0.395,0.686816,-0.165841,-1.192829,101834.91
62390,9.572,-2.849,-0.336,0.658082,-0.159988,-1.201875,101835.53
62400,9.369,-3.257,-0.267,0.594229,-0.140300,-1.190701,101835.53
62410,9.143,-3.575,-0.258,0.517073,-0.122740,-1.164627,101831.30
62419,8.884,-3.920,-0.253,0.444706,-0.104648,-1.119398,101831.30
62430,8.643,-4.309,-0.295,0.371807,-0.081768,-1.056609,101833.25
62440,8.417,-4.710,-0.320,0.307954,-0.057823,-0.975196,101834.89
62450,8.311,-5.247,-0.325,0.261660,-0.044520,-0.877820,101830.67
62460,8.264,-5.994,-0.333,0.220688,-0.034942,-0.749050,101830.67
62470,8.327,-7.111,-0.407,0.181312,-0.017382,-0.592077,101834.38
62480,8.361,-8.336,-0.251,0.113201,0.013480,-0.409031,101834.38
62490,8.440,-9.483,0.073,0.016357,0.058177,-0.203105,101833.51
62500,8.449,-10.358,0.775,-0.065587,0.116177,0.030491,101834.07
62510,8.861,-9.881,1.751,-0.117734,0.184819,0.260895,101832.37
62520,10.422,-5.523,2.218,-0.212450,0.226856,0.333794,101832.37
62530,11.052,-0.534,1.509,-0.258211,0.189076,0.220987,101832.64
62540,10.483,2.084,0.474,-0.223624,0.134269,0.139574,101833.83
62551,9.532,2.214,0.119,-0.120395,0.081058,0.165115,101833.52
62560,8.785,1.000,0.371,0.082871,0.031040,0.268344,101832.88
62570,8.526,-0.317,0.993,0.288266,0.002306,0.370509,101836.45
62580,8.904,-1.672,1.379,0.397348,-0.007804,0.428509,101834.48
62590,9.535,-2.851,1.381,0.378724,-0.001951,0.458307,101832.32
62600,10.043,-3.338,0.875,0.260596,0.000709,0.456711,101832.32
62610,10.195,-3.195,0.101,0.095110,-0.008868,0.439152,101832.99
62620,10.009,-2.836,-0.405,-0.041642,-0.023768,0.438619,101832.99
62630,9.764,-2.421,-0.450,-0.106028,-0.047180,0.442876,101834.32
62636,9.564,-2.187,-0.327,-0.118798,-0.069529,0.440748,101830.77
62645,9.396,-2.014,-0.063,-0.115074,-0.090281,0.441280,101832.93
62655,9.285,-1.922,0.317,-0.083147,-0.116887,0.446069,101832.62
62665,9.339,-1.928,0.608,-0.031000,-0.138703,0.455115,101832.62
62675,9.411,-1.995,0.736,0.034981,-0.159988,0.461500,101833.39
62685,9.450,-2.070,0.686,0.096706,-0.181272,0.470014,101831.17
62695,9.435,-2.184,0.465,0.121715,-0.194043,0.481188,101832.83
62705,9.384,-2.296,0.191,0.109477,-0.197235,0.490766,101832.16
62715,9.348,-2.465,-0.047,0.092449,-0.198300,0.499812,101832.16
62725,9.323,-2.620,-0.195,0.080743,-0.192446,0.501408,101833.99
62735,9.284,-2.872,-0.340,0.051477,-0.183400,0.499280,101833.85
62745,9.234,-3.133,-0.367,0.016357,-0.172226,0.507262,101830.65
62755,9.290,-3.231,-0.265,-0.007765,-0.164245,0.515243,101831.48
62765,9.332,-3.124,-0.229,-0.033129,-0.157327,0.511518,101831.48
62775,9.269,-2.977,-0.211,-0.056009,-0.153070,0.507262,101833.72
62785,9.122,-2.912,-0.181,-0.062395,-0.147749,0.507794,101834.14
62795,9.078,-2.935,-0.154,-0.051753,-0.146153,0.514179,101831.50
62804,9.187,-2.960,-0.212,-0.031000,-0.146685,0.519500,101831.66
62815,9.228,-2.990,-0.280,-0.008120,-0.146153,0.525353,101831.66
62825,9.153,-3.134,-0.297,0.012101,-0.145621,0.529078,101835.27
62835,9.070,-3.336,-0.267,0.038174,-0.144024,0.533867,101833.52
62845,9.086,-3.450,-0.263,0.058394,-0.145621,0.532803,101835.31
62855,9.091,-3.446,-0.319,0.059990,-0.149345,0.526950,101833.20
62865,9.018,-3.494,-0.331,0.049880,-0.145621,0.517372,101833.20
62875,8.980,-3.559,-0.373,0.031257,-0.139235,0.512583,101834.64
62885,9.034,-3.682,-0.401,0.015825,-0.135511,0.509922,101834.02
62895,9.030,-3.732,-0.353,0.011036,-0.137107,0.508326,101830.41
62905,8.946,-3.723,-0.375,0.016357,-0.136575,0.505133,101830.36
62915,8.909,-3.712,-0.411,0.015293,-0.137107,0.500344,101830.36
62925,8.920,-3.716,-0.428,0.009440,-0.131254,0.496087,101833.47
62935,8.952,-3.688,-0.412,0.007312,-0.124336,0.490766,101834.61
62945,8.919,-3.720,-0.421,0.021146,-0.121144,0.489170,101831.88
62955,8.886,-3.783,-0.394,0.041899,-0.117951,0.488638,101831.41
62965,8.868,-3.887,-0.485,0.052009,-0.111034,0.482785,101831.41
62976,8.866,-3.987,-0.506,0.046688,-0.102520,0.477463,101834.68
62985,8.761,-3.978,-0.551,0.042431,-0.093474,0.470546,101836.23
62995,8.713,-4.073,-0.537,0.034449,-0.078043,0.461500,101833.45
63005,8.719,-4.136,-0.571,0.017954,-0.065804,0.451922,101832.66
63015,8.801,-4.169,-0.600,-0.003863,-0.050373,0.443941,101832.66
63025,8.847,-4.185,-0.553,-0.023551,-0.033346,0.439684,101836.09
63035,8.771,-4.193,-0.580,-0.024615,-0.020043,0.438087,101830.93
63045,8.642,-4.211,-0.570,-0.013441,-0.013125,0.434363,101832.12
63055,8.598,-4.281,-0.577,-0.002798,-0.007272,0.424785,101833.82
63065,8.617,-4.358,-0.550,-0.003331,0.000177,0.413078,101833.82
63075,8.677,-4.392,-0.515,-0.013441,0.012948,0.399243,101836.38
63085,8.718,-4.413,-0.501,-0.024083,0.029976,0.383812,101836.43
63095,8.716,-4.406,-0.514,-0.027808,0.037957,0.373170,101833.45
63106,8.671,-4.479,-0.488,-0.023551,0.040086,0.363060,101831.34
63111,8.578,-4.495,-0.507,-0.018762,0.040086,0.353482,101831.34
63120,8.551,-4.544,-0.489,-0.014505,0.042746,0.342308,101831.34
63130,8.568,-4.574,-0.419,-0.005459,0.046471,0.329005,101833.50
63140,8.518,-4.676,-0.393,0.010504,0.047535,0.314106,101834.17
63151,8.482,-4.818,-0.470,0.013165,0.052856,0.295482,101832.78
63160,8.467,-4.927,-0.525,-0.003331,0.057645,0.272601,101832.45
63170,8.436,-4.916,-0.520,-0.024615,0.065627,0.248656,101835.02
63180,8.447,-4.880,-0.443,-0.043239,0.073076,0.219922,101835.49
63191,8.482,-4.873,-0.433,-0.056009,0.075737,0.193849,101835.49
63200,8.472,-4.879,-0.383,-0.063991,0.077333,0.170436,101832.24
63210,8.483,-4.841,-0.313,-0.068780,0.077333,0.147555,101833.37
63220,8.493,-4.783,-0.270,-0.074633,0.077333,0.124143,101833.37
63230,8.560,-4.751,-0.274,-0.078358,0.074141,0.104809,101834.13
63240,8.554,-4.751,-0.247,-0.074633,0.068287,0.091152,101834.13
63250,8.540,-4.787,-0.272,-0.068248,0.062434,0.075721,101832.42
63260,8.534,-4.853,-0.301,-0.064523,0.053388,0.060821,101832.06
63270,8.470,-4.864,-0.280,-0.046431,0.038489,0.045922,101832.06
63281,8.386,-4.864,-0.271,-0.020358,0.026783,0.025170,101833.86
63290,8.368,-4.873,-0.298,-0.000138,0.015076,0.001225,101833.27
63300,8.411,-4.908,-0.367,0.009440,0.008159,-0.024316,101830.44
63310,8.469,-4.956,-0.359,0.011036,0.007095,-0.046665,101830.44
63321,8.499,-4.915,-0.331,0.005183,0.008691,-0.069013,101830.44
63330,8.488,-4.897,-0.339,-0.003863,0.011884,-0.089766,101833.28
63340,8.493,-4.852,-0.309,-0.013973,0.015609,-0.109454,101831.06
63350,8.481,-4.811,-0.364,-0.019294,0.017737,-0.127545,101832.98
63361,8.472,-4.822,-0.350,-0.018762,0.017737,-0.142977,101830.30
63371,8.494,-4.782,-0.395,-0.020890,0.017737,-0.155747,101830.30
63380,8.502,-4.721,-0.374,-0.025147,0.017737,-0.166389,101834.79
63390,8.512,-4.664,-0.370,-0.027276,0.018801,-0.176499,101831.73
63400,8.579,-4.586,-0.368,-0.025679,0.018801,-0.183417,101833.55
63411,8.619,-4.497,-0.342,-0.017165,0.018269,-0.185013,101833.55
63420,8.640,-4.455,-0.294,-0.008652,0.018801,-0.182353,101833.12
63430,8.655,-4.424,-0.285,-0.000670,0.017737,-0.175435,101833.12
63440,8.659,-4.403,-0.303,0.001991,0.018269,-0.167454,101832.04
63451,8.678,-4.405,-0.272,-0.001734,0.019333,-0.158408,101832.34
63460,8.675,-4.413,-0.283,-0.009716,0.022526,-0.148830,101833.79
63470,8.676,-4.423,-0.304,-0.024615,0.025719,-0.138720,101833.79
63480,8.716,-4.384,-0.286,-0.041642,0.028911,-0.127013,101832.94
63491,8.713,-4.311,-0.309,-0.053349,0.031572,-0.115839,101833.72
63501,8.690,-4.270,-0.297,-0.058670,0.031572,-0.104133,101832.63
63510,8.700,-4.319,-0.326,-0.060798,0.031040,-0.089233,101832.63
63520,8.688,-4.314,-0.282,-0.055477,0.032104,-0.074334,101832.69
63531,8.682,-4.276,-0.312,-0.047496,0.028911,-0.063692,101834.28
63541,8.678,-4.251,-0.324,-0.035257,0.023590,-0.050922,101833.77
63550,8.718,-4.240,-0.310,-0.021422,0.018269,-0.038683,101833.77
63560,8.718,-4.294,-0.254,-0.005459,0.012416,-0.029637,101834.03
63570,8.712,-4.326,-0.233,0.006247,0.007095,-0.022188,101834.03
63581,8.700,-4.348,-0.255,0.012101,0.002838,-0.016334,101835.70
63586,8.695,-4.368,-0.246,0.013165,-0.001419,-0.012610,101829.97
63595,8.727,-4.378,-0.212,0.014229,-0.006740,-0.009949,101832.92
63605,8.720,-4.406,-0.212,0.011569,-0.012061,-0.007821,101831.27
63616,8.733,-4.388,-0.203,0.006247,-0.017914,-0.003564,101831.27
63626,8.734,-4.386,-0.210,-0.002266,-0.022171,-0.004096,101833.81
63635,8.701,-4.393,-0.227,-0.015037,-0.028024,-0.000371,101834.08
63645,8.676,-4.396,-0.193,-0.025147,-0.031217,0.004950,101835.11
63655,8.670,-4.376,-0.239,-0.029404,-0.037070,0.006546,101830.11
63666,8.706,-4.368,-0.254,-0.034725,-0.043456,0.008143,101830.11
63675,8.702,-4.361,-0.269,-0.038450,-0.048777,0.009739,101833.81
63685,8.680,-4.352,-0.269,-0.035257,-0.054098,0.010803,101832.88
63695,8.670,-4.396,-0.277,-0.032064,-0.058355,0.011867,101834.69
63706,8.677,-4.396,-0.301,-0.026921,-0.061725,0.010094,101831.69
63715,8.688,-4.423,-0.334,-0.022487,-0.065804,0.009207,101831.69
63725,8.673,-4.404,-0.369,-0.020890,-0.066336,0.008675,101836.70
63735,8.661,-4.398,-0.398,-0.018230,-0.067933,0.006014,101835.30
63746,8.678,-4.375,-0.376,-0.016633,-0.067933,0.007611,101834.57
63756,8.682,-4.405,-0.393,-0.017165,-0.067401,0.005482,101831.84
63765,8.666,-4.406,-0.403,-0.015037,-0.066336,0.004950,101831.84
63775,8.670,-4.387,-0.425,-0.015037,-0.064740,0.004950,101834.30
63785,8.675,-4.394,-0.446,-0.014505,-0.062612,0.003354,101833.47
63796,8.671,-4.428,-0.440,-0.014505,-0.059419,0.003354,101833.89
63805,8.664,-4.433,-0.467,-0.016633,-0.055694,0.002289,101831.72
63815,8.666,-4.435,-0.484,-0.018762,-0.050373,-0.000903,101831.72
63825,8.642,-4.464,-0.492,-0.020890,-0.045052,-0.005160,101835.05
63836,8.647,-4.429,-0.502,-0.024083,-0.040263,-0.012610,101834.74
63845,8.654,-4.424,-0.507,-0.024615,-0.034410,-0.018463,101830.05
63855,8.598,-4.435,-0.519,-0.023019,-0.030153,-0.023784,101832.63
63865,8.572,-4.421,-0.533,-0.023551,-0.024832,-0.028041,101832.63
63876,8.623,-4.413,-0.541,-0.024083,-0.020575,-0.032298,101838.51
63886,8.628,-4.397,-0.558,-0.023019,-0.015786,-0.035490,101834.12
63895,8.685,-4.390,-0.574,-0.021422,-0.009933,-0.037619,101832.37
63905,8.678,-4.354,-0.543,-0.018230,-0.004080,-0.039215,101830.51
63916,8.682,-4.366,-0.532,-0.015569,0.002838,-0.038683,101830.51
63926,8.695,-4.355,-0.517,-0.013441,0.007627,-0.039747,101833.02
63935,8.713,-4.404,-0.522,-0.013441,0.013480,-0.040811,101833.58
63945,8.731,-4.380,-0.471,-0.015569,0.020930,-0.040811,101832.86
63955,8.709,-4.375,-0.508,-0.017165,0.025187,-0.041344,101833.38
63966,8.706,-4.366,-0.491,-0.019294,0.029443,-0.044536,101833.38
63975,8.685,-4.284,-0.460,-0.019826,0.031040,-0.046133,101832.24
63985,8.677,-4.311,-0.477,-0.020358,0.033700,-0.046665,101835.80
63995,8.672,-4.355,-0.480,-0.019826,0.035829,-0.043472,101831.73
64006,8.670,-4.299,-0.422,-0.017698,0.036893,-0.040279,101832.04
64015,8.652,-4.263,-0.449,-0.012909,0.036361,-0.038683,101832.04
64025,8.679,-4.284,-0.459,-0.010248,0.036361,-0.034426,101835.45
64035,8.724,-4.254,-0.459,-0.007587,0.037425,-0.030701,101831.69
64046,8.746,-4.282,-0.480,-0.004927,0.040618,-0.026445,101832.25
64056,8.730,-4.289,-0.462,-0.003331,0.042746,-0.023784,101832.61
64065,8.713,-4.277,-0.415,-0.003863,0.046471,-0.019527,101832.61
64075,8.707,-4.285,-0.450,-0.005459,0.050196,-0.015802,101835.74
64086,8.716,-4.278,-0.427,-0.009184,0.053920,-0.013142,101835.02
64096,8.727,-4.282,-0.425,-0.010780,0.058177,-0.009949,101830.23
64105,8.725,-4.266,-0.446,-0.010248,0.061370,-0.007821,101832.80
64115,8.739,-4.240,-0.422,-0.009716,0.064563,-0.003564,101832.80
64125,8.738,-4.249,-0.422,-0.005991,0.065095,0.001225,101833.40
64136,8.718,-4.252,-0.397,-0.000670,0.066159,0.002822,101834.38
64146,8.720,-4.254,-0.393,0.006247,0.068820,0.006014,101832.57
64155,8.731,-4.267,-0.386,0.008376,0.069352,0.009739,101829.74
64165,8.719,-4.260,-0.409,0.011036,0.071480,0.011867,101829.74
64176,8.703,-4.273,-0.364,0.012633,0.072544,0.013996,101833.27
64181,8.692,-4.275,-0.342,0.014229,0.073076,0.016124,101832.85
64190,8.695,-4.287,-0.318,0.015293,0.072544,0.019849,101832.85
64200,8.718,-4.277,-0.342,0.016357,0.074141,0.018785,101832.54
64210,8.773,-4.294,-0.330,0.017954,0.076801,0.019317,101829.15
64221,8.752,-4.322,-0.369,0.020082,0.077333,0.018253,101829.15
64231,8.719,-4.324,-0.325,0.020082,0.078930,0.018253,101833.13
64240,8.703,-4.322,-0.286,0.019550,0.080526,0.018253,101832.15
64250,8.698,-4.328,-0.272,0.016890,0.081058,0.016124,101831.02
64261,8.712,-4.342,-0.296,0.015293,0.081058,0.017188,101831.02
64271,8.720,-4.285,-0.266,0.015825,0.081058,0.018253,101831.02
64280,8.742,-4.303,-0.266,0.016890,0.079994,0.018785,101832.83
64290,8.739,-4.307,-0.224,0.021146,0.077865,0.016124,101832.72
64301,8.744,-4.315,-0.218,0.026468,0.075737,0.016656,101832.94
64311,8.733,-4.354,-0.203,0.029128,0.073076,0.013996,101830.41
64320,8.726,-4.356,-0.160,0.028596,0.070416,0.012399,101830.41
64330,8.706,-4.319,-0.142,0.029128,0.067755,0.010271,101832.62
64340,8.713,-4.311,-0.108,0.032321,0.062966,0.009207,101833.23
64351,8.721,-4.322,-0.132,0.038706,0.057113,0.008675,101833.13
64361,8.702,-4.338,-0.118,0.040302,0.051260,0.006014,101833.13
64371,8.720,-4.358,-0.114,0.041367,0.045939,0.003886,101834.07
64380,8.726,-4.364,-0.130,0.038174,0.042214,0.002289,101834.07
64391,8.768,-4.344,-0.146,0.033385,0.038489,0.001757,101832.01
64401,8.748,-4.328,-0.109,0.029128,0.037957,0.000161,101830.77
64410,8.750,-4.313,-0.127,0.028596,0.035829,0.000161,101832.48
64420,8.726,-4.311,-0.106,0.030724,0.032636,0.000161,101832.48
64431,8.716,-4.303,-0.116,0.031789,0.029976,0.000693,101832.88
64441,8.724,-4.300,-0.121,0.029128,0.028911,0.001225,101833.15
64451,8.740,-4.327,-0.170,0.024871,0.027847,0.002822,101832.27
64460,8.726,-4.342,-0.185,0.020082,0.029443,0.003886,101831.27
64471,8.715,-4.302,-0.191,0.015825,0.030508,0.003354,101832.39
64481,8.719,-4.293,-0.193,0.015825,0.031040,0.004418,101834.20
64491,8.724,-4.282,-0.128,0.019018,0.029976,0.006546,101829.77
64500,8.713,-4.217,-0.082,0.023807,0.029976,0.009207,101829.77
64510,8.697,-4.215,-0.116,0.032321,0.031040,0.012399,101830.17
64521,8.703,-4.272,-0.127,0.039238,0.031572,0.017188,101830.17
64531,8.727,-4.348,-0.174,0.041367,0.031572,0.017721,101835.82
64536,8.724,-4.409,-0.234,0.039770,0.033700,0.017188,101831.85
64545,8.715,-4.396,-0.204,0.034449,0.036893,0.016656,101832.77
64556,8.698,-4.381,-0.185,0.028064,0.040086,0.013996,101830.46
64566,8.707,-4.360,-0.150,0.023275,0.044875,0.013996,101830.46
64576,8.698,-4.320,-0.131,0.019018,0.048067,0.011867,101834.72
64585,8.704,-4.309,-0.101,0.018486,0.052856,0.012932,101835.39
64595,8.714,-4.327,-0.103,0.019550,0.054453,0.014528,101831.47
64606,8.726,-4.320,-0.090,0.021146,0.056049,0.016124,101831.52
64616,8.716,-4.327,-0.095,0.021146,0.059242,0.018785,101831.52
64625,8.696,-4.344,-0.107,0.018486,0.063498,0.019317,101834.03
64635,8.690,-4.339,-0.096,0.015293,0.067755,0.019849,101833.31
64646,8.706,-4.342,-0.085,0.014229,0.070416,0.020381,101831.45
64656,8.718,-4.298,-0.059,0.018841,0.073076,0.020026,101834.08
64665,8.730,-4.325,-0.059,0.024871,0.074673,0.019317,101834.08
64675,8.726,-4.338,-0.040,0.029660,0.075205,0.017721,101834.00
64686,8.678,-4.369,-0.020,0.033385,0.077865,0.017721,101831.22
64696,8.678,-4.381,-0.037,0.031789,0.078930,0.016656,101832.16
64706,8.670,-4.358,-0.046,0.027000,0.082654,0.014528,101830.55
64715,8.685,-4.375,-0.052,0.022743,0.085847,0.014528,101830.55
64726,8.694,-4.350,-0.059,0.017422,0.090104,0.014528,101833.75
64736,8.704,-4.350,-0.015,0.013697,0.094361,0.015592,101830.05
64746,8.707,-4.321,0.001,0.012633,0.097021,0.016656,101830.66
64755,8.706,-4.312,0.018,0.014229,0.100214,0.018253,101831.84
64765,8.702,-4.328,-0.011,0.015825,0.103407,0.022510,101831.84
64776,8.695,-4.344,0.050,0.016890,0.104471,0.024106,101833.70
64786,8.701,-4.336,0.057,0.021679,0.106599,0.025170,101829.22
64796,8.697,-4.373,0.050,0.023275,0.108196,0.025702,101830.97
64805,8.698,-4.351,0.083,0.023807,0.110324,0.027299,101831.22
64816,8.698,-4.354,0.091,0.024871,0.110324,0.028363,101831.22
64826,8.692,-4.333,0.150,0.029660,0.107664,0.030491,101832.95
64836,8.713,-4.338,0.167,0.031789,0.104471,0.032088,101831.70
64845,8.704,-4.380,0.165,0.031257,0.103939,0.033684,101831.66
64856,8.730,-4.399,0.179,0.025403,0.104471,0.035280,101831.61
64866,8.714,-4.418,0.125,0.014761,0.107664,0.035280,101831.61
64876,8.697,-4.411,0.173,0.002523,0.111920,0.037409,101834.13
64885,8.707,-4.390,0.183,-0.008652,0.114581,0.036877,101832.02
64896,8.704,-4.399,0.180,-0.015037,0.117242,0.036344,101833.30
64906,8.703,-4.410,0.202,-0.018230,0.119902,0.036877,101829.59
64916,8.703,-4.396,0.256,-0.016633,0.120966,0.037409,101829.59
64926,8.716,-4.399,0.263,-0.012376,0.120966,0.035812,101834.52
64935,8.675,-4.384,0.274,-0.007055,0.122031,0.034216,101833.18
64946,8.690,-4.406,0.246,-0.002266,0.120966,0.031023,101831.63
64956,8.676,-4.416,0.250,0.001991,0.120966,0.031023,101832.26
64966,8.640,-4.407,0.238,0.004651,0.120966,0.028363,101832.26
64975,8.676,-4.404,0.229,0.005715,0.122563,0.027831,101831.59
64986,8.688,-4.418,0.262,0.005715,0.124159,0.024106,101833.13
64996,8.680,-4.422,0.305,0.006247,0.125755,0.022510,101829.62
65006,8.653,-4.410,0.322,0.008376,0.127352,0.021445,101831.21
65015,8.673,-4.394,0.318,0.010504,0.128416,0.018785,101831.21
65026,8.669,-4.398,0.346,0.012633,0.128948,0.018253,101834.44
65036,8.642,-4.411,0.347,0.014229,0.128948,0.017721,101834.23
65046,8.655,-4.417,0.378,0.017422,0.129480,0.018253,101830.77
65056,8.660,-4.425,0.404,0.021146,0.129480,0.017721,101833.45
65065,8.670,-4.407,0.372,0.023807,0.127884,0.017188,101833.45
65076,8.696,-4.435,0.374,0.023807,0.128416,0.016656,101834.52
65086,8.679,-4.422,0.390,0.024339,0.128416,0.015592,101831.79
65096,8.649,-4.436,0.416,0.023807,0.126820,0.015060,101831.02
65105,8.649,-4.407,0.446,0.024339,0.124159,0.014528,101831.65
65116,8.672,-4.410,0.489,0.024871,0.122031,0.014528,101831.65
65126,8.686,-4.400,0.518,0.025403,0.117774,0.016124,101832.74
65136,8.684,-4.398,0.544,0.026468,0.113517,0.016656,101832.43
65145,8.703,-4.404,0.566,0.028064,0.109260,0.017188,101830.74
65156,8.673,-4.417,0.595,0.031257,0.103939,0.017721,101831.66
65166,8.677,-4.433,0.599,0.029128,0.097553,0.017721,101831.66
65176,8.689,-4.442,0.616,0.025403,0.093297,0.016124,101833.87
65185,8.663,-4.454,0.599,0.017954,0.090636,0.017721,101832.38
65196,8.672,-4.410,0.596,0.012101,0.086911,0.017188,101831.20
65206,8.649,-4.399,0.626,0.009440,0.081058,0.017721,101832.12
65216,8.649,-4.415,0.605,0.008908,0.075205,0.017721,101832.12
65226,8.663,-4.431,0.644,0.009972,0.068287,0.018785,101836.34
65235,8.678,-4.443,0.633,0.013697,0.062434,0.019317,101834.34
65246,8.665,-4.447,0.686,0.015293,0.054985,0.016124,101831.91
65252,8.647,-4.440,0.662,0.016357,0.049664,0.015060,101833.76
65261,8.671,-4.441,0.677,0.017954,0.045939,0.012932,101833.76
65270,8.678,-4.454,0.669,0.014229,0.042746,0.011867,101833.76
65281,8.677,-4.449,0.670,0.012633,0.037425,0.010271,101831.56
65291,8.652,-4.453,0.650,0.008908,0.034765,0.009207,101834.08
65301,8.642,-4.473,0.647,0.003587,0.031040,0.010271,101830.78
65311,8.623,-4.448,0.645,-0.000670,0.027847,0.010271,101830.78
65321,8.642,-4.425,0.617,-0.002798,0.024654,0.009739,101833.70
65331,8.664,-4.430,0.645,-0.004927,0.021994,0.010271,101833.70
65341,8.670,-4.436,0.631,-0.004395,0.018801,0.009739,101832.05
65351,8.666,-4.437,0.666,-0.002798,0.017205,0.009207,101829.83
65360,8.667,-4.458,0.650,-0.001202,0.015609,0.007078,101830.19
65371,8.664,-4.458,0.611,-0.000138,0.014544,0.006546,101830.19
65381,8.657,-4.467,0.637,-0.000670,0.012948,0.006014,101834.35
65391,8.640,-4.467,0.607,-0.002266,0.012948,0.005482,101832.40
65401,8.642,-4.451,0.604,-0.002798,0.011884,0.004418,101832.04
65412,8.676,-4.445,0.597,-0.002266,0.011352,0.004418,101831.65
65421,8.659,-4.425,0.653,-0.001202,0.011352,0.003886,101833.98
65431,8.659,-4.449,0.651,-0.000138,0.011352,0.004418,101832.12
65441,8.636,-4.441,0.625,-0.000670,0.011884,0.003354,101832.05
65451,8.635,-4.439,0.599,-0.001734,0.012948,0.003354,101832.05
65461,8.642,-4.448,0.628,-0.000670,0.012948,0.001225,101830.10
65471,8.640,-4.429,0.599,-0.000138,0.012416,0.000161,101830.10
65481,8.641,-4.464,0.629,-0.001734,0.012416,0.000161,101832.84
65490,8.658,-4.440,0.614,-0.001202,0.012948,0.000161,101833.15
65501,8.629,-4.428,0.642,-0.002798,0.012948,0.000693,101831.45
65511,8.657,-4.396,0.610,-0.001202,0.012948,0.002822,101828.76
65521,8.667,-4.416,0.614,-0.001202,0.012416,0.004950,101828.76
65531,8.670,-4.424,0.639,-0.000670,0.012948,0.007611,101832.73
65541,8.667,-4.422,0.641,0.000394,0.012416,0.009739,101830.01
65551,8.648,-4.434,0.631,0.002523,0.011884,0.011867,101827.74
65561,8.642,-4.401,0.668,0.004119,0.011352,0.014528,101827.74
65571,8.660,-4.415,0.654,0.003587,0.009755,0.015592,101827.74
65581,8.657,-4.452,0.665,0.003587,0.009223,0.014528,101833.98
65591,8.652,-4.477,0.631,0.004119,0.008159,0.012399,101832.43
65601,8.628,-4.464,0.647,0.002523,0.007095,0.011867,101832.16
65606,8.645,-4.471,0.681,0.000394,0.007095,0.010803,101830.30
65615,8.622,-4.452,0.665,-0.001202,0.007627,0.008675,101830.30
65626,8.622,-4.457,0.608,-0.003331,0.008159,0.008143,101833.43
65636,8.663,-4.425,0.592,-0.005459,0.009223,0.008143,101831.52
65646,8.655,-4.418,0.627,-0.003863,0.009223,0.010803,101833.74
65656,8.667,-4.430,0.652,-0.004927,0.009223,0.012932,101831.57
65666,8.645,-4.434,0.645,-0.001734,0.010287,0.014528,101831.57
65676,8.631,-4.442,0.662,0.001991,0.008159,0.016124,101832.92
65686,8.641,-4.467,0.720,0.003587,0.007095,0.015060,101830.80
65696,8.645,-4.490,0.693,0.005715,0.006031,0.013464,101832.30
65705,8.648,-4.497,0.665,0.005715,0.005498,0.011867,101831.22
65716,8.660,-4.486,0.683,0.005183,0.004434,0.008143,101831.22
65726,8.665,-4.483,0.706,0.003942,0.003193,0.005127,101831.30
65736,8.635,-4.461,0.701,0.001458,0.002838,0.001757,101834.60
65746,8.628,-4.463,0.696,-0.000670,0.001774,0.001225,101831.66
65756,8.617,-4.448,0.681,-0.003331,0.000177,0.001757,101831.04
65766,8.643,-4.435,0.686,-0.004395,-0.000887,0.000161,101831.04
65776,8.654,-4.424,0.701,-0.004395,-0.003015,0.002822,101833.19
65786,8.671,-4.435,0.733,-0.003331,-0.004612,0.002289,101832.52
65796,8.670,-4.433,0.707,-0.001734,-0.006208,0.002289,101830.52
65806,8.642,-4.429,0.695,0.000394,-0.007272,0.003886,101833.66
65816,8.648,-4.449,0.694,-0.000670,-0.009401,0.004418,101833.66
65826,8.624,-4.481,0.692,-0.001734,-0.010465,0.004418,101833.74
65837,8.637,-4.471,0.680,-0.002798,-0.011529,0.002822,101829.91
65846,8.661,-4.464,0.652,-0.003863,-0.011529,0.002289,101830.23
65856,8.652,-4.473,0.654,-0.005991,-0.012061,0.003354,101829.40
65866,8.647,-4.457,0.629,-0.006523,-0.013125,0.001757,101829.40
65876,8.634,-4.428,0.672,-0.004927,-0.012593,0.002822,101831.51
65886,8.631,-4.418,0.671,-0.004395,-0.014722,0.001757,101833.16
65896,8.641,-4.436,0.651,-0.002798,-0.014722,0.001225,101833.16
65906,8.645,-4.435,0.646,-0.001734,-0.015786,0.001757,101834.87
65916,8.648,-4.446,0.638,-0.002266,-0.015786,0.001757,101834.87
65926,8.633,-4.457,0.642,-0.002266,-0.014722,0.001225,101833.95
65936,8.637,-4.465,0.666,-0.003331,-0.015254,0.000693,101835.50
65946,8.629,-4.485,0.651,-0.006523,-0.014190,0.000693,101829.22
65956,8.633,-4.465,0.637,-0.007587,-0.013125,0.001757,101830.50
65966,8.667,-4.433,0.615,-0.007055,-0.010997,0.002289,101830.50
65976,8.659,-4.445,0.637,-0.007055,-0.009401,0.001757,101832.25
65986,8.661,-4.453,0.633,-0.004927,-0.009401,0.003354,101832.61
65996,8.645,-4.458,0.603,-0.004395,-0.007272,0.004418,101832.14
66007,8.633,-4.440,0.622,-0.003331,-0.006740,0.004950,101828.02
66016,8.631,-4.440,0.645,-0.003863,-0.006208,0.005482,101828.02
66026,8.639,-4.433,0.599,-0.003863,-0.003547,0.005482,101833.98
66036,8.660,-4.439,0.602,-0.003331,-0.003547,0.005482,101833.02
66046,8.658,-4.458,0.610,-0.001734,-0.001419,0.004950,101832.30
66056,8.663,-4.453,0.629,-0.002266,-0.000355,0.006546,101830.95
66066,8.649,-4.437,0.601,-0.000670,0.000709,0.008143,101830.95
66076,8.617,-4.437,0.626,-0.002266,0.003902,0.009739,101835.48
66086,8.625,-4.433,0.620,-0.004395,0.004434,0.011867,101833.68
66096,8.658,-4.452,0.626,-0.003863,0.007627,0.011867,101833.01
66106,8.649,-4.446,0.607,-0.003331,0.009223,0.015060,101829.40
66116,8.630,-4.454,0.617,-0.002266,0.009755,0.016124,101829.40
66126,8.633,-4.445,0.614,-0.001202,0.011884,0.017721,101832.98
66137,8.640,-4.439,0.610,0.000394,0.013480,0.018785,101833.75
66146,8.653,-4.429,0.628,0.000394,0.014544,0.019849,101832.67
66156,8.647,-4.422,0.587,0.000394,0.014544,0.019317,101830.77
66166,8.622,-4.455,0.623,0.001458,0.016673,0.020381,101830.77
66177,8.642,-4.464,0.654,0.002523,0.016673,0.020913,101833.03
66186,8.649,-4.445,0.653,0.003587,0.016673,0.020913,101833.91
66196,8.637,-4.470,0.664,0.002523,0.017205,0.021977,101833.91
66202,8.633,-4.473,0.676,0.002523,0.017737,0.020381,101831.53
66211,8.640,-4.476,0.669,0.004119,0.016673,0.020913,101831.53
66221,8.647,-4.467,0.669,0.005183,0.015609,0.021977,101831.53
66232,8.627,-4.452,0.650,0.008376,0.015076,0.020913,101833.06
66241,8.600,-4.491,0.687,0.007844,0.011884,0.018785,101831.78
66251,8.601,-4.494,0.712,0.006780,0.012948,0.017721,101830.69
66262,8.609,-4.506,0.692,0.005183,0.010287,0.014528,101830.69
66272,8.629,-4.501,0.676,0.005183,0.009223,0.012932,101832.38
66281,8.624,-4.508,0.681,0.002523,0.008691,0.007611,101832.38
66291,8.624,-4.485,0.717,0.000394,0.007095,0.004950,101833.20
66301,8.639,-4.478,0.706,0.001991,0.003370,0.003354,101833.41
66312,8.649,-4.481,0.730,0.004119,0.001774,0.000693,101831.56
66321,8.622,-4.495,0.727,0.004651,-0.002483,-0.000371,101831.56
66331,8.639,-4.466,0.754,0.003055,-0.004612,-0.002500,101833.58
66341,8.631,-4.479,0.716,0.001991,-0.007272,-0.003564,101833.36
66352,8.646,-4.482,0.699,0.000394,-0.010465,-0.005692,101832.53
66362,8.627,-4.501,0.711,-0.002798,-0.013125,-0.006756,101831.70
66371,8.634,-4.491,0.699,-0.004395,-0.015786,-0.007821,101833.09
66381,8.664,-4.483,0.723,-0.003331,-0.018446,-0.008353,101831.34
66392,8.665,-4.482,0.710,-0.002798,-0.022171,-0.009417,101830.98
66401,8.648,-4.481,0.738,-0.004927,-0.024300,-0.009949,101830.98
66411,8.621,-4.439,0.696,-0.007055,-0.026428,-0.008353,101831.59
66421,8.633,-4.430,0.688,-0.007055,-0.028024,-0.006224,101831.59
66432,8.653,-4.448,0.669,-0.006523,-0.028024,-0.004628,101831.47
66442,8.654,-4.430,0.687,-0.005991,-0.029621,-0.003564,101833.78
66451,8.629,-4.458,0.639,-0.007587,-0.029089,0.000693,101835.13
66461,8.641,-4.448,0.674,-0.009184,-0.026428,0.002822,101831.94
66471,8.634,-4.434,0.623,-0.008120,-0.025896,0.005482,101831.94
66482,8.641,-4.463,0.627,-0.007055,-0.024832,0.006014,101830.70
66492,8.629,-4.435,0.621,-0.005459,-0.023768,0.006546,101831.19
66501,8.658,-4.473,0.617,-0.003331,-0.022171,0.005482,101831.30
66511,8.619,-4.483,0.593,-0.002266,-0.021107,0.004950,101831.30
66522,8.615,-4.467,0.593,-0.003331,-0.017914,0.004950,101831.30
66531,8.607,-4.472,0.592,-0.003331,-0.015254,0.006546,101834.80
66541,8.594,-4.429,0.591,-0.003863,-0.012593,0.006546,101831.34
66551,8.610,-4.433,0.592,-0.003331,-0.009933,0.008143,101830.88
66562,8.630,-4.441,0.629,0.001458,-0.008868,0.008675,101831.34
66571,8.610,-4.458,0.616,0.006247,-0.007272,0.008143,101831.34
66581,8.623,-4.485,0.599,0.007844,-0.006208,0.009207,101833.86
66591,8.641,-4.478,0.595,0.005715,-0.002483,0.008143,101831.55
66601,8.645,-4.471,0.587,0.000394,0.000709,0.007611,101832.45
66612,8.646,-4.475,0.615,-0.002798,0.004434,0.007078,101832.45
66622,8.624,-4.458,0.621,-0.002798,0.006031,0.006014,101836.18
66631,8.622,-4.461,0.592,-0.002266,0.007095,0.008143,101832.84
66641,8.625,-4.453,0.639,-0.000670,0.007095,0.007611,101832.84
66652,8.635,-4.423,0.620,-0.000138,0.007627,0.007611,101832.16
66661,8.628,-4.443,0.628,0.004119,0.006563,0.008675,101832.37
66671,8.631,-4.440,0.674,0.007844,0.004966,0.008675,101832.37
66681,8.641,-4.467,0.652,0.011569,0.002838,0.008675,101835.06
66692,8.609,-4.492,0.660,0.012101,0.000177,0.008675,101834.23
66702,8.618,-4.498,0.677,0.011036,0.000177,0.005482,101831.81
66711,8.625,-4.509,0.663,0.005715,0.001242,0.002822,101831.50
66721,8.637,-4.501,0.660,-0.002266,0.000709,0.001225,101831.90
66732,8.646,-4.477,0.656,-0.005459,0.000709,0.000161,101833.02
66742,8.658,-4.459,0.669,-0.006523,0.000177,-0.000371,101829.98
66751,8.640,-4.484,0.653,-0.007055,-0.000355,-0.000903,101829.98
66761,8.609,-4.479,0.634,-0.005991,-0.000887,-0.002500,101829.21
66771,8.633,-4.490,0.634,-0.005991,-0.001419,-0.002500,101829.21
66782,8.627,-4.482,0.644,-0.004395,-0.001419,-0.003032,101833.70
66791,8.631,-4.471,0.648,-0.003863,-0.000355,-0.004628,101830.97
66801,8.627,-4.467,0.611,-0.002798,-0.001419,-0.004096,101829.98
66811,8.623,-4.443,0.635,-0.000670,-0.001951,-0.003032,101830.08
66822,8.636,-4.463,0.617,-0.000138,-0.001951,-0.001967,101830.08
66832,8.643,-4.459,0.652,-0.002266,-0.001951,-0.001435,101830.73
66841,8.683,-4.431,0.620,-0.003863,-0.001419,0.000693,101833.41
66851,8.659,-4.394,0.652,-0.004927,-0.000887,0.006546,101831.66
66862,8.647,-4.387,0.666,-0.003863,-0.000887,0.010271,101831.66
66872,8.633,-4.392,0.627,-0.001202,-0.001951,0.013996,101831.66
66881,8.640,-4.430,0.653,0.000926,-0.003015,0.016124,101832.59
66891,8.639,-4.447,0.650,0.005183,-0.003547,0.016656,101832.75
66902,8.648,-4.501,0.631,0.005715,-0.003547,0.014528,101832.13
66912,8.633,-4.513,0.642,0.004651,-0.003547,0.011335,101831.47
66921,8.624,-4.536,0.641,0.000926,-0.003547,0.007611,101831.47
66931,8.600,-4.521,0.639,-0.003863,-0.002483,0.003886,101833.64
66941,8.617,-4.498,0.602,-0.006523,-0.002483,0.000161,101831.89
66952,8.619,-4.447,0.634,-0.007587,-0.000887,-0.000371,101829.67
66962,8.617,-4.452,0.622,-0.008120,0.000177,-0.000903,101829.95
66971,8.628,-4.489,0.611,-0.006523,0.001774,-0.000903,101832.47
66981,8.616,-4.436,0.631,-0.005991,0.003902,0.000161,101833.61
66992,8.631,-4.441,0.626,-0.002798,0.004966,0.001757,101833.61
67002,8.627,-4.448,0.642,0.001458,0.003902,0.002289,101831.08
67011,8.630,-4.466,0.639,0.005715,0.003370,0.002822,101831.28
67021,8.628,-4.500,0.658,0.006247,0.002838,0.002289,101831.28
67032,8.648,-4.500,0.645,0.003587,0.002838,0.001757,101833.55
67042,8.669,-4.461,0.668,-0.001202,0.001774,0.000693,101830.45
67052,8.690,-4.405,0.663,-0.004395,0.001242,0.002289,101830.09
67061,8.673,-4.368,0.652,-0.004927,0.000177,0.006546,101828.91
67072,8.642,-4.391,0.671,-0.000138,-0.003547,0.011335,101828.91
67082,8.641,-4.393,0.722,0.007844,-0.007804,0.017188,101832.55
67092,8.636,-4.429,0.705,0.015825,-0.012593,0.019317,101830.82
67101,8.629,-4.491,0.671,0.019550,-0.016850,0.020381,101830.87
67111,8.645,-4.531,0.696,0.016890,-0.017914,0.018253,101830.87
67122,8.624,-4.543,0.648,0.007312,-0.017382,0.016124,101830.87
67132,8.642,-4.527,0.626,-0.002798,-0.017382,0.012932,101832.41
67141,8.641,-4.506,0.663,-0.008652,-0.018979,0.010803,101832.68
67152,8.632,-4.466,0.667,-0.009893,-0.020220,0.007965,101830.95
67162,8.647,-4.453,0.675,-0.005459,-0.022703,0.007078,101830.95
67172,8.645,-4.435,0.678,-0.000138,-0.024832,0.006014,101830.95
67182,8.661,-4.427,0.658,0.005183,-0.025896,0.007611,101833.38
67191,8.655,-4.453,0.650,0.009440,-0.028024,0.009207,101832.46
67202,8.630,-4.466,0.635,0.012633,-0.029089,0.010271,101831.52
67212,8.636,-4.491,0.613,0.012101,-0.029621,0.009739,101831.52
67222,8.631,-4.500,0.617,0.006247,-0.028024,0.010271,101832.83
67231,8.619,-4.489,0.621,0.001991,-0.026960,0.009739,101832.83
67241,8.619,-4.482,0.619,-0.000670,-0.028024,0.009207,101832.77
67252,8.634,-4.495,0.644,-0.002798,-0.028557,0.007611,101834.06
67262,8.636,-4.471,0.633,-0.002798,-0.031217,0.007611,101831.59
67272,8.631,-4.500,0.607,0.000749,-0.032991,0.006546,101833.38
67281,8.618,-4.476,0.626,0.003587,-0.034410,0.006014,101833.38
67292,8.629,-4.465,0.634,0.007844,-0.038667,0.004950,101834.48
67302,8.639,-4.496,0.641,0.010504,-0.041327,0.004418,101832.51
67312,8.641,-4.482,0.641,0.011569,-0.043456,0.003886,101830.80
67321,8.634,-4.495,0.619,0.007844,-0.043988,0.001757,101833.56
67332,8.640,-4.485,0.623,0.003055,-0.046116,0.000161,101831.86
67342,8.670,-4.498,0.621,-0.002798,-0.045052,0.000161,101831.95
67351,8.641,-4.498,0.592,-0.005991,-0.046116,-0.000903,101831.95
67361,8.630,-4.479,0.592,-0.009184,-0.045052,-0.003032,101831.13
67372,8.622,-4.490,0.584,-0.010780,-0.042924,-0.003564,101831.13
67382,8.628,-4.478,0.574,-0.012909,-0.041859,-0.004628,101836.09
67392,8.635,-4.479,0.543,-0.014505,-0.041859,-0.005692,101831.45
67401,8.654,-4.469,0.528,-0.015569,-0.039199,-0.004096,101831.70
67411,8.642,-4.485,0.501,-0.015037,-0.038667,-0.004628,101832.38
67422,8.617,-4.469,0.514,-0.013973,-0.036538,-0.005160,101832.38
67432,8.607,-4.463,0.525,-0.012376,-0.033878,-0.004628,101833.05
67442,8.629,-4.458,0.530,-0.012376,-0.030153,-0.002500,101831.35
67451,8.655,-4.436,0.513,-0.011844,-0.027492,-0.001967,101830.63
67462,8.640,-4.448,0.481,-0.011312,-0.024300,-0.000903,101830.63
67472,8.616,-4.492,0.506,-0.011312,-0.021639,-0.000903,101830.63
67482,8.596,-4.488,0.470,-0.010248,-0.016318,-0.001967,101832.68
67491,8.598,-4.490,0.471,-0.010248,-0.012061,-0.000903,101835.68
67502,8.617,-4.478,0.451,-0.011312,-0.006208,-0.000371,101830.57
67507,8.601,-4.473,0.449,-0.012376,-0.002483,-0.000903,101829.54
67517,8.631,-4.467,0.444,-0.012909,0.003902,-0.000371,101829.54
67526,8.630,-4.463,0.438,-0.013441,0.009755,-0.001435,101831.81
67536,8.636,-4.471,0.444,-0.009184,0.014544,-0.001967,101832.84
67547,8.631,-4.452,0.498,-0.003331,0.019333,-0.002500,101835.28
67557,8.627,-4.445,0.492,0.003055,0.022526,-0.004096,101828.98
67566,8.633,-4.439,0.500,0.008376,0.026251,-0.004096,101828.98
67576,8.643,-4.473,0.488,0.008908,0.031040,-0.004096,101834.87
67587,8.645,-4.452,0.508,0.006780,0.033700,-0.003564,101831.16
67597,8.654,-4.448,0.524,0.005183,0.039021,-0.002500,101830.85
67607,8.645,-4.459,0.528,0.000926,0.042746,-0.001435,101831.21
67616,8.654,-4.437,0.538,-0.000670,0.044342,-0.001435,101831.21
67628,8.636,-4.437,0.575,-0.001025,0.045761,-0.000549,101831.68
67637,8.636,-4.435,0.623,-0.000138,0.043810,0.000693,101832.91
67647,8.647,-4.429,0.651,0.004119,0.041150,0.002289,101830.24
67656,8.670,-4.425,0.674,0.009972,0.034765,0.003354,101828.49
67666,8.676,-4.443,0.688,0.016890,0.029976,0.004418,101828.49
67677,8.682,-4.441,0.729,0.019550,0.025187,0.004950,101834.50
67687,8.673,-4.478,0.687,0.018486,0.019333,0.006546,101834.23
67697,8.679,-4.465,0.688,0.012633,0.014544,0.006014,101831.45
67706,8.675,-4.477,0.687,0.005715,0.010287,0.006546,101832.33
67717,8.663,-4.441,0.707,0.000394,0.006563,0.008143,101832.33
67727,8.685,-4.463,0.687,-0.003863,0.000709,0.008675,101832.84
67737,8.660,-4.434,0.675,-0.003863,-0.004080,0.011335,101833.42
67747,8.658,-4.430,0.685,-0.004927,-0.009223,0.012932,101833.22
67757,8.658,-4.443,0.640,-0.003863,-0.014190,0.015592,101831.09
67767,8.634,-4.437,0.627,0.000394,-0.018446,0.015060,101831.09
67777,8.637,-4.445,0.663,0.006247,-0.023235,0.015060,101833.47
67786,8.648,-4.472,0.664,0.012101,-0.029621,0.013996,101834.66
67796,8.637,-4.492,0.651,0.013697,-0.035474,0.010803,101831.03
67807,8.652,-4.486,0.623,0.011036,-0.038667,0.008675,101829.80
67817,8.640,-4.513,0.602,0.007312,-0.040795,0.006014,101829.80
67827,8.630,-4.494,0.610,0.003587,-0.041859,0.003886,101832.99
67836,8.645,-4.504,0.566,-0.000670,-0.042924,0.002822,101832.32
67847,8.636,-4.481,0.587,-0.008120,-0.041327,0.002289,101830.41
67857,8.628,-4.461,0.547,-0.011844,-0.040263,0.002289,101829.65
67867,8.622,-4.475,0.534,-0.013441,-0.038135,0.002289,101829.65
67876,8.631,-4.465,0.549,-0.011844,-0.037070,-0.000371,101834.45
67887,8.640,-4.457,0.540,-0.008652,-0.036538,-0.001435,101835.39
67897,8.641,-4.472,0.522,-0.004927,-0.036006,-0.000903,101830.80
67907,8.667,-4.473,0.557,-0.001734,-0.034942,-0.000371,101829.66
67916,8.642,-4.433,0.550,-0.001202,-0.033346,0.001757,101829.66
67927,8.665,-4.416,0.543,0.000394,-0.031749,0.003354,101833.97
67937,8.663,-4.419,0.547,-0.000138,-0.030153,0.007611,101832.06
67947,8.663,-4.399,0.543,-0.001734,-0.028557,0.012932,101831.97
67957,8.654,-4.436,0.529,-0.000670,-0.027492,0.015060,101830.72
67966,8.631,-4.477,0.546,-0.001734,-0.024300,0.018253,101830.72
67977,8.631,-4.465,0.541,-0.002798,-0.021639,0.019317,101833.20
67983,8.642,-4.473,0.484,-0.001734,-0.019511,0.020381,101832.17
67992,8.627,-4.496,0.500,-0.004395,-0.018979,0.018253,101832.17
68002,8.628,-4.498,0.495,-0.005459,-0.015254,0.017721,101829.53
68012,8.629,-4.524,0.499,-0.007055,-0.011529,0.013464,101828.50
68022,8.611,-4.518,0.496,-0.006523,-0.008336,0.011335,101828.50
68032,8.610,-4.502,0.489,-0.004927,-0.006208,0.008675,101831.67
68042,8.606,-4.528,0.470,-0.003863,-0.003547,0.004950,101831.59
68052,8.600,-4.525,0.476,-0.003331,0.000709,0.001225,101831.19
68062,8.613,-4.528,0.488,-0.004395,0.003902,-0.004096,101831.19
68072,8.599,-4.533,0.506,-0.006523,0.008159,-0.007289,101831.19
68082,8.612,-4.524,0.465,-0.005991,0.011352,-0.011545,101834.19
68091,8.625,-4.488,0.486,-0.007055,0.014544,-0.013674,101830.52
68103,8.633,-4.454,0.525,-0.006346,0.015609,-0.017576,101830.47
68112,8.649,-4.436,0.555,-0.002266,0.014544,-0.018463,101830.47
68122,8.631,-4.433,0.565,0.003055,0.012416,-0.016334,101830.47
68132,8.666,-4.422,0.571,0.008376,0.009755,-0.015270,101832.74
68142,8.690,-4.429,0.563,0.008908,0.008691,-0.013674,101830.32
68152,8.680,-4.439,0.573,0.006780,0.008691,-0.009949,101830.68
68162,8.666,-4.437,0.578,0.001991,0.008691,-0.006756,101830.68
68172,8.641,-4.433,0.585,-0.005459,0.007627,-0.002500,101832.35
68182,8.661,-4.436,0.613,-0.010780,0.007627,0.001225,101832.35
68192,8.667,-4.436,0.572,-0.013973,0.007095,0.004950,101833.54
68202,8.659,-4.442,0.575,-0.016633,0.006031,0.006546,101828.59
68212,8.660,-4.428,0.546,-0.013441,0.004966,0.008143,101832.26
68221,8.660,-4.445,0.540,-0.007055,0.002306,0.008675,101832.26
68232,8.653,-4.428,0.567,-0.001734,-0.000887,0.010271,101833.24
68242,8.660,-4.430,0.572,0.001991,-0.002483,0.011335,101835.15
68252,8.659,-4.440,0.563,0.006780,-0.004080,0.012932,101832.26
68262,8.643,-4.469,0.573,0.007844,-0.005676,0.012399,101832.05
68272,8.643,-4.469,0.572,0.003055,-0.005144,0.011867,101831.23
68282,8.653,-4.489,0.547,-0.001202,-0.005144,0.011335,101831.23
68292,8.637,-4.498,0.536,-0.005459,-0.004612,0.010271,101834.79
68302,8.617,-4.471,0.544,-0.008120,-0.003547,0.009207,101834.79
68312,8.622,-4.488,0.549,-0.009184,-0.002483,0.006014,101834.37
68322,8.625,-4.484,0.540,-0.008652,-0.001951,0.003354,101834.37
68332,8.664,-4.458,0.542,-0.006523,-0.000355,0.002822,101834.52
68342,8.660,-4.469,0.535,-0.004395,-0.000887,0.001225,101833.34
68352,8.640,-4.459,0.514,-0.001734,-0.000355,0.000161,101830.20
68362,8.613,-4.459,0.559,0.003055,-0.001419,-0.000903,101829.10
68372,8.631,-4.467,0.523,0.004651,0.000709,0.000161,101829.10
68382,8.642,-4.471,0.517,0.003587,0.002306,0.000161,101833.01
68392,8.625,-4.467,0.504,0.000926,0.006031,0.000693,101832.66
68402,8.655,-4.452,0.481,-0.002798,0.009223,0.001757,101829.09
68412,8.633,-4.454,0.507,-0.006523,0.013480,0.003354,101829.09
68422,8.628,-4.453,0.523,-0.008120,0.016673,0.004418,101829.09
68432,8.623,-4.454,0.531,-0.007587,0.019333,0.004950,101832.60
68442,8.617,-4.469,0.541,-0.003863,0.021994,0.003354,101834.40
68452,8.622,-4.502,0.542,-0.001202,0.025187,0.000693,101830.95
68462,8.624,-4.497,0.523,0.000394,0.027315,-0.001967,101832.09
68472,8.629,-4.470,0.543,0.002523,0.027315,-0.004628,101832.09
68483,8.625,-4.467,0.534,0.006780,0.027847,-0.007289,101833.72
68492,8.640,-4.475,0.556,0.008376,0.029443,-0.008885,101831.34
68502,8.669,-4.470,0.553,0.005183,0.031572,-0.009949,101831.94
68512,8.666,-4.421,0.560,0.000394,0.034765,-0.006756,101831.94
68523,8.670,-4.369,0.535,-0.002798,0.037957,-0.002500,101833.11
68532,8.655,-4.351,0.561,-0.001734,0.038489,0.003354,101833.00
68542,8.654,-4.346,0.621,0.004119,0.037957,0.008143,101833.00
68552,8.649,-4.387,0.628,0.012633,0.034765,0.011867,101831.56
68562,8.641,-4.454,0.660,0.022211,0.028911,0.013464,101832.59
68572,8.663,-4.461,0.678,0.028596,0.025187,0.013996,101832.59
68578,8.661,-4.473,0.657,0.029128,0.021994,0.010803,101833.26
68587,8.651,-4.490,0.665,0.025935,0.019865,0.009739,101835.57
68597,8.648,-4.497,0.671,0.018486,0.018801,0.007611,101833.41
68608,8.642,-4.486,0.677,0.011569,0.016141,0.009207,101830.68
68617,8.660,-4.443,0.708,0.006780,0.011352,0.009207,101830.68
68627,8.654,-4.407,0.693,0.003587,0.007627,0.010803,101835.38
68637,8.691,-4.403,0.701,0.004651,0.003370,0.012399,101833.26
68647,8.690,-4.412,0.722,0.006247,-0.003015,0.016656,101832.49
68657,8.655,-4.416,0.725,0.007844,-0.008868,0.020381,101831.04
68667,8.653,-4.430,0.712,0.009972,-0.013657,0.021445,101831.04
68677,8.660,-4.413,0.733,0.014761,-0.020575,0.023574,101836.95
68687,8.657,-4.423,0.716,0.022743,-0.027492,0.022510,101833.30
68697,8.615,-4.451,0.708,0.027000,-0.034942,0.021977,101831.70
68707,8.653,-4.451,0.704,0.029128,-0.042924,0.020913,101832.78
68717,8.655,-4.457,0.726,0.031789,-0.050373,0.020381,101832.78
68727,8.653,-4.512,0.690,0.031789,-0.056758,0.017721,101832.98
68738,8.664,-4.542,0.683,0.025935,-0.062079,0.015060,101833.90
68747,8.645,-4.534,0.684,0.015825,-0.065272,0.014528,101829.77
68757,8.642,-4.524,0.676,0.006247,-0.068465,0.012932,101830.71
68767,8.634,-4.519,0.641,-0.002798,-0.070593,0.008675,101830.71
68777,8.625,-4.527,0.578,-0.012376,-0.071125,0.007078,101834.45
68787,8.624,-4.521,0.593,-0.020890,-0.071657,0.004418,101834.09
68797,8.655,-4.530,0.565,-0.025679,-0.073254,0.003886,101830.02
68807,8.683,-4.512,0.520,-0.027808,-0.073786,0.001225,101831.88
68817,8.667,-4.463,0.543,-0.024615,-0.075382,0.001225,101831.88
68827,8.609,-4.431,0.546,-0.019294,-0.076446,0.001225,101834.42
68837,8.607,-4.436,0.496,-0.014505,-0.077511,0.002289,101833.91
68847,8.572,-4.473,0.486,-0.009716,-0.076979,0.002289,101833.39
68857,8.624,-4.510,0.476,-0.009716,-0.074850,0.001757,101832.09
68867,8.667,-4.555,0.464,-0.010780,-0.072722,-0.001967,101832.09
68877,8.663,-4.545,0.447,-0.015037,-0.067933,-0.006756,101834.94
68887,8.634,-4.537,0.447,-0.024615,-0.062079,-0.009417,101834.16
68897,8.640,-4.519,0.441,-0.031532,-0.059419,-0.012610,101832.30
68908,8.653,-4.506,0.449,-0.034725,-0.055162,-0.012610,101830.81
68917,8.666,-4.472,0.420,-0.035789,-0.051437,-0.015270,101830.81
68927,8.648,-4.496,0.408,-0.034193,-0.047180,-0.016334,101834.91
68937,8.621,-4.476,0.391,-0.033129,-0.040795,-0.017931,101834.34
68947,8.613,-4.460,0.368,-0.033129,-0.036538,-0.017931,101831.05
68957,8.591,-4.429,0.376,-0.031532,-0.031217,-0.015270,101829.13
68967,8.580,-4.419,0.389,-0.028340,-0.026428,-0.011013,101829.13
68977,8.623,-4.409,0.410,-0.025147,-0.023235,-0.011013,101833.66
68987,8.672,-4.410,0.372,-0.016633,-0.022703,-0.007821,101833.09
68998,8.707,-4.390,0.371,-0.002266,-0.022703,-0.004096,101830.45
69007,8.680,-4.427,0.330,0.019018,-0.024832,-0.003032,101830.52
69017,8.684,-4.447,0.329,0.044027,-0.031749,-0.002500,101830.52
69027,8.675,-4.458,0.353,0.078614,-0.043988,-0.003564,101833.12
69038,8.689,-4.477,0.310,0.098835,-0.050905,-0.005160,101836.48
69047,8.724,-4.537,0.303,0.107880,-0.059951,-0.001435,101833.54
69053,8.745,-4.567,0.360,0.125972,-0.070593,0.005482,101832.09
69062,8.797,-4.589,0.420,0.144596,-0.082300,0.011335,101832.09
69072,8.793,-4.568,0.465,0.164284,-0.100923,0.021445,101832.09
69083,8.740,-4.543,0.523,0.201532,-0.126997,0.038473,101832.48
69092,8.718,-4.539,0.622,0.231862,-0.145089,0.044858,101830.58
69102,8.746,-4.552,0.694,0.211110,-0.141896,0.043262,101833.05
69112,8.578,-4.843,0.595,0.147789,-0.123804,0.046455,101833.05
69123,8.313,-5.147,0.519,0.067972,-0.101988,0.067739,101835.78
69132,8.149,-5.216,0.463,0.021679,-0.092942,0.097537,101835.78
69142,8.027,-5.326,0.307,0.014229,-0.101456,0.137977,101832.06
69152,7.941,-5.431,0.244,0.051477,-0.122208,0.192253,101831.39
69163,7.907,-5.606,0.191,0.114798,-0.148813,0.250253,101833.92
69172,7.928,-5.783,0.147,0.196211,-0.183400,0.316766,101833.92
69182,7.896,-6.111,0.164,0.287201,-0.221712,0.385408,101834.86
69192,7.790,-6.377,0.124,0.356908,-0.252043,0.455647,101834.55
69202,7.617,-6.536,0.204,0.386174,-0.273859,0.521096,101832.73
69213,7.318,-6.603,0.274,0.349458,-0.280777,0.585482,101830.16
69223,7.091,-6.404,0.320,0.274963,-0.269602,0.633372,101833.29
69232,7.087,-5.982,0.313,0.190889,-0.240336,0.667427,101831.99
69242,7.374,-5.523,0.374,0.120119,-0.214263,0.695096,101833.70
69253,7.656,-5.296,0.376,0.084468,-0.199896,0.713188,101833.70
69262,8.009,-5.107,0.349,0.042963,-0.184465,0.720105,101830.20
69272,8.428,-4.824,0.341,0.012633,-0.167969,0.703078,101830.20
69282,8.821,-4.678,0.257,0.023275,-0.163180,0.687647,101833.07
69293,9.006,-4.601,0.226,0.063715,-0.170098,0.670619,101833.13
69302,8.955,-4.452,0.269,0.098302,-0.169034,0.641353,101832.46
69312,8.852,-4.348,0.281,0.113201,-0.158391,0.607298,101832.41
69322,8.769,-4.094,0.322,0.091917,-0.141896,0.557812,101832.41
69332,8.828,-3.729,0.361,0.034981,-0.106245,0.484381,101833.51
69343,9.050,-3.428,0.385,-0.049624,-0.058887,0.403500,101832.88
69352,9.438,-3.110,0.410,-0.130505,-0.011529,0.311445,101830.77
69362,9.860,-2.799,0.349,-0.187973,0.029443,0.210876,101830.77
69372,10.268,-2.632,0.337,-0.208193,0.052856,0.108711,101830.77
69383,10.552,-2.870,0.276,-0.165624,0.051792,0.013996,101834.74
69392,9.929,-4.643,0.429,-0.052285,0.044875,-0.028573,101833.20
69402,8.807,-6.500,0.306,0.045624,0.049131,0.006546,101832.41
69412,7.781,-6.512,0.061,0.050413,0.030508,0.016124,101830.46
69423,7.175,-5.723,-0.042,0.037110,0.019865,0.001225,101830.46
69433,7.018,-5.225,-0.040,0.011036,0.020930,-0.016334,101834.41
69442,7.170,-5.146,0.027,-0.026211,0.024122,-0.013674,101831.73
69452,7.598,-5.227,0.263,-0.045367,0.031572,0.002822,101832.27
69463,8.080,-5.262,0.416,-0.050688,0.040618,0.021977,101832.27
69473,8.392,-5.290,0.468,-0.043239,0.045407,0.038473,101831.34
69482,8.495,-5.363,0.403,-0.022487,0.043278,0.048051,101833.97
69492,8.487,-5.454,0.220,-0.005459,0.036893,0.054968,101833.97
69502,8.391,-5.466,0.147,0.001458,0.028911,0.058161,101833.05
69513,8.271,-5.402,0.119,0.003587,0.024122,0.060821,101833.45
69522,8.121,-5.439,0.190,0.011036,0.017205,0.062418,101833.45
69528,8.010,-5.517,0.281,0.015293,0.011352,0.061886,101832.92
69537,7.902,-5.624,0.334,0.011036,0.012416,0.062418,101832.92
69548,7.841,-5.688,0.241,-0.009716,0.022526,0.058693,101833.70
69558,7.797,-5.737,0.119,-0.050688,0.044875,0.053372,101829.52
69567,7.690,-5.862,-0.015,-0.108156,0.076269,0.049647,101829.52
69577,7.798,-5.955,-0.035,-0.174670,0.101810,0.039537,101831.52
69587,8.123,-5.825,0.042,-0.228945,0.109792,0.026766,101833.27
69598,8.505,-5.443,0.216,-0.229477,0.095957,0.020381,101831.31
69607,8.613,-5.103,0.346,-0.173074,0.071480,0.016656,101829.72
69617,8.382,-5.148,0.384,-0.101239,0.048599,0.017721,101829.72
69627,8.130,-5.425,0.367,-0.058670,0.039554,0.021977,101833.08
69638,7.918,-5.590,0.342,-0.053881,0.042746,0.021445,101832.05
69648,7.829,-5.651,0.228,-0.083324,0.049309,0.018962,101833.48
69657,7.872,-5.669,0.192,-0.122523,0.052856,0.015592,101829.97
69667,8.089,-5.532,0.170,-0.157110,0.054453,0.018785,101829.97
69678,8.307,-5.423,0.085,-0.166688,0.047003,0.033684,101833.52
69688,8.372,-5.596,-0.162,-0.155514,0.033700,0.046455,101832.06
69697,8.358,-5.788,-0.368,-0.154982,0.027315,0.050711,101830.16
69707,8.246,-5.810,-0.419,-0.194358,0.030508,0.055500,101831.55
69718,8.046,-5.560,-0.057,-0.223092,0.026783,0.063482,101831.55
69728,7.922,-5.198,0.382,-0.194890,0.004966,0.070399,101835.93
69737,7.821,-5.005,0.768,-0.135294,-0.023235,0.076253,101834.12
69747,7.844,-4.996,0.930,-0.075165,-0.049309,0.087427,101832.73
69757,7.844,-5.138,1.034,-0.009716,-0.071125,0.098601,101828.13
69768,7.843,-5.342,0.925,0.027532,-0.082300,0.101794,101828.13
69778,7.896,-5.494,0.669,0.026468,-0.086024,0.101262,101831.88
69787,8.014,-5.508,0.328,0.035513,-0.095070,0.101262,101834.51
69797,8.015,-5.553,0.077,0.058926,-0.107841,0.097005,101833.32
69808,8.045,-5.595,-0.075,0.110009,-0.134446,0.095409,101830.49
69818,8.068,-5.544,-0.045,0.208981,-0.172226,0.094876,101830.49
69827,8.081,-5.413,-0.134,0.336688,-0.212667,0.096473,101834.80
69837,7.896,-5.538,-0.203,0.443642,-0.262685,0.104987,101831.84
69848,7.716,-5.673,-0.300,0.513348,-0.318024,0.122546,101832.98
69858,7.598,-5.763,-0.369,0.552192,-0.374960,0.144895,101831.80
69867,7.543,-5.839,-0.298,0.654889,-0.436153,0.171500,101831.80
69877,7.353,-6.116,-0.403,0.762908,-0.485639,0.193849,101834.75
69883,7.232,-6.499,-0.392,0.815586,-0.509052,0.210876,101833.41
69893,7.188,-6.846,-0.440,0.831550,-0.526079,0.221519,101833.41
69903,7.179,-7.215,-0.569,0.837935,-0.553749,0.241207,101830.63
69913,6.999,-7.654,-0.880,0.837403,-0.582483,0.263555,101832.27
69922,6.910,-7.879,-1.150,0.817183,-0.613877,0.280051,101832.27
69933,6.990,-7.826,-1.176,0.796962,-0.647400,0.293886,101835.10
69943,6.996,-7.616,-0.969,0.769825,-0.685180,0.324748,101833.91
69953,6.868,-7.249,-0.673,0.725660,-0.720831,0.366785,101833.09
69962,6.857,-6.876,-0.405,0.675109,-0.742648,0.404032,101833.09
69972,6.932,-6.512,-0.124,0.593697,-0.742116,0.440216,101833.09
69983,7.111,-6.140,0.173,0.506431,-0.721896,0.469482,101832.10
69993,7.304,-5.779,0.524,0.449495,-0.701143,0.499812,101833.74
70003,7.389,-5.609,0.738,0.475391,-0.691388,0.530852,101829.88
70012,7.354,-5.640,0.781,0.488339,-0.676134,0.550362,101829.88
70023,7.515,-5.721,0.957,0.463862,-0.648997,0.557812,101829.88
70033,7.728,-5.718,1.129,0.414376,-0.619730,0.555684,101831.21
70043,7.874,-5.612,1.333,0.330834,-0.589932,0.554087,101830.23
70052,7.989,-5.334,1.513,0.232394,-0.552153,0.540784,101830.59
70063,8.218,-5.028,1.569,0.136082,-0.498409,0.512583,101830.59
70073,8.666,-4.695,1.378,0.016357,-0.436153,0.459372,101833.09
70082,9.375,-4.221,1.117,-0.125184,-0.365914,0.373170,101833.09
70092,10.370,-3.467,0.767,-0.229477,-0.297804,0.255574,101835.05
70103,11.251,-3.033,0.632,-0.261936,-0.250446,0.128932,101834.33
70113,10.921,-4.114,0.671,-0.228413,-0.213731,0.045922,101833.09
70122,8.761,-6.173,0.368,-0.149129,-0.183933,0.079977,101833.09
70133,6.316,-6.312,-0.045,-0.102303,-0.198832,0.108179,101833.85
70142,5.223,-5.563,-0.506,-0.046431,-0.230758,0.092748,101833.96
70153,5.770,-5.590,-0.913,0.040302,-0.285566,0.080510,101831.16
70163,6.677,-6.100,-1.092,0.110541,-0.334520,0.085299,101833.13
70173,7.360,-6.358,-1.059,0.111073,-0.347290,0.081574,101832.22
70182,7.942,-6.926,-1.006,0.082871,-0.338244,0.077849,101833.30
70193,8.483,-7.003,-0.813,0.029128,-0.326006,0.077317,101831.28
70203,8.477,-6.464,-0.826,-0.059734,-0.280777,0.068803,101831.28
70212,7.905,-6.613,-1.114,-0.155514,-0.219584,0.093812,101830.61
70222,7.117,-6.633,-1.166,-0.237991,-0.162116,0.142766,101830.61
70233,6.790,-6.325,-0.995,-0.257147,-0.121144,0.183207,101837.11
70243,7.111,-6.325,-0.846,-0.212982,-0.099859,0.204491,101836.08
70252,7.293,-6.475,-0.896,-0.147532,-0.090813,0.213005,101833.19
70262,7.222,-6.872,-1.111,-0.102835,-0.075382,0.210876,101832.63
70273,7.210,-7.145,-1.199,-0.107092,-0.057290,0.187464,101832.63
70283,7.122,-7.084,-1.077,-0.116670,-0.031217,0.152876,101833.95
70293,6.812,-7.012,-0.977,-0.114542,0.002306,0.117757,101833.69
70303,6.898,-6.963,-0.970,-0.106028,0.037957,0.078381,101830.44
70312,7.140,-6.857,-0.856,-0.101771,0.068287,0.041133,101830.44
70323,7.091,-6.806,-0.710,-0.097514,0.090104,0.008675,101830.44
70333,7.001,-6.784,-0.595,-0.095918,0.107131,-0.022188,101830.37
70342,7.094,-6.923,-0.543,-0.098578,0.114049,-0.050389,101832.95
70352,7.262,-6.751,-0.612,-0.131569,0.110856,-0.087637,101831.49
70363,7.392,-6.721,-0.745,-0.170945,0.107664,-0.113178,101832.32
70373,7.524,-6.866,-0.564,-0.209257,0.103939,-0.141380,101832.32
70383,7.151,-6.824,-0.496,-0.258743,0.100746,-0.174903,101833.05
70392,7.204,-6.736,-0.707,-0.311954,0.112985,-0.200444,101834.08
70403,7.310,-6.789,-0.792,-0.365165,0.111920,-0.225454,101831.75
70413,7.099,-6.681,-0.848,-0.391771,0.110324,-0.246738,101831.75
70423,6.987,-6.573,-0.837,-0.393367,0.115113,-0.265894,101834.15
70433,7.176,-6.459,-0.903,-0.373147,0.116709,-0.287178,101834.51
70443,7.219,-6.465,-0.963,-0.331110,0.119370,-0.307398,101834.51
70453,7.140,-6.575,-1.066,-0.280028,0.124691,-0.331343,101832.40
70463,7.335,-6.411,-1.114,-0.243844,0.136930,-0.361142,101832.09
70472,7.349,-6.547,-0.807,-0.228413,0.159810,-0.388279,101832.09
70478,7.328,-6.556,-0.658,-0.230541,0.168856,-0.405307,101837.33
70488,7.673,-6.091,-0.503,-0.247569,0.174709,-0.420738,101831.48
70498,8.028,-5.863,-0.260,-0.273110,0.170453,-0.427655,101830.31
70508,7.786,-5.955,-0.371,-0.267789,0.153425,-0.420206,101830.88
70517,7.550,-5.881,-0.776,-0.240652,0.148104,-0.412224,101830.88
70528,7.543,-6.022,-0.957,-0.210321,0.122031,-0.406371,101832.56
70538,7.583,-6.026,-0.893,-0.166156,0.080526,-0.412224,101832.67
70548,7.693,-5.957,-0.670,-0.119863,0.055517,-0.414353,101832.36
70558,7.863,-5.913,-0.389,-0.101771,0.029976,-0.418077,101830.34
70567,7.846,-5.619,-0.236,-0.085808,0.007095,-0.412224,101830.34
70578,7.957,-5.423,-0.235,-0.054413,-0.010465,-0.396793,101834.89
70588,7.893,-5.764,-0.551,-0.024615,-0.035474,-0.383490,101832.22
70598,7.865,-5.670,-0.809,-0.015214,-0.050728,-0.376573,101833.30
70607,7.780,-5.631,-0.820,0.004651,-0.070061,-0.365398,101829.69
70618,7.780,-5.751,-0.673,0.042963,-0.094538,-0.360609,101829.69
70628,7.859,-5.630,-0.562,0.064779,-0.111566,-0.363802,101833.77
70638,7.936,-5.476,-0.640,0.071165,-0.124336,-0.358481,101834.80
70647,7.995,-5.602,-0.686,0.090853,-0.134979,-0.353692,101830.94
70658,7.945,-5.544,-0.903,0.120119,-0.148281,-0.351031,101831.34
70668,7.826,-5.462,-0.910,0.154174,-0.155731,-0.349435,101831.34
70678,7.710,-5.517,-0.786,0.198871,-0.163712,-0.348903,101834.52
70687,7.704,-5.523,-0.751,0.247825,-0.164245,-0.357949,101832.61
70697,7.774,-5.669,-0.865,0.272302,-0.157859,-0.368059,101830.97
70708,7.704,-5.795,-0.930,0.274963,-0.137107,-0.381894,101829.63
70718,7.754,-5.662,-0.952,0.261660,-0.117951,-0.398921,101829.63
70728,7.914,-5.631,-1.013,0.243568,-0.103584,-0.414885,101831.77
70737,8.044,-5.670,-1.191,0.231330,-0.094538,-0.424995,101830.64
70748,8.042,-5.567,-1.387,0.220156,-0.095602,-0.437233,101830.38
70758,7.974,-5.488,-1.339,0.219091,-0.087089,-0.448408,101829.86
70768,7.997,-5.417,-1.183,0.227605,-0.074318,-0.461710,101829.86
70777,8.024,-5.308,-1.114,0.233458,-0.056758,-0.472353,101831.69
70788,8.092,-5.144,-0.974,0.255807,-0.040795,-0.483527,101830.39
70798,8.086,-5.123,-0.992,0.287201,-0.029089,-0.490444,101830.45
70808,8.169,-5.163,-1.049,0.317532,-0.023235,-0.500022,101830.14
70817,8.311,-5.110,-0.989,0.337220,-0.012593,-0.512793,101830.14
70828,8.361,-5.233,-0.902,0.338816,0.002838,-0.518646,101834.67
70838,8.267,-5.305,-0.866,0.324449,0.012948,-0.527692,101833.84
70848,8.248,-5.397,-0.927,0.293587,0.024654,-0.543123,101832.97
70858,8.296,-5.390,-0.879,0.249954,0.027315,-0.560683,101828.89
70867,8.351,-5.183,-0.723,0.206321,0.029976,-0.579307,101828.89
70878,8.420,-5.013,-0.535,0.177055,0.027847,-0.587288,101833.98
70888,8.524,-4.823,-0.459,0.168009,0.011884,-0.594206,101832.84
70898,8.649,-4.545,-0.332,0.173862,-0.010465,-0.596334,101830.22
70907,8.646,-4.460,-0.267,0.192486,-0.036006,-0.587820,101831.70
70918,8.511,-4.441,-0.272,0.215367,-0.059419,-0.573453,101831.70
70928,8.469,-4.230,-0.248,0.227605,-0.080703,-0.566004,101833.40
70938,8.524,-4.203,-0.320,0.256339,-0.101456,-0.553233,101835.15
70947,8.593,-4.398,-0.491,0.281348,-0.116887,-0.530885,101832.68
70953,8.599,-4.531,-0.602,0.284541,-0.129125,-0.522371,101831.27
70963,8.635,-4.484,-0.644,0.273367,-0.137107,-0.516518,101831.27
70973,8.807,-4.448,-0.725,0.256339,-0.143492,-0.508536,101831.27
70983,8.915,-4.513,-0.796,0.237183,-0.148281,-0.497362,101832.28
70993,8.841,-4.484,-0.781,0.212706,-0.156263,-0.485655,101830.78
71003,8.770,-4.285,-0.743,0.186101,-0.158923,-0.472353,101831.02
71013,8.757,-3.920,-0.600,0.169605,-0.163712,-0.456921,101831.02
71023,8.700,-3.781,-0.471,0.176523,-0.169566,-0.429252,101830.13
71032,8.750,-3.929,-0.529,0.196743,-0.177547,-0.402114,101830.13
71043,8.878,-4.228,-0.606,0.201000,-0.181272,-0.387747,101832.76
71053,8.995,-4.258,-0.740,0.181844,-0.174887,-0.385087,101832.51
71063,9.017,-4.331,-0.745,0.153110,-0.166373,-0.387215,101830.85
71073,8.911,-4.333,-0.844,0.128810,-0.161407,-0.399276,101833.76
71083,8.939,-4.215,-0.817,0.107880,-0.157327,-0.404242,101833.76
71093,8.961,-4.215,-0.847,0.073825,-0.158391,-0.407435,101832.99
71103,9.085,-4.032,-0.716,0.033385,-0.152538,-0.404242,101832.62
71113,9.170,-3.893,-0.643,-0.011312,-0.155199,-0.393600,101830.62
71123,9.156,-3.638,-0.527,-0.035789,-0.158923,-0.376573,101834.40
71133,9.327,-3.573,-0.452,-0.035257,-0.169034,-0.350499,101829.80
71143,9.480,-3.848,-0.532,-0.038450,-0.187657,-0.324958,101832.85
71153,9.735,-3.795,-0.421,-0.086872,-0.186593,-0.301545,101832.85
71163,9.964,-3.543,-0.388,-0.153386,-0.197767,-0.283454,101831.15
71173,10.135,-3.069,-0.124,-0.167752,-0.228098,-0.257912,101831.15
71183,10.226,-2.675,0.283,-0.116138,-0.295676,-0.215343,101831.71
71193,10.282,-2.699,0.544,-0.012376,-0.384006,-0.170646,101831.82
71203,10.216,-2.969,0.731,0.099899,-0.470740,-0.130738,101830.99
71214,9.918,-3.249,1.060,0.171734,-0.528740,-0.094022,101831.35
71223,9.899,-3.402,1.204,0.182908,-0.552685,-0.055711,101831.35
71233,10.361,-3.496,0.803,0.162156,-0.569712,-0.035490,101832.57
71243,10.570,-3.741,0.259,0.096174,-0.583547,-0.029637,101829.45
71254,10.593,-3.660,0.208,0.060523,-0.577162,-0.007289,101831.38
71263,10.790,-3.477,0.141,0.080211,-0.590464,0.021445,101831.38
71273,10.846,-3.291,0.026,0.105220,-0.629308,0.056032,101831.38
71283,10.694,-2.887,0.056,0.161623,-0.683052,0.114565,101832.37
71293,10.464,-2.578,-0.012,0.286669,-0.750629,0.198638,101831.29
71303,10.227,-2.450,-0.029,0.460137,-0.830446,0.310913,101834.54
71313,9.953,-2.311,0.083,0.667128,-0.924097,0.426381,101831.65
71323,9.978,-2.480,0.019,0.919880,-1.011363,0.526417,101831.65
71333,10.153,-3.158,-0.351,1.155604,-1.094904,0.596124,101833.23
71344,10.185,-4.052,-1.098,1.332797,-1.190684,0.653060,101829.77
71353,10.092,-4.240,-1.424,1.505733,-1.329033,0.737133,101833.38
71363,9.999,-3.488,-0.713,1.797329,-1.503033,0.829720,101833.38
71373,9.755,-2.576,0.287,2.274099,-1.688739,0.918050,101833.45
71384,9.342,-2.091,1.193,2.853034,-1.855289,0.997867,101831.59
71393,8.980,-2.072,2.148,3.408557,-1.961711,1.054802,101831.59
71403,8.782,-2.295,2.781,3.828924,-1.991509,1.068105,101830.45
71413,8.539,-2.663,3.071,4.069970,-1.943619,1.040435,101828.19
71422,8.256,-3.340,3.026,4.103493,-1.838262,0.982436,101828.19
71429,8.034,-3.892,2.869,3.989089,-1.733968,0.926032,101832.74
71438,7.799,-4.263,2.673,3.754428,-1.606794,0.864839,101829.76
71448,7.414,-4.633,2.490,3.340447,-1.410978,0.776509,101829.85
71458,7.119,-4.904,2.260,2.809934,-1.176849,0.666362,101828.57
71468,7.072,-4.697,2.157,2.195347,-0.907602,0.530142,101828.57
71478,7.184,-4.363,2.109,1.635568,-0.628244,0.389665,101832.84
71488,7.286,-4.142,2.028,1.170504,-0.368043,0.251317,101832.52
71498,7.408,-4.011,1.826,0.804412,-0.137639,0.115097,101831.20
71508,7.571,-3.878,1.474,0.526119,0.064563,-0.012078,101827.88
71518,7.819,-3.583,1.175,0.330302,0.246012,-0.131802,101827.88
71528,8.154,-3.112,0.872,0.216431,0.398728,-0.247802,101832.47
71538,8.490,-2.574,0.568,0.196743,0.508342,-0.353160,101831.75
71548,8.786,-2.267,0.137,0.289152,0.578226,-0.445747,101829.63
71558,8.831,-2.259,-0.239,0.414376,0.612104,-0.511196,101830.66
71568,8.870,-2.383,-0.618,0.550596,0.640838,-0.585692,101830.66
71578,9.023,-2.602,-1.048,0.638926,0.668507,-0.670829,101833.47
71588,9.120,-2.761,-1.316,0.676706,0.695113,-0.761820,101832.17
71598,9.277,-2.697,-1.419,0.686816,0.717993,-0.852811,101828.36
71608,9.481,-2.535,-1.391,0.710229,0.738214,-0.936884,101831.09
71618,9.565,-2.563,-1.275,0.770357,0.751516,-1.006059,101831.09
71628,9.517,-2.653,-1.249,0.846449,0.761094,-1.061930,101832.52
71639,9.467,-2.781,-1.205,0.910302,0.770140,-1.122059,101832.10
71648,9.527,-2.917,-1.208,0.942228,0.774929,-1.186444,101830.35
71658,9.799,-3.034,-1.473,0.922540,0.768544,-1.257747,101831.54
71668,10.064,-3.050,-1.622,0.870926,0.741406,-1.333838,101831.54
71678,10.117,-2.947,-1.521,0.813990,0.708948,-1.409930,101832.27
71688,10.028,-2.777,-1.338,0.773018,0.674360,-1.476976,101831.13
71698,9.948,-2.650,-1.207,0.762375,0.637113,-1.536040,101830.83
71708,9.839,-2.728,-1.055,0.777807,0.594544,-1.589783,101829.33
71718,9.791,-2.958,-0.892,0.799623,0.557296,-1.637673,101829.33
71729,9.933,-3.115,-0.644,0.815054,0.521645,-1.680774,101835.33
71738,10.051,-3.239,-0.442,0.848045,0.488654,-1.712700,101832.02
71748,9.972,-3.396,-0.342,0.896467,0.460984,-1.727600,101833.41
71758,9.884,-3.471,-0.237,0.933715,0.449278,-1.741434,101829.70
71769,9.855,-3.408,-0.116,0.944357,0.446617,-1.760590,101829.70
71778,9.833,-3.306,-0.076,0.930522,0.447682,-1.774957,101831.52
71788,9.870,-3.279,-0.326,0.898063,0.440232,-1.786664,101833.27
71798,9.881,-3.255,-0.482,0.858687,0.416819,-1.792517,101829.91
71809,9.779,-3.073,-0.466,0.844320,0.379572,-1.788792,101829.30
71818,9.724,-2.903,-0.279,0.877311,0.333278,-1.770700,101829.30
71828,9.715,-2.919,-0.148,0.953935,0.274746,-1.744095,101833.47
71838,9.752,-3.097,0.060,1.039073,0.215150,-1.707379,101832.23
71848,9.751,-3.292,0.329,1.117293,0.163003,-1.664811,101832.19
71858,9.665,-3.481,0.451,1.172632,0.114049,-1.616389,101829.81
71868,9.469,-3.651,0.492,1.183806,0.080526,-1.563178,101829.81
71878,9.301,-3.749,0.571,1.148155,0.068820,-1.509434,101830.78
71888,9.108,-3.714,0.632,1.070999,0.068287,-1.455691,101834.80
71899,8.798,-3.664,0.723,0.977880,0.077865,-1.403013,101830.11
71908,8.555,-3.681,0.741,0.871458,0.102342,-1.351398,101828.61
71918,8.373,-3.645,0.742,0.754394,0.132673,-1.300847,101828.61
71928,8.290,-3.581,0.840,0.637330,0.166728,-1.250297,101833.16
71939,8.384,-3.493,1.022,0.534632,0.194930,-1.198150,101833.06
71948,8.550,-3.457,1.091,0.450027,0.216214,-1.137490,101831.25
71958,8.568,-3.508,1.133,0.384577,0.227920,-1.065123,101826.19
71968,8.406,-3.659,1.093,0.331366,0.233774,-0.974664,101826.19
71979,8.185,-3.805,1.029,0.265917,0.245480,-0.874095,101834.90
71988,8.086,-3.558,1.108,0.191422,0.264104,-0.780976,101831.59
71998,8.063,-3.154,1.059,0.129697,0.281131,-0.697967,101831.27
72008,8.022,-2.921,1.053,0.082339,0.294434,-0.628261,101832.21
72018,7.951,-3.031,1.069,0.033917,0.314654,-0.566004,101832.21
72024,7.900,-3.209,1.112,-0.012376,0.333810,-0.522371,101835.18
72033,7.889,-3.422,1.103,-0.067184,0.357223,-0.477674,101835.18
72043,8.003,-3.671,1.131,-0.142743,0.385425,-0.412224,101832.96
72053,8.165,-3.900,1.055,-0.211918,0.401920,-0.338261,101830.74
72064,8.350,-4.097,0.823,-0.266193,0.400324,-0.249398,101830.34
72074,8.471,-4.288,0.616,-0.307697,0.382764,-0.140848,101832.38
72083,8.453,-4.322,0.477,-0.309826,0.337003,-0.014206,101828.09
72093,8.320,-4.293,0.233,-0.258211,0.257718,0.135849,101831.49
72103,8.264,-4.198,0.261,-0.172541,0.159278,0.322619,101831.49
72114,8.300,-3.660,3.475,0.020614,0.126287,0.479060,101832.27
72123,9.164,-3.279,5.839,0.079679,0.196526,0.671151,101832.27
72133,12.766,2.275,6.814,-0.139551,0.324232,0.564729,101830.34
72143,14.919,5.525,3.876,-0.572156,0.367865,0.322619,101832.56
72154,16.263,3.153,1.296,-0.776486,0.340196,0.356142,101831.75
72164,15.818,-0.499,-0.071,-0.679642,0.150232,0.606234,101831.48
72173,13.718,-2.514,0.486,-0.309826,-0.023235,0.967004,101831.48
72183,12.797,-2.909,1.398,0.276559,-0.136575,1.286802,101833.69
72194,12.540,-2.782,0.373,0.802284,-0.267474,1.476233,101833.48
72204,10.838,-2.421,-0.005,1.056100,-0.331859,1.580527,101830.34
72213,8.533,-2.390,1.197,1.009806,-0.263749,1.577866,101830.34
72223,6.954,-2.908,3.038,0.722999,-0.130190,1.494325,101830.34
72233,6.922,-3.869,4.033,0.386174,0.002306,1.346931,101833.11
72244,7.934,-4.923,3.580,0.049348,0.093829,1.195812,101835.39
72253,9.430,-5.271,2.801,-0.235330,0.166196,1.105353,101833.17
72263,10.918,-4.097,1.093,-0.405606,0.172049,1.066509,101833.47
72273,10.663,-2.465,0.386,-0.352927,0.137994,1.042564,101833.47
72284,9.873,-1.921,0.440,-0.127844,0.126820,1.037243,101831.77
72294,9.297,-2.159,0.906,0.067440,0.128948,1.023940,101831.45
72303,9.281,-2.662,1.318,0.136082,0.142251,0.993610,101832.80
72313,9.236,-2.817,1.846,0.102027,0.161939,0.950509,101832.80
72324,8.989,-2.781,2.259,0.028596,0.183755,0.899959,101833.13
72334,8.846,-2.687,2.370,-0.070909,0.197590,0.845683,101834.27
72343,8.929,-2.700,2.199,-0.159239,0.208764,0.790876,101834.27
72353,9.134,-2.527,1.922,-0.205532,0.222067,0.739794,101830.76
72364,9.204,-2.067,1.881,-0.211385,0.243884,0.709995,101832.82
72374,9.299,-2.086,1.796,-0.165624,0.255058,0.693500,101832.82
72383,9.323,-2.369,1.813,-0.119863,0.246012,0.684986,101833.00
72393,9.234,-2.672,2.050,-0.102835,0.249205,0.677005,101833.47
72403,9.217,-2.888,2.235,-0.148597,0.254526,0.666362,101832.44
72414,9.243,-2.801,2.328,-0.222560,0.259315,0.653060,101830.53
72424,9.165,-2.521,2.473,-0.274707,0.263572,0.648271,101832.89
72433,9.207,-2.260,2.508,-0.306633,0.268893,0.652528,101832.89
72443,9.272,-2.211,2.260,-0.354523,0.279003,0.657317,101830.16
72454,9.301,-2.554,2.328,-0.382193,0.301351,0.659445,101830.27
72463,9.317,-2.754,2.354,-0.429550,0.314122,0.653060,101830.27
72473,9.280,-3.167,2.534,-0.464670,0.321040,0.633372,101830.27
72483,9.309,-3.209,2.765,-0.467330,0.298159,0.611555,101833.16
72494,9.109,-3.085,2.940,-0.381661,0.252930,0.595592,101832.44
72499,8.929,-3.130,2.855,-0.318872,0.216746,0.585482,101831.88
72508,8.767,-3.386,2.822,-0.297055,0.189076,0.573243,101833.00
72518,8.813,-3.504,2.980,-0.316211,0.169920,0.560473,101833.00
72528,9.005,-3.172,2.988,-0.341220,0.153957,0.546106,101832.98
72539,8.874,-3.110,2.946,-0.324193,0.124691,0.537592,101833.49
72549,8.702,-3.262,3.040,-0.292266,0.091168,0.534931,101832.91
72558,8.513,-3.417,3.112,-0.266193,0.065095,0.531206,101830.29
72568,8.421,-3.589,2.937,-0.274174,0.057113,0.523757,101830.29
72579,8.634,-3.529,2.679,-0.318872,0.062434,0.512583,101833.29
72589,8.843,-3.470,2.679,-0.333771,0.056581,0.510986,101831.12
72598,8.994,-3.171,2.540,-0.312486,0.043278,0.513647,101832.87
72608,9.097,-3.367,2.543,-0.287477,0.035297,0.512583,101829.82
72619,8.952,-4.000,2.304,-0.278431,0.027315,0.510454,101829.82
72629,8.839,-3.992,2.141,-0.319404,0.033168,0.502473,101833.01
72638,9.004,-3.938,2.311,-0.375275,0.040618,0.497151,101832.43
72648,9.043,-3.720,2.394,-0.377936,0.025719,0.505665,101830.99
72658,8.888,-3.443,2.674,-0.342284,-0.004080,0.523757,101833.16
72669,8.752,-3.675,2.790,-0.295459,-0.037602,0.541849,101833.16
72679,8.737,-3.628,2.958,-0.298651,-0.054098,0.555684,101832.82
72688,8.782,-3.835,2.949,-0.323661,-0.058355,0.565794,101829.88
72698,9.017,-4.136,2.734,-0.381128,-0.048245,0.570583,101830.20
72709,9.134,-4.095,2.582,-0.437000,-0.045584,0.571115,101832.41
72719,9.074,-3.820,2.595,-0.452963,-0.057823,0.580693,101832.41
72728,8.993,-3.913,2.540,-0.430083,-0.074850,0.599317,101834.56
72738,8.862,-4.102,2.469,-0.420505,-0.081235,0.609427,101831.61
72749,8.789,-4.223,2.425,-0.424761,-0.086557,0.616344,101828.78
72759,8.744,-4.187,2.378,-0.423697,-0.089749,0.625922,101830.64
72768,8.754,-4.217,2.326,-0.410395,-0.104116,0.637628,101830.64
72778,8.704,-4.153,2.397,-0.388578,-0.127529,0.650931,101833.24
72788,8.499,-4.057,2.643,-0.361973,-0.146153,0.671151,101834.07
72799,8.338,-4.269,2.682,-0.327385,-0.153602,0.689775,101831.74
72809,8.192,-4.816,2.372,-0.325257,-0.153070,0.701482,101827.77
72818,8.051,-4.909,2.084,-0.359312,-0.152538,0.701482,101827.77
72828,7.986,-4.814,1.881,-0.361973,-0.160520,0.699885,101835.59
72839,7.929,-4.967,1.696,-0.318872,-0.181804,0.701482,101831.60
72849,7.821,-5.006,1.532,-0.273110,-0.211602,0.702014,101833.10
72858,7.728,-4.921,1.601,-0.231606,-0.242997,0.709995,101830.57
72868,7.706,-4.769,1.801,-0.184248,-0.279180,0.721170,101830.57
72879,7.738,-4.617,2.154,-0.128908,-0.322813,0.737133,101833.30
72889,7.594,-4.625,2.541,-0.057606,-0.369107,0.755225,101833.10
72898,7.395,-5.127,2.782,-0.002266,-0.396776,0.767463,101833.15
72908,7.480,-5.748,2.567,-0.024083,-0.388795,0.758949,101832.23
72919,7.689,-6.178,2.151,-0.109220,-0.363786,0.739794,101832.23
72929,7.857,-6.083,1.717,-0.209257,-0.337180,0.717445,101835.80
72939,7.990,-5.806,1.291,-0.277367,-0.322281,0.707335,101833.78
72948,8.234,-5.617,1.035,-0.306101,-0.320685,0.709463,101834.56
72958,8.440,-5.655,0.932,-0.290138,-0.337180,0.714784,101834.61
72969,8.183,-5.739,0.881,-0.256615,-0.361657,0.720638,101834.61
72974,7.890,-5.800,0.903,-0.229477,-0.384538,0.718509,101832.60
72983,7.865,-6.004,0.975,-0.199679,-0.407419,0.712656,101832.60
72993,7.934,-6.405,1.124,-0.189037,-0.416997,0.702014,101833.59
73004,7.823,-6.785,1.075,-0.252890,-0.394116,0.683390,101833.38
73014,7.913,-6.620,0.996,-0.366229,-0.371235,0.658913,101828.99
73024,7.868,-5.781,1.012,-0.417312,-0.385602,0.639757,101833.33
73034,7.681,-5.505,1.158,-0.352927,-0.429767,0.638693,101836.22
73043,7.553,-5.730,1.288,-0.233202,-0.502134,0.636564,101831.58
73054,7.589,-6.298,1.777,-0.128908,-0.586208,0.616344,101831.58
73064,6.795,-6.924,2.376,-0.083147,-0.655382,0.586014,101832.50
73073,5.582,-7.303,3.131,-0.137954,-0.671345,0.541849,101832.50
73083,5.275,-7.482,3.755,-0.270982,-0.661235,0.480656,101836.24
73094,6.098,-7.579,4.085,-0.396028,-0.658042,0.404032,101832.16
73104,7.492,-7.495,4.017,-0.458284,-0.677730,0.317831,101830.62
73114,8.563,-7.285,3.537,-0.512028,-0.678795,0.248656,101830.24
73123,9.499,-6.896,2.804,-0.604615,-0.646336,0.222051,101830.24
73134,10.321,-6.435,2.024,-0.689220,-0.616006,0.242271,101832.02
73144,10.499,-6.320,1.175,-0.765312,-0.591529,0.297078,101830.98
73154,10.277,-6.367,0.744,-0.863752,-0.557474,0.366785,101830.36
73163,9.868,-6.217,0.704,-0.972302,-0.512776,0.423188,101830.36
73174,9.637,-6.012,0.587,-1.042009,-0.478189,0.476931,101830.36
73184,9.942,-6.003,0.474,-1.072871,-0.468611,0.524289,101835.05
73194,10.644,-6.094,0.868,-1.090963,-0.498409,0.558344,101834.59
73203,11.290,-6.259,1.564,-1.089367,-0.531400,0.592931,101830.88
73213,11.223,-6.207,2.426,-1.103201,-0.520226,0.646142,101830.98
73224,10.324,-6.059,3.135,-1.148963,-0.472336,0.713188,101830.98
73234,9.462,-5.976,3.489,-1.237825,-0.395712,0.795133,101832.48
73244,9.195,-6.069,3.692,-1.354357,-0.318024,0.890913,101832.23
73253,9.127,-6.304,3.861,-1.473550,-0.266410,1.001059,101831.22
73264,9.451,-6.416,3.403,-1.601256,-0.241400,1.105353,101831.22
73274,9.759,-6.146,3.161,-1.751311,-0.236079,1.176656,101830.89
73284,10.050,-5.834,3.111,-1.839109,-0.222777,1.262857,101833.42
73293,10.242,-6.186,2.879,-1.854540,-0.196703,1.388967,101833.42
73304,10.227,-7.711,2.360,-1.854540,-0.147749,1.566160,101832.19
73314,10.391,-9.348,1.500,-1.848155,-0.122208,1.789646,101831.47
73324,10.959,-10.103,0.338,-1.771531,-0.163712,2.025903,101831.47
73333,12.186,-9.778,-0.980,-1.568797,-0.306318,2.289829,101834.91
73344,12.947,-7.916,-2.135,-1.059036,-0.655382,2.659646,101834.45
73354,12.527,-7.090,-2.343,-0.013973,-1.159822,3.084269,101830.47
73364,12.254,-6.781,-1.160,1.414210,-1.624354,3.417902,101829.44
73374,11.773,-6.757,-0.758,2.535897,-1.913289,3.484948,101835.52
73383,10.431,-7.405,-1.017,2.839732,-1.961711,3.426416,101829.42
73394,8.840,-7.306,-1.250,2.477897,-1.800482,3.270508,101829.42
73404,7.544,-6.925,-1.085,1.765934,-1.504097,3.052875,101829.78
73414,7.246,-5.834,-1.130,0.937440,-1.165143,2.769792,101829.78
73423,7.268,-4.278,-1.154,0.248357,-0.855987,2.476600,101829.78
73434,7.167,-2.961,-1.363,-0.199679,-0.616538,2.189260,101833.43
73444,7.011,-2.074,-1.978,-0.450835,-0.456373,1.894472,101834.05
73449,6.813,-1.715,-2.463,-0.540229,-0.382410,1.676307,101831.88
73458,6.608,-1.578,-3.019,-0.539697,-0.345694,1.452821,101830.13
73468,6.370,-1.461,-3.678,-0.481697,-0.321217,1.148454,101830.13
73479,6.171,-1.138,-4.050,-0.374211,-0.321749,0.838234,101833.13
73489,5.937,-0.716,-3.945,-0.199679,-0.337712,0.533335,101831.58
73499,5.901,-0.282,-3.637,0.044027,-0.363254,0.232693,101830.84
73508,5.926,0.113,-3.334,0.328706,-0.402098,-0.061032,101829.77
73519,5.932,0.298,-3.219,0.625091,-0.438813,-0.345710,101829.77
73529,5.755,0.006,-2.916,0.910834,-0.456905,-0.618683,101832.52
73539,5.460,-0.670,-2.445,1.139109,-0.436685,-0.882609,101830.09
73548,5.236,-1.451,-2.068,1.290228,-0.373896,-1.139086,101832.36
73559,5.226,-2.132,-1.869,1.354081,-0.287162,-1.407269,101830.45
73569,5.436,-2.670,-1.703,1.348406,-0.187303,-1.723875,101830.45
73579,5.618,-3.046,-1.578,1.296081,-0.099327,-2.005893,101829.07
73589,5.788,-3.319,-1.366,1.196045,0.003902,-2.316113,101828.20
73598,6.024,-3.359,-1.169,1.077917,0.110856,-2.622076,101824.48
73609,6.147,-3.487,-0.974,0.971494,0.207700,-2.916865,101827.26
73619,6.096,-3.671,-0.823,0.868797,0.302416,-3.197287,101827.26
73629,6.021,-3.805,-0.647,0.762375,0.396599,-3.469195,101828.89
73638,6.171,-3.810,-0.345,0.670320,0.498764,-3.717158,101825.69
73649,6.548,-3.864,-0.011,0.622431,0.594012,-3.943305,101826.47
73659,7.182,-4.196,0.189,0.608596,0.675425,-4.160405,101827.09
73669,8.133,-4.714,0.287,0.566559,0.749388,-4.389745,101827.09
73678,9.406,-5.022,0.444,0.432999,0.838250,-4.623341,101824.88
73689,10.815,-4.925,0.336,0.265917,0.936691,-4.822350,101827.93
73699,12.054,-5.121,0.294,0.189825,1.023425,-4.966020,101828.04
73709,12.500,-5.906,0.086,0.237183,1.059608,-5.048496,101827.01
73718,12.491,-6.939,0.161,0.391495,1.077168,-5.054350,101827.01
73729,12.454,-7.989,0.158,0.594761,1.059076,-5.012313,101830.26
73739,12.299,-9.296,0.036,0.777807,0.992562,-4.943671,101830.05
73749,12.188,-10.103,0.231,0.882632,0.929773,-4.885139,101826.54
73759,12.244,-10.101,0.239,1.007146,0.871773,-4.832460,101826.29
73768,12.029,-10.374,0.039,1.175825,0.812177,-4.717524,101826.29
73779,11.671,-10.710,-0.083,1.297678,0.755773,-4.541396,101830.13
73789,10.929,-10.652,-0.104,1.312577,0.698305,-4.369524,101830.70
73799,9.983,-10.358,0.215,1.235953,0.650416,-4.194993,101830.95
73804,9.423,-10.059,0.446,1.147623,0.612636,-4.059836,101828.84
73814,9.023,-9.847,0.644,1.045458,0.569535,-3.926809,101828.84
73824,8.575,-9.863,0.753,0.916687,0.510471,-3.749617,101828.84
73834,8.335,-10.084,0.796,0.842192,0.447682,-3.549543,101830.06
73844,8.278,-10.365,0.834,0.833678,0.381700,-3.314351,101831.52
73854,8.167,-10.531,1.121,0.878907,0.307205,-3.048828,101831.23
73864,8.024,-10.545,1.460,0.954467,0.215150,-2.757232,101831.23
73874,7.863,-10.695,1.649,1.039073,0.124691,-2.439030,101833.48
73884,7.516,-10.957,1.615,1.118357,0.053920,-2.108590,101833.48
73893,7.309,-11.543,1.370,1.164650,0.036361,-1.791985,101832.51
73904,7.470,-12.128,1.109,1.128467,0.039554,-1.511563,101833.32
73914,7.404,-11.889,0.990,0.976283,0.045407,-1.213049,101832.66
73924,7.688,-11.239,0.840,0.830840,0.046471,-0.825319,101834.63
73933,7.928,-10.776,0.845,0.736834,0.034765,-0.478738,101834.63
73944,7.882,-10.172,0.915,0.705972,-0.028024,-0.110518,101832.83
73954,7.677,-9.680,1.081,0.796962,-0.137639,0.256638,101834.06
73964,7.616,-9.265,1.009,1.002357,-0.255767,0.606766,101831.73
73974,7.453,-8.667,0.975,1.234357,-0.368043,0.926032,101835.24
73985,7.482,-7.145,2.578,1.463696,-0.464887,1.187298,101832.71
73994,7.799,-5.135,5.415,1.759017,-0.445731,1.246362,101834.26
74004,10.744,0.566,10.891,1.658980,-0.194043,1.141536,101834.26
74014,18.361,7.745,8.419,1.130063,0.141186,0.552491,101830.13
74023,23.326,3.491,-2.618,0.337220,0.097021,0.441280,101830.13
74034,21.825,-8.542,-6.162,0.105752,-0.113162,1.138344,101832.98
74044,16.680,-12.331,-2.845,0.382449,-0.034942,1.838600,101833.04
74054,12.625,-8.442,-0.610,0.363293,0.125755,1.983334,101834.07
74064,8.233,-5.144,-2.549,0.132890,0.160875,1.843921,101831.95
74074,6.839,-3.054,-2.079,0.123844,0.290177,1.713022,101831.95
74084,7.082,-3.347,1.598,0.295183,0.415223,1.661408,101834.44
74094,9.146,-4.910,3.559,0.341477,0.491315,1.640655,101833.56
74104,10.318,-5.496,3.494,0.034449,0.459388,1.593297,101834.44
74114,9.315,-4.959,3.726,-0.309294,0.371590,1.453353,101834.44
74124,8.527,-4.568,3.384,-0.506174,0.330085,1.240509,101834.44
74134,8.736,-3.690,1.737,-0.661018,0.304012,1.051610,101834.28
74144,9.649,-1.862,0.563,-0.625367,0.283260,0.961683,101834.33
74153,10.317,-0.615,0.401,-0.364633,0.282196,0.965408,101834.28
74164,10.013,-0.996,1.067,-0.019294,0.269425,0.987757,101831.48
74174,9.448,-1.940,1.665,0.245697,0.210893,0.983500,101831.48
74184,9.065,-2.720,2.151,0.312743,0.157150,0.961683,101834.84
74194,8.830,-3.453,2.751,0.178651,0.155021,0.912197,101833.50
74204,8.785,-3.852,2.858,-0.073569,0.186416,0.837170,101832.75
74214,9.071,-3.380,2.533,-0.323661,0.217278,0.761610,101832.75
74224,9.342,-2.684,2.157,-0.450835,0.231645,0.704142,101834.44
74234,9.504,-2.342,1.805,-0.421037,0.219939,0.679665,101833.36
74244,9.581,-2.068,1.672,-0.318872,0.188012,0.680729,101833.36
74254,9.359,-2.127,1.824,-0.209257,0.160342,0.690839,101834.80
74264,9.095,-2.398,2.192,-0.136890,0.141186,0.705206,101834.55
74274,8.909,-2.766,2.474,-0.119863,0.120434,0.715316,101834.55
74279,8.779,-2.874,2.548,-0.125184,0.108196,0.716381,101834.59
74289,8.702,-2.775,2.508,-0.121459,0.099150,0.714784,101833.09
74299,8.657,-2.650,2.299,-0.089000,0.090104,0.709995,101834.23
74309,8.786,-2.861,1.903,-0.042175,0.064563,0.717445,101835.38
74319,9.190,-3.110,1.395,-0.019826,0.048599,0.732344,101835.38
74329,9.390,-3.336,1.231,-0.045367,0.054985,0.748307,101838.46
74339,9.305,-3.531,1.381,-0.097514,0.066159,0.758417,101834.59
74349,9.107,-3.708,1.661,-0.154982,0.075205,0.757353,101834.59
74359,8.871,-3.767,1.974,-0.210321,0.082654,0.742986,101836.09
74369,8.821,-3.789,2.125,-0.249165,0.083719,0.724362,101836.09
74379,8.914,-3.747,2.181,-0.262468,0.069884,0.704142,101835.98
74389,8.924,-3.531,2.266,-0.245973,0.044875,0.683922,101833.71
74399,8.750,-3.018,2.401,-0.190456,0.019156,0.677359,101836.24
74409,8.613,-2.557,2.760,-0.097514,-0.006740,0.683390,101833.20
74419,8.527,-2.345,3.080,0.051477,-0.046116,0.705738,101833.20
74429,8.538,-2.876,3.080,0.194614,-0.102520,0.738729,101834.88
74439,8.724,-4.126,2.405,0.246229,-0.159988,0.767463,101833.49
74449,9.025,-5.336,1.334,0.137146,-0.192446,0.778638,101835.55
74459,9.389,-5.046,0.767,-0.090064,-0.162648,0.776509,101833.49
74469,9.431,-4.204,0.935,-0.248101,-0.123272,0.787151,101833.49
74479,9.212,-3.670,1.113,-0.252890,-0.129125,0.818546,101834.96
74489,8.950,-3.683,1.361,-0.174670,-0.154667,0.857390,101832.49
74499,8.679,-3.901,1.801,-0.114542,-0.178612,0.890913,101834.29
74509,8.472,-4.004,2.294,-0.102303,-0.192446,0.915390,101829.45
74519,8.399,-3.742,2.804,-0.098578,-0.204685,0.931353,101829.45
74529,8.251,-3.489,3.292,-0.055477,-0.241400,0.952105,101834.24
74540,8.002,-3.604,3.402,0.013697,-0.283437,0.980839,101831.55
74549,7.911,-4.252,2.936,0.062119,-0.315364,1.014894,101833.66
74559,8.053,-5.206,2.019,0.038174,-0.336648,1.047885,101828.98
74569,8.482,-5.928,1.233,-0.089000,-0.346226,1.072894,101828.98
74579,9.071,-6.113,0.520,-0.266193,-0.331327,1.086197,101835.92
74589,9.456,-5.808,0.091,-0.401881,-0.311107,1.097371,101834.83
74599,9.670,-5.415,0.270,-0.449771,-0.312171,1.115463,101831.73
74609,9.864,-5.607,0.449,-0.432743,-0.333988,1.133023,101833.08
74619,10.100,-5.977,0.571,-0.428486,-0.365382,1.144197,101833.08
74630,10.097,-5.773,0.927,-0.474780,-0.384006,1.155903,101834.86
74639,9.991,-5.491,1.314,-0.512028,-0.403694,1.182509,101834.59
74649,9.973,-5.250,1.549,-0.509367,-0.446263,1.225610,101832.89
74659,9.991,-4.860,2.095,-0.489679,-0.519162,1.284142,101832.75
74670,10.007,-5.236,2.336,-0.433807,-0.598978,1.355444,101832.75
74679,10.058,-5.875,2.171,-0.414119,-0.655914,1.417169,101834.05
74689,10.170,-6.152,1.968,-0.479569,-0.695290,1.463463,101835.18
74699,10.230,-6.392,1.642,-0.592908,-0.728813,1.506032,101830.23
74710,10.680,-6.314,1.407,-0.725403,-0.747969,1.539554,101832.55
74719,11.367,-6.142,1.344,-0.837679,-0.781492,1.576270,101832.55
74729,12.120,-6.002,1.282,-0.917495,-0.832042,1.622031,101833.33
74739,13.033,-5.548,1.428,-1.000504,-0.879400,1.669921,101832.30
74749,13.745,-5.090,1.545,-1.070743,-0.950171,1.738564,101833.42
74759,14.355,-4.873,1.375,-1.107458,-1.041693,1.789114,101830.33
74769,15.391,-4.764,1.479,-1.143642,-1.130556,1.832215,101830.33
74779,16.246,-4.291,1.959,-1.238357,-1.186960,1.854031,101831.97
74789,16.466,-3.725,2.524,-1.413954,-1.151308,1.868930,101832.48
74800,15.956,-3.104,2.889,-1.647550,-1.036372,1.891279,101829.44
74809,14.794,-2.668,3.141,-1.822082,-0.935804,1.944490,101829.95
74819,13.393,-3.638,3.448,-1.762485,-0.953895,2.084435,101829.95
74829,12.627,-4.870,4.043,-1.392137,-1.147583,2.315902,101833.48
74840,12.664,-3.983,4.503,-0.848853,-1.416299,2.450526,101833.02
74849,11.943,-3.403,3.882,-0.352927,-1.586574,2.381352,101832.24
74859,10.331,-4.648,3.010,-0.044835,-1.605198,2.221187,101829.26
74869,9.044,-6.159,2.888,0.028064,-1.514207,2.025371,101829.26
74874,8.465,-6.882,3.068,-0.045367,-1.427473,1.884894,101834.48
74885,8.131,-6.690,3.440,-0.149661,-1.343932,1.766765,101834.48
74895,7.322,-5.881,4.361,-0.252358,-1.219418,1.628417,101833.55
74904,7.424,-4.390,4.385,-0.151257,-1.157693,1.471444,101832.98
74914,6.854,-4.150,2.918,0.034449,-1.251345,1.227206,101833.09
74925,5.099,-5.680,1.394,0.162688,-1.300831,1.006913,101830.49
74935,4.722,-6.416,1.622,0.237183,-1.256666,0.807371,101830.40
74944,5.254,-4.473,2.702,0.525587,-1.273693,0.549298,101830.20
74954,5.408,-2.230,3.080,0.757054,-1.280079,0.197574,101830.20
74964,5.342,-0.838,2.925,0.867733,-1.274225,-0.128610,101830.49
74974,5.088,0.029,2.582,1.013531,-1.333822,-0.430316,101830.49
74984,4.712,0.334,2.400,1.288632,-1.434391,-0.747453,101833.44
74994,4.646,-0.123,2.394,1.623861,-1.498776,-1.052352,101829.98
75004,4.691,-1.162,2.503,1.896833,-1.525913,-1.341820,101830.75
75015,4.671,-2.384,2.644,2.058595,-1.545601,-1.622242,101829.41
75024,4.462,-3.568,2.686,2.131494,-1.551987,-1.892553,101829.41
75034,4.234,-4.545,2.663,2.149585,-1.539216,-2.149030,101830.52
75044,4.116,-5.224,2.505,2.131494,-1.507290,-2.386883,101830.41
75055,4.255,-5.435,2.540,2.085732,-1.448225,-2.612498,101830.61
75065,4.511,-5.382,2.856,2.052209,-1.380115,-2.832791,101830.61
75074,4.825,-5.126,3.239,2.058595,-1.307216,-3.049360,101830.61
75084,5.052,-4.994,3.556,2.095310,-1.232189,-3.264333,101830.32
75095,5.240,-5.196,3.782,2.117127,-1.133216,-3.466002,101829.18
75105,5.458,-5.202,4.020,2.112870,-1.024134,-3.640534,101825.16
75114,5.916,-5.233,4.103,2.109145,-0.917180,-3.784736,101826.04
75124,6.429,-5.582,4.154,2.095310,-0.807565,-3.918828,101826.04
75134,6.905,-6.240,4.197,2.109677,-0.692097,-4.046534,101828.38
75145,7.346,-6.925,4.157,2.119787,-0.550556,-4.177965,101827.75
75155,7.713,-7.473,4.100,2.097439,-0.397309,-4.305139,101827.34
75164,8.020,-7.786,3.918,2.086264,-0.260556,-4.417946,101827.34
75174,8.451,-7.923,3.630,2.114466,-0.147217,-4.496167,101828.46
75185,8.952,-8.139,3.335,2.208117,-0.056226,-4.529157,101831.93
75194,9.472,-8.856,3.237,2.334228,0.015076,-4.525433,101831.93
75204,9.837,-9.887,3.246,2.411916,0.065627,-4.503084,101827.43
75214,9.945,-10.923,3.186,2.417237,0.115113,-4.473286,101828.41
75225,9.906,-12.052,3.086,2.356576,0.196526,-4.429653,101828.41
75235,9.851,-13.276,2.840,2.222484,0.318911,-4.365268,101833.55
75244,9.819,-14.328,2.464,2.020815,0.464177,-4.268424,101833.44
75254,9.909,-15.159,2.339,1.786155,0.594544,-4.123690,101828.48
75265,9.989,-15.835,2.384,1.524889,0.681810,-3.916699,101830.14
75275,9.572,-16.073,2.389,1.217329,0.731296,-3.633085,101833.11
75285,8.770,-15.508,2.377,0.896999,0.800470,-3.261140,101829.81
75294,8.149,-14.481,2.572,0.691605,0.896782,-2.804058,101830.13
75304,7.823,-13.696,2.511,0.621366,0.984580,-2.310260,101832.28
75315,7.939,-13.495,1.679,0.545807,1.058544,-1.844664,101832.28
75324,7.880,-13.744,0.469,0.417036,1.089406,-1.453563,101832.28
75334,7.507,-14.104,-0.644,0.195146,1.073975,-1.171545,101833.91
75344,7.359,-13.848,-0.685,-0.099642,0.985645,-0.961893,101835.77
75350,7.294,-12.738,-0.140,-0.334835,0.879755,-0.785233,101834.78
75360,7.251,-11.625,0.405,-0.472119,0.771737,-0.538334,101832.92
75369,7.189,-10.738,0.777,-0.424761,0.632856,-0.147233,101832.92
75379,7.536,-9.700,2.292,-0.104964,0.523773,0.245464,101836.05
75389,9.108,-8.948,0.124,0.439385,0.336471,0.619005,101832.64
75400,9.515,-8.406,-0.263,1.057164,-0.053034,1.133555,101833.36
75409,14.649,0.581,1.406,1.610026,-0.370703,1.333096,101832.53
75419,19.314,11.497,0.167,1.795200,-0.606428,0.964344,101832.53
75429,18.156,4.965,-2.618,1.985696,-0.473932,1.028197,101832.95
75440,14.551,-6.336,-6.040,1.960687,-0.336648,1.590105,101836.20
75450,9.268,-9.826,-2.664,1.620136,-0.160520,1.899793,101837.14
75459,8.704,-9.353,2.661,0.904981,0.269957,1.914160,101833.06
75469,11.384,-8.425,4.789,0.435305,0.528562,1.983511,101833.06
75480,10.402,-6.073,5.511,0.288266,0.302948,1.975352,101832.83
75490,7.620,-3.611,6.591,0.259000,0.084783,1.850839,101833.45
75499,7.153,-2.193,6.409,0.082339,0.033700,1.733775,101830.16
75509,7.657,-2.917,5.116,-0.112945,-0.051969,1.656619,101830.67
75520,8.573,-4.027,2.590,-0.284817,-0.134446,1.574142,101830.67
75530,9.489,-3.584,0.310,-0.339624,-0.140300,1.492197,101835.40
75539,9.745,-2.479,-0.796,-0.143808,-0.126465,1.449096,101835.80
75549,9.564,-2.425,-0.710,0.207385,-0.114758,1.449628,101833.49
75559,9.435,-3.523,0.028,0.502174,-0.092942,1.451756,101833.34
75570,9.283,-4.232,1.312,0.584119,-0.062612,1.416637,101833.34
75580,8.955,-4.148,2.526,0.478229,-0.046116,1.327243,101835.62
75589,8.533,-4.153,3.305,0.320724,-0.053566,1.225078,101835.98
75599,8.490,-4.355,3.265,0.135550,-0.056226,1.132491,101829.79
75610,8.617,-4.360,2.752,-0.078358,-0.041859,1.060124,101833.65
75620,8.937,-3.835,2.036,-0.245973,-0.023768,1.009041,101833.65
75629,9.189,-3.305,1.740,-0.262468,-0.024300,0.985096,101835.81
75639,9.205,-3.295,1.708,-0.179991,-0.045052,0.982436,101832.05
75650,9.022,-3.658,1.668,-0.141147,-0.047180,0.974986,101835.77
75660,8.816,-3.579,1.762,-0.200743,-0.022171,0.966472,101835.88
75669,8.718,-3.464,1.923,-0.284817,0.008691,0.964876,101835.88
75679,8.771,-3.516,2.065,-0.303440,0.015609,0.965940,101836.04
75689,8.663,-3.584,2.091,-0.253422,0.001774,0.968601,101833.62
75700,8.519,-3.833,2.119,-0.170945,-0.022703,0.969133,101834.96
75710,8.447,-4.233,2.212,-0.116670,-0.047180,0.963812,101832.12
75719,8.325,-4.500,2.271,-0.134762,-0.052501,0.948913,101832.12
75729,8.430,-4.667,2.249,-0.226285,-0.037602,0.932949,101834.18
75740,8.737,-4.467,1.971,-0.315147,-0.022171,0.922839,101833.15
75750,8.868,-4.155,1.950,-0.320468,-0.025896,0.920179,101833.46
75759,8.746,-4.338,1.868,-0.265129,-0.049841,0.922839,101832.95
75769,8.736,-4.700,1.824,-0.257679,-0.052501,0.924436,101832.95
75780,8.684,-4.872,1.886,-0.296523,-0.045584,0.920711,101835.05
75790,8.645,-5.013,1.939,-0.340156,-0.043456,0.913793,101832.98
75799,8.652,-5.065,1.961,-0.388578,-0.040795,0.906876,101835.56
75809,8.791,-5.046,1.867,-0.429550,-0.043988,0.907408,101832.16
75820,8.861,-5.067,1.719,-0.450835,-0.057290,0.913793,101832.16
75830,8.906,-5.141,1.759,-0.477440,-0.064740,0.926032,101834.09
75840,8.918,-5.199,1.788,-0.498725,-0.072190,0.943059,101832.91
75849,9.000,-5.150,1.934,-0.516816,-0.086557,0.968601,101831.27
75859,9.202,-5.257,2.227,-0.541826,-0.100391,1.007445,101833.94
75870,9.620,-5.171,2.119,-0.597165,-0.108373,1.052142,101833.94
75880,9.878,-5.196,2.120,-0.664743,-0.117419,1.111738,101836.69
75889,10.103,-5.152,2.063,-0.714761,-0.153070,1.184637,101832.66
75899,10.107,-5.168,2.117,-0.742431,-0.191914,1.261261,101834.47
75910,9.906,-5.237,2.014,-0.774358,-0.217988,1.343206,101833.64
75920,9.820,-5.314,1.704,-0.814266,-0.235547,1.423555,101833.64
75930,9.874,-5.320,1.380,-0.843532,-0.277052,1.504967,101834.97
75939,10.168,-5.315,1.295,-0.839275,-0.343566,1.585316,101832.33
75950,10.502,-5.638,1.139,-0.808945,-0.413804,1.663004,101833.94
75960,10.649,-5.766,0.976,-0.803624,-0.465419,1.735903,101828.36
75970,10.653,-5.741,0.893,-0.824376,-0.516501,1.802417,101828.36
75979,10.839,-5.682,1.138,-0.858963,-0.581419,1.890747,101833.05
75990,11.312,-5.715,1.747,-0.905789,-0.655382,1.981738,101833.16
76000,12.171,-5.974,2.692,-1.003165,-0.718703,2.077518,101833.16
76010,13.462,-6.105,3.687,-1.188339,-0.741051,2.165848,101830.78
76019,14.820,-6.040,4.327,-1.436834,-0.704336,2.254178,101830.78
76029,16.182,-5.388,4.561,-1.730559,-0.627712,2.345701,101832.88
76040,17.321,-3.975,4.771,-2.033329,-0.537253,2.456912,101833.30
76050,17.869,-3.099,4.728,-2.253623,-0.443070,2.601645,101831.80
76059,17.930,-3.336,4.574,-2.338760,-0.407419,2.743187,101830.14
76069,17.393,-5.143,4.965,-2.261072,-0.432960,2.915058,101830.14
76080,17.438,-7.070,5.286,-2.042375,-0.510648,3.056067,101834.87
76090,18.229,-6.414,5.484,-1.931164,-0.614941,3.014563,101833.21
76100,17.193,-4.816,5.366,-1.935421,-0.602171,2.840563,101832.13
76109,15.010,-3.406,5.261,-1.632651,-0.561731,2.675077,101830.43
76120,12.187,-2.681,4.914,-1.054247,-0.599510,2.520233,101830.43
76130,9.119,-2.560,4.569,-0.408798,-0.664428,2.364325,101832.23
76140,6.197,-3.663,3.578,0.161623,-0.662831,2.128600,101832.28
76149,4.586,-5.535,1.599,0.309018,-0.577694,1.806141,101829.70
76160,2.313,-8.407,-1.376,-0.052285,-0.412740,1.383646,101831.16
76170,1.808,-8.666,-1.619,-0.780211,-0.026960,1.062252,101831.16
76180,3.705,-3.164,0.247,-1.051055,0.210361,0.649335,101833.18
76189,4.832,1.099,0.355,-0.775422,0.216746,0.151812,101830.45
76199,4.503,2.599,-0.172,-0.189569,0.114049,-0.216940,101830.20
76210,3.687,2.453,-0.537,0.531440,-0.004080,-0.465435,101830.80
76220,3.156,1.632,-0.215,1.218393,-0.068997,-0.668169,101830.80
76230,3.127,0.554,-0.142,1.758485,-0.090281,-0.915600,101828.99
76239,3.361,-0.453,-0.227,2.076686,-0.067401,-1.208260,101828.26
76250,3.582,-1.579,-0.124,2.230466,-0.007804,-1.489214,101829.29
76260,3.553,-2.783,-0.199,2.263457,0.064031,-1.751012,101827.29
76270,3.388,-4.035,-0.537,2.183640,0.157682,-2.007489,101827.29
76279,3.370,-4.931,-0.930,1.988888,0.278471,-2.256516,101830.96
76290,3.635,-5.401,-1.187,1.679201,0.408838,-2.524700,101830.60
76300,3.983,-5.699,-1.355,1.304595,0.528562,-2.805654,101828.02
76310,4.194,-5.990,-1.418,0.927329,0.653076,-3.064259,101827.04
76319,4.345,-6.174,-1.431,0.569752,0.808984,-3.279232,101827.04
76329,4.546,-5.874,-1.346,0.292522,0.967021,-3.428754,101831.21
76340,5.150,-5.160,-1.232,0.224412,1.078232,-3.537305,101826.91
76350,6.050,-4.793,-1.110,0.384045,1.112819,-3.624571,101825.79
76360,6.954,-5.214,-1.211,0.688412,1.068654,-3.698534,101828.41
76369,7.558,-6.308,-1.565,1.035880,0.967021,-3.752277,101828.41
76380,7.638,-7.609,-1.670,1.341843,0.852085,-3.791653,101830.98
76390,7.506,-8.566,-1.464,1.518503,0.775993,-3.822515,101830.63
76400,7.414,-9.147,-1.177,1.587678,0.736085,-3.860827,101826.13
76409,7.492,-9.531,-0.926,1.540852,0.744067,-3.909782,101829.33
76421,7.780,-9.723,-0.706,1.334926,0.806678,-3.979311,101829.33
76430,8.126,-9.711,-0.458,1.032155,0.903700,-4.041213,101831.87
76440,8.607,-9.453,-0.127,0.606467,1.031938,-4.101873,101832.70
76449,9.186,-9.059,0.052,0.170669,1.151663,-4.148167,101831.09
76460,9.758,-8.618,0.141,-0.184780,1.252232,-4.174240,101830.48
76470,10.240,-8.115,0.208,-0.425826,1.329388,-4.183286,101830.48
76480,10.681,-7.568,0.289,-0.532248,1.380470,-4.155616,101833.16
76490,11.107,-7.304,0.356,-0.493936,1.398030,-4.089635,101833.06
76499,11.308,-7.495,0.304,-0.380596,1.380470,-3.986405,101831.31
76510,11.169,-7.777,0.190,-0.299716,1.363443,-3.857635,101830.73
76520,11.108,-8.090,0.012,-0.288541,1.375149,-3.712901,101830.73
76530,11.182,-8.312,-0.142,-0.319404,1.393773,-3.567635,101832.61
76539,11.115,-8.624,-0.306,-0.346541,1.385259,-3.421837,101831.73
76550,10.841,-9.022,-0.391,-0.385385,1.359718,-3.272314,101830.44
76560,10.413,-9.308,-0.529,-0.444450,1.317681,-3.101507,101832.09
76570,9.891,-9.368,-0.523,-0.527459,1.275112,-2.880149,101832.09
76580,9.346,-9.578,-0.436,-0.625899,1.231479,-2.606645,101836.33
76590,8.791,-9.911,-0.318,-0.742431,1.176672,-2.309727,101831.73
76600,8.402,-10.411,-0.377,-0.854706,1.088874,-2.013342,101831.78
76610,7.944,-10.944,-0.697,-0.979220,0.977131,-1.700462,101834.11
76619,7.451,-11.268,-1.105,-1.124486,0.869113,-1.347673,101834.11
76630,7.178,-11.342,-1.449,-1.259642,0.757902,-0.952848,101834.59
76640,7.080,-11.509,-1.428,-1.352761,0.624342,-0.516518,101837.12
76650,6.918,-11.466,-1.455,-1.373513,0.454599,-0.076995,101833.76
76660,6.678,-11.004,-1.626,-1.293165,0.260379,0.347097,101835.52
76669,6.838,-10.277,-1.742,-1.085110,0.044875,0.746711,101835.52
76680,6.884,-7.592,3.554,-0.669000,-0.074850,1.037243,101833.28
76690,9.392,-0.017,8.941,-0.333239,0.048067,1.003720,101831.94
76700,13.773,8.594,11.620,-0.285349,0.358287,0.576968,101831.83
76709,17.010,10.556,9.315,-0.352395,0.415223,0.335922,101830.64
76720,18.528,4.790,5.512,0.156302,0.050196,0.521629,101830.64
76730,18.187,-3.876,0.937,0.667660,-0.437217,1.089390,101837.27
76740,16.992,-6.610,-1.263,0.937440,-0.692097,1.634802,101834.24
76750,13.877,-5.558,-2.045,0.857623,-0.673474,1.855096,101835.63
76760,9.764,-5.904,-0.399,0.687880,-0.477125,1.973224,101831.96
76770,8.302,-4.556,1.820,0.404266,-0.302061,1.985462,101831.96
76776,8.029,-2.697,4.437,0.202596,-0.237676,1.934912,101835.91
76785,7.371,-2.098,7.401,0.153110,-0.221180,1.891279,101835.91
76795,6.850,-3.099,8.673,0.284541,-0.288758,1.840729,101829.77
76805,6.784,-5.157,6.086,0.262192,-0.462226,1.724197,101831.63
76815,7.778,-6.356,3.341,-0.009184,-0.519694,1.564564,101830.86
76825,8.937,-5.462,2.262,-0.349202,-0.457437,1.420362,101833.99
76835,8.918,-3.974,1.453,-0.458284,-0.363254,1.295848,101832.91
76846,8.895,-3.116,0.244,-0.336431,-0.278116,1.203261,101834.20
76855,9.672,-3.028,0.094,-0.179991,-0.190850,1.160160,101834.20
76865,10.146,-3.589,0.826,-0.087404,-0.116887,1.139408,101833.84
76875,9.376,-4.257,1.995,-0.094321,-0.068465,1.109610,101833.84
76884,8.283,-4.668,3.207,-0.211918,-0.038667,1.047885,101835.61
76895,7.829,-4.397,3.921,-0.394431,-0.036006,0.960619,101832.72
76905,7.993,-3.927,4.094,-0.548743,-0.026428,0.861647,101833.80
76915,8.452,-3.310,3.833,-0.623238,-0.021639,0.776509,101831.89
76925,8.860,-2.949,3.197,-0.580138,-0.036006,0.717977,101831.89
76935,9.310,-2.806,2.612,-0.461477,-0.045052,0.701482,101835.16
76945,9.237,-2.844,2.734,-0.379000,-0.058355,0.701482,101833.13
76955,8.745,-2.827,3.205,-0.362505,-0.076446,0.700417,101831.60
76965,8.484,-3.092,3.615,-0.369422,-0.083896,0.703610,101831.60
76975,8.337,-3.189,3.824,-0.373679,-0.108373,0.707335,101831.60
76985,8.288,-3.058,3.548,-0.364101,-0.138703,0.713188,101833.63
76995,8.554,-2.943,3.148,-0.302376,-0.162116,0.726491,101833.99
77005,8.848,-2.872,2.972,-0.187441,-0.206281,0.746179,101834.82
77016,8.711,-3.082,3.033,-0.078713,-0.241223,0.770301,101831.96
77025,8.520,-3.516,3.063,-0.031000,-0.249382,0.785023,101831.96
77035,8.360,-3.936,2.991,-0.033661,-0.253639,0.787683,101837.63
77045,8.385,-4.265,2.743,-0.072505,-0.248318,0.781830,101832.84
77056,8.526,-4.345,2.315,-0.140083,-0.235015,0.775445,101831.74
77065,8.482,-4.114,2.171,-0.210321,-0.214795,0.774913,101831.74
77075,8.507,-3.971,2.274,-0.251294,-0.196171,0.786087,101833.66
77085,8.582,-3.804,2.318,-0.245973,-0.187125,0.806307,101832.52
77095,8.580,-4.085,2.314,-0.221496,-0.183400,0.833977,101832.52
77105,8.542,-4.309,2.514,-0.247037,-0.164777,0.856326,101832.78
77115,8.409,-4.360,2.627,-0.302376,-0.141364,0.866968,101833.55
77125,8.396,-4.448,2.650,-0.327918,-0.134446,0.870160,101833.55
77135,8.366,-4.581,2.596,-0.318340,-0.139235,0.865371,101833.80
77145,8.329,-4.761,2.504,-0.310358,-0.139235,0.853133,101833.34
77155,8.348,-4.981,2.299,-0.308762,-0.125933,0.836105,101832.09
77165,8.399,-5.180,2.190,-0.324193,-0.106245,0.817482,101833.48
77175,8.400,-5.302,2.292,-0.375807,-0.071125,0.800986,101833.27
77186,8.378,-5.340,2.372,-0.444982,-0.028024,0.782894,101831.68
77195,8.289,-5.248,2.326,-0.510431,0.012416,0.770656,101831.37
77205,8.065,-5.182,2.438,-0.565238,0.045407,0.767995,101830.85
77215,7.986,-5.207,2.656,-0.620046,0.075737,0.773316,101830.85
77224,8.075,-5.391,2.864,-0.679642,0.103939,0.778105,101830.85
77235,8.399,-5.546,2.767,-0.754137,0.130012,0.782362,101832.78
77245,8.441,-5.767,2.906,-0.837147,0.152361,0.793537,101834.44
77250,8.467,-5.670,3.041,-0.906321,0.168856,0.804711,101834.08
77260,8.531,-5.482,3.088,-0.972302,0.173113,0.818546,101832.02
77270,8.737,-5.263,3.097,-1.023917,0.155021,0.851537,101832.02
77280,8.743,-5.210,2.918,-1.028174,0.122031,0.893573,101832.66
77290,8.654,-5.110,2.578,-1.027642,0.095425,0.944124,101831.95
77300,8.657,-5.243,2.150,-1.035091,0.069884,1.001059,101830.87
77310,8.830,-5.517,1.668,-1.036156,0.036361,1.062252,101832.88
77320,9.079,-5.709,1.358,-1.048394,-0.002483,1.106949,101832.88
77330,9.161,-5.748,1.530,-1.065422,-0.047180,1.142068,101833.86
77340,9.040,-6.124,1.703,-1.054247,-0.092410,1.180912,101832.88
77350,8.713,-6.707,1.805,-1.086174,-0.105712,1.201665,101829.84
77360,8.794,-7.004,1.989,-1.191000,-0.099859,1.204857,101831.23
77371,9.137,-7.386,1.887,-1.324914,-0.094716,1.191023,101831.23
77380,9.591,-7.313,1.852,-1.442687,-0.083364,1.178784,101833.46
77390,10.449,-6.583,1.752,-1.524100,-0.097731,1.176124,101831.13
77401,10.895,-6.337,1.726,-1.483128,-0.146153,1.188894,101833.10
77410,10.646,-6.056,1.691,-1.401183,-0.186061,1.218692,101833.04
77420,10.237,-5.619,1.656,-1.336798,-0.203089,1.263922,101833.04
77430,10.136,-5.737,1.792,-1.271348,-0.244593,1.311279,101833.13
77441,10.437,-5.951,2.299,-1.192596,-0.316960,1.330967,101833.91
77450,10.327,-6.453,2.882,-1.098412,-0.372832,1.328839,101830.66
77460,9.219,-7.575,3.213,-1.001568,-0.370171,1.303830,101829.78
77470,7.513,-8.662,3.313,-0.963257,-0.301529,1.260197,101829.78
77480,6.056,-9.106,3.331,-1.005825,-0.176483,1.201133,101831.45
77491,5.035,-8.935,3.156,-1.113844,-0.015963,1.125396,101833.78
77500,4.337,-8.505,2.618,-1.226119,0.115645,1.039903,101830.38
77510,3.757,-8.403,2.209,-1.354889,0.257186,0.938803,101832.44
77520,3.651,-8.400,2.122,-1.482596,0.384893,0.844619,101832.44
77531,3.656,-8.135,2.159,-1.583164,0.482801,0.763738,101832.66
77540,3.869,-7.733,2.130,-1.640100,0.566874,0.698289,101830.90
77550,3.973,-7.658,2.127,-1.635843,0.634984,0.644014,101831.21
77560,4.133,-7.570,1.931,-1.593274,0.687663,0.615280,101832.51
77571,4.274,-7.417,1.480,-1.515586,0.722250,0.600913,101832.51
77580,4.388,-7.206,1.129,-1.447476,0.739278,0.592931,101832.70
77590,4.601,-6.925,0.787,-1.394798,0.739278,0.584950,101833.21
77600,4.753,-6.774,0.435,-1.352761,0.720654,0.575904,101829.96
77611,4.718,-6.966,0.045,-1.308064,0.694049,0.576436,101833.93
77620,4.671,-7.194,-0.179,-1.265495,0.677021,0.580693,101833.93
77630,4.732,-7.102,-0.330,-1.201110,0.666911,0.570583,101833.20
77640,5.133,-6.329,-0.747,-1.152156,0.660526,0.521629,101831.55
77650,5.694,-5.035,-1.585,-1.131935,0.642434,0.420528,101830.83
77661,5.210,-5.150,-1.967,-1.049458,0.624342,0.343904,101830.00
77670,5.489,-4.937,-1.227,-0.904724,0.644562,0.350821,101830.00
77680,6.175,-3.723,-1.023,-0.687092,0.591351,0.261427,101833.34
77690,6.262,-3.206,-0.917,-0.408266,0.514728,0.145959,101832.00
77701,6.175,-3.298,-0.873,-0.135826,0.458324,0.042198,101831.28
77710,5.803,-3.972,-0.976,0.064247,0.424269,-0.054646,101831.95
77720,5.485,-4.879,-1.018,0.154174,0.424269,-0.149894,101831.95
77730,5.257,-5.820,-1.144,0.139275,0.452471,-0.253655,101831.63
77741,5.136,-6.382,-1.281,0.017422,0.504085,-0.368591,101832.05
77750,5.175,-6.513,-1.382,-0.143275,0.566342,-0.492041,101832.41
77760,5.260,-6.370,-1.428,-0.283752,0.620085,-0.614426,101831.27
77770,5.345,-6.207,-1.433,-0.370486,0.658397,-0.716591,101831.27
77780,5.362,-6.271,-1.500,-0.376872,0.677553,-0.780976,101832.45
77791,5.235,-6.572,-1.588,-0.334303,0.692452,-0.830462,101833.28
77800,5.221,-6.808,-1.628,-0.284285,0.713204,-0.876756,101831.98
77810,5.290,-7.026,-1.767,-0.241716,0.727571,-0.915068,101829.09
77820,5.270,-7.314,-2.016,-0.206596,0.723847,-0.931031,101829.09
77831,5.276,-7.558,-2.068,-0.182119,0.708416,-0.931563,101832.53
77840,5.344,-7.824,-2.019,-0.131037,0.681278,-0.921453,101831.09
77846,5.365,-8.079,-2.111,-0.081551,0.654140,-0.911875,101831.50
77855,5.374,-8.326,-2.286,-0.046964,0.626471,-0.902829,101831.50
77865,5.507,-8.545,-2.439,-0.042175,0.594544,-0.899637,101830.98
77876,5.642,-8.546,-2.452,-0.065055,0.556764,-0.909215,101830.98
77886,5.774,-8.257,-2.433,-0.081019,0.516324,-0.909747,101833.74
77895,5.894,-7.808,-2.448,-0.068780,0.468434,-0.906022,101831.20
77905,6.018,-7.541,-2.375,-0.015037,0.416819,-0.898040,101832.35
77916,5.988,-7.586,-2.225,0.075422,0.366801,-0.873031,101832.35
77925,5.801,-7.824,-2.237,0.152578,0.325296,-0.840572,101832.35
77935,5.683,-7.968,-2.294,0.166412,0.305608,-0.816628,101831.49
77945,5.791,-7.953,-2.275,0.147789,0.297095,-0.798536,101831.40
77956,6.052,-7.834,-2.274,0.111605,0.290709,-0.786829,101831.60
77966,6.388,-7.642,-2.299,0.059281,0.282728,-0.783814,101832.66
77975,6.624,-7.518,-2.216,0.030192,0.267296,-0.784169,101832.66
77985,6.715,-7.409,-2.154,0.020614,0.240691,-0.785765,101834.36
77996,6.756,-7.456,-2.169,0.033385,0.212489,-0.770866,101834.09
78006,6.729,-7.749,-2.102,0.080743,0.174177,-0.735215,101832.91
78016,6.610,-8.036,-2.082,0.154706,0.124691,-0.675618,101833.14
78025,6.417,-8.414,-2.019,0.251018,0.068820,-0.595802,101832.31
78035,6.302,-8.786,-1.962,0.317532,0.023590,-0.504279,101831.59
78046,6.341,-8.933,-1.844,0.318596,-0.005676,-0.413820,101831.59
78055,6.416,-8.891,-1.746,0.279752,-0.031217,-0.327619,101831.80
78065,6.418,-8.730,-1.591,0.231330,-0.065272,-0.245142,101831.75
78075,6.282,-8.668,-1.402,0.181312,-0.099859,-0.166389,101831.75
78086,6.264,-8.583,-1.225,0.138743,-0.130190,-0.099876,101834.52
78095,6.372,-8.561,-0.974,0.117990,-0.147217,-0.039215,101831.72
78105,6.322,-8.582,-0.832,0.100431,-0.148813,0.007611,101834.31
78115,6.222,-8.609,-0.735,0.087660,-0.139767,0.043794,101833.22
78126,6.162,-8.711,-0.670,0.073825,-0.128061,0.087427,101836.56
78136,6.246,-8.682,-0.674,0.047220,-0.111566,0.129464,101835.11
78145,6.431,-8.558,-0.677,0.004119,-0.090281,0.168308,101834.59
78155,6.630,-8.256,-0.701,-0.042175,-0.080703,0.203959,101835.94
78166,6.818,-7.963,-0.561,-0.073569,-0.084428,0.240142,101835.94
78176,6.837,-7.745,-0.429,-0.083147,-0.090281,0.275794,101835.94
78185,6.671,-7.589,-0.295,-0.084211,-0.089217,0.301867,101838.55
78195,6.483,-7.440,-0.151,-0.091129,-0.075382,0.315702,101837.68
78205,6.299,-7.370,-0.072,-0.097514,-0.056758,0.323684,101836.70
78216,6.202,-7.336,-0.126,-0.095918,-0.044520,0.333794,101834.74
78226,6.270,-7.217,-0.199,-0.098578,-0.035474,0.347097,101834.74
78235,6.390,-7.114,-0.216,-0.104964,-0.023768,0.359335,101836.98
78245,6.599,-7.053,-0.199,-0.120395,-0.009401,0.358271,101835.40
78256,6.660,-6.943,-0.209,-0.146468,0.008159,0.344436,101833.15
78266,6.675,-6.884,-0.261,-0.175202,0.026783,0.331665,101833.15
78276,6.799,-6.739,-0.377,-0.209257,0.041150,0.313042,101836.30
78285,6.944,-6.542,-0.453,-0.235863,0.047535,0.297078,101836.30
78296,7.063,-6.304,-0.544,-0.230009,0.039554,0.289097,101834.23
78306,7.106,-6.226,-0.574,-0.183184,0.020398,0.292289,101832.89
78315,7.080,-6.417,-0.589,-0.115606,-0.001419,0.300803,101831.95
78321,7.076,-6.604,-0.593,-0.067716,-0.020575,0.305592,101831.95
78330,7.069,-6.750,-0.636,-0.034193,-0.038667,0.307188,101833.97
78341,7.200,-6.785,-0.644,-0.001202,-0.065804,0.306124,101830.45
78351,7.293,-6.717,-0.624,0.028064,-0.095070,0.302399,101831.23
78360,7.389,-6.551,-0.617,0.052009,-0.128593,0.298675,101829.69
78370,7.430,-6.451,-0.519,0.087660,-0.170098,0.300803,101829.69
78381,7.376,-6.465,-0.497,0.133954,-0.214263,0.301867,101832.78
78391,7.190,-6.528,-0.501,0.166412,-0.244061,0.294950,101833.05
78400,7.167,-6.456,-0.398,0.178651,-0.255767,0.275794,101831.66
78410,7.208,-6.346,-0.355,0.196211,-0.261621,0.248656,101831.34
78420,7.113,-6.319,-0.324,0.228669,-0.265878,0.225776,101831.34
78431,6.940,-6.317,-0.350,0.267513,-0.266942,0.200234,101832.25
78441,7.006,-6.346,-0.387,0.300504,-0.266942,0.176821,101829.31
78450,7.098,-6.414,-0.424,0.340944,-0.277052,0.153941,101831.17
78460,7.124,-6.434,-0.434,0.379788,-0.291419,0.131592,101831.73
78471,7.155,-6.354,-0.444,0.406926,-0.305254,0.111372,101831.73
78481,7.184,-6.335,-0.489,0.420761,-0.316960,0.091684,101834.62
78490,7.119,-6.343,-0.460,0.420229,-0.322281,0.078381,101829.91
78500,6.989,-6.334,-0.503,0.408522,-0.323877,0.067739,101832.55
78511,6.994,-6.257,-0.435,0.393623,-0.327602,0.062418,101828.52
78521,7.028,-6.299,-0.413,0.396284,-0.341437,0.064014,101828.52
78530,7.005,-6.426,-0.399,0.404798,-0.351547,0.067207,101835.56
78540,7.049,-6.382,-0.397,0.407458,-0.357933,0.061886,101833.25
78551,7.098,-6.252,-0.418,0.409587,-0.360061,0.058161,101831.55
78561,7.167,-6.214,-0.528,0.423954,-0.364318,0.057629,101829.42
78570,7.256,-6.267,-0.610,0.437256,-0.366446,0.054436,101829.42
78580,7.239,-6.256,-0.598,0.444706,-0.366978,0.043794,101832.59
78590,7.389,-6.179,-0.502,0.446834,-0.371235,0.029427,101833.16
78601,7.752,-6.152,-0.472,0.472908,-0.392520,0.021977,101829.49
78611,7.947,-6.281,-0.440,0.523990,-0.423914,0.026234,101829.91
78620,8.075,-6.368,-0.362,0.571880,-0.457969,0.034748,101829.91
78630,8.150,-6.402,-0.277,0.612853,-0.497345,0.051776,101830.98
78641,8.278,-6.508,-0.223,0.652229,-0.544171,0.075188,101829.70
78651,8.337,-6.565,-0.088,0.685219,-0.602171,0.100198,101831.40
78660,8.293,-6.544,0.006,0.713953,-0.656978,0.123078,101831.80
