50040,7.572,-5.637,1.835,0.008272,0.013402,-0.024006,101698.86
50050,7.589,-5.637,1.887,0.009336,0.011274,-0.023474,101698.86
50060,7.561,-5.663,1.882,0.009336,0.008613,-0.022942,101699.78
50070,7.540,-5.670,1.860,0.008804,0.007017,-0.022942,101699.58
50079,7.572,-5.647,1.893,0.006676,0.007549,-0.022410,101698.95
50089,7.577,-5.656,1.877,0.006143,0.005953,-0.020813,101703.16
50100,7.583,-5.640,1.882,0.007208,0.004356,-0.019749,101701.10
50110,7.585,-5.632,1.872,0.007208,0.002228,-0.017089,101697.57
50119,7.595,-5.604,1.935,0.005611,0.000632,-0.014960,101697.57
50129,7.586,-5.665,1.856,0.008272,-0.003625,-0.012832,101698.95
50140,7.558,-5.676,1.844,0.009868,-0.005222,-0.011768,101698.95
50150,7.547,-5.677,1.854,0.009336,-0.004689,-0.011768,101700.67
50159,7.547,-5.658,1.852,0.009868,-0.003093,-0.012832,101700.42
50169,7.535,-5.637,1.842,0.011465,-0.004689,-0.010703,101701.28
50180,7.540,-5.631,1.842,0.014657,-0.007350,-0.008575,101697.34
50190,7.544,-5.620,1.866,0.015721,-0.008946,-0.005914,101697.34
50200,7.532,-5.651,1.899,0.014125,-0.008414,-0.003786,101702.95
50209,7.560,-5.678,1.885,0.010932,-0.010011,-0.002190,101701.10
50220,7.595,-5.601,1.926,0.008272,-0.010011,-0.001125,101697.87
50230,7.611,-5.684,1.927,0.013593,-0.013203,0.000471,101697.87
50240,7.578,-5.762,1.825,0.016786,-0.015864,0.000471,101697.87
50249,7.554,-5.716,1.830,0.013593,-0.014800,-0.000593,101701.45
50259,7.514,-5.704,1.825,0.010932,-0.013203,-0.001125,101704.22
50270,7.516,-5.639,1.841,0.010400,-0.012139,-0.000061,101699.86
50280,7.509,-5.629,1.858,0.017318,-0.016396,0.003131,101698.22
50289,7.541,-5.670,1.860,0.020510,-0.020653,0.008453,101698.22
50299,7.463,-5.684,1.853,0.017318,-0.023313,0.015370,101701.17
50310,7.426,-5.654,1.860,0.010932,-0.023845,0.024416,101698.50
50320,7.583,-5.706,1.830,-0.002902,-0.023845,0.037186,101700.81
50330,7.601,-5.638,1.883,-0.014609,-0.020653,0.047297,101698.91
50339,7.582,-5.453,1.981,-0.020462,-0.018524,0.057407,101701.27
50350,7.845,-5.121,2.243,-0.011416,-0.026506,0.069645,101697.58
50360,7.799,-5.615,2.062,0.033813,-0.047790,0.081884,101697.58
50370,7.571,-5.996,1.718,0.054565,-0.060029,0.084544,101701.22
50379,7.453,-5.936,1.640,0.041795,-0.050983,0.071774,101698.77
50390,7.410,-5.913,1.662,0.031153,-0.037680,0.059003,101698.77
50400,7.447,-5.897,1.637,0.032749,-0.027038,0.047297,101702.06
50410,7.534,-5.923,1.612,0.037538,-0.020121,0.036654,101699.59
50420,7.475,-6.021,1.595,0.039134,-0.010011,0.026012,101700.16
50429,7.380,-5.842,1.710,0.030088,0.001696,0.016434,101698.52
50440,7.434,-5.742,1.791,0.024767,0.008613,0.011645,101698.52
50450,7.456,-5.700,1.899,0.029556,0.003292,0.009517,101699.98
50460,7.362,-5.722,1.957,0.039134,-0.008946,0.008985,101698.48
50469,7.424,-5.628,2.062,0.048180,-0.014267,0.007920,101698.07
50480,7.591,-5.504,2.200,0.056694,-0.022249,0.005260,101698.07
50490,7.567,-5.917,1.917,0.082235,-0.031827,0.000471,101698.07
50500,7.497,-6.060,1.601,0.083831,-0.030763,-0.005914,101700.91
50509,7.464,-5.948,1.586,0.065208,-0.014800,-0.013896,101700.70
50520,7.491,-5.863,1.659,0.047648,0.003824,-0.017621,101699.88
50530,7.546,-5.722,1.668,0.039134,0.016063,-0.015492,101698.24
50540,7.547,-5.698,1.700,0.047116,0.018723,-0.008043,101698.24
50550,7.449,-5.766,1.763,0.056162,0.022980,-0.000593,101701.45
50560,7.406,-5.736,1.850,0.050841,0.030430,0.003131,101702.27
50570,7.426,-5.736,1.878,0.038602,0.037347,0.006856,101700.47
50580,7.439,-5.805,1.834,0.032217,0.044265,0.008453,101700.47
50590,7.486,-5.761,1.768,0.029556,0.047457,0.010049,101702.63
50599,7.495,-5.720,1.800,0.035409,0.045329,0.012709,101702.63
50610,7.439,-5.765,1.814,0.048180,0.041604,0.017498,101701.08
50620,7.434,-5.835,1.806,0.050841,0.041604,0.020159,101699.28
50630,7.386,-5.830,1.811,0.043391,0.043733,0.022287,101700.41
50639,7.402,-5.763,1.892,0.030088,0.046393,0.029205,101700.41
50650,7.457,-5.682,1.895,0.018914,0.049586,0.036122,101701.06
50660,7.580,-5.458,2.018,0.023171,0.049054,0.047829,101699.56
50670,7.503,-5.617,1.964,0.046052,0.037879,0.060067,101699.72
50680,7.439,-5.774,1.763,0.067868,0.032026,0.068049,101701.47
50690,7.354,-5.741,1.718,0.076382,0.031494,0.069645,101703.17
50700,7.260,-5.662,1.791,0.096602,0.029898,0.073902,101699.78
50710,7.237,-5.755,1.759,0.124804,0.021384,0.076563,101702.14
50719,7.244,-5.878,1.689,0.143428,0.010742,0.078691,101702.14
50729,7.353,-5.820,1.777,0.156730,-0.000433,0.079755,101698.75
50740,7.513,-5.700,1.994,0.173758,-0.016396,0.082948,101698.75
50750,7.471,-5.759,2.239,0.188657,-0.041405,0.089333,101700.68
50760,7.343,-5.862,2.281,0.196639,-0.050451,0.090930,101699.49
50769,7.304,-5.886,2.147,0.175886,-0.040341,0.092526,101700.32
50780,7.366,-5.850,2.092,0.147685,-0.024910,0.093058,101699.96
50790,7.489,-5.634,2.116,0.140235,-0.022249,0.092526,101699.96
50800,7.427,-5.663,2.103,0.161519,-0.028634,0.102636,101699.90
50810,7.286,-5.863,2.044,0.174290,-0.031827,0.112746,101700.13
50820,7.304,-5.769,2.227,0.157795,-0.030231,0.116471,101701.46
50830,7.342,-5.631,2.466,0.147153,-0.039277,0.127113,101701.46
50840,7.467,-5.566,2.435,0.165776,-0.064286,0.138819,101701.46
50849,7.641,-5.517,2.370,0.203024,-0.104726,0.154783,101699.91
50860,7.553,-5.756,2.201,0.250382,-0.143038,0.180324,101700.27
50870,7.390,-5.979,2.095,0.272730,-0.162726,0.200012,101699.55
50875,7.356,-5.988,2.122,0.262620,-0.163258,0.213315,101699.50
50885,7.437,-5.915,2.310,0.234419,-0.155809,0.222361,101699.50
50894,7.384,-6.030,2.295,0.196639,-0.142506,0.236728,101699.28
50905,7.319,-6.042,2.184,0.154602,-0.126010,0.243113,101697.22
50915,7.392,-6.121,1.811,0.134382,-0.121221,0.240985,101697.42
50925,7.224,-5.978,1.949,0.137575,-0.116965,0.250030,101698.05
50934,7.273,-6.006,1.828,0.147153,-0.113772,0.257480,101698.05
50945,7.340,-6.170,1.978,0.142364,-0.121754,0.265462,101700.56
50955,7.324,-6.223,2.174,0.107244,-0.098341,0.261205,101700.61
50965,7.243,-6.621,1.996,0.050841,-0.068543,0.245241,101699.73
50975,7.166,-6.570,1.983,-0.015673,-0.031295,0.216507,101698.30
50984,7.037,-6.442,2.051,-0.059306,-0.004689,0.186177,101698.30
50996,6.976,-6.266,1.860,-0.074028,0.006308,0.163651,101700.53
51005,7.112,-6.141,1.858,-0.065691,0.007549,0.156911,101700.22
51015,7.203,-6.071,1.905,-0.051857,0.004356,0.159040,101699.75
51024,7.189,-6.091,1.981,-0.050260,0.005953,0.170746,101698.58
51035,7.182,-6.190,2.047,-0.063563,0.011806,0.182985,101698.58
51045,7.118,-6.125,2.127,-0.092829,0.028833,0.194691,101702.54
51055,6.988,-6.454,2.047,-0.149233,0.068210,0.199480,101701.35
51064,7.192,-6.855,1.713,-0.260444,0.134723,0.190966,101696.63
51075,7.492,-6.520,1.733,-0.381765,0.204430,0.179260,101697.80
51085,7.503,-6.364,1.799,-0.415820,0.236356,0.175003,101697.80
51095,7.159,-6.648,1.453,-0.389746,0.242742,0.175535,101702.91
51105,7.003,-6.852,1.221,-0.387618,0.269347,0.170746,101699.95
51116,7.308,-5.878,2.358,-0.434798,0.257109,0.157975,101698.20
51125,7.215,-5.362,3.086,-0.371655,0.179953,0.172874,101698.15
51135,6.893,-5.961,2.723,-0.203508,0.067677,0.201608,101698.15
51145,6.734,-6.223,2.589,-0.140719,-0.009478,0.217572,101701.10
51154,6.702,-6.164,2.597,-0.148701,-0.036616,0.227682,101698.65
51165,6.914,-6.060,2.278,-0.144444,-0.055240,0.247370,101700.43
51175,7.037,-6.192,2.096,-0.134866,-0.074396,0.278764,101697.71
51185,7.142,-6.239,1.951,-0.142315,-0.079717,0.312819,101697.71
51195,7.143,-6.283,1.952,-0.156150,-0.077588,0.349003,101701.11
51205,7.045,-6.495,1.915,-0.175838,-0.067478,0.379333,101702.50
51215,7.001,-6.609,1.913,-0.215214,-0.052047,0.399553,101701.67
51225,6.903,-6.416,2.023,-0.246609,-0.053111,0.413920,101698.08
51234,6.742,-6.568,2.103,-0.235434,-0.057368,0.429351,101698.08
51245,6.565,-6.804,1.937,-0.230113,-0.060561,0.433608,101700.09
51255,6.453,-6.688,1.829,-0.236499,-0.055240,0.435205,101701.73
51265,6.423,-6.473,1.830,-0.229049,-0.058965,0.441590,101698.97
51275,6.557,-6.472,1.861,-0.208297,-0.068010,0.456489,101697.38
51284,6.781,-6.594,1.878,-0.186480,-0.078121,0.476177,101697.38
51295,6.951,-6.976,1.672,-0.169453,-0.086634,0.491076,101701.63
51305,6.996,-7.407,1.508,-0.190205,-0.074396,0.500654,101700.80
51315,6.988,-7.503,1.270,-0.255655,-0.040873,0.505975,101701.52
51324,7.062,-7.353,1.260,-0.316315,-0.010543,0.510232,101699.92
51335,7.373,-7.444,1.325,-0.349838,0.007017,0.516085,101699.92
51345,7.576,-7.603,1.284,-0.361544,0.021384,0.525663,101700.23
51355,7.467,-7.614,1.229,-0.365269,0.028833,0.543223,101699.92
51365,7.395,-7.375,1.332,-0.381765,0.030430,0.560782,101699.98
51375,7.408,-7.340,1.463,-0.390810,0.018723,0.590048,101698.23
51385,7.435,-7.340,1.477,-0.394535,-0.005754,0.628360,101698.23
51395,7.303,-7.394,1.477,-0.398792,-0.036084,0.669865,101699.73
51405,7.331,-7.528,1.255,-0.416884,-0.070139,0.713498,101698.85
51415,7.536,-7.601,1.370,-0.454132,-0.101533,0.753406,101698.29
51425,7.657,-7.614,1.700,-0.491911,-0.129735,0.794911,101699.43
51435,7.781,-7.692,1.764,-0.515856,-0.153680,0.837480,101699.43
51445,8.077,-7.940,1.773,-0.555764,-0.180818,0.879516,101701.55
51454,8.344,-8.126,1.853,-0.612168,-0.202634,0.917296,101700.48
51465,8.555,-8.087,1.867,-0.676021,-0.206891,0.953479,101700.68
51471,8.575,-8.016,1.758,-0.720719,-0.203698,0.982746,101696.07
51480,8.572,-7.989,1.495,-0.764351,-0.199974,1.015204,101696.07
51490,8.534,-7.777,1.214,-0.832462,-0.196781,1.061498,101696.07
51501,8.398,-7.334,1.236,-0.884608,-0.211680,1.117901,101701.55
51510,8.351,-7.272,1.349,-0.893122,-0.253717,1.173773,101700.36
51520,8.501,-7.721,1.269,-0.903232,-0.286175,1.229644,101697.95
51530,8.780,-7.980,1.332,-0.976663,-0.280322,1.270085,101697.95
51540,9.029,-8.103,1.482,-1.099581,-0.244139,1.292966,101701.77
51550,9.459,-8.173,1.587,-1.253360,-0.183478,1.312654,101701.77
51560,10.068,-7.872,1.814,-1.435342,-0.103130,1.342452,101698.13
51570,10.499,-7.309,2.075,-1.606149,-0.024377,1.388745,101699.01
51580,10.660,-6.884,2.148,-1.712039,0.020852,1.476543,101697.30
51591,10.566,-7.016,1.909,-1.721085,-0.002916,1.607088,101699.65
51600,10.463,-7.433,1.676,-1.650314,-0.066946,1.738341,101699.65
51610,10.423,-7.673,1.554,-1.554534,-0.135588,1.878286,101701.70
51620,10.457,-7.657,1.623,-1.501323,-0.148891,1.990561,101699.40
51631,10.298,-7.797,1.844,-1.490681,-0.120157,2.070910,101696.84
51640,10.044,-7.918,1.884,-1.500259,-0.073332,2.115075,101698.83
51650,9.500,-8.069,2.119,-1.501323,-0.014267,2.112415,101698.27
51660,8.727,-8.258,2.224,-1.495470,0.063953,2.065057,101698.02
51670,7.980,-8.534,2.115,-1.532718,0.171971,1.973534,101698.02
51680,7.380,-8.356,1.958,-1.643929,0.279457,1.866048,101698.38
51690,7.016,-7.842,2.212,-1.649782,0.327879,1.780910,101698.38
51700,6.223,-7.593,2.700,-1.464076,0.268283,1.752176,101699.97
51710,5.147,-7.391,3.158,-1.101709,0.184032,1.710672,101699.38
51720,4.870,-6.797,2.480,-0.866517,0.151751,1.555828,101699.38
51730,3.788,-6.460,1.650,-0.665379,0.159200,1.306800,101698.17
51740,1.849,-6.562,0.700,-0.624407,0.351824,1.010415,101698.17
51750,1.985,-5.663,0.684,-0.768076,0.654062,0.678911,101701.11
51761,3.647,-3.113,0.937,-0.786168,0.761016,0.329315,101698.31
51770,4.521,-1.264,0.298,-0.627599,0.738668,-0.034648,101697.73
51780,4.747,-0.606,-0.254,-0.368462,0.670558,-0.340611,101697.73
51790,4.981,-0.095,-0.800,-0.041214,0.550301,-0.604006,101697.73
51801,4.871,-0.138,-1.033,0.325409,0.435897,-0.873253,101700.20
51810,4.628,-0.878,-1.086,0.643611,0.368320,-1.142501,101700.96
51820,4.238,-1.746,-1.039,0.866565,0.328943,-1.413877,101697.07
51830,4.034,-2.226,-1.015,1.055819,0.299323,-1.676030,101696.59
51840,3.997,-2.623,-0.956,1.215097,0.279989,-1.875748,101696.59
51851,4.043,-3.160,-0.887,1.367280,0.284246,-2.092849,101698.03
51860,4.205,-3.522,-0.653,1.493922,0.307127,-2.321124,101697.11
51870,4.570,-3.746,-0.327,1.574803,0.347567,-2.556849,101697.63
51880,5.016,-4.023,-0.136,1.613115,0.393329,-2.787784,101697.51
51891,5.477,-4.459,-0.118,1.617372,0.442815,-3.000628,101696.43
51900,6.061,-5.091,-0.161,1.583317,0.486448,-3.192720,101700.07
51910,6.486,-5.833,-0.316,1.501904,0.524760,-3.366187,101700.07
51920,6.708,-6.422,-0.429,1.394418,0.580631,-3.534866,101695.24
51930,6.908,-6.797,-0.508,1.291188,0.655127,-3.685453,101692.93
51940,7.209,-6.992,-0.519,1.281078,0.705677,-3.811031,101692.93
51950,7.597,-7.223,-0.480,1.384840,0.709402,-3.911600,101694.78
51960,7.965,-7.743,-0.553,1.535427,0.682264,-3.991416,101694.47
51971,8.300,-8.510,-0.607,1.625886,0.649273,-4.049949,101693.25
51980,8.499,-9.249,-0.529,1.651959,0.620540,-4.099435,101692.63
51990,8.722,-9.676,-0.342,1.636528,0.601384,-4.146792,101692.63
52000,8.955,-9.956,-0.116,1.623225,0.590209,-4.174462,101698.31
52011,9.165,-10.150,0.112,1.622693,0.585952,-4.163820,101697.39
52021,9.372,-10.335,0.306,1.611519,0.591273,-4.129233,101695.03
52030,9.511,-10.572,0.484,1.563629,0.601384,-4.080811,101695.03
52040,9.639,-10.905,0.516,1.475299,0.625329,-4.017490,101695.03
52050,9.805,-11.300,0.355,1.337482,0.670026,-3.933949,101698.94
52060,9.886,-11.737,0.269,1.208179,0.725897,-3.831784,101699.08
52070,9.643,-12.274,0.277,1.095904,0.771659,-3.712059,101701.81
52080,9.078,-12.357,0.417,0.970326,0.809971,-3.551894,101700.83
52090,8.463,-11.998,0.537,0.889446,0.837640,-3.328940,101700.83
52101,8.105,-11.693,0.281,0.886785,0.841897,-3.050646,101699.97
52110,8.021,-11.999,0.256,0.918712,0.841897,-2.776078,101697.92
52120,7.828,-12.245,-0.124,0.870822,0.825934,-2.553656,101697.20
52130,7.535,-12.185,-0.364,0.705868,0.816356,-2.332298,101697.20
52141,7.097,-11.967,-0.398,0.443538,0.820613,-2.080078,101702.88
52150,6.370,-11.645,-0.197,0.118951,0.844558,-1.793803,101702.88
52160,5.884,-11.514,0.243,-0.168921,0.871695,-1.503803,101701.85
52170,5.527,-11.732,0.544,-0.346113,0.872227,-1.197308,101699.60
52180,5.402,-11.642,0.426,-0.437636,0.835512,-0.873785,101698.05
52190,5.293,-11.323,0.201,-0.472223,0.746117,-0.533767,101698.05
52200,5.604,-10.557,0.517,-0.448278,0.601916,-0.173529,101701.92
52210,6.133,-10.352,0.264,-0.320572,0.418338,0.154251,101699.61
52220,5.907,-11.170,-0.987,-0.227985,0.143237,0.533645,101700.38
52231,4.724,-12.535,-0.820,-0.043343,-0.113240,0.945498,101699.91
52240,5.958,-11.438,0.633,0.069997,-0.268084,1.345644,101703.30
52250,11.175,-2.978,2.414,-0.008224,-0.268084,1.321167,101697.91
52260,14.892,3.306,3.195,-0.175306,-0.075460,0.892287,101698.90
52271,15.400,2.142,1.971,-0.108260,-0.020121,0.705516,101698.90
52280,13.760,-1.742,-0.326,0.185997,-0.257442,0.859828,101699.10
52290,10.432,-4.884,0.580,0.606363,-0.517111,1.179094,101699.10
52300,9.377,-7.911,3.749,1.057060,-0.547974,1.512727,101703.06
52305,10.488,-9.702,4.385,1.250216,-0.519772,1.707479,101703.36
52316,11.538,-9.339,2.839,1.256069,-0.597460,1.789424,101699.36
52325,9.447,-6.296,2.024,1.079941,-0.741661,1.722910,101698.08
52335,6.091,-4.392,3.555,0.893170,-0.696432,1.578176,101698.08
52345,4.887,-5.000,3.974,0.546235,-0.520304,1.444617,101703.05
52356,5.677,-6.660,2.605,0.109905,-0.285643,1.299883,101701.52
52365,7.720,-6.829,0.947,-0.336535,-0.071735,1.157810,101701.45
52375,8.910,-5.178,0.638,-0.589287,0.075659,1.054048,101700.48
52385,9.248,-3.578,0.834,-0.544590,0.119824,1.025314,101700.48
52396,9.158,-3.185,0.544,-0.304077,0.078320,1.042342,101702.91
52405,9.216,-4.054,0.224,0.000822,0.017127,1.062562,101702.97
52415,9.038,-5.043,0.508,0.167373,-0.012671,1.059901,101701.17
52425,8.167,-5.659,1.546,0.114694,0.032558,1.004030,101699.94
52435,7.552,-5.785,2.311,-0.072609,0.134723,0.927406,101699.94
52446,7.767,-5.326,3.110,-0.280664,0.210815,0.858764,101703.87
52455,8.202,-4.553,3.727,-0.391343,0.212943,0.797571,101698.63
52465,8.482,-3.890,3.659,-0.366333,0.153879,0.757131,101698.12
52475,8.573,-3.853,3.362,-0.267361,0.054375,0.745957,101698.38
52486,8.503,-4.261,3.050,-0.163067,-0.052047,0.755002,101698.38
52495,8.311,-4.814,2.633,-0.098150,-0.119093,0.754470,101701.56
52505,8.247,-5.030,2.456,-0.127416,-0.139313,0.744360,101700.73
52515,8.105,-4.890,2.442,-0.175838,-0.127075,0.712434,101699.36
52526,8.174,-4.527,2.429,-0.233306,-0.126543,0.712434,101698.48
52535,8.111,-4.407,2.211,-0.155086,-0.156341,0.724140,101698.48
52546,7.874,-4.854,2.038,-0.045294,-0.198732,0.720948,101700.55
52555,7.704,-5.008,2.078,-0.005563,-0.221258,0.714030,101699.78
52566,7.558,-5.240,2.012,-0.007691,-0.215405,0.702856,101696.91
52576,7.504,-5.417,2.046,-0.046003,-0.199974,0.690617,101700.45
52585,7.509,-5.291,2.060,-0.104535,-0.174965,0.685296,101700.45
52595,7.767,-4.917,2.219,-0.155618,-0.152084,0.693810,101701.37
52605,7.950,-4.832,2.377,-0.169985,-0.163790,0.716691,101700.59
52616,7.925,-4.718,2.318,-0.133269,-0.199442,0.754470,101700.85
52625,7.968,-4.509,2.346,-0.090701,-0.230304,0.794911,101697.98
52635,7.872,-4.998,2.298,-0.060902,-0.247331,0.826305,101697.98
52645,7.783,-5.499,1.944,-0.065159,-0.251056,0.850250,101699.79
52656,7.718,-5.589,1.859,-0.098150,-0.235093,0.858232,101699.07
52666,7.597,-5.981,1.725,-0.133269,-0.214341,0.848654,101699.02
52675,7.506,-6.173,1.664,-0.169453,-0.200506,0.832691,101699.48
52685,7.333,-6.065,1.703,-0.205104,-0.191992,0.812470,101699.48
52696,7.222,-6.052,1.598,-0.213086,-0.182414,0.798103,101700.09
52706,7.277,-6.109,1.546,-0.220003,-0.173368,0.785865,101699.63
52715,7.491,-6.138,1.706,-0.231710,-0.156873,0.774691,101699.11
52725,7.610,-6.184,1.765,-0.248737,-0.139313,0.768837,101698.55
52736,7.590,-6.088,1.735,-0.272150,-0.121221,0.760324,101698.55
52746,7.665,-6.014,1.884,-0.314719,-0.121221,0.762452,101700.22
52755,7.585,-6.143,1.986,-0.338664,-0.114836,0.759791,101700.53
52765,7.663,-6.538,1.800,-0.361012,-0.102598,0.766709,101698.22
52775,7.498,-6.797,1.660,-0.424333,-0.077056,0.769902,101699.05
52786,7.668,-6.119,1.880,-0.503618,-0.048855,0.787993,101699.05
52795,7.684,-5.792,1.926,-0.477012,-0.074396,0.839076,101700.73
52805,7.531,-6.129,1.883,-0.458388,-0.114304,0.905057,101700.68
52815,7.541,-6.281,2.095,-0.482333,-0.131864,0.971039,101698.88
52826,7.285,-6.864,2.551,-0.508939,-0.128139,1.031168,101699.60
52835,7.813,-6.970,2.394,-0.585030,-0.083442,1.075333,101699.60
52845,8.313,-7.352,1.582,-0.663251,-0.093552,1.095021,101700.80
52855,8.712,-7.334,1.260,-0.694645,-0.136121,1.134929,101697.52
52866,8.997,-7.251,1.040,-0.694645,-0.172304,1.178562,101698.69
52876,9.093,-7.445,0.821,-0.666975,-0.210084,1.235498,101698.44
52885,9.058,-7.595,0.637,-0.655801,-0.242010,1.295094,101698.44
52895,8.898,-7.727,0.572,-0.666975,-0.271276,1.349369,101701.68
52905,8.816,-7.749,0.802,-0.699966,-0.290432,1.405773,101700.35
52916,8.864,-7.767,1.063,-0.744131,-0.298414,1.462176,101696.65
52925,8.837,-7.971,1.216,-0.804260,-0.292029,1.524965,101697.73
52935,8.871,-8.119,1.321,-0.910150,-0.261698,1.585626,101697.73
52945,9.202,-8.370,1.428,-1.051159,-0.220726,1.640965,101702.77
52956,10.055,-8.507,1.654,-1.213452,-0.179221,1.689919,101699.79
52966,11.062,-8.301,1.978,-1.368828,-0.151020,1.746323,101701.59
52975,11.817,-8.220,1.852,-1.472589,-0.147295,1.789956,101697.23
52985,12.538,-8.192,1.387,-1.577947,-0.149955,1.847956,101697.23
52996,13.493,-7.937,1.009,-1.731195,-0.141974,1.890525,101703.11
53006,14.503,-7.244,0.914,-1.929672,-0.115368,1.932029,101699.61
53015,15.238,-6.611,1.192,-2.099947,-0.083974,1.994818,101700.08
53025,15.282,-6.379,1.807,-2.185616,-0.082910,2.077827,101696.22
53036,14.509,-6.647,3.107,-2.112185,-0.162194,2.201277,101696.22
53046,12.405,-8.235,4.319,-1.787598,-0.347900,2.380598,101697.85
53055,11.753,-8.938,4.525,-1.420443,-0.529350,2.497130,101699.65
53065,11.391,-8.113,4.207,-1.240058,-0.568726,2.475313,101696.93
53075,9.965,-7.672,4.045,-1.212920,-0.445808,2.348139,101698.52
53086,8.609,-7.219,3.706,-1.250700,-0.267552,2.197020,101698.52
53096,7.775,-6.621,3.105,-1.285819,-0.122818,2.039515,101703.84
53105,6.960,-6.374,2.777,-1.254957,-0.054176,1.886268,101704.04
53115,5.958,-6.160,3.000,-1.108094,-0.058433,1.738873,101699.79
53126,4.867,-5.907,3.123,-0.888865,-0.056836,1.570727,101699.95
53136,4.147,-5.297,2.200,-0.795214,0.010210,1.336599,101699.95
53141,2.970,-5.400,1.378,-0.812241,0.102797,1.121094,101699.63
53150,1.146,-6.859,0.071,-0.894718,0.268283,0.899204,101699.63
53160,0.989,-7.587,0.329,-1.149599,0.571053,0.642727,101699.02
53171,3.207,-4.330,1.192,-1.165030,0.663640,0.350067,101700.23
53181,4.531,-1.542,1.057,-0.975067,0.624264,-0.024006,101697.42
53191,5.222,-0.223,0.639,-0.697838,0.548705,-0.340079,101700.15
53200,5.564,0.726,0.304,-0.252462,0.352888,-0.614116,101699.21
53211,5.412,1.309,0.164,0.311042,0.149622,-0.862611,101697.37
53221,5.154,0.864,0.277,0.878271,0.011274,-1.072794,101697.37
53230,4.837,-0.215,0.422,1.349721,-0.086102,-1.268079,101697.93
53240,4.339,-1.462,0.526,1.680693,-0.133992,-1.480391,101697.93
53251,4.108,-2.516,0.405,1.853629,-0.122286,-1.722500,101697.94
53261,3.989,-3.279,0.187,1.903647,-0.062867,-2.013742,101700.14
53270,3.859,-3.739,0.178,1.867463,0.035751,-2.268977,101700.14
53280,4.026,-3.879,0.291,1.786051,0.181017,-2.537693,101696.86
53291,4.426,-3.846,0.354,1.689207,0.345971,-2.794702,101696.86
53301,4.937,-3.890,0.299,1.625353,0.499751,-3.028298,101695.02
53311,5.296,-4.171,0.328,1.571078,0.630650,-3.235821,101697.32
53320,5.588,-4.711,0.276,1.482216,0.740264,-3.435894,101694.21
53330,5.946,-5.397,0.235,1.347060,0.861053,-3.640224,101694.21
53341,6.541,-5.901,0.194,1.167739,1.003127,-3.839765,101694.21
53351,7.306,-6.178,0.253,1.036840,1.135090,-4.023875,101695.78
53360,7.998,-6.410,0.306,1.056528,1.225548,-4.176058,101699.73
53370,8.670,-6.776,0.191,1.217757,1.261200,-4.283012,101694.34
53382,9.287,-7.656,-0.092,1.491794,1.248252,-4.346511,101694.45
53391,9.600,-8.784,-0.218,1.721133,1.203732,-4.369746,101694.45
53401,9.702,-10.063,-0.170,1.886087,1.132429,-4.391563,101700.05
53410,9.782,-11.052,0.002,1.936106,1.075493,-4.425086,101696.61
53421,9.964,-11.772,0.145,1.913225,1.043567,-4.449031,101699.27
53431,10.074,-12.277,0.115,1.837665,1.039842,-4.439453,101697.52
53441,10.159,-12.612,-0.042,1.716876,1.054209,-4.392627,101700.87
53450,10.168,-12.896,-0.271,1.551922,1.083475,-4.319728,101699.88
53460,10.110,-13.194,-0.325,1.338014,1.113805,-4.237783,101699.88
53471,9.599,-13.255,-0.222,1.085262,1.140411,-4.127104,101697.52
53481,8.940,-12.617,0.040,0.826657,1.174998,-3.944059,101697.84
53490,8.657,-11.620,0.360,0.671281,1.216502,-3.676939,101697.84
53500,8.739,-11.046,0.329,0.702143,1.226613,-3.384811,101701.36
53511,8.537,-11.566,-0.391,0.878271,1.209053,-3.130995,101696.39
53521,8.185,-13.078,-1.169,0.988950,1.179787,-2.935711,101702.39
53531,7.631,-13.474,-2.020,0.858583,1.132429,-2.718610,101700.33
53540,7.380,-12.854,-2.432,0.623391,1.052081,-2.422225,101700.33
53551,6.996,-12.120,-2.444,0.416932,0.893512,-2.063583,101701.81
53561,6.584,-12.163,-2.462,0.381813,0.608301,-1.663436,101702.42
53571,5.434,-13.495,-2.567,0.512712,0.246466,-1.190391,101701.75
53580,4.050,-14.699,-2.653,0.617537,-0.055240,-0.576868,101701.75
53591,3.667,-14.526,-2.483,0.647336,-0.270212,0.134030,101701.75
53601,4.184,-13.631,-1.767,0.654253,-0.477203,0.752342,101703.30
53611,3.717,-13.448,1.077,0.794730,-0.640561,1.179094,101699.93
53620,3.389,-13.797,3.524,0.934143,-0.714524,1.600525,101702.02
53630,8.986,-4.182,7.950,0.845281,-0.515515,1.626066,101699.26
53641,15.241,3.100,7.106,0.291354,-0.053111,1.043938,101699.26
53651,19.156,1.911,2.377,-0.106664,0.091090,0.738507,101701.77
53661,17.867,-4.212,-2.568,-0.272150,-0.209020,0.897076,101699.62
53670,13.194,-7.680,-0.971,0.054033,-0.453258,1.406305,101701.26
53681,12.518,-7.858,-0.492,0.431299,-0.456983,1.819222,101701.26
53691,11.297,-7.079,-1.066,0.551024,-0.459643,1.928837,101703.29
53700,8.645,-6.853,1.424,0.594125,-0.375038,1.945332,101703.29
53710,6.739,-7.208,5.165,0.441409,-0.235625,1.974066,101699.04
53721,6.736,-6.738,5.986,0.066272,-0.165919,1.918727,101703.49
53731,6.568,-5.687,4.981,-0.304077,-0.167515,1.750580,101697.85
53741,5.961,-5.215,4.519,-0.555764,-0.118561,1.557956,101697.85
53751,6.431,-4.348,3.493,-0.702627,-0.070671,1.410562,101700.68
53761,8.309,-3.758,1.051,-0.663783,-0.107919,1.331277,101701.40
53771,9.617,-4.228,-0.383,-0.315783,-0.209552,1.317443,101700.84
53781,10.056,-5.431,-0.916,0.137042,-0.284579,1.316378,101700.48
53791,9.171,-6.178,-0.300,0.383409,-0.303735,1.275406,101702.52
53800,8.072,-6.642,0.483,0.357868,-0.228176,1.187608,101703.91
53811,7.578,-6.588,1.369,0.114694,-0.093552,1.066819,101700.21
53821,7.482,-6.156,2.601,-0.183820,0.050118,0.938580,101700.21
53831,7.796,-5.346,3.250,-0.393471,0.127806,0.822048,101700.05
53840,8.062,-4.578,3.330,-0.420076,0.112907,0.737975,101700.05
53851,8.171,-4.140,3.056,-0.297691,0.035219,0.686892,101700.63
53861,8.141,-4.320,2.611,-0.130077,-0.048322,0.660819,101698.63
53871,8.075,-4.803,2.261,-0.042811,-0.088231,0.634746,101700.38
53881,8.009,-5.067,2.297,-0.086976,-0.075992,0.601223,101701.34
53891,7.902,-4.833,2.803,-0.215746,-0.041937,0.570360,101701.34
53901,7.749,-4.563,3.062,-0.326957,-0.002029,0.560782,101699.85
53911,7.686,-4.226,3.122,-0.372719,0.008081,0.578342,101699.85
53921,7.851,-3.733,3.091,-0.375911,-0.010011,0.617186,101699.59
53931,8.378,-3.126,3.196,-0.314187,-0.037680,0.668269,101699.59
53941,8.427,-3.222,3.208,-0.206168,-0.096212,0.727865,101699.59
53951,8.431,-2.963,3.513,-0.060370,-0.184543,0.800232,101700.49
53961,7.863,-3.187,3.751,0.118419,-0.287772,0.844397,101700.49
53970,7.383,-4.034,3.487,0.272198,-0.354818,0.881113,101700.13
53977,7.163,-4.720,3.008,0.332859,-0.389937,0.901865,101700.40
53986,7.236,-5.799,2.117,0.330198,-0.403772,0.919424,101700.40
53996,7.537,-7.193,0.827,0.193978,-0.382487,0.921021,101702.80
54005,8.141,-7.225,-0.014,-0.081123,-0.259570,0.908250,101701.61
54016,8.238,-6.435,0.257,-0.330150,-0.105258,0.882709,101699.05
54026,8.245,-5.505,0.792,-0.419544,-0.013735,0.881113,101698.17
54036,8.204,-5.388,1.318,-0.379636,0.002760,0.883773,101698.17
54046,7.962,-5.959,1.576,-0.291306,-0.021185,0.881113,101702.41
54055,7.464,-6.427,1.914,-0.252994,-0.039809,0.850782,101699.03
54066,7.038,-6.593,2.162,-0.285453,-0.032891,0.792782,101700.52
54076,6.882,-6.573,2.139,-0.334407,-0.013735,0.725204,101699.64
54086,6.999,-6.366,2.174,-0.364737,-0.010543,0.670397,101699.64
54096,7.067,-5.980,2.269,-0.362077,-0.023491,0.629070,101701.45
54106,7.141,-5.761,2.293,-0.339196,-0.035552,0.622507,101698.58
54116,7.360,-5.620,2.302,-0.310994,-0.054176,0.637406,101698.38
54126,7.463,-5.682,2.351,-0.291306,-0.070139,0.666672,101699.91
54135,7.579,-5.875,2.448,-0.308866,-0.081313,0.703388,101699.91
54146,7.578,-5.994,2.500,-0.363141,-0.082377,0.740103,101701.67
54156,7.500,-6.026,2.396,-0.417948,-0.080249,0.783736,101699.11
54166,7.540,-5.949,2.199,-0.458921,-0.082910,0.828434,101698.95
54176,7.572,-5.991,2.041,-0.474352,-0.094616,0.884305,101697.47
54185,7.512,-6.149,1.902,-0.473820,-0.117497,0.946030,101697.47
54196,7.318,-6.400,1.920,-0.479673,-0.129203,1.002966,101702.82
54206,7.230,-6.630,2.212,-0.508939,-0.124414,1.053516,101698.35
54216,7.799,-7.060,2.019,-0.572083,-0.128139,1.088813,101698.87
54225,8.217,-7.505,2.036,-0.621214,-0.137717,1.122158,101700.76
54236,8.499,-7.577,1.739,-0.676553,-0.127075,1.156213,101700.76
54246,8.769,-7.459,1.184,-0.717526,-0.136121,1.193461,101701.00
54256,8.946,-7.462,0.854,-0.747856,-0.170708,1.247736,101699.30
54265,9.076,-7.532,0.816,-0.773397,-0.204763,1.312121,101699.25
54276,9.128,-7.511,0.850,-0.803728,-0.229240,1.388745,101700.38
54286,9.161,-7.534,0.941,-0.840975,-0.254781,1.472286,101700.38
54296,9.286,-7.808,1.010,-0.891526,-0.273937,1.560617,101701.02
54306,9.542,-8.063,1.155,-0.966021,-0.271276,1.647883,101701.80
54316,9.588,-8.245,1.192,-1.090535,-0.241478,1.739938,101701.08
54326,10.000,-8.103,1.327,-1.254425,-0.198377,1.826139,101698.36
54336,10.909,-8.213,1.607,-1.420620,-0.182059,1.929191,101698.36
54346,11.953,-8.459,1.896,-1.544956,-0.186139,2.011846,101700.50
54355,13.088,-8.935,1.915,-1.668938,-0.189864,2.074103,101697.42
54366,14.618,-8.999,1.486,-1.856241,-0.160598,2.108690,101698.30
54376,16.294,-7.942,1.259,-2.115910,-0.102598,2.131038,101697.89
54386,17.301,-6.397,1.220,-2.317580,-0.075460,2.170947,101697.89
54396,17.586,-5.100,1.664,-2.384094,-0.117497,2.216176,101700.26
54406,16.569,-5.034,2.320,-2.279268,-0.243607,2.271515,101700.93
54416,13.988,-6.867,3.231,-1.977030,-0.435698,2.389644,101699.49
54426,10.729,-10.151,4.683,-1.572626,-0.593203,2.550873,101701.40
54435,10.532,-10.387,5.284,-1.373617,-0.638432,2.607809,101701.40
54446,10.239,-8.997,5.039,-1.344351,-0.551166,2.485424,101700.15
54456,9.267,-7.837,4.649,-1.285287,-0.422396,2.342818,101699.48
54466,8.572,-6.518,3.725,-1.228883,-0.335130,2.174139,101697.74
54476,7.315,-5.992,2.760,-1.111819,-0.340983,1.963424,101696.71
54486,5.649,-6.205,2.793,-0.930370,-0.377698,1.777717,101696.71
54496,3.946,-6.162,3.378,-0.732425,-0.357478,1.589883,101701.06
54506,3.430,-5.085,2.857,-0.629196,-0.238818,1.336599,101702.75
54516,2.090,-5.040,1.277,-0.676021,-0.085570,0.990727,101700.66
54525,-0.197,-7.545,0.064,-0.745728,0.161861,0.707645,101699.98
54536,1.194,-6.418,0.768,-0.965489,0.423659,0.455425,101699.98
54546,3.134,-2.804,0.996,-0.976131,0.484319,0.057407,101703.32
54556,3.934,-0.907,0.977,-0.811709,0.514650,-0.335290,101701.32
54566,4.766,0.142,0.635,-0.575985,0.486980,-0.644446,101698.76
54576,5.118,1.080,0.224,-0.156150,0.323622,-0.913694,101699.98
54586,4.971,1.323,0.130,0.377024,0.154944,-1.134519,101699.98
54596,4.857,0.604,0.247,0.880932,0.041604,-1.313308,101701.38
54606,4.750,-0.530,0.404,1.303427,-0.049919,-1.476134,101700.62
54616,4.448,-1.696,0.525,1.625886,-0.112708,-1.653326,101699.27
54626,4.159,-2.881,0.441,1.828087,-0.117497,-1.856060,101696.46
54636,4.057,-3.843,0.257,1.911628,-0.080249,-2.082206,101696.46
54646,4.237,-4.166,0.133,1.905243,-0.000965,-2.332298,101698.75
54656,4.613,-4.054,0.182,1.824895,0.125677,-2.607399,101698.19
54666,5.005,-3.937,0.313,1.719537,0.279457,-2.881435,101697.88
54676,5.259,-3.958,0.525,1.644509,0.440154,-3.133123,101697.00
54686,5.447,-4.085,0.705,1.557243,0.585420,-3.359802,101697.00
54696,5.665,-4.472,0.592,1.422620,0.720044,-3.582224,101700.94
54706,6.138,-5.045,0.437,1.275757,0.859457,-3.792939,101697.03
54716,6.800,-5.542,0.481,1.129427,1.016429,-4.000463,101699.09
54726,7.471,-5.899,0.356,1.053868,1.157970,-4.202132,101696.88
54736,8.023,-6.203,0.152,1.085794,1.277695,-4.365489,101696.88
54746,8.623,-6.667,-0.121,1.142198,1.394227,-4.461269,101701.41
54756,9.290,-7.316,-0.303,1.197537,1.487878,-4.514480,101699.66
54766,9.898,-8.083,-0.448,1.280014,1.525126,-4.575141,101698.90
54776,10.202,-8.893,-0.637,1.391757,1.507034,-4.654425,101697.51
54786,10.429,-9.805,-0.658,1.521060,1.460741,-4.711361,101697.51
54796,10.663,-10.850,-0.656,1.635464,1.411787,-4.729985,101699.37
54806,10.763,-11.717,-0.631,1.703574,1.376135,-4.718278,101699.16
54811,10.790,-12.039,-0.617,1.708895,1.351126,-4.696994,101698.04
54821,10.926,-12.185,-0.698,1.662069,1.332502,-4.655489,101698.04
54832,11.196,-12.575,-0.752,1.550858,1.303768,-4.562370,101697.99
54841,11.152,-13.266,-0.672,1.389097,1.254814,-4.430939,101697.99
54851,10.634,-13.659,-0.626,1.184235,1.198411,-4.259600,101700.36
54861,9.921,-13.358,-0.369,1.025134,1.161695,-4.033453,101700.50
54872,9.396,-12.872,-0.104,1.017684,1.123383,-3.741857,101698.97
54881,8.951,-12.963,-0.393,1.195409,1.068576,-3.388004,101698.97
54891,8.724,-14.190,-1.401,1.408253,0.984503,-3.032022,101698.97
54901,7.864,-15.157,-2.635,1.377390,0.846686,-2.685619,101704.32
54912,6.528,-15.703,-3.486,1.142198,0.649806,-2.272170,101699.96
54921,4.943,-16.281,-3.808,0.882528,0.392797,-1.762409,101699.85
54932,3.811,-17.044,-3.631,0.682278,0.071225,-1.097094,101701.87
54941,3.671,-16.803,-3.304,0.594125,-0.191992,-0.422024,101701.87
54951,3.882,-15.556,-0.891,0.685115,-0.420267,0.352728,101704.63
54962,3.296,-16.102,-0.654,0.920308,-0.682597,1.075333,101701.24
54971,1.092,-17.505,3.580,1.255005,-0.894909,1.741002,101700.27
54981,8.339,-8.585,7.600,1.121446,-0.692175,1.955442,101700.52
54991,16.930,2.091,7.347,0.126400,-0.141442,1.290305,101702.16
55002,20.502,-0.169,2.456,-0.753709,0.269879,0.817259,101700.78
55011,17.571,-8.001,-1.316,-0.954315,-0.012671,1.196121,101700.78
55021,13.058,-9.418,0.589,-0.411563,-0.392597,1.905956,101701.55
55031,12.621,-5.897,0.455,0.123740,-0.601717,2.242781,101699.34
55042,10.456,-3.556,-0.291,0.644675,-0.785294,2.170415,101699.34
55052,5.637,-3.839,2.302,1.201971,-0.860677,2.054415,101703.45
55061,3.529,-5.631,4.842,1.264051,-0.729423,1.963956,101703.45
55071,4.795,-8.443,4.720,0.866033,-0.454854,1.832525,101700.71
55081,7.410,-9.333,2.760,0.205685,-0.274469,1.640965,101700.04
55091,8.172,-7.729,2.567,-0.221600,-0.142506,1.401516,101700.04
55101,8.064,-5.428,2.538,-0.378572,-0.076524,1.219002,101701.47
55111,8.088,-3.360,2.011,-0.250333,-0.129735,1.145571,101699.88
55121,9.084,-2.724,0.985,0.104584,-0.249460,1.156213,101699.06
55131,9.627,-3.739,0.287,0.481317,-0.356414,1.196654,101699.06
55141,9.220,-5.085,0.249,0.676602,-0.364396,1.219002,101699.06
55151,8.457,-5.713,0.865,0.633501,-0.286175,1.192397,101702.38
55161,7.802,-5.927,1.630,0.421189,-0.174432,1.131736,101703.91
55172,7.452,-6.052,2.448,0.121611,-0.057900,1.046599,101700.43
55181,7.708,-5.728,2.794,-0.181159,0.034155,0.949223,101699.91
55191,7.963,-5.361,2.703,-0.391875,0.086833,0.854507,101699.91
55201,8.135,-4.973,2.444,-0.488719,0.087366,0.775755,101701.42
55212,8.314,-4.435,2.198,-0.489251,0.067145,0.721480,101702.95
55222,8.458,-4.077,1.946,-0.386554,0.038944,0.706048,101701.08
55231,8.560,-3.883,1.909,-0.236499,0.007017,0.725736,101701.08
55241,8.557,-3.696,2.210,-0.126352,-0.013735,0.752342,101702.67
55251,8.301,-3.609,2.696,-0.046535,-0.016396,0.776287,101702.67
55261,8.062,-3.686,2.980,-0.036957,-0.021185,0.800232,101700.72
55271,7.953,-3.889,2.952,-0.019398,-0.027570,0.805553,101700.56
55281,7.884,-4.997,2.273,-0.027379,-0.039277,0.793847,101700.92
55291,7.955,-6.010,1.178,-0.091233,-0.025974,0.772562,101700.92
55302,8.071,-6.269,0.627,-0.252994,0.059164,0.753406,101703.98
55311,8.239,-5.597,0.938,-0.453067,0.193255,0.734782,101701.98
55321,8.169,-5.285,1.299,-0.588755,0.302338,0.722544,101699.16
55331,8.029,-5.207,1.728,-0.622278,0.351292,0.732122,101700.16
55342,7.944,-5.264,2.263,-0.609508,0.351824,0.740636,101702.38
55352,7.933,-5.249,2.651,-0.588755,0.329475,0.742232,101699.04
55361,7.960,-5.147,2.812,-0.572792,0.302338,0.736911,101701.04
55371,8.095,-4.998,2.694,-0.525966,0.263494,0.737443,101701.04
55382,7.947,-5.346,2.463,-0.464242,0.202301,0.747021,101699.96
55391,7.719,-5.710,2.121,-0.407838,0.143237,0.753938,101699.96
55401,7.547,-5.722,2.083,-0.381765,0.100668,0.758727,101701.24
55411,7.477,-5.648,2.192,-0.356223,0.061292,0.760324,101701.30
55421,7.505,-5.795,2.162,-0.327489,0.027769,0.761388,101699.35
55432,7.481,-6.000,2.059,-0.314719,0.000100,0.758727,101699.87
55441,7.598,-6.011,2.131,-0.333343,-0.016396,0.761920,101699.87
55451,7.520,-6.057,2.072,-0.357288,-0.024377,0.762984,101700.78
55461,7.497,-6.178,1.934,-0.408902,-0.024910,0.764048,101700.66
55472,7.555,-6.038,1.887,-0.448278,-0.022781,0.783736,101697.38
55482,7.556,-5.937,1.788,-0.443489,-0.028102,0.809278,101697.38
55491,7.535,-5.973,1.775,-0.439232,-0.044066,0.848122,101697.38
55501,7.467,-6.089,1.852,-0.445618,-0.057900,0.888562,101702.53
55512,7.376,-6.248,1.999,-0.469563,-0.062689,0.924746,101698.58
55521,7.383,-6.303,2.182,-0.500425,-0.065350,0.960929,101702.47
55531,7.340,-6.498,2.296,-0.527031,-0.071203,0.983278,101698.31
55541,7.365,-6.758,2.212,-0.561618,-0.074928,0.994984,101698.31
55552,7.530,-6.880,1.955,-0.599397,-0.096212,1.003498,101702.60
55562,7.628,-6.813,2.067,-0.634517,-0.136121,1.022122,101699.84
55571,7.617,-6.677,2.269,-0.657397,-0.182414,1.043938,101700.15
55581,7.711,-6.905,2.235,-0.645691,-0.230836,1.073204,101700.15
55591,7.785,-7.163,2.067,-0.641966,-0.280322,1.103002,101699.68
55602,7.926,-7.571,1.805,-0.681342,-0.308524,1.133865,101697.77
55611,8.193,-7.961,1.492,-0.758498,-0.314377,1.168452,101697.77
55621,8.551,-8.076,1.163,-0.862792,-0.302671,1.203039,101700.13
55631,8.976,-7.948,1.064,-0.951654,-0.302139,1.246140,101697.98
55642,9.344,-7.979,1.053,-1.007526,-0.325020,1.295626,101697.98
55647,9.574,-8.026,0.975,-1.042113,-0.346304,1.338195,101699.59
55656,9.779,-7.880,0.990,-1.072975,-0.368653,1.382892,101703.44
55666,9.854,-7.617,1.141,-1.105434,-0.403772,1.448874,101699.08
55676,9.924,-7.666,1.166,-1.119801,-0.443148,1.525497,101697.91
55687,10.077,-8.059,1.042,-1.157048,-0.475607,1.598929,101697.91
55696,10.516,-8.208,1.109,-1.265067,-0.477735,1.662782,101702.72
55706,11.202,-8.285,1.379,-1.444920,-0.445276,1.713332,101700.72
55716,12.231,-8.136,1.486,-1.638076,-0.394726,1.752708,101703.50
55727,13.561,-7.547,1.630,-1.850920,-0.325020,1.785167,101697.33
55736,14.840,-6.530,1.776,-2.020663,-0.297882,1.833589,101697.33
55746,15.607,-5.419,2.013,-2.072809,-0.349497,1.893185,101700.55
55756,15.640,-5.166,2.126,-1.997250,-0.459111,1.989497,101702.24
55767,14.052,-6.582,2.116,-1.775005,-0.612714,2.106207,101699.77
55777,12.462,-8.878,2.776,-1.523140,-0.795937,2.292800,101699.41
55786,11.856,-10.043,4.514,-1.207067,-0.971001,2.526396,101699.41
55796,12.159,-9.437,5.055,-1.059140,-0.988028,2.581735,101702.41
55806,11.221,-8.794,4.860,-1.109159,-0.855001,2.474781,101698.41
55817,9.943,-8.150,4.429,-1.200681,-0.658652,2.331644,101698.72
55826,8.829,-6.989,3.772,-1.231544,-0.505405,2.192231,101698.14
55836,7.912,-5.954,3.225,-1.159709,-0.441019,2.051754,101698.14
55846,6.648,-5.680,3.144,-0.944737,-0.477735,1.910745,101702.58
55857,5.086,-5.729,3.768,-0.592480,-0.541056,1.776653,101702.42
55866,4.604,-4.850,3.245,-0.316847,-0.537863,1.552103,101700.48
55876,3.462,-4.832,1.108,-0.299288,-0.440487,1.187608,101700.42
55886,0.546,-8.019,-0.389,-0.453954,-0.154744,0.870293,101700.42
55897,1.612,-7.316,0.269,-0.693049,0.143769,0.666672,101703.09
55907,3.566,-3.646,0.713,-0.801067,0.278925,0.297920,101699.70
55916,3.967,-1.327,1.388,-0.711673,0.380026,-0.096905,101697.70
55926,4.124,-0.354,1.084,-0.507875,0.430576,-0.430006,101698.31
55937,4.115,0.423,0.531,-0.190737,0.365659,-0.705107,101698.31
55947,4.012,0.795,0.165,0.261556,0.264026,-0.938703,101698.83
55956,3.994,0.156,0.322,0.724492,0.206026,-1.165914,101699.91
55966,4.222,-0.816,0.500,1.118253,0.173035,-1.379290,101698.41
55976,4.407,-1.669,0.583,1.426877,0.144833,-1.592134,101696.77
55987,4.565,-2.346,0.415,1.645574,0.135255,-1.823069,101696.77
55996,4.634,-2.996,-0.002,1.741353,0.156008,-2.068904,101700.98
56006,4.677,-3.412,-0.410,1.764766,0.202301,-2.307289,101698.47
56016,4.823,-3.678,-0.555,1.736032,0.278393,-2.532903,101697.70
56027,4.950,-3.830,-0.362,1.687610,0.370980,-2.753197,101694.27
56036,5.113,-3.968,-0.120,1.656748,0.461971,-2.973490,101694.27
56046,5.269,-4.319,0.123,1.612583,0.535934,-3.196976,101696.22
56056,5.363,-4.837,0.244,1.547133,0.602448,-3.422059,101698.06
56067,5.721,-5.338,0.324,1.458271,0.685457,-3.638628,101698.22
56077,6.256,-5.767,0.420,1.347060,0.788686,-3.845086,101697.59
56086,6.915,-5.974,0.647,1.287996,0.888723,-4.035582,101697.59
56096,7.589,-6.119,0.786,1.306620,0.967475,-4.210646,101699.89
56107,8.260,-6.522,0.646,1.423684,1.012704,-4.357508,101699.28
56117,8.810,-7.263,0.326,1.580124,1.041970,-4.463398,101695.53
56126,9.243,-8.222,-0.063,1.713152,1.066980,-4.521398,101694.86
56136,9.553,-9.306,-0.297,1.756785,1.084539,-4.559177,101694.86
56146,9.828,-10.474,-0.369,1.714748,1.095713,-4.592168,101699.66
56157,10.040,-11.487,-0.227,1.641849,1.107420,-4.625159,101698.95
56167,10.098,-12.146,-0.033,1.561500,1.116998,-4.633673,101699.35
56176,10.015,-12.374,-0.064,1.486473,1.121787,-4.606003,101700.13
56186,10.066,-12.380,-0.023,1.431133,1.128704,-4.524590,101700.13
56197,10.300,-12.570,-0.037,1.389629,1.142539,-4.388902,101700.95
56207,10.263,-13.171,-0.016,1.317794,1.151053,-4.235655,101700.03
56216,9.916,-13.680,0.159,1.204455,1.163824,-4.061123,101700.03
56226,9.528,-13.948,0.085,1.067702,1.186172,-3.863710,101697.94
56237,8.885,-13.979,-0.303,0.954895,1.220759,-3.645013,101697.94
56247,8.405,-14.717,-0.702,0.974051,1.252686,-3.402371,101700.91
56256,7.559,-15.440,-1.333,0.943189,1.217567,-3.120353,101697.89
56266,6.485,-15.988,-1.930,0.791537,1.129236,-2.735105,101697.78
56276,5.363,-16.401,-2.690,0.510583,1.020154,-2.237051,101698.86
56287,4.786,-16.683,-3.460,0.191850,0.861585,-1.673014,101698.86
56297,4.940,-16.888,-3.193,0.016254,0.600851,-1.055235,101702.90
56306,4.469,-16.977,-3.819,-0.011948,0.229971,-0.293786,101702.43
56316,3.522,-16.720,-3.654,0.133318,-0.215405,0.622507,101700.59
56327,2.025,-17.555,-1.747,0.477593,-0.613423,1.453663,101699.87
56337,4.768,-14.380,2.966,0.822400,-0.791680,2.090066,101699.87
56346,15.108,0.626,6.085,0.493024,-0.626726,1.866048,101701.47
56356,20.368,5.377,5.624,-0.121031,-0.160598,1.142910,101699.36
56363,20.410,-1.310,0.860,-0.346113,-0.101533,1.050856,101699.88
56372,15.139,-8.502,-0.926,-0.165728,-0.458579,1.456855,101699.88
56382,9.242,-10.955,2.509,0.447262,-0.769863,2.070910,101701.06
56391,9.934,-7.960,2.540,0.738859,-0.797533,2.220433,101701.06
56401,8.985,-6.404,1.633,0.960748,-0.854469,2.028873,101699.55
56412,6.355,-7.136,2.857,1.275757,-0.858193,1.964488,101701.11
56422,5.469,-8.019,2.463,1.069831,-0.721441,1.894250,101700.67
56432,6.223,-8.092,1.737,0.424914,-0.477203,1.738873,101700.67
56441,7.662,-7.369,1.922,-0.138590,-0.271276,1.555296,101700.67
56452,7.884,-6.671,2.031,-0.405177,-0.163790,1.369057,101700.66
56462,8.078,-4.845,1.665,-0.429654,-0.139845,1.247736,101699.88
56471,8.804,-3.330,1.391,-0.164664,-0.223387,1.206232,101698.24
56481,9.184,-3.606,0.883,0.220584,-0.352689,1.220599,101699.74
56492,8.854,-4.697,0.726,0.502070,-0.410689,1.220599,101699.74
56502,8.463,-5.019,1.595,0.551556,-0.401643,1.174837,101705.08
56512,7.898,-4.753,2.919,0.448859,-0.355350,1.098213,101703.75
56521,7.629,-4.664,3.798,0.307318,-0.297882,1.032232,101700.27
56531,7.728,-4.532,4.004,0.153006,-0.278726,0.969443,101699.73
56542,7.972,-4.461,3.671,0.057226,-0.290964,0.924746,101703.73
56552,8.148,-4.615,2.787,0.047648,-0.325552,0.890158,101703.53
56561,8.155,-4.817,1.737,0.085960,-0.359075,0.875791,101703.53
56571,8.209,-4.905,0.906,0.134382,-0.360671,0.885902,101700.34
56582,8.464,-4.666,0.641,0.170565,-0.343111,0.916764,101701.73
56592,8.449,-4.662,1.006,0.179611,-0.318634,0.959333,101701.73
56602,8.171,-4.760,1.437,0.165776,-0.278194,1.011479,101703.89
56611,7.969,-4.764,1.891,0.035942,-0.232432,1.051388,101700.97
56622,7.838,-4.682,2.140,-0.106132,-0.176029,1.075333,101701.08
56632,7.838,-4.970,2.023,-0.196590,-0.124946,1.065755,101697.28
56642,7.813,-5.364,1.727,-0.247673,-0.091955,1.050856,101697.28
56652,7.674,-5.750,1.496,-0.264700,-0.081313,1.029571,101700.23
56662,7.678,-5.613,1.521,-0.267893,-0.080781,1.015204,101697.95
56672,7.670,-5.558,1.549,-0.226389,-0.094084,1.008819,101700.92
56682,7.571,-5.761,1.606,-0.178499,-0.116432,1.012012,101700.92
56691,7.487,-5.745,1.878,-0.174774,-0.124414,1.007755,101700.92
56701,7.464,-5.748,2.075,-0.216811,-0.096744,0.993388,101701.19
56712,7.604,-5.921,1.860,-0.290774,-0.060029,0.979553,101702.47
56722,7.602,-6.261,1.528,-0.349306,-0.026506,0.964122,101698.88
56731,7.471,-6.310,1.212,-0.410499,0.012338,0.948158,101699.75
56741,7.437,-6.265,1.200,-0.458388,0.047457,0.935920,101699.75
56752,7.457,-6.139,1.395,-0.467434,0.051714,0.931131,101700.76
56762,7.427,-6.033,1.665,-0.433379,0.029898,0.933791,101700.90
56772,7.282,-6.168,1.951,-0.388682,-0.005754,0.939645,101700.76
56781,7.142,-6.470,2.084,-0.380168,-0.023845,0.938580,101700.76
56792,7.196,-6.443,2.099,-0.416884,-0.020121,0.931663,101701.38
56802,7.396,-6.315,2.136,-0.447214,-0.021717,0.935388,101701.38
56812,7.388,-6.425,1.990,-0.448278,-0.036616,0.949223,101700.91
56821,7.475,-6.580,1.655,-0.459985,-0.049387,0.974232,101700.45
56832,7.468,-6.712,1.593,-0.484462,-0.059497,1.005094,101699.69
56842,7.297,-7.059,1.597,-0.506810,-0.060029,1.034892,101699.69
56852,7.262,-7.302,1.756,-0.563746,-0.028634,1.056177,101700.27
56862,7.189,-7.498,2.539,-0.652076,0.026705,1.074800,101698.74
56871,7.913,-7.692,2.225,-0.764351,0.084705,1.090764,101699.96
56882,8.554,-7.857,1.904,-0.862792,0.112907,1.119498,101699.82
56892,9.103,-7.790,1.345,-0.935691,0.101733,1.158874,101703.21
56902,9.436,-7.645,1.076,-0.955379,0.047989,1.219002,101698.74
56911,9.571,-7.686,0.984,-0.947397,-0.017460,1.298287,101697.62
56922,9.724,-7.886,0.807,-0.945269,-0.074396,1.379699,101697.62
56932,9.802,-8.076,0.665,-0.975067,-0.117497,1.464837,101699.01
56942,9.876,-8.003,0.866,-1.035727,-0.149955,1.551571,101699.01
56951,10.009,-7.895,1.185,-1.099581,-0.185607,1.643094,101699.60
56962,10.309,-7.985,1.652,-1.167691,-0.215937,1.740470,101701.55
56972,10.670,-8.202,1.996,-1.256553,-0.235093,1.828268,101701.55
56982,11.290,-8.530,2.360,-1.387452,-0.226047,1.917662,101696.73
56992,12.554,-8.694,2.679,-1.563048,-0.199974,1.990561,101696.73
57001,14.397,-8.314,3.001,-1.753011,-0.169111,2.057075,101702.25
57012,15.769,-7.773,3.100,-1.967984,-0.141442,2.131038,101700.05
57022,16.764,-7.089,2.872,-2.165929,-0.097809,2.199681,101697.58
57032,17.382,-6.230,2.631,-2.363873,-0.017460,2.257149,101697.58
57041,16.493,-6.148,2.347,-2.490515,0.039476,2.297589,101697.58
57052,14.715,-7.281,2.687,-2.478277,0.000100,2.372616,101699.89
57062,12.724,-9.544,4.510,-2.278736,-0.132396,2.516286,101699.31
57072,13.106,-9.103,5.423,-2.083984,-0.260634,2.595038,101698.66
57081,12.873,-7.196,5.075,-1.946167,-0.286708,2.484891,101697.89
57092,11.522,-6.254,4.547,-1.758332,-0.244671,2.323662,101697.89
57102,9.957,-5.356,4.334,-1.533782,-0.207955,2.160305,101701.13
57112,8.510,-4.700,3.980,-1.258681,-0.201570,1.976194,101698.61
57122,6.738,-4.485,3.918,-0.912810,-0.224451,1.784103,101699.56
57132,5.136,-4.674,3.713,-0.646755,-0.169643,1.570195,101699.56
57142,4.267,-4.560,1.934,-0.599930,-0.066946,1.270085,101700.55
57152,1.952,-6.575,-0.971,-0.778718,0.132595,0.910911,101700.40
57161,0.904,-8.592,-0.853,-1.132571,0.483255,0.638470,101700.40
57171,2.855,-5.212,0.914,-1.122461,0.609897,0.379333,101700.87
57182,4.006,-1.495,1.227,-0.902700,0.612026,-0.011768,101699.93
57192,4.829,0.268,0.807,-0.630792,0.598723,-0.357639,101699.93
57202,5.386,1.568,0.469,-0.144444,0.438558,-0.657749,101702.37
57212,5.259,2.464,0.586,0.541978,0.233164,-0.947217,101699.49
57222,5.036,2.074,0.659,1.239042,0.086301,-1.204758,101698.82
57232,4.707,0.557,0.852,1.792968,-0.016396,-1.421859,101696.62
57242,4.377,-0.943,0.899,2.170234,-0.072799,-1.632574,101697.86
57252,4.153,-2.213,0.555,2.321353,-0.041937,-1.873620,101697.30
57262,3.972,-3.159,0.098,2.295280,0.058632,-2.146592,101698.02
57272,3.945,-3.774,-0.239,2.164913,0.211347,-2.437124,101695.41
57282,4.203,-4.074,-0.328,1.978142,0.398650,-2.732445,101695.41
57291,4.747,-4.042,-0.307,1.781262,0.592870,-3.021912,101695.41
57302,5.330,-3.896,-0.333,1.610454,0.777512,-3.292756,101699.10
57312,5.877,-3.871,-0.241,1.518932,0.918521,-3.523160,101696.29
57322,6.405,-4.040,-0.158,1.448161,1.006319,-3.736536,101696.90
57332,6.918,-4.574,-0.058,1.328436,1.071769,-3.950444,101698.34
57341,7.413,-5.258,-0.118,1.200198,1.144668,-4.179783,101698.34
57352,7.942,-5.953,0.027,1.110271,1.255346,-4.413379,101700.65
57362,8.539,-6.395,0.024,1.123574,1.372411,-4.604407,101699.12
57372,9.026,-6.794,-0.097,1.245427,1.468722,-4.712957,101697.48
57382,9.666,-7.705,-0.403,1.391225,1.546411,-4.764572,101697.48
57392,10.092,-9.211,-0.719,1.518399,1.577273,-4.830554,101697.11
57402,10.006,-11.116,-1.018,1.602473,1.570355,-4.905049,101697.11
57412,9.749,-12.993,-1.349,1.637592,1.545346,-4.928462,101699.38
57422,9.647,-13.979,-1.488,1.631207,1.520337,-4.884296,101699.22
57432,9.843,-14.257,-1.371,1.585977,1.508631,-4.803948,101699.47
57438,10.043,-14.035,-1.120,1.509886,1.501181,-4.715086,101699.47
57447,10.270,-13.664,-0.723,1.413574,1.485218,-4.579930,101702.47
57457,10.432,-13.789,-0.085,1.331629,1.441053,-4.371875,101696.92
57466,10.136,-14.411,0.192,1.298106,1.370282,-4.165416,101697.23
57477,9.499,-14.708,0.055,1.232124,1.318668,-3.929692,101700.67
57487,8.890,-14.878,-0.203,1.173592,1.295255,-3.622132,101700.67
57497,8.226,-14.960,-0.727,1.177317,1.236723,-3.277325,101701.13
57507,7.465,-15.744,-1.582,1.197005,1.131897,-2.954867,101701.95
57517,6.414,-16.829,-2.463,1.091647,0.986631,-2.635601,101700.66
57527,5.367,-16.823,-3.025,0.830381,0.825934,-2.199271,101702.26
57537,4.882,-16.998,-3.171,0.645207,0.621604,-1.627253,101702.26
57547,4.221,-17.807,-3.118,0.550492,0.355017,-0.978611,101702.73
57556,3.501,-18.150,-3.156,0.430235,0.055439,-0.275694,101701.74
57567,3.383,-17.216,-1.549,0.283905,-0.172304,0.459682,101700.82
57577,3.715,-16.706,-1.278,0.238675,-0.351093,1.150360,101700.93
57587,3.608,-15.728,0.464,0.288694,-0.612359,1.792084,101700.93
57596,9.983,-4.505,4.417,0.292418,-0.618212,1.960763,101702.55
57607,17.070,6.719,5.673,-0.017802,-0.333533,1.414819,101700.04
57617,20.259,6.375,3.659,-0.033765,-0.222854,1.045002,101698.91
57627,18.012,-2.307,-0.970,0.289226,-0.608102,1.264764,101700.24
57636,12.000,-8.671,0.179,0.953831,-0.980579,1.861259,101700.24
57647,10.283,-9.533,2.035,1.456675,-1.038579,2.226286,101703.38
57657,8.995,-9.032,2.484,1.576931,-1.003459,2.232671,101702.45
57667,6.867,-9.215,3.324,1.667922,-0.925771,2.228415,101699.22
57677,5.700,-9.371,2.718,1.330565,-0.820414,2.156048,101702.25
57687,4.972,-9.158,2.651,0.618602,-0.610230,1.940011,101702.25
57697,6.196,-8.249,2.777,-0.126352,-0.343643,1.692580,101700.92
57707,7.334,-6.673,2.239,-0.599397,-0.166983,1.465369,101704.25
57717,8.260,-4.738,1.503,-0.656333,-0.124946,1.335002,101699.89
57726,9.327,-3.232,0.915,-0.308866,-0.227111,1.303608,101702.41
57737,9.836,-3.349,0.289,0.218987,-0.369185,1.333938,101702.41
57747,9.329,-4.162,0.494,0.602106,-0.444212,1.350433,101697.66
57757,8.252,-5.364,1.327,0.722895,-0.425056,1.293498,101700.33
57767,7.364,-6.188,2.381,0.565391,-0.342579,1.208892,101698.73
57777,7.040,-6.272,3.440,0.216859,-0.230304,1.109920,101700.23
57787,7.419,-5.548,3.810,-0.080058,-0.156341,1.005626,101700.23
57797,7.866,-4.998,3.136,-0.188609,-0.155276,0.922085,101703.05
57807,8.290,-4.675,2.277,-0.130609,-0.205827,0.885369,101699.77
57817,8.411,-4.521,1.507,-0.017269,-0.244671,0.876324,101702.24
57827,8.287,-4.873,1.036,0.055630,-0.236157,0.887498,101699.57
57837,8.131,-5.122,1.083,0.027428,-0.158469,0.904525,101699.57
57847,8.109,-5.052,1.518,-0.146040,-0.046726,0.897608,101702.33
57857,7.901,-4.749,2.131,-0.314187,0.049054,0.900801,101701.45
57867,7.787,-5.040,2.274,-0.387086,0.095879,0.893883,101698.73
57877,7.815,-5.441,1.868,-0.435508,0.114503,0.866746,101699.45
57887,7.959,-5.270,1.804,-0.461049,0.127806,0.850782,101699.45
57897,7.890,-4.975,2.135,-0.423269,0.110246,0.853443,101701.78
57907,7.736,-5.307,2.193,-0.359416,0.077788,0.854507,101700.70
57917,7.616,-5.745,2.135,-0.361544,0.076191,0.845461,101700.14
57927,7.690,-5.728,2.271,-0.425398,0.101733,0.824709,101701.48
57937,7.840,-5.669,2.157,-0.489251,0.125677,0.803425,101701.48
57947,7.985,-5.567,1.965,-0.510003,0.126210,0.799168,101702.63
57957,7.878,-5.335,2.152,-0.496168,0.091622,0.807681,101703.13
57967,7.689,-5.410,2.255,-0.453067,0.057035,0.822580,101700.72
57977,7.492,-5.809,2.074,-0.423269,0.024577,0.838544,101700.88
57987,7.362,-5.826,2.104,-0.432315,0.009678,0.850782,101700.88
57997,7.404,-5.729,2.263,-0.454132,0.006485,0.862489,101700.23
58007,7.632,-5.775,2.249,-0.467434,0.002760,0.880048,101699.66
58017,7.809,-5.938,2.128,-0.459985,-0.004689,0.901333,101700.70
58028,7.798,-6.295,1.969,-0.466370,0.001696,0.915700,101700.79
58033,7.761,-6.558,1.770,-0.491911,0.016595,0.927406,101700.79
58042,7.723,-6.659,1.585,-0.529159,0.030430,0.933791,101700.79
58052,7.655,-6.601,1.665,-0.601526,0.048522,0.936984,101702.88
58062,7.692,-6.231,2.067,-0.627599,0.060228,0.956140,101702.83
58073,7.689,-6.181,2.263,-0.628664,0.054375,1.002434,101698.16
58082,8.005,-6.489,1.831,-0.646223,0.025641,1.054580,101697.66
58092,8.113,-6.733,1.969,-0.689856,0.000632,1.120562,101701.61
58102,8.245,-6.672,1.916,-0.735618,-0.006818,1.190268,101701.81
58113,8.448,-6.762,1.692,-0.761691,-0.032359,1.255718,101701.81
58122,8.671,-6.904,1.579,-0.782975,-0.093020,1.319039,101698.69
58132,8.821,-7.032,1.509,-0.771801,-0.159533,1.386085,101699.61
58142,8.768,-7.356,1.401,-0.740407,-0.228176,1.451534,101699.61
58152,8.713,-7.649,1.210,-0.743067,-0.278194,1.507406,101699.01
58162,8.916,-7.751,1.212,-0.788296,-0.312249,1.549974,101699.01
58172,9.256,-7.729,1.259,-0.838315,-0.347900,1.599993,101697.73
58182,9.505,-7.700,1.248,-0.872370,-0.380891,1.663846,101696.70
58192,9.669,-7.779,1.106,-0.910682,-0.409625,1.738873,101696.70
58203,9.900,-7.873,1.022,-0.987838,-0.430377,1.807516,101700.78
58212,10.167,-8.137,1.050,-1.108094,-0.431441,1.887864,101698.78
58222,10.653,-8.423,1.158,-1.281030,-0.404304,1.962892,101696.06
58232,11.573,-8.592,1.582,-1.516755,-0.355350,2.017699,101696.06
58242,12.816,-8.217,2.295,-1.792387,-0.288304,2.063993,101696.06
58252,14.041,-7.767,2.631,-2.060571,-0.202634,2.109222,101698.60
58262,15.594,-6.858,2.390,-2.273947,-0.152616,2.165626,101700.40
58272,16.768,-5.907,2.117,-2.377353,-0.195185,2.186378,101698.09
58283,17.166,-5.920,1.805,-2.315451,-0.339919,2.231075,101698.09
58292,16.533,-7.102,2.235,-2.125488,-0.557019,2.336965,101698.09
58302,15.867,-8.438,3.586,-1.806754,-0.837441,2.517350,101700.47
58312,16.457,-7.766,5.083,-1.404480,-1.124248,2.671130,101699.14
58322,16.041,-6.807,5.909,-1.047966,-1.308358,2.660488,101698.27
58333,14.069,-6.917,6.104,-0.849489,-1.361569,2.524800,101698.27
58342,11.676,-6.419,5.868,-0.749452,-1.298248,2.346543,101702.17
58352,9.854,-5.704,5.271,-0.560021,-1.218964,2.154451,101702.17
58362,8.077,-6.312,3.688,-0.332278,-1.266854,2.021956,101702.13
58373,6.149,-6.961,3.943,-0.020462,-1.362634,1.974598,101698.27
58382,5.713,-6.255,3.870,0.186529,-1.340285,1.772396,101695.91
58393,3.079,-7.381,2.050,0.128883,-1.190585,1.356287,101698.84
58402,0.701,-8.899,1.718,-0.114645,-0.802322,1.025846,101698.84
58413,2.333,-6.715,2.102,-0.572260,-0.294157,0.653902,101699.80
58423,4.305,-2.706,2.131,-0.736150,-0.080781,0.219168,101700.12
58432,4.829,-0.542,1.745,-0.762755,0.071402,-0.199070,101697.35
58442,4.814,0.405,0.984,-0.734553,0.165586,-0.558776,101700.99
58452,4.442,0.891,0.604,-0.551508,0.178356,-0.873785,101696.23
58463,4.205,1.108,0.662,-0.205636,0.172503,-1.155272,101697.82
58472,4.133,0.457,0.852,0.190786,0.190595,-1.448464,101697.82
58482,4.225,-0.575,0.854,0.538785,0.200173,-1.725693,101697.91
58492,4.268,-1.349,0.635,0.830914,0.202301,-1.999730,101697.91
58503,4.278,-1.912,0.282,1.060253,0.225714,-2.275362,101700.34
58512,4.275,-2.396,-0.084,1.242766,0.261898,-2.545142,101699.06
58522,4.556,-2.555,-0.150,1.390161,0.303934,-2.809601,101697.06
58532,4.859,-2.620,-0.012,1.519464,0.352888,-3.071931,101697.89
58543,5.297,-2.673,0.225,1.687078,0.393329,-3.325747,101697.89
58553,5.725,-2.901,0.473,1.842986,0.427384,-3.571582,101697.82
58562,5.811,-3.576,0.567,1.937170,0.458778,-3.805178,101694.98
58572,5.795,-4.469,0.694,1.974950,0.496026,-4.022811,101693.59
58583,5.933,-5.348,0.698,1.930252,0.562007,-4.258535,101693.59
58592,6.222,-6.419,0.537,1.804142,0.683861,-4.518205,101693.59
58602,6.497,-7.393,0.374,1.613115,0.871695,-4.784260,101699.02
58612,6.976,-7.919,0.178,1.381647,1.105824,-5.003489,101698.86
58622,7.597,-8.306,0.165,1.165611,1.341016,-5.156737,101696.97
58633,8.258,-8.955,0.128,1.017152,1.522998,-5.271141,101698.86
58642,8.604,-9.923,-0.090,0.967134,1.629420,-5.356810,101698.86
58652,8.861,-11.067,-0.278,1.051207,1.671988,-5.382351,101698.48
58662,9.064,-12.753,-0.531,1.233721,1.653897,-5.346168,101696.88
58673,9.151,-14.484,-0.996,1.407188,1.602282,-5.252516,101697.20
58682,9.412,-15.856,-1.541,1.482216,1.562906,-5.114700,101697.20
58692,9.939,-17.165,-1.826,1.465721,1.549603,-4.955599,101701.59
58702,9.964,-18.429,-1.546,1.347060,1.508099,-4.797563,101698.87
58713,8.726,-19.058,-1.018,1.043758,1.441585,-4.588444,101698.87
58722,6.987,-18.319,0.165,0.710657,1.442117,-4.208517,101701.07
58732,6.340,-16.981,1.155,0.644675,1.458612,-3.635967,101697.32
58742,6.407,-17.066,0.449,0.903813,1.375603,-3.057032,101697.32
58753,5.582,-19.659,-2.592,1.196473,1.218099,-2.579197,101701.45
58762,4.353,-21.795,-5.913,0.996932,1.063787,-2.154573,101699.45
58772,2.860,-21.809,-7.661,0.356804,0.877549,-1.575106,101703.15
58782,2.154,-20.405,-6.388,-0.142847,0.558815,-0.786519,101701.65
58792,2.881,-19.191,-4.958,-0.023655,0.056503,0.138287,101704.29
58803,1.452,-20.526,-1.608,0.566987,-0.638964,1.316378,101700.49
58813,6.842,-12.753,6.378,1.138473,-0.966744,2.279497,101701.30
58822,19.653,8.196,11.550,0.602638,-0.708139,1.911277,101697.98
58832,24.158,5.057,5.553,-0.255655,-0.057900,1.101938,101697.98
58843,17.863,-12.419,-1.667,-0.384957,-0.343643,1.617020,101697.98
58852,9.589,-14.884,2.291,0.303061,-0.778377,2.475846,101700.98
58862,9.163,-8.240,1.779,0.603703,-0.852872,2.550873,101701.74
58872,7.447,-5.816,-0.093,1.015024,-0.949716,2.256084,101702.10
58883,4.713,-8.277,1.816,1.621097,-0.999203,2.256084,101703.38
58893,5.045,-10.476,1.938,1.461996,-0.870432,2.229479,101703.38
58902,6.456,-10.752,1.082,0.632969,-0.621405,1.962360,101703.71
58912,7.210,-9.503,1.249,0.010400,-0.402708,1.606378,101702.12
58923,7.712,-7.639,0.536,-0.263104,-0.283515,1.327021,101698.23
58933,8.149,-5.325,0.123,-0.288113,-0.227643,1.186011,101698.23
58943,8.730,-4.321,0.382,-0.093361,-0.190928,1.140782,101702.49
58952,9.068,-4.499,0.877,0.145024,-0.206891,1.133333,101702.49
58962,8.872,-4.231,1.950,0.307850,-0.217001,1.105663,101700.38
58973,8.173,-4.321,3.056,0.390859,-0.234561,1.035957,101702.54
58982,7.549,-4.624,3.737,0.322217,-0.246267,0.979021,101698.02
58992,7.270,-5.004,3.935,0.102987,-0.193056,0.914635,101698.02
59002,7.584,-4.900,3.524,-0.088040,-0.134524,0.835351,101700.86
59013,7.963,-4.364,2.837,-0.148168,-0.127075,0.775755,101699.89
59023,8.315,-4.115,2.069,-0.085912,-0.156873,0.777351,101700.50
59032,8.600,-3.983,1.528,0.038602,-0.209020,0.827369,101698.65
59042,8.579,-4.030,1.381,0.146620,-0.257974,0.894415,101699.62
59053,8.154,-4.600,1.278,0.199299,-0.268084,0.955076,101701.66
59063,7.669,-5.295,1.161,0.169501,-0.237221,1.002434,101700.95
59072,7.424,-5.759,1.258,0.029556,-0.169111,1.016801,101700.95
59082,7.713,-5.299,1.684,-0.145508,-0.090891,1.029571,101700.18
59092,8.030,-4.614,2.054,-0.237031,-0.045662,1.035957,101700.18
59103,8.052,-4.867,1.855,-0.236499,-0.041937,1.047131,101702.98
59112,7.999,-5.206,1.591,-0.185416,-0.062689,1.068947,101698.76
59122,7.736,-5.456,1.598,-0.156150,-0.066414,1.072672,101697.88
59132,7.443,-6.067,1.442,-0.169985,-0.048322,1.054580,101698.51
59143,7.481,-6.352,1.494,-0.245012,-0.008946,1.038617,101698.51
59153,7.562,-6.160,1.722,-0.307269,0.022980,1.014672,101699.85
59162,7.413,-6.237,1.586,-0.305673,0.026705,0.985406,101700.37
59172,7.294,-6.099,1.549,-0.328022,0.033090,0.966250,101698.82
59183,7.464,-5.848,1.631,-0.321636,0.035219,0.952415,101698.82
59192,7.632,-5.930,1.680,-0.299820,0.038411,0.945498,101698.82
59202,7.513,-6.369,1.654,-0.283324,0.043200,0.933259,101701.98
59212,7.330,-6.725,1.658,-0.306205,0.069806,0.908782,101699.88
59223,7.329,-6.952,1.718,-0.364205,0.108650,0.882177,101700.38
59228,7.203,-6.932,1.672,-0.403581,0.132595,0.865681,101698.45
59237,7.283,-6.848,1.683,-0.438168,0.156540,0.848122,101698.45
59247,7.368,-6.731,1.817,-0.503618,0.173035,0.845993,101703.10
59257,7.505,-6.640,1.890,-0.573324,0.193788,0.859828,101701.66
59268,7.863,-6.180,2.200,-0.657397,0.202833,0.907186,101700.90
59278,8.088,-6.039,2.679,-0.696241,0.163989,0.983810,101698.18
59287,8.065,-6.312,3.003,-0.691985,0.105989,1.073204,101698.18
59297,7.681,-6.820,3.713,-0.717526,0.092687,1.155681,101701.81
59308,7.917,-7.532,3.754,-0.820755,0.146430,1.213681,101699.30
59318,9.007,-7.850,2.621,-0.961764,0.160797,1.258378,101698.89
59327,9.675,-7.876,1.761,-1.088938,0.146962,1.308929,101698.44
59337,10.185,-7.375,1.108,-1.138957,0.092155,1.387149,101698.44
59347,10.431,-7.254,0.766,-1.116076,0.009145,1.494103,101700.56
59358,10.694,-7.418,0.444,-1.060737,-0.090359,1.618085,101700.66
59368,10.777,-7.624,0.411,-1.027746,-0.179754,1.739938,101702.41
59377,10.729,-7.802,0.628,-1.045838,-0.230304,1.850084,101700.00
59387,10.732,-8.215,0.808,-1.108626,-0.239350,1.960231,101700.00
59398,10.847,-8.662,0.696,-1.217177,-0.223387,2.049626,101701.30
59408,11.283,-8.992,0.786,-1.391709,-0.191992,2.112947,101701.70
59417,12.406,-8.909,1.466,-1.641268,-0.154744,2.154984,101698.63
59427,14.334,-8.563,2.280,-1.917433,-0.112708,2.200745,101697.70
59438,16.925,-7.439,3.014,-2.198387,-0.080781,2.264598,101697.70
59448,18.747,-6.082,3.554,-2.406974,-0.091955,2.359846,101700.40
59457,19.401,-5.014,3.496,-2.488387,-0.137717,2.436470,101700.20
59467,18.354,-4.983,3.182,-2.426662,-0.202102,2.517350,101698.82
59478,15.271,-7.007,3.091,-2.184552,-0.315442,2.624304,101697.27
59488,12.651,-9.752,3.964,-1.816332,-0.467093,2.811607,101697.27
59498,13.127,-9.534,4.885,-1.545489,-0.565001,2.919093,101700.42
59507,13.335,-8.101,4.929,-1.439067,-0.530414,2.808946,101699.50
59517,12.053,-7.018,4.818,-1.442259,-0.378230,2.596634,101698.27
59528,10.829,-5.654,4.401,-1.449709,-0.217533,2.355589,101696.22
59538,9.648,-4.735,3.720,-1.351801,-0.193056,2.136359,101696.22
59547,7.568,-4.427,4.063,-1.070847,-0.262763,1.953846,101700.41
59557,5.766,-4.070,4.309,-0.705819,-0.264891,1.756965,101701.18
59568,4.291,-3.716,2.613,-0.599930,-0.157937,1.421736,101700.41
59578,0.279,-7.263,0.790,-0.632388,0.114503,1.088635,101699.13
59587,-0.061,-9.310,0.693,-0.887269,0.581695,0.819388,101699.13
59597,2.879,-4.970,1.276,-1.180993,0.865310,0.439994,101699.62
59608,4.288,-1.015,1.144,-1.218773,1.017493,-0.103290,101698.34
59618,4.772,0.795,0.634,-1.149067,1.120723,-0.566758,101697.93
59628,5.453,2.029,0.064,-0.839379,1.041970,-0.914758,101700.09
59637,5.493,2.869,-0.376,-0.281728,0.848283,-1.217528,101700.09
59648,5.317,2.568,-0.344,0.378088,0.706209,-1.474005,101700.18
59658,5.202,1.370,-0.189,1.002785,0.574246,-1.680464,101701.15
59668,4.942,0.130,-0.069,1.534363,0.439622,-1.877344,101699.10
59677,4.706,-0.997,-0.031,1.908968,0.356613,-2.099766,101698.48
59687,4.586,-2.018,-0.205,2.135115,0.323622,-2.369546,101698.48
59698,4.535,-2.750,-0.257,2.228234,0.344375,-2.669656,101698.82
59708,4.770,-3.174,-0.301,2.212270,0.413017,-2.986793,101697.43
59717,5.112,-3.287,-0.183,2.142032,0.507200,-3.306591,101696.98
59727,5.566,-3.410,-0.036,2.080307,0.617879,-3.595527,101696.87
59738,6.113,-3.515,0.195,2.009005,0.730154,-3.846683,101696.87
59748,6.530,-3.884,0.362,1.916950,0.825402,-4.082407,101699.19
59757,7.036,-4.577,0.288,1.781794,0.903622,-4.313875,101696.41
59767,7.711,-5.475,0.130,1.548198,1.010044,-4.562370,101696.83
59778,8.242,-6.425,-0.093,1.307152,1.158502,-4.827361,101695.59
59788,8.712,-7.235,-0.290,1.207115,1.320264,-5.048186,101695.59
59798,9.320,-8.152,-0.456,1.160822,1.500649,-5.176957,101700.25
59807,9.850,-9.181,-0.340,1.100161,1.666667,-5.245067,101693.98
59817,9.985,-10.766,-0.162,1.117189,1.740098,-5.313177,101698.05
59824,9.973,-12.161,-0.394,1.195941,1.720410,-5.358939,101695.17
59833,10.049,-13.199,-0.819,1.348656,1.638466,-5.354149,101695.17
59842,10.207,-14.240,-1.214,1.619500,1.488943,-5.263159,101695.17
59852,10.459,-15.377,-1.725,1.858950,1.354319,-5.101930,101696.62
59863,10.741,-16.140,-1.865,1.940362,1.276099,-4.878443,101698.05
59873,10.631,-16.622,-1.476,1.856289,1.207457,-4.603875,101700.37
59883,10.079,-17.983,-0.988,1.758913,1.085603,-4.365489,101700.37
59893,8.786,-19.288,-0.541,1.564693,0.971200,-4.130297,101702.77
59902,6.603,-19.185,0.206,1.281078,0.943530,-3.722701,101702.77
59913,5.394,-17.951,-0.296,1.160290,0.956301,-3.127270,101703.09
59923,5.087,-18.995,-1.472,1.360895,0.874888,-2.557381,101705.04
59932,4.055,-20.929,-3.720,1.363023,0.660448,-2.081142,101700.16
59943,2.667,-21.974,-5.298,0.912149,0.471017,-1.391528,101704.32
59953,1.675,-21.422,-5.178,0.412143,0.349164,-0.664134,101704.32
59963,2.257,-18.690,-3.782,0.022639,0.123549,0.109021,101702.23
59973,3.577,-16.491,-2.253,0.067336,-0.205295,0.791186,101700.88
59982,2.900,-16.358,-0.267,0.366914,-0.640561,1.548378,101701.30
59993,7.888,-7.350,6.170,0.854326,-0.855533,2.111882,101703.15
60003,16.917,7.937,9.536,0.793134,-0.738469,1.712268,101699.65
60013,21.522,5.627,5.791,0.699482,-0.466561,1.122158,101701.65
60022,19.713,-9.780,-3.502,0.604767,-0.715056,1.435039,101701.65
60033,11.360,-16.092,-1.893,0.898492,-1.001331,2.179993,101700.52
60043,9.483,-11.675,0.352,0.925629,-0.853937,2.442855,101700.52
60053,8.945,-6.038,-0.347,0.730877,-0.710267,2.244910,101701.96
60063,5.392,-4.940,2.867,1.041274,-0.643576,2.138133,101700.01
60072,4.543,-6.585,4.532,1.128895,-0.581496,2.125717,101700.01
60083,5.198,-7.827,4.793,0.759611,-0.507533,2.009185,101697.09
60093,6.595,-7.650,4.340,0.334987,-0.442084,1.773993,101697.09
60103,7.184,-7.243,3.093,0.072657,-0.377166,1.512195,101701.67
60112,7.734,-6.148,1.125,-0.073673,-0.310120,1.329149,101701.16
60123,8.567,-4.539,0.323,-0.009820,-0.290964,1.248800,101698.95
60133,9.504,-4.223,0.052,0.293483,-0.346836,1.248268,101698.95
60143,9.619,-4.984,0.130,0.609556,-0.444212,1.290305,101698.95
60152,8.956,-5.513,0.560,0.741519,-0.469221,1.316378,101702.02
60163,7.878,-5.906,1.305,0.634033,-0.408029,1.294030,101702.90
60173,7.039,-6.600,1.788,0.322749,-0.272341,1.231241,101700.54
60183,6.921,-7.205,1.864,-0.112517,-0.083974,1.145039,101699.51
60192,7.273,-6.993,1.823,-0.527031,0.099072,1.028507,101699.51
60203,7.646,-6.070,1.580,-0.774462,0.234228,0.903993,101701.84
60213,8.145,-4.942,1.433,-0.810113,0.294356,0.816195,101702.41
60223,8.528,-4.053,1.853,-0.654737,0.254448,0.797571,101700.71
60233,8.466,-4.189,2.018,-0.440829,0.156540,0.824709,101700.32
60242,8.057,-4.545,2.322,-0.263636,0.069806,0.856103,101702.38
60253,7.591,-4.828,2.378,-0.167324,0.026705,0.857700,101701.15
60263,7.352,-5.182,2.248,-0.185948,0.036283,0.849186,101701.15
60273,7.500,-5.294,2.029,-0.260444,0.064485,0.842801,101700.99
60282,7.939,-5.330,1.793,-0.317911,0.086833,0.848122,101701.55
60293,8.167,-5.407,1.406,-0.333343,0.096411,0.853975,101701.55
60303,7.980,-5.698,1.312,-0.346113,0.116632,0.867810,101700.36
60313,7.676,-6.039,1.546,-0.429122,0.160265,0.861957,101700.78
60323,7.799,-6.093,1.650,-0.521709,0.206558,0.843865,101698.67
60333,7.941,-5.965,1.747,-0.520113,0.212943,0.831094,101702.47
60343,7.609,-5.994,1.853,-0.483930,0.185806,0.827369,101701.82
60353,7.418,-5.874,1.959,-0.493508,0.176228,0.828966,101701.30
60363,7.330,-6.062,1.830,-0.499361,0.172503,0.831094,101700.18
60372,7.450,-6.158,1.678,-0.522242,0.178356,0.842801,101699.96
60383,7.546,-6.040,1.854,-0.560553,0.187934,0.863021,101699.96
60393,7.620,-6.111,1.854,-0.575985,0.191659,0.883773,101699.96
60403,7.841,-5.931,2.078,-0.615893,0.171439,0.908782,101702.22
60412,7.803,-5.213,2.818,-0.616957,0.118760,0.952947,101699.80
60423,7.462,-5.475,3.026,-0.529691,0.042136,1.008287,101699.91
60433,7.300,-6.016,2.753,-0.470095,-0.014800,1.059369,101701.23
60443,7.274,-6.589,2.551,-0.487654,-0.030763,1.099277,101701.23
60453,7.322,-7.096,2.506,-0.574388,-0.007882,1.131204,101701.13
60463,7.640,-7.441,2.364,-0.721783,0.044265,1.157810,101698.22
60473,8.386,-7.591,1.798,-0.873966,0.085769,1.192397,101697.27
60483,8.915,-7.504,1.898,-0.996883,0.108118,1.250929,101697.27
60493,9.334,-7.214,1.564,-1.064461,0.092155,1.324892,101700.62
60503,9.716,-7.154,1.137,-1.067654,0.033622,1.410562,101700.62
60513,9.997,-7.256,1.118,-1.035727,-0.063221,1.505809,101699.76
60523,10.184,-7.529,1.222,-0.991030,-0.176561,1.602653,101702.41
60533,10.287,-7.887,1.411,-0.966553,-0.266487,1.699497,101696.73
60538,10.371,-8.138,1.447,-0.972939,-0.314377,1.755369,101696.73
60548,10.607,-8.386,1.391,-1.008058,-0.341515,1.799534,101699.51
60558,10.908,-8.526,1.247,-1.100113,-0.359607,1.871369,101701.15
60568,11.273,-8.404,1.212,-1.243782,-0.354818,1.946396,101699.76
60578,11.646,-8.405,1.124,-1.414057,-0.323955,2.023020,101700.02
60588,12.338,-8.246,0.988,-1.622645,-0.260634,2.103901,101700.02
60598,13.365,-7.850,1.088,-1.891360,-0.173900,2.176800,101702.68
60608,14.485,-7.320,1.054,-2.112718,-0.103662,2.234268,101700.99
60618,16.135,-6.301,1.180,-2.295231,-0.069607,2.276304,101699.20
60627,17.795,-5.004,1.508,-2.424534,-0.099405,2.301846,101697.13
60638,17.746,-4.693,1.715,-2.408038,-0.231900,2.334836,101697.13
60648,15.703,-5.932,2.056,-2.179763,-0.425056,2.416781,101700.59
60658,13.037,-8.409,3.581,-1.820057,-0.631869,2.558500,101698.89
60667,12.980,-8.875,5.227,-1.499727,-0.807111,2.673258,101698.23
60678,13.480,-8.045,6.326,-1.216645,-0.933753,2.666873,101699.16
60688,12.929,-7.793,6.156,-1.043709,-0.943331,2.546084,101699.16
60698,11.810,-7.512,5.655,-0.954315,-0.883203,2.373148,101700.46
60708,10.524,-6.676,4.577,-0.950590,-0.799129,2.151259,101699.49
60718,8.607,-6.084,4.409,-0.910150,-0.764542,1.967681,101697.65
60728,6.586,-5.974,5.051,-0.680278,-0.791148,1.829332,101698.98
60738,5.403,-4.899,5.601,-0.320040,-0.786359,1.612763,101698.98
60748,4.073,-3.792,4.241,-0.090701,-0.681533,1.228580,101699.70
60758,-0.121,-7.396,1.593,-0.145508,-0.398983,0.815663,101697.86
60768,-1.398,-10.968,0.644,-0.428590,0.034687,0.555993,101700.31
60778,1.604,-7.019,0.761,-0.867936,0.370625,0.192740,101697.03
60788,2.561,-3.109,1.102,-1.122993,0.608301,-0.303896,101697.03
60798,2.895,-0.937,1.504,-1.226223,0.875952,-0.745015,101700.63
60808,3.626,0.843,1.241,-1.105966,0.955769,-1.057363,101698.56
60818,4.151,2.571,0.962,-0.675489,0.839769,-1.321822,101700.31
60828,4.464,3.044,0.711,0.030088,0.694503,-1.569785,101697.28
60837,4.852,1.888,0.683,0.734070,0.582228,-1.758684,101697.28
60848,5.069,0.268,0.625,1.305555,0.470485,-1.932684,101700.83
60858,4.984,-1.249,0.411,1.697720,0.393861,-2.139142,101698.11
60868,4.785,-2.389,0.106,1.940895,0.359806,-2.366353,101698.97
60878,4.731,-3.178,-0.353,2.071261,0.367255,-2.609527,101696.45
60888,4.743,-3.728,-0.352,2.130858,0.418338,-2.861215,101696.45
60898,4.868,-4.037,-0.128,2.132986,0.511457,-3.120885,101698.75
60908,4.969,-4.036,0.165,2.119684,0.626925,-3.371509,101698.34
60918,5.271,-3.974,0.408,2.126069,0.737072,-3.593398,101696.50
60928,5.714,-4.074,0.603,2.096803,0.826466,-3.805710,101695.47
60938,6.089,-4.578,0.731,2.011665,0.891916,-4.032389,101695.47
60948,6.596,-5.400,0.696,1.866399,0.966943,-4.269178,101699.14
60958,7.024,-6.415,0.597,1.656748,1.090925,-4.523526,101695.97
60968,7.335,-7.346,0.283,1.465721,1.257475,-4.762444,101696.22
60978,7.829,-7.881,-0.090,1.335886,1.449034,-4.941232,101697.19
60988,8.510,-8.313,-0.285,1.250748,1.621438,-5.040205,101697.19
60998,9.292,-9.026,-0.492,1.224675,1.703383,-5.108315,101697.95
61008,9.942,-10.060,-0.671,1.288528,1.672521,-5.173764,101696.87
61018,10.411,-11.238,-0.856,1.465721,1.562906,-5.209415,101696.82
61028,10.759,-12.692,-1.023,1.701445,1.421897,-5.181214,101693.59
61038,11.050,-14.235,-1.383,1.896197,1.295787,-5.089691,101693.59
61048,11.588,-15.547,-1.604,2.001023,1.212246,-4.934847,101698.45
61058,11.941,-16.837,-1.430,2.002087,1.119658,-4.734774,101699.89
61068,11.041,-17.658,-0.987,1.858418,0.962686,-4.507031,101695.63
61078,9.529,-17.287,-0.400,1.609390,0.841897,-4.168077,101698.91
61088,8.442,-16.285,0.510,1.488601,0.795604,-3.676939,101698.91
61099,7.671,-16.710,0.165,1.594491,0.768466,-3.186867,101699.87
61108,6.700,-18.896,-1.236,1.686014,0.695567,-2.825564,101702.74
61118,5.041,-19.605,-2.582,1.404528,0.648209,-2.396683,101702.59
61128,4.190,-20.174,-3.005,0.966069,0.605640,-1.774115,101700.74
61138,2.906,-20.388,-3.040,0.357868,0.520503,-1.087161,101700.74
61148,2.884,-19.231,-2.505,-0.132737,0.359806,-0.401272,101702.04
61158,3.608,-17.527,-0.909,-0.269489,0.184742,0.321333,101701.38
61168,4.238,-16.737,-1.731,-0.171581,-0.116432,1.132268,101701.43
61178,5.141,-14.142,0.992,0.247189,-0.514451,1.877222,101699.79
61188,12.442,-2.158,4.368,0.477061,-0.688983,1.990029,101699.79
61198,17.079,5.149,5.322,0.355740,-0.478799,1.425993,101700.52
61208,17.795,1.314,2.827,0.313703,-0.362267,1.188672,101698.57
61218,15.786,-5.626,-1.525,0.362657,-0.594267,1.438231,101699.91
61228,11.114,-9.358,-0.571,0.673941,-0.785294,1.846360,101701.85
61238,10.263,-8.638,1.132,1.018748,-0.802322,2.075167,101701.85
61248,9.326,-7.333,0.475,1.076748,-0.745386,1.995350,101705.05
61258,6.601,-7.481,2.146,1.054932,-0.610230,1.932561,101703.41
61268,6.000,-7.813,4.375,0.861244,-0.406432,1.920855,101700.80
61278,6.741,-7.400,4.219,0.375428,-0.257442,1.824543,101701.83
61288,6.782,-6.674,4.041,-0.003967,-0.188799,1.673956,101701.83
61298,7.067,-5.807,4.139,-0.159343,-0.163790,1.512195,101699.91
61308,7.410,-5.128,2.990,-0.172113,-0.191460,1.371718,101702.52
61318,8.199,-4.805,1.199,-0.056646,-0.248928,1.302543,101698.79
61328,9.116,-5.185,-0.237,0.104052,-0.282451,1.281791,101700.32
61338,9.362,-5.791,-0.810,0.151409,-0.232432,1.270085,101700.32
61348,8.844,-5.971,0.014,0.069997,-0.105258,1.233369,101701.97
61359,8.484,-4.955,1.307,-0.072077,0.022448,1.179094,101701.88
61368,7.998,-4.681,2.802,-0.191269,0.086833,1.114177,101699.56
61374,7.766,-5.234,3.247,-0.254590,0.079384,1.059369,101698.89
61383,7.696,-5.693,3.240,-0.310994,0.050118,1.000837,101698.89
61393,7.774,-5.793,2.897,-0.374847,0.029898,0.911443,101698.89
61404,8.022,-5.107,2.654,-0.426994,-0.000433,0.831626,101703.98
61413,8.202,-4.530,2.336,-0.426462,-0.019056,0.781608,101701.57
61423,8.295,-4.408,2.187,-0.378572,-0.027038,0.767241,101700.52
61433,8.126,-4.437,2.115,-0.322700,-0.028102,0.768837,101700.52
61444,8.030,-4.547,2.330,-0.280132,-0.016928,0.773626,101703.98
61453,7.931,-4.557,2.488,-0.252462,-0.013735,0.793314,101703.98
61463,7.796,-4.778,2.436,-0.240755,-0.028634,0.806617,101700.34
61473,7.911,-4.800,2.145,-0.255122,-0.026506,0.821516,101700.49
61484,8.018,-5.019,1.859,-0.259379,-0.011607,0.827369,101698.49
61494,8.060,-5.261,1.658,-0.269489,0.001341,0.835528,101700.05
61503,7.984,-5.212,1.870,-0.290242,0.014999,0.842269,101700.05
61513,7.791,-4.881,2.443,-0.295031,0.006485,0.849186,101700.48
61523,7.494,-4.773,2.857,-0.252462,-0.024377,0.857700,101702.05
61534,7.257,-4.894,2.930,-0.179031,-0.066414,0.865681,101702.32
61543,7.129,-5.027,2.831,-0.118902,-0.102066,0.869938,101702.44
61553,7.192,-5.371,2.601,-0.095490,-0.119625,0.879516,101699.67
61563,7.435,-5.711,2.083,-0.112517,-0.117497,0.886966,101701.22
61573,7.686,-5.683,1.787,-0.151893,-0.110047,0.898672,101701.22
61583,7.756,-5.471,1.844,-0.165196,-0.121754,0.915168,101696.23
61593,7.647,-5.641,1.789,-0.134866,-0.146231,0.940709,101696.23
61603,7.588,-5.988,1.533,-0.106664,-0.168047,0.967846,101699.19
61614,7.569,-6.199,1.445,-0.117306,-0.171062,0.999418,101700.19
61623,7.445,-6.546,1.459,-0.150829,-0.150487,1.008819,101700.19
61633,7.559,-6.909,1.248,-0.230113,-0.112176,1.021057,101699.48
61643,7.683,-6.789,1.390,-0.318976,-0.053111,1.020525,101699.48
61654,7.658,-6.627,1.739,-0.373783,-0.025974,1.021590,101701.48
61664,7.507,-6.739,1.859,-0.398260,-0.026506,1.028507,101700.38
61673,7.439,-6.817,1.803,-0.423269,-0.028102,1.040213,101699.69
61683,7.365,-6.740,1.929,-0.469031,-0.029166,1.062562,101699.69
61693,7.244,-6.728,2.383,-0.519581,-0.028102,1.096085,101699.69
61704,7.404,-6.996,2.549,-0.586095,-0.016396,1.130140,101700.37
61713,7.838,-7.290,2.120,-0.666443,-0.022781,1.165259,101699.34
61723,8.151,-7.413,2.032,-0.740939,-0.038212,1.209956,101700.46
61733,8.561,-7.383,1.890,-0.798939,-0.062689,1.254654,101698.52
61743,9.135,-7.578,1.652,-0.823948,-0.108451,1.310525,101698.52
61754,9.532,-7.807,1.522,-0.843104,-0.157937,1.375975,101700.21
61763,9.556,-7.873,1.303,-0.872902,-0.188267,1.449406,101699.95
61773,9.569,-7.869,0.985,-0.908553,-0.209552,1.525497,101697.99
61784,9.630,-7.925,0.793,-0.963361,-0.240946,1.611699,101697.98
61794,9.906,-7.927,1.109,-1.038920,-0.277662,1.706947,101701.42
61803,10.179,-8.299,1.559,-1.122993,-0.312249,1.793149,101701.02
61813,10.548,-8.859,1.895,-1.254957,-0.304799,1.883607,101701.02
61824,11.129,-9.049,2.200,-1.488553,-0.232965,1.960763,101700.41
61834,12.011,-9.070,2.317,-1.778021,-0.122818,2.027809,101700.14
61843,13.271,-9.057,2.036,-2.079727,-0.001497,2.083681,101700.14
61853,15.162,-8.386,1.534,-2.381965,0.109714,2.126250,101702.13
61863,17.149,-6.534,1.360,-2.648552,0.167714,2.179993,101699.00
61874,18.778,-4.631,1.458,-2.776791,0.108650,2.245442,101698.80
61884,19.460,-3.538,1.847,-2.700699,-0.077588,2.341222,101698.94
61893,18.001,-4.168,2.408,-2.396864,-0.364396,2.458286,101698.94
61903,14.612,-7.101,3.804,-1.872736,-0.719845,2.641332,101700.72
61914,12.909,-9.401,5.681,-1.282094,-1.031129,2.855240,101698.42
61924,12.927,-9.263,5.842,-0.846829,-1.196615,2.885038,101697.05
61933,11.691,-9.073,5.166,-0.639306,-1.148193,2.731790,101697.05
61943,10.511,-8.014,4.502,-0.688260,-0.941203,2.508304,101697.05
61954,9.673,-6.514,3.682,-0.826608,-0.749643,2.261937,101702.84
61964,7.996,-6.044,3.177,-0.859599,-0.692175,2.028341,101699.00
61973,6.116,-5.840,3.772,-0.714333,-0.676744,1.844231,101701.11
61983,4.595,-5.261,4.160,-0.503618,-0.632579,1.585094,101700.95
61993,3.534,-4.079,3.036,-0.425930,-0.496359,1.191865,101700.95
62004,0.001,-6.718,0.684,-0.531820,-0.237753,0.800232,101699.74
62014,-0.817,-9.387,0.535,-0.749985,0.176760,0.586856,101700.13
62023,1.715,-5.410,0.875,-1.083085,0.438558,0.251627,101699.60
62033,2.548,-1.783,1.005,-1.186314,0.624796,-0.240575,101699.60
62044,2.824,-0.235,1.008,-1.149067,0.830191,-0.649767,101700.32
62053,3.436,0.948,0.639,-0.994755,0.901493,-0.965308,101700.32
62063,3.916,1.969,0.083,-0.646755,0.838172,-1.243602,101699.09
62073,4.106,2.140,-0.055,-0.136994,0.769530,-1.493161,101700.01
62084,4.521,1.212,-0.003,0.425446,0.707273,-1.708134,101698.37
62093,4.789,-0.023,0.002,0.960748,0.609365,-1.912464,101698.37
62103,4.850,-1.179,-0.011,1.394418,0.519971,-2.123711,101699.43
62113,4.680,-2.192,-0.215,1.694528,0.465696,-2.355711,101700.76
62124,4.626,-2.913,-0.364,1.874381,0.452393,-2.601546,101695.57
62134,4.658,-3.288,-0.418,1.985060,0.464099,-2.849509,101695.70
62144,4.855,-3.501,-0.406,2.061683,0.500283,-3.087894,101696.63
62153,5.206,-3.606,-0.437,2.104252,0.567329,-3.315105,101698.48
62163,5.691,-3.690,-0.280,2.145225,0.662044,-3.533802,101695.34
62174,6.211,-3.961,0.131,2.144693,0.759952,-3.746646,101695.34
62183,6.691,-4.508,0.532,2.067537,0.826466,-3.966407,101694.42
62193,7.145,-5.414,0.717,1.906307,0.874356,-4.194682,101694.42
62203,7.675,-6.575,0.546,1.685482,0.949383,-4.411251,101699.23
62209,8.032,-7.461,0.377,1.504565,1.043567,-4.567159,101698.47
62219,8.348,-8.030,0.230,1.338014,1.156906,-4.704443,101697.45
62228,8.876,-8.308,0.097,1.223078,1.290998,-4.852902,101697.14
62238,9.468,-8.641,-0.137,1.247023,1.376667,-4.948682,101697.14
62248,10.046,-9.787,-0.332,1.343867,1.398484,-4.988058,101698.22
62259,10.386,-11.598,-0.368,1.458271,1.343677,-4.984333,101699.39
62268,10.481,-13.298,-0.522,1.565225,1.226613,-4.955599,101699.50
62278,10.473,-14.597,-0.819,1.649830,1.101567,-4.878975,101697.86
62288,10.294,-15.153,-1.123,1.673775,1.029732,-4.752333,101697.86
62299,10.167,-14.916,-1.205,1.584913,1.016961,-4.588975,101698.66
62309,10.056,-14.822,-0.844,1.401335,1.002062,-4.399013,101699.59
62318,9.453,-15.076,-0.118,1.184767,0.937145,-4.186169,101699.29
62328,8.513,-14.400,0.637,0.995513,0.856264,-3.889251,101700.37
62339,8.127,-13.494,0.968,0.983629,0.824338,-3.560407,101700.37
62349,7.809,-13.183,0.550,1.090583,0.816888,-3.187931,101702.30
62358,7.438,-14.763,-0.173,1.211904,0.825402,-2.905380,101701.58
62368,6.151,-16.158,-1.230,1.142730,0.829659,-2.660610,101701.28
62379,5.235,-16.704,-2.098,0.874547,0.857328,-2.306757,101702.45
62389,4.197,-17.112,-2.623,0.469079,0.881805,-1.837436,101702.45
62398,3.697,-16.692,-2.839,0.030088,0.828594,-1.307455,101702.87
62408,4.171,-16.157,-2.684,-0.162003,0.622136,-0.758318,101701.37
62418,4.330,-15.788,-3.030,-0.200847,0.333200,-0.155437,101699.88
62429,4.810,-14.584,-1.396,-0.123159,0.054375,0.513425,101700.24
62438,5.537,-14.263,-1.413,0.133318,-0.282451,1.135993,101700.24
62449,4.885,-12.926,1.966,0.510229,-0.698206,1.783748,101701.41
62458,10.737,-2.465,5.576,0.669152,-0.749643,1.869772,101699.09
62469,16.556,7.001,6.634,0.474400,-0.491038,1.288177,101699.41
62479,19.909,2.127,1.483,0.290822,-0.287772,0.914635,101698.58
62488,16.460,-9.729,-3.102,0.234419,-0.517111,1.282855,101698.58
62498,10.431,-13.949,0.945,0.606895,-0.633111,1.950653,101702.03
62509,10.822,-11.605,1.594,0.620730,-0.505405,2.178928,101700.39
62519,10.268,-8.393,1.333,0.514840,-0.503276,2.114543,101700.75
62528,8.657,-5.299,3.070,0.762271,-0.586285,2.100708,101700.19
62538,5.988,-3.497,3.972,0.814950,-0.634175,2.000139,101700.19
62548,4.173,-3.998,4.848,0.711721,-0.587350,1.870837,101703.32
62559,5.293,-5.318,4.740,0.596785,-0.534139,1.709075,101702.54
62569,7.435,-6.036,2.957,0.490895,-0.504873,1.505809,101700.13
62578,8.824,-4.996,1.486,0.446730,-0.509129,1.361608,101699.10
62588,9.319,-4.245,0.633,0.599978,-0.533607,1.318507,101699.10
62599,9.410,-4.732,-0.130,0.823464,-0.583625,1.347773,101699.65
62609,9.120,-5.487,-0.595,0.914987,-0.593735,1.368525,101700.88
62618,8.550,-5.892,-0.090,0.828253,-0.496359,1.360543,101698.01
62628,7.784,-5.887,1.186,0.600510,-0.339919,1.314250,101700.93
62639,7.483,-5.592,2.617,0.316896,-0.198377,1.252525,101700.93
62649,7.705,-5.450,3.050,0.051905,-0.123882,1.196121,101699.66
62658,7.905,-5.522,2.883,-0.121563,-0.105258,1.143443,101701.30
62668,7.961,-5.428,2.408,-0.240223,-0.094084,1.088635,101699.45
62679,8.023,-5.064,2.025,-0.332278,-0.061093,1.033828,101699.05
62689,8.054,-4.765,1.703,-0.368994,-0.024910,0.993388,101699.05
62699,8.124,-4.569,1.519,-0.332278,-0.005754,0.971571,101699.59
62708,8.295,-4.389,1.811,-0.278003,-0.006818,0.986470,101699.90
62718,8.141,-4.593,2.217,-0.223728,-0.034488,1.012544,101700.55
62729,7.724,-5.077,2.156,-0.216811,-0.059497,1.016801,101698.20
62739,7.601,-5.134,2.080,-0.210957,-0.061093,1.009883,101698.20
62748,7.628,-5.291,1.974,-0.237563,-0.051515,0.994452,101699.51
62758,7.599,-5.529,1.667,-0.301416,-0.017460,0.980617,101697.41
62769,7.708,-5.332,1.543,-0.347710,0.013934,0.976892,101700.38
62779,7.767,-5.067,1.758,-0.360480,0.035219,0.971039,101697.30
62788,7.590,-5.423,1.811,-0.349306,0.041604,0.977424,101697.30
62798,7.501,-5.680,1.903,-0.360480,0.042136,0.986470,101700.30
62809,7.556,-5.585,2.113,-0.405710,0.049586,0.991259,101697.18
62819,7.667,-5.593,2.066,-0.403049,0.036815,0.988067,101698.30
62828,7.457,-5.980,1.769,-0.375911,0.010210,0.994452,101699.02
62838,7.324,-5.850,1.704,-0.381233,0.006485,0.997645,101699.02
62849,7.395,-5.768,1.804,-0.381765,0.004889,1.007755,101700.38
62859,7.456,-6.058,1.708,-0.368994,0.004356,1.015204,101700.18
62869,7.439,-6.416,1.546,-0.372187,0.020320,1.007755,101700.99
62878,7.286,-6.858,1.459,-0.406242,0.048522,0.988599,101699.26
62888,7.246,-6.874,1.452,-0.465306,0.088962,0.963057,101699.26
62899,7.424,-6.504,1.707,-0.508407,0.111311,0.956672,101701.66
62909,7.524,-6.386,1.901,-0.506810,0.111311,0.957204,101699.97
62918,7.665,-6.756,1.961,-0.532352,0.097476,0.976360,101698.73
62928,7.743,-6.819,2.217,-0.595673,0.098540,1.009351,101701.97
62939,7.786,-6.899,2.372,-0.669636,0.095879,1.049259,101701.97
62949,7.902,-6.870,2.431,-0.751581,0.092155,1.100874,101699.02
62959,7.943,-6.726,2.848,-0.812241,0.086833,1.168452,101696.91
62968,7.617,-7.208,4.090,-0.863856,0.113971,1.244544,101697.95
62979,8.575,-8.319,3.083,-0.964957,0.164521,1.294562,101696.98
62989,9.608,-8.762,1.718,-1.102241,0.179421,1.330745,101696.98
62999,10.182,-8.567,0.631,-1.213984,0.160265,1.372782,101700.02
63008,10.484,-7.697,0.289,-1.221434,0.100668,1.455791,101697.70
63019,10.857,-7.546,-0.114,-1.152259,-0.003625,1.565406,101699.00
63029,11.260,-7.934,-0.223,-1.083617,-0.114836,1.697369,101699.09
63039,11.565,-8.004,0.110,-1.086278,-0.197313,1.823479,101699.09
63044,11.817,-8.115,0.657,-1.125122,-0.244139,1.925644,101699.10
63053,12.250,-8.322,1.379,-1.194296,-0.278726,2.024084,101699.10
63064,13.052,-8.299,2.474,-1.342223,-0.294689,2.156048,101699.88
63074,13.659,-8.584,3.015,-1.531122,-0.269148,2.278433,101697.82
63084,14.625,-9.049,2.828,-1.747158,-0.203166,2.360910,101697.16
63094,16.484,-8.502,2.498,-2.034497,-0.116965,2.404011,101700.46
63104,18.162,-7.334,2.341,-2.321837,-0.015332,2.423699,101697.54
63114,19.070,-5.894,2.615,-2.566075,0.070338,2.463075,101698.82
63124,18.122,-5.371,3.116,-2.643231,0.071402,2.517882,101698.82
63133,14.886,-7.459,4.295,-2.409635,-0.077588,2.626433,101694.26
63143,12.850,-9.817,5.612,-1.998846,-0.289900,2.781809,101694.26
63154,12.982,-8.745,5.311,-1.747690,-0.419203,2.763717,101698.19
63164,12.109,-7.178,5.015,-1.530944,-0.410512,2.600359,101698.39
63173,11.071,-5.749,4.829,-1.335305,-0.359607,2.423167,101698.39
63183,10.082,-4.601,4.210,-1.108094,-0.342579,2.202873,101696.48
63194,7.996,-4.715,3.475,-0.859599,-0.416542,1.965552,101696.48
63204,5.697,-5.007,3.731,-0.549379,-0.438359,1.780378,101701.28
63214,4.529,-4.746,2.648,-0.478609,-0.306396,1.501020,101698.59
63224,1.983,-6.045,0.994,-0.650480,-0.060029,1.145039,101698.16
63234,0.158,-8.326,-0.114,-0.925049,0.306063,0.818324,101698.16
63244,1.891,-6.047,1.131,-1.195360,0.595530,0.523003,101698.16
63254,4.006,-1.710,1.255,-1.152259,0.670026,0.081884,101700.04
63263,4.480,0.439,0.841,-1.039452,0.723769,-0.376795,101700.24
63273,4.768,1.284,0.318,-0.765948,0.688117,-0.708299,101698.87
63285,4.898,2.137,-0.002,-0.239337,0.509329,-0.986061,101696.71
63294,4.683,2.391,0.109,0.307318,0.383751,-1.215400,101696.71
63304,4.506,1.595,0.288,0.893170,0.290099,-1.437822,101699.95
63313,4.372,0.369,0.465,1.385372,0.195384,-1.646409,101699.12
63324,4.262,-0.811,0.487,1.753592,0.128338,-1.866702,101696.15
63334,4.213,-1.951,0.245,1.960050,0.108118,-2.114665,101696.15
63344,4.216,-2.853,-0.079,2.037206,0.128870,-2.391894,101698.96
63354,4.353,-3.330,-0.200,2.018050,0.196448,-2.678169,101695.99
63364,4.679,-3.417,-0.227,1.935573,0.304998,-2.968701,101695.99
63374,5.169,-3.296,-0.140,1.846711,0.427384,-3.257637,101695.77
63384,5.623,-3.285,-0.045,1.797225,0.542319,-3.518903,101698.71
63393,5.981,-3.454,0.110,1.762106,0.644484,-3.753031,101698.71
63404,6.296,-4.016,0.165,1.683886,0.730154,-3.977049,101694.85
63414,6.671,-4.781,0.195,1.520528,0.816356,-4.208517,101699.12
63424,7.171,-5.544,0.201,1.288528,0.932888,-4.449563,101697.37
63434,7.817,-6.149,0.107,1.087391,1.071236,-4.689012,101695.88
63443,8.482,-6.510,-0.054,1.021941,1.205860,-4.887489,101695.88
63454,9.175,-6.971,-0.168,1.040565,1.346869,-4.997104,101698.29
63464,9.693,-7.861,0.123,1.055464,1.479897,-5.062553,101692.80
63474,10.198,-9.212,0.395,1.118253,1.534172,-5.137581,101696.49
63483,10.492,-10.752,0.118,1.272565,1.503842,-5.227507,101696.49
63494,10.829,-12.426,-0.334,1.515739,1.439456,-5.266883,101696.49
63504,11.078,-14.064,-0.537,1.734968,1.375603,-5.241874,101699.83
63514,11.239,-14.878,-0.622,1.822766,1.336759,-5.153544,101699.56
63523,11.542,-14.691,-0.228,1.828619,1.279824,-4.975287,101696.03
63534,11.376,-14.701,0.310,1.830216,1.163824,-4.692737,101697.52
63544,10.811,-15.584,0.882,1.861610,1.038778,-4.341012,101697.52
63554,10.014,-16.635,1.454,1.876509,0.974925,-3.988224,101697.75
63564,8.317,-17.560,1.512,1.770087,0.992484,-3.657784,101699.41
63574,6.690,-18.516,0.139,1.513610,1.091989,-3.296481,101697.28
63584,5.742,-19.840,-1.396,1.146455,1.189897,-2.909105,101697.28
63594,4.744,-19.778,-2.256,0.599978,1.196282,-2.454683,101701.29
63604,3.453,-20.775,-2.258,0.028492,1.115934,-1.858721,101701.29
63613,2.058,-21.171,-1.791,-0.513196,1.015365,-1.126538,101702.71
63624,2.569,-18.695,-1.230,-0.912278,0.861053,-0.281015,101701.79
63634,4.114,-15.230,0.524,-0.900039,0.557751,0.563443,101697.85
63644,5.543,-13.236,-0.697,-0.490847,0.098540,1.259975,101697.85
63654,5.511,-11.954,-0.908,0.140235,-0.559680,1.887864,101701.13
63664,10.153,-3.065,2.345,0.813886,-0.997606,2.139020,101699.19
63674,16.999,6.313,2.578,0.986822,-0.953441,1.679809,101700.31
63684,21.436,4.837,-0.037,0.925629,-0.810304,1.325956,101698.61
63694,20.351,-4.366,-4.179,1.028858,-1.028469,1.587222,101702.56
63704,12.308,-10.327,-0.673,1.471574,-1.180652,2.186378,101702.05
63714,8.900,-10.452,2.391,1.770619,-1.060927,2.525332,101698.05
63724,7.463,-9.532,3.249,1.590234,-0.910340,2.523203,101698.05
63734,5.919,-10.068,5.448,1.605133,-0.866175,2.517882,101698.11
63744,5.883,-8.500,5.012,1.286400,-0.930028,2.400818,101698.11
63754,5.138,-6.193,4.559,0.715978,-0.831056,2.123057,101699.29
63764,5.344,-7.034,3.135,0.148217,-0.593735,1.886268,101700.01
63774,6.994,-8.694,0.137,-0.392939,-0.419735,1.752176,101698.73
63784,8.102,-8.099,-1.030,-0.778718,-0.297350,1.636176,101697.80
63794,9.062,-5.291,-0.491,-0.693581,-0.211680,1.527626,101697.80
63804,9.645,-3.522,-1.061,-0.282260,-0.205827,1.458984,101702.09
63814,9.141,-3.878,-1.607,0.113630,-0.217001,1.474947,101698.12
63824,8.539,-5.311,-0.784,0.310510,-0.130799,1.461112,101697.71
63834,7.486,-7.248,0.999,0.179611,0.012338,1.378103,101697.71
63844,6.709,-7.922,2.201,-0.256719,0.217200,1.234433,101697.71
63854,6.991,-6.866,2.922,-0.728168,0.408228,1.052452,101702.24
63864,7.886,-5.226,3.786,-0.927709,0.434301,0.909846,101699.77
63874,8.340,-4.242,3.958,-0.823948,0.306595,0.849186,101698.24
63880,8.420,-4.083,3.326,-0.616425,0.183677,0.829498,101696.85
63889,8.254,-4.533,2.285,-0.424333,0.088962,0.814599,101696.85
63899,8.163,-5.178,1.374,-0.277471,0.044265,0.797571,101700.13
63909,8.154,-5.662,1.261,-0.278003,0.081512,0.774158,101698.85
63919,7.968,-6.005,1.526,-0.384425,0.154944,0.734782,101701.21
63929,8.041,-5.499,1.983,-0.474352,0.207090,0.711902,101700.02
63939,7.918,-5.000,2.557,-0.507343,0.181549,0.701792,101700.02
63949,7.678,-4.471,2.839,-0.440297,0.120356,0.711902,101700.47
63959,7.432,-4.627,2.624,-0.286517,0.016595,0.728929,101699.08
63969,7.294,-5.269,2.256,-0.173178,-0.064286,0.737443,101699.66
63979,7.313,-5.445,2.382,-0.147636,-0.094084,0.742764,101698.72
63989,7.234,-5.682,2.546,-0.162535,-0.096212,0.735314,101698.72
64000,7.303,-5.874,2.310,-0.204927,-0.078475,0.713498,101698.97
64009,7.427,-6.000,2.035,-0.274811,-0.053111,0.706048,101699.33
64019,7.597,-5.759,1.674,-0.304609,-0.034488,0.703388,101698.09
64029,7.778,-5.796,1.241,-0.274278,-0.046194,0.719883,101700.36
64038,7.671,-5.977,0.947,-0.248205,-0.050451,0.741700,101700.36
64049,7.559,-6.197,0.949,-0.267893,-0.036616,0.769902,101699.88
64059,7.638,-6.118,1.352,-0.331214,-0.008946,0.791718,101701.16
64069,7.690,-5.777,1.868,-0.373251,0.008081,0.820984,101697.72
64079,7.523,-5.797,2.196,-0.365801,-0.004157,0.855571,101696.84
64089,7.306,-6.047,2.399,-0.360480,-0.020653,0.885902,101696.84
64099,7.200,-6.249,2.484,-0.381765,-0.019588,0.914103,101698.98
64109,7.265,-6.622,2.403,-0.437104,-0.004689,0.927406,101699.25
64119,7.618,-6.624,2.093,-0.515324,0.013048,0.946917,101698.48
64129,7.761,-6.627,2.127,-0.562150,0.021384,0.977424,101696.89
64139,7.769,-6.689,2.251,-0.616957,0.035219,1.020525,101696.89
64149,7.996,-6.613,2.029,-0.669636,0.043733,1.070544,101698.39
64159,8.279,-6.905,1.655,-0.715397,0.028833,1.120030,101697.88
64169,8.611,-7.225,1.413,-0.765416,0.005953,1.171644,101701.11
64179,9.037,-7.235,1.382,-0.821819,-0.024910,1.225920,101697.47
64189,9.356,-7.316,1.459,-0.844700,-0.070671,1.286048,101697.47
64199,9.520,-7.400,1.513,-0.846296,-0.125478,1.359479,101699.30
64209,9.581,-7.566,1.508,-0.857471,-0.176029,1.433975,101697.66
64219,9.597,-7.652,1.436,-0.894186,-0.224451,1.509534,101698.02
64229,9.659,-7.607,1.379,-0.941544,-0.265423,1.588819,101696.48
64239,9.769,-7.553,1.446,-0.995819,-0.306928,1.677681,101696.48
64249,9.995,-7.737,1.656,-1.067654,-0.345772,1.768672,101699.20
64259,10.297,-8.201,1.950,-1.188443,-0.344708,1.866048,101697.15
64269,10.950,-8.602,2.251,-1.398094,-0.277130,1.955974,101696.37
64279,11.889,-8.731,2.320,-1.688626,-0.148891,2.038451,101697.09
64289,13.144,-8.523,2.098,-2.031837,0.005421,2.104433,101697.09
64300,14.691,-7.795,1.624,-2.332479,0.126742,2.166690,101696.73
64309,15.958,-6.453,0.947,-2.534148,0.173035,2.213516,101699.14
64319,17.100,-5.200,0.530,-2.621414,0.132063,2.244378,101700.38
64329,17.848,-4.562,1.123,-2.598002,0.004889,2.280561,101695.86
64339,16.632,-4.888,2.383,-2.396332,-0.199442,2.329515,101695.86
64349,13.585,-6.714,4.040,-2.024920,-0.411221,2.438598,101700.30
64359,11.708,-8.858,5.493,-1.603489,-0.616616,2.600891,101697.78
64369,12.072,-8.168,5.924,-1.239525,-0.808707,2.675919,101696.50
64379,11.454,-7.462,5.681,-0.943140,-0.882138,2.574286,101698.14
64389,10.299,-7.441,4.817,-0.790957,-0.836377,2.388047,101698.14
64399,9.279,-6.769,3.646,-0.796810,-0.756028,2.183185,101700.83
64409,7.641,-6.455,3.401,-0.789361,-0.735276,2.001736,101699.50
64419,5.830,-6.953,3.885,-0.560021,-0.771460,1.884672,101698.27
64430,4.588,-6.803,3.867,-0.353031,-0.756028,1.728231,101696.36
64439,3.527,-6.145,3.030,-0.352499,-0.600652,1.406837,101696.36
64449,1.061,-6.692,1.959,-0.512132,-0.318634,0.999241,101700.70
64459,-0.194,-8.179,1.185,-0.744663,0.121953,0.654966,101699.30
64470,2.226,-5.694,1.393,-1.143214,0.529549,0.311755,101697.98
64479,3.866,-2.070,1.789,-1.250168,0.697163,-0.118190,101697.91
64489,4.257,-0.136,1.279,-1.195360,0.818484,-0.540685,101697.91
64499,4.719,0.979,0.565,-1.017104,0.846686,-0.813125,101700.07
64509,5.192,1.829,0.249,-0.579709,0.722705,-1.035015,101697.45
64519,5.181,1.890,0.279,0.024767,0.592870,-1.289895,101696.73
64529,5.503,1.161,0.353,0.662767,0.497622,-1.517106,101695.85
64539,5.579,-0.034,0.371,1.232656,0.388540,-1.726757,101695.85
64549,5.277,-1.377,0.210,1.682289,0.292760,-1.927895,101696.91
64559,4.998,-2.506,-0.024,1.968564,0.246999,-2.132225,101695.99
64569,4.765,-3.390,-0.109,2.136179,0.251255,-2.366885,101697.02
64579,4.707,-3.989,0.006,2.218656,0.306063,-2.610059,101694.20
64589,4.925,-4.235,0.087,2.252179,0.408228,-2.863344,101694.20
64594,5.173,-4.279,0.209,2.226105,0.506136,-3.053839,101696.00
64604,5.433,-4.359,0.423,2.150546,0.602980,-3.247527,101696.00
64614,5.877,-4.602,0.676,2.006344,0.712595,-3.495490,101695.53
64624,6.378,-5.262,0.827,1.826491,0.809971,-3.724829,101697.13
64634,6.742,-6.161,0.801,1.625886,0.926503,-3.944591,101693.53
64645,6.999,-6.958,0.625,1.429005,1.074429,-4.155838,101697.86
64654,7.378,-7.378,0.457,1.278418,1.235658,-4.322921,101695.66
64664,8.002,-7.629,0.505,1.159757,1.391034,-4.436792,101696.27
64674,8.786,-8.037,0.571,1.080473,1.517677,-4.533636,101696.27
64685,9.487,-8.608,0.496,1.074620,1.581530,-4.647508,101694.78
64694,9.796,-9.391,0.190,1.205519,1.562906,-4.737434,101694.78
64704,9.852,-10.728,-0.178,1.480620,1.468722,-4.750737,101698.33
64714,9.740,-12.240,-0.504,1.755188,1.342080,-4.690076,101697.05
64724,9.802,-12.837,-0.474,1.875445,1.238319,-4.616645,101695.86
64735,10.147,-12.611,-0.240,1.835537,1.173934,-4.554921,101698.42
64744,10.625,-12.432,-0.200,1.721665,1.136154,-4.479361,101698.42
64754,10.730,-13.116,0.141,1.638124,1.087200,-4.364957,101699.26
64764,10.467,-14.234,0.383,1.554583,1.012172,-4.234058,101698.29
64775,9.626,-14.878,0.561,1.388033,0.952044,-4.086664,101696.23
64784,8.532,-14.391,0.707,1.212968,0.919053,-3.854664,101696.23
64794,7.617,-13.527,0.823,1.186895,0.904686,-3.511453,101696.23
64804,7.028,-13.749,0.753,1.335354,0.891916,-3.114500,101700.03
64815,6.516,-15.165,0.118,1.415170,0.882870,-2.744151,101699.88
64824,5.580,-16.177,-0.673,1.199666,0.920117,-2.389766,101701.27
64835,4.681,-16.522,-1.369,0.712430,1.014123,-1.954855,101697.96
64844,4.333,-16.017,-1.773,0.217923,1.076558,-1.560739,101697.96
64855,4.477,-14.883,-1.712,-0.248737,1.055273,-1.114299,101699.76
64865,4.691,-13.871,-1.455,-0.493508,0.907347,-0.641786,101699.87
64874,4.791,-12.760,-1.463,-0.522242,0.683861,-0.118190,101701.15
64884,5.151,-11.466,-1.573,-0.383361,0.400778,0.417113,101696.73
64894,5.295,-10.578,-2.001,-0.105068,0.046925,0.890691,101700.82
64905,5.493,-9.350,-0.662,0.256767,-0.290964,1.247736,101701.02
64914,6.328,-9.000,-1.347,0.714382,-0.609166,1.482397,101701.02
64924,7.329,-6.911,2.385,1.187427,-0.981643,1.800598,101701.02
64934,14.810,2.621,5.670,1.506693,-1.049221,1.635112,101697.49
64945,20.782,6.612,4.612,1.473170,-0.932689,1.106195,101697.49
64955,21.291,-6.167,-3.833,1.444259,-1.022438,1.212262,101700.79
64964,14.769,-14.952,-4.236,1.619500,-1.273771,1.941607,101700.79
64974,11.070,-13.270,-1.363,1.516803,-1.076891,2.461479,101700.80
64985,10.002,-6.956,-0.146,0.920308,-0.696964,2.455093,101699.27
64995,6.812,-4.459,1.874,0.758015,-0.509662,2.298653,101699.27
65004,3.204,-6.415,5.563,0.799519,-0.417607,2.186910,101700.99
65014,4.070,-8.686,6.747,0.531336,-0.273937,2.086873,101695.80
65025,6.618,-8.763,4.759,-0.006095,-0.241478,1.889461,101698.12
65034,7.435,-8.012,3.241,-0.379636,-0.234561,1.640433,101698.12
65044,7.591,-7.225,1.585,-0.620682,-0.181882,1.418543,101698.12
65054,8.089,-6.022,0.082,-0.705819,-0.123350,1.283388,101702.43
65064,9.218,-4.432,-0.364,-0.545122,-0.102598,1.232305,101700.07
65075,9.559,-3.612,0.044,-0.217343,-0.086634,1.239755,101700.59
65084,8.730,-4.253,0.801,0.060419,-0.063221,1.270085,101700.12
65094,7.987,-4.752,1.920,0.157795,-0.039809,1.275406,101700.12
65104,7.667,-5.328,3.214,0.077446,-0.023845,1.217938,101701.47
65115,7.135,-6.609,3.396,-0.110921,-0.005222,1.106195,101700.39
65125,7.081,-6.932,3.310,-0.397728,0.058100,0.970507,101698.86
65134,7.268,-6.476,2.843,-0.679746,0.148026,0.826305,101698.86
65144,7.722,-5.689,2.001,-0.830865,0.228375,0.718819,101699.79
65155,8.224,-4.821,1.471,-0.836186,0.271476,0.667737,101699.79
65164,8.592,-4.229,1.611,-0.716994,0.259769,0.671461,101698.96
65174,8.479,-4.190,2.008,-0.542462,0.212943,0.703388,101701.54
65184,7.995,-4.909,2.403,-0.427526,0.172503,0.719883,101696.04
65195,7.688,-5.301,2.697,-0.410499,0.159200,0.725204,101696.04
65205,7.452,-5.292,2.983,-0.485526,0.168246,0.713498,101701.63
65215,7.373,-4.949,2.933,-0.566407,0.185806,0.699663,101701.27
65224,7.746,-5.079,2.336,-0.594608,0.191127,0.697003,101697.41
65234,8.163,-5.287,1.939,-0.589287,0.178356,0.707113,101699.67
65245,8.239,-5.051,2.201,-0.548847,0.142705,0.728929,101699.52
65255,7.955,-5.026,2.437,-0.470627,0.084173,0.750214,101698.69
65264,7.683,-5.154,2.716,-0.394003,0.013402,0.760856,101701.98
65274,7.322,-5.324,2.909,-0.321636,-0.060561,0.762452,101701.98
65285,7.018,-5.713,2.567,-0.270022,-0.104726,0.764048,101698.28
65294,6.982,-5.961,2.221,-0.275875,-0.107387,0.757663,101698.28
65304,7.292,-5.917,2.071,-0.317379,-0.090359,0.749681,101699.69
65314,7.634,-5.790,1.929,-0.334939,-0.080249,0.753406,101700.61
65325,7.784,-5.672,1.844,-0.315783,-0.091423,0.769369,101696.39
65335,7.781,-5.669,1.824,-0.288113,-0.118561,0.802360,101696.25
65344,7.638,-5.818,1.953,-0.257251,-0.141442,0.838544,101696.25
65354,7.535,-6.023,2.152,-0.272682,-0.155809,0.870470,101698.26
65364,7.461,-5.911,2.205,-0.301416,-0.149955,0.908250,101696.93
65375,7.497,-6.040,2.184,-0.329618,-0.152616,0.946562,101696.05
65385,7.609,-6.283,2.104,-0.364205,-0.157405,0.985406,101696.05
65394,7.609,-6.573,1.949,-0.387086,-0.162194,1.026911,101696.05
65404,7.441,-6.837,1.892,-0.416352,-0.163258,1.059901,101699.05
65415,7.322,-7.068,1.841,-0.467966,-0.146763,1.083314,101697.66
65424,7.506,-7.181,1.944,-0.549911,-0.114304,1.100874,101696.85
65434,8.005,-7.163,1.689,-0.621214,-0.100469,1.120030,101697.73
65444,8.163,-7.047,1.712,-0.658994,-0.102598,1.159938,101697.73
65455,8.238,-6.933,1.698,-0.666443,-0.128671,1.213149,101697.88
65465,8.326,-7.163,1.611,-0.658462,-0.179221,1.269553,101700.20
65474,8.370,-7.530,1.797,-0.673361,-0.231900,1.324360,101697.37
65484,8.345,-7.748,1.992,-0.712205,-0.267020,1.373314,101697.37
65495,8.485,-7.876,1.952,-0.769140,-0.277662,1.419608,101701.01
65505,8.798,-7.934,1.557,-0.843104,-0.280322,1.470690,101698.18
65514,9.307,-7.972,1.155,-0.916535,-0.296818,1.535075,101698.18
65524,9.779,-8.069,1.137,-1.002737,-0.330873,1.612231,101700.02
65534,10.356,-8.037,1.488,-1.088938,-0.367056,1.701626,101696.07
65545,10.962,-8.256,1.830,-1.156516,-0.397919,1.788892,101696.07
65550,11.204,-8.636,1.983,-1.223030,-0.405900,1.858598,101699.63
65559,11.431,-8.915,2.019,-1.343819,-0.381423,1.919791,101699.73
65569,12.023,-9.186,2.014,-1.565177,-0.315974,1.981516,101699.27
65580,13.057,-9.254,1.929,-1.848259,-0.219662,2.017167,101695.52
65590,14.784,-8.842,1.935,-2.172846,-0.111111,2.051754,101695.52
65599,16.997,-7.218,2.269,-2.502754,-0.037680,2.051222,101698.49
65609,18.632,-5.332,2.855,-2.715598,-0.050451,2.092726,101698.85
65619,18.620,-4.529,2.893,-2.667708,-0.178157,2.186910,101697.71
65630,16.559,-5.277,2.960,-2.405910,-0.385148,2.322066,101697.46
65639,14.043,-7.435,3.598,-2.001507,-0.645882,2.513625,101697.46
65649,13.695,-8.209,4.863,-1.569434,-0.915129,2.694543,101699.94
65659,14.011,-7.259,5.583,-1.217177,-1.077423,2.711038,101697.13
65670,13.027,-7.157,5.602,-1.000963,-1.066781,2.573754,101697.89
65680,11.734,-6.449,5.278,-0.969214,-0.964083,2.365699,101694.77
65689,10.233,-5.166,4.436,-0.889397,-0.890652,2.124653,101694.77
65699,8.285,-5.051,3.669,-0.699966,-0.940138,1.965552,101702.38
65710,6.187,-5.455,3.992,-0.366333,-1.017294,1.885736,101701.45
65720,5.446,-5.168,3.816,-0.104003,-1.019955,1.688323,101698.94
65729,3.684,-5.863,2.229,-0.050260,-0.956634,1.315314,101696.69
65739,-0.042,-8.990,0.961,-0.165196,-0.661313,0.954012,101696.69
65750,0.879,-8.535,1.443,-0.564278,-0.170708,0.578874,101699.54
65760,3.374,-3.860,1.846,-0.813306,0.096944,0.129241,101699.43
65769,3.874,-0.791,1.947,-0.815966,0.258173,-0.362428,101695.74
65779,4.009,0.241,1.381,-0.768608,0.399714,-0.741822,101694.71
65789,4.324,1.033,1.026,-0.580242,0.391200,-1.039272,101694.71
65800,4.369,1.568,0.886,-0.180095,0.316173,-1.343638,101696.79
65810,4.491,1.009,0.860,0.305721,0.292228,-1.647473,101695.41
65819,4.693,-0.305,0.933,0.758015,0.279457,-1.909271,101695.46
65829,4.694,-1.469,0.868,1.143794,0.248063,-2.139674,101694.13
65840,4.580,-2.208,0.664,1.424748,0.235824,-2.367417,101694.13
65850,4.653,-2.677,0.294,1.598748,0.255512,-2.601546,101693.33
65859,4.910,-2.816,0.171,1.701977,0.298613,-2.846848,101696.00
65869,5.215,-3.052,0.149,1.774344,0.359274,-3.110775,101693.48
65880,5.423,-3.307,0.305,1.854693,0.427916,-3.360866,101696.41
65890,5.604,-3.455,0.640,1.910032,0.510925,-3.577435,101696.41
65900,5.788,-3.558,0.882,1.899390,0.597127,-3.791343,101697.09
65909,6.223,-3.854,0.973,1.908436,0.664173,-4.003655,101697.40
65920,6.916,-4.354,1.085,1.886619,0.739200,-4.222884,101692.73
65930,7.638,-5.173,1.084,1.843518,0.825402,-4.444774,101697.09
65940,8.066,-6.436,0.739,1.823830,0.915860,-4.652829,101697.09
65949,8.290,-8.007,0.340,1.738161,1.039310,-4.810333,101696.03
65959,8.582,-9.186,0.249,1.545005,1.196814,-4.921012,101695.67
65970,8.916,-9.828,0.390,1.356638,1.345805,-5.040205,101692.69
65980,9.097,-10.154,0.522,1.313005,1.451695,-5.160461,101693.97
65989,9.506,-10.579,0.458,1.455610,1.497456,-5.228571,101693.97
65999,10.042,-11.495,0.255,1.678032,1.478300,-5.230168,101696.77
66010,10.631,-12.611,0.112,1.866931,1.406998,-5.167911,101699.96
66020,11.277,-13.869,-0.059,1.982399,1.310686,-5.048718,101697.54
66029,11.710,-15.889,-0.401,1.974417,1.227677,-4.892810,101699.40
66039,11.050,-17.991,-0.534,1.828087,1.170741,-4.730517,101699.40
66050,9.456,-18.675,-0.328,1.541812,1.147860,-4.515544,101700.91
66060,8.172,-17.809,0.304,1.260326,1.171273,-4.138278,101698.30
66070,7.605,-17.056,0.880,1.241170,1.157970,-3.626921,101695.63
66079,7.068,-18.208,-0.403,1.424748,1.068576,-3.116628,101696.30
66089,5.902,-20.606,-2.654,1.388565,0.958961,-2.657949,101696.30
66100,4.094,-20.994,-3.950,0.899556,0.880741,-2.145528,101701.12
66110,2.915,-20.206,-4.037,0.292951,0.774851,-1.519235,101703.93
66119,2.731,-18.726,-3.345,-0.078462,0.559879,-0.827492,101699.01
66129,3.274,-17.326,-3.040,-0.043875,0.216668,-0.082538,101699.77
66140,3.315,-16.987,-3.459,0.222180,-0.261166,0.783736,101699.77
66145,2.547,-17.452,-2.448,0.552088,-0.617680,1.419075,101702.89
66155,2.865,-17.630,0.690,0.876143,-0.841166,1.984708,101702.89
66165,12.925,-3.798,5.563,0.891042,-0.908212,2.219901,101700.02
66174,20.991,7.405,7.546,0.410547,-0.551698,1.499956,101698.98
66185,21.577,-3.244,-0.049,0.114694,-0.354286,1.255718,101696.58
66195,14.570,-14.213,-2.374,0.410547,-0.774120,1.996415,101700.76
66205,9.083,-12.740,1.087,0.770785,-0.924175,2.451369,101699.63
66214,8.046,-7.438,1.052,0.627115,-0.737937,2.307699,101700.82
66225,6.398,-5.404,1.732,0.716510,-0.651203,2.085809,101700.82
66235,4.398,-6.391,4.325,0.968730,-0.594267,2.044837,101700.24
66244,5.722,-7.822,3.997,0.778235,-0.434634,1.978855,101700.24
66254,7.333,-7.601,2.933,0.299336,-0.333533,1.861259,101699.72
66265,7.811,-7.192,2.737,0.025299,-0.277662,1.705883,101701.47
66275,7.525,-7.233,1.598,-0.177434,-0.223919,1.536672,101698.59
66285,7.675,-6.559,-0.051,-0.383893,-0.143570,1.403644,101699.67
66294,8.603,-5.423,-0.521,-0.450407,-0.046726,1.341920,101699.67
66305,9.234,-4.905,-0.022,-0.397728,0.040008,1.322764,101703.23
66315,9.101,-4.824,0.590,-0.328022,0.094815,1.302543,101701.16
66325,8.521,-4.923,1.701,-0.225856,0.091090,1.263699,101699.27
66335,7.754,-5.609,2.411,-0.165196,0.036815,1.205699,101699.27
66344,7.305,-6.227,2.567,-0.214682,0.020320,1.111516,101699.27
66355,7.485,-6.099,2.377,-0.358352,0.054375,1.000305,101702.26
66365,7.914,-5.564,2.042,-0.475416,0.098008,0.894415,101700.46
66375,8.258,-5.160,1.746,-0.482333,0.128870,0.819920,101700.30
66385,8.494,-4.725,1.518,-0.390810,0.129757,0.776642,101698.71
66395,8.483,-4.574,1.483,-0.258315,0.104393,0.766177,101698.71
66405,8.215,-4.918,1.725,-0.108260,0.058100,0.776287,101702.35
66415,7.833,-5.340,1.913,-0.066756,0.035219,0.775223,101701.48
66425,7.372,-5.474,2.091,-0.075269,0.051182,0.758727,101701.02
66435,6.990,-5.811,2.078,-0.146572,0.094283,0.718819,101698.07
66445,7.370,-5.644,2.216,-0.296627,0.158668,0.681039,101700.95
66455,8.063,-5.073,2.316,-0.384425,0.205494,0.663480,101696.54
66464,8.235,-5.066,2.303,-0.383361,0.219329,0.669333,101696.54
66475,8.290,-5.465,2.046,-0.381233,0.209219,0.678911,101698.48
66485,8.202,-5.888,1.870,-0.409434,0.207090,0.679443,101697.71
66495,7.961,-5.816,1.945,-0.447214,0.212411,0.681039,101697.71
66505,7.499,-5.615,2.172,-0.464596,0.207090,0.693278,101700.23
66514,7.317,-5.583,2.281,-0.478076,0.198044,0.708177,101700.23
66525,7.183,-5.598,2.299,-0.485526,0.178888,0.724672,101699.02
66535,7.192,-5.261,2.385,-0.489783,0.154944,0.758195,101698.15
66545,7.336,-4.923,2.640,-0.467966,0.123017,0.802892,101698.15
66555,7.574,-5.063,2.816,-0.420609,0.079384,0.848122,101698.48
66565,7.661,-5.453,2.685,-0.373783,0.033090,0.890158,101699.93
66575,7.608,-5.653,2.517,-0.346645,0.005421,0.917828,101696.70
66585,7.407,-5.640,2.522,-0.321636,-0.024377,0.943369,101696.70
66594,7.188,-5.489,2.624,-0.273746,-0.060029,0.968379,101696.70
66605,6.977,-5.614,2.776,-0.230113,-0.119625,0.991259,101701.13
66615,6.666,-5.865,2.856,-0.203508,-0.162194,1.013608,101700.93
66625,6.449,-6.348,2.640,-0.191269,-0.167515,1.031168,101698.41
66634,6.439,-6.846,2.321,-0.255655,-0.157937,1.046067,101700.88
66644,6.886,-7.128,1.949,-0.380168,-0.118029,1.054580,101700.88
66655,7.492,-7.314,1.641,-0.527563,-0.071735,1.070544,101699.61
66665,8.057,-7.594,1.348,-0.645159,-0.035552,1.100874,101699.53
66675,8.527,-7.561,1.142,-0.723379,-0.019588,1.135993,101696.38
66684,8.674,-7.387,1.209,-0.774994,-0.030231,1.172709,101696.38
66695,8.527,-7.372,1.224,-0.777654,-0.068543,1.210488,101700.96
66705,8.471,-7.424,1.293,-0.754774,-0.128671,1.251461,101700.96
66715,8.415,-7.688,1.394,-0.739342,-0.189864,1.289241,101700.91
66724,8.493,-7.997,1.565,-0.759030,-0.232965,1.331277,101698.91
66735,8.651,-8.161,1.616,-0.822884,-0.253717,1.379699,101700.10
66745,8.945,-8.305,1.406,-0.919195,-0.268616,1.431314,101700.10
66755,9.462,-8.344,1.338,-1.033599,-0.279258,1.494635,101700.38
66765,9.971,-8.334,1.425,-1.142681,-0.287772,1.561681,101698.90
66775,10.306,-8.373,1.452,-1.230480,-0.302139,1.639901,101698.80
66785,10.735,-8.499,1.372,-1.331048,-0.311185,1.714929,101698.96
66795,11.273,-8.531,1.326,-1.461415,-0.309588,1.778250,101701.99
66805,11.969,-8.627,1.239,-1.609342,-0.305864,1.839974,101699.43
66814,13.143,-8.714,1.107,-1.765782,-0.293093,1.882011,101700.98
66825,14.622,-8.745,0.994,-1.964791,-0.264891,1.878818,101700.98
66835,16.600,-7.706,1.319,-2.240956,-0.223919,1.862323,101698.62
66845,18.406,-5.633,2.102,-2.487323,-0.199442,1.864451,101698.62
66854,18.988,-3.222,2.939,-2.594809,-0.232432,1.910213,101697.73
66865,17.517,-2.343,3.186,-2.389415,-0.432506,2.022488,101698.09
66875,14.091,-4.890,3.136,-1.787598,-0.833716,2.230543,101696.77
66885,11.313,-8.322,4.277,-1.045838,-1.240780,2.519479,101696.70
66895,11.172,-9.124,5.085,-0.541398,-1.431808,2.674855,101696.70
66905,10.682,-9.084,4.644,-0.374315,-1.364762,2.575350,101698.34
66915,9.415,-9.140,4.466,-0.510003,-1.112542,2.355589,101697.06
66925,8.623,-7.979,3.654,-0.850553,-0.820414,2.144873,101698.09
66935,7.825,-6.589,3.166,-1.096388,-0.672487,1.995350,101698.09
66945,6.425,-6.480,3.830,-1.030938,-0.654928,1.924048,101698.09
66955,5.815,-5.625,4.455,-0.761691,-0.679937,1.827204,101699.45
66965,5.472,-4.377,3.501,-0.521709,-0.672487,1.556892,101698.27
66975,2.845,-5.790,2.229,-0.495636,-0.528285,1.179094,101697.70
66984,0.376,-8.532,1.696,-0.524370,-0.193588,0.902397,101695.86
66995,2.227,-6.860,1.791,-0.754774,0.182613,0.614526,101695.86
67005,3.826,-3.564,1.710,-0.893122,0.376301,0.183517,101697.13
67015,3.869,-1.520,1.737,-0.909085,0.539659,-0.238446,101698.52
67025,3.953,-0.311,1.316,-0.852682,0.665237,-0.550263,101697.80
67035,4.086,1.042,0.949,-0.506810,0.612026,-0.817914,101697.80
67045,4.143,1.660,0.820,0.006676,0.534338,-1.114831,101698.45
67055,4.269,1.144,0.647,0.492492,0.518374,-1.434629,101696.80
67065,4.449,0.037,0.526,0.880932,0.535402,-1.715051,101696.80
67075,4.467,-0.975,0.407,1.190088,0.547641,-1.948115,101696.45
67085,4.434,-1.905,0.088,1.408785,0.571585,-2.166280,101696.13
67095,4.464,-2.748,-0.370,1.504032,0.620007,-2.392426,101696.13
67100,4.596,-3.238,-0.655,1.526913,0.666833,-2.574940,101699.09
67109,4.767,-3.585,-0.789,1.541280,0.714723,-2.768096,101696.37
67120,5.159,-3.751,-0.771,1.556179,0.786026,-3.028298,101696.79
67130,5.543,-3.822,-0.576,1.595023,0.864246,-3.273600,101692.12
67140,6.001,-3.974,-0.137,1.664730,0.935548,-3.493894,101692.12
67150,6.339,-4.364,0.230,1.707830,0.985035,-3.702481,101697.84
67160,6.678,-4.839,0.413,1.679097,1.029200,-3.905215,101693.89
67170,7.067,-5.498,0.467,1.621629,1.093585,-4.119123,101693.22
67180,7.433,-6.224,0.546,1.557775,1.194686,-4.339948,101693.63
67190,7.809,-6.709,0.518,1.510950,1.311750,-4.532040,101693.63
67200,8.329,-7.178,0.364,1.531702,1.419768,-4.669857,101699.02
67210,8.860,-8.004,0.161,1.521060,1.538429,-4.756590,101697.43
67220,9.419,-9.147,0.086,1.422974,1.670037,-4.836052,101696.71
67230,9.868,-10.012,0.018,1.301831,1.777878,-4.951343,101693.79
67239,10.338,-10.842,-0.106,1.171996,1.900796,-5.104058,101693.79
67250,10.736,-11.506,-0.157,1.070363,2.007750,-5.203562,101700.03
67260,10.858,-12.030,-0.065,1.011831,2.110447,-5.210480,101694.75
67270,11.053,-12.429,-0.035,1.004381,2.169511,-5.125875,101694.39
67280,11.612,-13.132,-0.336,1.050675,2.165254,-4.965709,101695.63
67290,12.199,-14.386,-0.717,1.107611,2.096612,-4.783195,101695.63
67300,12.031,-15.569,-1.226,1.130491,1.978484,-4.581526,101700.52
67310,10.956,-15.934,-1.586,1.055996,1.860355,-4.295251,101700.21
67320,9.793,-15.490,-1.900,0.999592,1.741695,-3.886059,101700.16
67330,9.395,-16.189,-2.724,1.120913,1.567695,-3.421527,101698.48
67341,8.339,-17.267,-4.123,1.173947,1.226967,-2.915490,101698.48
67350,6.705,-18.047,-4.936,1.082069,0.851475,-2.390298,101699.77
67360,4.378,-19.412,-5.160,0.961280,0.422595,-1.649069,101702.13
67369,2.687,-19.789,-4.676,0.746308,0.049054,-0.752997,101702.79
67380,2.633,-18.139,-4.012,0.506859,-0.269148,0.185645,101699.41
67390,3.521,-15.684,-2.269,0.526547,-0.526689,1.009883,101699.41
67400,3.673,-14.817,-2.842,0.764932,-0.878414,1.674488,101701.41
67410,2.399,-14.919,0.565,1.205519,-1.198212,2.247038,101700.34
67420,8.977,-6.698,4.737,1.274693,-1.139680,2.419442,101699.82
67430,16.189,3.974,7.890,0.714914,-0.778909,1.829332,101697.93
67440,19.130,2.529,5.924,0.350951,-0.451662,1.269021,101697.93
67450,17.148,-9.886,-1.557,0.246125,-0.673019,1.489846,101701.97
67460,13.086,-15.300,-0.325,0.630308,-1.016230,2.255020,101701.67
67470,11.306,-11.866,0.710,0.791005,-1.036450,2.499259,101699.36
67480,8.046,-8.603,0.310,0.803776,-0.895973,2.337497,101698.75
67490,5.104,-7.402,1.185,0.902216,-0.792212,2.233204,101698.75
67501,3.770,-7.958,1.943,0.689372,-0.626194,2.084745,101700.17
67510,5.293,-8.604,2.148,0.172162,-0.384084,1.892121,101700.33
67520,7.345,-7.631,2.877,-0.284389,-0.220194,1.710672,101698.64
67530,7.998,-6.313,2.798,-0.497765,-0.128671,1.501020,101698.73
67540,7.674,-5.463,1.817,-0.519581,-0.086102,1.323828,101698.73
67550,8.029,-4.618,1.009,-0.429122,-0.093552,1.227516,101702.71
67560,8.935,-4.315,0.680,-0.309398,-0.090359,1.188672,101700.45
67570,9.277,-4.934,0.615,-0.220003,-0.080249,1.152488,101698.76
67580,8.818,-5.931,0.868,-0.184884,-0.075460,1.118966,101700.71
67590,8.287,-5.895,1.592,-0.214150,-0.063221,1.067883,101700.71
67600,7.899,-5.634,2.342,-0.254058,-0.050983,1.004562,101702.39
67610,7.532,-5.584,2.667,-0.298755,-0.048855,0.936452,101698.91
67620,7.449,-5.452,2.656,-0.346113,-0.033423,0.866746,101698.34
67630,7.718,-5.071,2.403,-0.377508,-0.010543,0.792782,101695.56
67640,8.022,-4.983,1.988,-0.368462,0.006485,0.739571,101695.56
67650,8.156,-5.089,1.518,-0.312590,0.005421,0.704984,101701.95
67660,8.137,-5.145,1.386,-0.248205,0.007017,0.680507,101700.22
67671,7.953,-5.291,1.551,-0.199783,0.012338,0.655498,101700.78
67680,7.670,-5.483,1.712,-0.185416,0.027237,0.636342,101697.59
67690,7.434,-5.547,2.006,-0.214682,0.048522,0.611333,101697.59
67700,7.260,-5.374,2.336,-0.266829,0.070338,0.589516,101700.84
67710,7.433,-4.831,2.806,-0.303012,0.083641,0.580471,101699.25
67720,7.643,-4.411,3.265,-0.273746,0.055439,0.585792,101697.86
67730,7.728,-4.129,3.402,-0.182756,-0.021717,0.602287,101698.58
67740,7.605,-3.926,3.486,-0.037490,-0.114304,0.623571,101698.58
67750,7.311,-3.934,3.484,0.115758,-0.205827,0.645920,101700.77
67761,7.076,-4.550,3.231,0.244529,-0.272873,0.673590,101697.90
67770,7.220,-4.921,2.793,0.275391,-0.317570,0.700195,101699.60
67780,7.298,-5.012,2.654,0.229097,-0.315442,0.723608,101696.82
67790,7.133,-5.160,2.423,0.188125,-0.311717,0.753406,101696.82
67801,7.343,-5.270,1.962,0.195042,-0.334597,0.805553,101698.70
67810,7.906,-5.348,1.521,0.227501,-0.367056,0.867810,101698.38
67820,8.330,-5.833,1.206,0.224841,-0.377166,0.925278,101697.98
67830,8.246,-6.507,0.874,0.181740,-0.370249,0.971039,101697.30
67841,8.059,-6.627,0.704,0.092877,-0.335130,0.997113,101697.30
67850,7.609,-6.805,0.876,0.001887,-0.290432,1.004030,101699.39
67860,7.362,-6.910,1.355,-0.103471,-0.238286,1.009883,101698.52
67870,7.186,-6.937,1.677,-0.221600,-0.184010,1.002966,101698.72
67880,7.198,-6.774,1.844,-0.333343,-0.125478,0.999241,101695.39
67890,7.432,-6.464,1.953,-0.412627,-0.083442,1.004562,101695.39
67900,7.619,-6.308,1.959,-0.453599,-0.072267,1.029039,101702.30
67910,7.683,-6.436,1.978,-0.464774,-0.081845,1.068947,101699.94
67920,7.652,-6.853,2.010,-0.473820,-0.103662,1.106195,101698.86
67931,7.458,-7.190,2.110,-0.515856,-0.099405,1.130672,101697.52
67936,7.316,-7.415,2.309,-0.577049,-0.064286,1.144507,101697.52
67945,7.181,-7.820,2.576,-0.661654,-0.010543,1.146103,101697.52
67955,7.819,-8.142,2.019,-0.794682,0.056503,1.142910,101699.26
67965,8.525,-8.075,1.609,-0.914406,0.083641,1.145039,101699.26
67976,8.922,-7.763,1.210,-0.988902,0.075659,1.168984,101699.35
67985,9.286,-7.540,0.918,-0.995819,0.020852,1.217406,101698.49
67995,9.679,-7.716,0.892,-0.969746,-0.059497,1.280195,101697.73
68005,9.902,-8.080,1.035,-0.966021,-0.123882,1.348837,101700.34
68016,10.042,-8.299,1.146,-1.011250,-0.152616,1.421204,101700.34
68025,10.282,-8.165,1.206,-1.090003,-0.166451,1.497296,101697.62
68035,10.336,-8.003,1.229,-1.162902,-0.194120,1.578708,101700.04
68045,10.343,-7.825,1.424,-1.250700,-0.225515,1.676085,101700.04
68056,10.832,-7.899,1.766,-1.357122,-0.257619,1.767785,101698.45
68065,11.412,-8.201,2.038,-1.449709,-0.284047,1.834653,101698.45
68075,12.073,-8.595,2.071,-1.582736,-0.279258,1.890525,101695.22
68085,13.116,-8.847,1.967,-1.793984,-0.227111,1.933094,101695.73
68096,14.660,-8.125,1.957,-2.098351,-0.134524,1.958103,101695.73
68106,16.684,-6.315,2.411,-2.435176,-0.049919,1.995350,101699.30
68115,18.117,-4.643,2.670,-2.637378,-0.039809,2.068782,101695.26
68125,18.025,-4.073,2.820,-2.623543,-0.128139,2.160837,101696.79
68135,15.984,-5.003,2.882,-2.381433,-0.321295,2.289607,101696.79
68146,12.690,-7.883,4.011,-1.917433,-0.574579,2.498194,101696.79
68155,11.908,-9.021,4.807,-1.426296,-0.787955,2.697203,101702.49
68165,12.133,-8.265,4.716,-1.143746,-0.847551,2.683368,101700.02
68175,11.387,-7.696,4.065,-1.113770,-0.708848,2.482940,101696.55
68186,10.428,-6.862,3.623,-1.199085,-0.540524,2.290139,101696.55
68196,9.257,-5.943,3.166,-1.212920,-0.431441,2.133699,101696.55
68205,7.651,-5.741,3.535,-1.105434,-0.428249,2.035259,101700.13
68215,6.123,-5.741,4.200,-0.796278,-0.464432,1.951185,101695.93
68226,5.713,-4.800,3.560,-0.543526,-0.465496,1.735681,101698.65
68236,3.884,-5.094,2.123,-0.483930,-0.388873,1.372782,101698.65
68245,0.897,-8.122,0.587,-0.488719,-0.140910,1.040745,101701.13
68255,1.716,-7.843,0.911,-0.768076,0.239549,0.724672,101701.13
68265,3.863,-3.667,1.441,-0.904828,0.430044,0.306966,101700.10
68276,4.275,-0.940,1.664,-0.826076,0.556154,-0.167676,101697.45
68285,4.276,0.084,1.348,-0.672297,0.638631,-0.548134,101697.02
68295,4.487,0.969,0.768,-0.346113,0.568925,-0.853033,101697.02
68305,4.385,1.564,0.414,0.142896,0.443347,-1.127070,101698.28
68316,4.317,1.119,0.292,0.652125,0.384815,-1.400042,101695.92
68326,4.384,0.049,0.267,1.090583,0.352356,-1.650134,101697.98
68335,4.414,-0.953,0.269,1.442308,0.319365,-1.880005,101695.61
68345,4.419,-1.817,0.264,1.694528,0.309787,-2.113069,101695.61
68356,4.470,-2.602,0.044,1.851500,0.319898,-2.364225,101697.25
68366,4.609,-3.143,-0.154,1.913225,0.357145,-2.635601,101695.97
68375,4.835,-3.340,-0.142,1.915885,0.415145,-2.916023,101695.97
68385,5.229,-3.344,-0.037,1.891940,0.495494,-3.198041,101694.17
68396,5.552,-3.278,0.160,1.900454,0.579567,-3.464628,101694.17
68406,5.969,-3.293,0.475,1.932381,0.665769,-3.707270,101697.44
68415,6.310,-3.556,0.689,1.915885,0.737604,-3.935545,101698.72
68425,6.674,-4.250,0.774,1.853096,0.789218,-4.153710,101695.13
68435,7.134,-5.268,0.698,1.750399,0.837108,-4.374536,101695.48
68446,7.667,-6.474,0.291,1.616308,0.919585,-4.599086,101695.48
68456,8.153,-7.453,-0.139,1.506161,1.039842,-4.795434,101697.91
68465,8.758,-8.047,-0.241,1.367812,1.218631,-4.919416,101695.80
68475,9.551,-8.545,-0.004,1.230528,1.395823,-5.014663,101694.93
68486,10.060,-9.237,0.089,1.176253,1.488943,-5.140773,101694.93
68495,10.215,-10.607,-0.085,1.288528,1.494796,-5.245067,101694.93
68505,10.203,-12.908,-0.516,1.518932,1.432007,-5.260498,101696.70
68515,9.964,-14.793,-0.924,1.675372,1.355383,-5.175361,101695.84
68526,10.070,-15.347,-1.021,1.743482,1.308025,-5.043930,101697.73
68536,10.650,-15.462,-0.877,1.789243,1.261200,-4.851306,101695.27
68545,10.774,-15.692,-0.519,1.773812,1.171805,-4.572480,101695.27
68555,10.010,-16.351,-0.002,1.712087,1.045695,-4.260132,101696.60
68566,8.890,-17.161,0.316,1.641849,0.946191,-3.947251,101699.26
68576,7.650,-17.529,0.283,1.516271,0.931824,-3.573710,101698.21
68586,6.383,-17.906,-0.160,1.430069,0.957897,-3.118756,101698.21
68595,5.615,-18.971,-1.648,1.378987,0.955237,-2.641454,101702.65
68605,4.957,-20.471,-3.344,1.160822,0.874356,-2.193950,101700.43
68616,3.565,-20.633,-4.099,0.666492,0.734943,-1.653326,101700.43
68625,2.824,-20.041,-3.725,0.189189,0.541787,-0.949345,101696.38
68635,3.376,-18.114,-1.434,-0.071012,0.303934,-0.178318,101701.51
68645,4.413,-16.469,-1.715,-0.083783,-0.033955,0.601223,101701.51
68651,3.787,-15.814,-1.206,0.067868,-0.367588,1.214745,101698.51
68661,3.803,-15.049,0.287,0.378088,-0.624597,1.760158,101700.35
68670,11.123,-3.659,3.647,0.593593,-0.841698,2.087938,101698.82
68680,18.891,8.136,5.445,0.530272,-0.762946,1.572855,101697.74
68690,21.047,1.452,1.077,0.544639,-0.607038,1.230177,101697.74
