59862,9.305,0.117,3.252,0.003014,0.006509,-0.006431,100532.07,-91,-3,-242
59871,9.315,0.142,3.293,0.005675,0.007041,-0.006431,100529.66,-92,-3,-243
59881,9.311,0.073,3.271,0.006207,0.007041,-0.007496,100529.51,-92,-2,-243
59891,9.329,0.100,3.277,0.005675,0.007041,-0.006964,100529.51,-92,-2,-243
59901,9.329,0.101,3.264,0.004610,0.007573,-0.006431,100531.25,-91,-3,-242
59912,9.318,0.114,3.270,0.003014,0.009170,-0.006964,100531.00,-91,-3,-243
59921,9.364,0.123,3.313,0.002482,0.009702,-0.006964,100531.00,-91,-3,-242
59931,9.362,0.073,3.279,0.001950,0.009170,-0.006964,100531.00,-91,-3,-242
59941,9.342,0.147,3.263,0.003546,0.009170,-0.006964,100535.34,-92,-3,-243
59952,9.333,0.088,3.256,0.005142,0.010234,-0.008560,100534.31,-92,-2,-242
59961,9.343,0.083,3.241,0.007271,0.010766,-0.009092,100534.31,-91,-2,-242
59971,9.325,0.083,3.293,0.009399,0.011830,-0.006964,100530.61,-91,-2,-242
59981,9.293,0.090,3.331,0.009399,0.011830,-0.008028,100531.55,-92,-3,-242
59992,9.319,0.099,3.326,0.008867,0.012894,-0.008560,100531.55,-92,-2,-242
60001,9.297,0.147,3.288,0.008867,0.011298,-0.008028,100531.96,-91,-2,-242
60011,9.334,0.132,3.292,0.007271,0.010766,-0.009092,100531.38,-91,-2,-242
60021,9.330,0.147,3.320,0.006207,0.010234,-0.010156,100530.40,-92,-3,-242
60032,9.359,0.147,3.329,0.006739,0.009170,-0.011220,100529.20,-92,-3,-241
60042,9.315,0.158,3.334,0.007271,0.009702,-0.010688,100532.55,-92,-2,-242
60051,9.298,0.131,3.304,0.007271,0.009170,-0.011220,100531.76,-92,-2,-242
60061,9.310,0.140,3.331,0.006739,0.009702,-0.008028,100530.77,-92,-1,-242
60071,9.327,0.094,3.310,0.006739,0.008637,-0.008560,100530.41,-92,-2,-242
60082,9.346,0.112,3.322,0.005142,0.008105,-0.007496,100530.41,-92,-3,-242
60091,9.360,0.076,3.364,0.004078,0.009170,-0.008560,100530.41,-92,-3,-242
60101,9.309,0.088,3.293,-0.000179,0.007041,-0.010156,100532.92,-93,-2,-242
60111,9.334,0.140,3.300,-0.006564,0.006509,-0.010156,100530.16,-92,-3,-243
60122,9.359,0.105,3.328,-0.009757,0.009170,-0.010688,100532.30,-92,-3,-242
60132,9.360,0.148,3.269,-0.010289,0.009702,-0.011753,100527.81,-92,-3,-242
60141,9.328,0.105,3.256,-0.008160,0.012362,-0.011220,100527.81,-93,-3,-242
60151,9.341,0.124,3.262,-0.005500,0.015023,-0.012285,100533.62,-92,-3,-242
60162,9.312,0.114,3.222,-0.004436,0.019812,-0.013349,100532.68,-93,-3,-242
60172,9.345,0.094,3.219,-0.000179,0.023004,-0.015477,100528.26,-93,-3,-242
60181,9.315,0.075,3.244,0.005675,0.025665,-0.015477,100528.26,-93,-1,-241
60191,9.323,0.137,3.232,0.009399,0.029390,-0.017074,100528.26,-91,-2,-242
60201,9.327,0.113,3.274,0.017381,0.033115,-0.017074,100532.70,-92,-3,-242
60212,9.285,0.053,3.257,0.020574,0.035243,-0.022927,100532.08,-92,-3,-242
60221,9.276,0.063,3.274,0.019509,0.038968,-0.023459,100528.80,-93,-2,-242
60231,9.312,0.125,3.262,0.021638,0.041096,-0.026652,100533.95,-93,-3,-242
60241,9.310,0.114,3.268,0.023766,0.042160,-0.029312,100533.95,-92,-3,-241
60252,9.303,0.107,3.312,0.026427,0.044289,-0.033037,100535.17,-92,-3,-241
60262,9.292,0.105,3.324,0.026959,0.044289,-0.034633,100530.17,-93,-2,-241
60271,9.272,0.174,3.348,0.025363,0.046949,-0.034633,100531.48,-93,-2,-241
60281,9.286,0.148,3.352,0.024830,0.047481,-0.036762,100529.72,-93,-2,-241
60292,9.304,0.204,3.407,0.024298,0.049078,-0.038358,100530.03,-93,-2,-241
60302,9.346,0.173,3.361,0.018445,0.048546,-0.041019,100531.28,-93,-3,-241
60311,9.279,0.170,3.343,0.015252,0.048546,-0.040486,100531.28,-93,-2,-241
60321,9.275,0.201,3.346,0.015785,0.052270,-0.037826,100529.78,-93,-1,-241
60332,9.289,0.238,3.346,0.020574,0.053335,-0.035697,100530.41,-93,-1,-241
60342,9.256,0.180,3.366,0.029619,0.057592,-0.033037,100530.41,-93,-1,-239
60352,9.228,0.223,3.330,0.036005,0.061316,-0.025055,100533.16,-93,-1,-241
60361,9.261,0.216,3.343,0.037601,0.065573,-0.021863,100533.16,-93,-3,-240
60371,9.263,0.243,3.410,0.040262,0.066105,-0.017606,100526.65,-95,-1,-240
60382,9.227,0.226,3.368,0.039197,0.067702,-0.015477,100530.55,-95,-1,-240
60392,9.257,0.260,3.372,0.039730,0.069298,-0.014945,100530.55,-93,-1,-239
60401,9.293,0.215,3.392,0.039197,0.070362,-0.014413,100534.25,-93,-2,-240
60411,9.300,0.170,3.323,0.043454,0.071426,-0.016009,100530.41,-95,-3,-239
60422,9.255,0.180,3.381,0.048775,0.075151,-0.017074,100532.06,-95,-3,-239
60431,9.252,0.245,3.403,0.057289,0.076215,-0.014413,100532.06,-94,-2,-239
60441,9.254,0.209,3.439,0.061546,0.079408,-0.013881,100532.06,-95,-3,-239
60451,9.281,0.369,3.395,0.059950,0.084729,-0.011220,100533.16,-95,-2,-238
60462,9.292,0.268,3.448,0.057821,0.093243,-0.013881,100533.01,-95,-2,-238
60472,9.327,0.215,3.350,0.062078,0.097500,-0.014413,100530.82,-94,-3,-239
60481,9.260,0.270,3.362,0.066867,0.099628,-0.010688,100530.62,-94,-3,-238
60491,9.268,0.317,3.374,0.082830,0.106014,-0.010688,100530.62,-96,-2,-237
60502,9.237,0.274,3.294,0.095069,0.112931,-0.008028,100534.16,-96,-2,-237
60512,9.258,0.300,3.314,0.101454,0.118252,-0.006964,100533.01,-95,-3,-238
60522,9.231,0.372,3.347,0.117950,0.121445,-0.002175,100530.16,-95,-4,-237
60531,9.140,0.300,3.317,0.134977,0.130491,0.003147,100530.16,-96,-3,-237
60541,9.139,0.130,3.284,0.139234,0.141665,0.001550,100531.71,-96,-3,-237
60552,9.233,0.135,3.319,0.142427,0.149114,-0.002707,100531.71,-96,-3,-236
60561,9.283,0.263,3.487,0.162115,0.147518,-0.002707,100533.02,-97,-3,-236
60571,9.216,0.344,3.635,0.195638,0.140601,-0.003771,100533.38,-97,-5,-236
60581,9.226,0.192,3.718,0.222775,0.138472,-0.006964,100533.59,-97,-5,-236
60592,9.124,-0.085,3.598,0.211601,0.125702,-0.024523,100533.59,-97,-4,-235
60602,8.981,-0.215,3.404,0.178610,0.128362,-0.052193,100534.20,-97,-5,-234
60612,8.936,-0.087,3.305,0.159454,0.145390,-0.077734,100531.33,-97,-5,-234
60621,9.073,0.125,3.234,0.184463,0.167206,-0.095294,100533.47,-97,-5,-234
60632,9.219,0.153,3.428,0.240335,0.187958,-0.107000,100530.13,-97,-4,-234
60642,9.198,-0.017,3.450,0.287161,0.201793,-0.125624,100531.02,-98,-6,-233
60652,9.275,-0.193,3.626,0.298335,0.213500,-0.147973,100530.66,-98,-5,-232
60661,9.202,-0.106,3.784,0.275454,0.215096,-0.176174,100531.80,-98,-5,-232
60672,8.984,-0.022,3.796,0.210537,0.209243,-0.212358,100531.80,-99,-7,-232
60682,8.964,-0.028,3.726,0.125931,0.210307,-0.244284,100529.92,-100,-5,-231
60691,9.106,0.159,3.866,0.047711,0.210307,-0.269294,100529.92,-98,-5,-231
60701,9.222,0.486,4.005,0.005142,0.203922,-0.285789,100530.53,-98,-5,-231
60707,9.163,0.453,4.083,-0.014014,0.202858,-0.299624,100530.63,-100,-4,-231
60717,9.188,0.142,3.942,-0.056582,0.199665,-0.317716,100529.28,-100,-3,-229
60727,9.295,0.025,4.049,-0.131078,0.182637,-0.336339,100527.81,-100,-3,-229
60736,9.488,0.609,4.270,-0.176839,0.154968,-0.350174,100527.81,-101,-1,-229
60746,9.456,1.113,4.550,-0.155555,0.134215,-0.345917,100534.81,-101,-1,-229
60756,9.324,1.009,4.606,-0.112454,0.108674,-0.327826,100528.61,-100,+0,-228
60767,9.329,0.752,4.642,-0.108729,0.076748,-0.309202,100532.20,-100,+0,-228
60777,9.237,0.847,4.780,-0.174711,0.032050,-0.295899,100529.75,-101,+0,-228
60786,9.044,1.209,4.693,-0.260912,-0.012115,-0.283129,100529.75,-102,+2,-228
60796,8.944,1.498,4.622,-0.308802,-0.044574,-0.255459,100534.15,-102,+3,-229
60807,8.929,1.571,4.465,-0.308270,-0.072775,-0.216083,100528.62,-102,+3,-229
60817,8.942,1.491,4.444,-0.272619,-0.092995,-0.168725,100531.27,-101,+4,-229
60826,9.104,1.289,4.397,-0.247078,-0.110023,-0.127220,100528.77,-100,+5,-229
60836,9.044,1.018,4.005,-0.248674,-0.121729,-0.105936,100528.77,-101,+5,-229
60847,8.868,0.939,3.702,-0.288582,-0.121197,-0.096358,100533.38,-101,+5,-229
60857,9.143,0.949,3.688,-0.295500,-0.115344,-0.083055,100531.20,-100,+7,-231
60866,9.297,1.009,3.664,-0.243885,-0.108959,-0.067092,100533.59,-100,+6,-231
60876,9.102,0.846,3.712,-0.168857,-0.094060,-0.055386,100530.99,-100,+8,-231
60887,9.079,0.531,3.847,-0.122032,-0.082885,-0.052193,100530.99,-100,+8,-231
60897,9.043,0.289,3.951,-0.137995,-0.087674,-0.065496,100531.61,-99,+8,-231
60907,9.034,0.276,3.890,-0.189610,-0.092463,-0.088376,100534.00,-100,+9,-232
60916,9.111,0.435,3.872,-0.236435,-0.098317,-0.106468,100532.91,-99,+9,-232
60926,9.052,0.525,3.777,-0.262509,-0.102573,-0.120835,100528.11,-99,+9,-232
60937,9.203,0.590,3.732,-0.263041,-0.098317,-0.127220,100528.11,-100,+10,-231
60947,9.331,0.452,3.668,-0.273151,-0.096720,-0.137330,100530.02,-98,+10,-232
60956,9.163,0.579,3.681,-0.293371,-0.097784,-0.150633,100529.39,-99,+11,-232
60966,9.020,0.699,3.263,-0.329023,-0.096188,-0.161275,100532.16,-99,+11,-232
60977,9.367,0.688,3.332,-0.338600,-0.080757,-0.165000,100531.02,-99,+13,-232
60987,9.528,0.980,3.551,-0.308270,-0.078629,-0.147973,100531.02,-99,+13,-232
60997,9.240,1.262,3.560,-0.263573,-0.069583,-0.134670,100533.02,-98,+15,-233
61006,9.100,0.975,3.682,-0.234839,-0.058940,-0.116578,100533.49,-98,+15,-233
61017,9.149,0.780,3.853,-0.233775,-0.058940,-0.099551,100528.85,-98,+16,-234
61027,9.073,0.776,3.901,-0.256656,-0.062133,-0.094230,100529.63,-98,+16,-234
61037,9.166,0.878,3.926,-0.299756,-0.071179,-0.088908,100529.63,-98,+17,-234
61046,9.267,0.854,3.870,-0.323169,-0.077564,-0.082523,100532.00,-98,+17,-234
61057,9.225,0.781,3.824,-0.322105,-0.082885,-0.078266,100530.03,-98,+17,-234
61063,9.105,0.858,3.829,-0.324766,-0.088739,-0.072945,100530.23,-97,+18,-234
61072,9.038,0.927,3.733,-0.338068,-0.089803,-0.066560,100530.23,-97,+18,-234
61082,8.923,0.964,3.603,-0.344986,-0.082885,-0.060707,100529.34,-98,+19,-232
61091,9.074,0.786,3.608,-0.345518,-0.078629,-0.046872,100529.34,-98,+19,-234
61102,9.322,0.768,3.634,-0.339133,-0.081821,-0.035697,100533.92,-97,+21,-234
61112,9.215,0.816,3.549,-0.325830,-0.074904,-0.036230,100531.55,-97,+21,-234
61122,9.068,0.781,3.492,-0.316784,-0.064262,-0.031441,100531.31,-97,+22,-234
61131,9.108,0.843,3.562,-0.300821,-0.057344,-0.018670,100531.31,-97,+23,-234
61142,9.158,0.907,3.733,-0.271555,-0.050959,-0.009624,100531.31,-97,+22,-234
61152,9.096,0.897,3.887,-0.234839,-0.047766,-0.004303,100529.89,-97,+22,-234
61162,9.068,0.653,3.871,-0.206637,-0.053087,0.003679,100530.98,-97,+24,-235
61171,9.036,0.387,3.826,-0.240160,-0.061069,-0.001110,100530.20,-97,+24,-234
61182,9.074,0.540,3.634,-0.298160,-0.071711,-0.014413,100529.72,-96,+24,-235
61192,9.143,0.918,3.604,-0.310399,-0.072775,-0.006964,100529.72,-96,+24,-235
61202,9.084,1.219,3.651,-0.260912,-0.072243,0.020174,100534.67,-97,+24,-234
61212,9.234,1.046,3.610,-0.190142,-0.068518,0.053165,100532.23,-96,+25,-235
61221,9.532,0.606,3.677,-0.164069,-0.065858,0.076046,100530.56,-97,+25,-235
61232,9.355,0.560,3.669,-0.184289,-0.077032,0.078706,100532.02,-97,+25,-235
61242,9.092,0.905,3.700,-0.198124,-0.084482,0.089348,100533.53,-97,+25,-236
61252,9.230,0.921,3.828,-0.175243,-0.085546,0.113293,100531.97,-95,+25,-236
61261,8.989,1.030,3.826,-0.138527,-0.092995,0.136174,100531.97,-96,+25,-235
61272,8.922,1.112,3.957,-0.098087,-0.100445,0.169697,100531.23,-96,+25,-235
61282,9.263,1.151,4.031,-0.048601,-0.115344,0.213330,100531.97,-96,+24,-236
61292,9.340,1.309,4.055,-0.011885,-0.136628,0.256963,100531.97,-95,+24,-236
61301,9.207,1.550,4.178,0.000886,-0.154188,0.310706,100532.07,-95,+23,-236
61312,9.121,1.347,4.241,-0.027848,-0.173344,0.378284,100530.76,-95,+23,-236
61322,9.097,1.246,4.008,-0.123628,-0.194628,0.436284,100529.57,-96,+22,-236
61332,9.084,1.271,4.040,-0.252399,-0.216977,0.492155,100530.29,-94,+22,-236
61342,9.278,1.738,4.288,-0.326894,-0.239326,0.564522,100532.14,-94,+20,-237
61351,9.257,2.292,4.283,-0.294435,-0.265399,0.661366,100533.19,-94,+20,-237
61362,9.092,2.563,4.292,-0.222068,-0.285087,0.784816,100531.98,-94,+20,-238
61372,9.262,2.489,4.695,-0.165133,-0.309564,0.907733,100530.64,-93,+18,-239
61382,9.979,2.462,4.577,-0.157151,-0.342023,1.029586,100530.64,-93,+15,-239
61391,10.491,2.952,4.562,-0.197059,-0.380335,1.152504,100530.64,-92,+15,-239
61402,11.119,2.928,4.642,-0.235371,-0.443656,1.263715,100534.14,-92,+13,-240
61412,12.397,2.746,4.822,-0.222068,-0.499527,1.393017,100532.11,-91,+11,-241
61417,13.070,2.450,4.768,-0.210894,-0.533582,1.501035,100531.13,-91,+11,-241
61427,13.660,1.693,4.418,-0.315188,-0.549546,1.576595,100528.98,-90,+6,-243
61436,15.472,0.687,3.481,-0.680747,-0.552738,1.585641,100528.98,-91,+4,-244
61447,17.536,1.895,3.110,-1.189444,-0.566041,1.559035,100533.07,-88,+3,-245
61457,18.944,4.363,2.745,-1.535847,-0.618188,1.567549,100531.20,-88,+3,-245
61467,19.540,7.331,2.358,-1.531591,-0.669270,1.697384,100530.99,-88,+2,-247
61476,18.871,7.869,1.898,-1.429425,-0.649050,1.895861,100528.59,-86,+1,-247
61487,19.189,5.553,1.870,-1.411334,-0.656500,2.012393,100528.59,-85,+0,-249
61497,19.682,4.270,1.380,-1.462948,-0.730463,2.002815,100532.85,-85,+0,-249
61507,18.009,3.555,1.725,-1.443260,-0.834757,1.896925,100532.16,-83,-1,-249
61516,14.840,0.980,1.953,-0.991499,-0.881582,1.772411,100530.02,-81,-3,-250
61527,12.730,-1.475,4.200,-0.388087,-0.787931,1.811255,100528.21,-79,-6,-251
61537,10.465,-2.500,5.743,0.460628,-0.598500,2.056913,100528.21,-79,-6,-251
61547,8.119,-5.343,7.024,0.945912,-0.329784,2.069329,100528.39,-79,-13,-250
61557,6.369,-9.527,8.154,1.101289,-0.058940,1.932576,100530.38,-78,-19,-251
61566,5.753,-13.337,7.826,0.709656,0.153371,1.827219,100529.13,-78,-25,-249
61577,6.952,-14.475,6.930,-0.108729,0.251280,1.633531,100527.72,-78,-25,-249
61587,8.441,-11.597,5.735,-0.778655,0.239573,1.254669,100527.72,-78,-27,-247
61597,7.670,-9.157,4.413,-1.393242,0.169335,0.891770,100530.64,-79,-27,-248
61606,6.953,-8.908,2.816,-1.649187,0.122509,0.803972,100531.02,-78,-26,-248
61617,6.543,-7.831,2.114,-1.626306,0.095371,0.878467,100527.27,-78,-26,-248
61627,6.366,-7.233,1.679,-1.337903,0.088986,0.969458,100527.31,-79,-25,-248
61637,6.007,-6.033,1.308,-0.893591,0.103353,1.045017,100527.31,-78,-25,-247
61646,5.264,-4.851,1.146,-0.445022,0.149647,1.100889,100530.06,-79,-26,-247
61657,4.177,-4.069,0.979,0.015785,0.227335,1.168999,100531.31,-79,-29,-246
61667,2.768,-3.363,0.974,0.486702,0.299702,1.216889,100527.98,-79,-29,-246
61677,1.729,-3.170,1.079,0.935270,0.364087,1.222742,100529.23,-79,-34,-244
61687,0.980,-3.389,1.229,1.332756,0.418894,1.203586,100529.23,-79,-40,-243
61697,0.504,-3.768,1.304,1.553050,0.464656,1.170063,100533.67,-80,-45,-240
61707,0.177,-4.051,1.093,1.607325,0.480087,1.107274,100528.78,-80,-45,-240
61717,0.292,-4.470,0.707,1.538151,0.485940,1.002981,100527.38,-80,-51,-237
61727,0.364,-4.862,0.433,1.334353,0.474766,0.906137,100529.41,-81,-57,-236
61736,0.366,-5.044,0.183,1.034775,0.434325,0.816742,100529.41,-81,-60,-234
61747,0.322,-4.996,0.033,0.695821,0.373665,0.716706,100531.91,-81,-60,-234
61757,0.323,-4.681,-0.139,0.358995,0.305555,0.628376,100528.95,-81,-61,-232
61767,0.359,-4.235,-0.304,0.070592,0.237445,0.543770,100533.79,-82,-64,-232
61772,0.299,-4.012,-0.411,-0.116179,0.187958,0.484706,100529.21,-82,-64,-232
61782,0.268,-3.963,-0.573,-0.278472,0.148050,0.433623,100529.21,-81,-65,-232
61792,0.203,-3.807,-0.869,-0.419481,0.095903,0.385733,100529.21,-81,-65,-232
61802,-0.104,-3.466,-0.915,-0.501426,0.050674,0.333055,100530.51,-81,-65,-232
61812,-0.151,-3.249,-0.800,-0.521646,0.012362,0.286229,100531.40,-81,-65,-233
61822,0.042,-2.897,-0.733,-0.444490,-0.029674,0.241000,100530.98,-81,-64,-232
61832,0.248,-2.659,-0.549,-0.299756,-0.062665,0.179807,100530.98,-81,-64,-234
61842,0.528,-2.493,-0.298,-0.120436,-0.082353,0.104247,100530.78,-81,-64,-234
61852,0.921,-2.325,-0.133,0.105711,-0.086610,0.039330,100530.78,-81,-64,-233
61862,1.326,-2.255,0.161,0.392518,-0.082353,-0.017074,100530.94,-81,-65,-234
61872,1.610,-2.428,0.557,0.682518,-0.074372,-0.095294,100531.30,-80,-66,-235
61882,1.828,-2.700,1.069,0.928353,-0.067454,-0.197991,100525.09,-81,-67,-234
61892,1.982,-3.113,1.419,1.132151,-0.072775,-0.300688,100525.09,-81,-67,-234
61902,2.249,-3.429,1.974,1.291784,-0.052023,-0.419881,100530.81,-82,-69,-233
61913,2.868,-3.919,2.567,1.368940,-0.024885,-0.549715,100530.97,-81,-69,-232
61922,3.795,-4.377,3.002,1.335417,-0.038188,-0.709348,100529.36,-82,-70,-232
61932,4.871,-4.982,3.432,1.174188,-0.079693,-0.917935,100525.60,-82,-70,-232
61942,5.843,-5.599,3.711,0.941656,-0.126518,-1.123862,100532.74,-83,-69,-232
61953,6.713,-5.962,3.826,0.664958,-0.181858,-1.314357,100531.18,-83,-68,-232
61962,7.251,-6.124,3.757,0.358463,-0.263803,-1.516027,100530.29,-85,-64,-233
61972,7.720,-6.031,3.682,0.052500,-0.338830,-1.711311,100530.29,-85,-64,-233
61982,8.137,-5.611,3.568,-0.219408,-0.401087,-1.874137,100531.12,-86,-60,-235
61991,8.565,-5.219,3.663,-0.409903,-0.448445,-2.058779,100531.12,-85,-54,-237
62002,9.354,-4.703,4.083,-0.549848,-0.453766,-2.279072,100529.41,-86,-47,-239
62008,9.847,-4.297,4.265,-0.620619,-0.449509,-2.426999,100529.36,-86,-47,-239
62017,10.120,-3.567,4.412,-0.642967,-0.440463,-2.552045,100529.63,-88,-40,-241
62027,10.459,-2.299,4.136,-0.543995,-0.407472,-2.720191,100532.13,-88,-40,-241
62036,10.922,-1.047,3.532,-0.153426,-0.283491,-2.848962,100532.13,-88,-31,-243
62047,11.823,-2.525,3.025,0.401564,-0.064262,-2.914943,100531.16,-88,-25,-244
62057,12.115,-23.442,5.154,0.978371,0.811591,-2.603127,100529.91,-90,-19,-242
62067,22.201,-28.866,19.912,1.397674,1.235682,-1.229220,100527.46,-90,-19,-242
62077,30.082,-2.568,1.940,0.792133,-0.825711,-0.433716,100527.93,-91,-21,-243
62087,18.538,4.444,-6.171,0.094537,-0.421839,-1.571366,100527.93,-91,-19,-245
62097,8.592,13.170,-1.530,-0.360417,-0.072775,-2.130081,100534.99,-90,-13,-245
62107,8.618,10.576,5.006,-0.612637,-0.044574,-2.813843,100532.54,-90,-13,-245
62117,15.087,8.213,11.096,0.261087,0.088454,-2.456265,100532.02,-90,-5,-247
62128,27.734,11.429,11.158,2.077887,0.296864,-1.376969,100529.77,-93,-2,-246
62137,33.580,9.807,2.178,2.465618,0.179977,-0.710945,100529.77,-93,-6,-245
62147,21.788,1.436,-5.039,1.350848,0.178913,-0.816302,100533.90,-93,-6,-245
62157,8.663,-6.577,-3.684,0.277583,0.432197,-1.085018,100531.34,-93,-5,-245
62167,3.439,-5.279,-3.115,-0.386490,0.280013,-0.778523,100530.60,-94,-3,-244
62177,4.602,-1.575,1.571,-0.728105,0.252344,-0.580046,100530.66,-93,+0,-244
62187,8.059,2.710,6.961,-0.614765,0.199665,-0.517257,100530.66,-95,+1,-242
62197,8.522,6.295,9.256,-0.069353,0.289059,-0.355495,100529.57,-95,+1,-242
62208,6.142,4.418,8.126,0.451050,0.410912,-0.250138,100530.77,-95,+1,-241
62217,6.747,-0.398,5.959,0.553215,0.381114,-0.114450,100532.34,-95,+0,-240
62227,9.561,-3.559,4.844,0.231821,0.242766,0.022835,100531.29,-96,+0,-239
62237,10.113,-3.498,4.767,-0.355628,0.144325,-0.063367,100531.29,-96,+0,-239
62247,8.874,-0.780,3.903,-0.687132,0.135812,-0.264505,100531.67,-97,+1,-240
62257,9.594,1.488,2.287,-0.474821,0.177316,-0.247477,100531.52,-97,+4,-239
62267,10.868,0.994,2.304,-0.010821,0.207647,-0.102743,100528.70,-97,+3,-239
62277,10.412,-0.600,3.525,0.233950,0.189555,-0.050064,100526.92,-97,+3,-239
62287,9.345,-0.758,3.935,0.202023,0.161353,-0.088376,100526.92,-97,+2,-238
62298,8.965,-0.132,3.830,0.158922,0.151243,-0.092101,100532.33,-98,+3,-237
62307,8.970,-0.023,3.708,0.178078,0.149647,-0.053257,100534.25,-98,+3,-237
62317,9.409,-0.028,3.850,0.157858,0.155500,-0.030376,100530.55,-98,+3,-237
62327,9.716,0.313,4.279,0.137638,0.145390,-0.011753,100529.61,-98,+1,-237
62337,9.442,0.421,4.460,0.156794,0.108142,0.016449,100529.61,-98,+2,-236
62347,9.172,0.408,4.547,0.166904,0.076215,0.060082,100534.34,-98,+1,-236
62357,9.074,0.251,4.556,0.100390,0.053335,0.105312,100533.51,-98,+1,-236
62363,8.909,0.190,4.567,0.003014,0.036839,0.142027,100534.18,-98,+0,-236
62372,8.726,0.337,4.345,-0.088509,0.021940,0.179275,100534.18,-98,+0,-236
62383,8.672,0.833,4.307,-0.160876,0.006509,0.252174,100530.43,-98,+1,-234
62392,8.728,1.270,4.424,-0.142784,-0.011583,0.351146,100530.43,-98,+1,-236
62402,8.923,1.431,4.371,-0.064564,-0.039785,0.455972,100533.94,-98,+0,-237
62412,8.841,1.155,4.168,0.057821,-0.056280,0.553880,100532.81,-98,-1,-236
62423,8.631,0.529,3.987,0.179142,-0.034996,0.628908,100531.38,-98,-1,-236
62432,8.789,-0.260,3.821,0.231821,-0.008922,0.679458,100531.38,-98,-3,-236
62442,8.983,-0.928,3.578,0.227032,0.000656,0.703403,100531.38,-99,-5,-236
62452,9.179,-1.344,3.505,0.195106,0.010234,0.703403,100535.95,-98,-8,-236
62462,9.297,-1.480,3.397,0.174353,0.013959,0.693293,100530.95,-98,-8,-236
62472,9.268,-1.403,3.414,0.169032,0.019280,0.680522,100532.51,-98,-9,-236
62482,9.175,-1.523,3.366,0.157858,0.026197,0.665623,100530.90,-98,-12,-235
62492,9.245,-1.669,3.317,0.120078,0.035775,0.656045,100530.90,-98,-14,-235
62502,9.194,-1.490,3.481,0.068463,0.041096,0.641678,100532.91,-98,-14,-235
62513,9.184,-1.308,3.520,0.041858,0.044821,0.631568,100529.37,-98,-15,-236
62522,9.246,-1.397,3.702,0.020041,0.057059,0.626779,100531.30,-98,-17,-234
62532,9.288,-1.228,3.889,-0.018270,0.053335,0.622522,100531.05,-98,-19,-235
62542,9.072,-0.921,3.623,-0.058711,0.055995,0.623054,100534.91,-98,-19,-235
62553,8.984,-1.011,3.759,-0.105004,0.066637,0.638486,100531.27,-98,-21,-236
62562,9.248,-1.119,3.930,-0.186949,0.058656,0.665091,100531.27,-98,-22,-234
62572,9.084,-0.764,3.992,-0.257188,0.053867,0.684779,100531.58,-98,-23,-234
62582,8.897,-0.452,4.278,-0.272619,0.048014,0.723091,100529.80,-98,-23,-234
62593,9.193,-0.498,4.245,-0.232711,0.043757,0.778430,100529.80,-97,-25,-234
62602,9.477,-1.237,4.170,-0.194399,0.040032,0.823660,100534.30,-98,-26,-234
62612,9.170,-1.584,4.060,-0.213555,0.019280,0.855586,100534.57,-97,-27,-234
62622,8.888,-1.627,4.042,-0.259316,0.011830,0.871018,100533.79,-97,-27,-234
62632,8.996,-1.438,4.199,-0.273683,0.015023,0.897091,100531.80,-96,-30,-236
62643,9.371,-1.879,4.099,-0.259848,0.012894,0.918375,100531.80,-97,-31,-234
62652,9.627,-2.209,3.990,-0.274747,0.002784,0.938063,100532.39,-96,-33,-234
62662,9.775,-2.526,3.852,-0.333812,-0.016904,0.947641,100529.56,-96,-33,-234
62672,10.069,-2.522,3.702,-0.417885,-0.028078,0.940192,100531.50,-95,-34,-235
62683,10.033,-2.312,3.596,-0.487059,-0.035528,0.943917,100531.50,-95,-37,-235
62692,9.872,-2.303,3.502,-0.511536,-0.041913,0.964669,100531.50,-94,-37,-235
62702,10.074,-2.259,3.300,-0.516325,-0.045638,1.007770,100533.98,-94,-37,-235
62712,10.453,-2.269,3.477,-0.519518,-0.041381,1.054595,100532.73,-94,-38,-236
62723,10.594,-2.314,3.623,-0.532821,-0.042977,1.106210,100530.07,-93,-41,-236
62733,10.751,-1.918,3.873,-0.540270,-0.045638,1.162082,100533.82,-93,-42,-236
62742,10.821,-2.021,4.023,-0.525371,-0.048830,1.225403,100533.82,-93,-42,-236
62752,11.161,-2.110,3.927,-0.521114,-0.054151,1.291916,100533.74,-91,-44,-236
62763,11.155,-1.997,3.955,-0.558362,-0.063729,1.358962,100529.87,-91,-47,-237
62773,11.412,-1.893,3.792,-0.567408,-0.083418,1.435054,100530.15,-90,-50,-237
62782,12.400,-1.353,3.744,-0.532821,-0.132372,1.539347,100530.15,-90,-50,-237
62792,13.047,-0.562,4.106,-0.418417,-0.186115,1.673439,100532.28,-87,-52,-237
62802,12.827,-0.409,4.249,-0.301353,-0.183986,1.803274,100532.28,-87,-56,-238
62813,13.033,-1.095,3.978,-0.294968,-0.134500,1.907567,100531.19,-85,-61,-237
62822,13.554,-1.274,3.847,-0.399793,-0.119601,1.978870,100529.47,-85,-61,-237
62832,13.853,-0.739,4.107,-0.549316,-0.132904,2.055494,100530.88,-83,-64,-238
62837,14.071,-0.172,4.442,-0.671701,-0.132372,2.109769,100530.88,-81,-68,-238
62848,14.449,0.148,4.699,-0.788765,-0.111087,2.137439,100529.36,-81,-68,-238
62858,15.147,0.252,5.071,-0.984050,-0.068518,2.140099,100528.16,-79,-70,-238
62867,15.972,1.060,5.239,-1.323004,-0.033931,2.106044,100529.77,-77,-73,-239
62877,16.431,3.106,5.245,-1.840746,-0.023821,2.035274,100529.56,-74,-73,-240
62887,15.839,4.970,5.238,-2.396269,-0.021693,1.929384,100529.56,-74,-73,-240
62898,14.779,4.605,4.434,-2.852819,-0.034996,1.844778,100529.29,-72,-71,-242
62907,14.359,1.906,3.772,-3.069920,-0.027546,1.833604,100533.57,-70,-69,-245
62917,14.499,-2.477,3.720,-2.932636,-0.079161,1.957054,100529.35,-69,-68,-247
62927,14.904,-4.713,4.351,-2.633058,-0.267527,2.222576,100528.46,-69,-68,-247
62938,14.145,-3.660,4.556,-2.173847,-0.420775,2.416264,100528.46,-65,-66,-250
62948,12.018,-2.425,5.008,-1.651315,-0.387784,2.470539,100529.45,-62,-68,-252
62957,9.588,-1.050,5.141,-1.241059,-0.219638,2.441806,100530.27,-59,-71,-250
62967,7.973,-0.254,3.636,-1.103774,-0.087674,2.307714,100530.12,-59,-71,-250
62978,7.324,-2.461,2.559,-0.842508,0.068766,2.069329,100525.95,-57,-72,-252
62988,6.245,-2.944,3.580,-0.191738,0.237977,1.982595,100525.95,-55,-75,-250
62997,5.102,-2.647,3.124,0.174885,0.168802,1.751127,100529.73,-55,-79,-249
63007,4.378,-1.608,3.645,0.208940,0.292784,1.224338,100529.20,-55,-79,-249
63017,4.611,0.336,2.685,0.083363,0.312472,0.658706,100528.73,-54,-80,-247
63028,4.942,0.498,1.476,-0.120968,0.252876,0.042523,100529.10,-55,-80,-247
63037,5.391,-0.200,1.087,-0.202380,0.262454,-0.436908,100529.10,-56,-78,-246
63047,5.001,-0.525,1.204,-0.140656,0.245958,-0.721587,100531.80,-56,-78,-246
63057,4.046,-0.521,1.296,0.002482,0.209243,-0.955183,100528.25,-57,-77,-245
63068,3.462,-0.300,1.388,0.214794,0.199133,-1.213789,100529.19,-58,-74,-244
63077,3.651,0.136,1.550,0.513307,0.203390,-1.481440,100525.22,-60,-72,-242
63087,4.245,0.535,1.491,0.864500,0.193812,-1.739513,100525.22,-60,-72,-242
63097,4.909,0.683,1.169,1.171527,0.142729,-1.975770,100529.36,-62,-69,-242
63108,5.525,0.577,0.654,1.387564,0.044289,-2.221072,100529.05,-64,-68,-241
63118,6.073,0.122,0.573,1.546132,-0.012115,-2.460522,100523.98,-67,-64,-239
63127,6.321,-0.430,0.886,1.689802,-0.046702,-2.674430,100527.33,-67,-64,-239
63137,6.400,-0.770,1.112,1.809527,-0.095656,-2.879292,100527.33,-69,-62,-237
63148,6.577,-1.018,1.567,1.872316,-0.150463,-3.115017,100526.31,-71,-58,-236
63158,7.083,-1.351,1.755,1.912224,-0.218573,-3.381604,100526.56,-74,-53,-234
63167,7.658,-1.775,1.969,1.920738,-0.301583,-3.667879,100522.50,-74,-53,-234
63177,8.021,-2.032,2.037,1.870719,-0.392041,-3.941383,100524.53,-75,-48,-234
63187,8.368,-2.075,2.126,1.765894,-0.447381,-4.193603,100524.53,-77,-42,-235
63198,8.815,-1.905,2.087,1.681288,-0.473454,-4.418153,100523.25,-80,-35,-235
63208,9.582,-1.685,2.132,1.615307,-0.477179,-4.620887,100525.44,-81,-27,-237
63217,10.386,-1.402,2.127,1.596683,-0.479839,-4.793823,100523.25,-81,-27,-237
63227,11.231,-1.169,2.102,1.653618,-0.471858,-4.932171,100521.36,-82,-19,-237
63238,12.072,-1.250,2.486,1.751527,-0.444188,-5.041254,100521.36,-83,-9,-238
63248,12.912,-1.696,3.080,1.853692,-0.430353,-5.113621,100527.09,-85,+0,-239
63257,13.449,-2.426,3.617,1.936701,-0.470793,-5.163107,100522.71,-85,+0,-239
63267,13.673,-2.980,4.039,1.980334,-0.530922,-5.223235,100527.45,-83,+9,-241
63278,13.958,-3.214,4.527,2.026095,-0.573491,-5.303052,100526.30,-83,+19,-243
63288,14.492,-3.152,4.881,2.056958,-0.600628,-5.382336,100526.30,-81,+28,-246
63297,15.285,-2.914,5.286,2.034609,-0.621913,-5.428098,100526.84,-81,+28,-246
63307,16.018,-3.006,5.461,1.955325,-0.636280,-5.418519,100530.84,-79,+37,-249
63318,16.340,-3.828,5.873,1.806866,-0.605417,-5.369033,100525.84,-76,+48,-252
63328,16.078,-4.887,6.569,1.574866,-0.541564,-5.260483,100526.46,-73,+59,-255
63337,15.190,-5.465,7.096,1.224738,-0.469197,-5.100318,100526.46,-73,+59,-255
63347,14.208,-6.295,7.429,0.768188,-0.313821,-4.860336,100526.48,-70,+69,-258
63357,13.816,-7.347,7.245,0.250977,-0.094060,-4.568740,100525.13,-66,+79,-260
63368,13.668,-8.730,5.918,-0.228986,0.094307,-4.236172,100529.66,-62,+90,-260
63378,14.020,-10.328,4.601,-0.540802,0.192747,-3.827512,100523.56,-62,+90,-260
63387,13.674,-10.760,3.428,-0.575389,0.170399,-3.249108,100523.56,-60,+100,-260
63397,11.576,-11.105,3.526,-0.517389,0.129958,-2.456265,100531.20,-58,+108,-260
63408,10.199,-11.709,3.967,-0.453004,0.082601,-1.446853,100527.34,-56,+112,-261
63418,9.780,-11.553,4.190,-0.304013,0.031518,-0.331550,100529.84,-56,+112,-261
63428,9.608,-11.127,4.728,0.026072,0.048191,0.824192,100528.39,-57,+112,-261
63437,9.773,-9.106,6.331,0.367509,0.154968,1.647898,100528.39,-60,+108,-262
63448,10.528,-7.585,8.409,0.684647,0.331628,2.273659,100530.20,-65,+101,-262
63458,13.089,7.911,10.335,0.706463,0.067170,2.496081,100525.97,-65,+101,-262
63468,17.329,26.635,-1.530,-0.488123,-0.889564,1.109403,100530.52,-67,+95,-263
63477,17.051,11.643,-6.687,-1.043646,-0.028078,0.398504,100531.30,-67,+98,-263
63488,15.865,-4.278,0.947,-0.200252,0.808931,1.603733,100531.30,-71,+94,-261
63498,15.727,-9.167,4.474,0.337179,0.567353,3.060649,100528.30,-71,+94,-261
63508,14.424,-1.301,-0.369,-0.259316,-0.111619,3.130888,100530.28,-76,+86,-261
63517,12.244,-0.792,0.468,-0.471096,0.344931,2.636026,100527.52,-79,+80,-261
63527,9.006,-0.497,4.216,0.042390,0.591298,2.509916,100532.52,-84,+74,-258
63538,5.565,0.403,5.931,0.548959,0.495518,2.429035,100532.52,-84,+74,-258
63548,4.556,-0.330,7.672,1.306151,0.742949,2.190118,100529.84,-87,+66,-258
63557,7.386,-0.157,8.211,1.937233,1.050508,2.069861,100528.90,-91,+57,-258
63567,10.653,-0.834,5.734,1.938297,0.982930,2.176815,100529.05,-97,+46,-256
63578,11.466,-3.874,3.300,1.563692,0.750398,2.105512,100526.60,-97,+46,-256
63588,12.039,-5.504,3.591,0.809160,0.626949,1.803806,100526.60,-99,+36,-254
63598,12.136,-5.568,3.745,-0.400325,0.468380,1.544136,100533.05,-100,+33,-253
63607,11.299,-4.336,3.286,-1.541169,0.278417,1.293513,100532.73,-102,+33,-252
63618,10.424,-2.257,2.484,-2.333480,0.117188,1.006706,100532.73,-102,+33,-252
63628,9.631,-0.554,1.612,-2.561223,0.028858,0.776302,100528.47,-104,+34,-251
63638,9.250,1.473,1.112,-2.101480,0.131555,0.671476,100528.47,-102,+38,-250
63647,9.766,3.660,1.498,-1.228288,0.340674,0.724687,100530.21,-104,+38,-249
63657,9.752,3.945,2.676,-0.398197,0.500307,0.888577,100530.84,-104,+38,-249
63664,9.249,2.601,3.662,0.037069,0.552986,0.972118,100529.12,-105,+36,-247
63673,8.928,0.832,4.199,0.258959,0.550325,0.992871,100529.12,-106,+33,-245
63683,9.322,-1.139,4.085,0.272794,0.492857,0.926889,100528.24,-106,+33,-245
63692,10.004,-2.383,3.771,-0.009225,0.403463,0.765660,100528.24,-108,+29,-244
63703,9.911,-2.336,3.822,-0.514729,0.311408,0.579421,100528.16,-109,+29,-243
63713,9.531,-0.697,4.040,-1.093664,0.207647,0.436816,100530.81,-110,+31,-242
63723,9.160,1.000,4.169,-1.478912,0.135812,0.333587,100530.91,-110,+31,-242
63733,8.850,2.136,4.162,-1.509242,0.122509,0.294211,100530.91,-109,+32,-242
63742,8.819,2.789,3.689,-1.239994,0.145390,0.341036,100530.91,-111,+34,-241
63753,9.008,3.221,3.074,-0.788233,0.191683,0.457036,100530.38,-111,+34,-241
63763,8.997,2.783,2.899,-0.308802,0.244894,0.579421,100525.59,-111,+34,-241
63772,9.112,1.691,3.511,0.017913,0.283738,0.689036,100530.69,-111,+33,-240
63783,9.135,-0.398,4.515,0.020041,0.275224,0.724155,100529.89,-112,+31,-239
63793,8.894,-1.675,5.068,-0.250802,0.229995,0.647531,100529.89,-112,+28,-239
63803,8.587,-1.139,4.927,-0.618490,0.149114,0.529935,100531.03,-112,+28,-239
63813,8.592,0.330,4.410,-0.791958,0.098032,0.466614,100530.00,-114,+28,-238
63822,8.960,1.284,3.817,-0.754178,0.092711,0.475660,100530.16,-114,+30,-237
63833,9.172,1.412,3.270,-0.572197,0.112931,0.539513,100535.02,-114,+29,-238
63843,9.347,0.884,3.191,-0.360417,0.139536,0.612944,100532.67,-114,+29,-238
63853,9.334,0.433,3.572,-0.226325,0.159757,0.681054,100531.73,-115,+28,-237
63862,9.310,-0.100,3.693,-0.209830,0.163481,0.719366,100531.73,-116,+25,-236
63873,9.371,0.056,3.968,-0.267830,0.162417,0.743843,100531.94,-116,+25,-236
63883,9.408,0.318,4.103,-0.343389,0.151243,0.772045,100529.02,-116,+25,-236
63893,9.262,0.446,4.200,-0.380105,0.154968,0.803972,100529.02,-116,+23,-235
63903,9.240,0.292,4.122,-0.380105,0.157096,0.849733,100531.30,-117,+20,-234
63912,9.237,0.222,3.943,-0.357224,0.149647,0.907733,100526.88,-117,+18,-234
63923,9.200,0.140,3.890,-0.340729,0.145922,0.969990,100529.63,-117,+18,-234
63933,9.257,0.180,3.913,-0.355096,0.145922,1.026394,100529.94,-119,+16,-232
63943,9.240,0.343,3.956,-0.373720,0.151775,1.084926,100532.64,-119,+14,-232
63953,9.213,0.493,3.973,-0.369995,0.156564,1.139733,100533.47,-119,+11,-232
63963,9.278,0.345,3.921,-0.338600,0.166674,1.205182,100530.03,-119,+7,-232
63973,9.383,-0.161,3.899,-0.310931,0.182105,1.272760,100526.44,-119,+7,-232
63983,9.414,-0.522,3.966,-0.324766,0.196472,1.325439,100526.44,-121,+5,-231
63992,9.644,-0.522,3.863,-0.364674,0.198069,1.369604,100526.44,-121,+1,-231
64003,9.924,-0.713,3.869,-0.378509,0.189555,1.425476,100530.98,-122,-3,-229
64013,10.005,-1.218,3.840,-0.378509,0.181041,1.473898,100531.60,-122,-3,-229
64023,10.204,-1.734,3.853,-0.405646,0.153371,1.524448,100530.77,-122,-6,-229
64033,10.414,-1.838,3.945,-0.467371,0.115592,1.559568,100527.01,-122,-9,-229
64043,10.773,-1.912,3.975,-0.552509,0.051738,1.584577,100527.01,-123,-15,-229
64053,10.989,-1.629,3.833,-0.621683,-0.048830,1.617568,100531.40,-123,-15,-229
64063,10.688,-1.318,3.933,-0.640839,-0.117473,1.664925,100530.70,-122,-17,-229
64073,10.692,-1.266,4.124,-0.614233,-0.144078,1.727182,100529.79,-121,-21,-229
64082,11.240,-1.587,4.266,-0.611573,-0.144610,1.772411,100529.79,-120,-27,-229
64093,11.511,-1.923,4.173,-0.662655,-0.141950,1.803274,100532.35,-120,-27,-229
64103,11.284,-2.031,4.122,-0.790362,-0.145674,1.822430,100532.35,-119,-31,-229
64113,11.173,-1.493,4.072,-0.942013,-0.155252,1.869255,100531.21,-120,-34,-231
64122,11.627,-1.198,3.887,-1.085150,-0.171748,1.926723,100533.60,-118,-38,-231
64133,12.342,-0.805,3.583,-1.187848,-0.196757,2.004943,100529.23,-118,-38,-231
64138,13.249,-0.239,3.702,-1.238930,-0.248372,2.072521,100529.23,-116,-42,-231
64148,14.577,0.948,4.255,-1.204875,-0.340427,2.175219,100530.23,-116,-42,-231
64158,16.008,2.491,4.355,-1.083554,-0.410665,2.327402,100532.89,-115,-45,-234
64167,16.267,2.170,4.544,-1.098985,-0.376078,2.435420,100531.33,-113,-50,-234
64178,17.339,2.574,5.062,-1.315022,-0.413326,2.481714,100528.98,-111,-56,-236
64188,19.274,4.957,5.800,-1.677389,-0.492610,2.493420,100528.98,-111,-56,-236
64198,19.835,7.647,6.712,-2.195131,-0.533582,2.464154,100530.27,-108,-58,-237
64207,18.243,10.424,7.049,-2.785773,-0.520280,2.429035,100527.57,-105,-60,-241
64218,16.411,10.475,6.306,-3.096525,-0.528261,2.434888,100528.93,-102,-60,-244
64228,15.561,5.784,5.236,-2.754911,-0.552206,2.540778,100527.10,-100,-60,-247
64238,15.786,-0.639,4.518,-1.829040,-0.593711,2.818007,100527.10,-100,-62,-247
64248,16.176,-3.237,5.051,-0.797279,-0.662353,3.243163,100533.81,-96,-68,-247
64253,15.376,-2.657,5.462,-0.213023,-0.688958,3.442172,100528.50,-96,-68,-247
64263,13.743,-1.990,5.414,0.082830,-0.619784,3.357566,100528.50,-91,-76,-248
64273,11.829,-1.056,5.133,0.221711,-0.476647,3.071823,100532.77,-88,-85,-247
64283,10.493,0.628,4.666,0.411674,-0.401087,2.755218,100526.25,-84,-91,-245
64293,8.291,-1.551,4.735,0.724023,-0.420243,2.538117,100526.25,-84,-91,-245
64303,5.608,-3.928,4.168,1.012426,-0.376078,2.345494,100525.73,-81,-99,-242
64313,4.454,-4.948,3.361,0.946977,-0.247839,1.912888,100525.50,-77,-104,-238
64323,4.636,-3.690,3.306,0.762867,-0.184518,1.256797,100527.95,-76,-106,-236
64333,4.329,-1.494,2.789,0.495216,-0.222298,0.604431,100527.95,-76,-106,-236
64343,3.573,-0.154,1.808,0.198830,-0.303711,-0.003771,100527.95,-76,-106,-232
64353,3.474,0.434,1.342,0.018977,-0.328720,-0.592816,100530.26,-76,-102,-231
64363,3.755,-0.017,1.123,-0.037958,-0.346812,-1.006266,100531.82,-76,-97,-229
64373,3.237,-1.034,1.282,0.052678,-0.391686,-1.292541,100527.84,-76,-97,-229
64382,2.418,-1.193,1.562,0.240335,-0.382463,-1.525073,100527.84,-77,-91,-227
64393,2.024,-0.668,1.571,0.511179,-0.351069,-1.858706,100527.84,-78,-85,-225
64403,2.696,0.031,1.725,0.842683,-0.312225,-2.259384,100528.79,-79,-79,-221
64413,3.761,0.192,1.684,1.173123,-0.293069,-2.621219,100529.32,-79,-79,-221
64423,4.615,-0.063,1.434,1.396077,-0.302647,-2.918136,100523.27,-81,-71,-218
64433,5.243,-0.469,1.300,1.490793,-0.339362,-3.197494,100523.27,-83,-62,-213
64443,5.622,-0.781,1.235,1.524848,-0.403748,-3.476319,100526.15,-86,-54,-210
64453,5.764,-0.950,1.258,1.557307,-0.439399,-3.737585,100526.15,-86,-54,-210
64463,5.970,-1.042,1.551,1.640848,-0.441527,-3.949365,100526.73,-86,-41,-206
64473,6.361,-1.040,1.862,1.787710,-0.444188,-4.139328,100525.57,-88,-28,-203
64483,7.009,-1.152,2.166,1.922334,-0.453234,-4.335144,100521.04,-88,-14,-199
64493,7.606,-1.316,2.415,2.039398,-0.471858,-4.543199,100521.04,-86,+2,-198
64503,8.240,-1.500,2.824,2.087820,-0.496867,-4.717199,100522.54,-86,+2,-198
64514,9.068,-1.851,3.338,2.073985,-0.526133,-4.908226,100525.46,-81,+21,-195
64523,9.973,-2.359,3.867,1.951600,-0.575619,-5.136501,100526.15,-72,+39,-193
64533,10.765,-2.719,4.211,1.765362,-0.636280,-5.399896,100522.65,-61,+60,-192
64543,11.668,-2.824,4.316,1.604664,-0.646390,-5.657969,100524.19,-61,+60,-192
64553,12.504,-3.112,4.522,1.552518,-0.573491,-5.843143,100526.06,-45,+77,-191
64563,13.297,-3.659,5.092,1.526976,-0.481436,-5.957547,100524.03,-27,+90,-190
64573,14.368,-4.068,5.761,1.474298,-0.431417,-6.019271,100524.03,-7,+101,-188
64583,15.593,-4.561,5.952,1.327967,-0.449509,-6.043748,100524.91,-7,+101,-188
64593,16.460,-5.018,6.096,1.089582,-0.527197,-6.051198,100524.91,+10,+107,-185
64603,17.159,-5.089,6.475,0.676133,-0.632555,-6.049069,100524.27,+26,+112,-182
64613,17.432,-4.751,6.967,0.199895,-0.689491,-6.027253,100525.59,+44,+116,-178
64623,16.707,-4.375,7.696,-0.125757,-0.619252,-5.948501,100526.68,+44,+116,-178
64633,15.532,-4.559,8.258,-0.312527,-0.408004,-5.758006,100523.34,+58,+118,-175
64644,14.350,-5.360,8.151,-0.451940,-0.125986,-5.458960,100523.34,+71,+118,-172
64653,13.607,-6.884,7.173,-0.630729,0.189023,-5.081694,100526.65,+83,+118,-168
64663,13.764,-8.773,6.037,-0.879756,0.437518,-4.637383,100526.49,+83,+118,-168
64673,13.803,-10.008,4.345,-1.121334,0.507756,-4.073346,100530.30,+93,+117,-165
64684,12.860,-11.484,3.618,-1.348545,0.468380,-3.378943,100530.30,+101,+115,-162
64693,11.310,-12.818,3.294,-1.510838,0.300234,-2.469035,100530.30,+107,+113,-157
64703,10.154,-12.302,2.749,-1.533719,0.109738,-1.363843,100531.45,+107,+113,-157
64713,9.742,-10.309,2.379,-1.238930,0.036307,-0.156486,100527.63,+111,+110,-154
64723,9.688,-8.636,2.746,-0.566876,0.131023,1.033843,100530.30,+112,+108,-153
64729,9.775,-8.494,3.271,0.028555,0.260325,1.833072,100529.26,+112,+108,-153
64738,10.101,-9.249,3.610,0.559069,0.358766,2.483310,100529.26,+114,+106,-151
64748,11.752,-5.192,5.048,1.103417,0.360894,3.094704,100533.77,+112,+102,-151
64758,13.691,11.326,6.380,1.318921,-0.011583,3.035640,100533.88,+114,+100,-151
64769,17.029,35.508,-1.561,0.650591,-0.692683,1.404724,100527.41,+114,+100,-151
64778,18.373,18.180,-8.248,-0.165665,-0.172812,0.275055,100531.02,+117,+99,-149
64788,16.343,-7.800,-0.495,1.000720,0.939297,1.700045,100531.02,+115,+95,-150
64798,16.886,-15.145,5.272,1.740352,0.799353,3.705034,100531.65,+111,+93,-150
64808,16.378,-3.573,-2.973,0.324408,-0.336170,3.648098,100531.27,+111,+93,-150
64818,13.118,-1.556,-0.345,-0.230582,0.244894,2.702539,100531.70,+109,+93,-149
64828,8.201,-0.743,7.049,0.573968,0.611518,2.677530,100528.99,+106,+91,-148
64838,3.715,-0.496,9.487,1.057656,0.543408,2.656778,100528.99,+102,+89,-148
64848,6.333,-0.962,9.927,1.757912,0.875976,2.544503,100531.53,+102,+89,-148
64858,10.087,-1.320,8.432,1.884554,0.967499,2.650393,100531.02,+101,+87,-149
64868,10.421,-4.085,5.367,1.457270,0.704105,2.617934,100530.80,+97,+85,-149
64878,10.962,-6.847,4.964,0.731472,0.504564,2.298136,100530.70,+97,+85,-151
64888,11.949,-6.853,4.348,-0.442894,0.286931,1.955457,100530.70,+97,+85,-151
64899,11.678,-5.208,3.392,-1.593847,0.059720,1.647366,100530.91,+95,+85,-149
64908,10.974,-2.891,2.328,-2.311663,-0.149931,1.336081,100530.97,+95,+85,-148
64918,10.241,-0.896,1.155,-2.352636,-0.219638,1.098228,100530.70,+93,+87,-144
64928,9.064,2.029,0.710,-1.650251,-0.066390,0.963605,100533.25,+93,+87,-144
64939,8.332,4.333,1.242,-0.601463,0.211903,1.011495,100533.25,+93,+87,-143
64948,8.721,3.870,2.546,0.263748,0.416766,1.170063,100531.82,+91,+85,-143
64958,9.068,1.479,3.781,0.801179,0.501903,1.270100,100527.71,+90,+84,-144
64968,9.374,-0.491,4.307,1.011362,0.513077,1.249348,100529.37,+90,+84,-144
64978,9.610,-2.247,4.447,0.775637,0.468912,1.130155,100528.18,+88,+84,-144
64988,9.635,-3.442,4.187,0.142959,0.363555,0.904008,100528.18,+86,+83,-144
64998,9.547,-3.465,4.395,-0.712142,0.227867,0.643807,100529.98,+87,+83,-143
65008,9.207,-1.664,4.516,-1.477847,0.101225,0.442669,100530.71,+87,+83,-143
65018,9.067,0.484,4.082,-1.895554,0.030986,0.308045,100529.98,+87,+85,-142
65029,9.037,2.486,3.346,-1.777425,0.023004,0.271330,100528.46,+86,+85,-140
65038,8.894,4.254,2.655,-1.233077,0.099096,0.370302,100528.46,+86,+85,-138
65048,8.727,4.333,2.348,-0.467371,0.232656,0.574632,100533.66,+86,+85,-138
65058,9.080,2.416,2.625,0.206280,0.345463,0.801843,100528.76,+85,+85,-138
65069,9.868,-0.501,3.793,0.422849,0.375793,0.922632,100530.32,+84,+83,-138
65078,9.719,-2.397,4.795,0.156262,0.314601,0.869953,100529.80,+84,+84,-137
65088,8.478,-2.148,5.123,-0.401389,0.206582,0.701807,100529.80,+84,+84,-137
65098,7.964,-0.594,4.944,-0.825481,0.125702,0.570376,100528.76,+83,+85,-137
65108,8.602,0.883,4.035,-0.897848,0.092179,0.540045,100527.62,+80,+85,-136
65118,9.530,1.613,3.429,-0.675426,0.107078,0.606027,100529.02,+81,+83,-135
65128,9.564,1.163,3.196,-0.368399,0.149647,0.719898,100529.91,+81,+83,-135
65138,9.555,0.069,3.244,-0.168857,0.191151,0.800247,100529.91,+81,+85,-135
65148,9.771,-0.710,3.352,-0.151298,0.204986,0.831109,100530.58,+80,+83,-135
65159,9.748,-0.751,3.616,-0.266766,0.206050,0.834834,100532.98,+79,+83,-134
65168,9.608,-0.536,4.051,-0.422142,0.198069,0.827917,100527.56,+79,+83,-134
65178,9.692,-0.216,3.972,-0.539206,0.179977,0.831641,100529.39,+79,+83,-133
65188,9.590,0.144,4.107,-0.600399,0.167206,0.880063,100529.39,+78,+81,-133
65199,9.238,0.557,4.168,-0.586564,0.156564,0.948706,100533.53,+76,+83,-131
65208,9.231,0.436,3.858,-0.532288,0.161885,1.033311,100530.09,+76,+83,-131
65218,9.390,-0.145,3.709,-0.509408,0.164014,1.123237,100528.42,+77,+82,-131
65228,9.329,-0.194,4.022,-0.535481,0.158692,1.206247,100529.63,+74,+81,-131
65239,9.467,-0.351,4.249,-0.563151,0.149647,1.283403,100529.63,+74,+80,-130
65249,9.860,-0.639,4.236,-0.561554,0.154968,1.348852,100532.26,+72,+80,-130
65258,9.884,-0.795,4.376,-0.613701,0.140601,1.402063,100530.43,+72,+81,-129
65268,9.995,-0.691,4.203,-0.681811,0.108674,1.453146,100528.91,+71,+79,-128
65278,10.142,-0.672,4.163,-0.721187,0.098564,1.518595,100530.54,+69,+79,-127
65289,10.397,-0.828,4.128,-0.718527,0.096436,1.595751,100530.54,+67,+77,-127
65298,11.258,-1.072,3.970,-0.690857,0.082069,1.684613,100531.29,+67,+77,-127
65308,11.966,-1.597,3.409,-0.680215,0.079940,1.748999,100530.60,+67,+76,-126
65318,11.921,-1.706,2.841,-0.698661,0.041096,1.787665,100528.79,+64,+75,-125
65329,11.602,-1.293,2.606,-0.692986,0.004381,1.867127,100531.71,+62,+74,-125
65338,11.650,-0.794,2.748,-0.625408,-0.033399,1.980466,100531.71,+62,+74,-125
65348,11.971,-0.548,3.244,-0.504619,-0.073840,2.107108,100531.00,+60,+71,-123
65358,12.287,-0.683,3.664,-0.411500,-0.088207,2.233218,100530.38,+57,+70,-124
65369,12.534,-0.543,4.010,-0.412032,-0.094592,2.346026,100530.42,+53,+67,-124
65378,12.700,-0.266,4.571,-0.520050,-0.103638,2.446594,100528.48,+53,+67,-124
65388,13.247,0.360,4.854,-0.686600,-0.102041,2.542374,100528.48,+50,+65,-123
65398,14.737,1.201,5.275,-0.847830,-0.116408,2.630172,100531.60,+48,+61,-122
65409,16.514,2.505,6.143,-0.939885,-0.190372,2.729145,100530.82,+45,+58,-122
65419,17.753,3.039,6.525,-1.063866,-0.221766,2.829714,100530.82,+45,+58,-122
65428,19.401,3.238,6.944,-1.537444,-0.183986,2.828649,100527.74,+41,+54,-121
65438,22.648,7.014,7.409,-2.551468,-0.231699,2.658906,100527.74,+38,+50,-120
65448,22.084,12.404,7.389,-3.610543,-0.356922,2.457769,100528.36,+35,+47,-119
65459,18.646,13.326,5.851,-4.366671,-0.483564,2.346026,100526.80,+35,+47,-119
65468,17.545,8.328,4.149,-4.263442,-0.505913,2.393384,100525.70,+33,+43,-117
65478,17.576,0.446,3.730,-3.243388,-0.569234,2.702007,100524.03,+31,+40,-116
65488,16.964,-2.538,4.952,-1.823719,-0.651711,3.208576,100524.03,+28,+34,-116
65499,14.912,-1.469,5.575,-0.790362,-0.684169,3.473034,100529.63,+28,+34,-116
65509,12.128,-1.767,5.658,-0.275812,-0.570830,3.307548,100530.36,+27,+29,-117
65518,10.798,0.362,5.795,0.021106,-0.425564,2.998924,100529.73,+25,+25,-118
65528,9.968,0.010,5.454,0.398904,-0.385124,2.589200,100530.92,+24,+21,-118
65539,6.749,-2.986,5.689,0.782023,-0.330849,2.289622,100530.92,+24,+21,-118
65549,4.215,-4.172,3.732,0.842151,-0.288280,2.054430,100529.27,+24,+17,-120
65558,3.740,-3.599,2.755,0.810224,-0.284023,1.470705,100527.71,+23,+15,-120
65568,4.009,-1.220,2.634,0.797986,-0.262206,0.684779,100527.91,+23,+13,-121
65579,3.934,0.399,1.735,0.643674,-0.335638,-0.036230,100531.51,+23,+13,-121
65589,3.756,1.030,0.832,0.490427,-0.409069,-0.684339,100531.51,+24,+11,-122
65598,3.733,0.442,0.531,0.465949,-0.429289,-1.104706,100530.09,+24,+13,-122
65608,3.247,-0.491,0.574,0.635692,-0.479307,-1.360651,100527.22,+25,+14,-122
65618,2.298,-1.257,0.902,0.846408,-0.520280,-1.642137,100523.63,+25,+14,-122
65629,1.760,-1.390,1.255,1.035307,-0.514426,-1.988540,100527.28,+26,+15,-122
65638,2.280,-1.078,1.445,1.240169,-0.473986,-2.355164,100527.28,+27,+17,-123
65648,3.327,-0.539,1.410,1.464187,-0.447381,-2.708485,100530.80,+29,+18,-122
65658,4.327,-0.380,1.352,1.697251,-0.452170,-3.041054,100526.67,+29,+18,-122
65669,5.054,-0.674,1.368,1.851563,-0.499527,-3.345952,100527.14,+29,+21,-122
65679,5.613,-0.943,1.090,1.874976,-0.622977,-3.637016,100524.44,+31,+23,-122
65688,5.835,-1.055,1.041,1.894664,-0.718224,-3.918502,100524.44,+32,+27,-122
65698,5.976,-1.122,1.500,1.965435,-0.745894,-4.149438,100522.36,+32,+27,-122
65709,6.012,-1.268,1.847,2.087820,-0.759729,-4.318117,100523.03,+34,+30,-122
65719,6.395,-1.351,2.208,2.195838,-0.746426,-4.503823,100522.77,+37,+35,-122
65728,7.151,-1.338,2.602,2.227233,-0.753876,-4.748061,100520.11,+40,+39,-122
65738,7.865,-1.576,2.848,2.166572,-0.785270,-5.010923,100520.11,+40,+39,-122
65748,8.574,-2.083,3.330,2.005875,-0.828903,-5.276978,100522.36,+43,+44,-122
65759,9.770,-2.591,3.621,1.692462,-0.914573,-5.578153,100523.30,+50,+50,-122
65768,11.359,-3.326,2.988,1.408316,-0.995454,-5.886244,100523.97,+55,+52,-122
65778,12.420,-3.824,2.548,1.347123,-0.894353,-6.108666,100525.48,+55,+52,-122
65788,12.675,-3.684,3.530,1.300298,-0.722481,-6.237968,100525.48,+62,+56,-119
65799,13.923,-3.838,4.881,1.123637,-0.659160,-6.350776,100525.90,+68,+57,-120
65809,15.717,-4.109,5.527,1.055527,-0.661821,-6.394409,100522.35,+72,+56,-119
65818,16.758,-5.004,5.813,1.099160,-0.614463,-6.329492,100523.24,+74,+58,-119
65828,17.518,-5.882,6.111,1.027857,-0.584665,-6.259253,100522.40,+74,+58,-119
65839,17.945,-5.942,6.548,0.771380,-0.575619,-6.160281,100522.40,+76,+59,-120
65849,17.968,-6.009,7.245,0.511179,-0.502188,-6.019804,100529.52,+78,+61,-122
65858,17.554,-6.321,8.324,0.310041,-0.358518,-5.815474,100528.54,+81,+64,-123
65868,16.412,-6.927,8.278,-0.014014,-0.242518,-5.522281,100523.96,+81,+64,-123
65879,15.075,-8.233,7.101,-0.350307,-0.089271,-5.148208,100526.77,+86,+67,-124
65889,14.075,-10.261,6.281,-0.615298,0.117720,-4.683676,100526.77,+88,+68,-126
65899,14.248,-12.095,5.780,-0.809518,0.250215,-4.071218,100530.46,+92,+70,-126
65908,13.698,-13.108,5.487,-1.043646,0.253408,-3.332118,100527.96,+92,+70,-126
65918,12.504,-14.086,5.202,-1.244783,0.182637,-2.448283,100529.77,+96,+71,-127
65929,10.834,-14.179,4.658,-1.424636,0.079940,-1.412798,100529.84,+99,+70,-126
65939,9.719,-13.014,4.676,-1.471994,0.038968,-0.260780,100529.84,+100,+69,-125
65948,9.718,-11.268,5.366,-1.225095,0.081537,0.875807,100533.88,+100,+69,-125
65958,10.178,-9.770,5.855,-0.750986,0.173591,1.842118,100529.76,+102,+69,-125
65969,10.564,-7.597,6.322,-0.222068,0.281078,2.563127,100530.07,+101,+69,-123
65979,12.170,3.430,6.013,0.320683,0.164546,2.909530,100525.38,+102,+68,-123
65988,12.950,26.376,3.869,0.538316,-0.255289,2.164044,100525.38,+102,+68,-123
65998,15.516,30.928,-7.052,-0.350839,-0.529326,0.218651,100530.19,+104,+67,-123
66009,17.040,8.499,-6.452,-0.001243,0.167206,0.371367,100534.56,+104,+65,-123
66019,14.989,-8.676,4.744,1.788242,1.053701,2.256099,100529.88,+104,+64,-125
66029,13.707,-4.342,3.304,2.042058,0.489665,3.431530,100531.70,+104,+64,-125
66038,12.725,-2.417,-3.407,1.020940,0.044821,2.849401,100531.70,+104,+62,-127
66049,13.579,-4.815,1.113,1.217821,0.705169,2.499273,100529.48,+102,+62,-127
66059,11.407,-3.524,8.334,1.553050,0.927591,2.682851,100531.82,+100,+60,-128
66069,7.716,-1.751,10.789,1.640316,0.865866,2.568448,100529.10,+100,+60,-128
66078,9.623,1.665,7.893,1.644040,0.904710,2.513640,100526.40,+100,+59,-129
66088,9.061,1.790,5.019,1.503031,0.850435,2.635494,100526.40,+98,+58,-130
66099,6.738,-2.549,5.649,1.347655,0.799353,2.504062,100526.89,+97,+56,-131
66109,7.884,-5.814,5.833,0.688371,0.624821,2.276851,100528.88,+97,+56,-131
66118,10.601,-5.891,5.056,-0.323701,0.415169,2.125732,100529.66,+97,+55,-132
66128,12.048,-4.698,3.869,-1.421444,0.215628,1.770283,100529.66,+95,+55,-131
66139,12.168,-3.217,1.664,-2.172251,-0.000408,1.366412,100529.66,+96,+55,-130
66149,11.345,-0.455,-0.095,-2.271755,-0.088739,1.203054,100528.70,+96,+55,-130
66158,9.640,2.747,0.153,-1.634820,0.066637,1.111531,100528.48,+95,+55,-129
66168,8.706,4.718,1.692,-0.735554,0.297573,1.179641,100531.93,+95,+55,-129
66179,8.850,4.047,2.907,0.076445,0.435922,1.375458,100530.77,+94,+55,-130
66189,9.118,1.691,3.283,0.699013,0.514674,1.490925,100530.77,+94,+55,-130
66199,9.620,-0.792,3.407,0.883656,0.543408,1.463788,100530.93,+94,+54,-129
66208,9.992,-2.944,3.433,0.583546,0.497114,1.306283,100532.29,+93,+53,-129
66219,9.797,-3.880,4.140,-0.070417,0.401867,1.068962,100528.79,+92,+54,-129
66229,9.159,-3.349,5.140,-0.924453,0.247555,0.822596,100527.59,+92,+54,-129
66239,8.532,-1.435,4.998,-1.587994,0.110270,0.588467,100527.59,+92,+54,-129
66248,8.587,0.802,4.049,-1.787535,0.063445,0.427770,100529.67,+91,+53,-127
66258,9.082,2.928,2.748,-1.508178,0.085261,0.413403,100529.05,+91,+54,-127
66269,9.364,3.806,1.822,-0.877628,0.187426,0.549623,100528.64,+91,+54,-127
66279,9.380,2.390,2.117,-0.210894,0.308215,0.754486,100532.70,+91,+55,-126
66288,9.523,0.077,3.368,0.119546,0.360894,0.882192,100532.70,+90,+54,-126
66298,9.455,-1.292,4.240,0.054629,0.334821,0.873678,100533.27,+90,+54,-126
66309,8.813,-1.370,4.685,-0.249738,0.278949,0.786944,100530.23,+90,+54,-126
66319,8.328,-0.691,4.625,-0.571665,0.212968,0.698614,100532.17,+90,+53,-126
66329,8.565,0.202,4.392,-0.710545,0.167738,0.662431,100529.56,+88,+54,-125
66338,9.050,0.873,3.949,-0.628600,0.154968,0.680522,100529.56,+90,+53,-125
66349,9.115,1.013,3.419,-0.421078,0.180509,0.740651,100531.84,+88,+53,-125
66359,9.165,0.434,3.302,-0.240160,0.214032,0.810889,100530.64,+88,+53,-125
66369,9.626,-0.167,3.443,-0.184289,0.230527,0.852394,100530.80,+88,+54,-124
66378,9.724,-0.509,3.636,-0.234839,0.229463,0.873146,100532.11,+88,+53,-125
66384,9.529,-0.397,3.733,-0.307738,0.226270,0.881660,100532.11,+88,+53,-125
66394,9.409,-0.191,3.824,-0.377977,0.222546,0.898687,100532.11,+88,+52,-125
66404,9.367,0.204,3.937,-0.423206,0.225206,0.939660,100534.57,+87,+52,-124
66414,9.395,0.360,3.970,-0.422674,0.232124,0.999788,100529.15,+87,+52,-124
66424,9.470,-0.029,4.069,-0.439169,0.240637,1.068430,100531.60,+87,+52,-125
66434,9.719,-0.484,4.041,-0.454068,0.269903,1.109403,100528.59,+86,+51,-125
66444,9.823,-0.810,3.773,-0.510472,0.267775,1.141861,100533.23,+86,+50,-123
66454,9.951,-0.649,3.900,-0.591885,0.267775,1.178577,100530.15,+86,+50,-123
66463,9.992,-0.704,3.791,-0.628068,0.250215,1.217953,100530.15,+85,+51,-123
66473,10.159,-0.925,3.834,-0.632857,0.246491,1.279678,100527.18,+85,+50,-123
66484,10.394,-1.153,3.682,-0.642967,0.231591,1.337678,100528.48,+84,+50,-123
66494,10.561,-1.169,3.648,-0.674894,0.203390,1.393549,100528.48,+84,+50,-123
66504,10.619,-1.183,3.672,-0.721720,0.194344,1.461127,100533.24,+83,+49,-124
66513,11.029,-1.084,3.548,-0.756839,0.174656,1.540412,100531.79,+83,+48,-123
66524,11.272,-0.652,3.833,-0.778655,0.138472,1.631402,100529.55,+81,+46,-123
66534,10.983,0.020,3.929,-0.740875,0.085793,1.746870,100529.87,+81,+46,-123
66544,11.107,0.313,4.070,-0.613169,0.064509,1.901714,100529.93,+81,+47,-123
66554,12.123,-0.418,4.097,-0.493977,0.069298,2.068797,100530.24,+79,+44,-124
66564,13.180,-1.032,3.937,-0.498766,0.066637,2.174686,100531.27,+77,+43,-123
66574,13.087,-0.973,3.882,-0.614765,0.047481,2.256631,100529.09,+76,+42,-125
66584,12.692,-0.366,3.812,-0.759499,0.033115,2.350815,100529.09,+76,+42,-125
66593,13.026,0.331,3.833,-0.843573,0.027261,2.462026,100529.09,+74,+40,-125
66604,13.781,0.677,3.756,-0.897316,0.045353,2.586539,100531.55,+72,+36,-126
66614,14.848,1.053,4.107,-1.012251,0.034179,2.709989,100528.79,+70,+36,-127
66619,15.950,1.765,4.981,-1.115481,-0.035528,2.792998,100527.38,+70,+36,-127
66629,17.272,2.425,5.751,-1.184655,-0.120133,2.876539,100524.26,+69,+31,-128
66638,19.318,3.235,6.052,-1.490618,-0.131307,2.938796,100524.26,+69,+31,-128
66649,21.837,6.262,7.276,-2.319645,-0.143546,2.819603,100528.34,+66,+29,-128
66659,21.386,10.378,7.775,-3.288617,-0.319142,2.605695,100529.86,+64,+25,-130
66669,18.857,11.525,5.879,-4.075607,-0.450573,2.425310,100530.95,+62,+22,-132
66679,17.960,8.659,4.416,-4.401258,-0.451105,2.316760,100525.69,+62,+22,-132
66689,17.377,2.779,3.721,-3.929809,-0.556463,2.468411,100525.69,+60,+19,-134
66699,16.910,-0.309,4.195,-2.736819,-0.684169,2.878668,100531.03,+58,+16,-136
66709,16.737,1.593,5.745,-1.228820,-0.673527,3.305952,100529.78,+56,+11,-140
66719,14.667,1.119,5.995,-0.075738,-0.633619,3.391089,100529.73,+56,+11,-140
66728,12.031,-0.388,6.184,0.677729,-0.564445,3.328300,100528.95,+52,+5,-144
66739,9.857,0.563,5.011,1.078940,-0.426451,3.271187,100528.95,+51,+0,-147
66749,7.950,-1.888,4.078,1.072022,-0.301050,3.069163,100527.71,+50,-5,-150
66759,6.170,-3.389,4.823,1.383839,-0.083418,2.639218,100528.27,+50,-5,-150
66768,5.230,-3.962,5.108,1.428004,-0.074372,2.032613,100528.02,+46,-12,-151
66779,4.487,-1.854,3.779,1.340206,-0.159509,1.176981,100528.49,+44,-15,-154
66789,4.043,0.061,1.318,1.012426,-0.285619,0.148945,100528.49,+41,-19,-156
66799,3.773,-0.103,0.638,0.550555,-0.287748,-0.752449,100529.95,+41,-19,-156
66809,3.546,-0.273,0.203,0.314830,-0.356390,-1.207403,100527.29,+39,-19,-157
66819,2.829,-0.087,0.271,0.288225,-0.485160,-1.563385,100525.99,+36,-18,-161
66829,1.829,-0.193,0.795,0.380280,-0.547949,-1.999182,100526.35,+34,-17,-161
66839,1.216,-0.387,1.161,0.546830,-0.547949,-2.431788,100526.35,+31,-14,-162
66849,1.529,-0.258,1.184,0.739454,-0.514426,-2.828209,100529.26,+31,-14,-162
66859,2.713,0.199,0.979,0.939527,-0.504316,-3.224099,100530.30,+30,-9,-165
66869,4.229,0.544,0.620,1.155032,-0.539436,-3.592851,100524.77,+29,-6,-166
66879,5.258,0.594,0.397,1.408316,-0.578280,-3.880191,100525.55,+31,+0,-166
66889,5.710,0.075,0.623,1.657343,-0.579344,-4.062172,100525.55,+31,+0,-166
66898,6.114,-0.446,0.863,1.763233,-0.632555,-4.235640,100529.85,+34,+5,-169
66909,6.677,-0.791,1.143,1.813784,-0.690555,-4.474025,100527.24,+37,+9,-170
66919,7.102,-1.061,1.989,1.891472,-0.704922,-4.690593,100525.52,+42,+14,-171
66929,7.590,-1.469,2.686,1.946279,-0.741637,-4.917272,100523.34,+42,+14,-171
66938,8.177,-2.135,3.000,1.910095,-0.804426,-5.160446,100523.34,+48,+17,-173
66949,8.918,-2.586,2.919,1.815912,-0.869344,-5.424373,100527.05,+55,+17,-174
66959,9.923,-2.761,2.725,1.676499,-0.907123,-5.701602,100524.34,+60,+18,-174
66969,11.514,-2.646,2.591,1.491857,-0.928408,-5.978831,100521.48,+60,+18,-174
66974,12.756,-2.724,2.419,1.379050,-0.923087,-6.159216,100522.10,+67,+17,-174
66983,13.548,-3.131,2.615,1.326903,-0.868279,-6.280538,100522.10,+67,+17,-174
66994,14.086,-3.738,3.460,1.260389,-0.776224,-6.376849,100522.10,+71,+13,-172
67004,14.861,-4.320,4.515,1.181105,-0.722481,-6.415161,100524.69,+72,+9,-172
67014,15.829,-4.696,5.433,1.156628,-0.719821,-6.398666,100523.73,+72,+4,-171
67024,16.738,-4.945,6.022,1.179509,-0.746426,-6.365675,100523.84,+72,+4,-171
67034,17.893,-5.032,6.339,1.086389,-0.790591,-6.336409,100523.84,+68,+1,-168
67044,18.537,-5.360,7.016,0.931013,-0.741105,-6.259785,100527.86,+62,+0,-167
67054,18.089,-6.006,8.148,0.807564,-0.564445,-6.081528,100527.86,+58,-1,-169
67064,16.896,-6.715,9.131,0.631968,-0.329252,-5.838354,100524.95,+51,-1,-168
67074,16.231,-8.328,9.427,0.258427,-0.064794,-5.499400,100523.64,+51,+0,-168
67084,15.486,-11.135,7.921,-0.255591,0.140069,-5.060942,100524.33,+45,+0,-169
67094,14.767,-14.141,6.834,-0.793554,0.276821,-4.547988,100524.33,+39,+3,-169
67104,13.876,-15.457,5.456,-1.217114,0.243830,-3.837622,100530.02,+33,+7,-169
67115,12.081,-16.452,5.047,-1.589058,0.141133,-2.920264,100528.30,+33,+7,-169
67124,10.818,-16.303,4.313,-1.797645,0.003316,-1.750687,100525.02,+29,+10,-169
67134,9.880,-13.999,3.361,-1.644398,-0.041913,-0.409771,100527.68,+26,+11,-169
67144,9.422,-11.525,3.392,-1.006930,0.035243,0.931146,100529.04,+23,+10,-167
67154,9.559,-10.455,3.863,-0.150234,0.168270,2.098063,100529.87,+23,+10,-167
67164,9.889,-10.419,4.647,0.587803,0.311940,2.958484,100531.96,+20,+5,-167
67174,11.016,-0.229,7.576,1.051270,0.310876,3.403328,100531.96,+20,-1,-166
67184,12.562,26.922,6.827,0.784151,-0.157381,2.479053,100524.04,+19,-7,-164
67194,16.616,31.511,-7.560,-1.259682,-0.583069,-0.235239,100524.04,+19,-7,-164
67204,19.151,4.285,-6.655,-1.273517,0.316197,-0.246945,100532.93,+16,-4,-164
67210,17.961,-12.538,3.863,0.075381,1.092545,1.395678,100532.35,+16,-4,-164
67219,18.325,-11.952,9.842,0.845876,0.809463,3.095236,100525.63,+12,-7,-163
67229,15.850,-0.108,-1.226,0.005142,-0.514426,3.301163,100527.51,+9,-13,-162
67239,13.826,-0.248,0.669,0.190317,0.312472,2.493952,100527.51,+6,-15,-163
67249,10.167,-1.819,7.945,1.230059,0.862674,2.591861,100529.10,+6,-15,-163
67259,5.242,-2.532,8.499,1.682352,0.764765,2.769053,100533.79,+5,-21,-162
67269,7.617,-3.061,6.080,1.959049,0.807866,2.519494,100530.66,+3,-25,-159
67279,10.898,-2.846,4.652,1.894132,0.881830,2.379549,100528.74,+1,-30,-157
67289,10.659,-3.121,4.844,1.766958,0.789775,2.294411,100528.74,+1,-30,-157
67299,9.645,-4.431,4.696,1.313068,0.604068,2.010797,100533.36,+1,-35,-156
67309,10.666,-5.215,3.203,0.481913,0.464123,1.689934,100530.33,+0,-37,-154
67319,12.412,-4.436,2.980,-0.482802,0.359830,1.510613,100530.33,+0,-40,-154
67330,12.075,-3.301,3.046,-1.334178,0.167738,1.266375,100533.56,+1,-40,-155
67339,10.466,-1.703,2.608,-1.933866,-0.006262,0.980100,100533.56,+1,-40,-155
67349,9.214,0.458,2.248,-2.127021,-0.041913,0.828981,100533.09,+1,-40,-156
67359,8.793,2.738,1.822,-1.742838,0.048014,0.770981,100529.74,+1,-38,-158
67369,9.060,4.343,1.865,-0.938820,0.231059,0.806100,100530.95,+1,-40,-158
67379,9.351,4.648,2.309,-0.132674,0.411445,0.950302,100525.52,+1,-40,-158
67389,9.152,3.106,3.300,0.410078,0.523720,1.091311,100525.52,+0,-41,-156
67399,8.904,0.811,3.830,0.590463,0.518399,1.114724,100529.77,+1,-44,-156
67409,9.080,-0.907,4.096,0.440940,0.448692,1.041825,100530.66,+0,-46,-156
67419,9.212,-2.142,4.134,-0.056582,0.368344,0.882192,100529.93,+0,-46,-156
67429,9.103,-1.879,4.490,-0.687665,0.256601,0.690100,100528.88,+0,-46,-154
67439,8.705,-0.449,4.826,-1.257022,0.137408,0.535256,100528.88,+0,-46,-156
67449,8.515,1.312,4.491,-1.552343,0.052270,0.440541,100529.18,+1,-45,-156
67459,8.607,2.783,3.583,-1.451242,0.044821,0.430963,100530.01,+1,-45,-156
67469,8.769,4.011,2.785,-0.986710,0.118784,0.540045,100528.71,+0,-45,-156
67479,8.794,4.740,2.299,-0.332747,0.234252,0.755550,100531.32,+1,-45,-157
67489,9.034,3.367,2.661,0.241931,0.341738,0.975843,100531.32,+1,-47,-156
67500,9.324,0.829,3.553,0.485638,0.379518,1.131219,100533.05,+1,-47,-156
67509,9.116,-1.041,4.321,0.305252,0.346527,1.170595,100532.89,+0,-50,-154
67519,8.696,-1.609,4.567,-0.108197,0.270968,1.088118,100530.75,+0,-50,-155
67529,8.633,-0.623,4.437,-0.458325,0.202858,1.009898,100529.61,+1,-53,-154
67539,9.054,0.672,3.884,-0.607848,0.174656,0.988082,100529.61,+1,-53,-154
67549,9.438,1.446,3.380,-0.516325,0.186362,1.031183,100531.41,+0,-54,-154
67559,9.413,1.526,3.290,-0.311995,0.210307,1.128559,100531.25,+1,-56,-156
67565,9.333,1.057,3.190,-0.145977,0.235848,1.204118,100530.31,+1,-56,-156
67574,9.476,0.447,3.263,-0.036894,0.266179,1.266907,100530.31,+1,-57,-154
67585,9.651,-0.323,3.416,-0.002307,0.291720,1.316926,100533.23,+1,-59,-153
67595,9.731,-0.788,3.784,-0.071481,0.302894,1.335017,100533.23,+1,-61,-154
67604,9.691,-1.104,4.005,-0.216215,0.295445,1.320650,100530.52,+1,-61,-154
67614,9.477,-1.145,4.346,-0.369463,0.290656,1.298834,100530.77,+1,-63,-154
67624,9.499,-1.454,4.210,-0.474821,0.280013,1.273293,100526.35,+2,-64,-153
67635,9.740,-1.485,3.842,-0.559958,0.275224,1.257329,100526.35,+3,-66,-154
67644,9.819,-1.746,3.721,-0.659463,0.278949,1.240302,100526.35,+3,-66,-154
67654,10.047,-1.579,3.598,-0.733426,0.258197,1.226467,100530.78,+3,-67,-154
67664,9.922,-1.030,3.955,-0.773334,0.247023,1.238705,100529.89,+3,-69,-154
67675,9.847,-0.896,4.301,-0.763224,0.252876,1.263182,100532.50,+3,-69,-156
67685,10.028,-1.200,4.326,-0.738747,0.256068,1.309121,100529.13,+3,-69,-156
67694,10.575,-1.608,4.093,-0.756839,0.243830,1.346192,100529.13,+3,-70,-155
67704,10.769,-1.590,3.761,-0.812710,0.223078,1.392485,100530.91,+4,-73,-156
67715,10.891,-1.149,3.420,-0.848894,0.207114,1.455274,100528.30,+3,-73,-157
67725,11.012,-0.727,3.314,-0.806325,0.181573,1.556375,100531.22,+3,-73,-157
67734,11.244,-0.752,3.203,-0.728105,0.161885,1.686742,100529.59,+5,-75,-158
67744,11.315,-0.642,3.302,-0.657866,0.119316,1.814448,100532.05,+5,-76,-157
67755,11.443,-0.459,3.621,-0.590288,0.076748,1.962907,100533.61,+6,-77,-159
67764,11.917,-0.481,4.067,-0.553041,0.062913,2.108173,100533.61,+6,-77,-159
67774,12.561,-0.795,4.619,-0.587096,0.068766,2.227365,100528.30,+6,-79,-159
67784,13.234,-1.049,4.533,-0.708949,0.082601,2.314099,100529.19,+6,-82,-160
67794,13.842,-0.674,4.427,-0.909554,0.076215,2.386466,100529.19,+8,-83,-162
67805,14.377,0.119,4.306,-1.108031,0.043225,2.463090,100530.22,+8,-83,-162
67814,15.307,1.373,4.872,-1.223499,-0.031271,2.569512,100530.69,+8,-85,-162
67824,16.573,2.792,5.439,-1.218710,-0.119601,2.703071,100528.13,+7,-87,-165
67834,17.894,2.888,5.919,-1.314490,-0.120665,2.804704,100526.14,+8,-89,-167
67845,20.839,4.018,6.688,-1.839682,-0.126518,2.794594,100530.24,+8,-89,-167
67855,23.323,8.208,7.167,-2.753314,-0.220702,2.680723,100529.05,+8,-90,-171
67864,21.715,12.454,6.966,-3.847864,-0.348408,2.490760,100527.38,+8,-89,-176
67874,19.641,11.605,5.056,-4.621020,-0.466537,2.296540,100526.96,+7,-86,-184
67885,18.648,6.903,3.257,-4.668377,-0.559656,2.229494,100526.96,+7,-86,-184
67894,17.286,0.117,2.706,-3.744103,-0.713968,2.480117,100526.96,+5,-84,-189
67904,16.215,-1.022,4.345,-2.238764,-0.818261,3.015952,100528.88,+6,-83,-193
67914,14.814,0.824,5.786,-0.849958,-0.826243,3.377787,100527.05,+8,-85,-197
67919,12.921,0.142,5.855,-0.184289,-0.767711,3.336814,100527.52,+8,-85,-197
67930,11.164,-0.064,5.820,0.303124,-0.594775,3.200594,100529.55,+10,-92,-197
67939,9.574,0.748,5.329,0.655913,-0.357454,3.007438,100529.55,+12,-97,-199
67949,7.590,-1.881,4.626,0.866096,-0.190372,2.744044,100525.31,+12,-97,-199
67959,4.919,-3.904,4.813,1.268903,-0.016904,2.487567,100526.11,+14,-102,-200
67970,3.984,-4.151,3.749,1.347655,-0.062133,2.059219,100525.38,+16,-110,-198
67980,4.172,-2.131,2.650,1.258793,-0.083418,1.170595,100526.98,+15,-116,-198
67989,4.233,0.204,1.222,1.017215,-0.162702,0.177146,100526.98,+15,-116,-198
67999,3.934,0.879,0.523,0.655380,-0.224427,-0.729569,100529.38,+14,-119,-199
68009,3.800,0.712,0.252,0.396775,-0.236133,-1.220706,100532.20,+12,-124,-200
68020,3.363,0.312,0.291,0.404757,-0.303179,-1.469201,100531.32,+6,-128,-201
68029,2.235,-0.247,0.658,0.611748,-0.342023,-1.798577,100527.20,+6,-128,-201
68040,1.259,-0.611,1.188,0.888090,-0.340604,-2.219831,100527.20,+1,-131,-203
68049,1.724,-0.433,1.285,1.107142,-0.333509,-2.598870,100529.91,-6,-135,-202
68060,3.170,-0.088,1.180,1.347655,-0.351601,-3.019769,100528.91,-15,-139,-203
68069,4.586,-0.015,0.838,1.569013,-0.410665,-3.406613,100527.66,-15,-139,-203
68079,5.540,-0.467,0.801,1.689802,-0.468665,-3.736521,100525.63,-27,-141,-203
68089,5.970,-0.801,0.638,1.710554,-0.564445,-3.994594,100525.63,-41,-143,-201
68100,6.196,-0.879,0.519,1.663196,-0.654371,-4.260117,100527.93,-56,-141,-202
68110,6.341,-1.131,0.939,1.633398,-0.667674,-4.519786,100525.12,-56,-141,-202
68119,6.383,-1.509,1.726,1.617435,-0.686298,-4.761896,100527.20,-71,-137,-203
68129,6.867,-1.866,2.085,1.603068,-0.751747,-5.025290,100524.70,-89,-130,-205
68140,7.312,-2.167,2.376,1.520059,-0.825179,-5.310501,100524.70,-105,-119,-208
68150,7.792,-2.360,2.694,1.343398,-0.877325,-5.584006,100524.10,-105,-119,-208
68159,8.568,-2.449,2.889,1.133215,-0.908720,-5.855381,100523.85,-122,-104,-213
68169,9.967,-2.076,2.620,0.976775,-0.932665,-6.149638,100527.40,-137,-84,-218
68179,11.724,-1.873,2.138,0.976775,-0.857637,-6.401326,100524.41,-148,-62,-226
68190,13.014,-1.903,2.545,1.128426,-0.661289,-6.558299,100524.41,-148,-62,-226
68200,14.189,-2.243,4.185,1.206114,-0.485693,-6.646629,100525.38,-157,-38,-232
68209,15.936,-3.099,5.390,1.343931,-0.445252,-6.674831,100522.83,-164,-13,-237
68219,17.674,-3.946,6.393,1.641912,-0.418647,-6.586501,100524.17,-168,+13,-245
68230,19.539,-5.553,7.277,1.835068,-0.463876,-6.419418,100520.64,-168,+13,-245
68239,20.646,-7.169,7.699,1.834536,-0.536243,-6.222005,100520.64,-168,+38,-253
68249,20.359,-7.930,8.215,1.671178,-0.503784,-5.939455,100528.05,-164,+62,-259
68259,18.526,-8.148,9.153,1.360426,-0.362243,-5.581345,100528.20,-158,+85,-267
68270,16.190,-8.533,9.532,0.885784,-0.185050,-5.185987,100527.47,-158,+85,-267
68275,15.258,-9.219,9.451,0.489362,-0.037656,-4.860868,100527.00,-149,+106,-271
68284,14.181,-11.062,9.225,0.135509,0.135812,-4.514465,100527.00,-141,+125,-273
68294,12.526,-14.345,8.733,-0.350307,0.323646,-4.069622,100527.00,-141,+125,-273
68304,12.491,-16.188,8.152,-0.926050,0.378986,-3.619457,100529.49,-132,+144,-274
68315,11.028,-15.898,6.757,-1.658765,0.277353,-2.960173,100529.48,-123,+161,-271
68325,10.070,-14.329,5.172,-2.309003,0.167206,-2.024724,100527.77,-118,+173,-267
68334,9.802,-12.061,3.767,-2.438306,0.088454,-0.831202,100527.77,-118,+173,-267
68344,9.707,-10.038,3.759,-1.969517,0.097500,0.367642,100529.25,-116,+182,-265
68355,9.736,-8.938,3.747,-1.152728,0.171463,1.443035,100529.25,-118,+184,-263
68365,9.753,-8.877,3.952,-0.272087,0.308747,2.348154,100526.80,-124,+179,-261
68374,11.012,-2.771,5.176,0.497876,0.349720,2.995732,100533.47,-124,+179,-261
68384,13.264,18.544,4.993,0.957619,-0.091931,2.760007,100528.52,-133,+172,-265
68395,17.686,37.912,-6.639,0.028555,-0.817197,0.593256,100528.52,-131,+167,-267
68405,18.397,13.292,-10.125,-0.591885,-0.042977,-0.066560,100534.82,-130,+171,-265
68415,16.905,-10.861,1.379,1.025729,1.080307,1.764962,100530.80,-130,+171,-265
68424,16.361,-10.924,7.434,1.928187,0.972288,3.749731,100524.35,-137,+159,-267
68434,15.212,-1.964,-0.515,0.543105,-0.058940,3.461328,100527.47,-142,+145,-268
68445,14.406,-4.256,3.565,0.384005,0.609921,2.562062,100532.11,-146,+136,-265
68455,9.814,-2.905,11.099,1.101289,0.997829,2.773310,100530.08,-146,+136,-265
68465,5.504,-0.040,9.864,1.357765,0.871719,2.923365,100533.20,-152,+124,-265
68474,6.553,0.670,4.231,1.453545,0.684949,2.654117,100533.20,-156,+110,-263
68485,7.331,-2.136,4.915,1.663196,0.816912,2.388062,100528.30,-161,+98,-262
68495,8.659,-4.566,6.175,1.559967,0.762105,2.317824,100528.30,-161,+98,-262
68505,11.364,-5.930,3.288,0.824059,0.498178,2.191182,100530.55,-164,+88,-262
68510,13.525,-6.128,1.923,0.054096,0.375261,2.000154,100530.80,-166,+81,-260
68519,13.923,-5.344,2.621,-0.701499,0.317261,1.780393,100532.05,-166,+81,-260
68530,12.191,-3.838,3.227,-1.626306,0.154968,1.490925,100528.36,-170,+78,-257
68540,10.132,-2.566,2.369,-2.378709,-0.051491,1.189751,100528.36,-169,+78,-258
68549,8.781,-1.012,0.848,-2.363810,-0.052555,0.922632,100530.95,-169,+81,-255
68559,8.863,2.748,1.508,-1.453370,0.171463,0.816742,100530.70,-169,+81,-255
68570,9.483,5.711,2.567,-0.547188,0.340142,0.936467,100526.99,-171,+78,-253
68580,9.503,3.369,3.010,0.017913,0.467316,1.084926,100527.98,-173,+75,-253
68589,9.691,0.472,3.547,0.405821,0.523188,1.137604,100527.98,-174,+69,-251
68599,9.503,-0.933,3.793,0.502133,0.485940,1.089182,100528.99,-174,+69,-251
68610,9.202,-1.700,3.765,0.286096,0.431133,0.941256,100529.30,-176,+65,-248
68620,8.826,-2.140,4.552,-0.173646,0.358234,0.782687,100529.10,-176,+62,-250
68630,8.718,-2.000,5.014,-0.755242,0.245426,0.606559,100529.21,-177,+61,-245
68639,8.964,-0.712,4.965,-1.248508,0.140069,0.430963,100529.21,-177,+61,-245
68649,8.861,0.773,4.425,-1.493279,0.087390,0.315495,100532.02,-177,+63,-244
68660,8.876,2.297,3.443,-1.386857,0.099096,0.304853,100529.52,-178,+65,-245
68670,8.969,3.270,2.674,-0.973940,0.154436,0.407018,100529.16,-179,+66,-242
68679,8.850,3.520,2.535,-0.376912,0.241169,0.596449,100530.25,-179,+66,-242
68689,8.987,2.285,3.050,0.088152,0.309279,0.793862,100530.25,-179,+62,-241
68700,9.303,0.039,3.951,0.228096,0.329500,0.898155,100530.48,-180,+59,-242
68710,9.167,-1.542,4.579,0.035473,0.297041,0.885385,100529.76,-181,+56,-239
68719,8.698,-1.529,4.618,-0.354564,0.235848,0.800247,100533.40,-181,+56,-239
68729,8.435,-0.556,4.403,-0.689261,0.186894,0.723091,100528.29,-182,+53,-237
68740,8.791,0.894,4.077,-0.786105,0.158160,0.714045,100528.29,-183,+53,-237
68746,9.141,1.679,3.867,-0.706820,0.164546,0.758210,100530.45,-183,+53,-237
68755,9.324,1.952,3.664,-0.534417,0.185830,0.826852,100530.45,-183,+52,-236
68765,9.343,1.163,3.571,-0.273151,0.225738,0.923696,100528.31,-185,+48,-235
68774,9.414,-0.143,3.579,-0.147041,0.244894,1.006706,100526.39,-185,+44,-236
68785,9.462,-0.727,3.750,-0.185353,0.249683,1.034375,100528.63,-185,+44,-236
68795,9.427,-0.798,4.023,-0.323169,0.246491,1.026926,100528.83,-184,+41,-232
68805,9.443,-0.792,4.158,-0.446619,0.236380,1.016816,100531.33,-187,+37,-232
68814,9.388,-0.506,3.982,-0.509940,0.226802,1.020008,100529.45,-186,+36,-232
68825,9.348,-0.243,4.093,-0.536013,0.227867,1.039696,100529.45,-186,+36,-232
68835,9.438,-0.367,3.969,-0.509940,0.231591,1.062045,100527.89,-187,+33,-229
68845,9.610,-0.454,3.835,-0.475885,0.244362,1.097696,100527.89,-187,+29,-229
68854,9.740,-0.709,3.884,-0.465775,0.256601,1.139201,100532.23,-188,+25,-229
68865,9.695,-0.842,4.151,-0.478545,0.258197,1.187091,100529.33,-188,+25,-229
68875,9.604,-0.552,4.490,-0.520582,0.252344,1.247751,100531.83,-187,+21,-226
68885,9.906,-0.613,4.502,-0.573261,0.218289,1.314797,100530.52,-188,+17,-224
68895,10.348,-0.878,4.332,-0.613169,0.166142,1.396210,100530.52,-188,+13,-226
68904,10.686,-1.054,4.023,-0.661591,0.139004,1.481347,100530.70,-188,+13,-226
68915,11.041,-1.007,3.677,-0.691389,0.130491,1.563292,100530.98,-188,+9,-224
68925,11.120,-1.025,3.517,-0.690325,0.113995,1.654283,100530.44,-188,+3,-223
68935,11.132,-1.023,3.375,-0.672233,0.099096,1.763898,100530.44,-187,+0,-223
68944,11.260,-0.888,3.556,-0.652013,0.076215,1.869788,100530.44,-187,+0,-223
68955,11.571,-0.871,3.753,-0.634986,0.039500,1.977806,100529.83,-185,-7,-221
68965,11.860,-0.854,4.066,-0.653610,0.016087,2.085292,100529.52,-183,-14,-222
68975,11.840,-0.580,4.399,-0.714802,-0.020096,2.189585,100527.58,-182,-21,-223
68984,12.346,-0.503,4.723,-0.798875,-0.067986,2.299732,100529.30,-182,-21,-223
68995,13.526,-0.703,4.419,-0.885609,-0.083950,2.400833,100529.30,-179,-29,-221
69005,14.714,-0.865,3.951,-1.050563,-0.080225,2.450319,100531.48,-176,-36,-223
69015,15.578,-0.094,4.158,-1.254361,-0.173344,2.491824,100530.80,-171,-42,-224
69025,16.725,1.726,4.585,-1.338435,-0.336702,2.580686,100530.41,-171,-42,-224
69035,17.826,3.663,4.484,-1.446985,-0.379803,2.672741,100530.41,-166,-51,-223
69045,19.241,4.327,5.479,-1.812544,-0.375014,2.698815,100527.37,-160,-58,-226
69055,21.184,7.535,5.956,-2.429260,-0.462280,2.691897,100528.57,-154,-61,-229
69064,21.450,11.154,6.269,-3.309369,-0.522940,2.642411,100528.57,-154,-61,-229
69074,20.836,12.435,4.945,-4.133075,-0.602225,2.550356,100526.12,-146,-64,-231
69085,19.866,10.784,4.389,-4.389020,-0.681509,2.447659,100529.87,-138,-63,-238
69095,17.693,4.744,4.121,-3.568507,-0.870940,2.547163,100529.87,-130,-62,-242
69105,15.808,0.381,4.745,-1.881187,-0.988536,2.979236,100530.30,-120,-71,-243
69115,14.181,0.535,6.365,-0.115647,-0.824646,3.491126,100525.15,-120,-71,-243
69125,12.415,-0.988,5.543,0.979435,-0.638408,3.609787,100527.96,-110,-81,-243
69135,11.558,-1.474,5.634,1.254536,-0.464940,3.428869,100525.20,-100,-93,-241
69145,11.386,-1.394,4.777,1.454609,-0.408004,3.163878,100526.60,-92,-106,-235
69155,8.276,-4.233,6.160,1.856352,-0.393638,2.879732,100526.45,-92,-106,-235
69165,4.190,-4.743,5.260,1.859545,-0.336702,2.439145,100524.84,-84,-115,-232
69175,3.360,-4.846,4.234,1.570077,-0.228683,1.772943,100523.16,-77,-120,-228
69185,3.960,-2.565,3.833,1.302958,-0.211656,0.901880,100523.16,-72,-125,-221
69195,4.067,-0.810,2.476,0.806500,-0.375546,0.046780,100523.16,-72,-125,-221
69204,3.537,0.264,1.282,0.349417,-0.498463,-0.704559,100528.86,-71,-124,-221
69215,3.337,0.855,1.175,0.155729,-0.501656,-1.153660,100530.06,-68,-119,-219
69225,3.032,0.701,1.077,0.223840,-0.588390,-1.430357,100529.44,-68,-117,-215
69235,2.188,-0.125,1.291,0.452115,-0.675124,-1.762394,100527.52,-68,-117,-215
69244,1.490,-0.719,1.656,0.663894,-0.717160,-2.168393,100527.52,-68,-110,-214
69255,1.949,-0.738,1.576,0.818206,-0.749619,-2.616430,100524.70,-69,-104,-213
69265,3.310,-0.504,1.437,0.936867,-0.792188,-3.080962,100528.13,-71,-99,-209
69275,4.596,-0.436,1.304,1.048078,-0.850720,-3.488026,100525.68,-71,-99,-209
69285,5.294,-0.552,1.245,1.129490,-0.916701,-3.800906,100525.68,-72,-88,-210
69295,5.509,-0.776,1.309,1.176316,-0.968848,-4.047805,100525.44,-74,-77,-209
69305,5.572,-0.916,1.399,1.223142,-1.008224,-4.260117,100525.44,-76,-69,-206
69315,5.575,-0.969,1.474,1.299765,-1.022059,-4.466575,100526.69,-76,-69,-206
69325,5.886,-1.006,1.844,1.433325,-0.988004,-4.691125,100521.63,-75,-58,-209
69335,6.489,-1.048,2.411,1.548261,-0.936922,-4.920465,100523.03,-74,-46,-210
69345,7.052,-1.146,2.741,1.629141,-0.909784,-5.146080,100523.03,-76,-35,-208
69355,7.822,-1.123,3.119,1.672242,-0.885307,-5.384997,100522.56,-76,-35,-208
69365,8.795,-1.269,3.414,1.672774,-0.857637,-5.635620,100523.81,-74,-26,-211
69376,10.013,-1.529,3.556,1.678095,-0.810279,-5.897418,100523.81,-71,-13,-214
69385,11.340,-1.885,3.640,1.675435,-0.751747,-6.170391,100520.41,-71,-1,-214
69395,12.808,-2.486,3.583,1.728646,-0.664481,-6.400794,100524.90,-71,-1,-214
69405,14.062,-3.047,4.049,1.901582,-0.520812,-6.510941,100522.24,-67,+9,-219
69414,15.208,-3.309,5.123,2.127728,-0.425564,-6.514666,100522.24,-65,+21,-221
69425,17.303,-3.763,6.090,2.229893,-0.452170,-6.487528,100522.76,-64,+33,-221
69435,20.153,-5.445,7.252,2.151141,-0.552738,-6.452409,100524.70,-64,+33,-221
69445,21.703,-8.053,8.322,1.793031,-0.687362,-6.392281,100524.70,-57,+44,-228
69455,20.594,-9.542,9.195,1.064750,-0.794316,-6.319204,100526.81,-51,+57,-231
69465,17.626,-9.224,10.096,0.407949,-0.674591,-6.137932,100526.81,-43,+70,-231
69475,14.623,-9.478,10.869,-0.193867,-0.321271,-5.724483,100522.83,-43,+70,-231
69485,13.692,-11.517,11.163,-0.688197,0.143261,-5.129584,100522.83,-36,+81,-233
69495,12.980,-14.360,8.733,-1.234141,0.413573,-4.472428,100522.83,-29,+93,-231
69506,13.795,-16.710,6.146,-1.616728,0.447096,-3.816337,100527.59,-22,+104,-227
69515,12.956,-16.687,4.722,-1.802434,0.253940,-2.942081,100526.72,-22,+104,-227
69525,10.423,-16.676,4.831,-2.202049,0.069830,-1.878394,100529.89,-18,+110,-227
69535,9.547,-15.164,4.014,-2.512801,-0.069051,-0.592284,100529.89,-13,+116,-223
69544,9.795,-12.097,3.702,-2.251003,-0.066390,0.726816,100529.89,-14,+120,-219
69555,10.109,-10.112,4.156,-1.466141,0.046949,1.839457,100530.73,-14,+120,-219
69565,10.548,-7.402,5.432,-0.554637,0.222546,2.696154,100532.14,-15,+116,-219
69575,12.133,5.753,5.922,0.205748,0.109206,3.069695,100527.97,-19,+113,-218
69585,14.433,32.886,2.509,0.399436,-0.440463,2.010264,100530.05,-20,+110,-218
69595,18.174,29.173,-9.317,-0.899444,-0.608610,-0.138927,100530.05,-20,+110,-218
69605,18.528,3.119,-5.847,-0.279536,0.317793,0.463421,100534.09,-16,+110,-219
69615,15.871,-14.764,7.197,1.605729,1.305921,2.700943,100530.45,-19,+107,-216
69625,15.471,-6.022,6.019,1.944682,0.470509,4.070594,100526.28,-25,+98,-216
69636,13.318,0.068,-1.096,0.837362,-0.040317,3.226667,100526.28,-27,+89,-219
69645,11.734,-2.490,3.627,1.188022,0.685481,2.547695,100531.90,-27,+89,-219
69655,6.480,-3.039,10.345,1.896793,0.883426,2.773310,100531.90,-31,+83,-216
69665,4.598,-2.377,9.655,1.997894,0.871187,2.783420,100525.02,-34,+75,-214
69675,9.341,-1.181,4.859,1.763233,0.786050,2.567915,100526.48,-36,+66,-218
69685,10.256,-3.032,3.408,1.549857,0.792435,2.397640,100532.90,-36,+66,-218
69695,9.227,-5.059,4.905,1.254004,0.729646,2.228962,100532.90,-39,+62,-215
69705,11.131,-5.709,3.743,0.438812,0.522655,2.006540,100531.76,-41,+58,-213
69715,12.622,-4.522,2.831,-0.512068,0.374197,1.793164,100530.40,-41,+52,-214
69725,11.855,-3.458,3.200,-1.298527,0.265114,1.544668,100531.49,-41,+52,-214
69735,10.354,-2.756,2.980,-1.907260,0.080472,1.266907,100525.63,-43,+55,-211
69745,9.396,-1.782,1.436,-2.072214,-0.003601,1.050871,100529.34,-44,+56,-210
69755,9.227,1.162,1.082,-1.527866,0.151775,0.932210,100528.09,-43,+54,-211
69766,9.497,3.612,1.975,-0.713206,0.356105,0.953495,100527.46,-43,+54,-211
69775,9.719,2.953,2.816,-0.128949,0.485940,1.078540,100527.46,-45,+55,-208
69785,9.828,0.694,3.307,0.202555,0.520527,1.156760,100529.18,-48,+53,-206
69795,9.758,-0.721,3.824,0.347289,0.506692,1.121641,100529.18,-48,+48,-208
69806,9.595,-1.729,3.872,0.180207,0.448692,0.987017,100534.42,-48,+48,-208
69811,9.428,-2.173,3.956,-0.074674,0.377390,0.858247,100528.75,-48,+49,-204
69820,9.206,-2.353,4.424,-0.415756,0.303426,0.730541,100530.52,-48,+49,-204
69830,8.905,-2.077,4.714,-0.929242,0.193280,0.557605,100529.94,-50,+48,-203
69840,8.899,-0.815,4.659,-1.348545,0.106014,0.401165,100529.94,-50,+47,-205
69850,9.080,0.826,4.042,-1.546490,0.061848,0.306981,100533.35,-50,+52,-203
69860,9.178,2.275,3.221,-1.429425,0.085261,0.309642,100527.62,-50,+52,-203
69870,9.121,3.169,2.633,-1.050031,0.161353,0.412871,100529.18,-50,+52,-200
69880,9.049,3.201,2.581,-0.503555,0.250747,0.587935,100531.10,-50,+50,-203
69890,9.027,2.199,3.000,-0.006564,0.327903,0.771513,100531.10,-52,+51,-200
69900,9.147,0.345,3.823,0.216390,0.355573,0.878467,100528.79,-53,+48,-198
69910,8.838,-1.233,4.545,0.100922,0.305023,0.878467,100530.09,-53,+48,-198
69920,8.531,-1.819,4.901,-0.249206,0.240105,0.795990,100526.09,-52,+46,-201
69931,8.455,-1.121,4.865,-0.599334,0.164546,0.704467,100529.30,-53,+47,-197
69940,8.650,0.150,4.369,-0.780252,0.113463,0.657642,100529.30,-54,+46,-197
69950,9.012,1.237,3.727,-0.717463,0.118784,0.684247,100528.32,-54,+46,-197
69960,9.231,1.783,3.305,-0.482270,0.160821,0.776834,100528.85,-53,+44,-198
69970,9.645,1.292,3.335,-0.241757,0.215628,0.896027,100530.62,-55,+44,-195
69980,9.777,0.033,3.391,-0.150234,0.244894,0.979036,100525.09,-55,+42,-196
69990,9.662,-0.372,3.692,-0.226857,0.262454,1.005641,100525.09,-55,+42,-196
70000,9.554,-0.453,3.754,-0.333812,0.256601,1.020008,100533.52,-55,+38,-197
70010,9.643,-0.251,3.656,-0.406711,0.253408,1.052467,100534.20,-56,+40,-193
70021,9.895,-0.318,3.833,-0.434912,0.265114,1.098228,100529.87,-57,+37,-193
70030,10.090,-0.659,3.724,-0.445022,0.265114,1.147715,100528.10,-57,+37,-193
70040,10.287,-0.902,3.680,-0.467371,0.275757,1.192412,100528.10,-56,+34,-193
70050,10.129,-1.280,3.938,-0.542931,0.273096,1.227531,100531.14,-58,+35,-190
70061,9.856,-1.145,4.184,-0.647756,0.249151,1.256265,100529.47,-58,+33,-190
70070,9.913,-0.706,4.245,-0.720123,0.215628,1.311072,100529.36,-58,+33,-190
70080,10.427,-0.392,4.316,-0.729701,0.183169,1.399402,100526.44,-58,+29,-190
70090,10.779,-0.311,4.219,-0.720655,0.168270,1.510081,100526.44,-59,+29,-188
70100,11.005,-0.326,3.865,-0.719059,0.175720,1.627678,100530.64,-59,+25,-187
70110,11.304,-0.519,3.876,-0.706820,0.159757,1.752191,100527.56,-59,+25,-187
70120,12.226,-0.950,3.690,-0.708949,0.126766,1.868723,100529.95,-57,+22,-188
70130,12.965,-1.177,3.596,-0.714270,0.077280,1.958118,100527.14,-60,+21,-185
70140,12.717,-0.804,3.609,-0.719591,0.020344,2.052301,100527.14,-59,+15,-186
70151,12.238,-0.039,3.627,-0.735022,-0.029674,2.175219,100529.79,-59,+15,-186
70160,12.264,0.017,3.913,-0.732894,-0.039252,2.309310,100530.37,-58,+11,-187
70166,12.622,0.006,3.839,-0.733426,-0.052555,2.414136,100528.07,-59,+8,-184
70175,13.094,0.034,4.079,-0.778123,-0.047766,2.505126,100528.07,-59,+8,-184
70185,13.491,0.134,4.271,-0.929774,-0.030739,2.603567,100529.63,-57,+1,-184
70196,14.245,0.409,4.260,-1.160178,-0.031803,2.682319,100529.63,-56,-1,-185
70205,15.982,1.114,4.768,-1.409737,-0.092463,2.764264,100528.36,-56,-5,-180
70215,18.591,2.809,5.508,-1.638545,-0.203142,2.823860,100527.47,-56,-5,-180
70225,20.281,4.653,5.602,-2.035498,-0.219106,2.810558,100526.22,-52,-9,-184
70236,21.175,7.352,5.857,-2.835259,-0.240390,2.680191,100526.22,-49,-13,-185
70245,21.071,12.436,5.496,-3.737718,-0.349472,2.534925,100526.22,-47,-13,-182
70255,20.172,14.439,4.058,-4.347516,-0.477711,2.455108,100530.92,-47,-13,-182
70265,19.215,10.706,2.855,-4.124029,-0.588922,2.459897,100528.63,-41,-15,-185
70276,17.601,2.634,2.822,-3.040654,-0.726738,2.669549,100526.75,-36,-17,-187
70285,15.816,-2.772,4.887,-1.636416,-0.874133,3.093640,100527.64,-32,-22,-184
70295,13.969,-2.984,5.577,-0.347646,-0.903931,3.362887,100527.64,-32,-22,-184
70305,12.870,-2.292,6.186,0.275986,-0.698536,3.265512,100526.37,-26,-30,-187
70316,12.650,0.130,7.498,0.688903,-0.513362,3.031383,100526.37,-18,-38,-186
70326,9.577,-0.826,7.094,1.427472,-0.521344,2.990411,100524.30,-13,-47,-182
70335,4.544,-3.216,5.506,1.806334,-0.436738,2.882392,100524.30,-13,-47,-182
70345,3.340,-3.695,3.883,1.810591,-0.253693,2.296007,100524.52,-5,-57,-183
70355,4.381,-3.137,3.173,1.734499,-0.224427,1.446760,100528.79,+0,-66,-182
70366,4.781,-1.079,3.369,1.407252,-0.282427,0.540577,100528.79,+1,-71,-179
70375,4.869,0.840,2.014,1.002848,-0.413858,-0.219807,100528.90,+1,-71,-179
70385,3.834,1.393,1.026,0.717637,-0.498463,-0.762027,100525.30,+6,-77,-180
70395,2.877,0.733,0.965,0.630903,-0.514959,-1.074376,100525.30,+8,-81,-180
70401,2.212,-0.318,0.956,0.666023,-0.561252,-1.284027,100532.69,+8,-81,-180
70411,1.520,-1.107,1.260,0.782023,-0.621381,-1.534119,100529.25,+8,-85,-179
70420,1.325,-1.224,1.459,0.942720,-0.669270,-1.927348,100524.34,+9,-93,-180
70430,2.380,-0.674,1.391,1.063509,-0.691619,-2.346118,100523.88,+6,-97,-179
70440,3.849,-0.333,1.221,1.226334,-0.711839,-2.752650,100523.88,+6,-97,-179
70451,4.998,-0.394,1.242,1.408316,-0.742169,-3.096393,100524.35,+1,-101,-176
70460,5.587,-0.745,1.332,1.579123,-0.787399,-3.373622,100530.49,-1,-107,-177
70470,5.589,-1.225,1.668,1.697251,-0.823582,-3.606686,100519.91,-9,-110,-174
70480,5.490,-1.845,2.101,1.763233,-0.835289,-3.809420,100523.20,-9,-110,-174
70491,5.508,-2.140,2.476,1.745673,-0.876793,-4.036631,100523.20,-20,-111,-171
70501,5.663,-1.923,2.863,1.712683,-0.910316,-4.315988,100523.95,-27,-115,-171
70510,6.244,-1.644,3.170,1.691930,-0.904463,-4.582575,100523.80,-41,-113,-167
70520,7.033,-1.301,3.583,1.753300,-0.873423,-4.812979,100521.70,-41,-113,-167
70531,7.884,-1.231,4.176,1.735563,-0.858701,-5.037529,100520.88,-55,-108,-166
70540,9.078,-2.071,4.351,1.641380,-0.883179,-5.278575,100520.88,-66,-106,-166
70550,10.072,-2.965,4.308,1.504628,-0.895949,-5.499400,100523.78,-81,-97,-164
70560,10.866,-3.594,4.242,1.312536,-0.879454,-5.709052,100523.11,-81,-97,-164
70571,11.393,-3.910,4.326,1.116720,-0.842738,-5.892629,100523.63,-95,-83,-162
70581,11.905,-3.956,4.641,0.971986,-0.812940,-6.047473,100521.28,-107,-73,-164
70590,12.695,-3.727,5.208,0.863435,-0.814004,-6.153895,100521.28,-118,-56,-165
70600,13.990,-3.829,5.827,0.737325,-0.825711,-6.212427,100524.42,-118,-56,-165
70610,15.459,-4.283,6.384,0.513839,-0.862426,-6.302886,100522.55,-128,-35,-164
70621,16.480,-5.159,6.993,0.187656,-0.870940,-6.405583,100524.95,-137,-21,-169
70630,16.922,-5.841,7.753,-0.205041,-0.803362,-6.455602,100522.44,-145,+5,-169
70640,16.433,-5.735,8.425,-0.553041,-0.638408,-6.380042,100522.44,-145,+5,-169
70650,14.988,-5.601,9.082,-0.744600,-0.323399,-6.147510,100522.34,-148,+31,-169
70661,14.419,-6.857,9.171,-0.879224,0.071959,-5.764391,100526.09,-152,+52,-171
70671,14.773,-9.349,8.074,-1.180398,0.417298,-5.284428,100522.49,-152,+81,-168
70680,14.818,-11.913,5.332,-1.560857,0.588637,-4.740079,100523.90,-152,+81,-168
70690,14.439,-13.656,3.743,-1.760930,0.597683,-4.113255,100523.90,-148,+103,-164
70701,12.637,-14.256,3.387,-1.704526,0.443371,-3.244851,100528.48,-147,+117,-162
70711,10.823,-14.651,3.618,-1.756141,0.283738,-2.154027,100533.28,-143,+132,-156
70720,10.059,-13.067,2.458,-1.655040,0.164546,-0.866853,100526.52,-143,+132,-156
70730,10.088,-10.437,1.621,-1.072380,0.174124,0.505458,100527.61,-142,+138,-154
70740,10.248,-9.573,2.335,-0.074674,0.308747,1.837329,100527.61,-150,+134,-151
70751,10.805,-8.284,4.569,0.895362,0.447096,2.911126,100528.73,-156,+130,-148
70756,12.251,-2.338,5.287,1.473765,0.373133,3.403860,100526.92,-156,+130,-148
70765,12.728,13.687,7.832,1.709490,0.126234,3.277750,100526.92,-162,+120,-149
70775,17.497,38.653,-3.999,0.962408,-0.594775,1.413237,100528.42,-167,+115,-151
70786,21.062,14.505,-11.214,-0.324234,-0.160573,0.234082,100531.03,-167,+115,-151
70796,18.420,-15.809,-0.169,1.119380,1.171829,1.978870,100531.03,-165,+120,-149
70806,18.927,-18.224,8.293,1.730242,0.934508,4.164245,100531.77,-171,+105,-147
70815,17.135,-1.552,-2.798,0.011528,-0.461748,3.945548,100533.05,-176,+89,-149
70825,13.293,0.269,0.487,-0.076803,0.378454,2.856319,100528.98,-176,+89,-149
70836,6.220,-0.949,7.535,0.931013,0.738692,2.789273,100528.98,-178,+86,-146
70845,1.318,-4.115,10.268,1.609985,0.853628,2.751493,100528.98,-181,+73,-144
70855,3.846,-5.569,10.238,1.787710,0.991444,2.483310,100527.89,-183,+60,-143
70865,11.042,-4.135,6.527,1.307747,0.859481,2.289090,100526.95,-183,+60,-143
70876,15.040,-4.213,3.639,0.984224,0.635995,2.250246,100532.42,-185,+58,-139
70886,12.967,-5.086,3.714,0.505326,0.458802,1.953329,100525.70,-187,+48,-138
70895,11.025,-5.176,3.709,-0.427995,0.323646,1.671311,100525.70,-189,+38,-136
70905,10.254,-3.600,3.514,-1.348013,0.204454,1.498375,100530.74,-189,+38,-136
70916,10.306,-2.638,2.660,-2.017407,0.053335,1.217953,100528.76,-187,+40,-135
70926,10.114,-2.136,1.103,-2.070086,-0.009986,0.958816,100529.01,-189,+34,-135
70936,9.845,0.144,0.817,-1.519352,0.135812,0.844944,100529.01,-190,+28,-134
70945,10.185,3.305,1.442,-0.866453,0.280013,0.891770,100530.23,-190,+28,-134
70956,10.136,3.278,2.711,-0.433848,0.408784,0.980632,100530.23,-189,+32,-132
70966,9.774,1.297,3.943,-0.085848,0.498178,1.020008,100527.95,-190,+25,-131
70976,9.177,0.116,4.483,0.149876,0.473169,0.999788,100529.72,-191,+18,-129
70985,8.632,-0.728,4.632,0.150940,0.409316,0.897091,100527.48,-191,+18,-129
70995,8.550,-1.875,4.913,-0.136399,0.326307,0.734265,100527.48,-189,+22,-128
71006,8.693,-2.426,5.165,-0.650417,0.220949,0.559733,100532.63,-190,+15,-128
71016,8.718,-0.937,5.237,-1.154325,0.123041,0.395311,100528.30,-191,+11,-127
71026,8.659,0.506,4.595,-1.465077,0.070894,0.244724,100528.62,-191,+11,-127
71035,8.865,1.895,3.805,-1.412398,0.081004,0.220779,100528.81,-190,+16,-127
71046,8.979,3.045,2.948,-1.053224,0.132619,0.316027,100531.42,-190,+13,-126
71056,8.981,3.369,2.504,-0.521114,0.212435,0.494284,100530.80,-191,+9,-125
71066,9.198,2.033,2.898,-0.071481,0.270968,0.682119,100529.03,-191,+9,-125
71075,9.340,0.123,3.932,0.086023,0.299702,0.777366,100529.03,-190,+11,-124
71086,9.018,-0.939,4.677,-0.099151,0.275757,0.763531,100526.78,-191,+5,-123
71096,8.478,-0.850,5.002,-0.442362,0.222546,0.693293,100526.78,-190,+1,-123
71106,8.249,0.119,4.871,-0.733426,0.176784,0.647531,100530.61,-190,+1,-123
71115,8.526,1.100,4.320,-0.768545,0.144325,0.682119,100532.86,-190,+4,-121
71126,9.176,0.962,3.616,-0.628068,0.137408,0.763531,100528.78,-191,-1,-122
71136,9.469,0.667,3.281,-0.461518,0.154436,0.856651,100529.25,-190,-5,-121
71146,9.439,0.361,3.304,-0.360949,0.182105,0.943384,100529.25,-190,-5,-121
71156,9.523,-0.021,3.539,-0.329555,0.211371,1.001917,100528.43,-190,-4,-119
71165,9.740,-0.424,3.738,-0.366270,0.226802,1.039696,100527.26,-191,-12,-120
71176,9.775,-0.549,3.897,-0.441298,0.219353,1.064173,100524.96,-190,-17,-118
71186,9.640,-0.332,4.217,-0.509408,0.210839,1.081201,100524.96,-190,-17,-116
71195,9.364,-0.139,4.324,-0.533353,0.215096,1.103549,100524.96,-190,-15,-116
71205,9.421,-0.273,4.295,-0.501426,0.231059,1.133880,100532.68,-189,-25,-117
71216,9.476,-0.788,4.187,-0.452472,0.241702,1.163678,100534.24,-189,-30,-117
71226,9.293,-1.006,4.269,-0.454068,0.251812,1.179109,100531.01,-188,-28,-114
71235,9.462,-1.103,4.075,-0.488123,0.241169,1.193476,100527.99,-188,-28,-114
71245,9.953,-0.883,3.912,-0.541334,0.223610,1.236045,100527.99,-187,-39,-115
71256,10.205,-0.645,4.082,-0.569536,0.212968,1.292981,100534.20,-186,-42,-115
71266,10.239,-0.691,4.112,-0.588692,0.208711,1.363751,100528.24,-185,-42,-114
71276,10.331,-0.520,3.851,-0.586032,0.192747,1.450485,100528.62,-185,-42,-114
71286,10.208,-0.574,3.990,-0.578582,0.167738,1.556907,100528.62,-184,-54,-115
71296,10.716,-0.691,3.656,-0.574857,0.121977,1.688870,100530.70,-182,-58,-115
71306,11.418,-0.750,3.609,-0.572197,0.089518,1.808063,100530.70,-181,-61,-113
71316,11.852,-0.862,3.413,-0.577518,0.050142,1.916081,100531.64,-181,-61,-113
71325,11.826,-0.830,3.554,-0.576986,0.002252,2.018778,100530.61,-178,-73,-115
71335,11.586,-0.883,3.786,-0.578582,-0.037656,2.133714,100528.73,-175,-79,-117
71347,11.532,-0.821,4.196,-0.638001,-0.067454,2.254148,100527.86,-173,-84,-117
71356,11.899,-0.819,4.437,-0.752050,-0.087142,2.342833,100527.86,-173,-84,-117
71366,12.616,-0.556,4.759,-0.919664,-0.131840,2.444998,100530.83,-168,-97,-119
71375,13.440,-0.190,4.601,-1.123994,-0.182922,2.541842,100529.42,-164,-104,-122
71386,14.631,-0.202,4.480,-1.377279,-0.221766,2.629108,100531.61,-161,-109,-124
71396,17.151,0.847,4.869,-1.673664,-0.351601,2.716906,100530.01,-161,-109,-124
71406,20.256,4.171,5.802,-1.956214,-0.516555,2.788741,100530.10,-152,-123,-131
71416,21.171,7.662,5.780,-2.293040,-0.570298,2.845145,100526.82,-147,-129,-137
71426,20.988,10.721,5.873,-2.843773,-0.568702,2.882925,100526.82,-142,-132,-143
71436,21.142,13.461,5.701,-3.335975,-0.582004,2.921768,100528.80,-142,-132,-143
71446,21.323,14.262,4.830,-3.706323,-0.586261,2.937732,100528.80,-133,-143,-154
71455,20.051,11.966,4.861,-3.502525,-0.616592,2.914851,100529.62,-126,-147,-164
71465,17.086,4.758,5.195,-2.321241,-0.791124,3.037236,100526.74,-121,-151,-171
71476,14.700,-0.809,5.816,-0.698307,-0.883711,3.417695,100525.23,-121,-151,-171
71486,12.842,-2.801,6.715,0.694225,-0.611803,3.760374,100524.91,-109,-165,-177
71496,12.640,-3.588,6.111,1.247619,-0.368628,3.734832,100524.91,-102,-174,-175
71506,13.672,-3.412,5.661,1.252408,-0.267527,3.483144,100529.17,-95,-184,-173
71516,12.392,-5.536,7.095,1.673839,-0.248372,3.209108,100527.80,-95,-184,-173
71526,7.092,-6.158,6.519,1.768022,-0.442592,2.848870,100526.16,-84,-198,-173
71536,3.260,-5.797,4.477,1.462059,-0.348408,2.111365,100526.16,-79,-201,-171
71545,3.821,-4.030,3.850,1.242830,-0.229216,1.267439,100526.16,-79,-204,-169
71556,3.979,-2.291,3.481,0.831509,-0.311693,0.446926,100527.50,-79,-204,-169
71566,3.549,-0.746,1.925,0.204151,-0.494206,-0.357624,100527.72,-75,-211,-172
71576,2.944,0.337,1.005,-0.315188,-0.593711,-1.041385,100529.33,-81,-208,-175
71581,2.579,0.554,1.117,-0.455665,-0.559124,-1.347880,100531.20,-81,-208,-175
71590,2.227,0.389,1.192,-0.367867,-0.582537,-1.531458,100531.20,-89,-205,-178
71601,1.298,-0.074,1.319,-0.133206,-0.663949,-1.827311,100530.05,-91,-208,-184
71611,0.643,-0.299,1.585,0.095601,-0.698004,-2.255127,100528.48,-104,-199,-186
71621,1.271,-0.054,1.393,0.362188,-0.674591,-2.674962,100527.13,-104,-199,-186
71630,2.644,0.152,1.293,0.619729,-0.631491,-3.065531,100524.42,-117,-194,-187
71641,4.039,-0.099,1.175,0.833105,-0.631491,-3.436411,100524.42,-128,-192,-190
71651,4.904,-0.653,1.101,0.998059,-0.672463,-3.749824,100530.17,-145,-177,-190
71661,5.274,-1.034,1.096,1.101821,-0.705454,-3.997255,100525.84,-145,-177,-190
71671,5.508,-1.137,1.172,1.144389,-0.728335,-4.230851,100526.05,-161,-164,-192
71681,5.576,-1.104,1.332,1.164078,-0.745894,-4.459126,100524.13,-177,-154,-193
71691,5.778,-1.069,1.632,1.250811,-0.728335,-4.685804,100524.13,-194,-129,-197
71701,6.150,-0.902,2.065,1.395723,-0.666610,-4.929333,100523.16,-194,-129,-197
71711,6.685,-0.870,2.575,1.526444,-0.609142,-5.119474,100525.97,-208,-104,-200
71720,7.433,-0.667,2.983,1.675435,-0.574023,-5.320079,100519.14,-220,-85,-203
71731,8.492,-0.670,3.134,1.769618,-0.546885,-5.516960,100525.03,-229,-46,-208
71741,9.566,-1.060,3.395,1.847306,-0.514426,-5.714905,100525.03,-229,-46,-208
71751,10.870,-1.573,3.757,1.841453,-0.502720,-5.951161,100526.23,-234,-15,-213
71760,12.307,-2.208,3.670,1.771215,-0.507509,-6.182097,100523.27,-236,+15,-219
71771,13.532,-2.738,3.737,1.766426,-0.458555,-6.338537,100522.73,-231,+62,-228
71781,14.318,-3.263,4.473,1.827618,-0.377674,-6.410904,100522.73,-231,+62,-228
71791,15.508,-3.970,5.663,1.845710,-0.374482,-6.439638,100522.73,-221,+99,-236
71801,17.931,-4.992,6.817,1.768022,-0.459087,-6.432721,100521.52,-208,+130,-243
71811,20.327,-6.534,7.562,1.547197,-0.599032,-6.397602,100522.25,-182,+174,-257
71821,21.053,-8.448,8.485,1.092243,-0.707582,-6.369400,100524.48,-182,+174,-257
71831,19.570,-9.365,9.517,0.471803,-0.711307,-6.258189,100523.03,-152,+204,-265
71841,16.194,-9.207,10.092,-0.155555,-0.552206,-5.966593,100523.03,-125,+229,-268
71851,13.606,-9.453,10.742,-0.652545,-0.163234,-5.480244,100529.19,-88,+256,-273
71861,12.942,-10.998,10.745,-0.982453,0.258197,-4.844373,100529.09,-88,+256,-273
71871,12.628,-13.331,7.988,-1.232013,0.484344,-4.134007,100525.81,-61,+272,-273
71881,13.240,-15.838,5.797,-1.362380,0.527977,-3.422044,100528.98,-41,+281,-267
71890,12.293,-16.868,4.576,-1.450178,0.387500,-2.503090,100528.98,-14,+295,-267
71901,10.347,-16.392,4.468,-1.798710,0.234252,-1.446853,100530.53,-14,+295,-267
71911,10.080,-14.424,3.818,-1.991333,0.128894,-0.226725,100529.38,-3,+299,-262
71921,10.297,-11.879,3.523,-1.667279,0.119848,0.977972,100532.81,-1,+301,-256
71931,10.157,-10.123,3.785,-0.879756,0.208179,2.021971,100529.06,+4,+307,-258
71941,11.481,-3.478,4.397,0.041326,0.286399,2.830246,100529.06,+4,+307,-258
71951,13.697,17.221,4.817,0.737325,-0.148867,2.906337,100531.05,-4,+301,-260
71961,18.668,42.862,-5.484,0.444665,-0.860830,1.072155,100530.01,-6,+295,-263
71971,20.446,17.821,-9.121,0.075913,-0.213784,0.291018,100531.15,+9,+299,-270
71981,15.603,-10.656,1.695,2.037270,1.212802,2.086356,100529.07,+0,+283,-277
71991,15.464,-17.099,7.667,2.993471,1.388930,4.253108,100529.07,+0,+283,-277
72001,15.285,-6.115,-0.640,1.511013,-0.027014,4.235015,100536.89,-13,+269,-282
72011,13.988,-3.026,1.588,0.751692,0.487536,2.954759,100533.81,-13,+266,-289
72020,9.269,-1.053,9.440,1.370004,0.832343,2.876007,100531.63,-24,+251,-289
72031,3.201,-1.827,10.264,1.502499,0.817444,2.915383,100530.73,-24,+251,-289
72041,4.794,-2.862,6.809,1.422151,0.831279,2.697218,100530.73,-32,+239,-291
72051,9.121,-3.792,5.026,1.211435,0.812123,2.496081,100528.05,-34,+236,-300
72056,10.913,-5.089,5.012,1.078940,0.771151,2.431163,100528.63,-34,+236,-300
72066,12.289,-5.815,4.012,0.742114,0.627481,2.324209,100528.63,-42,+225,-298
72076,13.246,-5.923,2.472,-0.035298,0.425279,2.031017,100529.36,-48,+219,-295
72086,12.386,-4.747,2.613,-0.816435,0.322050,1.759641,100524.56,-48,+219,-295
72096,10.803,-3.161,3.067,-1.446985,0.204986,1.557971,100524.56,-48,+223,-299
72107,9.777,-1.757,2.777,-1.850324,0.069298,1.357898,100533.29,-54,+221,-291
72116,9.175,-0.913,2.022,-1.930673,0.020344,1.201458,100534.27,-58,+223,-285
72126,9.189,0.360,1.816,-1.547554,0.133683,1.105678,100529.54,-58,+223,-285
72136,9.617,2.243,2.136,-0.781848,0.301830,1.040228,100529.54,-57,+229,-285
72145,9.890,3.053,2.572,-0.017738,0.443903,1.095568,100529.54,-62,+222,-280
72156,9.482,1.490,3.860,0.440940,0.514674,1.161017,100533.52,-67,+217,-280
72166,9.091,-0.844,4.462,0.579821,0.473169,1.122705,100529.88,-67,+217,-280
72176,9.207,-2.419,3.929,0.412738,0.391757,0.980632,100529.41,-67,+219,-283
72186,9.418,-2.796,3.829,-0.018803,0.333757,0.785880,100528.73,-72,+211,-280
72197,9.295,-2.331,4.371,-0.608380,0.250215,0.604431,100528.73,-74,+211,-278
72206,8.896,-0.968,4.574,-1.142086,0.166142,0.449055,100530.73,-73,+219,-279
72216,8.971,0.367,4.336,-1.473058,0.127830,0.347954,100532.28,-73,+219,-279
72226,9.195,1.432,3.816,-1.502857,0.123041,0.314431,100529.17,-76,+216,-271
72237,9.131,2.415,3.231,-1.232545,0.170399,0.377220,100529.17,-76,+219,-267
72246,9.033,2.986,2.745,-0.736619,0.245426,0.508651,100531.41,-76,+223,-269
72256,8.970,2.391,2.709,-0.174711,0.313536,0.686908,100531.41,-76,+223,-269
72266,9.009,0.532,3.592,0.217454,0.354509,0.842284,100532.39,-81,+215,-265
72276,9.131,-1.323,4.546,0.209473,0.336417,0.885917,100533.13,-84,+215,-264
72286,8.915,-2.134,4.963,-0.118839,0.281078,0.808761,100529.05,-83,+218,-269
72292,8.669,-1.733,4.974,-0.445022,0.230527,0.708192,100529.05,-83,+218,-269
72301,8.651,-0.844,4.846,-0.697775,0.183702,0.636357,100536.88,-88,+210,-262
72311,9.020,0.055,4.484,-0.846233,0.150179,0.610284,100532.82,-88,+210,-262
72322,9.355,0.544,3.826,-0.794619,0.151243,0.637421,100529.90,-88,+213,-259
72331,9.668,0.583,3.287,-0.642967,0.175188,0.706064,100529.54,-88,+217,-262
72341,9.845,0.284,3.249,-0.513133,0.198601,0.792797,100529.54,-92,+209,-256
72351,9.736,-0.182,3.483,-0.483866,0.219885,0.862504,100533.12,-92,+209,-256
72361,9.627,-0.492,3.894,-0.582307,0.231059,0.902412,100533.95,-93,+210,-255
72371,9.600,-0.090,4.097,-0.713738,0.226802,0.942320,100528.68,-94,+213,-256
72381,9.537,0.577,4.168,-0.755775,0.222013,1.001917,100530.62,-98,+205,-250
72391,9.578,0.527,4.224,-0.701499,0.228399,1.089182,100530.62,-98,+205,-250
72401,9.692,0.051,4.162,-0.623279,0.240637,1.192412,100530.82,-100,+206,-250
72411,9.974,-0.822,4.100,-0.597738,0.241169,1.268504,100532.18,-102,+207,-250
72421,10.476,-1.529,3.894,-0.669041,0.224674,1.307348,100530.51,-105,+196,-244
72431,10.719,-1.354,3.872,-0.785573,0.189555,1.341403,100529.37,-105,+196,-244
72441,10.575,-0.661,4.069,-0.867518,0.149647,1.400467,100529.37,-107,+200,-242
72452,10.590,-0.192,4.119,-0.860600,0.124637,1.504228,100532.02,-108,+199,-244
72461,11.056,-0.058,3.981,-0.799940,0.109738,1.646834,100529.31,-114,+187,-237
72471,11.444,-0.374,3.686,-0.737683,0.095371,1.783054,100531.23,-116,+187,-237
72481,11.917,-0.667,3.295,-0.691921,0.063977,1.930980,100527.89,-116,+188,-237
72492,12.259,-0.817,3.274,-0.672765,0.026729,2.064540,100527.89,-118,+184,-239
72501,12.541,-0.758,3.205,-0.650417,-0.001473,2.180007,100529.63,-121,+170,-234
72511,12.500,-0.630,3.510,-0.650949,-0.019032,2.289090,100531.92,-124,+169,-235
72521,12.434,-0.437,3.701,-0.672765,-0.037656,2.394980,100529.56,-124,+169,-235
72531,12.853,-0.002,3.921,-0.727573,-0.058408,2.499273,100526.39,-126,+163,-236
72541,13.506,0.379,4.142,-0.818564,-0.072775,2.605163,100526.39,-129,+146,-231
72551,14.248,1.092,4.480,-0.948398,-0.098317,2.707328,100530.65,-131,+145,-233
72561,15.398,2.327,5.618,-1.051628,-0.182390,2.819071,100534.55,-131,+145,-233
72571,17.278,3.283,6.403,-1.106435,-0.254225,2.930814,100528.62,-131,+136,-235
72582,19.843,3.876,6.814,-1.481572,-0.231876,2.952631,100528.66,-130,+120,-230
72591,22.547,5.389,7.541,-2.305810,-0.270720,2.802044,100528.66,-129,+120,-232
72601,23.213,10.211,7.405,-3.607351,-0.423436,2.527475,100527.81,-129,+120,-232
72611,20.808,13.332,7.640,-4.776928,-0.562316,2.259824,100528.17,-124,+118,-230
72622,19.009,11.332,6.505,-5.101515,-0.710775,2.196503,100525.36,-117,+111,-226
72631,17.712,5.331,5.317,-4.107534,-0.901270,2.464686,100524.67,-113,+116,-228
72641,16.895,0.860,5.849,-2.194599,-0.999711,3.047346,100524.67,-113,+116,-228
72651,16.544,0.906,6.284,-0.412032,-0.892224,3.682153,100529.56,-107,+106,-232
72662,14.041,0.007,5.856,0.561197,-0.756536,3.828484,100527.36,-99,+84,-236
72671,11.722,-0.130,5.299,1.101289,-0.503252,3.576796,100528.31,-95,+79,-242
72681,9.874,-1.631,4.950,1.375857,-0.310096,3.283071,100523.45,-95,+79,-242
72691,7.220,-3.921,6.148,1.713747,-0.175473,2.913787,100523.45,-86,+64,-246
72701,5.000,-5.091,4.330,1.630206,-0.133968,2.325806,100532.41,-77,+44,-246
72712,4.772,-4.418,3.980,1.347655,-0.054151,1.574467,100528.55,-72,+44,-250
72721,4.937,-1.633,2.972,1.167270,-0.058940,0.799183,100529.18,-72,+44,-250
72731,4.100,-0.020,1.235,0.763931,-0.210592,-0.022927,100523.51,-62,+37,-252
72741,3.102,0.414,0.666,0.292482,-0.255289,-0.832266,100523.51,-52,+31,-248
72752,3.030,0.363,0.182,0.012060,-0.323399,-1.294669,100533.45,-45,+40,-253
72761,2.556,0.044,0.014,0.061014,-0.436738,-1.595311,100528.92,-45,+40,-253
72771,1.401,-0.255,0.239,0.325472,-0.475050,-1.948632,100530.13,-36,+39,-252
72781,0.800,-0.211,0.532,0.594188,-0.454830,-2.354100,100526.53,-27,+36,-247
72792,1.517,-0.022,0.731,0.853857,-0.408537,-2.757439,100526.53,-21,+46,-251
72802,2.885,0.034,0.596,1.113527,-0.393638,-3.138429,100532.77,-21,+46,-251
72811,4.111,-0.126,0.423,1.304554,-0.419711,-3.498136,100526.88,-13,+44,-250
72821,4.867,-0.618,0.405,1.444499,-0.456959,-3.818998,100525.47,-5,+40,-245
72832,5.315,-0.959,0.538,1.479087,-0.502188,-4.094631,100522.91,+1,+50,-250
72841,5.666,-0.873,0.668,1.439710,-0.556995,-4.360685,100522.91,+1,+50,-250
72851,5.823,-0.743,0.949,1.430664,-0.565509,-4.612906,100526.69,+9,+48,-249
72861,6.135,-0.835,1.369,1.475362,-0.536775,-4.869915,100524.45,+14,+47,-245
72871,6.517,-1.145,1.768,1.513674,-0.514426,-5.117877,100527.64,+25,+55,-251
72882,7.202,-1.370,2.231,1.486891,-0.512298,-5.377725,100522.58,+25,+55,-251
72891,8.088,-1.484,2.409,1.426940,-0.501656,-5.613804,100522.58,+31,+52,-250
72901,9.195,-1.694,2.336,1.370004,-0.477179,-5.879327,100525.13,+36,+50,-245
72911,10.387,-2.044,2.328,1.298701,-0.435674,-6.156024,100522.88,+47,+57,-254
72922,11.754,-2.285,2.350,1.223674,-0.392573,-6.406115,100522.21,+47,+57,-254
72931,13.042,-2.500,2.356,1.215692,-0.356390,-6.592354,100523.10,+51,+52,-251
72941,14.230,-2.627,2.861,1.290187,-0.316482,-6.709950,100523.10,+53,+48,-247
72951,15.652,-2.810,3.738,1.399802,-0.325527,-6.784977,100523.38,+62,+49,-257
72962,17.674,-3.605,4.909,1.474830,-0.400555,-6.802005,100525.67,+60,+49,-257
72972,20.245,-5.125,5.925,1.459398,-0.546353,-6.782317,100526.34,+60,+43,-254
72981,22.173,-6.975,6.855,1.255068,-0.695344,-6.748262,100522.91,+58,+44,-251
72991,22.405,-7.903,7.838,0.948573,-0.758665,-6.607785,100522.91,+67,+42,-262
73001,19.478,-7.528,8.659,0.682518,-0.647454,-6.235308,100527.67,+60,+42,-258
73012,15.834,-7.944,9.548,0.579821,-0.278702,-5.645730,100525.31,+60,+42,-258
73021,15.064,-11.011,10.241,0.520225,0.198601,-4.880024,100530.38,+55,+45,-255
73031,14.149,-15.609,8.456,0.258959,0.412509,-4.091438,100526.05,+55,+44,-265
73041,14.267,-19.325,6.469,0.049308,0.424215,-3.287420,100526.05,+47,+47,-260
73052,12.450,-21.154,5.575,-0.356692,0.256601,-2.328558,100527.75,+47,+47,-260
73061,10.062,-21.362,5.774,-1.150068,0.073023,-1.171220,100532.61,+43,+53,-257
73071,9.804,-17.637,4.769,-1.679517,-0.102573,0.215458,100527.70,+45,+51,-265
73081,10.384,-12.693,5.037,-1.381536,-0.074372,1.546265,100528.38,+37,+54,-260
73092,11.037,-6.799,7.352,-0.462582,0.112399,2.594521,100528.38,+37,+54,-260
73102,12.055,7.400,10.322,0.477656,0.106546,3.090979,100528.30,+33,+51,-257
73111,17.498,39.863,-0.525,0.459032,-0.907123,1.908099,100528.70,+36,+42,-267
73121,21.982,21.161,-10.935,-0.652545,-0.356390,0.326137,100532.72,+27,+47,-261
73132,18.411,-8.045,-0.664,0.982628,1.134050,1.722925,100529.81,+27,+47,-261
73142,17.134,-17.606,9.775,2.031416,1.376160,4.065805,100529.81,+19,+42,-258
73151,15.051,-5.080,-0.014,0.789472,-0.236665,4.507988,100530.20,+19,+32,-268
73161,12.735,-0.880,0.760,0.340372,0.313004,3.333622,100533.70,+10,+30,-260
73171,8.942,-0.087,7.704,1.066701,0.728050,3.086723,100528.73,+10,+30,-260
73182,2.739,-1.986,9.457,1.645105,0.775408,3.127695,100523.69,+6,+26,-258
73191,2.684,-4.269,8.725,1.962242,0.895664,2.839823,100523.69,+6,+13,-267
73201,8.343,-4.266,6.079,1.763765,0.883426,2.562594,100528.68,-2,+9,-258
73211,12.693,-4.904,3.838,1.377986,0.774875,2.485439,100533.16,-2,+9,-258
73222,13.531,-5.563,3.046,0.896426,0.633866,2.285365,100530.35,-4,+4,-257
73232,12.438,-5.501,2.645,-0.012417,0.466784,1.960778,100530.66,-3,-2,-265
73237,11.471,-4.369,3.156,-0.646160,0.360362,1.833072,100530.66,-3,-2,-265
73246,10.313,-2.990,3.599,-1.100049,0.263518,1.716008,100530.66,-8,+0,-257
73256,9.668,-2.308,3.077,-1.513499,0.124105,1.451549,100532.19,-7,+2,-257
73267,9.562,-1.985,1.794,-1.524673,0.073023,1.274889,100530.61,-6,+0,-266
73277,9.553,0.019,1.508,-1.144747,0.161353,1.171127,100530.14,-6,+0,-266
73286,9.880,2.420,1.957,-0.621683,0.239041,1.115788,100530.09,-11,+2,-257
73296,9.919,1.965,2.559,-0.193335,0.328435,1.136540,100530.98,-10,+2,-257
73307,9.810,0.092,2.968,0.184463,0.394417,1.141861,100529.93,-9,-2,-264
73317,9.439,-0.823,2.898,0.386665,0.421023,1.086522,100529.93,-9,-2,-264
73326,9.346,-1.383,3.021,0.340904,0.429536,0.970522,100529.68,-15,-1,-255
73336,9.250,-2.158,3.533,0.068463,0.389096,0.826320,100526.34,-13,-2,-257
73347,9.334,-2.482,3.929,-0.362013,0.320454,0.674669,100526.34,-13,-6,-262
73357,9.407,-1.720,4.219,-0.822820,0.237977,0.520889,100534.54,-13,-6,-262
73366,9.178,-0.185,4.002,-1.135701,0.165610,0.398504,100533.23,-19,-1,-252
73376,8.985,1.229,3.385,-1.185187,0.152839,0.347422,100528.90,-16,+0,-256
73387,9.080,2.280,2.615,-0.969151,0.191151,0.393715,100528.27,-15,-1,-262
73397,9.127,2.770,2.281,-0.561022,0.272032,0.535788,100533.48,-15,-1,-262
73407,9.092,2.217,2.353,-0.105536,0.361958,0.705531,100532.23,-20,+1,-250
73416,9.274,0.600,3.073,0.190317,0.440178,0.835898,100530.88,-19,+0,-255
73426,9.274,-1.193,4.012,0.141362,0.447628,0.880063,100531.50,-19,-4,-258
73437,8.959,-1.966,4.678,-0.218344,0.380582,0.826852,100531.50,-19,-4,-258
73447,8.757,-1.194,4.824,-0.627536,0.304490,0.730541,100531.50,-24,-1,-249
73456,8.924,0.197,4.381,-0.832931,0.253408,0.676265,100535.81,-22,-1,-253
73466,9.273,0.942,3.806,-0.777591,0.245426,0.710320,100530.45,-21,-2,-257
73472,9.400,1.076,3.417,-0.661059,0.264582,0.774174,100532.42,-21,-2,-257
73482,9.501,0.858,3.443,-0.527499,0.291188,0.841752,100527.38,-27,-1,-247
73491,9.753,0.040,3.642,-0.418949,0.313536,0.919972,100527.38,-25,-1,-252
73501,10.023,-0.773,3.815,-0.442894,0.317793,0.966797,100532.59,-25,-1,-252
73511,10.021,-1.081,4.060,-0.598802,0.317793,0.968394,100527.69,-24,-4,-255
73522,9.990,-1.053,4.179,-0.761628,0.303426,0.963073,100530.23,-29,-3,-245
73532,10.068,-0.926,3.872,-0.877628,0.309812,0.977972,100528.47,-27,+0,-252
73541,10.412,-1.131,3.493,-0.953719,0.318325,1.012559,100528.47,-27,+0,-252
73551,10.252,-0.826,3.689,-1.023958,0.278417,1.054595,100532.04,-27,-3,-254
73562,9.620,0.057,4.125,-1.035664,0.242234,1.110999,100531.99,-32,-1,-245
73572,9.568,0.269,4.296,-0.941481,0.253408,1.195604,100531.62,-29,+0,-252
73582,10.145,-0.520,4.106,-0.851554,0.250215,1.284999,100531.15,-29,+0,-252
73591,10.508,-0.756,4.037,-0.854747,0.230527,1.369604,100531.15,-30,-3,-252
73602,10.439,-0.254,4.030,-0.897316,0.204454,1.456870,100534.45,-34,-1,-244
73612,10.776,0.227,3.932,-0.878160,0.168802,1.600540,100532.32,-32,-1,-250
73622,11.752,-0.243,3.718,-0.826545,0.157096,1.756980,100531.63,-32,-1,-250
73631,12.702,-0.751,3.038,-0.802068,0.140069,1.892136,100529.29,-33,-5,-252
73641,12.775,-0.678,2.579,-0.808986,0.109738,2.028356,100529.29,-37,-5,-242
73652,12.694,-0.261,2.460,-0.803132,0.068234,2.186393,100530.42,-34,-6,-251
73662,12.674,0.306,2.834,-0.764820,0.011298,2.365182,100530.52,-34,-6,-251
73671,12.923,0.699,3.247,-0.673830,-0.022225,2.551420,100530.89,-35,-11,-251
73681,13.255,0.888,3.800,-0.623279,-0.044041,2.722227,100529.95,-39,-12,-242
73692,13.501,0.992,4.280,-0.649885,-0.049362,2.869622,100529.95,-36,-13,-251
73702,14.348,1.306,4.502,-0.780252,-0.061069,3.004246,100529.98,-36,-13,-251
73711,16.208,2.003,5.237,-0.973407,-0.115344,3.109603,100529.40,-37,-19,-251
73721,18.670,3.155,6.219,-1.142618,-0.224959,3.194209,100527.84,-39,-21,-244
73732,20.627,4.479,6.374,-1.494875,-0.265399,3.217622,100527.63,-36,-21,-253
73742,22.398,6.173,7.064,-2.312196,-0.313821,3.074484,100527.63,-36,-21,-253
73752,23.237,11.151,7.502,-3.535516,-0.472390,2.775970,100529.52,-36,-21,-255
73761,21.764,13.782,7.473,-4.708818,-0.630958,2.476393,100527.95,-37,-15,-250
73772,19.820,11.136,6.064,-5.002010,-0.798573,2.411475,100527.95,-32,-5,-260
73782,18.439,4.580,4.662,-3.893626,-0.998114,2.710521,100526.08,-32,-5,-260
73792,17.692,1.137,5.263,-1.884911,-0.975233,3.294777,100526.08,-29,-5,-263
73801,15.936,1.164,6.286,-0.117775,-0.798041,3.833805,100529.04,-30,-11,-259
73811,12.726,-1.697,5.686,0.671876,-0.684169,3.817309,100529.20,-24,-17,-267
73822,11.177,-1.664,5.156,0.933674,-0.431417,3.510282,100526.74,-24,-17,-267
73832,10.234,-2.411,5.115,1.167802,-0.289344,3.097897,100528.21,-21,-31,-268
73841,7.120,-4.279,6.925,1.508885,-0.226023,2.667420,100528.21,-19,-41,-262
73851,4.178,-5.343,4.112,1.375325,-0.257950,2.228962,100527.49,-15,-49,-270
73862,3.789,-4.218,3.344,1.310408,-0.142482,1.524448,100527.40,-15,-49,-270
73872,4.320,-1.237,2.892,1.240169,-0.124922,0.652853,100525.15,-14,-62,-268
73882,4.106,0.439,1.342,0.904940,-0.275509,-0.308670,100526.71,-16,-66,-262
73891,3.650,0.915,0.480,0.528738,-0.299986,-1.095660,100526.71,-15,-68,-271
73902,3.534,0.705,0.392,0.376023,-0.333509,-1.440467,100532.74,-15,-68,-271
73912,2.486,0.007,0.524,0.545766,-0.427160,-1.677788,100531.02,-19,-73,-268
73922,1.074,-0.479,0.937,0.821399,-0.451105,-2.028981,100528.21,-23,-72,-263
73931,0.796,-0.397,1.275,1.061912,-0.432482,-2.461586,100527.84,-24,-71,-273
73942,1.932,0.177,1.257,1.301362,-0.415454,-2.903769,100527.84,-24,-71,-273
73952,3.682,0.381,0.924,1.530169,-0.450573,-3.340631,100528.73,-29,-71,-269
73962,5.028,0.076,0.809,1.698316,-0.536243,-3.750356,100525.34,-32,-68,-264
73972,5.709,-0.818,0.975,1.796756,-0.603821,-4.086649,100526.59,-32,-66,-273
73981,5.829,-1.608,1.127,1.780261,-0.683105,-4.350575,100521.06,-35,-66,-273
73992,5.877,-1.881,1.203,1.662132,-0.787931,-4.637383,100521.06,-35,-64,-268
74002,5.842,-1.857,1.479,1.570609,-0.832096,-4.926318,100524.48,-36,-58,-265
74012,6.033,-1.596,1.697,1.580187,-0.842206,-5.176410,100526.62,-34,-57,-273
74021,6.545,-1.174,2.031,1.614774,-0.804426,-5.415327,100522.29,-38,-56,-267
74032,7.525,-0.861,2.589,1.619031,-0.769839,-5.663822,100523.18,-38,-56,-267
74042,8.751,-1.169,2.735,1.605196,-0.778353,-5.914978,100523.18,-41,-51,-263
74052,9.852,-1.844,2.844,1.566885,-0.799637,-6.173584,100523.28,-45,-52,-270
74062,11.218,-2.840,2.749,1.403527,-0.831209,-6.476708,100525.38,-54,-45,-265
74072,12.628,-3.592,2.624,1.212499,-0.831564,-6.725381,100520.11,-54,-45,-265
74082,13.732,-3.704,2.998,1.155564,-0.749087,-6.899913,100523.03,-61,-34,-263
74092,14.573,-3.672,4.307,1.190683,-0.662885,-6.982922,100523.03,-69,-27,-270
74102,16.648,-4.329,5.700,1.291784,-0.646922,-7.004739,100523.37,-78,-10,-266
74112,19.806,-5.815,6.800,1.371600,-0.678316,-6.940353,100525.62,-78,-10,-266
74122,21.827,-7.785,7.887,1.347655,-0.684169,-6.747198,100524.63,-81,+7,-267
74132,21.973,-8.782,8.566,1.164610,-0.677252,-6.454005,100523.48,-83,+20,-276
74142,19.513,-8.385,8.675,0.793729,-0.661289,-6.074611,100523.48,-80,+41,-274
74151,16.188,-8.514,8.929,0.428702,-0.436738,-5.573895,100525.45,-80,+41,-274
74162,15.059,-10.761,9.785,0.143491,-0.066390,-4.975272,100527.59,-74,+58,-275
74172,13.896,-14.208,9.360,-0.169922,0.227867,-4.364410,100528.42,-72,+68,-281
74182,12.711,-17.002,8.108,-0.612105,0.361426,-3.815805,100526.19,-67,+84,-275
74191,12.558,-18.638,6.876,-1.171884,0.336949,-3.165035,100526.19,-67,+84,-275
74202,11.392,-18.214,5.768,-1.940251,0.167738,-2.289714,100527.95,-62,+95,-272
74212,10.780,-15.959,4.707,-2.488324,0.002252,-1.176541,100529.98,-62,+104,-277
74222,10.427,-12.727,4.506,-2.455865,-0.069583,0.040394,100527.11,-60,+114,-268
74232,9.999,-10.310,4.692,-1.852453,-0.024353,1.163678,100527.91,-60,+114,-268
74242,9.762,-8.702,5.033,-0.897316,0.143793,2.161916,100527.91,-62,+115,-266
74252,11.277,-0.986,5.573,0.125399,0.224142,2.874411,100530.43,-71,+108,-271
74262,13.883,22.256,5.146,0.808096,-0.224427,2.686044,100527.55,-72,+106,-265
74272,19.796,38.813,-9.138,-0.036894,-0.964591,0.556541,100531.57,-72,+106,-265
74281,20.600,9.895,-9.735,-0.177371,0.021940,0.318688,100532.26,-68,+109,-268
74292,17.159,-15.070,2.995,1.754187,1.349554,2.421585,100532.26,-75,+100,-271
74302,16.125,-12.806,7.223,2.258095,0.976013,4.288759,100530.17,-79,+89,-265
74312,15.174,-3.154,-1.247,0.689968,-0.091931,3.737493,100531.48,-79,+89,-265
74321,13.823,-4.069,3.358,0.382408,0.595022,2.758411,100532.47,-80,+79,-267
74332,8.349,-2.546,10.981,0.931013,0.877573,2.770649,100526.27,-86,+68,-269
74342,3.813,-0.692,10.879,1.233252,0.828619,2.813750,100526.27,-88,+64,-262
74352,5.385,-0.478,6.642,1.294976,0.752527,2.568448,100531.19,-88,+64,-262
74362,7.934,-2.317,5.150,1.301362,0.791903,2.329530,100524.00,-90,+53,-263
74372,9.474,-4.497,5.502,1.239637,0.680160,2.257695,100529.58,-95,+40,-264
74382,12.012,-5.757,3.176,0.566518,0.433793,2.107641,100528.64,-95,+40,-257
74392,13.894,-5.411,1.978,-0.375848,0.311940,1.862338,100528.64,-95,+40,-257
74402,12.882,-4.084,2.874,-1.250637,0.252876,1.633531,100530.16,-95,+36,-258
74412,10.907,-2.954,2.849,-2.054122,0.058124,1.355770,100528.07,-98,+33,-260
74418,9.553,-2.580,1.583,-2.393608,-0.067454,1.138137,100527.80,-98,+33,-260
74427,8.716,-1.317,0.589,-2.177040,-0.007858,0.972118,100527.80,-97,+40,-254
74437,9.005,2.457,1.269,-1.342160,0.220949,0.905073,100533.02,-97,+40,-256
74447,9.625,5.257,2.506,-0.495041,0.384839,1.029054,100533.02,-100,+34,-258
74458,9.463,3.508,3.712,0.053564,0.504032,1.159953,100530.92,-100,+34,-258
74467,9.358,0.887,3.980,0.364316,0.540747,1.201458,100531.03,-100,+36,-249
74477,9.219,-0.768,4.017,0.471271,0.491261,1.145586,100528.11,-101,+29,-253
74487,9.216,-1.915,3.984,0.267473,0.421555,0.989146,100528.11,-104,+24,-254
74497,9.078,-2.398,4.880,-0.234839,0.304490,0.827385,100528.11,-104,+24,-254
74507,8.777,-2.328,5.372,-0.910086,0.149114,0.637421,100529.59,-102,+28,-247
74517,8.657,-0.858,5.233,-1.468269,0.039500,0.455440,100532.05,-102,+26,-250
74527,8.704,0.849,4.134,-1.714104,-0.000941,0.333055,100529.33,-104,+28,-251
74536,8.820,2.600,3.086,-1.549682,0.045353,0.308578,100528.97,-104,+28,-251
74547,8.841,4.012,2.350,-1.024490,0.140069,0.432027,100528.97,-102,+34,-245
74557,8.825,4.228,2.192,-0.300289,0.259793,0.688504,100531.56,-104,+31,-249
74567,8.930,2.445,3.243,0.282904,0.344931,0.927953,100534.42,-105,+25,-248
74577,9.061,-0.015,4.374,0.465417,0.348656,1.030118,100532.08,-105,+25,-248
74588,8.837,-1.552,4.971,0.264280,0.301298,1.009366,100529.20,-104,+27,-242
74597,8.277,-1.514,5.294,-0.145445,0.236913,0.921568,100532.63,-105,+22,-247
74607,8.231,-0.440,4.733,-0.501426,0.174124,0.861440,100532.70,-106,+18,-247
74617,9.106,0.335,3.905,-0.594545,0.150179,0.865164,100532.70,-106,+18,-247
74627,10.084,0.581,2.836,-0.493977,0.145390,0.942852,100531.34,-106,+23,-240
74637,10.273,0.357,2.535,-0.368399,0.185298,1.035972,100531.13,-107,+17,-245
74647,9.971,-0.020,2.725,-0.295500,0.217224,1.095568,100531.13,-108,+13,-244
74652,9.775,-0.203,2.958,-0.273683,0.230527,1.132815,100532.54,-108,+13,-244
74662,9.713,-0.349,3.344,-0.266766,0.246491,1.173788,100529.15,-107,+15,-237
74672,9.711,-0.599,3.923,-0.300289,0.265646,1.217953,100529.15,-107,+9,-244
74682,9.945,-1.010,4.210,-0.380637,0.255536,1.233916,100528.16,-107,+9,-244
74692,10.023,-1.229,4.292,-0.481738,0.245958,1.246155,100528.16,-108,+6,-241
74702,9.934,-1.228,4.146,-0.582307,0.250747,1.257329,100532.80,-107,+8,-236
74712,9.960,-1.336,4.152,-0.665848,0.255536,1.273825,100527.84,-107,+3,-241
74722,10.186,-1.358,3.950,-0.754178,0.240105,1.292448,100529.50,-107,+3,-241
74732,10.582,-1.145,3.780,-0.847297,0.211371,1.311072,100527.69,-108,+1,-239
74742,10.874,-0.756,3.820,-0.900508,0.188491,1.360026,100527.69,-106,+2,-233
74753,10.818,-0.174,3.845,-0.911151,0.179445,1.453146,100531.38,-105,-3,-240
74762,11.013,0.111,4.006,-0.863793,0.160289,1.582448,100534.62,-105,-3,-240
74772,11.492,0.210,3.987,-0.787169,0.140069,1.746870,100530.80,-105,-6,-238
74782,12.030,-0.153,3.768,-0.714270,0.117188,1.887879,100529.13,-103,-5,-232
74792,12.072,-0.481,3.499,-0.691921,0.085261,2.025696,100529.13,-101,-13,-240
74802,11.955,-0.459,3.373,-0.712142,0.041096,2.163512,100531.14,-101,-13,-240
74812,12.214,-0.034,3.441,-0.712142,0.000656,2.321549,100532.39,-100,-18,-237
74822,12.481,0.441,3.715,-0.705756,-0.016904,2.492356,100529.53,-96,-19,-232
74832,12.674,0.681,3.993,-0.744068,-0.026482,2.653053,100530.63,-93,-29,-240
74842,12.927,1.140,4.494,-0.827609,-0.040317,2.807897,100530.63,-93,-29,-240
74852,14.263,1.138,4.611,-0.956912,-0.029142,2.947310,100530.84,-90,-33,-237
74862,16.188,0.671,4.685,-1.208600,-0.002005,3.032979,100532.71,-86,-35,-234
74872,18.344,0.883,5.390,-1.592783,-0.078096,3.046814,100530.62,-81,-43,-242
74883,20.425,2.807,5.992,-2.062104,-0.246243,3.007970,100526.66,-81,-43,-242
74892,22.216,6.039,6.170,-2.821957,-0.375546,2.875475,100526.66,-75,-47,-241
74902,22.889,10.800,6.781,-3.946837,-0.504848,2.622723,100529.47,-69,-42,-241
74912,21.374,13.769,5.685,-4.975405,-0.659692,2.405090,100530.88,-62,-41,-254
74923,19.515,12.252,4.847,-5.190909,-0.743234,2.324741,100531.39,-62,-41,-254
74932,17.876,5.449,3.787,-4.091039,-0.939050,2.532264,100527.53,-55,-37,-255
74942,16.943,-0.123,4.533,-2.132342,-1.016206,3.071823,100527.53,-49,-36,-256
74952,15.713,-0.999,6.099,-0.285390,-0.931068,3.672043,100530.63,-41,-48,-266
74962,13.668,-1.845,5.800,0.643674,-0.765050,3.795493,100530.98,-41,-48,-266
74972,12.738,-0.641,5.892,0.932610,-0.517619,3.514539,100528.33,-36,-62,-263
74982,11.308,-0.464,5.992,1.263050,-0.421307,3.171860,100527.19,-34,-71,-261
74992,7.135,-2.344,7.274,1.792499,-0.414922,2.887713,100527.19,-28,-89,-268
75002,3.798,-4.362,4.005,1.873380,-0.420243,2.369971,100531.73,-26,-102,-263
75008,3.649,-6.540,2.718,1.717472,-0.289876,1.821365,100529.13,-26,-102,-263
75017,4.172,-6.031,3.374,1.560499,-0.202078,1.234981,100529.13,-27,-108,-260
75027,4.474,-3.457,3.159,1.288059,-0.281362,0.429899,100529.59,-27,-108,-260
75037,3.936,-1.036,1.643,0.921968,-0.416518,-0.357624,100526.78,-27,-118,-266
75047,2.849,0.348,1.063,0.609619,-0.414390,-0.970614,100526.78,-31,-121,-261
75058,2.037,0.190,1.142,0.525546,-0.377674,-1.376614,100531.59,-36,-121,-260
75067,1.578,-1.001,1.233,0.569179,-0.398959,-1.696944,100528.80,-36,-121,-260
75077,0.877,-2.086,1.357,0.666023,-0.433014,-1.986944,100528.38,-37,-126,-267
75087,0.342,-2.223,1.494,0.799050,-0.426628,-2.253531,100528.38,-44,-126,-260
75098,0.789,-1.120,1.307,0.930481,-0.429821,-2.604723,100528.38,-52,-125,-260
75107,2.364,-0.081,1.034,1.081068,-0.440463,-3.027219,100530.97,-52,-125,-260
75117,3.687,0.186,0.877,1.295509,-0.474518,-3.433750,100526.38,-57,-129,-263
75127,4.424,-0.112,0.921,1.482279,-0.518151,-3.783346,100532.95,-68,-125,-255
75138,4.939,-0.530,1.034,1.610518,-0.571362,-4.074943,100528.09,-78,-120,-255
75148,5.134,-0.980,1.293,1.689270,-0.619784,-4.345254,100528.09,-78,-120,-255
75157,5.145,-1.497,1.607,1.688206,-0.632555,-4.587896,100526.56,-86,-119,-258
75167,5.364,-1.667,1.831,1.631270,-0.634683,-4.823089,100525.63,-99,-108,-250
75177,5.969,-1.644,1.993,1.561031,-0.630958,-5.068391,100521.61,-109,-97,-250
75188,6.978,-1.491,2.187,1.574866,-0.615527,-5.318483,100521.61,-109,-97,-250
75197,7.889,-1.201,2.602,1.617967,-0.599564,-5.561657,100523.83,-119,-89,-253
75207,8.733,-1.380,3.080,1.595618,-0.600628,-5.788868,100523.83,-128,-69,-247
75217,9.601,-1.916,3.344,1.498775,-0.645858,-6.016079,100523.56,-133,-50,-251
75228,11.064,-2.494,3.516,1.228995,-0.720353,-6.285859,100521.16,-140,-50,-251
75237,13.040,-3.374,3.407,0.928885,-0.766647,-6.578519,100523.41,-140,-34,-254
75247,14.146,-3.743,3.762,0.815013,-0.694812,-6.795619,100523.41,-140,-6,-253
75257,15.030,-3.905,5.238,0.730408,-0.587326,-6.935565,100526.28,-135,+15,-258
75268,17.004,-4.625,6.399,0.721894,-0.572959,-6.996757,100524.72,-133,+31,-262
75278,19.295,-5.727,7.138,0.855986,-0.593711,-6.908959,100524.83,-133,+31,-262
75287,20.536,-7.667,7.838,0.746371,-0.620848,-6.709418,100524.82,-125,+54,-259
75297,20.153,-8.673,8.547,0.343564,-0.568702,-6.490189,100527.95,-119,+69,-263
75308,18.152,-8.409,9.210,-0.089041,-0.356390,-6.150170,100524.40,-119,+83,-264
75318,16.361,-8.770,9.292,-0.466839,-0.033399,-5.647859,100525.49,-119,+83,-264
75327,15.586,-10.955,8.609,-0.692986,0.349720,-5.032740,100525.49,-113,+104,-259
