60058,9.502,-0.902,2.677,0.001013,-0.007914,0.006132,100119.90,-79,+23,-254
60068,9.516,-0.890,2.713,0.004737,-0.007914,0.009857,100118.95,-79,+23,-254
60079,9.516,-0.879,2.657,0.004737,-0.006850,0.010389,100117.63,-78,+23,-254
60088,9.489,-0.934,2.684,0.004737,-0.006850,0.009325,100117.63,-79,+23,-254
60099,9.513,-0.888,2.690,0.007930,-0.006850,0.007019,100124.75,-79,+22,-254
60108,9.509,-0.898,2.735,0.007930,-0.006317,0.006664,100120.47,-79,+22,-254
60119,9.466,-0.918,2.683,0.004205,-0.006850,0.008792,100120.52,-79,+23,-254
60129,9.467,-0.932,2.671,0.001545,-0.007382,0.006132,100120.67,-79,+23,-254
60138,9.479,-0.926,2.745,0.003141,-0.008446,0.007196,100120.67,-78,+22,-253
60148,9.526,-0.880,2.732,0.004205,-0.008978,0.005600,100120.53,-78,+22,-253
60158,9.534,-0.898,2.731,0.005802,-0.008978,0.005068,100118.48,-78,+23,-254
60169,9.489,-0.931,2.733,0.003141,-0.010042,0.004536,100119.75,-79,+23,-254
60178,9.489,-0.889,2.717,0.001013,-0.010042,0.005068,100119.38,-79,+23,-254
60188,9.525,-0.867,2.700,-0.000052,-0.011639,0.004003,100119.38,-79,+23,-254
60198,9.523,-0.888,2.756,0.001013,-0.011639,0.003471,100122.34,-79,+23,-254
60209,9.498,-0.909,2.737,0.002609,-0.011639,0.004003,100120.66,-79,+23,-254
60219,9.502,-0.927,2.718,0.001545,-0.011639,0.004536,100120.98,-79,+23,-254
60228,9.481,-0.925,2.684,-0.000052,-0.011639,0.003471,100119.57,-79,+23,-254
60238,9.487,-0.940,2.674,0.003141,-0.010042,0.001343,100119.57,-79,+23,-253
60249,9.499,-0.950,2.676,0.004737,-0.010042,-0.000253,100119.48,-79,+23,-254
60259,9.507,-0.922,2.677,0.004737,-0.009510,-0.002382,100120.57,-78,+22,-254
60268,9.502,-0.920,2.686,0.006334,-0.008446,-0.002914,100121.99,-79,+23,-253
60278,9.489,-0.916,2.708,0.005269,-0.010042,-0.004510,100119.79,-79,+23,-253
60289,9.472,-0.877,2.678,0.002077,-0.008978,-0.005575,100119.79,-79,+23,-254
60299,9.528,-0.889,2.657,-0.000584,-0.008446,-0.007171,100121.84,-79,+22,-254
60308,9.520,-0.906,2.678,-0.002712,-0.007914,-0.007703,100121.84,-79,+22,-254
60318,9.514,-0.896,2.686,-0.002180,-0.008978,-0.007703,100118.17,-79,+22,-254
60328,9.534,-0.895,2.666,-0.000584,-0.008978,-0.007703,100119.70,-78,+23,-255
60339,9.523,-0.916,2.678,-0.000584,-0.008978,-0.007703,100119.70,-78,+23,-254
60349,9.514,-0.882,2.666,-0.002180,-0.010042,-0.007703,100125.23,-78,+22,-254
60358,9.534,-0.842,2.672,-0.002712,-0.007914,-0.007703,100121.46,-78,+22,-254
60368,9.526,-0.904,2.674,-0.001648,-0.007382,-0.008235,100119.84,-79,+22,-254
60379,9.492,-0.896,2.651,-0.001648,-0.006317,-0.007171,100121.09,-79,+23,-254
60389,9.497,-0.889,2.688,-0.000584,-0.003657,-0.006639,100121.09,-79,+23,-254
60398,9.492,-0.898,2.658,0.000480,-0.002593,-0.007171,100120.22,-79,+23,-254
60408,9.479,-0.902,2.684,-0.000052,-0.001528,-0.007171,100120.38,-79,+24,-254
60419,9.484,-0.883,2.693,-0.000584,-0.000996,-0.008767,100121.69,-79,+23,-254
60429,9.490,-0.920,2.708,0.000480,0.000068,-0.007703,100121.17,-78,+24,-254
60438,9.442,-0.926,2.668,0.002077,0.001664,-0.008235,100121.17,-78,+24,-254
60448,9.462,-0.934,2.634,0.001545,0.002728,-0.009831,100122.48,-80,+23,-253
60459,9.529,-0.895,2.700,0.001545,0.002728,-0.009299,100119.92,-78,+23,-254
60469,9.492,-0.869,2.698,0.002609,0.004325,-0.009831,100118.61,-78,+23,-254
60479,9.504,-0.889,2.659,0.004737,0.004857,-0.010363,100119.41,-78,+23,-254
60488,9.515,-0.857,2.696,0.005269,0.004857,-0.009831,100119.41,-79,+22,-254
60498,9.527,-0.852,2.751,0.007930,0.005389,-0.007703,100125.27,-79,+24,-254
60509,9.519,-0.907,2.748,0.007398,0.004325,-0.009299,100121.80,-79,+22,-254
60519,9.497,-0.877,2.724,0.005269,0.003260,-0.008235,100121.02,-79,+22,-254
60528,9.527,-0.898,2.723,0.003673,0.002196,-0.010363,100120.39,-79,+23,-254
60538,9.448,-0.867,2.696,-0.000052,0.001132,-0.009299,100120.39,-79,+22,-254
60549,9.431,-0.859,2.711,-0.003244,0.000068,-0.007703,100121.55,-79,+23,-254
60559,9.497,-0.852,2.701,-0.004309,0.000600,-0.006639,100120.24,-79,+23,-254
60569,9.502,-0.864,2.682,-0.002003,0.000955,-0.007171,100118.77,-79,+23,-253
60578,9.497,-0.883,2.713,0.001013,0.001132,-0.007171,100122.70,-79,+24,-254
60589,9.493,-0.865,2.683,0.004737,0.003260,-0.003978,100122.70,-79,+24,-254
60599,9.519,-0.852,2.666,0.007930,0.003260,-0.003978,100123.05,-79,+24,-254
60609,9.529,-0.872,2.676,0.006334,0.001664,-0.003446,100120.48,-79,+24,-254
60618,9.523,-0.859,2.696,0.001013,0.002196,-0.003978,100120.54,-80,+24,-254
60628,9.491,-0.884,2.683,0.001013,0.004325,-0.005042,100119.38,-79,+22,-254
60639,9.505,-0.851,2.704,0.004205,0.003793,-0.005575,100119.38,-79,+22,-254
60649,9.499,-0.835,2.695,0.010058,0.004857,-0.003978,100123.62,-79,+23,-254
60658,9.511,-0.869,2.717,0.015380,0.006985,-0.005575,100120.16,-79,+24,-254
60668,9.487,-0.895,2.683,0.016444,0.006985,-0.005575,100120.90,-79,+23,-254
60679,9.419,-0.912,2.635,0.012187,0.007517,-0.007171,100119.27,-79,+23,-254
60689,9.448,-0.850,2.685,0.007930,0.008049,-0.008945,100119.27,-79,+24,-254
60699,9.497,-0.871,2.656,0.005269,0.009646,-0.008767,100123.09,-79,+24,-254
60708,9.521,-0.864,2.662,0.006334,0.011774,-0.006107,100122.46,-79,+24,-254
60719,9.499,-0.836,2.686,0.015912,0.012838,-0.005575,100120.41,-79,+24,-254
60729,9.478,-0.849,2.676,0.022297,0.013903,-0.002382,100119.95,-79,+24,-253
60739,9.452,-0.851,2.724,0.022829,0.017095,-0.001850,100119.95,-79,+24,-254
60748,9.466,-0.907,2.744,0.023361,0.016563,-0.000253,100122.76,-79,+24,-254
60759,9.499,-0.897,2.762,0.022829,0.016031,-0.000786,100121.87,-78,+24,-253
60769,9.493,-0.891,2.751,0.021765,0.016563,-0.002382,100120.55,-78,+24,-253
60779,9.480,-0.908,2.720,0.014315,0.016031,-0.006107,100119.87,-79,+23,-253
60788,9.513,-0.904,2.744,0.004205,0.013903,-0.008767,100119.87,-79,+24,-253
60798,9.528,-0.846,2.751,0.001013,0.011774,-0.009831,100123.21,-79,+22,-253
60809,9.495,-0.799,2.732,0.002077,0.011242,-0.011960,100119.13,-79,+22,-253
60819,9.492,-0.839,2.736,0.006866,0.011242,-0.011428,100120.34,-79,+23,-254
60828,9.496,-0.855,2.771,0.006866,0.010178,-0.009831,100121.12,-79,+23,-253
60838,9.484,-0.880,2.736,0.003141,0.009114,-0.010363,100121.12,-79,+24,-253
60849,9.471,-0.831,2.694,0.001013,0.007517,-0.011960,100122.73,-79,+24,-253
60859,9.517,-0.809,2.715,0.005269,0.006453,-0.009831,100117.49,-79,+23,-253
60869,9.507,-0.840,2.724,0.008994,0.005921,-0.007703,100123.82,-79,+24,-254
60878,9.468,-0.818,2.757,0.007398,0.004857,-0.007171,100119.43,-79,+24,-254
60889,9.510,-0.848,2.737,0.005802,0.003793,-0.008235,100119.43,-79,+24,-254
60899,9.510,-0.853,2.718,0.000480,0.000600,-0.009299,100122.49,-79,+24,-253
60909,9.505,-0.855,2.747,-0.003776,-0.000464,-0.010896,100121.40,-79,+24,-253
60918,9.545,-0.821,2.733,-0.000052,0.000600,-0.010896,100119.71,-79,+23,-253
60924,9.520,-0.815,2.707,0.004737,0.002728,-0.010363,100119.51,-79,+23,-253
60934,9.513,-0.851,2.726,0.005802,0.003260,-0.010363,100119.51,-79,+23,-253
60944,9.498,-0.855,2.731,0.004205,0.002728,-0.010896,100119.51,-79,+23,-253
60954,9.505,-0.801,2.674,0.001013,0.001664,-0.008767,100122.34,-79,+23,-253
60964,9.493,-0.795,2.719,0.004205,0.001664,-0.007171,100121.88,-79,+24,-253
60974,9.522,-0.740,2.730,0.010591,0.001132,-0.005575,100118.78,-79,+24,-253
60984,9.525,-0.784,2.763,0.015912,0.002728,-0.005042,100118.78,-79,+23,-254
60994,9.515,-0.829,2.684,0.018572,0.002728,-0.002382,100124.31,-79,+23,-254
61003,9.481,-0.788,2.681,0.018572,0.002728,0.000811,100124.31,-79,+23,-253
61014,9.519,-0.775,2.726,0.020701,0.001664,0.001875,100120.59,-79,+24,-254
61024,9.534,-0.792,2.664,0.020169,0.003793,0.006132,100120.70,-79,+23,-253
61034,9.523,-0.811,2.678,0.020701,0.007517,0.009325,100118.45,-79,+23,-253
61043,9.499,-0.791,2.705,0.022829,0.007517,0.011985,100118.45,-79,+22,-254
61054,9.493,-0.817,2.737,0.025490,0.008049,0.014114,100123.70,-80,+23,-253
61064,9.468,-0.828,2.778,0.028682,0.006453,0.015178,100119.92,-81,+24,-253
61074,9.467,-0.883,2.793,0.030279,0.003793,0.015710,100119.52,-81,+24,-253
61084,9.484,-0.874,2.730,0.022297,0.005921,0.015178,100119.55,-79,+23,-253
61094,9.456,-0.891,2.704,0.014315,0.009114,0.011985,100123.00,-79,+22,-253
61104,9.426,-0.916,2.732,0.008994,0.010710,0.007728,100122.53,-79,+22,-253
61114,9.430,-0.849,2.682,0.007930,0.015499,0.008260,100119.28,-79,+22,-253
61124,9.455,-0.867,2.631,0.019636,0.023481,0.005068,100119.28,-80,+22,-251
61133,9.497,-0.927,2.631,0.030279,0.028802,0.001343,100120.02,-80,+23,-252
61144,9.473,-0.942,2.659,0.032407,0.034655,-0.003978,100120.02,-80,+22,-253
61154,9.448,-0.927,2.706,0.035068,0.041040,-0.011960,100122.34,-80,+22,-253
61164,9.418,-1.024,2.674,0.031343,0.049554,-0.024198,100120.61,-80,+22,-253
61174,9.429,-1.044,2.699,0.019104,0.053811,-0.035905,100120.72,-80,+22,-253
61184,9.448,-0.964,2.717,0.011123,0.055939,-0.047079,100118.67,-81,+22,-252
61194,9.441,-0.909,2.826,0.011123,0.057536,-0.056125,100118.67,-81,+22,-252
61204,9.414,-0.886,2.850,0.014847,0.058600,-0.064107,100120.38,-81,+23,-253
61214,9.423,-0.806,2.814,0.016444,0.061260,-0.070492,100118.87,-79,+23,-252
61224,9.440,-0.813,2.799,0.014315,0.062857,-0.074749,100120.32,-81,+23,-253
61234,9.469,-0.734,2.639,0.008462,0.057536,-0.071556,100120.32,-81,+23,-253
61244,9.454,-0.585,2.777,0.034003,0.056471,-0.061446,100120.32,-81,+24,-252
61254,9.400,-0.496,2.884,0.054224,0.054343,-0.049208,100120.55,-81,+23,-253
61263,9.351,-0.567,2.812,0.072847,0.063921,-0.040694,100121.60,-81,+22,-252
61274,9.268,-0.744,2.838,0.077636,0.067114,-0.031648,100122.49,-81,+22,-252
61284,9.266,-0.773,2.727,0.071251,0.072435,-0.029519,100117.99,-81,+23,-252
61294,9.283,-0.774,2.614,0.076572,0.084673,-0.032180,100117.99,-81,+23,-251
61304,9.207,-0.852,2.486,0.087746,0.109682,-0.039630,100120.55,-81,+23,-251
61314,9.246,-1.084,2.282,0.092003,0.135756,-0.057189,100122.13,-81,+23,-251
61324,9.368,-1.206,2.202,0.090407,0.162893,-0.078474,100117.64,-81,+22,-251
61334,9.332,-1.186,2.387,0.094664,0.192692,-0.105611,100117.64,-81,+23,-250
61344,9.250,-1.038,2.562,0.106370,0.223022,-0.133813,100120.17,-82,+22,-250
61353,9.412,-1.110,2.767,0.112223,0.238453,-0.165207,100120.17,-82,+22,-250
61364,9.572,-1.235,2.914,0.084022,0.250159,-0.206712,100122.69,-83,+23,-249
61374,9.499,-1.104,3.047,0.027086,0.255481,-0.245024,100121.86,-83,+23,-249
61384,9.390,-0.822,3.289,-0.004309,0.247499,-0.266308,100120.28,-84,+24,-248
61394,9.556,-0.419,3.464,0.013606,0.228343,-0.285996,100123.20,-84,+25,-248
61404,9.483,-0.232,3.472,0.055820,0.218765,-0.289189,100123.20,-84,+25,-248
61414,9.387,-0.244,3.422,0.099985,0.208655,-0.278015,100119.53,-84,+26,-247
61424,9.503,-0.317,3.374,0.126590,0.192159,-0.264712,100120.11,-84,+25,-247
61434,9.618,-0.320,3.398,0.123930,0.165022,-0.248749,100120.80,-84,+26,-246
61445,9.746,-0.294,3.409,0.097324,0.136820,-0.235446,100121.38,-84,+26,-246
61454,9.595,-0.077,3.617,0.066462,0.103297,-0.213097,100118.71,-84,+26,-246
61464,9.369,0.129,3.734,0.049435,0.071371,-0.185960,100119.96,-85,+26,-246
61474,9.398,-0.031,3.768,0.023361,0.037316,-0.156694,100119.96,-84,+27,-246
61484,9.580,-0.127,3.734,-0.019208,-0.004189,-0.132217,100119.80,-84,+27,-246
61494,9.602,-0.010,3.678,-0.051134,-0.039308,-0.114125,100119.80,-85,+28,-246
61504,9.437,-0.084,3.622,-0.053263,-0.065914,-0.098694,100120.16,-84,+28,-246
61514,9.334,-0.248,3.492,-0.056987,-0.089327,-0.088584,100120.94,-84,+28,-246
61523,9.350,-0.272,3.510,-0.062309,-0.114868,-0.080602,100120.73,-84,+28,-246
61534,9.341,-0.320,3.416,-0.068162,-0.131895,-0.079538,100119.31,-84,+29,-247
61544,9.333,-0.427,3.327,-0.078272,-0.146262,-0.080070,100119.31,-83,+29,-247
61554,9.411,-0.558,3.132,-0.091042,-0.157969,-0.084859,100121.27,-84,+29,-248
61564,9.435,-0.564,3.107,-0.111795,-0.161694,-0.096033,100119.33,-84,+29,-248
61575,9.347,-0.398,2.927,-0.139997,-0.157437,-0.107740,100118.13,-83,+30,-248
61584,9.350,-0.465,2.753,-0.145850,-0.143602,-0.119978,100118.13,-83,+30,-248
61594,9.515,-0.584,2.744,-0.141061,-0.140409,-0.126896,100118.13,-82,+31,-249
61604,9.562,-0.563,2.804,-0.149042,-0.138281,-0.137538,100119.55,-82,+31,-249
61614,9.452,-0.519,2.893,-0.169263,-0.130299,-0.155629,100122.53,-82,+32,-247
61624,9.356,-0.537,2.838,-0.193740,-0.123914,-0.167336,100120.44,-83,+33,-249
61630,9.309,-0.434,2.798,-0.226198,-0.120721,-0.172125,100120.06,-83,+33,-249
61639,9.309,-0.248,2.840,-0.244822,-0.112739,-0.174785,100120.06,-81,+34,-249
61649,9.309,-0.144,2.748,-0.252272,-0.101033,-0.170529,100122.98,-82,+34,-249
61659,9.472,-0.341,2.710,-0.259189,-0.098905,-0.161483,100121.40,-82,+34,-249
61669,9.693,-0.493,2.557,-0.282602,-0.101033,-0.155097,100120.73,-82,+35,-249
61679,9.711,-0.490,2.596,-0.323042,-0.099437,-0.152437,100120.35,-81,+36,-250
61689,9.590,-0.283,2.783,-0.359226,-0.098372,-0.139134,100120.35,-81,+37,-250
61700,9.353,0.155,2.830,-0.364015,-0.094648,-0.120510,100124.23,-81,+38,-250
61709,9.180,0.318,2.899,-0.314529,-0.085602,-0.094969,100120.55,-81,+38,-250
61719,9.185,0.229,3.102,-0.246951,-0.083473,-0.056657,100118.46,-81,+39,-249
61729,9.291,0.116,3.106,-0.201721,-0.094648,-0.022602,100121.09,-79,+39,-249
61739,9.495,-0.130,2.994,-0.180437,-0.100501,-0.002382,100121.09,-80,+40,-251
61749,9.502,-0.274,2.918,-0.179373,-0.099969,0.008260,100122.62,-80,+40,-251
61759,9.338,-0.137,2.780,-0.188951,-0.098372,0.015710,100119.01,-79,+41,-250
61769,9.252,0.089,2.747,-0.155428,-0.089859,0.026352,100119.32,-80,+41,-250
61779,9.313,0.014,2.798,-0.087850,-0.081877,0.044444,100120.79,-79,+41,-251
61789,9.422,-0.065,2.865,-0.034639,-0.076024,0.062536,100120.79,-79,+41,-251
61799,9.504,-0.218,2.947,-0.010162,-0.078152,0.072646,100120.87,-79,+41,-251
61809,9.537,-0.382,3.000,-0.029850,-0.088794,0.081691,100121.55,-79,+40,-251
61819,9.317,-0.072,3.042,-0.072951,-0.103694,0.094462,100121.91,-79,+41,-252
61829,9.140,0.192,3.094,-0.088914,-0.111675,0.120003,100123.23,-79,+41,-252
61839,9.220,0.117,3.054,-0.072419,-0.120721,0.145545,100123.23,-78,+40,-251
61849,9.469,-0.054,2.991,-0.049006,-0.128703,0.171618,100123.30,-78,+39,-251
61859,9.605,-0.174,2.951,-0.036235,-0.134556,0.191838,100120.68,-77,+40,-251
61870,9.575,-0.187,3.000,-0.039428,-0.140409,0.208334,100121.30,-77,+40,-251
61879,9.367,-0.087,3.047,-0.060712,-0.152116,0.230150,100119.95,-78,+40,-252
61889,9.315,0.178,3.090,-0.066565,-0.172336,0.258352,100119.95,-78,+39,-253
61899,9.468,0.169,3.064,-0.048474,-0.188299,0.299856,100122.65,-77,+38,-253
61910,9.641,-0.053,2.970,-0.034639,-0.201602,0.335508,100121.55,-77,+38,-253
61919,9.690,-0.343,3.071,-0.038896,-0.219693,0.365838,100119.82,-77,+37,-253
61929,9.721,-0.354,3.064,-0.061776,-0.242574,0.392976,100121.34,-77,+37,-254
61939,9.720,-0.283,3.034,-0.095299,-0.266519,0.424902,100121.34,-76,+36,-254
61949,9.593,-0.087,3.016,-0.127226,-0.287271,0.465343,100120.97,-76,+36,-254
61960,9.521,0.083,3.002,-0.142125,-0.307492,0.521214,100123.59,-76,+36,-254
61969,9.477,0.465,3.075,-0.123501,-0.334629,0.599966,100121.77,-75,+34,-256
61979,9.578,0.823,3.348,-0.044749,-0.371877,0.700535,100120.23,-75,+32,-256
61989,9.799,1.007,3.586,0.059013,-0.410721,0.812278,100120.23,-75,+32,-256
62000,9.983,0.781,3.448,0.153728,-0.450097,0.928278,100120.82,-75,+31,-258
62009,10.325,0.302,3.089,0.177141,-0.487877,1.044278,100120.71,-74,+27,-258
62019,10.737,0.208,2.584,0.119141,-0.521400,1.159746,100120.13,-73,+24,-259
62029,10.978,0.402,2.068,0.029214,-0.541620,1.278938,100117.30,-73,+24,-259
62040,11.403,0.697,2.212,-0.023464,-0.557583,1.406645,100117.30,-72,+22,-260
62049,12.193,0.618,2.806,-0.032510,-0.577803,1.527966,100119.94,-72,+18,-261
62059,13.426,-0.391,3.044,-0.063905,-0.552794,1.612039,100121.72,-70,+15,-262
62069,15.441,-1.686,2.452,-0.224602,-0.493730,1.645562,100117.80,-70,+15,-262
62080,17.617,-1.598,1.461,-0.533226,-0.457547,1.645562,100121.52,-70,+12,-263
62089,18.491,-0.257,1.108,-0.864730,-0.446904,1.664186,100121.52,-69,+10,-265
62100,18.522,1.715,1.187,-0.997048,-0.450629,1.749146,100120.16,-68,+10,-266
62109,18.639,3.099,1.178,-0.919537,-0.422959,1.885011,100120.06,-68,+10,-266
62119,18.415,3.636,1.119,-0.688070,-0.387308,2.020167,100118.17,-68,+6,-264
62130,17.940,3.186,0.683,-0.550785,-0.435198,2.047305,100117.08,-68,+2,-266
62139,16.765,1.958,0.975,-0.458730,-0.489473,2.035066,100117.08,-66,+0,-265
62149,13.951,-1.410,1.533,-0.340602,-0.434134,2.011654,100122.48,-66,-3,-267
62159,12.195,-4.697,3.462,-0.199593,-0.299510,2.073910,100119.40,-66,-3,-267
62170,12.266,-4.710,4.328,-0.097960,-0.236189,1.989305,100120.49,-66,-8,-266
62179,11.458,-5.200,5.093,-0.158620,-0.153712,1.828608,100117.20,-65,-12,-266
62189,10.379,-9.249,5.708,-0.188951,-0.051015,1.790296,100117.20,-65,-14,-265
62199,11.032,-10.916,5.495,-0.213428,-0.065914,1.859470,100118.95,-65,-14,-265
62210,11.879,-9.421,3.989,-0.262914,-0.077088,1.860534,100120.15,-65,-20,-265
62220,10.607,-8.194,1.758,-0.199061,-0.043565,1.643434,100121.51,-65,-22,-265
62229,9.452,-9.506,1.948,-0.066565,0.051682,1.599268,100119.73,-65,-26,-263
62239,8.752,-8.171,2.530,0.066462,0.138948,1.526369,100119.73,-65,-26,-263
62249,7.850,-6.853,2.382,0.253233,0.216104,1.474223,100121.47,-65,-30,-263
62260,7.005,-6.309,1.493,0.446921,0.279958,1.428461,100121.73,-66,-34,-261
62269,6.115,-6.332,1.377,0.611342,0.362967,1.358755,100120.42,-66,-39,-260
62279,5.235,-5.807,1.637,0.669874,0.428948,1.209232,100120.58,-66,-39,-260
62289,3.996,-5.401,1.730,0.719361,0.453425,1.094296,100120.58,-66,-42,-258
62300,2.568,-5.608,1.448,0.720957,0.418306,1.033104,100120.30,-67,-47,-256
62309,1.904,-5.499,1.036,0.677856,0.364563,0.971379,100114.48,-68,-50,-254
62319,1.435,-5.101,0.707,0.608682,0.312416,0.901673,100118.36,-68,-50,-254
62329,1.136,-4.753,0.542,0.547489,0.265059,0.822388,100117.47,-68,-54,-253
62334,0.901,-4.669,0.478,0.507049,0.230471,0.769709,100117.47,-68,-57,-252
62345,0.459,-4.502,0.455,0.464480,0.195352,0.725012,100117.47,-68,-57,-252
62355,-0.098,-4.426,0.384,0.425104,0.151187,0.671269,100121.83,-68,-59,-251
62364,-0.474,-4.405,0.447,0.380939,0.111811,0.606352,100117.17,-68,-62,-250
62374,-0.711,-4.254,0.467,0.316554,0.076692,0.528664,100115.81,-67,-64,-250
62385,-0.853,-3.970,0.398,0.227691,0.042637,0.457361,100116.74,-67,-64,-250
62395,-0.810,-3.712,0.272,0.120737,0.004857,0.384462,100119.21,-68,-65,-250
62404,-0.778,-3.652,0.060,0.044113,-0.032391,0.320609,100117.01,-68,-66,-249
62414,-0.932,-3.613,-0.144,0.018572,-0.056868,0.263141,100117.01,-66,-66,-249
62425,-1.112,-3.546,-0.264,0.030811,-0.090923,0.225893,100118.16,-66,-66,-249
62435,-1.184,-3.576,-0.348,0.122334,-0.111675,0.195031,100114.91,-66,-68,-250
62444,-0.960,-3.645,-0.143,0.246847,-0.119125,0.148205,100114.91,-66,-68,-249
62454,-0.528,-3.733,0.127,0.360187,-0.130299,0.078499,100117.13,-66,-68,-250
62465,-0.013,-3.770,0.385,0.458627,-0.137749,0.006132,100117.48,-66,-68,-250
62475,0.631,-4.061,0.703,0.534719,-0.131363,-0.077941,100117.91,-65,-70,-249
62485,1.294,-4.235,0.874,0.556535,-0.125510,-0.161483,100116.75,-66,-71,-249
62494,1.994,-4.405,1.086,0.515031,-0.119657,-0.259391,100116.75,-66,-72,-249
62504,2.633,-4.562,1.078,0.419251,-0.128703,-0.364749,100118.31,-66,-72,-249
62515,3.295,-4.710,1.109,0.314425,-0.136152,-0.483409,100118.92,-66,-71,-250
62525,4.007,-4.776,1.169,0.211728,-0.139345,-0.599941,100117.30,-66,-69,-251
62534,4.761,-4.557,1.222,0.136701,-0.136684,-0.718069,100117.30,-66,-68,-251
62544,5.405,-4.347,1.334,0.103710,-0.141473,-0.843647,100117.30,-66,-68,-251
62555,6.011,-4.444,1.479,0.090407,-0.148923,-0.961244,100119.08,-66,-66,-251
62565,6.671,-4.612,1.779,0.063269,-0.165950,-1.080968,100121.39,-67,-64,-252
62574,7.304,-4.870,2.074,-0.011226,-0.196813,-1.231555,100117.25,-67,-61,-253
62584,7.805,-4.826,2.286,-0.134675,-0.223950,-1.400766,100118.72,-67,-61,-253
62595,8.272,-4.489,2.306,-0.251740,-0.260666,-1.545500,100118.72,-68,-57,-256
62605,8.854,-4.016,2.068,-0.313464,-0.289932,-1.640748,100121.09,-69,-53,-257
62615,9.271,-3.988,2.010,-0.254932,-0.259602,-1.721629,100117.27,-68,-48,-258
62624,9.777,-4.352,2.330,-0.191079,-0.210116,-1.806766,100117.16,-68,-48,-258
62635,10.355,-4.596,2.902,-0.143189,-0.181914,-1.884454,100117.16,-68,-44,-259
62645,11.010,-4.416,3.174,-0.096364,-0.183510,-1.959482,100121.29,-70,-38,-260
62654,11.864,-4.004,2.990,-0.028253,-0.169143,-2.007371,100121.29,-69,-33,-261
62664,12.486,-3.701,3.041,0.101049,-0.099969,-2.047280,100121.87,-69,-33,-261
62674,12.994,-3.671,3.369,0.223967,-0.034519,-2.089316,100122.02,-70,-29,-261
62685,13.310,-3.925,3.727,0.323471,0.008049,-2.126032,100119.73,-71,-25,-262
62694,13.402,-4.496,4.018,0.328260,0.050618,-2.168068,100119.73,-70,-20,-262
62705,12.976,-5.212,4.441,0.239930,0.106490,-2.199463,100120.47,-70,-20,-262
62714,12.928,-6.868,5.444,0.227159,0.223022,-2.141995,100119.58,-71,-16,-263
62725,13.431,-6.595,6.210,0.139361,0.277829,-2.060582,100117.84,-72,-11,-263
62735,13.408,-10.911,7.742,-0.010162,0.456618,-1.866362,100120.32,-73,-6,-263
62745,15.869,-7.137,4.875,-0.322510,0.409792,-1.677996,100120.16,-73,-6,-263
62754,16.293,-5.917,0.491,-0.859941,0.224086,-1.430565,100120.01,-74,-1,-263
62765,14.478,2.147,-0.259,-1.234014,0.183114,-1.484840,100120.01,-74,+4,-263
62775,13.313,5.658,-0.190,-1.092473,0.116068,-1.729610,100119.91,-73,+11,-263
62785,14.179,1.510,1.117,-0.671042,-0.096244,-1.663629,100122.10,-73,+11,-263
62794,21.434,0.752,3.714,-0.046345,-0.290464,-1.103849,100122.10,-72,+16,-263
62804,27.801,11.597,-0.568,0.168627,-0.326648,-0.574400,100117.84,-72,+17,-266
62815,20.565,7.163,-1.520,0.492682,0.325187,-0.584510,100120.66,-73,+17,-265
62825,9.213,-2.773,0.637,0.732663,0.672655,-0.401996,100118.93,-74,+16,-263
62834,3.454,-2.653,0.659,0.768315,0.497590,-0.084859,100120.77,-74,+16,-263
62844,3.917,-2.391,1.096,0.774168,0.371480,0.061471,100120.77,-75,+14,-263
62855,5.978,-3.416,2.451,0.573563,0.277829,0.029013,100121.36,-75,+12,-262
62865,8.682,-3.573,3.060,0.251636,0.219297,-0.005575,100120.52,-75,+12,-261
62875,10.428,-2.507,3.026,-0.079336,0.199077,0.007196,100120.16,-75,+12,-261
62884,10.219,-1.106,3.721,-0.196932,0.221958,0.007728,100120.16,-77,+12,-260
62895,9.845,0.051,4.099,-0.071886,0.268783,-0.011428,100120.16,-76,+12,-260
62905,9.745,-0.606,3.820,0.130847,0.311352,-0.000253,100121.69,-78,+12,-260
62914,9.706,-2.190,3.233,0.222902,0.320930,0.017306,100119.28,-78,+12,-260
62925,9.949,-2.134,2.211,0.137055,0.297872,0.030432,100117.95,-78,+12,-258
62935,10.100,-1.850,1.833,0.026022,0.291664,0.008260,100117.95,-79,+12,-258
62945,9.830,-1.690,1.684,-0.066033,0.299646,0.005068,100117.95,-79,+13,-258
62955,9.446,-0.997,2.268,-0.072951,0.300710,0.047104,100120.07,-79,+13,-258
62965,9.128,-0.521,2.786,0.084554,0.294857,0.091269,100123.16,-79,+12,-256
62974,9.149,-0.818,2.947,0.289416,0.303903,0.153526,100121.26,-81,+10,-256
62985,9.673,-1.550,3.255,0.425636,0.300710,0.205673,100121.26,-81,+9,-256
62995,10.116,-2.043,3.145,0.422976,0.278361,0.215251,100122.29,-81,+9,-256
63004,10.230,-2.337,3.100,0.292077,0.254948,0.199288,100122.29,-81,+7,-254
63014,10.064,-2.303,3.023,0.113820,0.210251,0.185985,100119.98,-83,+7,-254
63025,9.610,-1.440,3.142,-0.010694,0.171407,0.191838,100121.87,-83,+6,-254
63035,9.282,-1.010,3.157,-0.036767,0.154912,0.213123,100121.34,-83,+6,-254
63044,9.353,-1.224,2.966,0.010591,0.147462,0.248774,100121.34,-84,+6,-253
63054,9.594,-1.301,2.920,0.039324,0.144802,0.291875,100119.13,-83,+6,-253
63065,9.721,-1.564,3.126,0.014315,0.142673,0.326994,100122.58,-84,+4,-253
63075,9.599,-1.631,3.172,-0.059116,0.133627,0.354664,100119.17,-84,+4,-253
63085,9.425,-1.372,3.204,-0.171391,0.111811,0.397765,100121.41,-84,+4,-252
63095,9.204,-1.321,3.295,-0.254400,0.092123,0.441398,100120.20,-84,+4,-252
63105,9.054,-1.343,3.026,-0.300694,0.089994,0.487159,100117.73,-84,+3,-252
63115,9.206,-1.514,2.992,-0.318785,0.089994,0.534517,100118.58,-84,+3,-252
63125,9.377,-1.453,3.088,-0.293244,0.078820,0.575489,100118.58,-85,+3,-251
63134,9.505,-1.812,3.118,-0.235244,0.080416,0.603159,100122.50,-84,+1,-251
63144,9.584,-2.515,3.119,-0.217152,0.084673,0.609012,100122.50,-85,+0,-251
63155,9.509,-2.809,3.186,-0.295905,0.076160,0.599434,100125.14,-85,+0,-251
63160,9.398,-2.761,3.164,-0.378382,0.066582,0.587728,100121.78,-84,+0,-251
63170,9.328,-2.622,3.032,-0.452877,0.059132,0.574957,100122.09,-85,+0,-251
63179,9.364,-2.439,2.798,-0.513538,0.053279,0.573361,100118.33,-85,+0,-251
63190,9.533,-2.263,2.771,-0.522051,0.044233,0.590921,100118.33,-84,+0,-251
63200,9.564,-1.999,2.882,-0.485336,0.044765,0.622315,100124.49,-84,-1,-250
63210,9.577,-2.027,3.123,-0.402859,0.046361,0.659031,100123.24,-85,-2,-250
63219,9.558,-2.450,3.117,-0.320914,0.046893,0.687232,100118.99,-85,-2,-250
63229,9.560,-2.792,2.997,-0.302290,0.042105,0.714902,100119.84,-85,-4,-249
63240,9.407,-2.560,3.145,-0.302290,0.028270,0.736719,100119.84,-85,-4,-250
63250,9.143,-2.301,3.271,-0.249611,0.012306,0.770774,100123.72,-85,-5,-250
63260,9.260,-2.532,3.051,-0.185758,0.017095,0.816003,100119.59,-85,-5,-250
63269,9.343,-2.856,2.924,-0.152235,0.022949,0.857508,100120.48,-85,-8,-249
63280,9.453,-2.888,3.078,-0.158088,0.011774,0.904865,100120.17,-85,-10,-249
63290,9.827,-3.156,2.973,-0.145318,-0.010574,0.944241,100120.17,-84,-11,-250
63300,10.146,-3.349,2.556,-0.164474,-0.008978,0.973507,100122.24,-84,-11,-250
63309,10.331,-3.418,2.409,-0.209171,-0.003125,1.000113,100120.68,-84,-13,-249
63320,10.310,-3.342,2.452,-0.227795,0.001132,1.032572,100121.93,-84,-16,-249
63330,10.367,-3.428,2.494,-0.222474,0.010710,1.075140,100117.90,-83,-18,-249
63340,10.645,-3.649,2.605,-0.223006,0.003260,1.118773,100117.90,-83,-18,-249
63350,10.989,-3.603,2.642,-0.262382,-0.024409,1.156553,100119.84,-84,-20,-249
63360,11.150,-3.604,2.956,-0.308143,-0.055804,1.191140,100121.71,-83,-22,-249
63370,11.278,-3.370,3.306,-0.333152,-0.077620,1.229984,100121.82,-81,-24,-249
63380,11.528,-3.604,3.457,-0.371996,-0.090923,1.266168,100118.21,-81,-24,-249
63390,11.752,-3.800,3.464,-0.464583,-0.107950,1.295966,100118.21,-82,-26,-249
63395,11.825,-3.582,3.437,-0.558235,-0.129235,1.324168,100121.70,-81,-29,-249
63405,12.037,-3.715,3.231,-0.630602,-0.140409,1.346516,100121.70,-81,-29,-249
63415,12.183,-3.631,2.925,-0.727978,-0.167015,1.390681,100120.13,-80,-30,-250
63425,12.293,-3.247,2.638,-0.788106,-0.197345,1.447617,100121.91,-79,-33,-250
63435,12.230,-2.798,2.433,-0.795556,-0.225547,1.512002,100119.34,-78,-34,-251
63446,12.322,-2.719,2.537,-0.784914,-0.253216,1.602461,100125.18,-78,-34,-251
63455,12.521,-2.203,2.629,-0.815776,-0.273437,1.695048,100122.15,-77,-37,-250
63465,12.832,-2.012,2.365,-0.834932,-0.310152,1.769011,100118.12,-75,-39,-252
63475,13.531,-1.219,2.092,-0.801409,-0.409125,1.853617,100118.12,-73,-42,-252
63484,14.343,-0.254,2.471,-0.631666,-0.515547,1.933433,100118.90,-73,-42,-252
63495,14.293,0.275,2.651,-0.490125,-0.495326,1.968021,100118.90,-70,-45,-253
63505,14.278,0.870,2.888,-0.472565,-0.455950,1.985580,100124.52,-70,-48,-254
63515,14.029,1.835,3.411,-0.528969,-0.467657,2.031342,100121.89,-66,-51,-254
63524,13.808,2.852,3.609,-0.680088,-0.447969,2.052626,100120.59,-66,-51,-254
63535,14.062,3.550,3.595,-0.940822,-0.415510,2.052094,100118.50,-64,-55,-255
63545,15.024,4.366,3.822,-1.255298,-0.421895,2.062736,100118.50,-61,-56,-256
63555,15.972,3.090,3.877,-1.483574,-0.429877,2.104241,100120.30,-58,-56,-257
63565,15.890,-0.914,3.793,-1.455904,-0.419235,2.297929,100119.72,-58,-56,-257
63575,16.505,-4.885,4.035,-1.033409,-0.393693,2.750754,100120.36,-56,-58,-258
63585,18.528,-4.916,4.241,-0.593886,-0.421363,3.181763,100120.36,-52,-63,-258
63595,18.979,-4.408,5.386,-0.465648,-0.448501,3.294038,100120.36,-49,-68,-259
63605,17.041,-3.380,7.232,-0.447024,-0.303767,3.151433,100121.77,-49,-68,-259
63614,14.221,-0.081,7.554,-0.441703,-0.064850,2.875268,100120.93,-45,-72,-259
63625,11.278,3.258,5.617,-0.352840,0.018160,2.541103,100119.99,-43,-76,-258
63631,9.436,1.951,4.498,-0.101685,0.004857,2.292608,100121.46,-43,-76,-258
63640,8.805,-1.157,4.611,0.193104,-0.008978,2.164369,100121.46,-39,-80,-257
63650,9.097,-0.839,3.716,0.438407,-0.097308,2.034002,100118.04,-37,-84,-256
63660,9.364,-0.724,3.100,0.460223,-0.138813,1.765287,100117.46,-36,-88,-255
63670,7.996,0.174,1.644,0.480976,-0.145198,1.253929,100116.99,-36,-88,-255
63680,6.588,1.668,1.024,0.216517,-0.189363,0.627104,100117.82,-34,-90,-254
63690,5.629,1.017,0.993,0.068590,-0.156372,-0.002382,100117.82,-33,-90,-254
63699,4.877,1.149,0.263,-0.006969,-0.169143,-0.510547,100121.31,-34,-88,-254
63710,4.276,0.779,-0.087,-0.054859,-0.214905,-0.935170,100119.89,-34,-88,-254
63720,3.515,0.519,0.126,0.074976,-0.211180,-1.323610,100118.64,-34,-86,-254
63730,3.294,0.971,0.419,0.354333,-0.192556,-1.692895,100118.38,-35,-84,-253
63739,3.631,1.298,0.391,0.737985,-0.219161,-2.048876,100118.38,-37,-80,-253
63750,4.031,1.140,0.439,1.191874,-0.239382,-2.346857,100121.16,-37,-80,-253
63760,4.671,1.070,0.708,1.621819,-0.239914,-2.631536,100115.40,-39,-78,-251
63770,5.451,0.758,0.953,1.897984,-0.294721,-2.946013,100114.68,-42,-78,-250
63780,6.115,0.144,1.198,2.032076,-0.361235,-3.284967,100113.21,-45,-76,-248
63790,6.762,-0.317,1.460,2.037929,-0.426152,-3.623921,100113.21,-45,-76,-248
63800,7.225,-0.836,1.729,1.972479,-0.487345,-3.949040,100112.41,-48,-72,-248
63810,7.505,-1.446,1.766,1.829874,-0.566629,-4.271498,100110.31,-52,-68,-246
63820,8.046,-1.945,1.602,1.640975,-0.644317,-4.593425,100110.27,-55,-63,-246
63830,8.718,-2.183,1.476,1.407379,-0.709234,-4.895131,100109.33,-55,-63,-246
63840,9.605,-2.115,1.278,1.144516,-0.767234,-5.144691,100109.33,-58,-55,-247
63850,10.547,-2.030,0.917,0.956150,-0.801289,-5.377755,100108.34,-61,-46,-249
63860,11.459,-1.993,0.799,0.841214,-0.805014,-5.592727,100109.88,-63,-36,-251
63870,12.684,-2.216,0.981,0.653379,-0.847583,-5.764066,100108.88,-63,-36,-251
63880,13.731,-2.772,1.502,0.363911,-0.892812,-5.884855,100113.17,-65,-24,-254
63890,14.380,-3.194,2.314,0.076572,-0.881638,-6.013626,100113.17,-66,-10,-256
63900,14.842,-3.788,3.356,-0.099024,-0.811932,-6.160488,100113.38,-66,+4,-260
63910,15.176,-4.608,4.206,-0.166602,-0.719345,-6.281277,100112.59,-66,+4,-260
63920,16.121,-4.638,4.475,-0.069226,-0.588978,-6.362689,100112.38,-65,+19,-263
63930,17.084,-4.682,4.256,0.237269,-0.402207,-6.410048,100113.59,-64,+33,-266
63940,17.670,-5.892,4.098,0.654975,-0.186703,-6.389827,100113.59,-63,+46,-269
63950,18.157,-7.807,4.469,0.914113,-0.060061,-6.227002,100116.58,-63,+46,-269
63960,18.515,-8.775,4.552,0.919434,-0.062189,-5.937534,100115.91,-61,+59,-271
63970,18.888,-9.003,4.719,0.843874,-0.039840,-5.629974,100111.34,-57,+70,-273
63980,18.856,-10.458,5.067,0.708186,0.000600,-5.311773,100114.17,-53,+80,-277
63990,18.481,-12.875,5.214,0.492150,0.057004,-4.912158,100114.17,-50,+80,-277
64001,17.060,-14.582,4.794,0.128187,0.104893,-4.507755,100118.54,-50,+90,-278
64010,15.651,-16.454,4.939,-0.192143,0.188967,-4.039498,100115.29,-46,+99,-279
64020,14.184,-17.451,4.596,-0.517262,0.211848,-3.357334,100118.01,-43,+107,-280
64030,12.368,-17.634,3.653,-0.644969,0.228343,-2.438380,100114.51,-43,+113,-279
64040,11.739,-18.359,3.227,-0.466712,0.258673,-1.380014,100114.51,-43,+113,-279
64050,11.035,-19.044,3.588,-0.192675,0.273040,-0.316327,100120.63,-44,+116,-278
64060,10.685,-18.791,3.842,0.020169,0.271976,0.664884,100121.34,-46,+114,-278
64070,10.634,-17.278,3.682,0.206407,0.282618,1.501360,100117.22,-50,+110,-278
64080,11.016,-15.377,4.950,0.378278,0.326251,2.227690,100115.17,-50,+110,-278
64090,11.621,-3.036,9.429,0.442132,0.383719,2.661892,100115.17,-56,+103,-278
64100,12.176,36.797,8.860,0.104242,0.364031,1.904699,100116.30,-60,+98,-277
64110,21.349,30.261,-13.345,-1.651188,-0.740629,0.169490,100122.76,-59,+102,-278
64120,21.594,-19.413,-10.327,-0.699776,-0.657088,1.992498,100123.16,-59,+102,-278
64131,26.770,-20.379,4.534,1.987378,0.802489,3.357359,100121.02,-65,+94,-278
64140,21.293,-4.030,2.361,0.917838,0.505040,3.668643,100121.02,-70,+82,-277
64150,9.416,0.102,0.081,0.032939,0.495994,3.071084,100120.98,-76,+74,-275
64160,5.816,-4.655,0.731,-0.023997,0.595499,2.838552,100120.83,-76,+74,-275
64171,6.527,-5.054,4.193,-0.208107,0.564104,2.445323,100121.92,-80,+69,-273
64180,7.317,-2.679,9.315,-0.035703,0.673187,2.121800,100119.98,-83,+64,-271
64190,9.520,-3.125,8.118,0.271324,0.593902,1.896718,100119.98,-86,+58,-271
64200,12.872,-1.220,2.662,0.300590,0.299646,1.919599,100118.45,-86,+58,-271
64210,12.608,-1.100,1.219,0.565049,0.320930,1.983984,100121.64,-90,+52,-270
64221,10.810,-2.264,2.824,0.625532,0.410679,1.849537,100121.48,-92,+46,-269
64230,10.950,-2.780,3.530,0.107435,0.265591,1.789764,100119.44,-93,+41,-268
64240,9.514,-2.609,3.492,-0.514602,0.125114,1.638645,100119.44,-93,+41,-268
64250,8.618,-2.082,2.127,-0.821629,-0.010574,1.407177,100122.27,-95,+38,-267
64261,9.764,-0.895,1.042,-0.709354,-0.024409,1.177837,100120.07,-95,+37,-266
64270,10.517,0.119,1.193,-0.569941,0.055407,1.054920,100121.38,-95,+36,-267
64280,10.240,-0.269,1.888,-0.449684,0.148526,0.927746,100120.18,-95,+36,-267
64290,9.777,-0.763,2.124,-0.358162,0.184710,0.829838,100120.18,-97,+35,-266
64301,9.540,-0.743,1.691,-0.241629,0.217169,0.749489,100125.77,-97,+33,-266
64310,9.565,-0.393,1.747,-0.111263,0.259737,0.694150,100123.37,-98,+32,-265
64320,9.588,-0.545,2.221,-0.041024,0.287939,0.654774,100123.43,-98,+32,-265
64330,9.417,-0.688,2.888,-0.102217,0.279958,0.622847,100118.40,-99,+30,-265
64340,8.965,-0.496,3.423,-0.241097,0.250692,0.578150,100118.40,-100,+28,-264
64351,8.622,-0.078,3.678,-0.392217,0.204930,0.547288,100123.77,-101,+28,-263
64360,8.557,0.374,3.690,-0.484804,0.171407,0.538242,100122.14,-101,+28,-263
64370,8.700,0.902,3.324,-0.477354,0.157572,0.545691,100121.56,-102,+28,-262
64380,8.870,1.298,3.036,-0.331024,0.177792,0.588792,100117.53,-102,+27,-261
64391,8.952,1.352,2.736,-0.089978,0.211848,0.665416,100117.53,-102,+25,-261
64400,8.939,1.067,2.590,0.159581,0.257077,0.755875,100122.55,-102,+25,-261
64410,9.036,0.064,2.633,0.322939,0.292728,0.835691,100122.55,-103,+22,-260
64420,9.332,-1.062,2.816,0.333581,0.286875,0.896352,100119.94,-105,+20,-259
64431,9.776,-1.626,2.714,0.200022,0.248031,0.940517,100122.19,-105,+16,-258
64440,10.104,-1.522,2.281,0.009526,0.210251,0.961269,100122.19,-105,+16,-258
64450,10.160,-1.522,1.839,-0.161813,0.198545,0.967122,100123.80,-106,+14,-257
64456,10.274,-1.310,1.627,-0.260253,0.199609,0.987874,100123.54,-107,+12,-257
64465,10.372,-1.164,1.696,-0.308143,0.210251,1.017140,100123.54,-107,+12,-257
64476,10.327,-0.886,1.790,-0.338473,0.225682,1.057049,100117.73,-108,+9,-256
64486,10.149,-0.869,2.150,-0.333684,0.254416,1.096425,100118.99,-108,+6,-256
64495,9.930,-0.918,2.517,-0.303354,0.269315,1.140590,100118.99,-110,+4,-254
64505,9.764,-1.246,2.903,-0.263978,0.264526,1.193801,100121.30,-110,+4,-254
64516,9.775,-1.437,3.161,-0.285262,0.242710,1.239562,100116.96,-110,+0,-254
64526,9.717,-1.472,3.431,-0.358162,0.231536,1.269360,100121.46,-111,+0,-254
64535,9.723,-1.836,3.589,-0.431593,0.216104,1.290645,100121.46,-111,-4,-253
64545,9.823,-2.032,3.275,-0.495978,0.192159,1.310333,100121.46,-111,-4,-253
64556,9.934,-2.046,3.263,-0.545464,0.182581,1.333746,100124.55,-112,-7,-252
64566,10.025,-2.116,3.418,-0.556106,0.168747,1.361415,100122.61,-111,-9,-252
64575,10.154,-2.530,3.635,-0.548125,0.168747,1.372590,100122.77,-111,-12,-251
64585,10.619,-2.926,3.224,-0.583776,0.179389,1.377911,100118.27,-111,-12,-251
64595,10.961,-3.153,2.791,-0.642840,0.173536,1.385892,100118.27,-112,-14,-251
64606,11.109,-2.791,2.431,-0.720528,0.159701,1.409305,100120.86,-113,-16,-250
64616,11.141,-2.467,2.432,-0.738088,0.153315,1.449214,100120.66,-112,-19,-249
64625,11.503,-2.694,2.681,-0.715207,0.158637,1.520516,100120.66,-112,-19,-249
64635,12.097,-2.615,2.420,-0.730106,0.142141,1.598736,100120.66,-112,-22,-249
64646,12.305,-2.796,2.422,-0.779592,0.114471,1.678553,100122.06,-113,-25,-248
64655,12.116,-2.256,2.341,-0.860473,0.091059,1.763690,100122.06,-112,-28,-249
64665,12.232,-2.011,2.196,-0.888675,0.062857,1.880754,100122.38,-111,-28,-249
64675,12.536,-1.815,2.040,-0.861537,0.030930,2.023360,100121.89,-111,-31,-248
64686,12.936,-1.659,2.182,-0.819501,-0.005253,2.184057,100120.48,-111,-36,-248
64691,13.286,-1.557,2.379,-0.780657,-0.034519,2.304314,100120.48,-111,-36,-248
64700,13.810,-1.516,2.429,-0.757244,-0.062189,2.416057,100121.73,-108,-40,-248
64710,14.349,-1.463,2.613,-0.756180,-0.095712,2.546424,100119.75,-108,-46,-248
64720,14.878,-1.065,2.468,-0.785978,-0.144134,2.670938,100119.75,-105,-50,-248
64731,16.007,-0.104,2.451,-0.790235,-0.270776,2.797580,100119.02,-105,-50,-248
64740,17.709,1.882,3.194,-0.708290,-0.436262,2.933268,100119.02,-102,-56,-248
64750,19.046,4.068,3.612,-0.641244,-0.470849,3.061506,100119.04,-99,-62,-249
64760,20.391,5.349,3.739,-0.680088,-0.443180,3.165800,100121.71,-95,-68,-250
64771,22.038,7.547,3.656,-0.995097,-0.450629,3.189213,100119.93,-95,-68,-250
64781,22.969,10.047,3.202,-1.533592,-0.454886,3.104607,100121.66,-92,-74,-251
64790,21.396,9.753,2.156,-2.075812,-0.486813,3.056185,100121.66,-87,-76,-252
64800,18.054,4.844,0.932,-2.133280,-0.561840,3.125891,100122.30,-84,-77,-252
64811,16.425,-2.686,1.747,-1.360656,-0.633675,3.405781,100122.66,-84,-77,-252
64821,16.625,-6.587,5.295,-0.631134,-0.701785,3.712276,100121.57,-78,-82,-254
64830,16.756,-8.172,7.127,-0.194804,-0.583657,3.676625,100119.48,-73,-89,-252
64840,16.358,-4.289,6.974,-0.237905,-0.452758,3.464313,100119.48,-68,-93,-250
64850,14.651,3.860,6.616,-0.018676,-0.309620,3.011488,100121.70,-68,-93,-250
64861,10.141,5.366,4.934,0.488425,-0.280354,2.355929,100120.09,-64,-96,-247
64871,6.478,1.162,2.674,0.781618,-0.318134,1.936094,100116.99,-59,-99,-243
64880,6.065,-2.374,1.771,1.069489,-0.321326,1.631727,100117.51,-55,-101,-239
64890,5.053,-4.681,3.691,1.211562,-0.164886,1.388553,100117.51,-55,-101,-239
64901,4.676,-0.852,1.955,0.958810,-0.301106,0.745764,100120.23,-54,-103,-233
64911,4.449,0.540,1.553,0.336242,-0.351657,0.011985,100118.77,-51,-100,-230
64920,3.711,0.432,1.403,-0.016015,-0.366024,-0.613244,100119.28,-50,-97,-227
64930,2.779,0.388,1.399,-0.121905,-0.367088,-1.154932,100119.50,-52,-90,-224
64941,1.503,0.071,1.702,-0.134143,-0.367620,-1.616271,100119.50,-52,-90,-224
64951,0.713,0.041,1.887,0.030279,-0.345803,-2.064839,100120.52,-54,-84,-222
64960,0.685,0.028,2.091,0.321875,-0.319730,-2.401133,100118.96,-55,-75,-218
64970,1.457,0.368,1.621,0.654975,-0.338354,-2.689536,100119.05,-59,-66,-214
64980,2.361,0.677,1.206,0.937526,-0.365492,-3.014123,100114.40,-59,-66,-214
64991,3.337,0.318,1.207,1.180700,-0.378794,-3.361058,100114.40,-61,-54,-210
65001,4.292,-0.169,1.481,1.357360,-0.375602,-3.722361,100117.66,-64,-42,-206
65010,4.932,-0.695,1.699,1.466443,-0.376666,-4.059186,100114.85,-65,-27,-202
65020,5.027,-1.135,1.782,1.436113,-0.392629,-4.358764,100115.73,-65,-27,-202
65031,5.256,-1.362,1.771,1.308406,-0.466592,-4.640250,100115.05,-63,-9,-198
65041,5.671,-1.225,1.724,1.195599,-0.528849,-4.933975,100115.05,-58,+9,-194
65050,6.752,-0.926,1.690,1.064168,-0.591638,-5.216525,100114.02,-49,+27,-190
65060,8.037,-0.800,1.794,0.934865,-0.632611,-5.460232,100113.55,-49,+27,-190
65071,9.535,-1.068,1.943,0.835361,-0.627822,-5.681589,100110.61,-36,+44,-186
65081,10.766,-1.484,2.079,0.736388,-0.592702,-5.885920,100108.94,-21,+60,-182
65090,11.958,-1.959,2.190,0.557599,-0.576739,-6.078011,100108.94,-6,+72,-177
65100,13.584,-2.436,2.001,0.275049,-0.602280,-6.244561,100111.70,-6,+72,-177
65111,14.906,-2.534,1.834,-0.039960,-0.611858,-6.383974,100112.06,+9,+83,-172
65121,15.755,-2.486,2.022,-0.219281,-0.535767,-6.486139,100109.92,+26,+92,-166
65131,16.596,-3.318,2.601,-0.181501,-0.447436,-6.546268,100112.06,+42,+99,-160
65140,17.962,-4.708,3.310,-0.049538,-0.416574,-6.531900,100112.06,+42,+99,-160
65150,19.496,-5.518,3.543,0.129783,-0.402207,-6.483479,100112.46,+59,+103,-155
65161,20.081,-6.078,3.327,0.253765,-0.409125,-6.400469,100112.66,+75,+103,-150
65171,20.014,-6.605,3.478,0.266003,-0.405932,-6.261589,100112.10,+88,+100,-146
65180,20.399,-7.026,4.351,0.297398,-0.330372,-6.043424,100113.62,+88,+100,-146
65190,19.647,-7.755,5.608,0.358590,-0.186171,-5.695424,100113.62,+98,+96,-141
65201,17.744,-9.996,6.173,0.398499,0.003260,-5.288360,100116.80,+106,+92,-140
65211,16.639,-12.805,5.773,0.378278,0.204398,-4.789241,100114.91,+109,+87,-138
65220,15.120,-14.460,4.707,0.194168,0.356049,-4.225737,100120.78,+109,+87,-138
65230,13.969,-15.756,3.382,-0.042620,0.447572,-3.515903,100119.41,+112,+85,-136
65241,13.313,-17.137,2.150,-0.168198,0.438526,-2.557041,100119.41,+114,+82,-135
65251,12.299,-17.970,2.022,-0.119776,0.375205,-1.451317,100118.75,+115,+80,-133
65261,11.381,-17.830,2.761,0.008462,0.296985,-0.350382,100120.91,+115,+80,-133
65270,10.801,-16.598,3.966,0.181930,0.257609,0.667544,100120.22,+115,+79,-131
65281,10.595,-14.492,5.231,0.380407,0.267719,1.500828,100116.34,+116,+78,-128
65291,11.101,-13.735,5.881,0.626774,0.305499,2.186186,100116.34,+115,+77,-126
65301,11.744,-10.616,6.840,0.804498,0.372545,2.720424,100120.70,+115,+77,-126
65310,12.940,9.750,7.651,0.805030,0.220361,2.816736,100119.60,+114,+76,-124
65320,17.637,44.864,-3.254,0.418187,-0.152116,1.466241,100121.23,+116,+76,-123
65331,22.494,8.544,-15.796,-0.436914,-0.905051,1.283195,100123.99,+116,+76,-121
65341,23.012,-21.337,-3.572,2.258754,0.554526,3.150368,100123.99,+116,+76,-121
65350,21.758,-15.453,5.120,2.989341,1.464434,3.913946,100116.95,+113,+76,-123
65360,13.651,-1.420,0.600,1.115250,0.829627,3.780386,100121.67,+110,+77,-123
65371,6.198,-1.702,4.080,0.571434,0.879645,3.259451,100123.45,+106,+77,-123
65381,5.035,-10.329,10.187,0.654975,1.171774,2.971580,100119.58,+104,+77,-123
65390,10.457,-4.969,9.387,0.608150,0.986599,2.689561,100119.58,+104,+77,-123
65400,11.169,-1.198,4.715,0.574095,0.678508,2.608681,100119.88,+102,+78,-122
65411,11.367,-2.274,0.230,0.828975,0.524728,2.350075,100125.07,+102,+76,-123
65421,10.853,-3.515,0.987,1.144516,0.707774,2.250039,100121.57,+100,+76,-124
65431,10.566,-3.246,2.581,0.710847,0.528453,2.218112,100117.32,+100,+76,-124
65440,9.739,-4.220,3.816,0.042517,0.353389,2.022296,100117.32,+99,+76,-123
65451,9.195,-2.360,4.217,-0.646565,0.179921,1.851488,100122.02,+97,+76,-123
65461,9.899,-1.730,2.180,-0.846106,0.043169,1.655672,100120.98,+97,+78,-122
65471,10.895,-0.075,0.384,-0.501831,0.135756,1.379507,100119.37,+97,+78,-122
65480,10.710,1.076,1.317,-0.059116,0.309756,1.220938,100119.88,+95,+76,-121
65490,9.733,-0.436,2.087,0.258022,0.390636,1.158682,100119.88,+94,+76,-121
65501,9.066,-0.951,1.789,0.439471,0.398086,1.083654,100123.38,+94,+76,-123
65511,9.077,-0.637,1.286,0.593783,0.410857,1.022462,100121.69,+94,+76,-123
65521,9.742,-0.930,1.311,0.675196,0.453957,0.964994,100119.28,+93,+76,-123
65530,10.370,-2.219,1.892,0.516095,0.475242,0.917636,100122.84,+92,+75,-123
65541,10.189,-2.803,2.796,0.056352,0.456618,0.856975,100122.84,+91,+76,-123
65551,9.267,-2.236,3.082,-0.523116,0.387976,0.741508,100121.15,+91,+76,-123
65561,8.925,-0.842,2.586,-0.868987,0.333169,0.644131,100120.04,+91,+76,-121
65570,9.218,-0.168,1.742,-0.879629,0.316141,0.637214,100119.79,+91,+75,-121
65581,9.754,-0.004,1.298,-0.688602,0.342214,0.695214,100121.46,+90,+76,-120
65591,9.981,-0.048,1.612,-0.489593,0.393297,0.758535,100121.46,+90,+76,-120
65601,9.665,-0.409,2.456,-0.377317,0.435334,0.813342,100122.31,+89,+76,-119
65610,9.247,-1.317,3.047,-0.414033,0.444912,0.851122,100121.73,+88,+76,-118
65620,9.089,-1.474,3.326,-0.548657,0.413517,0.842076,100121.94,+86,+76,-118
65631,9.033,-1.052,3.368,-0.605593,0.356049,0.836755,100120.53,+86,+76,-118
65641,9.121,-0.910,3.376,-0.570473,0.319866,0.865489,100120.53,+87,+76,-118
65651,9.496,-0.700,3.321,-0.533758,0.296453,0.910186,100121.84,+85,+76,-117
65660,9.631,-0.415,3.355,-0.458198,0.286343,0.953287,100120.52,+86,+75,-116
65671,9.708,-0.894,3.124,-0.360290,0.295921,1.000113,100118.80,+86,+75,-116
65681,9.865,-1.265,2.653,-0.286327,0.314545,1.041617,100120.37,+85,+76,-116
65691,10.011,-1.511,2.629,-0.248547,0.320930,1.079397,100120.37,+84,+75,-115
65700,10.114,-1.861,2.808,-0.261850,0.323591,1.115049,100119.54,+83,+74,-115
65711,10.213,-2.166,2.951,-0.322510,0.335297,1.137929,100124.24,+83,+74,-115
65721,10.084,-2.427,3.155,-0.422015,0.352857,1.148039,100121.48,+83,+75,-114
65731,9.728,-2.614,4.147,-0.555574,0.402343,1.147507,100121.05,+81,+74,-114
65740,9.823,-2.832,3.892,-0.714675,0.426820,1.131544,100121.05,+80,+75,-114
65752,10.513,-3.321,3.175,-0.839898,0.392587,1.125159,100122.90,+80,+75,-114
65761,11.071,-3.300,2.811,-0.972216,0.342214,1.138994,100120.70,+80,+74,-113
65771,11.394,-2.876,2.573,-1.066932,0.304967,1.156553,100121.23,+77,+73,-112
65781,11.349,-2.096,2.990,-1.077574,0.306563,1.213489,100120.38,+77,+73,-111
65790,11.472,-1.681,2.617,-0.969556,0.294325,1.299691,100120.38,+77,+73,-111
65801,11.584,-1.875,2.628,-0.855152,0.278361,1.406113,100123.86,+75,+72,-111
65811,11.944,-2.420,2.354,-0.806198,0.273040,1.521580,100122.25,+74,+71,-111
65821,12.249,-2.525,2.012,-0.828547,0.262930,1.620021,100120.67,+72,+71,-109
65830,12.218,-2.050,2.037,-0.855152,0.226747,1.734957,100119.98,+72,+71,-109
65841,12.284,-1.751,2.140,-0.801941,0.185774,1.853617,100119.98,+69,+70,-109
65851,12.750,-1.746,2.246,-0.718932,0.167682,2.003672,100123.68,+67,+68,-110
65861,13.109,-1.535,2.344,-0.657207,0.140545,2.160112,100121.01,+65,+66,-110
65870,13.358,-1.374,2.592,-0.641244,0.128306,2.317617,100121.32,+61,+64,-109
65881,13.561,-1.096,2.915,-0.671042,0.134692,2.459690,100118.98,+61,+64,-109
65891,13.868,-0.552,3.194,-0.710950,0.140545,2.594846,100118.98,+59,+62,-109
65901,14.254,-0.365,3.285,-0.742345,0.143205,2.702332,100123.01,+54,+60,-110
65911,14.933,-0.155,2.824,-0.804070,0.111279,2.782149,100121.80,+52,+56,-110
65921,16.103,1.024,2.828,-0.855684,-0.045161,2.851855,100120.51,+52,+56,-110
65931,17.123,3.605,3.285,-0.878565,-0.184042,2.933268,100120.60,+48,+53,-111
65941,18.702,5.759,3.386,-0.978602,-0.195749,2.984882,100120.60,+46,+50,-112
65951,20.307,8.355,3.246,-1.278711,-0.195216,2.995525,100123.10,+42,+46,-111
65960,21.463,10.113,2.104,-1.674069,-0.219161,2.980625,100121.27,+42,+46,-111
65971,20.522,8.417,0.756,-1.837427,-0.227675,2.987543,100119.07,+39,+41,-112
65981,17.463,2.100,0.221,-1.373427,-0.202666,3.148772,100123.63,+37,+37,-112
65986,16.300,-3.094,1.311,-0.733831,-0.187767,3.357891,100123.63,+37,+37,-112
65996,16.411,-4.006,3.966,-0.354969,-0.296317,3.522313,100123.63,+35,+32,-113
66007,16.743,-5.352,6.762,-0.178308,-0.438923,3.452075,100122.41,+33,+26,-114
66016,16.816,-5.408,8.118,-0.045813,-0.369216,3.232846,100120.94,+33,+26,-114
66026,15.341,-0.789,9.013,0.213324,-0.109015,2.977965,100117.33,+32,+23,-115
66036,12.396,4.888,6.725,0.440535,-0.027602,2.444259,100118.30,+30,+16,-117
66046,8.286,1.911,3.513,0.479911,-0.228207,2.008993,100118.15,+29,+14,-119
66056,7.746,-1.781,0.769,0.843342,-0.364959,1.732828,100121.71,+29,+14,-121
66066,6.756,-6.275,3.536,1.076406,-0.145730,1.657801,100121.71,+29,+11,-121
66076,5.349,-2.299,2.010,0.870480,-0.323455,0.994260,100118.30,+29,+8,-122
66086,5.280,0.333,1.183,0.187251,-0.460739,0.133838,100117.84,+28,+6,-124
66096,4.893,0.795,0.689,-0.249611,-0.509693,-0.479152,100117.84,+28,+7,-125
66106,4.072,0.529,0.141,-0.397006,-0.546941,-1.013390,100121.41,+28,+7,-125
66116,3.087,-0.276,-0.082,-0.421483,-0.560776,-1.490161,100120.36,+29,+6,-126
66126,2.053,-0.766,0.155,-0.342730,-0.509161,-1.924894,100117.53,+28,+8,-126
66137,2.160,-0.440,0.234,-0.200657,-0.483088,-2.278747,100118.73,+29,+11,-128
66146,2.800,0.477,-0.351,0.015380,-0.510758,-2.632600,100119.48,+29,+11,-128
66156,3.437,1.117,-0.525,0.326664,-0.512354,-3.007738,100117.92,+29,+14,-127
66166,3.992,0.795,-0.154,0.666682,-0.504372,-3.359994,100117.77,+29,+16,-126
66177,4.853,0.363,0.051,0.892828,-0.562372,-3.693095,100115.03,+31,+22,-126
66186,5.476,0.235,0.314,1.035966,-0.647510,-3.987884,100115.03,+31,+22,-126
66196,5.742,-0.294,0.685,1.204113,-0.692207,-4.259260,100115.03,+34,+27,-126
66206,6.049,-0.605,0.984,1.314260,-0.714556,-4.546599,100116.68,+37,+30,-124
66216,6.405,-0.971,1.151,1.264241,-0.792244,-4.851498,100118.20,+43,+35,-123
66222,6.745,-1.327,1.127,1.154094,-0.851840,-5.067534,100115.48,+43,+35,-123
66231,7.240,-1.285,1.256,1.013085,-0.892280,-5.283039,100114.32,+47,+38,-121
66241,8.274,-1.011,1.182,0.813012,-0.947088,-5.558672,100114.32,+47,+38,-121
66251,9.565,-1.103,1.005,0.621985,-0.977950,-5.810360,100120.13,+51,+40,-120
66262,10.682,-1.449,0.901,0.428829,-0.988592,-6.070561,100114.94,+55,+43,-119
66271,12.237,-2.270,0.823,0.167563,-1.019987,-6.309479,100112.11,+56,+44,-118
66281,13.649,-2.872,0.883,-0.138932,-1.018390,-6.503699,100115.16,+56,+44,-118
66291,14.998,-3.130,1.716,-0.417226,-0.932721,-6.662800,100115.16,+57,+49,-117
66301,15.997,-3.449,3.008,-0.674235,-0.842262,-6.763900,100111.66,+60,+55,-118
66311,16.835,-4.139,4.092,-0.718400,-0.760849,-6.828286,100111.73,+65,+62,-118
66321,18.053,-4.710,4.745,-0.526840,-0.612390,-6.908634,100111.10,+73,+68,-119
66331,19.432,-4.953,5.273,-0.207042,-0.436794,-6.987387,100112.30,+73,+68,-119
66341,20.204,-5.779,5.774,0.011123,-0.303235,-6.931515,100112.30,+83,+72,-119
66351,21.962,-6.403,6.349,0.112756,-0.210116,-6.723992,100115.68,+93,+71,-121
66361,22.646,-7.842,6.563,0.171288,-0.116996,-6.366947,100116.40,+101,+68,-122
66371,22.403,-11.638,6.705,0.292077,0.063921,-5.735865,100117.55,+101,+68,-122
66381,20.818,-14.428,5.976,0.156921,0.188435,-5.096269,100116.24,+106,+65,-124
66391,18.402,-17.576,6.280,-0.179905,0.311884,-4.559902,100116.24,+110,+58,-126
66401,14.627,-20.215,7.194,-0.679556,0.402875,-3.893700,100118.42,+111,+56,-126
66411,11.792,-21.381,6.658,-1.254234,0.428416,-2.979536,100119.63,+111,+56,-126
66421,11.002,-21.163,5.211,-1.634693,0.386380,-1.825922,100117.64,+112,+51,-127
66432,11.307,-19.250,4.055,-1.640014,0.270380,-0.566950,100118.48,+111,+48,-126
66441,11.236,-16.045,4.370,-1.235610,0.203334,0.629765,100118.48,+111,+46,-127
66451,11.374,-13.729,5.302,-0.516730,0.266123,1.655140,100122.04,+111,+46,-127
66457,11.538,-12.249,5.501,0.037728,0.334765,2.314956,100118.43,+111,+42,-126
66466,11.683,-9.978,5.083,0.530462,0.405003,2.819928,100118.43,+111,+42,-126
66477,12.158,3.176,5.482,1.073214,0.412453,3.172185,100119.26,+111,+38,-125
66487,14.777,43.531,-2.873,0.858241,0.065517,2.194699,100117.16,+111,+36,-126
66496,19.544,22.852,-14.086,-0.050070,-0.726262,0.806425,100117.16,+111,+33,-126
66506,17.775,-18.972,-6.756,1.786241,0.259205,2.534185,100124.16,+108,+33,-126
66516,23.071,-19.374,3.707,3.473561,1.421333,3.508478,100118.21,+108,+30,-126
66527,16.226,-6.961,4.068,1.633525,0.987131,3.631928,100121.26,+107,+29,-129
66536,6.236,-3.895,9.833,0.795452,1.087700,3.030112,100121.26,+106,+26,-129
66546,10.688,-6.433,7.424,0.843342,1.017462,2.901873,100121.26,+103,+26,-129
66556,13.953,-4.200,3.947,0.457031,0.641260,2.834295,100120.65,+103,+26,-128
66567,10.365,-0.280,2.405,0.737985,0.745554,2.592717,100118.71,+102,+25,-129
66576,9.581,-3.005,2.550,1.015214,0.742361,2.426167,100117.30,+102,+24,-130
66586,10.067,-4.694,1.712,0.674131,0.468857,2.474057,100117.09,+102,+23,-130
66596,9.402,-4.357,2.398,0.147343,0.353921,2.285158,100117.09,+102,+23,-130
66607,9.498,-3.922,3.296,-0.561427,0.126710,1.993030,100119.61,+101,+23,-130
66616,10.631,-1.969,2.341,-1.083959,-0.048354,1.792956,100118.47,+101,+23,-130
66626,11.502,-0.676,1.029,-0.972748,0.041040,1.519984,100119.61,+101,+22,-130
66636,10.922,0.330,0.885,-0.611978,0.191627,1.309269,100119.61,+101,+22,-130
66647,10.183,0.420,1.943,-0.271960,0.334765,1.186351,100122.08,+100,+22,-130
66656,9.558,0.593,1.650,0.031343,0.410324,1.147507,100122.08,+101,+22,-130
66666,8.634,0.329,0.864,0.395306,0.474710,1.144315,100119.36,+99,+22,-130
66676,9.440,-0.787,2.279,0.574627,0.522600,1.111856,100122.25,+99,+22,-130
66686,10.075,-2.485,3.636,0.331453,0.471517,1.038425,100121.03,+99,+22,-130
66696,10.092,-3.174,4.045,-0.215556,0.378930,0.883581,100121.03,+98,+22,-130
66706,9.729,-2.178,3.497,-0.804070,0.269315,0.701067,100122.27,+97,+22,-130
66716,9.313,-0.743,2.733,-1.113225,0.218765,0.587728,100119.75,+97,+22,-130
66726,9.341,-0.149,2.081,-1.105776,0.223554,0.561655,100118.33,+97,+22,-129
66737,9.647,0.156,1.898,-0.930712,0.257609,0.576554,100119.70,+97,+22,-129
66747,9.653,0.005,2.279,-0.729042,0.293792,0.593049,100122.91,+96,+22,-129
66756,9.437,-0.293,2.597,-0.558767,0.314545,0.613269,100120.44,+96,+22,-129
66766,9.129,-0.687,2.891,-0.462987,0.314545,0.613801,100121.08,+96,+23,-129
66777,8.946,-0.794,3.160,-0.427336,0.296453,0.613269,100121.08,+97,+22,-129
66786,8.882,-1.138,3.172,-0.436914,0.276765,0.615398,100119.70,+95,+23,-129
66796,8.995,-1.328,3.168,-0.491189,0.262398,0.612205,100119.70,+95,+23,-129
66806,9.276,-1.191,3.072,-0.556106,0.241646,0.615398,100123.10,+95,+22,-128
66817,9.396,-0.746,3.154,-0.557171,0.234728,0.627636,100119.59,+95,+22,-129
66827,9.357,-0.625,3.075,-0.499703,0.242178,0.647324,100119.12,+94,+22,-128
66836,9.599,-0.700,2.917,-0.442235,0.254416,0.695746,100120.48,+94,+22,-128
66846,9.880,-0.569,2.871,-0.395409,0.264526,0.767581,100120.48,+95,+22,-130
66856,9.885,-0.584,2.815,-0.391152,0.273572,0.840480,100120.90,+95,+22,-129
66867,9.747,-0.460,2.780,-0.440639,0.280490,0.927214,100119.85,+93,+22,-128
66877,9.660,-0.168,3.020,-0.471501,0.277829,1.035764,100120.43,+93,+22,-128
66886,9.783,-0.357,3.355,-0.470437,0.280490,1.160810,100120.43,+93,+22,-129
66896,10.098,-0.997,3.722,-0.483739,0.295389,1.258718,100120.43,+94,+22,-129
66907,10.270,-1.503,3.698,-0.557171,0.294857,1.328957,100123.48,+93,+21,-128
66916,10.438,-1.753,3.534,-0.674767,0.267719,1.392278,100120.38,+93,+21,-128
66926,10.596,-1.775,3.471,-0.774803,0.242710,1.449214,100120.80,+93,+22,-129
66936,10.963,-2.090,3.102,-0.816308,0.224086,1.500828,100120.01,+92,+21,-128
66947,11.345,-2.068,2.899,-0.789170,0.195352,1.557764,100120.01,+91,+22,-129
66957,11.432,-1.774,2.954,-0.710418,0.178857,1.629067,100119.12,+91,+22,-129
66966,11.655,-1.916,2.727,-0.633262,0.161829,1.700901,100122.16,+91,+20,-129
66976,12.060,-2.321,2.291,-0.590161,0.136820,1.756773,100121.29,+90,+20,-130
66987,12.303,-2.532,2.073,-0.594418,0.104361,1.849360,100121.29,+87,+20,-130
66997,12.375,-2.182,1.948,-0.614638,0.083077,1.941947,100123.46,+86,+20,-131
67006,12.328,-1.837,2.105,-0.598675,0.061260,2.042516,100123.46,+86,+20,-131
67016,12.429,-1.596,2.174,-0.548125,0.033059,2.172883,100121.73,+84,+18,-131
67026,12.693,-1.420,2.256,-0.490657,0.002728,2.326663,100119.68,+83,+18,-132
67037,12.948,-1.242,2.732,-0.461923,-0.016960,2.487892,100121.57,+81,+18,-133
67046,13.535,-1.268,3.054,-0.482143,-0.023877,2.652846,100121.57,+81,+18,-133
67056,14.433,-1.119,3.158,-0.588565,-0.020684,2.781616,100121.66,+78,+15,-134
67066,15.465,-0.507,3.072,-0.738620,-0.039840,2.883781,100121.08,+77,+14,-135
67077,16.629,0.495,3.228,-0.879097,-0.132960,2.982754,100121.30,+73,+12,-136
67087,17.567,2.124,4.456,-0.970088,-0.271840,3.089176,100117.59,+73,+12,-136
67096,18.694,3.455,4.976,-1.119611,-0.280354,3.156754,100120.77,+69,+10,-137
67106,21.261,4.541,5.146,-1.639482,-0.262794,3.135469,100120.98,+66,+7,-140
67117,24.367,7.919,5.453,-2.624417,-0.341547,3.012020,100119.37,+63,+7,-141
67127,25.380,12.593,5.803,-3.935003,-0.449033,2.873139,100119.37,+63,+7,-141
67136,22.205,13.952,4.086,-4.542141,-0.636868,2.759268,100116.63,+60,+6,-144
67146,16.208,9.708,2.136,-3.587003,-0.696464,2.775763,100116.63,+55,+4,-147
67156,13.711,1.378,3.934,-1.500069,-0.585253,3.300956,100120.29,+52,+1,-151
67167,14.890,-3.817,6.209,0.339966,-0.503840,3.984184,100119.30,+52,+1,-151
67176,15.567,-6.512,6.523,1.141856,-0.314941,4.210331,100116.79,+48,-2,-151
67186,15.345,-2.896,7.518,1.166333,0.031994,3.703231,100117.68,+45,-7,-155
67196,13.152,0.937,6.932,1.062572,0.146398,2.889635,100117.68,+41,-10,-157
67207,9.656,-0.600,4.613,0.874205,0.028270,2.136167,100118.28,+41,-10,-157
67217,8.642,-1.138,1.196,0.664021,-0.182446,1.464113,100119.25,+39,-11,-160
67226,7.208,-6.734,2.161,0.748095,-0.062721,1.140590,100121.34,+37,-12,-162
67236,5.001,-3.956,0.563,0.355398,-0.287271,0.527599,100121.34,+36,-10,-165
67247,4.260,-0.264,0.077,-0.397006,-0.434666,-0.331758,100121.34,+36,-10,-165
67257,3.308,0.370,0.200,-0.837060,-0.446372,-0.995831,100121.14,+35,-6,-167
67266,2.095,1.011,0.022,-0.885482,-0.505969,-1.464087,100118.42,+35,-4,-170
67276,0.550,1.100,0.050,-0.663060,-0.550134,-1.855720,100122.19,+37,+0,-172
67287,-0.118,0.770,0.030,-0.250143,-0.486813,-2.275555,100120.30,+37,+0,-172
67297,0.558,0.920,0.345,0.180334,-0.413381,-2.604398,100120.30,+39,+4,-174
67307,2.027,0.564,0.166,0.563985,-0.389969,-2.911426,100120.05,+42,+6,-176
67316,3.040,0.478,-0.414,0.832700,-0.393161,-3.231224,100119.74,+45,+10,-177
67326,3.425,0.254,-0.011,1.046076,-0.322923,-3.575499,100115.82,+45,+10,-177
67337,4.162,0.142,0.311,1.165269,-0.338354,-3.894765,100115.82,+49,+12,-177
67347,4.619,-0.148,0.204,1.261049,-0.388904,-4.150710,100117.13,+54,+12,-178
67356,4.964,-0.031,0.404,1.393544,-0.392097,-4.439645,100117.13,+61,+12,-178
67366,5.245,0.469,1.132,1.504223,-0.387308,-4.714746,100114.35,+61,+12,-178
67377,5.628,2.311,1.530,1.845305,-0.404336,-4.832874,100111.99,+65,+10,-176
67387,8.336,-2.057,1.462,1.929378,-0.467657,-5.047314,100112.73,+70,+6,-176
67396,8.168,-3.511,1.655,1.530296,-0.537363,-5.559736,100112.73,+72,+2,-175
67406,9.084,-1.122,1.635,0.917838,-0.668794,-5.825791,100113.45,+72,+2,-175
67417,11.681,0.999,1.245,0.769911,-0.676244,-5.962011,100113.03,+74,-2,-172
67427,13.276,-1.683,0.838,1.068957,-0.516611,-6.083332,100109.27,+72,-9,-170
67437,14.039,-3.349,1.377,1.145581,-0.413381,-6.168469,100113.72,+68,-15,-168
67446,15.121,-4.272,2.604,1.066828,-0.388372,-6.225405,100113.73,+63,-15,-167
67457,16.787,-4.873,4.005,0.835893,-0.432537,-6.305754,100115.30,+63,-20,-167
67467,17.909,-4.344,4.780,0.673067,-0.503308,-6.354176,100115.15,+54,-26,-166
67477,18.951,-4.939,5.055,0.763526,-0.489473,-6.416965,100115.15,+43,-28,-166
67486,19.663,-5.990,5.348,0.914113,-0.418703,-6.502102,100112.79,+30,-29,-166
67496,19.864,-6.937,5.792,0.980094,-0.348996,-6.472304,100112.79,+30,-29,-166
67507,20.800,-7.777,6.138,0.965728,-0.313877,-6.310011,100116.81,+15,-26,-168
67517,21.005,-8.431,6.696,0.834474,-0.267583,-5.991632,100116.73,+1,-19,-172
67526,20.629,-9.561,7.490,0.704994,-0.151583,-5.650727,100116.73,-9,-8,-173
67536,19.566,-13.867,8.111,0.537911,0.078820,-5.177149,100116.50,-9,-8,-173
67547,17.180,-17.251,7.797,0.038792,0.285811,-4.651957,100116.50,-18,+2,-178
67557,14.222,-19.916,7.454,-0.624216,0.494930,-4.057590,100117.68,-24,+16,-180
67567,12.839,-20.903,5.808,-1.295207,0.542288,-3.176416,100119.27,-28,+28,-181
67576,12.095,-20.730,3.261,-1.679390,0.405535,-1.994601,100118.84,-28,+28,-181
67587,12.102,-19.928,1.980,-1.622986,0.240581,-0.684547,100118.84,-29,+35,-182
67597,11.859,-18.131,2.337,-1.239867,0.120857,0.572829,100118.84,-30,+39,-182
67607,11.174,-16.070,3.416,-0.605060,0.125646,1.665250,100121.95,-32,+38,-180
67616,11.865,-14.462,3.734,0.121801,0.191095,2.593782,100122.93,-32,+38,-180
67627,12.310,-6.434,5.674,0.684774,0.265059,3.243488,100122.62,-34,+33,-180
67637,12.835,32.447,6.296,0.698076,0.246967,2.852387,100115.80,-37,+28,-180
67647,20.042,44.061,-7.265,-0.360290,-0.149987,0.630297,100115.80,-37,+32,-180
67657,16.476,-8.757,-12.220,-0.311336,-0.547473,1.669507,100123.23,-37,+32,-180
67666,20.720,-22.074,2.336,3.211763,1.009480,3.127488,100125.23,-36,+26,-181
67677,22.426,-9.022,5.015,2.385929,0.805150,3.960240,100119.57,-37,+18,-179
67687,10.404,0.375,5.071,0.875269,0.564636,3.557432,100119.57,-38,+11,-178
67697,6.058,-5.147,8.319,0.938058,0.967975,3.169524,100121.13,-38,+11,-178
67706,10.537,-6.428,7.021,1.099819,0.912636,2.938057,100118.93,-39,+5,-177
67717,9.778,-2.206,5.065,1.010425,0.763645,2.694350,100118.93,-38,+0,-175
67727,8.866,-4.080,2.779,1.032773,0.720544,2.372424,100121.18,-39,-6,-174
67737,9.881,-5.623,1.977,0.846535,0.607737,2.155855,100119.29,-39,-6,-174
67746,11.059,-4.716,1.285,0.319746,0.347536,2.106901,100119.29,-38,-10,-173
67752,11.931,-4.365,1.048,-0.201721,0.147462,1.952057,100123.59,-38,-12,-172
67762,12.461,-4.211,1.601,-0.616235,0.116600,1.757305,100120.61,-38,-12,-172
67772,11.873,-3.178,2.259,-1.198363,0.052215,1.580112,100119.63,-37,-16,-173
67782,10.936,-2.127,1.905,-1.720895,-0.074428,1.522112,100118.78,-37,-16,-173
67791,9.522,-1.551,0.770,-1.744840,-0.052611,1.311929,100118.78,-36,-16,-173
67802,9.522,0.002,0.299,-1.274454,0.131499,1.050663,100119.91,-36,-16,-173
67812,10.250,1.001,1.219,-0.692859,0.329976,0.881985,100122.07,-37,-18,-174
67822,9.963,0.038,2.361,-0.386895,0.403939,0.837819,100119.76,-37,-19,-173
67831,9.416,-0.548,2.513,-0.235244,0.415113,0.793654,100118.60,-37,-20,-172
67842,9.485,-0.623,2.611,-0.168198,0.422563,0.726609,100118.60,-37,-20,-172
67852,9.557,-0.691,2.733,-0.197464,0.409260,0.638278,100123.14,-37,-20,-171
67862,9.440,-0.849,3.418,-0.347519,0.374141,0.577086,100120.84,-37,-22,-171
67871,9.198,-0.766,4.122,-0.577391,0.301242,0.528132,100118.73,-38,-22,-171
67881,8.952,-0.430,4.305,-0.818437,0.221958,0.486627,100121.05,-38,-22,-171
67892,8.900,0.056,3.731,-0.978069,0.173536,0.452572,100121.05,-37,-22,-170
67902,9.061,0.442,2.803,-0.989244,0.155444,0.461618,100122.27,-37,-22,-171
67912,9.459,0.600,2.025,-0.820033,0.180985,0.498333,100122.16,-37,-22,-172
67921,9.683,0.515,1.764,-0.551317,0.234728,0.561655,100119.76,-37,-22,-172
67932,9.584,0.317,2.204,-0.292712,0.284214,0.649453,100118.76,-36,-23,-170
67942,9.479,-0.476,2.854,-0.167666,0.318269,0.717563,100118.76,-37,-24,-170
67952,9.310,-1.364,3.343,-0.247483,0.317205,0.734058,100119.55,-37,-26,-169
67961,9.025,-1.481,3.568,-0.475226,0.280490,0.731398,100124.47,-37,-26,-169
67972,8.828,-0.713,3.586,-0.691794,0.238985,0.737251,100120.55,-37,-26,-169
67982,8.849,-0.081,3.325,-0.780657,0.218233,0.761196,100122.80,-37,-26,-170
67987,9.074,-0.017,3.009,-0.751923,0.213444,0.792058,100122.80,-37,-26,-170
67996,9.338,0.101,2.851,-0.647097,0.220361,0.851122,100122.80,-36,-28,-169
68007,9.824,-0.120,2.874,-0.449684,0.252820,0.943709,100122.46,-36,-28,-169
68017,10.171,-0.816,2.737,-0.339538,0.265591,1.022994,100123.41,-36,-30,-170
68027,10.334,-1.086,2.603,-0.374125,0.275701,1.091104,100120.84,-36,-30,-170
68037,10.327,-0.932,2.810,-0.470969,0.284214,1.154425,100120.84,-35,-31,-168
68047,10.073,-1.170,3.113,-0.551849,0.278893,1.218810,100123.09,-35,-33,-168
68057,9.744,-1.085,3.658,-0.618895,0.290068,1.294370,100120.30,-34,-35,-168
68067,9.692,-1.301,3.921,-0.635391,0.278361,1.359819,100120.30,-34,-35,-168
68077,10.078,-1.745,3.824,-0.609317,0.248563,1.412498,100119.62,-34,-36,-168
68087,10.632,-2.362,3.409,-0.619960,0.206526,1.456131,100120.04,-32,-38,-168
68097,11.039,-2.531,2.753,-0.684877,0.173536,1.491782,100120.04,-32,-40,-168
68107,11.230,-2.334,2.350,-0.743409,0.138416,1.537544,100121.97,-32,-40,-168
68117,11.421,-1.781,2.195,-0.739684,0.112343,1.625342,100121.81,-30,-42,-168
68127,11.819,-1.635,1.851,-0.652950,0.085205,1.736021,100117.89,-30,-44,-169
68137,12.432,-1.904,1.441,-0.544400,0.053811,1.869048,100118.98,-27,-48,-170
68147,12.867,-2.055,1.279,-0.491189,0.021884,2.005268,100121.95,-27,-48,-170
68157,12.805,-1.863,1.712,-0.451281,-0.014831,2.134571,100120.21,-26,-51,-170
68167,13.129,-2.052,2.073,-0.385299,-0.064317,2.259617,100120.73,-24,-54,-170
68177,14.002,-2.564,2.228,-0.376253,-0.080281,2.369231,100119.63,-23,-58,-172
68187,14.393,-2.226,2.317,-0.449684,-0.090391,2.451176,100119.63,-23,-58,-172
68197,14.241,-1.589,2.456,-0.519923,-0.111143,2.542699,100119.63,-19,-63,-172
68207,14.317,-1.017,2.557,-0.573666,-0.140409,2.656571,100124.00,-18,-66,-173
68217,14.986,-0.505,2.569,-0.632730,-0.182446,2.781616,100127.88,-15,-70,-175
68222,15.840,0.023,2.188,-0.677427,-0.220758,2.860901,100121.48,-15,-70,-175
68232,17.082,1.192,2.488,-0.713611,-0.325583,2.934332,100117.66,-12,-75,-177
68242,18.026,3.580,3.618,-0.756180,-0.448501,3.059378,100117.66,-9,-80,-179
68252,19.178,6.005,4.260,-0.880693,-0.437858,3.171121,100123.36,-9,-80,-179
68261,21.093,8.192,4.405,-1.240399,-0.391565,3.226460,100119.91,-5,-84,-181
68272,23.199,11.476,3.965,-1.914582,-0.386244,3.214222,100119.70,-2,-88,-185
68282,24.081,14.900,2.803,-2.632399,-0.469785,3.236570,100117.23,+1,-91,-190
68292,21.873,13.191,1.083,-2.533426,-0.607601,3.309469,100117.23,+1,-91,-190
68302,18.059,4.472,0.621,-1.468675,-0.629418,3.580313,100122.67,+5,-96,-195
68312,16.251,-3.267,6.302,-0.510345,-0.651767,3.938955,100119.22,+10,-104,-199
68322,16.449,-7.540,7.830,0.194168,-0.649106,4.084753,100119.59,+14,-113,-200
68332,17.041,-5.866,8.344,0.610278,-0.439455,4.032074,100119.69,+14,-113,-200
68342,15.879,1.590,9.829,1.223801,0.090526,3.496772,100119.69,+18,-124,-202
68352,11.776,5.971,7.104,1.449415,0.122985,2.648589,100118.70,+19,-134,-201
68362,8.209,2.395,1.539,1.301489,-0.198409,1.916406,100116.96,+19,-144,-202
68372,7.383,-5.111,2.826,1.401525,-0.178189,1.530094,100119.68,+19,-144,-202
68382,4.542,-4.040,4.327,1.595213,-0.115932,1.250737,100114.66,+18,-154,-202
68391,4.503,2.249,1.931,1.050333,-0.358042,0.192370,100114.66,+14,-164,-202
68402,4.481,3.366,0.931,0.307508,-0.509161,-0.608455,100118.13,+7,-169,-206
68412,3.552,1.735,0.870,0.011123,-0.527785,-1.201757,100116.61,+7,-169,-206
68422,2.814,0.970,0.787,-0.185758,-0.606537,-1.704601,100118.28,-2,-172,-210
68432,1.545,-0.177,1.310,-0.283134,-0.663473,-2.182436,100118.61,-14,-174,-213
68442,1.127,-0.750,1.303,-0.249079,-0.662409,-2.632068,100118.61,-27,-174,-219
68452,0.990,0.004,0.683,-0.136804,-0.722537,-3.007738,100119.23,-27,-174,-219
68462,1.572,0.827,0.325,0.162242,-0.757124,-3.383939,100118.81,-41,-170,-224
68472,2.745,1.220,0.485,0.583673,-0.739565,-3.741517,100118.81,-57,-166,-228
68482,3.889,1.134,0.928,0.973177,-0.717216,-4.090581,100117.34,-73,-160,-232
68492,4.770,0.537,1.255,1.205709,-0.717748,-4.426875,100117.34,-73,-160,-232
68502,4.889,-0.257,1.412,1.313195,-0.726794,-4.668984,100116.12,-88,-152,-235
68512,5.146,-0.678,1.582,1.318516,-0.717216,-4.907902,100113.09,-105,-142,-239
68523,5.610,-0.924,1.696,1.240828,-0.722005,-5.184599,100112.45,-120,-129,-245
68532,6.441,-1.023,1.915,1.133342,-0.742225,-5.463956,100113.29,-120,-129,-245
68542,7.681,-0.760,2.115,0.997654,-0.768831,-5.737461,100113.29,-135,-113,-251
68552,9.387,-0.584,2.027,0.780553,-0.833216,-6.001919,100114.73,-148,-93,-257
68562,11.381,-1.423,1.611,0.492682,-0.882170,-6.221148,100114.47,-160,-68,-266
68572,12.989,-2.572,1.102,0.270260,-0.819381,-6.419093,100111.27,-160,-68,-266
68582,14.506,-3.606,1.186,0.052627,-0.684757,-6.598414,100111.27,-169,-40,-274
68592,16.069,-4.477,1.966,-0.236308,-0.585253,-6.703240,100111.27,-173,-6,-282
68602,17.380,-5.094,2.737,-0.367207,-0.518739,-6.742084,100112.64,-169,+28,-290
68612,18.608,-5.268,3.112,-0.228859,-0.428813,-6.791570,100114.63,-169,+28,-290
68622,19.784,-5.465,3.386,0.027618,-0.366556,-6.869790,100111.75,-160,+62,-293
68632,20.907,-6.539,3.729,0.168627,-0.358574,-6.836800,100117.34,-144,+92,-297
68642,20.921,-8.008,4.503,0.075508,-0.383051,-6.638322,100117.34,-126,+118,-300
68653,21.213,-8.634,6.116,0.003673,-0.329840,-6.355240,100115.27,-106,+118,-300
68662,20.757,-9.707,7.571,0.020169,-0.188831,-5.921571,100116.52,-106,+136,-300
68672,19.976,-12.770,7.830,0.115948,0.022949,-5.323479,100114.43,-88,+150,-298
68682,18.289,-16.118,7.081,0.077104,0.280490,-4.702507,100118.10,-72,+158,-297
68692,16.444,-20.433,6.145,-0.264510,0.473646,-4.069829,100118.10,-60,+164,-292
68702,14.303,-22.631,5.494,-0.915813,0.501315,-3.253040,100121.45,-60,+164,-292
68712,12.242,-21.923,4.688,-1.513904,0.412985,-2.179243,100118.27,-54,+171,-287
68722,11.897,-20.681,3.563,-1.688436,0.251756,-0.942620,100118.69,-49,+174,-283
68732,11.807,-18.396,3.613,-1.347354,0.172471,0.265269,100121.98,-49,+174,-278
68742,11.831,-16.173,4.389,-0.682216,0.191627,1.359287,100121.98,-49,+174,-278
68752,12.281,-13.583,4.250,0.081893,0.237389,2.300589,100123.03,-52,+169,-277
68762,12.293,-7.800,4.845,0.873140,0.324123,3.009359,100117.58,-57,+160,-278
68772,12.396,20.764,5.755,1.349379,0.324123,3.047671,100117.33,-63,+149,-279
68783,18.697,50.316,-4.207,0.767251,-0.005253,1.060773,100120.94,-63,+149,-279
68792,18.801,-0.981,-14.310,0.027618,-0.704445,1.226792,100120.94,-62,+147,-278
68802,21.220,-24.438,-2.219,3.256460,0.806746,3.136534,100124.78,-67,+132,-281
68812,22.985,-13.542,2.821,2.981359,1.097810,3.885212,100122.91,-75,+114,-280
68823,12.206,-2.770,1.128,0.962535,0.635407,3.572332,100121.22,-75,+114,-280
68832,4.415,-1.103,5.919,0.495343,0.791315,2.959873,100120.44,-82,+104,-277
68842,8.548,-7.669,10.203,0.895489,1.054709,2.768846,100120.44,-86,+95,-276
68852,11.178,-3.084,8.080,0.864627,0.854636,2.550681,100123.33,-92,+85,-273
68862,9.261,-1.132,4.144,0.824718,0.662544,2.518222,100120.77,-92,+85,-273
68872,10.312,-2.397,1.954,1.172186,0.683829,2.285158,100118.14,-96,+76,-271
68882,10.662,-4.198,1.497,1.231782,0.638600,2.272919,100119.09,-99,+67,-272
68892,11.214,-4.721,1.342,0.659232,0.397554,2.206938,100119.09,-101,+58,-270
68902,11.819,-5.004,1.716,-0.137336,0.201737,2.023892,100118.70,-101,+58,-270
68913,11.435,-4.170,2.371,-0.957849,0.066049,1.824351,100118.38,-103,+55,-268
68922,11.165,-2.613,2.279,-1.673537,-0.095712,1.737085,100120.68,-103,+54,-269
68928,10.348,-1.866,1.369,-1.864032,-0.137749,1.628534,100119.27,-103,+54,-269
68937,9.656,-0.968,0.378,-1.629372,-0.035584,1.436443,100119.27,-103,+53,-266
68947,9.799,1.572,0.640,-0.981262,0.219297,1.194333,100119.27,-106,+52,-266
68958,9.900,1.788,2.420,-0.340602,0.414581,1.099085,100121.77,-107,+50,-265
68967,9.140,-0.155,2.598,0.034535,0.453425,1.095361,100122.24,-107,+50,-265
68977,9.270,-1.065,2.043,0.242058,0.464600,1.063966,100120.15,-108,+46,-263
68987,9.654,-1.076,1.977,0.305911,0.486416,0.966590,100120.15,-111,+42,-262
68998,9.904,-1.089,2.590,0.253233,0.492801,0.866021,100120.64,-111,+39,-261
69007,9.771,-2.033,3.363,0.018040,0.454490,0.794719,100120.64,-111,+39,-261
69017,9.289,-2.250,3.958,-0.451813,0.365627,0.734058,100119.13,-113,+37,-259
69027,8.964,-1.270,4.372,-0.908363,0.284747,0.663820,100120.02,-114,+37,-258
69038,9.074,-0.398,3.874,-1.150473,0.213444,0.598370,100120.02,-113,+39,-258
69047,9.258,-0.104,2.769,-1.151537,0.185774,0.563783,100120.02,-113,+39,-258
69057,9.600,0.499,1.611,-0.970088,0.203866,0.608480,100123.09,-115,+39,-254
69067,9.572,0.797,1.430,-0.578987,0.269848,0.673930,100121.15,-115,+38,-255
69078,9.232,0.120,2.314,-0.196932,0.327847,0.762792,100116.27,-116,+36,-254
69088,9.200,-1.448,3.160,-0.019208,0.352857,0.798975,100121.85,-116,+36,-254
69097,9.297,-2.321,3.473,-0.111263,0.325187,0.785673,100122.01,-117,+34,-253
69107,9.345,-2.018,3.521,-0.344327,0.270912,0.762792,100122.16,-119,+31,-252
69117,9.586,-1.657,3.240,-0.563024,0.225682,0.752682,100120.02,-118,+31,-252
69128,9.860,-1.182,2.793,-0.687005,0.210251,0.765985,100120.02,-118,+31,-252
69137,10.023,-0.853,2.743,-0.714675,0.204398,0.809086,100122.70,-119,+30,-249
69147,9.924,-0.312,2.741,-0.660400,0.220893,0.883049,100122.70,-120,+28,-250
69157,9.784,-0.168,2.919,-0.565684,0.266655,0.975636,100125.70,-120,+27,-249
69168,9.562,-0.392,3.661,-0.517262,0.302306,1.084186,100124.30,-120,+27,-249
69178,9.642,-1.036,3.983,-0.530565,0.309756,1.185287,100121.63,-122,+24,-245
69187,9.947,-1.534,4.041,-0.643372,0.316141,1.268828,100119.11,-123,+22,-246
69197,10.339,-1.784,3.670,-0.779592,0.299114,1.322571,100119.11,-124,+20,-245
69208,10.686,-2.019,3.230,-0.875372,0.280490,1.372058,100122.86,-124,+20,-245
69218,11.047,-2.263,2.490,-0.891336,0.263462,1.421012,100122.05,-124,+17,-243
69227,11.356,-2.714,2.458,-0.871115,0.258141,1.477415,100118.28,-124,+14,-242
69237,11.467,-2.469,2.068,-0.896657,0.240581,1.529030,100118.28,-125,+11,-243
69248,11.849,-2.239,1.699,-0.837592,0.213976,1.603525,100118.28,-125,+11,-243
69258,12.003,-2.328,1.627,-0.780125,0.176728,1.709415,100123.75,-126,+7,-240
69267,12.149,-1.971,1.623,-0.749262,0.134159,1.800406,100121.44,-126,+3,-239
69277,12.366,-1.825,1.573,-0.644969,0.107022,1.925452,100124.89,-124,-1,-239
69282,12.654,-1.887,1.620,-0.562492,0.092123,2.022296,100121.70,-124,-1,-239
69293,13.088,-2.145,1.637,-0.475758,0.069242,2.118076,100121.70,-126,-8,-237
69303,13.321,-2.269,1.539,-0.404455,0.033591,2.234608,100121.95,-126,-14,-237
69312,13.475,-2.130,1.674,-0.398602,0.002196,2.362846,100120.16,-126,-14,-237
69322,13.531,-1.586,2.180,-0.419886,-0.031859,2.508112,100118.76,-122,-20,-236
69332,13.724,-1.041,2.720,-0.447556,-0.055272,2.660828,100118.49,-121,-28,-234
69343,14.454,-0.561,3.233,-0.493850,-0.066978,2.832167,100118.49,-120,-36,-235
69352,15.621,0.345,3.333,-0.632198,-0.085070,2.989139,100123.02,-120,-36,-235
69362,17.439,1.107,3.287,-0.799813,-0.153712,3.105671,100118.16,-115,-45,-235
69372,19.162,2.231,4.115,-0.945079,-0.306959,3.182295,100123.28,-113,-54,-233
69383,19.744,5.268,4.522,-1.242528,-0.358574,3.225396,100121.34,-107,-60,-234
69392,21.616,7.958,4.429,-1.756546,-0.347932,3.195066,100121.34,-107,-60,-234
69402,23.789,10.739,3.632,-2.603665,-0.433602,3.090772,100121.85,-101,-65,-236
69412,25.368,12.901,2.093,-3.444930,-0.587913,3.050332,100122.27,-96,-68,-238
69423,23.298,10.888,0.485,-3.215591,-0.690078,3.082258,100118.09,-89,-69,-240
69433,17.756,2.895,2.378,-1.810289,-0.604409,3.458460,100122.85,-89,-69,-240
69442,15.955,-2.219,7.879,-0.236841,-0.538427,3.998019,100122.85,-82,-76,-238
69452,16.404,-5.798,9.309,0.629434,-0.404336,4.326863,100121.92,-74,-88,-234
69463,16.222,-3.137,10.053,0.847599,-0.079217,4.065065,100121.23,-66,-98,-231
69473,14.983,3.962,8.193,1.224333,0.091059,3.155158,100120.34,-66,-98,-231
69482,11.397,3.291,4.833,1.325434,-0.005785,2.402222,100116.58,-61,-106,-226
69492,9.103,-0.479,1.758,1.172718,-0.322923,1.885011,100116.58,-56,-112,-222
69502,6.298,-4.593,4.505,1.298828,-0.065914,1.580112,100118.51,-51,-115,-217
69513,4.782,-0.329,3.064,1.130149,-0.195749,0.718095,100120.80,-51,-115,-217
69518,4.571,1.759,1.970,0.532590,-0.413381,0.048169,100118.29,-50,-116,-214
69527,4.639,2.227,1.351,0.049435,-0.515547,-0.475427,100118.29,-48,-113,-212
69537,3.850,1.496,1.017,-0.245886,-0.497455,-1.114491,100118.24,-48,-113,-212
69548,3.154,1.380,0.618,-0.445428,-0.564501,-1.615207,100118.24,-48,-108,-214
69558,1.978,0.235,0.527,-0.438510,-0.620904,-2.058986,100121.15,-49,-102,-214
69568,0.950,-0.707,0.793,-0.266107,-0.591638,-2.468710,100119.98,-50,-96,-214
69577,0.946,-0.312,0.868,-0.002712,-0.596427,-2.843316,100115.71,-50,-96,-214
69587,1.752,0.542,0.581,0.345820,-0.627822,-3.196637,100115.71,-50,-87,-217
69598,3.045,0.937,0.297,0.787471,-0.637932,-3.520159,100115.71,-52,-80,-216
69608,4.219,0.664,0.702,1.236039,-0.608134,-3.830379,100119.14,-55,-74,-216
69617,4.819,0.088,1.409,1.584571,-0.583657,-4.142196,100117.20,-55,-74,-216
69627,5.155,-0.302,1.639,1.713874,-0.632611,-4.437517,100112.75,-55,-67,-219
69638,5.580,-0.767,1.758,1.709617,-0.666666,-4.697718,100114.17,-59,-58,-218
69647,5.981,-0.763,1.966,1.630333,-0.731051,-5.000489,100114.17,-61,-50,-219
69658,6.369,-0.788,2.399,1.534553,-0.760317,-5.281443,100114.91,-61,-50,-219
69667,7.455,-0.643,2.642,1.400461,-0.781601,-5.549094,100111.81,-63,-40,-222
69678,8.936,-0.945,2.506,1.192938,-0.825767,-5.801314,100109.69,-63,-26,-224
69688,10.357,-1.200,2.377,0.922095,-0.851308,-6.051938,100109.69,-63,-12,-225
69698,11.940,-2.009,2.080,0.620388,-0.878445,-6.313203,100110.16,-63,-12,-225
69707,13.610,-3.041,1.570,0.333581,-0.835344,-6.528708,100113.50,-57,+5,-228
69718,14.886,-3.408,1.625,0.079765,-0.695932,-6.699515,100113.50,-51,+23,-227
69728,16.275,-3.075,2.074,-0.174052,-0.584189,-6.807533,100112.30,-44,+39,-227
69738,17.552,-3.659,2.800,-0.277813,-0.520868,-6.868726,100111.83,-44,+39,-227
69747,18.631,-5.337,3.454,-0.193740,-0.450097,-6.945882,100111.83,-36,+54,-227
69753,19.477,-5.938,4.266,-0.081464,-0.389969,-7.008671,100112.41,-25,+70,-222
69763,20.199,-6.360,4.609,0.001013,-0.377730,-7.011332,100113.03,-25,+70,-222
69773,21.168,-7.448,5.318,0.011655,-0.374005,-6.901717,100112.98,-13,+84,-219
69782,22.515,-8.385,6.224,-0.004309,-0.334097,-6.653754,100114.66,+0,+93,-217
69792,22.316,-9.146,6.723,0.018572,-0.190427,-6.213167,100114.66,+14,+100,-212
69803,21.066,-12.041,6.567,0.157985,0.066049,-5.598048,100118.02,+14,+100,-212
69813,19.543,-15.374,6.018,0.302187,0.348068,-4.890342,100116.86,+26,+104,-208
69823,16.677,-19.043,5.253,0.271856,0.548141,-4.214031,100119.84,+33,+103,-206
69832,14.639,-22.155,4.193,-0.013354,0.544416,-3.407352,100115.97,+41,+103,-200
69842,12.742,-22.986,3.394,-0.237905,0.497058,-2.283536,100115.97,+41,+103,-200
69853,11.745,-21.983,2.471,-0.245354,0.400746,-0.920271,100120.73,+43,+99,-197
69863,11.333,-19.534,2.432,0.067526,0.321994,0.400425,100121.00,+45,+94,-195
69872,11.376,-17.126,3.142,0.617196,0.301774,1.542865,100119.53,+46,+91,-192
69882,11.016,-14.943,3.792,1.168461,0.341682,2.444259,100116.50,+46,+91,-192
69893,11.358,-13.579,5.861,1.675030,0.498655,3.153029,100116.50,+46,+83,-190
69903,11.883,5.048,11.636,1.637250,0.651902,3.382368,100121.55,+45,+75,-190
69913,15.326,50.409,4.668,0.635819,0.555058,1.791892,100119.56,+46,+72,-186
69922,20.812,17.806,-18.355,-2.186491,-0.911968,0.108297,100121.91,+46,+72,-186
69933,19.245,-28.439,-5.609,0.450113,0.080416,2.347415,100123.80,+49,+70,-184
69943,26.490,-16.527,7.150,2.364644,1.096214,3.572864,100123.80,+46,+60,-183
69953,20.131,-0.090,3.671,0.744370,0.401279,3.929377,100124.13,+45,+56,-181
69962,7.695,-1.978,3.066,0.122334,0.614123,3.270625,100120.79,+45,+56,-181
69972,7.497,-6.230,7.206,0.376682,0.914232,3.175378,100120.16,+41,+50,-180
69983,10.250,-4.284,6.631,0.591122,0.819517,2.967323,100121.84,+39,+46,-179
69988,9.951,-2.309,5.008,0.848663,0.757260,2.728938,100121.84,+39,+46,-179
69997,8.787,-4.127,4.184,0.907195,0.717352,2.387323,100121.84,+39,+43,-177
70008,8.865,-2.664,3.117,0.927948,0.625297,2.076039,100120.63,+36,+37,-177
70018,10.780,-2.188,1.511,1.015214,0.550269,2.016443,100121.37,+37,+34,-177
70028,11.053,-3.228,0.959,0.922095,0.443847,1.892461,100119.16,+37,+34,-177
70038,11.218,-3.812,1.652,0.545893,0.402875,1.726443,100118.90,+37,+32,-175
70048,11.570,-3.623,2.324,-0.088382,0.307627,1.625342,100123.02,+36,+29,-176
70057,11.393,-3.090,2.458,-0.869519,0.162893,1.547122,100118.63,+36,+28,-175
70068,10.340,-2.498,1.803,-1.474528,0.061260,1.438571,100118.63,+36,+28,-175
70078,9.683,-1.538,0.819,-1.620326,0.056471,1.256058,100120.84,+36,+30,-173
70087,9.726,0.396,0.975,-1.375555,0.197481,1.040021,100121.35,+34,+28,-173
70097,9.799,0.572,1.411,-1.038730,0.334765,0.899544,100121.35,+34,+29,-173
70108,9.732,-0.262,1.998,-0.782253,0.395425,0.836755,100120.40,+34,+29,-173
70118,9.911,-0.155,2.221,-0.605060,0.409260,0.799508,100119.26,+32,+30,-172
70128,9.876,-0.099,2.426,-0.470437,0.435866,0.746829,100121.09,+32,+28,-172
70137,9.496,-0.025,3.254,-0.400198,0.444380,0.711709,100119.30,+31,+27,-172
70148,8.892,-0.309,4.152,-0.445960,0.398086,0.677122,100120.20,+31,+27,-172
70158,8.616,-0.690,4.658,-0.593886,0.311352,0.635618,100120.51,+30,+30,-170
70168,8.882,-0.909,4.521,-0.794492,0.225682,0.578682,100121.73,+30,+28,-170
70178,9.230,-0.501,3.743,-0.974877,0.162361,0.543031,100120.04,+30,+28,-170
70188,9.473,-0.161,2.471,-1.013189,0.147994,0.526535,100120.04,+30,+28,-170
70198,9.533,0.135,1.679,-0.887079,0.173536,0.562719,100120.04,+30,+29,-168
70208,9.564,0.418,1.512,-0.636455,0.211848,0.667012,100126.05,+29,+28,-168
70217,9.606,0.042,2.188,-0.382106,0.249627,0.747893,100121.17,+30,+28,-168
70227,9.478,-0.737,3.032,-0.267171,0.266655,0.800040,100120.44,+30,+28,-168
70238,9.359,-1.188,3.516,-0.324639,0.258673,0.827709,100120.23,+28,+28,-167
70248,9.356,-1.350,3.629,-0.453941,0.230471,0.840480,100120.23,+28,+26,-168
70258,9.438,-1.278,3.364,-0.563024,0.202802,0.853783,100123.99,+28,+25,-168
70268,9.612,-0.879,3.081,-0.636455,0.198013,0.882517,100121.54,+28,+25,-165
70278,9.680,-0.599,3.024,-0.639648,0.215572,0.924553,100118.18,+28,+26,-165
70288,9.671,-0.483,3.027,-0.605060,0.241114,0.995324,100118.18,+28,+23,-167
70298,9.723,-0.649,3.409,-0.562492,0.268783,1.084186,100123.98,+27,+22,-166
70307,9.799,-0.852,3.531,-0.588033,0.291664,1.169856,100123.98,+28,+22,-165
70318,9.987,-1.073,3.461,-0.658804,0.284214,1.248076,100121.35,+28,+22,-165
70328,10.389,-1.267,3.192,-0.723721,0.248563,1.329489,100120.30,+28,+20,-165
70338,10.911,-1.827,2.650,-0.767354,0.211315,1.398663,100120.37,+28,+20,-165
70347,11.475,-2.280,2.335,-0.818437,0.187903,1.455067,100120.37,+27,+18,-163
70358,11.660,-2.291,2.317,-0.855684,0.162361,1.504553,100123.30,+27,+18,-163
70368,11.518,-2.228,2.409,-0.873244,0.150123,1.565213,100119.96,+27,+15,-165
70378,11.489,-1.898,2.062,-0.881758,0.104361,1.651947,100122.15,+27,+14,-165
70388,11.593,-1.751,2.208,-0.859409,0.052747,1.756773,100121.08,+25,+13,-165
70397,11.920,-1.547,2.117,-0.805134,0.008049,1.891397,100120.97,+25,+13,-165
70408,12.109,-1.314,2.223,-0.718932,-0.018024,2.027617,100121.81,+25,+10,-165
70418,12.344,-1.546,2.174,-0.593886,-0.043565,2.161709,100121.81,+25,+8,-165
70428,13.194,-2.307,1.638,-0.500235,-0.063253,2.282497,100120.03,+23,+4,-165
70437,13.822,-2.497,1.269,-0.501299,-0.079749,2.385727,100123.28,+23,+4,-165
70448,13.602,-1.859,1.441,-0.528437,-0.110079,2.485763,100123.28,+23,-2,-167
70458,13.303,-1.204,1.957,-0.527372,-0.147859,2.614002,100121.61,+23,-4,-167
70468,13.669,-0.915,2.449,-0.517794,-0.187235,2.773635,100124.75,+21,-10,-167
70478,14.825,-0.313,2.743,-0.546528,-0.237253,2.926883,100123.08,+21,-10,-167
70488,16.810,0.872,3.236,-0.626345,-0.360703,3.088112,100119.73,+21,-16,-168
70498,18.621,2.729,4.249,-0.672106,-0.520335,3.231249,100119.73,+21,-21,-169
70508,20.653,5.207,4.541,-0.795024,-0.555987,3.329690,100120.49,+21,-29,-170
70518,23.145,8.245,5.205,-1.149409,-0.555455,3.415359,100118.87,+21,-29,-170
70529,24.871,12.753,5.516,-1.681518,-0.559712,3.459524,100118.98,+22,-37,-174
70538,24.300,14.635,4.821,-2.289720,-0.615583,3.506350,100118.98,+22,-44,-176
70548,22.410,11.353,1.838,-2.390821,-0.747014,3.618625,100118.98,+25,-52,-180
70558,19.091,2.920,2.119,-1.413335,-0.676776,3.833065,100123.83,+25,-52,-180
70567,16.062,-3.406,6.432,-0.287391,-0.593235,4.156056,100117.59,+28,-65,-184
70578,15.588,-5.632,8.864,0.265471,-0.441583,4.254496,100120.06,+29,-76,-185
70588,16.380,-2.403,8.201,0.383067,-0.172868,3.837854,100116.77,+30,-89,-186
70598,15.486,5.538,6.501,0.583141,-0.019620,3.022662,100116.77,+30,-89,-186
70608,11.021,5.651,4.690,0.862498,0.052215,2.316020,100121.77,+31,-101,-189
70618,7.488,0.925,2.421,0.863562,-0.119125,1.831268,100120.26,+29,-112,-188
70628,6.132,-2.664,1.725,1.047140,-0.120721,1.271489,100118.82,+26,-124,-188
70638,5.550,-3.259,2.116,0.997122,-0.030262,0.703196,100118.82,+26,-124,-188
70648,4.402,-0.478,0.903,0.393710,-0.255877,-0.077941,100121.23,+24,-132,-189
70658,4.262,0.641,0.659,-0.310804,-0.349528,-0.879831,100121.23,+17,-138,-189
70668,2.951,0.806,0.832,-0.702969,-0.365492,-1.535922,100121.66,+9,-141,-191
70678,2.006,1.383,1.499,-0.853024,-0.375602,-2.070160,100115.11,+9,-141,-191
70688,1.073,0.398,1.799,-0.636987,-0.334097,-2.543206,100119.19,+3,-145,-195
70697,0.702,-0.519,2.197,-0.299097,-0.176593,-2.930050,100119.19,-9,-145,-195
70708,1.079,0.166,1.058,0.039324,-0.186703,-3.226967,100120.34,-19,-146,-195
70718,1.643,0.811,0.161,0.449049,-0.221822,-3.520159,100119.13,-30,-146,-195
70728,2.806,0.724,0.649,0.969452,-0.144666,-3.852728,100117.09,-30,-148,-194
70738,4.321,1.150,1.284,1.369599,-0.104758,-4.239572,100118.51,-46,-146,-190
70748,5.499,0.868,1.472,1.571801,-0.115400,-4.581718,100118.55,-59,-145,-188
70758,6.119,0.053,1.322,1.699507,-0.109015,-4.797223,100115.20,-74,-144,-184
70768,6.631,-0.588,1.521,1.736755,-0.087198,-4.999424,100112.01,-74,-144,-184
70778,6.938,-1.041,2.014,1.703764,-0.099437,-5.203754,100112.01,-92,-136,-179
70788,7.705,-0.869,1.988,1.593617,-0.200538,-5.433094,100112.27,-111,-129,-175
70798,8.965,-0.815,1.748,1.435048,-0.301106,-5.665626,100112.27,-130,-120,-174
70808,10.706,-0.739,1.460,1.230718,-0.391033,-5.865167,100110.74,-130,-120,-174
70813,11.950,-1.425,1.256,1.095562,-0.437858,-5.989149,100113.88,-151,-98,-172
70823,13.311,-2.892,1.305,0.972113,-0.454886,-6.103552,100110.38,-151,-98,-172
70833,14.696,-4.493,1.556,0.695948,-0.478831,-6.227534,100110.74,-170,-76,-172
70843,15.591,-4.959,2.372,0.247379,-0.517143,-6.347259,100110.74,-183,-48,-175
70853,16.277,-5.000,3.169,-0.203850,-0.565033,-6.470176,100111.46,-189,-11,-178
70863,16.856,-4.727,3.350,-0.461391,-0.592702,-6.580855,100110.57,-189,-11,-178
70873,17.783,-4.583,3.435,-0.442235,-0.568757,-6.650561,100114.13,-189,+21,-182
70883,18.542,-5.142,3.654,-0.249079,-0.517675,-6.629277,100115.43,-181,+51,-185
70893,19.117,-6.180,4.169,-0.046877,-0.455418,-6.487204,100115.43,-168,+82,-188
70903,20.313,-6.798,5.192,0.123398,-0.353253,-6.244561,100117.86,-168,+82,-188
70913,20.932,-7.122,5.982,0.270792,-0.196281,-5.913589,100117.23,-157,+100,-191
70923,20.205,-10.528,5.865,0.457031,0.041040,-5.480452,100116.86,-148,+115,-194
70933,18.903,-13.803,5.482,0.483104,0.266655,-4.960048,100117.70,-138,+132,-195
70943,16.396,-17.488,4.970,0.279838,0.455022,-4.401333,100117.70,-138,+132,-195
70953,14.284,-19.923,5.012,-0.095831,0.594434,-3.692563,100119.02,-135,+142,-195
70963,13.321,-20.137,3.488,-0.519391,0.523132,-2.753921,100120.34,-131,+151,-194
70973,12.656,-19.554,2.535,-0.697115,0.389040,-1.644473,100123.48,-126,+159,-194
70983,11.907,-19.048,2.913,-0.559299,0.282618,-0.477024,100120.18,-130,+159,-193
70993,11.155,-17.112,3.873,-0.273556,0.231536,0.604223,100120.18,-130,+158,-193
71003,11.156,-15.897,4.445,0.189912,0.271444,1.538608,100121.81,-135,+154,-192
71013,11.637,-14.308,4.664,0.656572,0.318269,2.331984,100119.72,-139,+149,-193
71023,12.301,-9.024,5.563,1.082260,0.372013,2.896552,100120.25,-149,+135,-193
71033,13.066,20.551,7.351,1.322773,0.289536,2.843873,100116.58,-149,+135,-193
71043,21.523,43.741,-5.900,0.291544,-0.152116,0.894755,100116.58,-153,+126,-193
71053,22.117,-8.306,-15.453,-0.725849,-0.776280,1.522645,100126.92,-152,+128,-195
71063,23.872,-24.722,-0.587,2.368369,0.876985,3.258387,100125.34,-162,+107,-195
71073,22.015,-10.460,2.574,1.367471,0.807278,3.820295,100119.22,-162,+107,-195
71084,10.832,-0.319,3.717,-0.258125,0.449701,3.381304,100119.02,-167,+94,-194
71093,5.865,-4.073,9.006,0.055288,0.822177,3.046607,100119.02,-169,+86,-191
71103,10.604,-7.698,7.743,0.430957,0.744489,2.866754,100119.77,-175,+71,-190
71113,11.191,-1.604,4.948,0.508113,0.543884,2.660295,100118.92,-175,+71,-190
71123,8.828,-1.620,3.498,0.917838,0.627957,2.359653,100119.39,-178,+61,-188
71133,9.293,-2.374,2.868,1.205177,0.617315,2.089874,100118.19,-180,+54,-186
71143,10.444,-3.797,1.984,1.070553,0.455554,2.111690,100118.19,-184,+40,-184
71153,10.719,-3.937,1.392,0.490021,0.202802,2.052094,100122.44,-184,+40,-184
71163,11.410,-4.413,1.825,-0.160217,0.105958,1.870112,100121.80,-184,+34,-183
71173,11.803,-3.391,2.462,-0.900913,0.015499,1.709415,100121.55,-184,+30,-184
71183,10.875,-1.977,1.724,-1.444730,-0.068574,1.584901,100118.30,-186,+21,-182
71193,9.593,0.008,0.831,-1.364381,0.013903,1.388021,100118.30,-186,+21,-182
71203,9.207,2.080,1.769,-0.757244,0.198545,1.202847,100120.74,-186,+18,-182
71214,9.114,2.246,2.987,-0.157024,0.318269,1.128883,100119.23,-186,+18,-182
71223,8.775,0.441,3.131,0.248444,0.348600,1.113984,100117.80,-187,+8,-180
71233,8.951,-0.542,2.425,0.434150,0.334765,1.090039,100117.80,-187,+8,-180
71243,9.684,-0.724,2.276,0.436278,0.354453,1.018737,100117.80,-187,+5,-179
71254,9.961,-1.347,3.087,0.290480,0.365095,0.927746,100121.84,-188,+4,-178
71263,9.388,-1.899,4.012,-0.097428,0.324655,0.858040,100118.79,-189,-4,-176
71273,8.767,-1.715,4.166,-0.605593,0.252288,0.779287,100119.79,-189,-4,-176
71283,8.632,-0.730,3.313,-0.928583,0.180808,0.697342,100122.20,-188,-4,-176
71293,9.139,-0.035,1.935,-0.934436,0.161297,0.671269,100122.20,-188,-4,-176
71304,9.760,0.471,0.937,-0.732767,0.202270,0.728205,100123.01,-189,-11,-174
71313,10.147,0.090,1.245,-0.442235,0.261334,0.816535,100121.76,-189,-11,-174
71323,9.912,-0.599,2.295,-0.275152,0.304435,0.872939,100120.87,-189,-12,-173
71333,9.390,-1.322,3.093,-0.260785,0.315077,0.879324,100122.02,-189,-13,-173
71344,9.023,-1.736,3.356,-0.332088,0.294857,0.872407,100122.02,-190,-20,-171
71353,9.055,-1.511,3.312,-0.448088,0.265591,0.867086,100124.30,-190,-20,-171
71363,9.419,-1.536,3.437,-0.574198,0.232600,0.869214,100119.91,-189,-21,-170
71373,9.869,-1.400,3.376,-0.676895,0.224086,0.859636,100121.38,-190,-22,-170
71384,10.094,-1.078,3.218,-0.725849,0.228875,0.860168,100120.01,-190,-30,-169
71393,10.088,-1.180,3.003,-0.695519,0.240581,0.875599,100120.01,-190,-30,-169
71403,10.136,-1.363,3.054,-0.716804,0.271444,0.902737,100122.27,-188,-29,-168
71413,10.324,-1.651,3.169,-0.821097,0.279958,0.944773,100120.85,-189,-31,-168
71424,10.171,-1.599,3.716,-0.999354,0.301242,0.999581,100119.54,-189,-39,-167
71434,10.169,-1.587,3.672,-1.249977,0.330508,1.059709,100119.02,-187,-39,-167
71443,10.632,-1.303,3.253,-1.426638,0.304967,1.121434,100119.02,-187,-39,-167
71453,10.928,-1.053,3.236,-1.409078,0.236857,1.202847,100120.87,-188,-41,-167
71463,10.991,-1.128,2.605,-1.299464,0.185242,1.298094,100123.43,-187,-50,-166
71474,11.191,-1.520,2.478,-1.175482,0.170875,1.412498,100120.80,-186,-52,-167
71483,11.478,-1.338,2.627,-1.067464,0.141609,1.554039,100119.82,-186,-52,-167
71493,11.761,-0.930,2.389,-0.931776,0.080416,1.700901,100119.82,-185,-57,-167
71503,12.108,-1.261,2.578,-0.772675,0.029866,1.850956,100122.78,-184,-68,-168
71514,12.242,-1.557,2.396,-0.685941,0.005389,1.990369,100123.58,-182,-71,-168
71519,12.417,-1.775,2.159,-0.663593,-0.012171,2.085085,100121.95,-182,-71,-168
71528,12.416,-1.568,2.045,-0.629538,-0.044629,2.182993,100121.95,-180,-80,-169
71538,12.736,-1.534,1.733,-0.546528,-0.101565,2.324534,100119.80,-180,-80,-169
71548,13.446,-1.684,1.714,-0.457666,-0.146262,2.466075,100119.80,-176,-92,-170
71559,14.070,-1.700,1.706,-0.416161,-0.181914,2.598571,100123.44,-173,-97,-172
71569,14.418,-1.264,1.954,-0.433189,-0.210116,2.734791,100121.08,-171,-108,-173
71578,14.569,-0.634,2.316,-0.455538,-0.221822,2.873139,100120.83,-171,-108,-173
71588,15.137,0.112,2.553,-0.512473,-0.235125,3.039158,100120.83,-165,-121,-175
71599,16.238,0.974,2.427,-0.577923,-0.267583,3.175910,100120.83,-160,-128,-177
71609,18.177,2.161,2.823,-0.618895,-0.388372,3.295635,100122.54,-157,-140,-180
71618,19.510,4.475,4.560,-0.691794,-0.554923,3.423341,100124.38,-157,-140,-180
71628,21.564,8.087,5.298,-0.950932,-0.567161,3.521249,100119.87,-148,-154,-184
71639,25.113,11.368,6.022,-1.549555,-0.510225,3.514864,100120.71,-143,-160,-189
71648,26.170,13.867,6.231,-2.571738,-0.574079,3.430790,100120.71,-137,-170,-198
71659,22.992,12.158,4.808,-3.207077,-0.785858,3.466974,100119.62,-129,-180,-209
71668,18.327,4.620,4.654,-2.047610,-0.678904,3.788900,100119.15,-129,-180,-209
71678,16.137,-1.513,8.420,-0.232052,-0.352189,4.299193,100122.79,-125,-186,-212
71689,16.560,-5.457,9.454,0.911452,-0.124978,4.708386,100122.79,-118,-204,-212
71699,16.866,-4.817,7.967,1.021599,0.066582,4.388588,100118.50,-110,-219,-211
71708,15.711,1.886,6.290,0.946039,0.066582,3.420680,100120.91,-110,-219,-211
71718,12.230,2.704,3.810,0.869948,-0.101033,2.593250,100120.91,-111,-223,-209
71729,10.152,-1.768,1.517,0.519820,-0.305895,2.034002,100117.39,-111,-228,-209
71738,8.451,-2.475,-0.101,0.411269,-0.497455,1.434314,100118.34,-111,-232,-210
71748,6.308,-1.643,0.119,0.208003,-0.592170,0.917636,100118.34,-111,-232,-210
71754,5.651,0.208,-0.834,-0.080400,-0.719877,0.340829,100120.89,-119,-226,-214
71763,5.019,1.860,-0.335,-0.467776,-0.773088,-0.162547,100121.83,-119,-226,-214
71774,3.556,1.796,0.410,-0.734363,-0.790647,-0.816510,100119.73,-125,-220,-220
71783,2.402,1.328,0.379,-0.798748,-0.825234,-1.434821,100117.69,-133,-212,-226
71793,1.429,0.582,0.246,-0.647097,-0.794372,-1.942454,100117.69,-147,-194,-231
71803,0.682,0.332,0.114,-0.380510,-0.714556,-2.355371,100121.16,-147,-194,-231
71814,0.446,1.084,0.095,-0.029850,-0.644317,-2.723059,100120.38,-157,-181,-236
71824,1.043,1.659,-0.189,0.500664,-0.581528,-3.031151,100119.54,-167,-164,-238
71833,2.343,1.416,-0.404,1.024260,-0.540556,-3.349352,100117.76,-182,-140,-241
71843,3.447,0.877,0.094,1.436645,-0.500647,-3.663829,100117.76,-182,-140,-241
71854,4.789,0.173,0.594,1.781984,-0.468721,-4.006508,100118.11,-192,-122,-241
71864,5.219,-0.508,0.604,1.973011,-0.483620,-4.341737,100118.00,-200,-97,-242
71873,5.314,-0.922,0.901,1.986314,-0.543748,-4.634929,100112.77,-210,-63,-246
71883,5.580,-0.995,1.326,1.981525,-0.598024,-4.947278,100113.92,-210,-63,-246
71894,6.271,-0.886,1.769,1.983654,-0.646978,-5.254305,100113.92,-211,-32,-249
71904,7.304,-0.793,1.936,1.911287,-0.699124,-5.515571,100114.31,-207,+6,-254
71913,8.476,-0.705,1.870,1.795819,-0.742225,-5.745442,100113.63,-196,+51,-263
71923,9.900,-1.214,1.722,1.641507,-0.782133,-5.982231,100111.06,-175,+88,-270
71933,11.353,-1.897,1.198,1.322773,-0.891748,-6.217424,100107.61,-175,+88,-270
71944,12.902,-3.120,0.637,0.970517,-0.964115,-6.427075,100107.61,-143,+128,-275
71954,14.926,-4.156,0.917,0.541104,-0.964647,-6.649497,100113.10,-103,+166,-283
71963,16.676,-4.062,2.220,-0.031978,-0.961987,-6.798488,100111.79,-59,+188,-283
71973,17.597,-4.055,3.949,-0.456602,-0.939106,-6.882029,100110.01,-59,+188,-283
71984,18.484,-5.378,4.949,-0.557171,-0.882702,-6.935772,100111.63,-11,+205,-281
71989,19.180,-6.249,5.357,-0.483739,-0.795436,-6.990579,100111.63,-11,+205,-281
71998,19.907,-7.360,6.005,-0.325703,-0.654427,-7.029955,100111.63,+37,+214,-282
72008,20.608,-9.094,6.851,-0.145318,-0.441051,-6.941625,100114.78,+74,+205,-276
72018,21.892,-10.227,7.182,-0.064437,-0.263859,-6.629809,100115.14,+104,+194,-271
72029,22.059,-10.668,6.757,-0.042088,-0.049950,-6.162616,100116.50,+104,+194,-271
72039,20.587,-13.241,6.016,0.004737,0.190031,-5.551222,100114.19,+130,+184,-274
72049,18.693,-16.086,5.682,0.066994,0.366159,-4.808397,100120.47,+140,+166,-269
72058,16.465,-18.626,5.454,-0.012290,0.447572,-4.087389,100121.67,+150,+154,-267
72069,14.700,-21.235,5.800,-0.292180,0.432141,-3.371701,100121.67,+150,+154,-267
72079,12.636,-22.244,5.615,-0.673171,0.382123,-2.475628,100121.84,+160,+147,-270
72088,11.506,-21.340,4.660,-0.943482,0.340618,-1.360858,100121.67,+160,+140,-264
72098,11.290,-20.035,4.095,-0.843446,0.321994,-0.164675,100121.67,+163,+137,-262
72109,11.179,-18.471,4.747,-0.468308,0.342214,0.958608,100120.66,+169,+137,-266
72119,11.867,-16.821,5.702,-0.044217,0.343279,1.912149,100121.18,+169,+134,-266
72129,12.873,-11.902,6.195,0.241526,0.366691,2.665084,100117.10,+163,+130,-263
72138,14.504,14.265,6.228,0.427232,0.274636,2.902937,100118.35,+164,+129,-263
72148,21.598,47.183,-5.845,-0.250675,-0.269180,1.248608,100123.78,+172,+128,-266
72159,23.213,2.111,-14.591,-1.161115,-0.908776,1.466773,100126.41,+172,+128,-266
72169,22.210,-22.503,-0.658,2.010259,0.825370,3.472827,100119.59,+164,+122,-262
72179,21.324,-12.829,6.000,2.372094,1.240948,4.071451,100118.23,+157,+120,-266
72188,10.270,-1.712,8.031,0.742241,0.890287,4.076240,100118.23,+152,+120,-271
72199,3.887,-3.921,7.739,0.620388,0.992453,3.531359,100118.23,+152,+120,-271
72209,8.299,-5.706,4.378,0.929012,0.872728,3.184956,100122.38,+143,+115,-267
72218,8.666,-2.552,5.383,1.362682,0.936581,2.873139,100118.88,+140,+114,-271
72228,8.478,-3.086,3.616,1.423874,0.765242,2.686369,100119.50,+137,+111,-276
72239,11.488,-5.372,0.385,1.237104,0.539627,2.595378,100118.55,+137,+111,-276
72249,12.496,-5.127,1.117,0.725746,0.430013,2.576754,100118.55,+130,+106,-273
72259,11.089,-5.135,3.726,-0.113391,0.334765,2.317085,100119.23,+129,+109,-274
72268,9.813,-2.111,3.573,-0.841849,0.177792,2.012718,100120.55,+129,+112,-278
72279,9.125,-1.332,1.620,-0.928051,0.126178,1.806259,100120.79,+129,+112,-278
72289,9.940,0.330,0.897,-0.441171,0.237921,1.576388,100120.79,+123,+110,-271
72299,10.523,0.619,2.074,0.037196,0.372545,1.438039,100119.04,+123,+112,-273
72308,10.008,-1.358,2.455,0.337306,0.417774,1.359819,100119.04,+121,+112,-278
72318,9.400,-1.768,1.564,0.515563,0.405535,1.253929,100121.55,+121,+112,-278
72329,9.581,-1.131,1.157,0.662957,0.430013,1.153360,100120.87,+117,+107,-271
72339,10.213,-2.287,1.614,0.675728,0.440123,1.062370,100120.71,+116,+108,-276
72348,10.724,-3.811,2.133,0.308040,0.406600,0.962333,100120.71,+115,+108,-278
72358,10.504,-4.116,2.698,-0.366675,0.373609,0.802168,100125.70,+115,+108,-278
72369,9.677,-2.685,2.584,-1.016913,0.306031,0.623911,100121.49,+111,+106,-271
72379,9.308,-0.720,2.507,-1.281372,0.258673,0.531324,100122.80,+111,+112,-273
72389,9.364,0.074,2.384,-1.164308,0.249627,0.524407,100122.66,+110,+114,-275
72398,9.832,0.410,2.203,-0.847170,0.279958,0.558994,100121.97,+110,+114,-275
72409,9.662,-0.084,2.294,-0.515134,0.325719,0.598902,100124.95,+106,+113,-267
72419,9.571,-1.121,2.964,-0.338473,0.340086,0.655838,100124.95,+107,+118,-270
72429,9.448,-1.829,3.362,-0.337409,0.323591,0.645196,100121.14,+106,+117,-272
72438,9.140,-1.928,3.389,-0.454473,0.296985,0.598370,100122.39,+106,+117,-272
72449,9.012,-1.875,3.249,-0.571538,0.267187,0.562187,100122.39,+102,+115,-265
72459,9.226,-1.665,2.947,-0.648694,0.233664,0.559526,100124.08,+102,+120,-269
72469,9.601,-1.430,2.851,-0.675299,0.219297,0.569104,100121.56,+101,+122,-269
72479,9.997,-1.259,2.852,-0.676363,0.232600,0.587728,100120.94,+101,+122,-269
72488,10.100,-1.016,2.994,-0.657739,0.263462,0.607948,100120.41,+98,+118,-263
72499,9.899,-0.883,3.200,-0.656675,0.304967,0.651049,100120.41,+99,+125,-266
72509,9.667,-0.849,3.783,-0.694987,0.371480,0.700003,100121.08,+97,+125,-266
72519,9.757,-0.958,3.771,-0.754583,0.393829,0.753746,100120.11,+97,+125,-266
72528,10.037,-1.372,3.539,-0.815244,0.373609,0.825581,100117.70,+93,+123,-260
72539,10.309,-1.287,3.049,-0.914748,0.349132,0.912315,100117.70,+92,+129,-263
72549,10.552,-1.431,2.431,-0.965831,0.323591,0.994792,100117.70,+89,+129,-263
72559,10.661,-1.442,2.596,-0.982858,0.329444,1.104406,100123.63,+89,+129,-263
72568,11.035,-1.394,2.209,-0.997757,0.325187,1.223067,100122.67,+86,+127,-256
72580,11.291,-1.439,2.151,-0.980730,0.287584,1.339422,100120.97,+84,+134,-259
72589,11.277,-1.250,2.201,-0.927519,0.234728,1.450278,100120.97,+81,+132,-258
72599,11.342,-1.265,1.979,-0.855684,0.199609,1.586498,100120.97,+75,+132,-251
72609,11.619,-1.258,1.978,-0.765758,0.171407,1.728571,100123.43,+75,+130,-251
72619,12.228,-1.416,1.854,-0.650822,0.132563,1.881819,100119.48,+74,+134,-254
72629,12.751,-1.875,1.502,-0.544400,0.111811,2.013782,100121.29,+67,+130,-254
72639,13.066,-2.116,1.397,-0.506620,0.088398,2.130846,100121.29,+63,+127,-249
72649,13.044,-1.825,1.547,-0.505556,0.041040,2.258020,100121.91,+63,+127,-249
72658,13.103,-1.504,1.870,-0.466180,-0.014299,2.401690,100121.91,+59,+129,-251
72669,13.225,-0.952,2.346,-0.408712,-0.041969,2.548020,100121.33,+52,+124,-250
72679,13.522,-0.681,2.792,-0.359758,-0.048886,2.690626,100120.50,+48,+119,-244
72689,14.300,-0.648,3.084,-0.396473,-0.057400,2.844405,100124.22,+48,+119,-244
72698,15.499,-0.311,3.132,-0.542272,-0.064850,2.975304,100124.22,+42,+120,-247
72709,16.608,0.839,3.252,-0.747666,-0.112739,3.081726,100121.23,+36,+112,-244
72719,17.819,2.505,4.328,-0.911556,-0.229804,3.165268,100120.34,+30,+105,-239
72729,19.298,4.748,4.997,-1.170693,-0.275565,3.239763,100116.94,+30,+105,-239
72739,21.976,7.682,4.915,-1.742711,-0.252684,3.236570,100121.02,+25,+106,-241
72749,24.524,11.556,4.521,-2.591958,-0.255877,3.167928,100120.70,+20,+98,-236
72759,23.977,13.686,3.006,-3.276251,-0.342611,3.115781,100117.77,+16,+93,-229
72769,21.786,10.928,0.458,-3.136839,-0.486280,3.141855,100117.67,+16,+93,-229
72778,18.395,1.490,0.873,-1.535188,-0.440519,3.480277,100117.67,+12,+94,-231
72788,16.225,-6.050,5.438,-0.088382,-0.385712,4.183726,100119.97,+8,+80,-229
72799,16.519,-8.660,6.788,0.172352,-0.389969,4.394441,100119.97,+5,+67,-226
72809,16.253,-4.187,9.462,0.250040,-0.094648,3.805928,100125.21,+5,+67,-226
72819,14.941,4.596,8.752,0.546957,0.105426,2.975304,100120.96,+0,+62,-230
72829,10.585,5.461,5.782,0.706590,0.034655,2.248442,100120.85,+0,+46,-229
72839,7.833,1.683,2.105,0.590058,-0.237785,1.758901,100117.62,-1,+38,-227
72849,5.827,-3.830,3.862,0.667214,-0.131363,1.467305,100117.62,-1,+38,-227
72859,4.645,-0.266,2.455,0.710847,-0.245235,0.834095,100119.94,-1,+36,-234
72869,4.545,2.689,0.773,0.208535,-0.420299,-0.108804,100121.48,+0,+28,-231
72879,4.184,2.420,0.709,-0.259721,-0.460207,-0.793629,100116.19,+1,+26,-230
72889,3.257,1.619,0.786,-0.371996,-0.458611,-1.382675,100116.19,+1,+26,-230
72899,2.172,1.024,0.844,-0.378914,-0.501712,-1.836564,100116.19,+3,+30,-238
72909,1.308,-0.490,1.150,-0.248547,-0.460207,-2.249481,100121.09,+7,+26,-236
72919,1.259,-0.574,0.513,-0.074547,-0.466060,-2.605463,100118.79,+10,+28,-236
72929,1.620,0.579,-0.187,0.150003,-0.528849,-2.934307,100116.74,+10,+28,-236
72939,2.282,1.019,-0.187,0.529398,-0.507565,-3.286031,100118.21,+14,+32,-244
72949,3.401,1.125,0.615,0.942315,-0.454354,-3.648398,100118.21,+18,+27,-242
72960,4.528,1.270,1.110,1.263177,-0.458079,-4.005444,100119.07,+21,+26,-241
72969,5.081,0.598,1.515,1.531360,-0.445308,-4.276819,100115.66,+21,+26,-241
72979,5.450,0.031,1.979,1.712810,-0.415510,-4.529572,100115.63,+27,+27,-251
72989,5.973,-0.178,2.374,1.707489,-0.433069,-4.797223,100115.63,+28,+20,-248
72999,6.523,-0.614,2.422,1.607984,-0.502244,-5.095737,100114.56,+29,+19,-249
73009,7.589,-0.830,2.605,1.470700,-0.550134,-5.396911,100114.56,+29,+19,-249
73019,9.073,-1.079,2.502,1.290315,-0.597491,-5.666690,100111.58,+35,+16,-258
73029,10.858,-1.590,2.070,1.048205,-0.633675,-5.872617,100113.05,+31,+10,-254
73039,12.071,-2.458,1.694,0.842278,-0.614519,-6.058855,100110.17,+28,+8,-256
73050,13.350,-3.574,1.703,0.640431,-0.558825,-6.258396,100112.34,+26,+7,-266
73059,14.625,-3.611,2.235,0.361783,-0.543748,-6.375460,100112.34,+26,+7,-266
73069,16.228,-3.501,3.064,-0.026657,-0.561308,-6.447827,100110.52,+14,+10,-263
73079,17.662,-4.018,3.864,-0.251740,-0.521932,-6.520194,100111.39,+9,+20,-266
73090,18.303,-5.110,4.658,-0.270896,-0.426684,-6.589368,100111.45,+6,+31,-277
73099,18.752,-5.984,5.064,-0.203850,-0.329308,-6.621827,100117.66,+6,+31,-277
73109,19.164,-6.828,5.498,-0.125097,-0.187235,-6.610121,100112.96,+3,+48,-273
73119,19.976,-8.055,6.072,-0.178308,-0.072299,-6.511681,100114.52,+10,+61,-276
73128,20.873,-8.696,6.144,-0.364547,-0.000464,-6.296708,100114.52,+18,+70,-285
73139,20.374,-9.394,6.216,-0.496510,0.155444,-5.963607,100116.30,+18,+70,-285
73149,19.250,-11.976,5.985,-0.434253,0.337425,-5.505993,100116.30,+22,+78,-279
73159,18.007,-14.779,5.284,-0.364547,0.482691,-4.902581,100118.63,+30,+80,-281
73169,16.067,-17.171,4.721,-0.528969,0.566765,-4.285333,100119.63,+30,+80,-288
73179,13.767,-18.465,4.547,-0.805134,0.581132,-3.506325,100115.58,+30,+80,-288
73189,12.090,-18.610,3.660,-0.959978,0.528985,-2.464454,100116.42,+28,+84,-280
73199,11.896,-18.298,2.299,-0.781721,0.485884,-1.250711,100116.42,+28,+82,-281
73209,11.628,-17.804,1.304,-0.311868,0.449701,-0.036969,100121.68,+19,+78,-287
73220,11.148,-16.602,1.005,0.321343,0.418306,1.061306,100120.59,+19,+78,-287
73229,10.714,-15.132,1.126,0.976902,0.401279,1.982387,100119.07,+13,+74,-280
73239,10.662,-14.579,1.588,1.595746,0.416178,2.745433,100119.07,+9,+62,-284
73249,11.032,-11.581,2.804,2.009727,0.455554,3.332882,100119.07,+1,+48,-289
73260,11.172,5.201,6.313,1.999085,0.483223,3.439836,100119.25,+1,+48,-289
73269,12.451,47.921,5.636,1.487727,0.589645,1.945140,100120.56,-3,+38,-281
73279,20.659,24.295,-15.229,-1.055225,-0.730519,-0.134877,100118.16,-5,+35,-287
73284,21.888,-21.996,-11.512,-0.898785,-0.749675,1.385892,100123.28,-5,+35,-287
73294,25.825,-30.299,1.010,2.100718,0.708838,2.902937,100123.28,-14,+29,-290
73304,24.722,-11.219,5.776,1.620223,0.770563,3.842111,100121.97,-22,+20,-280
73314,11.634,0.847,5.548,-0.040492,0.441719,3.501029,100120.66,-22,+20,-280
73324,4.308,-2.719,7.814,0.398499,0.841333,3.198258,100120.39,-23,+12,-283
73334,11.357,-6.364,4.652,1.023195,0.610930,3.094497,100119.50,-32,+4,-287
73344,10.213,-3.129,2.577,1.123764,0.543884,2.754479,100119.50,-35,+0,-276
73354,8.951,-3.768,3.281,1.133342,0.651370,2.493213,100121.23,-36,-9,-280
73364,10.619,-4.326,2.417,0.927948,0.521535,2.366571,100119.71,-36,-9,-280
73374,10.850,-4.426,1.345,0.374554,0.299646,2.325598,100121.18,-41,-18,-282
73384,10.908,-4.700,2.179,-0.344859,0.129903,2.178736,100120.07,-40,-18,-275
73394,11.479,-3.245,3.049,-1.113225,-0.012171,2.012186,100120.07,-39,-20,-280
73404,10.486,-2.300,1.873,-1.497409,-0.064317,1.808388,100124.16,-39,-20,-280
73414,9.382,0.002,0.325,-1.158987,0.051682,1.529030,100121.95,-41,-20,-282
73424,9.718,1.179,1.816,-0.488528,0.258141,1.341195,100117.03,-41,-19,-275
73434,9.872,0.131,2.985,-0.048474,0.348600,1.258718,100118.23,-40,-23,-280
73444,9.199,-0.762,2.487,0.196829,0.364563,1.190608,100118.23,-40,-23,-280
73454,9.019,-0.604,2.276,0.407544,0.377334,1.118241,100120.05,-43,-27,-280
73464,9.426,-0.705,2.970,0.516095,0.392233,1.050663,100123.09,-44,-28,-272
73475,9.833,-1.909,3.581,0.396370,0.385315,0.954351,100119.84,-43,-32,-278
73484,9.685,-2.710,3.714,0.023893,0.325719,0.836223,100121.77,-43,-32,-278
73494,9.147,-1.939,3.348,-0.431061,0.247499,0.719159,100121.77,-46,-34,-278
73504,9.170,-0.609,2.713,-0.687537,0.198013,0.649453,100120.56,-46,-31,-271
73515,9.474,-0.196,1.940,-0.657207,0.209719,0.629232,100119.16,-45,-32,-278
73520,9.642,0.090,1.357,-0.535886,0.236857,0.664352,100123.39,-45,-32,-278
73529,9.721,0.216,1.123,-0.354437,0.275169,0.730865,100123.39,-49,-34,-277
73539,9.726,-0.460,1.888,-0.139997,0.324123,0.819196,100120.83,-48,-34,-270
73549,9.610,-1.571,2.941,-0.107538,0.342214,0.852719,100120.83,-48,-32,-270
73560,9.580,-2.243,3.518,-0.288987,0.319334,0.840480,100123.65,-48,-35,-276
73570,9.356,-2.400,3.119,-0.548657,0.279425,0.797379,100121.30,-50,-38,-275
73579,9.392,-2.129,2.635,-0.797152,0.253352,0.775563,100121.76,-50,-33,-269
73589,9.610,-1.538,2.931,-0.929647,0.231536,0.776627,100121.76,-50,-33,-269
73600,9.679,-0.944,3.228,-0.907831,0.226214,0.803764,100121.76,-48,-34,-276
73610,9.711,-0.524,3.363,-0.770015,0.232068,0.839416,100121.66,-51,-35,-275
73619,9.583,-0.728,3.745,-0.567281,0.248563,0.883049,100122.55,-50,-34,-269
73629,9.751,-1.647,3.957,-0.472033,0.282618,0.926150,100119.79,-50,-34,-269
73639,10.030,-2.119,4.254,-0.561427,0.315609,0.930407,100119.37,-50,-36,-275
73649,10.079,-2.051,4.034,-0.726914,0.317205,0.927214,100119.37,-53,-36,-274
73659,10.285,-2.270,3.417,-0.899849,0.310288,0.946370,100123.39,-52,-32,-268
73669,10.469,-1.930,2.915,-1.035537,0.302838,0.994792,100121.67,-52,-32,-268
73679,10.573,-1.400,2.439,-1.058418,0.282618,1.071416,100121.53,-51,-34,-276
73690,10.714,-1.296,2.354,-0.954657,0.265591,1.167195,100121.53,-54,-36,-273
73700,11.052,-1.680,2.724,-0.816308,0.259205,1.286388,100120.15,-53,-32,-268
73709,11.607,-2.094,2.209,-0.747666,0.237921,1.382168,100119.62,-53,-32,-268
73719,11.854,-2.380,2.009,-0.760969,0.204930,1.483268,100119.62,-52,-35,-276
73730,11.843,-2.086,1.834,-0.813648,0.173536,1.588094,100120.98,-55,-36,-273
73739,11.719,-1.661,1.686,-0.842381,0.143737,1.709415,100120.09,-53,-35,-268
73749,11.809,-1.371,1.623,-0.767354,0.103829,1.851488,100120.09,-53,-35,-268
73759,11.962,-0.995,1.997,-0.609849,0.050618,2.021764,100124.11,-52,-38,-276
73769,12.339,-1.197,2.274,-0.409776,0.016563,2.200021,100120.45,-55,-41,-273
73780,13.062,-1.763,2.179,-0.291116,0.001664,2.359653,100121.13,-52,-42,-268
73789,13.801,-1.754,2.386,-0.292180,-0.018024,2.493745,100116.73,-52,-42,-268
73799,14.058,-1.405,2.568,-0.341666,-0.026006,2.633158,100119.17,-52,-47,-276
73809,14.026,-0.894,2.808,-0.418822,-0.015363,2.778424,100118.77,-53,-51,-271
73820,14.305,-0.062,2.906,-0.510345,-0.022813,2.932736,100119.02,-50,-51,-268
73830,15.336,0.874,2.935,-0.588565,-0.065914,3.100350,100120.33,-50,-51,-268
73839,17.124,2.006,3.047,-0.603464,-0.151051,3.227525,100120.33,-49,-56,-276
73849,18.733,4.046,4.381,-0.646565,-0.292593,3.365341,100120.33,-48,-60,-271
73860,20.474,7.126,5.375,-0.834932,-0.307492,3.465378,100123.73,-45,-61,-269
73869,23.270,9.111,5.732,-1.390987,-0.220758,3.468038,100122.95,-45,-61,-269
73879,24.873,11.474,4.947,-2.393481,-0.191492,3.320644,100120.17,-43,-62,-279
73889,23.702,11.641,2.820,-3.378417,-0.282482,3.111525,100121.59,-42,-60,-276
73900,20.670,6.631,1.109,-3.250710,-0.361235,3.047139,100121.59,-38,-52,-275
73910,16.593,0.701,3.813,-1.647463,-0.158501,3.397267,100121.40,-38,-52,-275
73919,16.291,-2.525,6.739,-0.064969,-0.044097,3.960240,100121.96,-35,-55,-283
73929,16.730,-5.031,7.816,0.354866,0.122985,4.089010,100120.20,-32,-63,-276
73939,15.239,-2.573,8.960,0.265471,0.502912,3.472827,100120.20,-27,-68,-272
73950,13.726,3.652,7.349,0.126058,0.382655,2.483103,100120.20,-27,-68,-272
73959,10.576,3.057,2.417,-0.071354,-0.032923,1.697709,100119.02,-23,-73,-278
73969,8.903,-2.388,2.525,-0.104345,-0.087198,1.316718,100118.91,-20,-77,-271
73979,5.869,-2.064,3.073,0.129783,-0.016428,0.805893,100115.08,-16,-78,-269
73990,4.729,2.495,0.996,-0.299097,-0.318134,-0.133281,100117.64,-12,-78,-269
73999,4.919,3.294,0.109,-0.584840,-0.411785,-0.831409,100117.64,-12,-82,-275
74009,4.068,2.104,-0.108,-0.459262,-0.367088,-1.412473,100123.78,-14,-84,-268
74019,3.532,0.897,0.131,-0.443831,-0.420299,-1.877537,100121.22,-14,-83,-268
74030,2.980,-0.847,0.446,-0.378914,-0.414978,-2.254270,100119.23,-16,-86,-276
74040,2.557,-0.440,0.026,-0.142657,-0.419235,-2.622490,100118.87,-16,-86,-276
74049,2.505,0.275,-0.541,0.222370,-0.452758,-3.037536,100118.29,-23,-88,-268
74059,2.693,0.301,-0.374,0.675728,-0.422959,-3.441407,100116.66,-28,-86,-268
74070,3.282,0.883,0.321,1.115782,-0.400611,-3.821866,100116.66,-37,-88,-273
74080,4.336,1.146,0.696,1.421214,-0.444244,-4.175187,100119.18,-37,-88,-273
74089,5.120,0.424,0.691,1.650021,-0.477767,-4.460929,100118.45,-48,-87,-264
74099,5.727,0.045,1.317,1.777727,-0.490537,-4.742415,100118.45,-58,-81,-264
74110,6.339,-0.070,1.814,1.798657,-0.532929,-5.032415,100115.13,-69,-77,-270
74120,6.784,0.166,2.103,1.805929,-0.584721,-5.275589,100115.13,-69,-77,-270
74130,8.312,-0.491,2.014,1.907030,-0.653363,-5.449057,100112.62,-80,-65,-263
74139,8.939,-2.990,1.685,1.653746,-0.781069,-5.717240,100112.88,-86,-50,-266
74149,10.785,-1.766,1.625,1.290847,-0.877381,-6.022140,100112.88,-90,-38,-274
74160,12.775,-2.467,1.503,1.128553,-0.886959,-6.253607,100112.32,-90,-38,-274
74170,14.042,-3.688,1.471,0.969984,-0.858757,-6.386103,100111.70,-93,-14,-269
74179,15.204,-4.547,2.142,0.607086,-0.835344,-6.521791,100111.21,-87,+5,-275
74189,16.431,-4.729,3.035,0.157985,-0.833748,-6.650029,100111.21,-82,+25,-282
74200,17.467,-5.094,3.719,-0.036235,-0.757656,-6.755387,100111.21,-82,+25,-282
74210,18.006,-6.288,4.294,0.068058,-0.601748,-6.802744,100114.25,-69,+48,-277
74219,18.977,-7.626,4.834,0.288352,-0.428281,-6.811258,100114.41,-52,+60,-280
74229,19.498,-8.874,5.016,0.409673,-0.327712,-6.665460,100113.45,-39,+65,-285
74240,19.840,-9.216,4.863,0.414462,-0.277161,-6.382378,100114.81,-39,+65,-285
74250,20.570,-9.253,5.142,0.452774,-0.173400,-6.008837,100114.81,-30,+69,-278
74260,20.610,-10.891,5.641,0.454902,-0.063253,-5.519828,100116.29,-23,+67,-282
74269,19.459,-13.753,6.377,0.325600,0.068178,-5.032948,100117.21,-27,+66,-286
74279,17.294,-16.987,6.939,0.038260,0.210783,-4.558837,100118.96,-27,+66,-286
74290,14.513,-18.839,6.916,-0.411905,0.316673,-4.054398,100118.96,-28,+73,-280
74300,12.447,-19.455,6.500,-0.851427,0.366691,-3.350416,100118.73,-31,+76,-284
74309,11.752,-19.979,5.647,-1.128124,0.356581,-2.371866,100118.73,-39,+82,-286
74319,11.562,-19.324,4.384,-1.191978,0.278361,-1.254968,100119.68,-39,+82,-286
74330,11.343,-17.078,4.166,-0.955189,0.258673,-0.177446,100119.77,-40,+89,-280
74340,10.816,-15.061,4.804,-0.456070,0.294325,0.790462,100117.74,-45,+86,-286
74345,10.437,-13.928,5.152,-0.049538,0.346471,1.449746,100117.74,-45,+86,-286
74354,10.255,-12.889,4.755,0.353269,0.420435,2.004736,100119.35,-55,+82,-287
74364,10.773,-12.680,3.052,0.867819,0.481095,2.641672,100120.71,-61,+78,-283
74375,11.262,-6.619,2.937,1.208370,0.438526,3.148240,100121.91,-68,+63,-288
74385,11.279,23.320,5.031,1.295636,0.376269,2.873672,100117.88,-68,+63,-288
74394,18.000,57.786,-3.398,0.371893,0.105426,0.415856,100117.88,-77,+56,-291
74404,20.612,1.167,-17.427,-1.052033,-1.004555,0.361581,100125.19,-75,+64,-289
74415,23.474,-31.454,1.291,3.003708,0.996709,2.815671,100125.30,-83,+44,-293
74425,23.365,-12.624,5.532,3.221341,1.309590,3.610643,100119.91,-83,+44,-293
74434,13.143,-2.172,0.961,0.756608,0.544948,3.329690,100122.83,-92,+30,-293
74444,5.114,-3.173,4.597,0.406480,0.853572,2.850791,100122.83,-92,+26,-286
74455,11.597,-6.804,8.041,0.771507,0.933388,2.976369,100120.56,-97,+13,-290
74465,13.287,-2.231,5.544,0.672535,0.754600,2.692222,100122.92,-97,+13,-290
74475,9.347,-1.738,3.354,0.626774,0.689150,2.417653,100121.56,-102,+4,-287
74484,8.294,-2.939,3.405,0.911984,0.715755,2.230351,100118.94,-102,+0,-281
74494,9.553,-2.899,2.447,0.932205,0.585921,2.151066,100118.94,-105,-12,-286
74505,10.354,-3.806,1.332,0.586333,0.310288,2.069654,100121.58,-105,-12,-286
74515,11.331,-4.350,1.617,0.058480,0.174600,1.918534,100119.84,-108,-18,-284
74524,12.402,-3.239,2.803,-0.588033,0.089462,1.777525,100122.20,-104,-19,-280
74534,11.896,-2.341,2.280,-1.348418,-0.069106,1.766351,100118.95,-104,-24,-286
74545,9.720,-1.933,0.548,-1.514436,-0.043565,1.534883,100118.95,-104,-24,-286
74555,9.313,0.003,-0.068,-1.123335,0.152251,1.209232,100122.34,-106,-24,-285
74564,10.076,1.095,1.430,-0.656675,0.316141,1.061306,100120.52,-102,-21,-281
74574,9.770,0.014,2.215,-0.368272,0.381058,1.001709,100119.98,-104,-27,-286
74580,9.539,-0.523,2.429,-0.233648,0.407132,0.965526,100116.84,-104,-27,-286
74590,9.558,-0.696,2.405,-0.176180,0.408196,0.922425,100116.84,-106,-28,-283
74600,9.631,-0.894,2.319,-0.153299,0.408728,0.829838,100116.84,-104,-27,-279
74610,9.619,-1.106,3.044,-0.215556,0.412985,0.736719,100121.36,-104,-27,-279
74619,9.206,-1.280,4.030,-0.418822,0.358710,0.649985,100119.36,-106,-32,-283
74630,8.875,-0.903,4.523,-0.708290,0.276233,0.574425,100120.83,-108,-30,-280
74640,8.752,-0.404,4.321,-0.962638,0.210783,0.506847,100120.83,-104,-26,-277
74650,8.816,-0.070,3.531,-1.087684,0.162361,0.480242,100119.33,-104,-26,-277
74659,9.145,0.332,2.352,-1.018510,0.161297,0.489288,100119.33,-106,-29,-283
74670,9.370,0.594,1.430,-0.790767,0.201737,0.548352,100119.80,-108,-26,-280
74680,9.461,0.728,1.553,-0.483207,0.269315,0.651049,100122.58,-105,-24,-277
74690,9.395,0.220,2.480,-0.249079,0.327315,0.732462,100120.73,-105,-24,-277
74699,9.225,-0.736,3.464,-0.212896,0.346471,0.773434,100120.73,-108,-31,-283
74710,8.951,-0.806,3.871,-0.339006,0.307095,0.796847,100122.91,-110,-31,-278
74720,9.161,-1.310,3.259,-0.398602,0.267719,0.829838,100122.08,-107,-30,-275
74730,9.723,-1.526,2.674,-0.513005,0.249095,0.835159,100122.08,-107,-30,-275
74740,9.872,-1.328,2.674,-0.589629,0.244306,0.850058,100123.45,-110,-35,-281
74749,9.945,-1.153,2.721,-0.606125,0.251756,0.889434,100121.09,-110,-34,-277
74760,10.055,-0.902,2.431,-0.625281,0.261866,0.932003,100122.62,-108,-33,-275
74770,10.300,-0.630,2.566,-0.622088,0.277829,1.003838,100120.10,-108,-33,-275
74779,10.224,-0.769,3.582,-0.610382,0.303370,1.087911,100120.10,-111,-38,-281
74789,9.847,-0.761,4.347,-0.697115,0.311884,1.166663,100118.43,-112,-38,-275
74800,9.921,-1.005,4.229,-0.772675,0.284747,1.235305,100118.43,-110,-38,-273
74810,10.330,-1.533,3.855,-0.801941,0.241114,1.312461,100122.20,-110,-38,-273
74815,10.583,-1.918,3.617,-0.841317,0.215572,1.363544,100121.46,-111,-44,-280
74824,10.951,-2.212,2.996,-0.892400,0.187370,1.393342,100122.45,-112,-44,-274
74834,11.294,-2.178,2.415,-0.932308,0.150123,1.434847,100118.21,-112,-44,-274
74845,11.448,-1.939,2.474,-0.922730,0.129903,1.503489,100118.21,-109,-43,-274
74855,11.666,-1.778,2.125,-0.884950,0.109150,1.579580,100122.19,-109,-50,-280
74865,11.958,-1.991,1.618,-0.818437,0.069242,1.674828,100120.98,-108,-50,-275
74874,12.193,-1.854,1.311,-0.759904,0.019756,1.789232,100120.25,-108,-50,-275
74885,12.003,-1.659,1.262,-0.673171,-0.010574,1.919066,100118.58,-105,-51,-274
74895,11.730,-1.241,1.437,-0.547060,-0.054207,2.071782,100118.58,-105,-59,-280
74905,12.413,-1.541,1.882,-0.385299,-0.108483,2.243654,100123.45,-104,-62,-275
74914,13.854,-1.972,1.983,-0.313464,-0.133492,2.386259,100123.14,-104,-62,-275
74925,14.512,-1.908,2.273,-0.363483,-0.135088,2.480442,100124.03,-99,-66,-275
74935,14.028,-1.502,2.708,-0.456070,-0.137216,2.579415,100118.89,-97,-75,-281
74945,13.653,-1.027,2.803,-0.564088,-0.142538,2.700204,100118.89,-93,-78,-276
74955,14.127,-0.837,2.863,-0.716804,-0.160629,2.840681,100122.58,-93,-78,-276
74964,15.432,0.096,2.342,-0.938161,-0.207987,2.969983,100122.47,-89,-81,-276
74975,17.710,1.517,2.602,-1.135042,-0.383583,3.093433,100122.11,-85,-90,-283
74985,20.107,3.795,3.911,-1.315427,-0.591106,3.198791,100118.80,-79,-92,-278
74995,22.924,6.835,4.118,-1.690564,-0.646446,3.250405,100118.80,-79,-92,-278
75004,25.366,10.065,4.278,-2.411573,-0.619308,3.219011,100118.98,-73,-93,-282
75015,24.375,13.196,3.719,-3.293279,-0.654427,3.200919,100121.54,-68,-96,-292
75025,21.712,13.156,1.204,-3.495481,-0.884831,3.277543,100118.82,-64,-92,-290
75035,19.984,7.972,0.105,-2.222674,-1.014665,3.455800,100121.91,-64,-92,-290
75044,16.465,0.470,4.564,-0.520987,-1.037546,3.918735,100121.91,-57,-94,-293
75051,16.061,-2.708,7.055,0.663489,-1.009344,4.380606,100119.93,-50,-109,-298
75060,16.396,-3.443,8.671,1.457929,-0.693803,4.545028,100119.93,-50,-109,-298
75070,15.154,-1.571,9.349,1.897452,-0.115932,4.206074,100116.26,-48,-122,-287
75080,13.234,3.888,8.343,2.150204,0.185242,3.266901,100117.21,-45,-133,-282
75090,8.860,1.770,5.210,2.161910,0.028802,2.387855,100116.52,-44,-147,-280
75100,7.057,-0.551,1.942,1.875635,-0.318666,1.731764,100120.59,-44,-147,-280
75110,5.401,-4.456,4.703,1.922461,-0.070703,1.364608,100116.45,-47,-152,-267
75120,5.015,-0.076,3.124,1.668645,-0.247895,0.629232,100118.70,-46,-157,-265
75129,5.665,1.729,1.776,0.836425,-0.554923,-0.207244,100118.70,-49,-161,-266
75140,4.251,0.800,1.102,0.315489,-0.656024,-0.792565,100119.07,-49,-161,-266
75150,3.361,0.708,1.366,0.055288,-0.625693,-1.280510,100119.07,-55,-154,-260
75160,2.312,0.756,1.402,-0.087318,-0.708170,-1.688106,100118.73,-59,-149,-264
75170,1.253,0.169,1.260,-0.022932,-0.775216,-2.151041,100121.67,-64,-147,-266
75180,1.086,-0.482,1.371,0.130315,-0.804482,-2.573004,100119.38,-64,-147,-266
75190,1.984,-0.430,1.159,0.314957,-0.836409,-2.938563,100117.53,-70,-136,-261
75200,2.832,0.426,0.945,0.475122,-0.865143,-3.298270,100117.53,-74,-129,-265
75210,3.517,0.549,1.146,0.683177,-0.840133,-3.656912,100120.09,-79,-126,-268
75220,4.469,0.417,1.731,0.852388,-0.797033,-4.025132,100115.31,-79,-126,-268
75230,5.173,0.003,1.940,0.920498,-0.791711,-4.353975,100114.73,-85,-113,-263
75240,5.536,-0.511,2.022,0.921030,-0.781601,-4.641847,100114.73,-89,-106,-268
75250,5.945,-0.745,2.307,0.825251,-0.768299,-4.911094,100114.73,-96,-103,-268
75260,6.225,-0.876,2.739,0.742241,-0.739033,-5.167571,100116.63,-96,-103,-268
75270,6.904,-0.827,3.157,0.703930,-0.703381,-5.439479,100114.84,-105,-88,-265
75280,7.996,-0.699,3.441,0.629966,-0.673051,-5.717772,100112.84,-115,-82,-271
75290,9.722,-0.792,3.474,0.578352,-0.624629,-5.949240,100110.80,-130,-71,-273
75299,11.505,-1.393,3.219,0.538975,-0.537895,-6.142929,100110.80,-130,-71,-273
75311,12.918,-2.277,2.806,0.500131,-0.421363,-6.298305,100113.22,-142,-48,-273
75320,13.927,-2.722,2.718,0.454370,-0.287804,-6.373332,100112.64,-154,-28,-280
75330,15.284,-3.873,3.136,0.437343,-0.172336,-6.382910,100110.67,-166,-2,-283
75340,16.903,-4.765,3.928,0.444792,-0.099437,-6.407387,100110.67,-166,-2,-283
75351,18.123,-5.031,4.340,0.468205,-0.086134,-6.430800,100117.05,-169,+31,-283
75360,19.008,-5.599,4.460,0.493746,-0.099969,-6.452084,100115.12,-169,+59,-291
75370,19.560,-7.192,4.679,0.382003,-0.112207,-6.438249,100115.12,-167,+93,-293
75380,19.612,-8.204,5.098,0.066994,-0.160629,-6.330763,100115.07,-167,+93,-293
75389,20.006,-8.160,5.755,-0.174052,-0.176593,-6.169002,100116.32,-150,+131,-293
75400,20.248,-8.705,7.041,-0.290051,-0.076024,-5.888048,100116.32,-133,+159,-300
75410,19.522,-12.203,7.613,-0.383703,0.129371,-5.487901,100115.14,-113,+188,-298
75420,16.742,-15.483,7.023,-0.704033,0.367756,-4.971223,100120.27,-86,+210,-292
75430,14.090,-18.095,5.770,-1.203684,0.579535,-4.362489,100117.13,-86,+210,-292
75440,13.094,-19.749,4.432,-1.652252,0.671058,-3.494618,100117.75,-70,+224,-292
75450,12.727,-20.296,2.223,-1.849133,0.581132,-2.393151,100124.91,-57,+238,-284
75460,12.560,-19.789,0.775,-1.662362,0.414581,-1.176748,100119.10,-42,+246,-277
