40066,8.872,-2.404,3.580,0.028671,0.024705,-0.016015,100546.02,-86,-40,-231
40076,8.859,-2.415,3.605,0.027607,0.024173,-0.014951,100545.50,-86,-41,-231
40086,8.858,-2.391,3.533,0.023350,0.025770,-0.015483,100545.86,-87,-41,-231
40095,8.858,-2.353,3.561,0.022818,0.023641,-0.010162,100545.02,-87,-42,-231
40101,8.870,-2.365,3.601,0.028139,0.020449,-0.008566,100545.02,-87,-42,-231
40111,8.840,-2.415,3.586,0.030268,0.018852,-0.006437,100545.02,-87,-41,-231
40121,8.835,-2.406,3.591,0.030268,0.019916,-0.004841,100545.27,-87,-41,-231
40131,8.842,-2.391,3.564,0.031332,0.022577,-0.002712,100542.34,-87,-41,-231
40141,8.848,-2.368,3.605,0.039314,0.024705,-0.002712,100540.95,-87,-41,-231
40151,8.832,-2.467,3.585,0.040910,0.026302,-0.004309,100540.95,-86,-40,-231
40161,8.870,-2.436,3.591,0.031864,0.025770,-0.004309,100542.47,-88,-41,-231
40171,8.861,-2.387,3.587,0.030268,0.024705,-0.001648,100545.41,-88,-41,-231
40180,8.838,-2.321,3.646,0.038249,0.023641,0.001012,100545.41,-87,-41,-231
40190,8.876,-2.404,3.595,0.047295,0.020981,0.001012,100543.27,-87,-41,-231
40201,8.863,-2.454,3.550,0.049424,0.019916,0.001544,100543.09,-88,-42,-231
40211,8.878,-2.407,3.576,0.050488,0.022577,0.000480,100543.09,-88,-42,-231
40216,8.887,-2.380,3.570,0.054745,0.023641,0.001012,100545.03,-87,-41,-230
40225,8.857,-2.447,3.619,0.059534,0.025238,-0.000052,100544.41,-87,-41,-231
40236,8.875,-2.510,3.640,0.056873,0.027366,-0.001648,100544.47,-87,-41,-231
40246,8.870,-2.449,3.642,0.045167,0.028962,-0.006437,100539.97,-87,-41,-229
40256,8.816,-2.465,3.660,0.040378,0.028962,-0.009630,100539.97,-88,-42,-231
40266,8.810,-2.447,3.600,0.032396,0.030559,-0.011226,100544.89,-87,-43,-230
40275,8.854,-2.464,3.598,0.031864,0.029494,-0.013355,100544.73,-87,-43,-230
40286,8.903,-2.461,3.606,0.033460,0.023641,-0.013887,100542.28,-88,-41,-230
40296,8.903,-2.453,3.503,0.030800,0.020981,-0.012290,100541.28,-88,-42,-231
40306,8.829,-2.505,3.501,0.030268,0.019916,-0.015483,100541.28,-87,-41,-229
40315,8.848,-2.453,3.457,0.027075,0.020981,-0.015483,100547.24,-87,-41,-229
40326,8.869,-2.351,3.467,0.035057,0.023109,-0.012823,100544.84,-88,-42,-229
40336,8.966,-2.203,3.526,0.061130,0.020981,-0.008034,100544.32,-88,-42,-229
40346,9.008,-2.119,3.748,0.093589,0.015127,-0.002180,100542.95,-88,-43,-229
40355,8.870,-2.167,4.047,0.102103,0.005549,0.001012,100542.95,-88,-43,-229
40366,8.748,-2.359,3.933,0.056873,-0.023184,0.002609,100545.25,-88,-42,-228
40376,8.751,-2.249,3.752,-0.000063,-0.026377,0.004737,100546.77,-88,-42,-229
40386,8.915,-1.946,4.036,-0.029861,-0.065753,0.012187,100542.84,-87,-42,-229
40395,8.906,-1.615,3.675,0.008983,-0.116836,0.031875,100544.31,-87,-42,-229
40406,8.943,-1.932,3.669,0.095185,-0.100873,0.048902,100544.31,-88,-42,-230
40416,8.859,-2.501,3.712,0.130836,-0.105129,0.059544,100546.55,-88,-43,-230
40426,8.766,-2.624,3.617,0.083479,-0.091827,0.058480,100547.28,-87,-43,-230
40436,8.820,-2.447,4.000,-0.012301,-0.058836,0.046242,100546.23,-87,-43,-230
40445,8.650,-2.091,3.989,-0.068173,-0.100873,0.040388,100544.09,-88,-43,-230
40456,8.620,-2.035,3.214,-0.050613,-0.089698,0.038792,100544.09,-86,-42,-231
40466,8.717,-2.579,3.102,0.004726,-0.046597,0.040388,100547.92,-86,-43,-231
40476,8.754,-2.571,2.857,0.022286,-0.024781,0.046242,100543.89,-86,-43,-231
40485,8.693,-2.253,3.210,0.044103,0.007678,0.054755,100541.80,-86,-44,-230
40496,8.562,-2.146,3.397,0.096249,0.014595,0.065398,100543.84,-87,-43,-230
40506,8.779,-2.237,3.460,0.136690,0.026834,0.070187,100543.84,-86,-45,-230
40516,8.923,-2.448,3.658,0.170745,0.029494,0.062737,100541.81,-86,-45,-230
40526,8.587,-2.610,3.568,0.179791,0.027898,0.056884,100544.47,-87,-45,-229
40536,8.482,-2.332,3.846,0.165956,0.039604,0.054755,100541.23,-86,-44,-229
40546,8.537,-2.273,3.613,0.154249,0.051311,0.044113,100543.80,-87,-45,-229
40556,8.731,-2.869,3.252,0.154249,0.073127,0.022297,100543.80,-87,-45,-229
40566,8.770,-3.134,3.594,0.142543,0.094412,0.002077,100545.41,-87,-46,-229
40576,8.863,-2.796,4.103,0.098378,0.128999,-0.037832,100544.98,-87,-45,-229
40586,9.345,-2.490,4.479,0.084543,0.133788,-0.094767,100541.95,-87,-45,-228
40596,9.693,-2.485,4.686,0.107956,0.100265,-0.144786,100539.66,-87,-45,-228
40606,9.482,-2.954,4.395,0.098910,0.042265,-0.187887,100539.66,-88,-45,-228
40615,8.999,-3.165,4.199,-0.000595,0.006082,-0.245354,100545.90,-88,-45,-228
40626,8.859,-2.859,4.198,-0.122980,-0.000836,-0.261850,100543.96,-88,-44,-228
40636,9.152,-2.426,4.254,-0.223549,-0.027441,-0.220345,100543.07,-88,-43,-228
40646,9.219,-2.182,4.105,-0.269842,-0.074267,-0.193208,100540.15,-88,-43,-228
40655,8.984,-2.057,4.064,-0.269310,-0.099276,-0.151703,100540.15,-88,-41,-229
40666,8.791,-2.071,3.924,-0.262393,-0.124285,-0.121905,100544.13,-86,-42,-229
40676,8.674,-2.383,3.639,-0.271439,-0.124285,-0.115520,100542.62,-88,-41,-230
40686,8.659,-2.703,3.465,-0.303897,-0.086506,-0.129887,100546.01,-88,-41,-230
40696,8.664,-2.632,3.364,-0.334227,-0.056707,-0.151171,100546.32,-87,-39,-230
40706,8.572,-2.456,3.208,-0.323585,-0.046065,-0.162877,100546.32,-88,-39,-231
40716,8.725,-2.365,3.127,-0.274631,-0.033295,-0.176180,100544.45,-87,-37,-231
40726,8.727,-2.667,3.106,-0.209182,-0.026377,-0.194804,100543.88,-87,-37,-231
40736,8.738,-2.794,3.206,-0.168209,-0.013606,-0.219281,100544.23,-87,-37,-231
40745,8.805,-2.740,3.381,-0.136283,0.000760,-0.246951,100544.08,-88,-35,-233
40756,8.860,-2.822,3.309,-0.128833,0.010338,-0.280474,100544.08,-88,-35,-232
40766,8.877,-2.835,3.300,-0.154906,0.033751,-0.310804,100547.07,-88,-35,-232
40776,8.836,-2.459,3.238,-0.200668,0.050247,-0.331024,100542.73,-88,-34,-231
40786,8.943,-2.054,3.294,-0.207585,0.060889,-0.340070,100544.87,-88,-34,-231
40796,9.100,-1.926,3.428,-0.160760,0.051311,-0.328896,100545.49,-89,-33,-231
40806,9.211,-1.735,3.582,-0.132913,0.036767,-0.307966,100545.49,-89,-33,-231
40816,9.194,-1.404,3.975,-0.101163,0.028430,-0.283666,100547.34,-88,-31,-231
40826,8.997,-1.148,3.944,-0.080943,-0.024249,-0.243758,100543.73,-89,-31,-231
40836,8.887,-1.214,3.601,-0.074558,-0.054579,-0.199593,100544.57,-90,-30,-232
40846,8.964,-1.390,3.639,-0.092118,-0.027973,-0.164474,100541.90,-90,-30,-232
40856,9.152,-1.262,3.809,-0.145861,-0.007221,-0.129355,100541.90,-89,-29,-232
40866,9.158,-1.253,3.817,-0.161292,-0.014139,-0.097428,100543.85,-89,-29,-233
40876,9.180,-1.196,3.567,-0.143732,-0.029570,-0.049538,100546.10,-88,-28,-232
40886,9.212,-1.013,3.501,-0.097439,-0.059900,0.010058,100543.60,-88,-28,-232
40896,9.168,-0.904,3.348,-0.027732,-0.085441,0.077104,100543.91,-89,-28,-233
40906,9.116,-1.160,3.886,0.012708,-0.083845,0.132976,100543.91,-88,-29,-233
40916,9.362,-1.480,3.844,-0.024540,-0.088634,0.179801,100543.55,-89,-29,-232
40926,9.884,-1.695,3.886,-0.146393,-0.084909,0.223966,100545.80,-89,-29,-232
40936,9.799,-0.980,3.947,-0.215035,-0.093955,0.285159,100540.63,-88,-29,-233
40946,9.490,-0.233,3.707,-0.254411,-0.086506,0.409141,100541.98,-88,-29,-234
40956,9.284,-0.182,3.572,-0.329971,-0.051918,0.524076,100541.98,-87,-29,-234
40966,9.359,0.510,3.732,-0.386374,-0.058304,0.650186,100546.81,-87,-29,-234
40976,9.726,0.407,3.764,-0.358172,-0.065221,0.802902,100546.59,-87,-31,-234
40986,10.219,-0.091,3.651,-0.312411,-0.056175,0.948168,100542.31,-86,-33,-234
40996,10.709,-0.357,3.697,-0.267714,-0.059900,1.072149,100542.63,-86,-34,-235
41006,11.322,-0.634,3.943,-0.240576,-0.033827,1.201452,100542.63,-86,-34,-235
41016,11.612,-1.244,4.162,-0.265053,-0.017331,1.320644,100542.78,-84,-37,-234
41026,12.362,-1.878,4.647,-0.369347,0.005549,1.338204,100544.61,-84,-39,-234
41036,14.822,-3.159,4.655,-0.539622,0.096540,1.171654,100545.34,-83,-41,-235
41041,18.619,-3.718,3.570,-0.751934,0.223714,0.970516,100541.89,-83,-41,-235
41051,22.727,-3.166,3.197,-0.920080,0.318430,0.879526,100541.89,-84,-42,-235
41061,25.591,-2.216,3.240,-1.124411,0.291292,0.952957,100541.89,-84,-42,-235
41071,24.552,-1.774,3.939,-1.346300,0.266283,1.291378,100543.82,-84,-42,-235
41081,22.022,0.552,3.427,-1.135585,0.078981,1.521782,100543.76,-83,-43,-234
41092,17.247,0.818,0.859,-0.814723,-0.309460,1.476553,100544.87,-82,-44,-234
41101,10.673,-3.115,5.439,-0.403402,-0.599459,1.483470,100544.87,-80,-47,-236
41111,8.495,-5.264,8.747,0.546946,-0.381826,1.513268,100542.44,-80,-47,-236
41121,8.444,-9.024,7.345,1.245606,-0.314249,1.670773,100542.44,-79,-53,-235
41132,8.550,-16.124,8.577,1.358414,-0.303074,1.715470,100542.75,-78,-60,-233
41141,11.988,-19.610,7.991,1.043405,0.072595,1.735690,100541.08,-77,-67,-233
41151,14.161,-15.676,7.213,0.290469,0.055036,1.977800,100542.17,-77,-67,-233
41161,11.087,-12.482,7.368,-0.535897,-0.132267,2.089011,100542.17,-75,-71,-232
41171,7.741,-11.545,7.940,-0.758851,-0.016799,2.129983,100541.64,-72,-75,-233
41182,6.725,-10.593,6.410,-0.864741,0.168907,2.177873,100542.95,-71,-79,-232
41191,6.150,-9.039,4.761,-0.997768,0.236485,2.238534,100542.59,-71,-79,-232
41201,5.337,-7.453,3.418,-1.094080,0.256173,2.248112,100543.30,-69,-83,-233
41211,3.935,-5.340,2.108,-1.111108,0.237017,2.164571,100543.56,-68,-86,-233
41222,2.062,-3.685,1.210,-0.986594,0.191256,2.033671,100541.31,-65,-89,-234
41231,0.380,-2.328,0.482,-0.782796,0.126870,1.933103,100545.39,-65,-89,-234
41241,-0.969,-1.312,-0.078,-0.559842,0.053439,1.829874,100545.39,-64,-92,-233
41251,-1.892,-0.393,-0.414,-0.329971,0.023109,1.704296,100541.41,-61,-96,-234
41262,-2.451,0.229,-0.697,-0.113402,0.008210,1.559030,100541.41,-59,-99,-233
41271,-2.980,0.625,-0.877,0.080818,-0.006157,1.410571,100542.65,-57,-99,-233
41277,-3.424,0.860,-1.029,0.210121,-0.018928,1.329158,100544.68,-57,-101,-233
41286,-3.677,0.784,-1.159,0.318139,-0.030102,1.249342,100542.32,-56,-105,-233
41296,-3.530,0.724,-1.225,0.425625,-0.024781,1.133342,100541.27,-56,-105,-233
41306,-3.451,0.688,-1.313,0.470322,-0.037019,1.001379,100541.27,-55,-109,-232
41316,-3.537,0.724,-1.110,0.472983,-0.054579,0.859837,100544.66,-53,-111,-231
41326,-3.605,0.769,-1.035,0.452231,-0.067350,0.716700,100541.73,-52,-113,-231
41336,-3.612,0.682,-0.963,0.412323,-0.079588,0.561324,100543.88,-52,-113,-231
41347,-3.484,0.469,-0.969,0.333570,-0.095551,0.391049,100541.78,-51,-115,-231
41356,-3.195,0.081,-0.882,0.244708,-0.108322,0.217581,100541.78,-50,-117,-230
41366,-2.782,-0.281,-0.752,0.151057,-0.116836,0.034535,100541.66,-50,-117,-231
41376,-2.413,-0.608,-0.591,0.038249,-0.130671,-0.160749,100543.87,-50,-117,-231
41387,-2.050,-0.809,-0.376,-0.075622,-0.140249,-0.372529,100541.15,-49,-116,-231
41396,-1.656,-0.882,-0.107,-0.166081,-0.131203,-0.600272,100538.48,-50,-115,-231
41406,-1.100,-0.885,0.281,-0.245365,-0.106726,-0.842914,100538.48,-52,-112,-232
41416,-0.426,-1.122,0.502,-0.327842,-0.079056,-1.096730,100543.14,-52,-112,-232
41426,0.427,-1.409,0.921,-0.391695,-0.058836,-1.349482,100542.61,-53,-109,-234
41437,1.551,-1.814,1.539,-0.387438,-0.035955,-1.591592,100544.86,-55,-105,-234
41446,2.927,-2.488,1.843,-0.298576,-0.018928,-1.833170,100540.05,-58,-101,-236
41456,4.765,-2.970,1.903,-0.122448,-0.006157,-2.039097,100540.05,-58,-101,-236
41466,6.769,-3.298,2.355,0.121791,-0.035423,-2.173720,100543.53,-60,-97,-236
41477,8.092,-4.098,2.767,0.384121,-0.186542,-2.276417,100543.17,-62,-91,-236
41486,8.742,-5.419,3.621,0.609203,-0.266891,-2.360491,100542.59,-64,-87,-237
41496,9.483,-6.716,4.201,0.790653,-0.266359,-2.439775,100541.92,-64,-87,-237
41506,10.114,-7.286,4.297,0.943900,-0.286047,-2.480748,100541.92,-66,-84,-237
41511,10.572,-7.338,4.463,1.054047,-0.309460,-2.497775,100545.95,-69,-79,-238
41522,11.198,-7.293,4.754,1.162065,-0.335001,-2.516931,100545.95,-69,-79,-238
41532,12.386,-7.514,5.547,1.282854,-0.370652,-2.555243,100544.01,-70,-75,-238
41541,13.947,-7.795,6.295,1.354157,-0.392469,-2.600472,100543.12,-72,-71,-237
41551,15.346,-7.710,6.944,1.398854,-0.440891,-2.579720,100542.76,-73,-67,-238
41562,16.219,-7.408,7.263,1.478138,-0.468560,-2.486069,100543.99,-73,-67,-238
41572,14.773,-9.749,10.924,1.539331,-0.422799,-2.286528,100539.70,-74,-65,-237
41581,9.255,-20.835,18.683,1.771863,-0.086506,-1.837427,100540.79,-76,-63,-237
41591,21.108,-18.885,13.100,1.908083,1.253879,-1.200492,100540.79,-79,-64,-233
41602,24.055,-14.250,-0.679,0.063791,0.436026,-1.043519,100541.79,-79,-64,-233
41611,20.101,2.935,-3.482,-1.434631,0.047054,-0.866859,100541.79,-79,-60,-234
41621,26.212,11.922,-0.746,-1.919382,0.000228,-0.813116,100544.80,-80,-55,-235
41631,36.096,9.281,2.281,-1.178686,0.138045,-1.155794,100547.21,-80,-51,-237
41641,24.814,3.942,-0.050,-0.118723,0.086430,-0.757244,100546.59,-80,-51,-237
41652,3.495,-3.999,-0.746,0.630488,-0.355753,-0.125630,100544.45,-81,-50,-236
41661,1.159,-2.335,1.250,0.465001,0.101329,0.406480,100544.45,-81,-51,-235
41671,1.506,-4.019,-0.634,1.003496,0.091751,2.458827,100545.21,-79,-59,-234
41681,4.455,-1.747,5.365,1.834120,-0.098744,1.223268,100544.76,-79,-59,-234
41692,5.987,-1.990,10.597,1.598395,-0.188671,0.331985,100541.20,-79,-64,-232
41702,5.008,-2.984,11.026,1.121093,0.001825,-0.135208,100541.20,-78,-67,-231
41711,7.221,-5.313,5.617,0.242047,0.528081,-0.738620,100541.20,-79,-66,-230
41721,10.294,-6.567,2.319,-0.407659,0.427512,-0.925391,100545.29,-79,-66,-230
41732,12.431,-4.740,1.930,-0.539622,0.280650,-0.741813,100545.13,-82,-63,-229
41742,12.303,-1.660,1.491,-0.282081,0.191256,-0.542804,100545.02,-82,-61,-230
41747,10.687,-0.503,1.526,0.082414,0.208815,-0.435318,100545.35,-82,-61,-230
41756,9.654,-0.572,2.148,0.394231,0.232228,-0.340070,100545.35,-83,-59,-229
41766,9.170,-0.887,3.441,0.752341,0.114100,-0.086786,100545.82,-84,-60,-228
41777,9.010,-2.002,4.961,0.957203,-0.089698,0.197893,100548.12,-83,-62,-227
41787,8.373,-3.998,6.415,0.875258,-0.191331,0.396902,100543.05,-83,-62,-227
41796,7.797,-6.296,6.170,0.352194,-0.129074,0.425104,100546.60,-82,-65,-227
41806,7.980,-6.491,5.099,-0.474172,0.022045,0.334645,100546.60,-82,-65,-227
41817,8.253,-3.864,3.924,-1.207952,0.134320,0.338902,100547.68,-82,-63,-228
41827,8.313,-0.193,3.442,-1.270741,0.287568,0.214388,100544.23,-82,-63,-228
41836,8.949,2.174,3.245,-0.709365,0.391329,-0.017079,100546.10,-83,-63,-228
41846,9.709,1.943,2.948,-0.041035,0.276393,0.054755,100546.88,-83,-62,-228
41857,9.442,-0.183,3.350,0.542689,0.142302,0.192572,100546.88,-84,-63,-227
41867,8.614,-2.429,3.886,0.800231,0.061953,0.304315,100546.95,-84,-63,-227
41876,8.067,-3.978,4.210,0.670928,0.065678,0.358058,100542.07,-82,-66,-226
41886,7.855,-4.840,4.542,0.315479,0.105586,0.370297,100543.85,-83,-68,-226
41896,8.045,-4.584,4.459,-0.144264,0.129531,0.432021,100542.80,-82,-67,-226
41907,8.338,-3.628,4.273,-0.476301,0.144962,0.475122,100542.80,-82,-67,-226
41917,8.663,-2.771,4.011,-0.565163,0.127935,0.501728,100547.41,-82,-68,-226
41926,8.951,-2.312,3.405,-0.498649,0.089623,0.553874,100546.00,-81,-69,-226
41936,9.031,-2.004,3.069,-0.338484,0.086430,0.609746,100544.27,-81,-69,-226
41947,8.434,-2.224,3.343,-0.153842,0.114100,0.611874,100544.84,-81,-69,-226
41957,8.712,-3.700,3.060,-0.093182,0.052375,0.875269,100544.84,-81,-71,-226
41966,7.780,-2.986,3.804,0.229277,0.328008,0.657104,100549.36,-80,-73,-225
41976,8.416,-3.519,3.719,0.149992,0.307256,0.584737,100545.75,-80,-75,-225
41982,8.688,-4.190,4.346,0.133497,0.349292,0.591654,100544.64,-80,-75,-225
41992,8.663,-4.758,4.400,0.066983,0.304595,0.618792,100544.64,-81,-75,-223
42002,8.302,-5.174,3.825,-0.113402,0.331201,0.590058,100541.41,-80,-77,-222
42011,8.271,-5.192,4.195,-0.306558,0.350889,0.562920,100541.41,-80,-77,-222
42021,8.283,-4.788,3.908,-0.479493,0.352485,0.541636,100545.51,-80,-77,-222
42032,8.677,-4.181,3.908,-0.601879,0.359935,0.519819,100545.88,-80,-77,-222
42042,8.759,-3.768,4.046,-0.733842,0.270008,0.532590,100544.62,-79,-77,-222
42052,8.759,-3.868,4.065,-0.785457,0.168375,0.669342,100544.62,-79,-77,-222
42061,8.554,-4.211,4.195,-0.835475,0.106650,0.845471,100544.62,-79,-78,-222
42072,8.174,-4.326,4.585,-0.867934,0.123678,0.986480,100547.11,-79,-79,-224
42082,8.144,-4.395,4.461,-0.914759,0.190192,1.035434,100546.17,-79,-80,-224
42092,8.456,-4.310,4.517,-0.943493,0.258834,0.969452,100547.38,-79,-80,-224
42101,8.567,-4.775,4.407,-0.865805,0.324283,0.832700,100544.81,-77,-81,-224
42112,8.610,-5.255,3.835,-0.774282,0.389201,0.667746,100544.81,-77,-80,-224
42122,8.921,-5.515,3.920,-0.752998,0.401439,0.666150,100545.72,-77,-82,-224
42132,9.371,-5.496,3.953,-0.801420,0.378026,0.749691,100545.78,-77,-82,-224
42141,9.626,-5.296,3.654,-0.923273,0.300338,0.675727,100545.70,-77,-81,-224
42151,9.592,-5.302,3.431,-1.015328,0.248724,0.609746,100545.70,-77,-81,-224
42162,9.727,-5.182,3.428,-1.048319,0.224779,0.626773,100548.54,-76,-81,-225
42172,10.026,-4.811,3.493,-1.072264,0.183806,0.713507,100546.02,-76,-81,-225
42181,9.919,-4.684,3.671,-1.074924,0.131659,0.833232,100546.02,-75,-80,-226
42191,9.895,-4.549,3.744,-1.088227,0.174228,0.893360,100538.49,-75,-80,-227
42202,10.065,-4.093,4.183,-0.881236,0.272136,0.963599,100545.09,-74,-81,-226
42212,9.994,-3.962,3.732,-1.040337,0.206155,0.948700,100545.09,-74,-81,-226
42217,10.175,-3.440,4.023,-0.972227,0.221586,1.022663,100548.19,-73,-81,-227
42226,10.232,-3.197,3.874,-0.873787,0.213604,1.067360,100546.61,-71,-82,-227
42236,10.616,-3.296,3.709,-0.773750,0.165182,1.141324,100544.00,-71,-82,-227
42247,10.905,-3.764,3.561,-0.750869,0.076852,1.252535,100544.58,-72,-83,-227
42257,11.310,-3.977,3.515,-0.787053,0.033751,1.348314,100544.58,-69,-85,-228
42266,11.743,-4.078,3.257,-0.877512,0.013531,1.405782,100545.62,-68,-86,-229
42276,11.981,-4.038,3.208,-0.969567,0.049182,1.419617,100547.45,-68,-86,-229
42287,12.078,-3.904,3.233,-1.078649,0.099201,1.414296,100543.90,-67,-87,-229
42297,12.619,-3.628,3.010,-1.299475,0.190192,1.395672,100545.57,-65,-89,-231
42306,13.886,-2.775,3.131,-1.540520,0.261494,1.348846,100545.57,-63,-88,-231
42316,15.795,-1.075,3.761,-1.659713,0.286503,1.252002,100545.56,-63,-88,-231
42327,17.545,0.603,4.443,-1.518172,0.316302,1.222736,100546.55,-62,-87,-232
42337,17.263,0.661,4.208,-1.249988,0.336522,1.584571,100540.69,-62,-88,-232
42347,15.513,-1.926,5.886,-1.238282,0.210412,2.018240,100541.73,-59,-89,-233
42356,14.252,-6.402,7.717,-1.203163,0.100797,2.212460,100541.73,-59,-89,-233
42366,15.084,-8.704,8.969,-1.141438,0.201366,2.338570,100544.85,-57,-92,-233
42377,18.009,-7.416,8.976,-0.924337,0.429109,2.549286,100547.57,-55,-95,-233
42387,18.801,-3.139,7.473,-0.683824,0.356742,2.525341,100543.40,-51,-98,-233
42396,15.475,-0.742,5.749,-0.691805,-0.059368,2.501396,100539.99,-51,-98,-233
42406,11.477,-0.820,5.458,-0.599218,-0.596267,2.491286,100539.99,-47,-102,-233
42417,9.608,-0.165,4.660,-0.138411,-0.802193,2.256625,100540.52,-42,-105,-235
42427,6.969,-0.977,2.768,0.130836,-0.852211,1.891598,100545.38,-38,-109,-234
42437,4.199,-1.665,3.448,0.304304,-0.923514,1.541470,100545.69,-38,-109,-234
42446,2.404,-0.897,4.617,0.453295,-0.711202,1.042883,100541.88,-34,-112,-234
42457,1.248,-1.753,3.791,0.436800,-0.379166,0.458095,100541.88,-33,-113,-234
42467,2.645,0.006,2.983,0.329846,-0.089166,-0.069758,100546.66,-33,-115,-234
42477,4.925,1.634,0.457,-0.156503,0.214136,-0.472033,100545.25,-33,-115,-234
42486,4.386,2.630,-0.393,-0.678503,-0.502615,-0.840785,100543.31,-34,-112,-234
42497,3.133,2.671,-0.477,-0.654025,-0.758560,-1.330326,100540.33,-35,-109,-236
42507,2.693,2.372,0.418,-0.212906,-0.646285,-1.772509,100540.33,-36,-105,-237
42517,2.325,2.047,1.277,0.237258,-0.726634,-2.139133,100541.75,-38,-101,-237
42526,2.215,1.452,2.051,0.662946,-0.680872,-2.444032,100542.02,-38,-101,-237
42536,2.640,0.381,3.130,0.950285,-0.574982,-2.754252,100541.75,-41,-98,-238
42547,3.454,-0.944,3.409,1.084909,-0.463771,-3.029885,100539.03,-44,-95,-237
42557,4.658,-1.141,2.807,0.995515,-0.482395,-3.318288,100539.03,-47,-90,-236
42567,6.054,-0.281,2.140,0.976891,-0.532946,-3.640747,100537.80,-47,-90,-236
42576,7.282,0.532,2.348,1.213680,-0.511661,-3.930215,100538.52,-51,-84,-236
42587,7.704,-0.238,3.121,1.455258,-0.478670,-4.146783,100536.58,-55,-79,-235
42597,7.767,-1.835,3.192,1.619147,-0.565936,-4.305884,100535.95,-60,-72,-234
42607,8.063,-3.242,3.360,1.773459,-0.559551,-4.414434,100535.95,-60,-72,-234
42616,8.998,-5.042,3.738,1.906487,-0.461643,-4.463388,100538.31,-63,-66,-234
42627,9.537,-6.431,3.894,1.889991,-0.419606,-4.498508,100535.69,-67,-61,-233
42637,9.812,-6.893,4.540,1.573386,-0.451533,-4.595884,100537.27,-71,-53,-234
42647,10.050,-6.736,4.890,1.211551,-0.447808,-4.757645,100536.95,-71,-53,-234
42656,10.419,-6.005,5.052,1.007221,-0.350432,-4.919407,100536.95,-75,-43,-234
42667,10.850,-5.462,5.250,0.938579,-0.240817,-5.040728,100543.12,-78,-33,-235
42677,11.439,-5.464,5.231,0.908249,-0.136524,-5.114691,100541.18,-80,-23,-238
42687,12.167,-5.823,5.036,0.955607,-0.056707,-5.138636,100538.57,-80,-23,-238
42697,13.345,-6.433,4.896,1.087570,0.023641,-5.093407,100542.12,-83,-11,-237
42706,14.523,-7.139,4.568,1.222726,0.051311,-5.008801,100542.12,-85,-1,-239
42717,15.116,-7.965,4.284,1.338194,0.026834,-4.887480,100544.46,-87,+7,-240
42727,15.267,-8.851,4.165,1.364799,-0.027441,-4.763498,100544.13,-87,+7,-240
42737,15.048,-10.087,4.025,1.294560,-0.118964,-4.617701,100546.13,-87,+17,-242
42746,14.371,-11.718,4.366,1.172175,-0.248799,-4.388361,100542.99,-87,+26,-244
42757,13.062,-13.285,5.425,1.054047,-0.320634,-4.001517,100542.99,-86,+35,-247
42767,11.706,-13.874,6.011,1.008285,-0.306799,-3.518894,100544.18,-86,+35,-247
42777,10.856,-13.955,6.662,0.957735,-0.181221,-3.021371,100545.49,-85,+41,-249
42786,9.913,-14.854,6.803,0.751276,-0.026909,-2.492454,100543.24,-85,+47,-251
42797,8.180,-15.929,7.001,0.369754,0.106118,-1.932675,100542.98,-84,+51,-252
42807,6.854,-16.695,6.527,-0.098503,0.315769,-1.326602,100542.98,-84,+51,-252
42817,6.642,-16.418,5.659,-0.577934,0.494026,-0.633795,100547.02,-86,+55,-252
42827,7.279,-14.963,5.067,-0.872723,0.574907,0.104774,100546.20,-86,+55,-251
42836,8.150,-13.567,4.761,-0.930723,0.585549,0.849195,100541.74,-90,+55,-249
42847,8.689,-12.678,4.252,-0.900924,0.527549,1.546259,100542.10,-90,+55,-249
42857,9.641,-10.777,2.918,-0.754594,0.469017,2.116148,100542.10,-92,+53,-248
42867,13.167,-2.687,1.894,-0.551328,0.293953,2.515231,100544.30,-94,+47,-248
42876,20.403,15.151,-3.713,-0.301237,-0.017331,2.430625,100545.50,-97,+41,-247
42887,23.765,22.192,-16.109,-0.963713,-0.165258,1.640975,100544.23,-97,+41,-247
42897,15.576,-0.030,0.725,0.493735,-0.216340,1.821892,100547.75,-96,+39,-249
42907,12.243,-7.697,14.641,2.335367,-0.426524,2.258754,100547.75,-98,+28,-249
42917,9.922,-11.826,9.224,2.443386,-0.206230,2.247580,100543.88,-98,+17,-251
42923,7.378,-10.740,2.237,2.194890,0.342907,2.404020,100546.40,-98,+17,-251
42932,9.956,-4.649,1.836,2.236395,0.657384,2.727010,100546.40,-101,+5,-250
42942,7.407,-1.685,4.290,2.215111,0.391329,2.690295,100543.05,-101,-6,-248
42952,3.724,-1.755,7.933,2.132633,0.005549,2.372625,100542.52,-101,-6,-248
42962,4.523,-5.784,7.029,1.390872,0.215733,1.899048,100542.52,-102,-16,-248
42972,8.399,-10.928,4.358,0.343680,0.729751,1.514333,100545.84,-102,-21,-245
42982,10.880,-12.010,1.876,-0.961053,0.825531,1.258388,100547.34,-103,-23,-244
42992,10.767,-7.823,2.311,-2.046556,0.678136,1.142920,100542.73,-103,-23,-244
43002,10.409,-3.088,3.024,-2.621767,0.779769,1.081727,100542.73,-104,-21,-244
43012,9.763,-0.814,2.713,-2.465859,0.555751,1.058314,100542.73,-106,-18,-243
43022,9.778,1.630,2.256,-1.586282,0.599916,0.974773,100545.81,-106,-19,-241
43032,9.650,3.518,3.283,-0.420429,0.514246,0.990204,100546.44,-106,-19,-241
43042,8.731,1.742,3.267,0.599625,0.373769,1.000314,100545.55,-106,-22,-241
43052,8.762,-2.002,3.628,1.028506,0.379623,0.975305,100541.88,-106,-26,-239
43062,8.748,-4.316,4.155,0.909845,0.351953,0.921030,100541.88,-108,-31,-238
43072,8.847,-5.701,4.481,0.400616,0.348760,0.838021,100545.55,-108,-31,-238
43082,8.871,-5.885,5.226,-0.268778,0.418999,0.763526,100544.55,-108,-33,-237
43092,8.481,-5.382,5.300,-1.003089,0.497751,0.702333,100542.73,-109,-33,-236
43102,8.395,-3.948,4.612,-1.587346,0.568522,0.718828,100542.73,-109,-33,-235
43112,8.955,-1.404,3.987,-1.792740,0.631843,0.847599,100548.27,-109,-33,-235
43122,9.631,0.682,3.756,-1.567126,0.632375,0.967324,100548.27,-110,-32,-234
43132,9.529,0.939,3.294,-1.087163,0.530742,0.921562,100543.56,-110,-31,-234
43142,9.330,-0.193,3.397,-0.552925,0.316834,0.828443,100543.92,-110,-34,-233
43152,9.327,-1.786,4.049,-0.197475,0.201366,0.820461,100546.13,-110,-34,-233
43157,9.013,-2.777,4.432,-0.151714,0.132192,0.883250,100546.13,-110,-35,-232
43167,8.592,-3.425,4.412,-0.326246,0.145494,1.014149,100544.94,-110,-37,-233
43177,8.318,-3.765,4.800,-0.698723,0.213604,1.219544,100545.72,-110,-37,-233
43187,8.440,-3.546,4.846,-1.064814,0.244467,1.389287,100543.69,-110,-40,-232
43197,8.648,-2.577,4.473,-1.278722,0.255109,1.492516,100542.64,-110,-41,-233
43207,8.737,-2.286,4.237,-1.341511,0.274265,1.620754,100542.64,-110,-43,-233
43217,8.700,-3.043,3.979,-1.306924,0.254577,1.621287,100546.59,-110,-43,-233
43227,8.974,-3.250,3.929,-1.427713,0.197109,1.547855,100546.07,-108,-46,-233
43237,8.349,-2.186,4.255,-0.607732,0.374834,1.705360,100545.91,-108,-49,-232
43247,8.998,-4.199,3.265,-1.119089,0.375366,1.771874,100542.88,-107,-51,-232
43257,8.411,-4.744,3.688,-1.049383,0.238614,1.734626,100542.88,-107,-51,-232
43267,8.299,-3.990,3.433,-0.898796,0.354081,1.630865,100547.09,-107,-55,-233
43278,8.732,-5.313,3.692,-0.779603,0.562491,1.604082,100545.51,-107,-58,-232
43287,8.584,-5.474,3.777,-0.898264,0.421127,1.364277,100544.57,-105,-61,-231
43297,8.511,-5.787,2.997,-1.077585,0.425384,1.423874,100541.96,-105,-61,-231
43307,8.636,-5.406,3.115,-1.153677,0.346632,1.364277,100541.96,-106,-62,-231
43317,8.944,-4.667,3.023,-1.232961,0.349824,1.375452,100548.21,-104,-63,-231
43327,9.243,-3.912,2.972,-1.244135,0.353017,1.600534,100546.65,-104,-67,-232
43337,9.850,-3.409,3.041,-1.191988,0.364191,2.089543,100544.65,-104,-67,-232
43347,9.800,-4.288,3.327,-1.062154,0.274265,2.436479,100543.98,-103,-70,-231
43357,10.123,-4.703,3.554,-1.006814,0.341843,2.510442,100543.98,-101,-73,-232
43367,9.606,-5.510,3.847,-0.814723,0.340779,2.317286,100547.53,-99,-79,-231
43377,10.159,-4.882,4.896,-0.914227,0.168907,1.873507,100547.58,-99,-79,-231
43387,10.949,-4.392,4.706,-1.116961,0.026302,1.712809,100544.55,-98,-83,-231
43397,11.365,-4.579,4.023,-1.126539,0.012999,1.724516,100544.55,-96,-85,-233
43407,11.365,-5.853,3.212,-1.114833,0.010338,1.744736,100544.55,-94,-88,-234
43417,11.349,-6.774,2.550,-1.261163,-0.009882,1.760699,100547.56,-91,-88,-234
43427,11.518,-6.513,2.063,-1.148355,0.173164,1.908626,100545.63,-91,-89,-236
43438,12.766,-6.324,3.066,-1.361731,0.233825,1.962901,100543.73,-90,-92,-236
43447,13.157,-5.355,2.876,-1.762410,0.166779,1.762296,100543.78,-88,-95,-238
43457,14.963,-4.122,3.118,-1.825731,0.403568,1.645231,100543.78,-88,-95,-239
43467,16.673,-3.329,3.586,-1.897034,0.382283,1.511672,100545.70,-88,-95,-239
43478,19.060,-2.224,5.155,-1.979511,0.218393,1.441966,100544.34,-86,-95,-241
43487,19.432,-1.493,4.474,-2.240244,-0.130139,1.470699,100544.39,-83,-93,-246
43497,17.570,-2.321,4.637,-2.016758,-0.077992,1.522846,100544.70,-82,-94,-247
43507,15.217,-4.366,7.347,-1.627786,-0.036487,1.574993,100544.70,-82,-94,-247
43512,13.342,-6.443,10.078,-1.532007,-0.204102,1.540938,100542.97,-80,-95,-249
43522,12.942,-8.364,9.840,-1.470814,-0.567001,1.225929,100542.97,-80,-95,-249
43533,15.274,-9.628,7.970,-1.534135,-0.600524,0.238333,100543.23,-78,-94,-253
43542,21.010,-6.330,7.445,-0.988723,-0.353625,-0.307611,100544.44,-77,-91,-255
43552,18.791,-1.925,6.824,-0.010705,0.055036,2.123598,100542.61,-75,-97,-254
43563,13.306,0.034,4.916,0.279827,-1.168817,2.866423,100543.98,-75,-97,-254
43573,8.988,0.335,4.805,0.303240,-1.921220,2.558332,100544.80,-68,-104,-257
43582,4.451,-0.777,3.698,0.538965,-1.650376,2.063470,100544.65,-60,-110,-258
43592,2.325,-1.490,4.354,0.515552,-1.257679,1.491452,100544.65,-55,-115,-259
43602,0.734,-1.363,4.663,0.646983,-1.110817,1.024259,100542.77,-55,-115,-259
43612,-0.032,-2.078,4.396,0.407534,-0.955441,0.494810,100542.77,-51,-119,-258
43622,1.331,-1.917,4.504,0.318139,-0.474414,0.063269,100543.88,-49,-119,-258
43628,2.331,-0.965,2.019,0.091992,0.108779,-0.186290,100541.00,-49,-119,-258
43637,4.189,1.398,-0.014,-0.293255,0.288632,-0.534290,100540.58,-51,-118,-256
43648,4.855,3.282,-0.129,-0.608264,-0.279661,-0.998290,100543.94,-52,-116,-255
43657,3.526,2.998,0.847,-0.489071,-0.748982,-1.394712,100543.94,-53,-111,-255
43667,2.602,2.145,1.490,-0.108081,-0.605313,-1.792730,100540.52,-53,-111,-255
43677,2.872,1.456,1.862,0.317607,-0.551569,-2.122638,100543.34,-55,-107,-254
43687,3.091,0.742,2.427,0.637405,-0.616487,-2.384436,100540.36,-58,-103,-252
43698,3.560,-0.203,2.778,0.861423,-0.533478,-2.634527,100541.92,-61,-97,-248
43707,4.285,-0.731,3.057,0.999772,-0.443019,-2.898454,100541.92,-61,-97,-248
43717,5.273,-0.585,3.177,0.948157,-0.337129,-3.163445,100540.34,-65,-91,-244
43727,5.972,0.189,3.080,0.909845,-0.296157,-3.442802,100539.71,-69,-85,-241
43738,6.619,1.022,2.862,1.082249,-0.371716,-3.772178,100540.76,-73,-75,-238
43748,7.264,0.370,3.346,1.422267,-0.398144,-4.117517,100538.66,-73,-75,-238
43757,7.297,-0.780,3.817,1.685661,-0.429716,-4.358563,100538.66,-77,-66,-233
43767,7.758,-2.222,3.823,1.897973,-0.387148,-4.550654,100538.73,-80,-57,-229
43778,8.583,-3.561,3.442,2.106560,-0.313184,-4.661334,100539.57,-83,-44,-224
43787,9.306,-4.538,3.443,2.305569,-0.291368,-4.754985,100538.62,-83,-44,-224
43797,9.813,-5.641,4.092,2.360909,-0.234432,-4.860875,100538.57,-86,-33,-219
43807,10.434,-6.264,4.769,2.155514,-0.181753,-5.018911,100538.57,-90,-21,-213
43817,11.256,-5.982,5.365,1.836248,-0.133863,-5.253572,100541.05,-91,-3,-209
43828,12.003,-5.934,5.644,1.626065,-0.010414,-5.496746,100538.12,-91,-3,-209
43837,12.570,-6.145,5.787,1.517514,0.097072,-5.698415,100539.48,-90,+17,-204
43847,13.503,-6.616,6.198,1.500487,0.267347,-5.824525,100540.85,-86,+39,-199
43857,14.815,-7.520,6.707,1.580303,0.484980,-5.844746,100540.85,-76,+62,-194
43868,16.051,-9.752,6.846,1.591478,0.594063,-5.839425,100542.93,-76,+62,-194
43877,16.662,-11.647,5.532,1.408432,0.493494,-5.792067,100544.29,-61,+83,-190
43887,17.259,-12.826,4.709,1.148230,0.441347,-5.615938,100542.10,-43,+101,-187
43897,17.606,-14.152,3.908,0.855570,0.366852,-5.298801,100543.82,-24,+111,-184
43908,17.092,-15.449,3.800,0.667735,0.250320,-4.819902,100543.82,-6,+111,-184
43918,14.535,-17.259,5.216,0.594836,0.192852,-4.178710,100544.68,-6,+119,-180
43927,10.212,-20.078,6.871,0.466066,0.120485,-3.426839,100546.09,+7,+122,-178
43937,5.769,-21.960,8.201,0.158506,0.291292,-2.627610,100543.21,+16,+124,-175
43948,2.779,-22.238,6.259,-0.270374,0.552558,-1.750693,100543.16,+24,+125,-170
43958,3.629,-21.861,3.995,-0.632741,0.814356,-0.743941,100543.16,+24,+125,-170
43967,5.705,-20.290,2.983,-0.907310,0.778173,0.263342,100547.78,+29,+125,-167
43977,7.099,-18.172,2.619,-0.894007,0.634503,1.244553,100543.80,+31,+125,-163
43983,8.420,-16.482,2.277,-0.691273,0.555751,1.952791,100543.39,+31,+125,-163
43993,9.784,-14.148,2.303,-0.398613,0.360999,2.555671,100543.39,+31,+124,-162
44003,13.021,-5.617,2.260,0.062194,0.141237,3.076075,100540.25,+29,+121,-160
44012,21.044,11.929,-2.779,0.893350,0.077916,2.998386,100540.25,+29,+121,-160
44022,29.898,29.633,-23.637,0.277699,0.152412,1.548388,100549.10,+29,+119,-160
44033,18.328,3.979,0.616,0.541093,-0.491973,1.646296,100549.71,+30,+117,-158
44043,12.059,-9.242,17.688,2.866413,-0.958101,2.603029,100541.05,+29,+111,-161
44052,9.145,-12.350,12.982,3.186743,-0.743129,2.470534,100541.05,+29,+111,-161
44062,5.771,-12.778,2.610,2.645587,0.070999,2.906332,100541.05,+27,+107,-163
44072,10.434,-4.411,1.893,3.158541,0.665898,3.450680,100545.56,+25,+101,-166
44083,6.513,-2.102,5.123,3.222926,-0.154616,2.987212,100547.97,+22,+95,-168
44092,3.837,-8.905,7.666,2.075166,-0.686725,2.395506,100544.67,+22,+95,-168
44102,5.140,-15.455,5.899,0.362836,-0.038084,1.868186,100540.75,+22,+91,-170
44112,9.160,-19.695,0.961,-1.362796,1.356576,1.726644,100540.75,+21,+91,-168
44123,11.277,-9.916,1.400,-2.909106,1.085200,1.345122,100550.46,+18,+91,-164
44133,9.081,-2.972,3.309,-3.905216,0.904283,1.157819,100545.91,+16,+93,-158
44142,8.644,0.119,2.558,-3.621601,0.917053,1.118443,100545.96,+16,+93,-158
44152,10.490,3.893,2.762,-2.478630,0.956962,1.130681,100545.96,+14,+93,-153
44163,11.627,7.154,3.533,-0.752466,0.628650,1.166333,100548.46,+12,+92,-152
44173,9.726,2.621,3.627,0.823111,0.175292,1.220608,100545.48,+11,+90,-153
44182,8.612,-2.916,3.003,1.495698,-0.056707,1.215287,100545.48,+11,+90,-153
44192,8.407,-7.034,3.585,1.422799,0.016192,1.112590,100546.84,+11,+88,-155
44203,7.862,-9.319,5.186,0.709772,0.077916,0.941782,100542.80,+9,+86,-155
44213,6.771,-9.479,5.655,-0.534301,0.343439,0.649654,100542.80,+9,+85,-153
44218,7.201,-6.847,5.062,-1.386208,0.649402,0.457563,100547.06,+9,+85,-153
44227,8.119,-3.566,4.413,-1.847016,0.731347,0.376150,100545.17,+7,+87,-151
44237,9.163,0.007,3.508,-1.765071,0.597788,0.412333,100542.36,+7,+87,-151
44248,10.098,1.250,2.639,-1.096209,0.415274,0.514498,100544.34,+7,+86,-148
44258,10.069,-0.304,2.838,-0.310282,0.176889,0.533122,100544.34,+7,+87,-148
44267,9.319,-3.181,3.477,0.202139,0.025238,0.552810,100544.87,+5,+85,-148
44277,8.520,-4.684,4.030,0.240983,0.019916,0.586333,100546.12,+5,+85,-148
44288,7.873,-5.047,4.712,-0.057530,0.147091,0.598040,100545.65,+5,+85,-148
44298,7.856,-4.300,4.710,-0.457677,0.288100,0.595379,100544.35,+4,+84,-148
44307,8.387,-3.060,4.937,-0.810466,0.348228,0.564517,100544.35,+3,+83,-146
44317,8.966,-1.553,5.154,-0.894539,0.312045,0.592718,100546.79,+3,+83,-146
44327,9.029,-1.032,4.291,-0.742356,0.280118,0.692755,100544.01,+3,+83,-145
44338,8.262,-2.965,3.532,-0.704044,0.222118,0.672535,100544.23,+2,+82,-145
44348,7.770,-3.391,2.816,-0.834411,0.171568,0.655507,100543.07,+2,+82,-144
44357,9.509,-0.977,5.420,-1.055768,0.135916,0.870480,100543.07,+2,+82,-144
44367,9.886,-1.136,3.629,-0.263457,0.371109,1.161544,100544.73,+0,+81,-141
44378,7.396,-3.937,3.420,-0.480558,0.092815,1.074278,100545.36,+0,+80,-141
44388,8.700,-2.503,3.815,-0.632209,0.287568,1.269562,100545.89,-1,+79,-141
44397,8.834,-4.330,3.350,-0.698191,0.226375,1.342461,100543.91,-1,+77,-140
44407,9.318,-4.553,3.666,-0.831218,0.310980,1.294039,100543.91,-1,+77,-140
44418,9.185,-4.129,3.640,-0.886557,0.313641,1.228057,100547.57,-3,+76,-139
44428,10.078,-4.126,3.376,-0.996172,0.310980,1.280204,100548.41,-4,+75,-138
44438,8.951,-4.100,3.518,-0.526319,0.514246,1.412699,100546.01,-5,+73,-137
44447,9.646,-4.475,2.347,-0.916888,0.320026,1.122168,100545.16,-5,+73,-137
44453,10.187,-4.396,2.249,-0.998833,0.292889,1.146113,100545.16,-5,+72,-136
44463,10.528,-4.035,1.595,-0.993511,0.286503,1.231782,100545.16,-5,+72,-136
44473,11.130,-4.181,1.923,-0.895071,0.295017,1.369599,100547.24,-7,+70,-135
44483,11.751,-3.658,2.758,-0.925934,0.206155,1.522314,100546.93,-7,+67,-134
44492,12.189,-2.758,3.805,-0.960521,0.100797,1.706424,100545.48,-9,+65,-132
44503,12.083,-2.598,3.982,-0.853567,-0.014139,1.900644,100542.64,-9,+65,-132
44513,12.011,-3.518,3.713,-0.797163,-0.082249,2.062937,100545.36,-10,+62,-132
44523,11.912,-4.855,3.706,-0.808869,-0.133331,2.171488,100544.63,-11,+58,-132
44532,11.972,-6.047,3.581,-1.009475,-0.090762,2.244387,100544.63,-12,+55,-131
44542,12.607,-5.803,3.788,-1.326080,-0.030634,2.237469,100544.89,-12,+55,-131
44553,13.360,-6.026,3.451,-1.534667,0.055036,2.259286,100544.52,-12,+51,-131
44563,14.129,-5.714,3.898,-1.824135,0.140173,2.202350,100544.52,-13,+46,-128
44572,15.297,-4.802,4.140,-2.147657,0.239678,2.133708,100547.77,-14,+43,-128
44582,16.773,-2.507,5.332,-2.506831,0.345568,1.969286,100546.21,-14,+43,-128
44593,17.722,0.059,6.926,-2.692006,0.334925,1.774002,100547.04,-14,+37,-126
44603,18.115,1.551,7.043,-2.593033,0.341311,1.647360,100539.93,-13,+34,-126
44613,18.165,1.967,7.292,-2.372208,0.335990,1.614901,100545.98,-12,+31,-125
44622,18.339,0.919,7.673,-1.980575,0.312045,1.780387,100542.84,-11,+28,-124
44633,16.735,-3.663,7.386,-2.018887,0.158265,2.157121,100542.06,-11,+28,-124
44643,16.384,-9.999,7.984,-2.313143,-0.248799,2.497671,100539.92,-9,+23,-124
44653,17.251,-12.091,8.814,-2.054006,-0.148230,2.722222,100539.92,-7,+19,-126
44662,15.934,-5.981,7.538,-1.086631,-0.238157,2.841414,100539.92,-5,+13,-126
44673,13.500,0.079,5.593,-0.571016,-0.549973,2.695084,100544.67,-5,+13,-126
44683,10.567,3.290,4.669,-0.189494,-0.732487,2.506185,100542.94,-3,+8,-128
44688,8.554,4.085,3.422,0.036653,-0.978854,2.226295,100547.55,-3,+8,-128
44698,5.018,2.577,1.509,-0.104888,-1.144872,1.749525,100545.50,-1,+4,-130
44707,0.982,-0.851,1.542,-0.276227,-1.092193,1.194002,100545.50,+1,+1,-131
44718,-0.853,-2.375,4.079,0.075497,-0.841037,0.845471,100542.23,+3,+0,-133
44728,-1.003,-4.052,3.819,0.178194,-0.425459,0.351141,100540.77,+3,+0,-133
44738,0.402,-3.771,5.230,0.071772,-0.035955,-0.053263,100540.25,+5,-1,-133
44747,2.783,-1.776,2.592,-0.079347,0.501476,-0.357630,100544.86,+7,-1,-132
44758,4.976,1.931,-0.748,-0.436925,0.533934,-0.763097,100544.86,+9,+0,-130
44768,4.989,4.401,-0.801,-0.704576,-0.115772,-1.252638,100547.91,+9,+0,-130
44778,3.258,4.031,0.385,-0.346466,-0.264762,-1.607556,100545.15,+10,+1,-130
44787,2.960,3.238,0.980,0.220231,-0.112579,-2.013023,100542.74,+12,+3,-129
44797,3.216,2.296,1.675,0.636873,-0.128542,-2.315794,100543.52,+14,+6,-127
44808,3.641,0.900,2.410,0.918891,-0.100340,-2.558968,100543.52,+14,+6,-127
44818,3.729,-0.432,2.639,1.120561,-0.009882,-2.811720,100542.05,+15,+9,-124
44828,3.927,-1.344,2.553,1.213148,0.138045,-3.084692,100540.16,+18,+13,-121
44837,4.553,-1.433,2.596,1.173772,0.265219,-3.370967,100539.02,+21,+17,-118
44848,5.587,-0.147,2.292,1.106194,0.360467,-3.693958,100537.71,+23,+17,-118
44858,6.818,1.093,1.654,1.162597,0.426980,-4.016948,100537.71,+23,+23,-114
44868,7.730,0.827,1.453,1.306267,0.470613,-4.292049,100540.61,+27,+27,-111
44877,7.930,-0.678,1.521,1.419074,0.432834,-4.534691,100539.56,+31,+32,-108
44888,8.413,-2.223,1.503,1.493569,0.463164,-4.704967,100538.05,+37,+37,-104
44898,9.151,-3.094,1.381,1.642560,0.440815,-4.836398,100540.52,+37,+37,-104
44908,10.019,-3.766,1.345,1.760157,0.393990,-4.943352,100540.52,+42,+41,-101
44918,11.172,-4.472,1.879,1.844762,0.363659,-5.035407,100540.06,+46,+47,-98
44923,11.956,-5.296,2.610,1.797936,0.334393,-5.115755,100538.91,+46,+47,-98
44933,12.478,-5.673,3.161,1.664909,0.313109,-5.230691,100538.91,+53,+50,-96
44943,13.457,-5.831,3.607,1.473881,0.343439,-5.415333,100541.73,+58,+52,-93
44953,14.378,-5.839,3.763,1.349900,0.325880,-5.602104,100540.02,+58,+52,-93
44963,15.429,-5.886,3.758,1.369588,0.291292,-5.775571,100540.02,+63,+55,-93
44973,17.104,-6.899,4.613,1.584028,0.380155,-5.817608,100540.79,+68,+58,-92
44983,18.574,-8.927,5.129,1.800597,0.396118,-5.748966,100540.77,+70,+60,-92
44993,18.764,-10.551,4.918,1.941606,0.328540,-5.571773,100540.77,+70,+60,-92
45002,17.933,-11.522,4.528,1.978854,0.215733,-5.255700,100540.77,+72,+62,-93
45012,17.933,-12.242,5.439,2.018230,0.178485,-4.859278,100540.77,+75,+65,-94
45023,16.825,-14.708,4.026,2.106560,0.095476,-4.331957,100544.27,+77,+67,-96
45033,14.398,-18.791,4.308,2.077294,-0.141313,-3.587536,100543.59,+77,+67,-96
45043,11.275,-21.770,6.335,1.790487,-0.197716,-2.863867,100543.09,+79,+71,-97
45052,7.572,-24.579,7.206,1.201441,-0.162065,-2.288656,100543.09,+81,+73,-101
45063,2.883,-26.430,6.350,0.572488,-0.034891,-1.439409,100543.09,+82,+74,-101
45073,1.266,-25.181,5.134,-0.190026,0.210412,-0.317721,100545.60,+85,+74,-101
45083,4.178,-20.510,4.860,-0.598154,0.493494,0.814076,100544.32,+85,+74,-101
45093,6.738,-17.268,4.833,-0.561970,0.561604,1.726112,100541.57,+85,+74,-99
45103,9.461,-14.096,4.400,-0.477365,0.349292,2.600900,100541.57,+84,+73,-97
45113,17.447,-2.273,2.682,0.069112,0.200834,3.041487,100541.45,+85,+74,-97
45123,28.994,20.105,-14.642,0.732120,0.166247,1.941617,100541.45,+85,+74,-97
45133,22.602,13.293,-8.262,-0.515145,-0.188138,1.489323,100548.88,+85,+73,-96
45143,15.641,-6.966,12.840,0.955607,-0.453129,2.878130,100546.21,+82,+72,-96
45153,10.247,-10.716,13.165,2.218835,-0.580835,3.088845,100542.49,+81,+71,-99
45163,6.626,-11.138,3.227,2.005991,-0.311588,3.212827,100542.49,+81,+71,-99
45173,9.585,-3.683,3.191,2.135826,0.090155,3.602863,100545.21,+80,+70,-101
45184,5.536,3.172,5.793,2.624835,-0.389808,3.232515,100544.27,+77,+70,-103
45193,1.788,-1.334,6.618,2.747752,-0.413221,2.853121,100542.29,+76,+69,-106
45203,4.020,-8.629,4.556,1.911276,-0.302010,2.189580,100546.77,+76,+69,-106
45213,8.632,-14.994,2.653,0.577809,0.090155,1.872442,100545.66,+75,+69,-106
45223,11.685,-18.091,0.829,-0.877512,0.602577,1.736754,100546.86,+75,+67,-104
45233,10.986,-9.291,1.311,-1.782630,0.746246,1.450479,100547.59,+73,+67,-103
45243,9.980,-2.490,2.513,-2.328043,0.994741,1.416956,100547.59,+73,+67,-103
45253,8.830,-0.262,2.378,-1.981107,0.762742,1.352039,100544.09,+73,+65,-99
45262,9.137,1.914,2.850,-1.203163,0.629182,1.234975,100544.09,+71,+65,-99
45273,9.523,2.972,3.624,-0.062851,0.320026,1.291911,100545.05,+71,+65,-99
45283,8.650,-0.068,3.490,0.810341,0.087494,1.283397,100546.14,+71,+65,-99
45293,8.657,-3.772,2.422,1.070010,0.070467,1.225929,100545.00,+71,+65,-99
45303,8.647,-6.391,2.400,0.833753,0.149219,1.108333,100544.84,+70,+64,-99
45314,8.580,-7.824,3.422,0.212781,0.314173,0.935929,100544.84,+69,+64,-100
45323,8.263,-6.946,4.939,-0.607732,0.582356,0.791727,100545.63,+69,+64,-100
45333,8.201,-4.648,5.200,-1.288832,0.770191,0.732663,100547.57,+69,+63,-98
45343,8.919,-2.059,4.301,-1.539988,0.804778,0.690094,100545.10,+68,+62,-97
45352,9.697,0.031,3.185,-1.312777,0.687714,0.725746,100545.10,+68,+61,-97
45363,10.096,0.576,2.541,-0.762044,0.487109,0.790131,100545.10,+68,+61,-97
45373,9.989,-1.286,2.916,-0.193218,0.312045,0.820993,100546.88,+68,+61,-96
45383,9.109,-3.948,3.703,0.060066,0.255109,0.861966,100543.48,+66,+60,-95
45393,8.216,-5.258,4.238,-0.091408,0.332265,0.864449,100546.04,+67,+59,-96
45403,7.903,-5.137,4.283,-0.412448,0.442944,0.797049,100546.04,+67,+59,-96
45413,8.269,-4.414,3.918,-0.780668,0.530210,0.672535,100546.04,+67,+59,-94
45423,8.743,-3.711,3.779,-0.995108,0.554155,0.629966,100544.55,+65,+59,-93
45433,8.925,-3.068,4.030,-1.059493,0.515311,0.649654,100547.42,+66,+58,-93
45444,9.013,-2.661,4.095,-1.011603,0.448797,0.691691,100544.69,+66,+58,-93
45453,9.033,-2.807,4.035,-0.965310,0.396650,0.693287,100544.69,+64,+57,-93
45463,8.750,-3.159,3.862,-0.843989,0.343439,0.802902,100547.28,+65,+56,-92
45473,9.307,-3.826,3.773,-0.934979,0.361531,0.817801,100547.28,+64,+56,-92
45483,9.297,-3.735,3.612,-1.015860,0.275329,0.938058,100545.92,+64,+56,-92
45493,9.267,-3.993,3.648,-1.086631,0.260430,1.131213,100544.83,+63,+55,-91
45503,9.240,-4.305,3.372,-1.170172,0.259898,1.237635,100543.67,+61,+53,-91
45513,8.889,-5.365,2.944,-1.242894,0.279054,1.241538,100548.50,+62,+51,-89
45522,8.982,-5.873,2.922,-1.322355,0.359935,1.149837,100548.50,+62,+51,-89
45533,9.513,-5.402,3.464,-1.390997,0.453586,0.966259,100546.09,+60,+51,-89
45543,9.759,-4.227,2.368,-1.593199,0.337586,1.261580,100546.14,+60,+49,-88
45553,9.037,-2.593,3.763,-0.816851,0.530742,1.197195,100545.97,+60,+50,-89
45563,10.007,-3.281,2.913,-1.017456,0.294485,1.051929,100547.97,+58,+46,-87
45574,10.582,-3.808,2.543,-1.099401,0.102926,1.155158,100547.08,+58,+46,-87
45583,10.879,-3.559,3.064,-0.855695,0.045990,1.399929,100546.23,+57,+45,-87
45593,10.988,-3.437,3.740,-0.735970,0.000760,1.594681,100546.23,+57,+44,-88
45603,11.270,-3.634,4.117,-0.703512,-0.005625,1.722387,100544.05,+55,+41,-87
45613,11.763,-4.013,4.144,-0.837603,-0.007753,1.852222,100544.05,+55,+41,-87
45623,12.347,-4.420,4.041,-1.041933,-0.020524,1.976204,100547.45,+54,+39,-88
45629,12.727,-4.640,3.805,-1.215933,-0.043405,2.053892,100546.78,+54,+39,-88
45638,13.260,-4.654,3.701,-1.370245,-0.045533,2.115084,100544.42,+51,+36,-88
45648,14.069,-4.632,3.730,-1.575107,-0.038084,2.183194,100544.58,+51,+34,-88
45658,15.167,-4.434,3.986,-1.804979,0.006614,2.198093,100544.58,+49,+30,-90
45668,17.016,-2.965,4.722,-2.115199,0.116228,2.157653,100547.94,+49,+30,-90
45678,18.666,-0.585,6.476,-2.363162,0.139641,2.078369,100546.11,+47,+27,-91
45688,19.349,1.659,7.192,-2.362630,0.123146,2.001745,100545.33,+45,+23,-91
45699,19.301,2.445,7.028,-2.155107,0.116228,2.115616,100544.33,+44,+19,-92
45708,18.935,1.781,7.789,-1.833181,0.146026,2.239598,100544.33,+44,+19,-92
45718,17.716,-1.539,8.338,-1.826263,0.121549,2.259818,100543.79,+42,+15,-95
45728,16.852,-6.722,8.474,-2.130098,-0.140249,2.462552,100544.15,+41,+10,-96
45739,17.903,-10.782,9.228,-2.213639,-0.342982,2.834497,100542.90,+40,+6,-98
45748,17.909,-9.335,9.649,-1.548502,-0.188138,3.018075,100543.21,+40,+6,-98
45758,15.752,-3.043,8.008,-0.558246,-0.509533,2.875469,100543.21,+38,+1,-102
45768,13.152,1.614,5.257,0.053148,-0.882542,2.665286,100544.17,+36,-2,-106
45778,10.929,3.259,4.388,0.378268,-1.189569,2.409873,100542.97,+34,-5,-109
45788,6.716,2.489,3.394,0.354323,-1.278964,1.810718,100542.44,+34,-5,-109
45798,1.137,1.422,3.075,0.061662,-1.258211,1.181232,100541.61,+33,-7,-114
45808,-0.019,-0.604,3.069,0.275570,-0.838909,0.774700,100541.61,+32,-10,-116
45818,-0.646,-4.047,4.350,0.323992,-0.259441,0.308572,100543.24,+32,-11,-119
45829,0.615,-4.233,4.388,0.155314,-0.126414,-0.028786,100542.91,+30,-10,-121
45838,2.671,-2.285,1.738,-0.168741,0.345035,-0.352841,100541.51,+30,-10,-121
45848,4.717,0.888,-0.872,-0.448631,0.200834,-0.704565,100540.66,+29,-9,-123
45858,4.339,3.796,-0.974,-0.548668,-0.378634,-1.214326,100540.66,+29,-7,-124
45869,2.633,4.143,0.475,-0.244301,-0.355753,-1.611280,100545.64,+29,-4,-126
45878,2.323,3.537,1.089,0.253754,-0.315845,-1.980564,100541.14,+29,-4,-126
45888,2.511,3.067,1.912,0.745955,-0.327019,-2.288656,100539.20,+31,-1,-126
45898,3.034,2.168,2.877,1.115240,-0.269019,-2.595151,100537.58,+32,+1,-127
45908,3.307,0.654,2.874,1.426524,-0.159405,-2.874509,100537.58,+33,+5,-127
45919,3.386,-0.855,2.638,1.502083,-0.088102,-3.181536,100543.50,+33,+5,-127
45928,3.798,-1.293,2.456,1.378634,0.011935,-3.561995,100540.58,+36,+8,-128
45938,4.864,-0.510,2.372,1.282322,0.118357,-3.937664,100540.20,+40,+12,-128
45948,6.443,0.345,2.031,1.266891,0.279054,-4.285664,100539.22,+44,+14,-128
45959,7.560,-0.151,1.788,1.301478,0.349292,-4.530967,100539.22,+44,+14,-128
45968,7.695,-1.654,2.269,1.324359,0.372173,-4.714544,100538.76,+47,+17,-128
45978,8.141,-2.751,1.774,1.345643,0.380687,-4.883755,100538.20,+52,+19,-128
45988,9.063,-3.126,0.809,1.545184,0.395586,-4.989113,100538.24,+55,+20,-128
45999,10.213,-3.695,0.852,1.818156,0.362063,-5.022636,100537.88,+55,+20,-128
46008,10.897,-5.122,2.109,1.986303,0.321091,-4.995498,100537.88,+58,+19,-130
46018,11.259,-6.155,4.666,1.947459,0.255641,-5.104049,100538.95,+58,+17,-132
46028,12.556,-6.127,5.653,1.709606,0.325880,-5.332324,100540.84,+58,+17,-133
46039,13.492,-5.547,5.415,1.614891,0.364724,-5.564856,100538.99,+58,+17,-133
46048,14.563,-6.311,5.464,1.751111,0.471678,-5.680856,100539.79,+56,+18,-132
46058,16.043,-7.780,5.919,1.972468,0.539788,-5.686177,100539.79,+53,+20,-134
46068,17.130,-9.146,5.824,2.117734,0.455714,-5.636691,100538.90,+50,+25,-135
46078,17.818,-10.418,5.554,2.207129,0.349292,-5.508984,100543.71,+50,+25,-135
46089,17.853,-12.428,5.168,2.246505,0.251384,-5.224838,100542.93,+48,+30,-135
46098,18.183,-14.963,4.627,2.118799,0.128467,-4.827884,100541.68,+49,+38,-138
46108,18.050,-16.664,4.982,2.018230,0.057164,-4.319719,100541.68,+51,+44,-140
46118,14.602,-19.534,4.188,1.910744,-0.175900,-3.601371,100545.08,+51,+44,-140
46129,11.053,-21.772,6.747,1.721313,-0.183882,-2.878234,100546.59,+53,+51,-142
46138,7.373,-24.125,7.982,1.143441,-0.099276,-2.168931,100546.06,+58,+54,-145
46148,2.784,-26.461,6.542,0.265992,0.111971,-1.358528,100544.45,+61,+57,-146
46158,1.447,-26.543,3.854,-0.377860,0.375366,-0.489593,100544.45,+61,+57,-146
46169,5.026,-22.538,3.081,-0.703512,0.605237,0.595379,100543.93,+64,+59,-146
46178,6.800,-18.999,3.039,-0.878576,0.346632,1.639910,100543.84,+66,+59,-146
46188,10.661,-13.586,2.825,-0.280484,0.420595,2.401891,100543.41,+68,+60,-145
46198,21.937,1.878,-1.468,0.407534,0.194981,2.517359,100543.99,+68,+60,-145
46209,30.476,21.196,-16.791,0.040378,-0.102469,1.273287,100543.99,+69,+60,-145
46219,21.608,3.590,1.191,-0.852502,-0.078524,2.035268,100548.52,+69,+61,-145
46228,12.553,-8.473,15.795,0.982744,-0.390340,2.973377,100540.78,+69,+59,-146
46238,8.767,-12.232,11.361,1.559019,-0.404707,3.093634,100540.83,+69,+59,-146
46248,9.945,-8.096,0.003,1.537735,0.252448,3.539542,100541.61,+69,+57,-147
46259,8.106,2.609,4.044,2.418909,-0.242414,3.589028,100541.61,+67,+53,-150
46268,1.194,1.829,6.546,3.068082,-0.506872,3.301157,100545.66,+67,+50,-151
46278,1.104,-6.837,7.493,2.379532,-0.548377,2.558864,100543.36,+68,+50,-151
46288,5.870,-14.032,4.404,0.883240,-0.256249,1.997488,100544.67,+68,+47,-152
46299,10.428,-20.029,-0.241,-1.037677,0.729219,1.842644,100544.45,+68,+48,-153
46308,12.165,-13.412,0.914,-2.112006,0.737732,1.462186,100544.45,+66,+48,-151
46318,10.654,-2.756,2.708,-2.656354,0.883531,1.324369,100545.23,+66,+49,-149
46328,9.620,0.307,2.129,-2.343474,0.815953,1.231250,100547.01,+66,+49,-149
46339,9.292,2.100,2.774,-1.458575,0.765934,1.165269,100545.02,+64,+50,-148
46349,9.251,3.557,4.023,-0.180448,0.489237,1.221672,100544.91,+64,+49,-147
46358,8.755,0.272,3.647,0.857166,0.182742,1.227525,100544.91,+62,+48,-148
46368,8.484,-3.639,2.815,1.261038,0.119421,1.174846,100548.74,+62,+48,-148
46379,8.634,-6.620,2.685,1.041276,0.247659,1.035966,100547.59,+62,+47,-149
46389,8.645,-8.703,3.558,0.306433,0.417935,0.824718,100545.02,+62,+46,-148
46398,8.069,-8.545,5.429,-0.717879,0.694632,0.642205,100542.30,+61,+47,-147
46408,8.014,-5.458,5.711,-1.487309,1.015494,0.586333,100542.30,+61,+47,-147
46418,8.261,-2.015,5.322,-1.668227,0.988356,0.566645,100547.38,+60,+47,-146
46429,10.053,0.560,3.682,-1.091952,0.712723,0.610810,100545.34,+59,+47,-145
46439,10.503,1.068,1.922,-0.688080,0.456779,0.605489,100546.38,+58,+47,-144
46448,10.164,-1.515,3.809,-0.132026,0.295549,0.637416,100545.28,+58,+47,-144
46454,9.610,-3.515,3.870,0.073901,0.242870,0.744902,100545.28,+58,+47,-145
46464,8.826,-4.881,4.193,-0.025072,0.275329,0.855581,100545.28,+58,+47,-145
46474,8.132,-5.116,4.675,-0.333163,0.383347,0.985415,100548.18,+57,+45,-142
46484,7.855,-4.329,4.684,-0.734374,0.467953,1.002975,100545.60,+56,+45,-143
46493,8.189,-3.719,4.673,-1.056833,0.529145,0.930076,100547.54,+56,+45,-144
46503,8.407,-2.818,4.692,-1.264355,0.528081,0.848663,100544.46,+55,+45,-141
46514,8.551,-2.256,4.560,-1.336722,0.494558,0.769911,100548.71,+55,+45,-141
46524,8.622,-2.910,4.157,-1.343640,0.411017,0.646994,100548.34,+53,+44,-141
46533,8.676,-3.439,4.019,-1.514447,0.350357,0.556535,100548.34,+53,+45,-141
46543,8.972,-2.576,3.983,-1.563401,0.348228,0.661893,100543.57,+52,+45,-141
46554,9.246,-2.510,3.823,-1.367053,0.279054,0.952425,100545.62,+52,+45,-141
46564,8.840,-3.651,3.818,-1.466557,0.219458,1.021599,100545.62,+52,+45,-140
46573,9.152,-3.230,4.207,-1.638428,0.026302,0.973709,100544.39,+51,+45,-141
46583,9.213,-3.207,2.930,-0.779603,0.252448,1.776130,100546.53,+51,+43,-139
46594,7.767,-4.523,4.296,-0.621567,0.305659,1.597342,100545.11,+51,+43,-139
46604,8.408,-4.816,3.301,-1.181878,0.074192,1.023195,100544.17,+49,+43,-139
46614,8.907,-4.112,3.251,-1.238282,0.069935,1.066828,100544.17,+49,+43,-140
46623,9.192,-3.592,3.434,-1.130796,0.203494,1.038626,100543.99,+49,+43,-138
46633,10.024,-3.585,3.246,-1.084502,0.165714,1.112590,100540.49,+49,+43,-138
46644,10.221,-3.577,2.477,-1.017456,0.050779,1.299360,100542.21,+48,+42,-138
46653,10.106,-3.687,2.268,-0.922741,-0.019992,1.479745,100542.21,+47,+41,-139
46663,10.302,-3.621,2.889,-0.848246,-0.134395,1.659598,100542.21,+46,+39,-138
46673,10.858,-3.400,3.315,-0.809402,-0.215808,1.803268,100551.19,+46,+39,-138
46684,11.539,-3.913,3.448,-0.718411,-0.191863,1.919800,100548.73,+46,+39,-138
46689,11.973,-4.417,3.479,-0.681695,-0.154083,1.996424,100545.39,+45,+39,-138
46698,12.191,-4.696,3.319,-0.773750,-0.166322,2.054956,100546.13,+45,+37,-139
46708,12.306,-4.979,3.057,-0.946686,-0.209955,2.142754,100546.13,+44,+35,-139
46718,12.835,-5.226,3.065,-1.083970,-0.256249,2.201286,100547.39,+44,+33,-140
46729,13.237,-5.818,3.551,-1.151016,-0.209423,2.222570,100546.61,+44,+33,-140
46739,14.034,-6.479,3.993,-1.340979,-0.054047,2.187983,100544.05,+42,+31,-140
46748,16.151,-5.547,4.090,-1.804979,0.173696,2.058149,100545.25,+41,+29,-140
46758,18.465,-3.262,5.529,-2.318997,0.271604,1.886809,100545.25,+40,+27,-141
46769,19.887,-0.400,7.152,-2.425951,0.167311,1.629800,100546.47,+40,+25,-142
46779,20.593,1.735,6.940,-2.202465,0.060357,1.435580,100545.11,+40,+25,-142
46788,20.934,2.880,7.469,-1.838502,0.031091,1.631929,100544.95,+38,+22,-143
46798,20.295,1.142,8.766,-1.657584,0.100265,2.161378,100544.73,+38,+20,-145
46809,18.050,-4.944,9.320,-1.861915,-0.187074,2.692423,100544.73,+38,+17,-147
46819,17.171,-10.039,9.342,-2.113070,-0.524432,2.924423,100545.12,+38,+17,-147
46829,16.671,-11.790,9.120,-1.665566,-0.504212,3.127157,100544.18,+38,+13,-150
46838,14.902,-5.770,8.332,-0.481622,-0.750046,3.034038,100542.40,+38,+9,-153
46849,13.217,0.505,5.491,0.331442,-1.035789,2.666350,100544.13,+38,+3,-157
46859,10.111,3.053,2.462,0.375607,-1.210321,2.371029,100544.13,+38,+3,-157
46869,5.289,-0.628,2.115,-0.118723,-1.374211,2.021433,100543.84,+40,-2,-161
46878,0.781,-3.882,3.446,-0.294319,-1.297587,1.376516,100544.88,+41,-5,-165
46888,-1.167,-3.492,5.949,-0.093714,-0.892652,0.707122,100541.07,+43,-9,-168
46899,-0.017,-2.379,4.327,0.120726,-0.340854,0.414994,100546.88,+43,-9,-168
46909,3.537,-0.467,4.399,-0.017090,0.161990,0.132443,100546.88,+44,-13,-170
46919,4.576,3.272,1.150,-0.095842,0.103458,-0.263978,100544.83,+44,-14,-173
46924,4.345,6.302,-1.077,-0.320925,-0.391404,-0.693923,100544.25,+44,-14,-173
46934,3.334,5.950,0.190,-0.323585,-0.615423,-1.075978,100544.25,+46,-17,-176
46944,2.133,4.597,1.297,0.182451,-0.531881,-1.492088,100541.91,+47,-19,-177
46954,2.177,3.431,1.009,0.665075,-0.512193,-1.892766,100543.31,+47,-19,-177
46964,2.611,1.755,1.740,0.939111,-0.470157,-2.208308,100543.31,+47,-21,-178
46973,2.951,0.594,2.216,1.155148,-0.441955,-2.469573,100541.86,+50,-24,-181
46984,3.130,-0.157,2.311,1.309992,-0.357349,-2.727647,100538.58,+50,-27,-180
46994,3.463,-0.728,2.627,1.329680,-0.265294,-3.029353,100540.20,+51,-32,-181
47003,4.049,-0.458,2.413,1.274872,-0.210487,-3.367243,100540.20,+51,-32,-181
47013,4.766,0.386,2.447,1.323827,-0.155680,-3.694490,100540.20,+51,-35,-182
47024,5.547,0.833,2.670,1.535074,-0.101937,-3.993536,100541.33,+50,-39,-180
47034,6.216,0.135,3.080,1.696835,-0.083845,-4.229793,100540.81,+47,-44,-182
47044,6.904,-0.816,2.993,1.739404,-0.019460,-4.469242,100540.70,+47,-44,-182
47053,7.523,-1.641,3.088,1.720780,0.012467,-4.704967,100537.14,+43,-49,-180
47064,8.234,-2.274,2.687,1.680872,0.043329,-4.926324,100537.14,+37,-55,-179
47074,9.144,-2.807,2.784,1.736212,0.098137,-5.087554,100541.09,+30,-59,-180
47084,10.054,-4.205,3.454,1.787294,0.213072,-5.177480,100539.39,+30,-59,-180
47094,10.481,-5.693,4.292,1.683533,0.265751,-5.257297,100540.16,+18,-64,-177
47104,11.350,-6.443,5.332,1.410028,0.345568,-5.415865,100540.16,+6,-65,-177
47114,12.780,-6.641,6.063,1.117900,0.498283,-5.637223,100541.84,-8,-61,-177
47124,14.174,-6.554,6.285,0.958267,0.637164,-5.828782,100541.84,-8,-61,-177
47133,15.584,-6.732,6.751,1.098744,0.760613,-5.937333,100539.43,-22,-53,-175
47143,17.075,-7.578,7.044,1.447808,0.878742,-5.939993,100543.41,-34,-42,-173
47154,18.226,-9.651,6.488,1.742597,0.863842,-5.870819,100541.21,-41,-29,-172
47159,18.578,-11.827,5.842,1.796872,0.755824,-5.736195,100541.21,-41,-29,-172
47169,18.485,-13.654,4.681,1.700028,0.590870,-5.502067,100541.44,-44,-17,-171
47178,18.260,-15.332,3.519,1.590413,0.417935,-5.081700,100543.78,-44,-17,-171
47188,17.980,-16.320,3.267,1.548377,0.252981,-4.561829,100544.67,-45,-7,-171
47199,16.792,-17.672,3.757,1.482927,0.183806,-3.956820,100541.44,-46,-2,-172
47209,12.960,-20.596,5.616,1.308927,-0.010414,-3.241665,100541.44,-45,+1,-172
47219,7.785,-23.710,6.909,0.786396,0.086430,-2.504160,100546.20,-47,+1,-172
47228,2.839,-26.450,4.937,-0.101163,0.270540,-1.819335,100543.41,-47,+3,-173
47239,2.064,-26.491,2.003,-0.627952,0.580228,-0.908363,100542.16,-47,+5,-173
47249,5.739,-21.775,0.939,-0.867401,0.695696,0.308040,100546.40,-48,+3,-170
47259,7.467,-17.745,1.356,-0.884429,0.356210,1.415892,100546.40,-48,-1,-170
47268,9.079,-15.030,1.932,-0.206521,0.279054,2.242791,100543.78,-48,-1,-170
47279,12.892,-8.942,4.362,0.267589,0.065146,2.873341,100543.67,-47,-9,-170
47289,21.480,8.790,0.174,1.268487,0.144962,2.405616,100543.98,-46,-17,-168
47299,27.196,30.118,-19.992,1.062561,0.017788,0.690094,100545.45,-47,-19,-168
47308,19.233,4.189,-3.472,0.169148,-0.561147,1.827745,100545.45,-47,-19,-168
47319,15.463,-10.572,14.533,1.636175,-0.670762,2.985616,100545.23,-45,-28,-169
47329,10.108,-15.251,12.533,1.961826,-0.416946,2.672203,100541.88,-45,-38,-168
47339,6.412,-14.007,4.775,1.112579,0.059825,3.090974,100542.72,-45,-45,-167
47349,8.307,-2.707,2.704,2.142211,0.130063,3.420350,100543.77,-45,-45,-167
47358,4.959,1.828,6.664,2.819587,0.115696,2.997854,100543.77,-44,-55,-165
47369,1.842,-3.650,7.848,1.921386,-0.142377,2.683910,100545.35,-42,-64,-163
47379,5.185,-9.169,4.568,0.639533,-0.051918,2.012387,100543.32,-40,-69,-163
47389,10.406,-14.093,0.372,-0.534301,0.432301,1.863397,100542.90,-40,-69,-163
47394,12.207,-13.704,0.276,-1.481988,0.428045,1.669708,100544.05,-38,-71,-163
47404,11.714,-8.523,1.781,-1.925236,0.471146,1.436112,100544.05,-38,-71,-163
47414,10.567,-4.070,2.555,-2.141272,0.692503,1.306278,100544.05,-38,-73,-163
47424,9.388,-2.501,1.101,-1.906612,0.608962,1.190810,100549.94,-37,-74,-165
47434,9.169,1.038,1.927,-1.268080,0.639292,1.130149,100549.63,-37,-75,-165
47444,9.308,3.686,3.420,-0.194815,0.484980,1.261580,100545.20,-36,-75,-165
47454,8.657,-0.127,3.920,0.686359,0.203494,1.239764,100545.20,-36,-77,-164
47464,8.281,-3.869,3.149,0.977955,0.105054,1.186021,100544.82,-35,-81,-163
47474,8.612,-5.520,3.445,0.784267,0.263623,1.038094,100544.82,-34,-84,-162
47483,8.507,-7.098,4.524,0.230341,0.335458,0.836957,100543.99,-33,-85,-160
47494,8.277,-6.647,5.343,-0.541218,0.470613,0.649654,100546.04,-33,-85,-160
47504,8.234,-4.762,5.371,-1.169640,0.665366,0.570370,100545.77,-34,-85,-160
47514,8.384,-3.071,4.007,-1.497419,0.747310,0.512370,100545.77,-33,-85,-162
47524,8.854,-1.918,3.299,-1.493163,0.741989,0.505452,100545.80,-33,-85,-161
47534,10.000,-0.346,3.027,-1.104722,0.652063,0.595379,100547.68,-33,-85,-161
47544,10.166,-0.183,3.590,-0.577934,0.400907,0.661893,100546.70,-34,-85,-162
47554,9.382,-1.895,3.866,-0.147989,0.238081,0.758737,100546.16,-33,-87,-162
47564,8.494,-4.118,4.307,-0.078283,0.225843,0.857709,100546.20,-31,-88,-162
47575,7.941,-5.404,5.101,-0.403934,0.295017,0.848131,100547.30,-31,-88,-162
47584,8.086,-4.927,5.695,-0.889218,0.349292,0.683709,100542.22,-32,-89,-162
47594,8.575,-2.879,5.510,-1.295750,0.372705,0.523012,100542.22,-32,-89,-163
47604,8.676,-1.471,5.050,-1.458043,0.347696,0.396902,100547.25,-32,-88,-163
47613,8.662,-1.545,4.406,-1.423456,0.306191,0.363379,100547.25,-32,-88,-163
47624,8.150,-1.275,4.238,-1.475603,0.270008,0.396902,100545.99,-31,-87,-165
47634,8.924,-0.686,4.152,-1.287236,0.238081,0.514498,100546.10,-30,-86,-167
47644,8.712,-1.168,4.183,-1.000429,0.100797,0.757140,100545.37,-29,-88,-167
47654,8.714,-2.605,3.822,-0.999897,0.106118,0.988076,100547.77,-29,-88,-167
47664,9.015,-2.814,3.634,-1.080778,0.077384,1.179103,100547.77,-29,-89,-168
47674,8.878,-3.626,3.491,-1.168043,0.066210,1.454204,100544.62,-26,-90,-172
47684,9.417,-4.652,3.385,-1.325548,0.169439,1.446755,100544.93,-25,-91,-172
47694,9.598,-4.977,1.795,-1.285640,0.166247,1.788369,100544.40,-25,-91,-172
47705,8.949,-4.732,4.187,-0.404998,0.396118,1.433452,100544.40,-23,-94,-172
47714,9.449,-5.034,2.573,-0.998300,0.250320,1.068424,100544.40,-21,-96,-174
47724,10.003,-4.559,2.410,-1.019585,0.215733,1.146113,100546.01,-20,-97,-174
47734,10.434,-4.457,2.137,-0.966906,0.178485,1.238700,100547.46,-20,-97,-174
47744,10.573,-3.675,1.912,-1.033420,0.067274,1.357892,100547.62,-20,-98,-177
47754,10.794,-3.106,2.476,-0.817383,0.008210,1.560094,100544.32,-18,-99,-178
47764,11.343,-2.727,3.297,-0.586447,-0.112047,1.738883,100544.32,-16,-103,-177
47774,11.878,-3.212,3.927,-0.468851,-0.282854,1.963965,100547.23,-16,-103,-177
47784,12.007,-4.442,4.079,-0.490136,-0.369588,2.126791,100547.85,-16,-106,-180
47794,11.966,-5.896,3.878,-0.668392,-0.341386,2.216717,100546.10,-12,-109,-182
47804,12.195,-6.433,3.661,-1.040869,-0.252524,2.272057,100546.10,-9,-112,-184
47814,12.641,-6.135,3.558,-1.456447,-0.149827,2.310901,100548.46,-9,-112,-184
47824,13.361,-5.698,3.751,-1.733676,-0.056175,2.322607,100548.46,-8,-114,-187
47834,14.944,-4.600,3.971,-2.007180,0.093880,2.301855,100546.57,-6,-117,-191
47844,16.560,-2.653,5.028,-2.265786,0.257769,2.267800,100547.15,-5,-117,-194
47854,17.576,-1.251,6.223,-2.380722,0.268944,2.178937,100545.90,-5,-117,-194
47864,18.665,-0.043,7.468,-2.359437,0.183806,1.916075,100545.90,-5,-119,-200
47874,19.480,0.675,8.263,-2.231731,0.174760,1.584039,100541.90,-6,-119,-204
47884,19.915,1.079,8.215,-1.989621,0.242870,1.578718,100542.99,-8,-121,-207
47894,19.116,-0.126,8.648,-1.998135,0.434430,2.075708,100543.41,-8,-121,-207
47904,16.843,-5.118,9.038,-2.302501,0.134320,2.641341,100539.34,-9,-124,-212
47915,15.728,-9.985,8.912,-2.425419,-0.221129,2.932937,100543.98,-9,-127,-219
47924,16.476,-10.533,8.477,-1.798061,-0.338193,2.893029,100543.25,-8,-131,-224
47934,15.025,-4.551,7.548,-0.572613,-0.628725,2.795653,100542.52,-8,-135,-227
47944,12.824,1.009,5.249,0.188836,-1.068248,2.444992,100542.52,-8,-135,-227
47954,9.890,4.061,2.813,0.461809,-1.246505,2.149671,100542.58,-7,-142,-230
47964,5.052,3.621,1.966,0.110616,-1.291734,1.613305,100542.58,-8,-148,-234
47974,0.659,1.541,2.430,-0.245897,-1.383789,1.088113,100545.07,-11,-151,-239
47984,-1.303,-0.223,3.433,0.160103,-1.182652,0.662957,100545.54,-11,-151,-239
47994,-2.621,-3.342,4.178,0.449038,-0.744725,0.264939,100544.23,-13,-155,-240
48005,-1.380,-4.138,6.815,0.343148,-0.409496,-0.046878,100541.15,-18,-158,-241
48014,1.759,-1.785,4.698,0.228213,0.232760,-0.429464,100541.15,-27,-159,-243
48024,4.717,2.178,-1.515,-0.069237,0.635567,-0.813116,100543.95,-27,-159,-243
48034,6.100,5.472,-3.683,-0.476833,-0.106726,-1.346290,100545.77,-35,-159,-246
48045,3.847,4.786,-1.211,-0.237383,-0.556891,-1.690565,100542.32,-44,-156,-248
48054,2.908,3.715,1.036,0.377735,-0.327551,-2.100821,100542.32,-54,-153,-252
48064,3.214,2.267,1.709,0.777350,-0.393533,-2.420087,100542.32,-54,-153,-252
48074,3.636,1.263,2.582,1.042341,-0.346175,-2.684014,100544.09,-64,-152,-252
48084,4.316,0.479,3.024,1.383955,-0.184414,-2.917610,100542.20,-77,-150,-251
48094,4.970,-0.480,2.504,1.521771,-0.135992,-3.176215,100545.56,-90,-145,-253
48104,5.755,-1.101,2.020,1.409496,-0.048194,-3.531664,100538.91,-90,-145,-253
48114,6.823,-0.359,2.091,1.317973,-0.023184,-3.902013,100538.91,-103,-138,-251
48124,7.953,0.471,2.152,1.381827,0.019384,-4.231921,100541.70,-117,-129,-253
48135,8.639,-0.081,1.970,1.553698,0.053971,-4.417627,100539.41,-132,-119,-254
48144,8.612,-1.223,2.342,1.703753,0.040137,-4.582049,100540.53,-132,-119,-254
48154,9.436,-2.195,1.996,1.783037,0.027898,-4.743811,100540.53,-147,-105,-254
48164,10.332,-3.278,1.712,1.905955,0.003421,-4.847572,100539.93,-160,-91,-254
48175,10.825,-4.130,2.755,2.115606,-0.012010,-4.917810,100541.77,-172,-72,-256
48184,11.472,-5.127,3.764,2.230010,0.031623,-5.004012,100541.77,-172,-72,-256
48194,12.106,-5.588,4.535,2.182120,0.010338,-5.131186,100538.88,-182,-53,-256
48204,13.179,-5.886,5.113,2.027808,0.060889,-5.304654,100539.05,-189,-30,-257
48215,14.144,-5.704,5.473,1.883606,0.132724,-5.439810,100539.05,-191,-3,-261
48220,15.001,-5.957,5.921,1.870303,0.220522,-5.486104,100541.05,-191,-3,-261
48229,15.872,-6.968,6.556,2.001734,0.320558,-5.487700,100541.37,-189,+21,-260
48239,16.670,-9.050,6.592,2.203936,0.343439,-5.445131,100539.65,-182,+44,-261
48249,16.989,-11.326,5.868,2.298652,0.270540,-5.337113,100541.84,-182,+44,-261
48260,16.974,-13.343,4.491,2.309826,0.177953,-5.098196,100541.84,-171,+64,-264
48269,17.014,-15.392,3.566,2.131037,0.059293,-4.697517,100544.73,-158,+78,-263
48279,16.935,-16.978,4.711,1.944266,0.031091,-4.202123,100543.57,-148,+87,-265
48289,13.783,-19.734,4.014,1.794744,-0.202505,-3.481646,100541.79,-148,+87,-265
48300,10.498,-21.490,6.261,1.718120,-0.288175,-2.832472,100542.68,-136,+95,-268
48309,7.747,-23.053,8.061,1.360542,-0.195056,-2.171060,100542.68,-127,+95,-268
48319,3.957,-25.531,7.542,0.554396,-0.015735,-1.372895,100542.97,-123,+97,-266
48329,1.496,-27.902,5.452,-0.091053,0.166247,-0.490657,100545.53,-123,+97,-266
48339,3.158,-26.346,4.028,-0.548136,0.410485,0.430957,100545.02,-119,+97,-266
48350,6.576,-21.187,4.620,-0.923805,0.497219,1.344057,100541.77,-121,+95,-262
48359,10.436,-14.685,2.912,-0.955732,0.355146,2.087947,100541.77,-123,+89,-261
48369,21.755,-0.772,-3.428,-0.519934,0.154540,2.311965,100546.13,-123,+89,-261
48379,29.472,16.530,-12.952,-0.508227,0.167843,1.239764,100547.33,-125,+86,-261
48390,20.372,3.178,-0.183,-1.064814,0.049715,1.813378,100548.64,-125,+82,-258
48399,11.381,-9.200,13.017,0.458616,-0.045001,2.662093,100543.56,-127,+71,-258
48409,10.791,-13.648,8.525,0.657625,0.055568,2.788735,100543.56,-127,+71,-258
48419,11.482,-8.858,-1.356,0.412855,0.155604,3.012753,100548.70,-128,+62,-258
48430,8.616,2.217,2.061,1.261570,0.339182,3.041487,100547.03,-130,+49,-255
48439,2.525,2.952,6.697,2.020890,0.128999,2.839286,100542.80,-131,+33,-256
48449,1.086,-3.396,7.595,1.947991,-0.148762,2.444460,100541.23,-131,+33,-256
48455,4.388,-7.827,3.659,1.407368,-0.208359,2.029415,100541.23,-130,+25,-258
48464,7.833,-12.427,1.955,0.651772,0.076320,1.804332,100541.23,-131,+17,-255
48475,11.561,-13.959,1.630,-0.454484,0.314705,1.512204,100546.48,-131,+17,-255
48485,12.086,-7.883,2.030,-1.439419,0.470613,1.250938,100544.13,-132,+15,-253
48494,10.715,-2.495,3.173,-1.961419,0.504668,1.189746,100544.46,-133,+16,-254
48504,9.599,-0.247,2.444,-1.731548,0.559476,1.211562,100544.46,-134,+15,-250
48515,8.847,1.308,2.772,-1.028631,0.598852,1.175379,100546.69,-134,+15,-250
48525,8.824,2.090,3.386,-0.129897,0.390265,1.172186,100547.27,-136,+11,-249
48534,8.648,-0.822,3.853,0.665607,0.186467,1.149305,100547.27,-135,+8,-249
48544,8.823,-4.031,3.628,0.931130,0.107182,1.073213,100542.23,-136,+1,-247
48555,8.816,-5.982,3.471,0.761919,0.149751,0.944975,100544.13,-136,+1,-247
48565,8.574,-6.533,3.901,0.260139,0.227971,0.778957,100544.13,-136,-3,-246
48574,8.143,-5.595,4.951,-0.315071,0.373237,0.665617,100546.41,-137,-3,-247
48584,8.047,-3.916,4.574,-0.761512,0.488173,0.569306,100545.41,-137,-4,-243
48594,8.439,-2.941,3.730,-1.015328,0.508393,0.470333,100540.35,-137,-4,-243
48605,8.939,-2.248,3.348,-1.014264,0.507329,0.472462,100545.63,-139,-3,-243
48615,9.607,-1.240,3.244,-0.813126,0.505201,0.551214,100545.90,-139,-1,-242
48624,9.726,-0.970,3.473,-0.532704,0.469017,0.670938,100547.41,-140,-5,-239
48634,9.345,-0.761,3.952,-0.236319,0.412081,0.851856,100546.63,-140,-5,-239
48645,8.792,-0.900,4.789,0.001002,0.418467,1.083856,100543.23,-141,-7,-239
48655,8.081,-1.768,5.325,0.079222,0.412081,1.240296,100543.23,-141,-11,-238
48664,7.667,-3.656,4.827,-0.108081,0.347696,1.120571,100543.23,-141,-16,-234
48674,8.153,-5.994,4.290,-0.422026,0.251916,0.818333,100545.73,-141,-16,-234
48685,9.203,-5.559,3.313,-0.774814,0.295017,0.600700,100547.52,-142,-17,-236
48690,9.442,-4.393,3.388,-1.006282,0.397182,0.528865,100545.69,-143,-15,-235
48699,9.132,-3.891,3.578,-1.167511,0.431237,0.500663,100547.05,-143,-15,-235
48709,8.724,-2.270,3.867,-1.470282,0.380155,0.443196,100547.05,-143,-15,-233
48719,9.164,-0.336,3.953,-1.340979,0.326412,0.556535,100547.31,-144,-15,-233
48730,9.013,-1.937,3.241,-0.983934,0.255109,0.763526,100543.08,-145,-14,-234
48740,8.915,-3.038,3.059,-1.039805,0.194448,0.833232,100546.53,-145,-14,-234
48749,9.126,-3.396,3.341,-1.181878,0.168375,1.059911,100543.61,-143,-17,-231
48759,9.635,-3.713,3.895,-1.559676,0.267347,1.213691,100543.61,-144,-18,-232
48770,10.372,-3.405,2.255,-1.124411,0.364191,1.721855,100547.91,-144,-21,-231
48780,9.113,-4.044,5.098,-0.404466,0.380687,1.746864,100543.98,-144,-21,-231
48789,9.723,-4.834,2.953,-1.070667,0.120485,1.280736,100545.24,-143,-27,-229
48799,10.001,-4.488,3.046,-1.149420,0.080577,1.265837,100545.76,-143,-28,-231
48809,9.759,-4.061,2.839,-1.083438,0.173164,1.299892,100545.76,-142,-31,-228
48820,10.855,-3.597,2.580,-1.119622,0.152412,1.367470,100547.57,-142,-31,-228
48829,11.942,-3.170,2.760,-1.077053,-0.051918,1.575525,100545.84,-141,-35,-227
48839,12.089,-3.209,2.922,-0.938172,-0.245074,1.808589,100544.37,-139,-37,-230
48849,12.285,-3.537,3.216,-0.793970,-0.308927,1.994295,100543.43,-137,-42,-231
48860,12.553,-4.059,3.479,-0.798759,-0.359478,2.178405,100543.43,-137,-42,-231
48870,12.693,-4.265,3.479,-0.936044,-0.356285,2.323139,100546.68,-134,-51,-230
48879,12.988,-4.277,3.496,-1.091952,-0.292964,2.434350,100544.59,-130,-55,-234
48889,13.706,-4.131,3.581,-1.240942,-0.252524,2.501928,100543.63,-127,-61,-234
48900,14.366,-4.457,3.854,-1.405364,-0.237093,2.515763,100546.41,-127,-61,-234
48910,15.267,-5.185,4.125,-1.649071,-0.165258,2.404020,100546.41,-122,-68,-234
48919,17.247,-4.442,4.697,-2.022612,-0.001900,2.152332,100545.14,-118,-70,-236
48925,18.914,-2.607,6.465,-2.303566,0.066210,1.893195,100545.52,-118,-70,-236
48934,19.674,-0.322,8.117,-2.359969,-0.004561,1.613837,100545.52,-115,-71,-237
48945,20.659,2.234,7.773,-2.107749,-0.000304,1.580846,100542.73,-111,-75,-236
48955,20.770,2.867,7.663,-1.777841,0.307256,2.226827,100542.42,-106,-77,-238
48965,18.666,-0.158,9.276,-1.805511,0.163054,2.730203,100542.03,-106,-77,-238
48974,16.382,-5.942,9.440,-1.988025,-0.213680,2.968056,100543.61,-100,-81,-238
48985,16.422,-10.206,8.775,-1.953437,-0.480267,3.106405,100543.77,-93,-87,-237
48995,16.343,-8.971,7.595,-1.140906,-0.513258,3.155891,100542.88,-86,-94,-239
49004,14.065,-3.784,6.999,-0.194815,-0.751643,2.884515,100542.88,-86,-94,-239
49014,11.457,0.487,4.583,0.336231,-1.127312,2.547689,100542.88,-79,-100,-237
49025,7.976,1.800,2.862,0.322396,-1.379000,2.310901,100545.90,-69,-108,-236
49035,2.876,0.888,2.658,-0.116062,-1.242248,1.734626,100544.91,-63,-109,-238
49045,-0.462,0.418,4.844,-0.238980,-0.988432,1.095030,100543.29,-63,-109,-238
49054,-0.966,0.032,4.922,0.091460,-0.557955,0.587397,100545.70,-58,-111,-236
49064,-0.615,-1.378,5.695,0.110616,-0.029570,0.149471,100545.70,-55,-112,-233
49075,2.415,-0.753,3.661,-0.162888,0.483916,-0.293776,100542.19,-56,-109,-232
49085,4.526,1.848,-0.992,-0.524723,0.559476,-0.684877,100544.17,-56,-109,-232
49095,4.546,3.900,-1.885,-0.828025,-0.144506,-1.120675,100544.02,-57,-105,-229
49104,3.017,3.699,-0.654,-0.685420,-0.157276,-1.515500,100544.02,-57,-101,-228
49115,2.713,3.286,0.177,-0.202264,-0.035955,-1.900748,100544.13,-58,-93,-229
49125,2.924,2.704,1.056,0.256946,-0.114707,-2.179041,100544.13,-58,-93,-229
49134,3.718,1.833,2.269,0.653900,0.002357,-2.441372,100541.20,-60,-88,-224
49144,4.233,0.992,2.386,0.997643,0.057164,-2.678693,100543.23,-61,-83,-221
49155,4.274,-0.096,2.236,1.193460,0.108247,-2.924527,100538.89,-64,-75,-221
49165,4.672,-0.765,2.185,1.255184,0.201366,-3.234747,100538.89,-64,-75,-221
49175,5.383,0.103,2.084,1.306267,0.251384,-3.544967,100539.34,-66,-69,-216
49184,6.466,1.419,2.058,1.508469,0.328540,-3.889774,100538.24,-68,-62,-213
49195,7.776,1.693,1.876,1.754835,0.375898,-4.188820,100540.45,-71,-51,-212
49205,8.253,0.466,1.896,1.998542,0.331201,-4.398471,100538.83,-71,-51,-212
49215,8.492,-0.955,2.458,2.125184,0.277458,-4.617168,100540.41,-71,-43,-210
49225,9.312,-2.300,2.687,2.214046,0.279586,-4.793297,100536.06,-73,-35,-207
49234,10.169,-3.100,2.000,2.299184,0.224779,-4.969425,100536.06,-72,-26,-210
49245,11.353,-4.313,2.046,2.311422,0.237017,-5.143957,100539.05,-72,-26,-210
49255,12.285,-5.091,2.590,2.236927,0.230632,-5.254104,100536.84,-74,-17,-209
49264,12.988,-4.602,2.981,2.096982,0.155604,-5.442471,100536.84,-77,-8,-209
49274,14.213,-5.248,3.988,1.944266,0.176357,-5.610085,100541.16,-77,+2,-213
49285,15.516,-6.225,4.732,1.805918,0.167311,-5.740984,100541.63,-77,+2,-213
49295,17.050,-7.591,5.968,1.763349,0.236485,-5.803241,100539.53,-76,+16,-212
49305,18.638,-9.030,6.605,1.780909,0.234357,-5.844213,100540.27,-75,+31,-212
49314,18.783,-10.532,7.062,1.833056,0.155604,-5.792599,100540.27,-70,+45,-216
49325,18.272,-13.085,7.253,1.828799,0.180081,-5.542507,100541.81,-64,+45,-216
49335,18.657,-15.935,7.775,1.695239,0.279054,-5.125333,100546.03,-64,+58,-214
49345,17.447,-19.273,5.414,1.410028,0.319494,-4.641113,100545.03,-58,+68,-214
49354,14.435,-23.228,2.799,0.868873,0.147091,-3.893499,100545.03,-50,+76,-216
49364,11.154,-24.840,4.163,0.455423,0.254577,-3.351811,100545.03,-46,+76,-216
49375,7.132,-26.104,5.572,-0.104356,0.313641,-2.783518,100545.53,-46,+83,-214
49385,2.441,-28.386,5.719,-0.783328,0.478063,-1.906601,100545.17,-42,+90,-211
49395,0.473,-28.437,4.367,-1.206001,0.484094,-0.632553,100544.47,-40,+92,-211
49404,3.369,-24.107,3.214,-1.248392,0.524356,0.582608,100544.47,-40,+95,-207
49415,6.615,-20.152,3.136,-0.870062,0.614815,1.520718,100544.47,-40,+95,-207
49425,9.561,-15.653,2.279,-0.653493,0.261494,2.456699,100544.09,-43,+91,-205
49435,17.995,-2.398,2.687,-0.051145,0.007146,2.928148,100547.59,-44,+85,-208
49444,32.716,24.366,-16.888,1.297221,0.072595,1.651617,100546.07,-44,+84,-206
49455,23.339,22.975,-8.553,-0.845053,-0.115239,0.749691,100546.07,-44,+84,-206
49465,16.185,-5.181,13.231,1.067350,-0.268487,2.947836,100545.09,-46,+80,-204
49475,10.960,-13.507,13.772,2.151257,-0.966615,3.320845,100545.09,-45,+69,-211
49484,7.893,-19.509,2.088,0.837478,-0.129606,3.178772,100543.48,-48,+64,-207
49495,9.401,-9.200,-0.687,1.516982,-0.068414,3.678955,100546.36,-48,+64,-207
49505,4.620,0.364,5.275,2.587587,-0.281790,3.399597,100546.41,-51,+54,-207
49515,1.797,-1.307,7.969,2.148597,-0.054579,2.954221,100546.41,-51,+43,-211
49525,3.400,-8.934,5.785,0.752341,-0.240285,2.206075,100543.84,-52,+40,-209
49534,7.606,-15.171,1.337,-0.451824,0.347164,1.811250,100546.98,-52,+40,-209
49545,11.232,-13.652,0.615,-1.584685,0.712723,1.499966,100544.79,-54,+37,-207
49555,11.322,-5.510,2.741,-2.198740,0.595659,1.244553,100542.59,-54,+37,-208
49565,10.518,-0.153,2.839,-2.139676,0.735604,1.237103,100542.38,-57,+39,-203
49575,9.594,0.561,2.849,-1.551695,0.779769,1.188149,100544.27,-57,+39,-203
49585,9.103,1.115,3.051,-0.890282,0.591934,1.107269,100544.21,-58,+37,-202
49595,9.618,2.041,3.627,0.002598,0.359402,1.147177,100544.21,-59,+34,-203
49605,9.122,-1.421,3.612,0.743295,0.051843,1.148241,100543.12,-60,+34,-199
49614,8.386,-4.219,3.056,0.906120,-0.056175,1.103012,100543.12,-60,+34,-199
49625,8.231,-6.426,3.257,0.628359,0.043861,0.958278,100547.60,-60,+30,-200
49631,7.900,-7.999,3.927,0.152653,0.143898,0.798113,100544.10,-60,+26,-202
49640,7.843,-7.822,5.025,-0.511420,0.282779,0.645929,100543.77,-60,+26,-202
49650,8.223,-5.484,5.757,-1.264355,0.513182,0.490553,100543.57,-61,+29,-197
49659,8.270,-3.379,5.140,-1.650667,0.689310,0.468205,100543.57,-62,+27,-197
49670,8.689,-1.956,4.308,-1.687383,0.688246,0.458095,100546.97,-62,+28,-197
49680,9.399,-0.746,3.345,-1.420796,0.603641,0.526205,100543.31,-62,+28,-197
49690,9.868,-0.344,2.822,-0.891878,0.469549,0.623581,100543.27,-64,+31,-193
49699,9.926,-1.445,3.260,-0.378925,0.308320,0.720425,100546.81,-64,+28,-194
49710,9.614,-3.027,4.115,-0.110741,0.237549,0.896021,100546.81,-64,+25,-194
49720,8.688,-4.415,4.976,-0.175127,0.243403,1.033837,100544.92,-64,+25,-194
49730,8.032,-4.507,5.423,-0.497053,0.287036,0.955617,100548.28,-66,+25,-190
49740,7.850,-3.794,5.231,-0.937640,0.309384,0.782682,100546.28,-66,+23,-192
49750,7.675,-2.668,4.940,-1.258502,0.291825,0.666150,100542.73,-66,+24,-192
49760,7.911,-2.023,4.280,-1.393126,0.267347,0.592186,100542.73,-66,+24,-192
49770,8.674,-1.179,3.658,-1.323952,0.225843,0.597507,100547.74,-68,+25,-188
49780,8.628,-2.237,3.197,-1.052576,0.133256,0.744902,100543.40,-68,+24,-189
49789,8.981,-2.666,2.570,-0.953071,0.067806,0.859305,100545.24,-68,+23,-190
49800,9.306,-3.178,2.579,-0.895603,0.028430,1.111525,100546.23,-68,+23,-190
49810,9.725,-4.245,2.717,-0.937640,0.055036,1.375984,100546.23,-69,+23,-187
49820,10.212,-5.217,3.114,-0.959989,0.034283,1.328626,100544.90,-69,+19,-189
49829,11.119,-4.954,1.727,-1.056833,0.018320,1.677158,100544.90,-69,+18,-189
49840,9.025,-4.993,3.495,-0.416172,0.229036,1.833598,100549.87,-69,+18,-189
49850,9.182,-4.451,2.662,-0.883365,0.076852,1.207837,100546.30,-70,+15,-185
49860,9.969,-3.665,2.431,-1.007878,-0.024781,1.230186,100546.30,-69,+13,-188
49865,10.598,-3.448,2.574,-0.871126,-0.006157,1.291911,100546.36,-69,+13,-188
49874,11.011,-3.511,2.768,-0.803548,-0.128010,1.415360,100546.36,-69,+11,-189
49885,10.952,-3.511,3.227,-0.687016,-0.272744,1.607984,100545.42,-69,+9,-185
49895,11.223,-3.679,4.083,-0.483218,-0.287111,1.768681,100542.75,-69,+3,-188
49905,11.894,-4.166,4.299,-0.571016,-0.333404,1.885213,100540.34,-69,+3,-188
49915,12.467,-4.434,4.266,-0.710429,-0.356285,2.049103,100544.46,-67,+1,-189
49925,12.734,-4.555,3.879,-0.938704,-0.365331,2.194369,100547.29,-68,-2,-185
49935,13.145,-4.447,3.375,-1.122282,-0.329680,2.288552,100545.15,-64,-7,-189
49945,13.803,-4.651,3.154,-1.336190,-0.345643,2.369965,100545.15,-64,-7,-189
49955,14.543,-4.584,3.601,-1.553823,-0.329148,2.425836,100545.04,-64,-9,-189
49965,15.820,-4.936,4.489,-1.789548,-0.241349,2.363047,100545.04,-63,-13,-185
49975,18.094,-3.814,5.905,-2.123713,-0.069478,2.136901,100545.20,-61,-16,-188
49985,19.921,-1.428,8.189,-2.353584,-0.052451,1.772406,100541.38,-61,-16,-188
49995,20.318,0.879,8.944,-2.306226,-0.151955,1.476021,100544.42,-59,-17,-189
50006,20.858,2.964,8.840,-2.071566,-0.002964,1.719727,100542.73,-58,-17,-185
50015,20.150,2.202,9.442,-1.800190,0.216265,2.418387,100542.73,-53,-20,-188
50025,17.828,-2.986,9.309,-2.205657,-0.041808,2.773304,100543.36,-53,-20,-188
50035,16.098,-8.742,10.069,-2.479694,-0.380230,3.158019,100541.81,-49,-23,-188
50045,17.042,-10.679,9.568,-1.916190,-0.473349,3.120772,100539.98,-45,-27,-185
50055,16.237,-6.211,9.453,-0.764704,-0.694707,3.120239,100539.98,-38,-33,-190
50065,14.081,-0.286,7.083,0.344213,-1.108156,2.739249,100539.98,-38,-33,-190
50075,10.774,3.279,2.881,0.605478,-1.489147,2.407745,100543.56,-33,-39,-191
50085,4.433,1.156,1.715,0.094121,-1.292266,2.046442,100545.97,-27,-44,-190
50095,-0.294,-0.662,4.909,-0.137879,-0.895312,1.465378,100543.98,-19,-47,-194
50101,-1.298,-0.898,5.139,0.136690,-0.479735,1.059911,100543.09,-19,-47,-194
50110,-0.460,-0.850,5.127,0.104763,-0.077992,0.632095,100543.09,-14,-49,-194
50120,2.945,1.729,2.975,-0.129365,0.174760,0.041985,100544.55,-12,-51,-192
50130,4.134,3.752,-0.641,-0.555053,0.147623,-0.385831,100543.61,-12,-51,-192
50140,3.175,4.129,-0.937,-0.879640,-0.256249,-0.807795,100541.88,-6,-49,-195
50150,1.979,3.940,-0.265,-0.569952,-0.076928,-1.309574,100542.09,-2,-49,-197
50160,2.215,3.942,0.593,-0.121916,-0.031698,-1.754418,100542.09,+0,-48,-194
50170,2.343,3.232,1.705,0.303240,-0.000836,-2.024198,100544.96,+0,-48,-194
50180,2.918,2.556,1.938,0.708176,0.097604,-2.298234,100541.76,+5,-48,-199
50190,3.701,1.189,2.288,1.014139,0.201366,-2.556307,100539.88,+5,-50,-197
50200,3.062,-0.747,2.222,1.134928,0.154540,-2.839390,100541.02,+8,-52,-195
50210,3.248,-1.776,2.218,1.133863,0.292357,-3.184197,100541.02,+8,-52,-195
50221,4.235,-1.010,2.024,1.161533,0.451457,-3.474197,100540.75,+11,-57,-197
50230,5.241,0.836,1.796,1.282322,0.499879,-3.804637,100541.02,+9,-60,-196
50240,6.610,1.929,1.806,1.471753,0.600980,-4.138802,100540.13,+5,-63,-194
50250,7.566,1.547,2.023,1.749514,0.627586,-4.389425,100537.77,+5,-63,-194
50260,8.039,0.117,2.110,1.905955,0.591402,-4.618233,100537.77,+1,-71,-196
50270,8.329,-1.392,2.489,1.985771,0.534467,-4.825223,100539.71,-8,-75,-192
50280,9.236,-2.501,2.333,2.107092,0.564265,-5.011994,100541.96,-20,-79,-189
50290,10.855,-3.205,1.589,2.228413,0.503072,-5.224838,100538.20,-20,-79,-189
50300,12.461,-4.702,1.821,2.232670,0.501476,-5.345627,100541.65,-31,-85,-189
50310,13.339,-5.588,3.077,2.163496,0.423256,-5.480250,100541.65,-47,-82,-184
50320,13.936,-5.455,3.977,1.996945,0.413678,-5.640947,100541.55,-63,-78,-178
50330,15.101,-6.170,4.726,1.832523,0.458907,-5.814948,100541.34,-63,-78,-178
50335,16.139,-6.735,5.804,1.740469,0.502540,-5.891571,100539.20,-79,-73,-177
50345,17.271,-7.186,7.162,1.764413,0.564797,-5.964470,100539.20,-95,-60,-172
50356,19.061,-8.040,8.118,1.926175,0.623861,-6.034177,100538.98,-95,-60,-172
50365,19.853,-9.981,8.273,2.145404,0.592999,-6.019810,100538.98,-108,-45,-167
50375,19.671,-12.943,8.061,2.159239,0.610558,-5.803241,100542.73,-120,-33,-165
50385,19.019,-15.784,7.565,1.929367,0.577035,-5.440342,100543.88,-128,-15,-160
50396,18.283,-18.882,4.959,1.566469,0.589274,-4.979003,100544.34,-128,-15,-160
50405,15.532,-22.168,1.365,1.146634,0.346100,-4.228196,100544.34,-134,-2,-156
50415,11.954,-24.080,3.604,0.705515,0.398246,-3.482178,100544.34,-143,+3,-156
50425,7.701,-25.819,6.233,0.047827,0.494558,-2.641977,100547.12,-146,+17,-151
50436,1.669,-28.006,6.164,-0.662539,0.615879,-1.643739,100542.66,-146,+17,-151
50445,-1.131,-28.042,3.119,-0.992447,0.643017,-0.469905,100543.51,-151,+21,-147
50455,3.791,-23.000,1.879,-1.170172,0.764870,0.682645,100543.62,-156,+16,-145
50465,7.758,-18.574,1.674,-1.161126,0.524356,1.794222,100543.62,-160,+13,-140
50476,9.817,-15.068,0.558,-0.734374,0.196045,2.774900,100547.81,-160,+13,-140
50486,14.035,-7.886,0.609,-0.102760,-0.132799,3.321377,100543.83,-165,+0,-137
50495,22.263,5.494,5.364,1.036487,-0.237093,3.062772,100541.38,-167,-17,-138
50505,34.258,33.945,-25.474,1.327019,-0.275404,0.540040,100541.38,-169,-13,-136
50515,20.333,14.844,-0.410,-0.084136,-0.131203,1.296700,100544.02,-169,-13,-136
50526,16.239,-8.168,14.884,2.075698,-0.557423,3.756643,100542.62,-174,-24,-135
50535,11.543,-16.482,12.693,1.629258,-1.341220,3.541138,100542.62,-174,-41,-139
50545,4.845,-23.027,-2.452,0.632084,-0.552634,3.193671,100543.04,-175,-47,-136
50555,6.075,-10.937,-1.847,2.110817,-0.347771,3.544331,100544.60,-175,-47,-136
50566,3.728,-2.054,6.264,2.497661,-0.302010,3.041487,100544.60,-175,-62,-135
50575,1.656,-4.372,8.185,1.381827,-0.352028,2.584937,100545.00,-174,-75,-135
50585,6.216,-10.894,4.569,0.095185,-0.077460,2.054956,100543.02,-172,-76,-133
50595,9.538,-14.482,0.022,-1.066411,0.552558,1.669708,100545.27,-172,-76,-133
50606,10.995,-10.539,0.635,-2.131694,0.550430,1.329158,100544.06,-172,-84,-132
50616,10.474,-2.962,2.949,-2.574409,0.706338,1.204645,100545.29,-171,-90,-134
50625,9.798,-0.126,3.445,-2.362098,0.869164,1.148241,100547.96,-169,-88,-132
50635,9.520,0.072,2.734,-1.742722,0.760613,0.967856,100546.23,-169,-88,-132
50646,9.826,1.632,3.227,-0.834411,0.481256,1.078535,100543.98,-169,-95,-133
50655,9.479,1.127,4.123,0.160635,0.183274,1.158883,100543.98,-167,-101,-133
50665,8.943,-1.922,3.550,0.813001,-0.090230,1.130149,100543.98,-167,-100,-130
50675,8.049,-4.011,3.040,0.963056,-0.100340,1.068957,100545.28,-167,-100,-130
50685,7.903,-6.015,3.100,0.739038,0.101329,0.877397,100543.77,-165,-107,-130
50696,7.962,-7.515,3.977,0.076029,0.290228,0.641672,100546.33,-165,-111,-129
50706,8.119,-6.831,5.261,-0.682227,0.444008,0.493746,100545.64,-164,-108,-127
50715,8.316,-4.836,5.495,-1.149952,0.659512,0.475654,100545.64,-164,-108,-127
50725,8.739,-2.722,4.935,-1.296814,0.716448,0.554406,100545.52,-163,-113,-127
50736,9.286,-0.840,4.473,-1.184007,0.566393,0.645929,100546.38,-162,-115,-128
50746,9.290,0.342,3.825,-0.861548,0.299274,0.766186,100543.32,-161,-113,-126
50755,9.511,0.417,3.124,-0.321457,0.150283,0.914113,100543.32,-161,-113,-126
50765,9.659,-1.472,3.204,0.110616,0.061953,1.016810,100543.32,-160,-120,-127
50776,9.327,-3.871,3.709,0.213846,0.026834,1.201452,100545.67,-158,-125,-128
50786,9.002,-4.398,4.350,0.084543,0.083770,1.434516,100544.67,-156,-124,-125
50795,8.138,-4.026,5.037,-0.201200,0.185403,1.579782,100542.06,-153,-133,-126
50805,7.294,-3.638,5.069,-0.569420,0.225311,1.437177,100545.52,-153,-133,-126
50816,6.858,-3.822,4.471,-1.100998,0.267880,1.143452,100545.52,-150,-137,-128
50826,7.552,-2.468,3.785,-1.509126,0.280118,0.967324,100543.62,-150,-137,-126
50836,10.736,0.193,5.078,-1.172300,0.162522,1.109929,100543.73,-147,-144,-130
50845,9.057,-3.336,3.068,-0.809934,0.053439,1.306810,100540.95,-147,-144,-130
50855,8.336,-3.154,2.945,-0.935512,-0.051386,1.509544,100542.31,-144,-148,-131
50866,9.616,-3.754,3.240,-1.115897,-0.034891,1.658002,100545.77,-143,-148,-131
50876,9.198,-4.881,3.475,-0.026668,0.283843,2.194901,100544.98,-138,-160,-131
50885,8.185,-5.601,3.945,-0.530044,0.111971,1.765488,100544.98,-138,-160,-131
50895,9.503,-5.320,3.959,-0.931255,0.093348,1.365874,100543.94,-136,-163,-133
50906,9.656,-5.127,3.591,-0.846649,0.147623,1.463782,100544.09,-134,-163,-131
50915,9.648,-5.232,2.854,-0.841328,0.250320,1.399929,100544.09,-130,-171,-135
50925,10.609,-4.840,2.230,-1.006814,0.172632,1.412167,100545.00,-130,-171,-135
50935,10.736,-4.247,1.948,-0.998300,0.069403,1.560626,100548.70,-126,-173,-136
50946,11.175,-3.717,2.263,-0.892943,0.024705,1.701635,100542.64,-126,-175,-136
50956,11.980,-4.074,2.904,-0.776411,-0.087038,1.845837,100543.58,-120,-182,-140
50966,12.314,-4.901,3.333,-0.781200,-0.220065,2.030479,100546.90,-120,-182,-140
50975,12.364,-5.671,3.485,-0.862080,-0.216872,2.167231,100544.12,-115,-186,-141
50985,12.754,-5.977,3.526,-0.992979,-0.123221,2.244387,100546.90,-113,-189,-142
50996,13.424,-6.282,3.506,-1.215933,-0.069478,2.276846,100542.91,-106,-197,-148
51005,14.229,-6.296,3.831,-1.552227,-0.066285,2.262479,100542.91,-106,-197,-148
51015,15.236,-6.365,4.400,-1.880006,-0.057772,2.205543,100542.91,-102,-198,-151
51025,16.692,-5.514,4.856,-2.202997,0.050247,2.065066,100545.85,-100,-197,-154
51036,17.449,-3.586,5.974,-2.486079,0.179549,1.949066,100546.16,-93,-201,-163
51046,17.677,-1.877,6.788,-2.672318,0.184338,1.843708,100544.55,-93,-201,-163
51055,18.181,-0.621,8.500,-2.739896,0.182210,1.429727,100540.88,-91,-198,-170
51065,18.705,-0.180,10.067,-2.638795,0.284375,0.747030,100540.88,-93,-194,-172
51076,20.525,1.016,10.807,-2.188098,0.230632,0.369232,100546.34,-93,-192,-179
51086,20.206,-0.581,8.682,-2.262593,0.529678,1.874571,100544.52,-93,-192,-179
51096,17.068,-8.896,8.574,-2.868666,-0.370120,3.272423,100541.37,-90,-191,-184
51105,17.349,-11.606,8.840,-2.514813,-0.701624,3.216019,100541.37,-84,-190,-189
51116,16.154,-6.252,9.764,-1.149420,-0.796340,2.795120,100544.61,-75,-194,-195
51126,13.592,0.231,8.452,0.133497,-1.324725,2.534919,100544.61,-75,-194,-195
51135,10.473,3.873,4.271,0.702322,-1.721147,2.115084,100541.67,-69,-193,-195
51145,5.729,4.183,1.978,0.438928,-1.620578,1.688864,100546.75,-66,-194,-194
51155,0.815,2.100,2.955,-0.102228,-1.513092,1.113654,100542.30,-58,-195,-201
51166,-2.009,0.479,4.654,0.381992,-1.367294,0.630498,100542.30,-58,-195,-201
51176,-2.966,-3.085,5.295,0.513955,-0.720780,0.180333,100547.98,-59,-193,-200
51185,-1.505,-4.198,6.023,0.338891,-0.192395,-0.162345,100541.66,-60,-191,-199
51195,1.987,-1.770,2.230,-0.096374,0.301935,-0.519391,100543.75,-59,-191,-202
51206,4.075,1.878,-1.874,-0.552392,0.069403,-0.931244,100541.78,-59,-191,-202
51216,3.623,3.818,-2.166,-0.788649,-0.380230,-1.304253,100542.31,-64,-185,-203
51226,2.620,3.854,-1.186,-0.473640,-0.163129,-1.701207,100543.36,-69,-179,-206
51235,2.836,2.958,0.660,-0.017090,-0.084377,-2.071023,100543.36,-71,-178,-211
51246,3.133,2.751,1.412,0.353258,-0.104065,-2.353574,100537.55,-71,-178,-211
51256,3.645,2.519,2.431,0.811405,0.036412,-2.559500,100541.73,-80,-171,-208
51265,3.842,1.668,2.716,1.215808,0.138045,-2.787775,100541.73,-88,-166,-206
51275,3.601,0.280,2.456,1.394597,0.193916,-3.041059,100542.85,-93,-167,-206
51286,4.309,-0.697,2.652,1.418010,0.350357,-3.356068,100541.09,-106,-157,-202
51296,4.915,-0.112,2.673,1.483992,0.409953,-3.673738,100539.40,-106,-157,-202
51306,6.325,1.093,2.828,1.734083,0.525421,-4.016948,100538.41,-116,-151,-200
51315,7.776,1.235,2.475,2.032065,0.627586,-4.268637,100538.41,-126,-150,-199
51325,8.293,0.147,2.671,2.160835,0.613219,-4.489994,100539.21,-140,-136,-195
51336,8.808,-1.193,2.582,2.103367,0.531274,-4.702838,100540.63,-140,-136,-195
51346,9.127,-2.029,1.695,2.086340,0.461568,-4.894930,100541.88,-153,-128,-192
51355,9.992,-2.581,1.535,2.241184,0.416338,-5.080636,100541.88,-165,-124,-192
51365,11.434,-4.038,2.418,2.438065,0.475935,-5.176416,100541.88,-183,-107,-189
51376,12.839,-5.061,3.293,2.447110,0.425916,-5.293480,100540.45,-183,-107,-189
51386,13.932,-5.450,4.023,2.256083,0.383347,-5.455241,100542.54,-202,-94,-188
51396,14.973,-6.020,4.630,1.973178,0.390087,-5.661345,100540.46,-221,-81,-187
51405,16.149,-6.776,5.537,1.787294,0.445604,-5.755883,100540.46,-240,-45,-185
51416,17.831,-7.590,6.974,1.745790,0.542448,-5.797920,100540.46,-240,-45,-185
51426,19.395,-8.677,8.166,1.860193,0.573311,-5.831443,100542.69,-255,-15,-184
51436,19.797,-10.548,8.037,2.030468,0.563200,-5.760140,100542.27,-264,+15,-184
51445,19.066,-12.985,7.283,2.058670,0.549898,-5.453645,100539.61,-264,+60,-184
51456,19.264,-15.179,6.765,1.909679,0.633971,-5.028489,100539.61,-264,+60,-184
51466,17.266,-19.264,3.011,1.605845,0.409421,-4.446893,100543.77,-260,+89,-187
51476,14.063,-22.748,1.637,1.032230,0.249788,-3.878068,100543.77,-255,+113,-187
51485,11.067,-25.102,5.294,0.768304,0.345568,-3.390655,100544.30,-244,+144,-191
51495,6.397,-26.670,7.292,0.286745,0.307256,-2.698380,100545.34,-244,+144,-191
51506,1.175,-28.459,5.717,-0.508227,0.296614,-1.460693,100545.81,-239,+159,-190
51516,-0.432,-25.037,3.628,-0.307090,0.582356,-0.419886,100545.81,-240,+163,-188
51526,4.733,-20.395,3.057,-0.529512,0.783494,0.635819,100545.27,-238,+173,-186
51535,7.207,-18.129,2.838,-0.906778,0.305659,1.731433,100545.27,-238,+173,-186
51546,8.861,-15.215,2.866,-0.532172,0.103458,2.694020,100540.81,-247,+163,-183
51556,16.238,-4.660,2.468,0.154781,-0.102469,3.223469,100541.86,-257,+147,-182
51566,32.665,19.823,-13.643,1.366927,-0.462707,2.007598,100549.70,-259,+147,-189
51575,25.458,26.671,-12.800,-0.627420,-0.307863,0.488957,100546.89,-259,+147,-189
51586,17.594,-3.827,15.074,1.390872,-0.076928,3.264441,100538.63,-262,+141,-187
51596,12.844,-15.719,14.969,2.188505,-0.916597,3.847101,100538.63,-269,+119,-194
51606,10.510,-23.218,-0.570,1.029038,-0.710138,3.615634,100541.86,-270,+111,-200
51615,9.449,-14.320,-7.667,1.493569,-0.337129,3.933836,100541.86,-270,+111,-200
51625,4.646,-3.541,3.689,1.779312,-0.085441,3.592753,100546.45,-275,+85,-201
51636,-0.217,-0.514,11.143,1.864450,-0.217405,3.068625,100544.82,-279,+65,-202
51646,1.751,-4.581,8.559,1.135460,-0.080652,2.588130,100544.55,-279,+59,-206
51656,6.228,-11.802,1.323,-0.013365,0.337054,1.748461,100540.32,-279,+59,-206
51665,10.567,-15.338,-0.897,-0.964778,0.581292,1.437177,100540.32,-283,+46,-202
51676,12.248,-9.440,1.863,-1.712392,0.707934,1.170590,100545.95,-285,+40,-197
51686,11.655,-2.703,3.312,-1.862447,0.837237,1.192938,100543.91,-286,+45,-195
51696,10.603,0.645,2.669,-1.426117,0.911732,1.201452,100542.91,-286,+45,-195
51705,8.766,0.419,3.336,-1.049383,0.816485,1.051929,100542.91,-288,+33,-187
51716,8.451,1.431,3.877,-0.496521,0.471678,1.044480,100542.91,-289,+27,-185
51726,8.834,0.929,4.020,0.251625,0.206155,1.062571,100547.30,-290,+31,-186
51736,8.600,-2.177,3.552,0.696469,-0.026909,1.042883,100546.81,-291,+31,-184
51745,8.495,-4.784,3.089,0.690084,-0.023184,0.980094,100545.67,-291,+17,-184
51756,8.618,-6.691,3.781,0.326653,0.090155,0.841746,100544.31,-290,+12,-184
51766,8.331,-7.348,5.300,-0.472044,0.324815,0.678388,100544.31,-292,+17,-184
51776,8.031,-5.946,6.088,-1.255842,0.603641,0.626241,100544.30,-292,+7,-179
51786,8.336,-3.685,5.820,-1.660777,0.804246,0.715636,100546.08,-292,+7,-179
51795,8.997,-1.567,4.903,-1.692704,0.766466,0.825782,100543.66,-293,+4,-175
51806,9.689,0.090,3.787,-1.346300,0.629182,1.019470,100543.66,-294,+8,-173
51816,9.879,0.415,2.926,-0.785989,0.457843,1.190278,100547.98,-294,-5,-169
51826,9.806,-1.033,3.042,-0.308686,0.240742,1.311067,100547.98,-294,-5,-169
51835,9.006,-3.339,3.997,-0.179916,0.140173,1.427066,100547.45,-294,-11,-169
51846,8.063,-4.840,4.735,-0.461402,0.109843,1.356296,100543.48,-294,-10,-170
51856,7.425,-4.638,5.297,-0.887622,0.167311,1.174846,100543.52,-293,-23,-167
51866,7.670,-3.177,5.396,-1.216465,0.223182,1.065764,100543.52,-293,-23,-167
51876,7.968,-3.255,4.900,-1.468686,0.268412,1.067360,100544.73,-293,-27,-166
51886,7.994,-2.302,4.523,-1.616080,0.200302,1.078002,100540.90,-294,-26,-167
51896,9.055,-1.821,4.572,-1.384080,0.229036,1.214755,100544.77,-292,-39,-166
51906,9.176,-3.917,3.727,-1.162190,0.170503,1.304149,100541.05,-292,-39,-166
51916,9.482,-4.128,2.307,-0.668392,0.229036,1.830406,100545.91,-292,-42,-165
51926,8.226,-4.463,3.349,-0.438521,0.289164,2.207671,100547.38,-291,-49,-163
51936,7.587,-5.434,2.550,-0.986062,0.114100,1.604791,100546.86,-290,-63,-163
51946,9.478,-5.326,2.595,-1.020117,0.175825,1.350443,100546.86,-290,-63,-163
51956,10.754,-5.228,2.410,-0.885493,0.142834,1.423874,100543.25,-289,-66,-163
51965,11.423,-5.373,2.339,-0.917952,0.030027,1.953323,100543.25,-289,-69,-164
51976,9.552,-5.983,1.484,-0.885493,0.032687,2.371029,100546.70,-283,-89,-163
51986,9.034,-6.167,1.351,-0.552392,0.164118,1.965562,100547.95,-283,-89,-163
51996,10.845,-5.624,1.327,-0.725860,0.016192,1.762828,100545.91,-283,-92,-164
52006,11.671,-4.626,2.321,-0.733310,-0.142909,2.157653,100544.86,-280,-97,-165
52016,10.923,-4.798,3.393,-0.701915,-0.207294,2.399231,100544.86,-274,-115,-167
52026,10.985,-5.091,3.867,-0.797695,-0.236560,2.241194,100545.53,-274,-115,-167
52036,11.731,-5.634,4.005,-0.861016,-0.171111,2.138497,100542.72,-270,-119,-168
52046,12.380,-5.883,3.994,-0.982337,-0.043937,2.198626,100543.97,-268,-123,-170
52056,13.140,-5.904,3.932,-1.230832,0.035348,2.257690,100543.97,-261,-137,-171
52066,13.941,-5.799,4.003,-1.492098,0.107182,2.231616,100543.97,-261,-137,-171
52076,14.925,-6.020,4.700,-1.682061,0.233292,2.170956,100546.16,-257,-138,-173
52086,16.358,-6.070,5.230,-1.986428,0.371641,2.015048,100541.40,-255,-139,-175
52096,18.481,-4.673,6.613,-2.454153,0.470081,1.700039,100544.91,-248,-147,-177
52102,19.488,-2.648,8.601,-2.698391,0.475935,1.363213,100541.55,-248,-147,-177
52111,19.458,-0.698,9.546,-2.656354,0.438155,1.078002,100541.55,-247,-139,-179
52121,18.791,1.301,9.431,-2.348795,0.332797,0.971048,100541.68,-247,-131,-180
52131,18.299,0.949,8.975,-1.952905,0.192852,1.012553,100541.57,-247,-131,-180
52141,16.956,-3.337,8.556,-2.402538,0.031091,0.996058,100543.09,-240,-133,-182
52151,15.989,-8.143,8.871,-2.816519,-0.736744,0.623581,100540.63,-240,-119,-189
52161,19.118,-11.274,8.247,-2.492465,-0.772395,1.584571,100540.63,-237,-111,-191
52171,18.384,-8.600,8.148,-0.931787,-0.691514,3.193671,100543.63,-237,-111,-191
52180,14.724,-1.167,7.080,0.052616,-1.458817,2.782350,100542.95,-224,-121,-195
52191,11.805,2.635,4.506,0.639001,-1.605147,2.405616,100543.69,-220,-115,-198
52201,5.510,2.726,1.918,0.307497,-1.472651,1.752186,100543.94,-214,-109,-200
52211,1.038,1.664,4.043,-0.220888,-1.295991,1.258920,100543.94,-214,-109,-200
52216,-0.120,0.031,4.590,0.050488,-1.134230,0.969452,100542.62,-204,-107,-204
52226,-0.927,-1.432,5.717,0.226616,-0.838377,0.612939,100542.62,-204,-91,-205
52236,0.603,-2.644,5.956,0.176598,-0.226450,0.203214,100542.82,-204,-91,-205
52246,3.978,-0.384,1.158,-0.154374,0.514778,-0.229391,100541.66,-203,-78,-202
52256,5.915,4.079,-2.957,-0.480558,-0.001900,-0.639116,100542.71,-196,-69,-203
52267,3.656,5.093,-0.645,-0.604007,-0.553166,-1.066932,100546.34,-196,-44,-205
52276,2.328,4.595,1.024,-0.064980,-0.269551,-1.519225,100540.88,-196,-44,-205
52286,2.760,4.103,1.805,0.311754,-0.210487,-1.905005,100538.01,-193,-25,-205
52296,3.217,3.151,2.396,0.661882,-0.161533,-2.172656,100538.01,-183,-11,-205
52306,3.361,1.818,2.919,1.071607,-0.096616,-2.414766,100541.30,-182,+16,-207
52316,3.400,0.083,3.044,1.324359,-0.001368,-2.697849,100541.30,-182,+16,-207
52326,3.514,-1.256,2.883,1.305203,0.124210,-3.032546,100540.54,-172,+37,-207
52336,4.446,-0.950,2.198,1.127478,0.280828,-3.454863,100538.30,-158,+53,-208
52346,5.927,0.959,1.870,1.046065,0.387604,-3.816343,100538.30,-145,+86,-211
52357,6.986,2.267,1.741,1.185478,0.400375,-4.147316,100539.51,-145,+86,-211
52366,7.500,1.235,2.066,1.482395,0.438687,-4.420820,100539.51,-126,+105,-214
52376,7.693,-0.870,2.086,1.650010,0.516907,-4.656013,100539.60,-104,+117,-217
52386,8.314,-2.320,1.967,1.678744,0.577567,-4.910893,100536.09,-82,+143,-223
52397,9.418,-3.018,1.408,1.721313,0.624393,-5.133315,100537.13,-82,+143,-223
52406,10.456,-3.114,1.083,1.820817,0.603641,-5.303058,100537.13,-55,+150,-227
52416,11.438,-3.926,2.005,1.992689,0.622265,-5.385535,100537.13,-29,+151,-229
52426,12.053,-4.521,3.354,2.121991,0.567457,-5.525480,100541.04,-3,+163,-237
52436,13.018,-4.968,4.559,2.068780,0.543512,-5.687773,100538.95,-3,+163,-237
52446,14.459,-5.035,5.349,1.957037,0.550962,-5.884122,100536.74,+23,+157,-239
52456,16.297,-5.179,6.291,1.943734,0.592999,-6.049608,100535.07,+45,+147,-236
52466,18.356,-6.208,7.540,2.040046,0.656320,-6.138470,100535.07,+69,+147,-243
52476,20.089,-7.864,9.091,2.283753,0.712191,-6.133149,100541.95,+69,+147,-243
52487,21.157,-11.602,8.107,2.526395,0.767531,-6.005443,100540.43,+83,+129,-242
52496,21.415,-15.022,8.484,2.327918,0.655255,-5.760140,100540.04,+88,+115,-237
52506,20.117,-18.682,4.305,2.103899,0.494026,-5.284434,100540.04,+98,+112,-243
52516,18.084,-22.543,1.757,1.748450,0.312045,-4.484673,100545.73,+98,+112,-243
52527,13.855,-24.471,3.295,1.594670,0.324815,-3.720031,100545.63,+99,+100,-239
52536,8.979,-25.726,5.980,1.222194,0.291292,-2.902711,100545.63,+95,+93,-233
52546,3.312,-27.488,7.397,0.520341,0.478063,-1.795922,100545.25,+101,+96,-241
52556,-2.038,-29.577,6.652,-0.031457,0.595127,-0.774272,100541.75,+101,+96,-241
52566,-0.890,-28.677,2.003,-0.556649,0.552558,0.094132,100541.75,+98,+91,-237
52576,5.219,-22.722,1.800,-0.856227,0.635567,1.172718,100544.99,+93,+91,-231
52586,7.382,-18.714,2.079,-0.448099,0.424852,2.149139,100547.29,+100,+96,-239
52596,12.434,-12.058,1.523,-0.145861,0.017256,3.084588,100546.82,+100,+96,-239
52606,26.494,5.928,-0.323,0.921019,-0.437698,3.010093,100545.52,+96,+90,-235
52617,31.531,32.367,-23.538,1.038616,-0.804854,0.209067,100553.43,+95,+85,-232
52626,18.375,5.179,6.877,0.672524,0.081641,2.298662,100544.60,+99,+89,-241
52636,13.516,-11.471,18.416,2.563642,-0.277533,3.661395,100543.91,+99,+89,-241
52646,10.352,-21.019,11.265,1.759092,-0.497294,3.589028,100543.91,+92,+78,-238
52656,12.089,-21.681,-5.686,1.265294,-0.448872,3.898184,100541.35,+87,+75,-234
52666,8.035,-4.926,-0.173,2.469459,-0.437698,3.664588,100541.35,+88,+75,-246
52676,1.139,-0.510,8.750,3.364468,-0.078524,3.205909,100547.67,+83,+61,-241
52686,-1.228,-3.024,9.737,2.475312,-0.466432,3.054790,100542.34,+83,+61,-241
52697,4.449,-10.925,2.835,0.482029,-0.258377,2.393910,100543.59,+80,+58,-239
52706,9.869,-16.155,-0.833,-1.245731,0.341311,1.955451,100544.84,+83,+64,-248
52716,11.869,-12.122,1.134,-2.038575,0.589806,1.549452,100544.84,+79,+64,-241
52726,11.490,-3.325,3.050,-2.184905,0.805843,1.349378,100543.67,+79,+64,-241
52737,10.421,0.529,2.254,-1.807107,0.789347,1.412167,100546.34,+75,+67,-236
52747,8.987,0.503,2.740,-1.375034,0.729751,1.181232,100545.97,+76,+75,-243
52756,8.894,1.737,3.309,-0.558778,0.448797,1.141856,100545.97,+72,+69,-237
52766,9.042,1.022,3.661,0.359644,0.199237,1.197195,100545.97,+72,+69,-237
52776,8.468,-2.571,3.722,0.867276,0.011403,1.170057,100546.65,+69,+67,-235
52786,7.889,-5.131,2.948,0.776286,0.009274,1.093966,100547.34,+73,+71,-244
52796,8.004,-6.949,3.113,0.375607,0.200834,0.965727,100543.46,+69,+63,-237
52807,8.520,-6.993,4.932,-0.337952,0.456424,0.779666,100543.10,+69,+63,-237
52816,8.390,-5.468,5.753,-0.934979,0.599916,0.714039,100543.10,+66,+65,-234
52827,8.210,-3.300,5.784,-1.302135,0.701017,0.709250,100545.91,+68,+73,-243
52837,8.489,-1.156,4.659,-1.301603,0.611622,0.695416,100546.02,+63,+67,-233
52846,9.148,-0.157,3.175,-1.044062,0.430705,0.662957,100544.35,+63,+67,-233
52856,9.571,-0.924,2.243,-0.634337,0.212008,0.653911,100544.47,+62,+71,-232
52867,9.860,-2.277,2.649,-0.234723,0.105586,0.733727,100545.67,+64,+76,-240
52877,9.314,-3.610,3.464,-0.111806,0.060357,0.820461,100544.11,+60,+67,-233
52886,8.378,-4.559,4.011,-0.264521,0.131659,0.912516,100544.11,+60,+67,-233
52896,8.077,-4.707,4.720,-0.573677,0.265219,0.917305,100547.03,+59,+71,-232
52907,8.332,-3.958,5.098,-0.872190,0.311513,0.778425,100543.11,+60,+77,-239
52916,8.549,-3.700,4.539,-1.037144,0.312045,0.702865,100543.11,+57,+70,-231
52926,8.719,-3.755,4.151,-1.104190,0.312577,0.707122,100546.99,+57,+70,-231
52936,8.974,-3.711,3.995,-1.150484,0.306191,0.744370,100546.26,+55,+75,-231
52946,9.183,-3.783,3.702,-1.218594,0.312577,0.863030,100545.70,+55,+81,-237
52957,9.306,-4.199,3.191,-1.328208,0.309916,1.007232,100545.90,+52,+74,-228
52967,9.162,-3.821,2.529,-1.396319,0.307788,1.107269,100543.93,+52,+74,-228
52976,10.135,-3.667,2.432,-1.710263,0.258834,1.264773,100545.76,+49,+79,-228
52986,8.770,-3.126,1.851,-0.607200,0.435494,1.693121,100544.51,+49,+85,-234
52997,9.784,-3.671,1.994,-0.742356,0.293953,1.182296,100543.98,+45,+75,-224
53006,9.902,-4.136,2.492,-0.913163,0.136981,1.221140,100543.98,+45,+75,-224
53016,9.879,-4.207,2.475,-1.004686,0.075788,1.375452,100543.98,+43,+81,-226
53026,10.302,-3.728,3.453,-0.799824,0.112504,1.552644,100547.26,+43,+84,-231
53037,10.644,-3.984,4.206,-0.611457,0.113036,1.659598,100546.90,+40,+73,-221
53046,11.067,-4.906,3.921,-0.627420,0.067806,1.749525,100547.01,+40,+73,-221
53056,11.901,-5.103,3.889,-0.722135,0.038008,1.817635,100544.54,+36,+79,-224
53066,12.312,-5.625,3.669,-0.880172,-0.029570,1.898516,100544.54,+34,+81,-228
53076,12.502,-6.049,2.978,-1.077053,-0.027973,1.970351,100543.70,+31,+71,-219
53087,13.045,-5.950,2.396,-1.295750,-0.002432,2.036864,100546.10,+31,+71,-219
53097,13.827,-5.021,2.475,-1.486245,-0.001900,2.116681,100542.85,+27,+76,-221
53106,14.877,-3.944,3.030,-1.615016,-0.020524,2.185323,100542.85,+25,+77,-224
53116,15.886,-2.731,3.908,-1.679401,-0.032230,2.258754,100542.85,+22,+67,-214
53127,16.298,-1.806,4.423,-1.764006,-0.015203,2.326864,100546.66,+22,+67,-214
53136,16.594,-1.509,4.699,-1.884795,0.044393,2.357726,100547.71,+16,+72,-216
53146,17.803,-1.249,5.562,-2.078483,0.107182,2.161378,100545.37,+13,+71,-219
53156,19.802,-0.275,7.652,-2.225878,0.163586,1.747929,100541.96,+11,+59,-209
53167,22.953,1.113,8.935,-2.028465,0.264155,1.538810,100541.96,+5,+66,-211
53177,23.267,0.820,7.545,-1.939070,0.563200,2.166167,100546.07,+5,+66,-211
53186,19.005,-4.356,7.668,-2.416905,-0.015203,2.866955,100545.18,+1,+63,-214
53196,17.155,-9.967,8.306,-2.400942,-0.350432,3.247946,100544.71,+0,+47,-208
53207,16.133,-9.849,9.698,-1.614484,-0.552102,3.146845,100542.70,-5,+50,-212
53217,13.643,-4.942,9.033,-0.360301,-0.830395,2.951029,100543.59,-5,+50,-212
53227,10.658,0.482,6.114,0.343680,-1.351863,2.525341,100546.77,-6,+41,-217
53236,8.174,3.463,3.271,0.703919,-1.515752,2.264075,100546.77,-6,+22,-215
53246,4.601,2.939,2.219,0.435203,-1.198083,1.716534,100545.15,-8,+25,-222
53257,0.518,0.615,2.728,-0.067108,-1.262468,1.017874,100541.43,-8,+25,-222
53266,-1.118,-1.239,3.805,0.060598,-1.111881,0.390517,100541.43,-6,+19,-227
53277,-2.072,-3.881,5.186,0.316898,-0.755722,-0.011758,100543.64,-5,+6,-223
53286,0.214,-3.952,5.751,0.248433,-0.366395,-0.269299,100543.64,-8,+13,-231
53297,2.756,-1.902,1.926,-0.047952,0.193384,-0.671042,100546.44,-8,+13,-231
53307,4.468,2.077,-1.468,-0.535897,-0.125882,-1.066400,100541.47,-7,+10,-233
53316,2.835,4.524,-0.515,-0.792374,-0.415881,-1.445262,100541.47,-7,+3,-228
53326,1.663,4.529,0.543,-0.414044,-0.296689,-1.796454,100542.20,-7,+13,-236
53337,1.861,3.831,0.907,0.149460,-0.340322,-2.169463,100544.17,-7,+13,-236
53347,2.462,2.411,2.018,0.601754,-0.316909,-2.457867,100541.50,-5,+10,-239
53356,3.325,1.067,3.507,0.984340,-0.181221,-2.677628,100541.50,-7,+2,-235
53366,3.399,0.063,3.720,1.291900,-0.102469,-2.887280,100541.50,-5,+11,-244
53377,3.328,-0.936,3.385,1.311588,-0.030102,-3.143756,100539.53,-5,+11,-244
53387,3.968,-1.484,2.956,1.134395,0.096540,-3.455041,100540.89,-4,+6,-247
53396,5.200,-0.502,2.595,1.023185,0.193384,-3.839756,100539.53,-9,+1,-241
53406,6.723,0.639,2.942,1.119496,0.323751,-4.212765,100537.70,-10,+11,-251
53416,7.822,0.263,2.719,1.289239,0.376430,-4.434123,100537.70,-10,+11,-251
53427,8.366,-0.994,2.918,1.419074,0.412613,-4.591627,100539.66,-14,+6,-253
53437,9.112,-2.116,2.676,1.538799,0.434962,-4.751260,100540.84,-22,+6,-246
53446,10.002,-3.157,2.072,1.685129,0.416870,-4.874177,100539.77,-22,+16,-257
53456,10.480,-3.675,2.281,1.972468,0.393990,-4.954526,100539.77,-22,+16,-257
53467,11.393,-4.821,3.262,2.155514,0.460503,-5.005076,100542.50,-27,+16,-256
53477,12.061,-5.420,4.026,2.133166,0.415274,-5.091278,100542.50,-32,+24,-249
53486,12.742,-5.740,4.982,1.963422,0.398779,-5.209406,100542.97,-27,+34,-263
53496,13.609,-6.177,5.616,1.796340,0.442412,-5.353608,100544.39,-27,+34,-263
53507,14.479,-6.592,6.173,1.646285,0.523824,-5.478122,100539.67,-25,+37,-261
53512,15.243,-6.651,6.407,1.591478,0.582356,-5.563792,100539.67,-20,+46,-256
53522,15.961,-6.895,6.753,1.631918,0.649402,-5.612214,100544.06,-20,+46,-256
53531,16.799,-8.426,6.633,1.706946,0.731879,-5.580819,100542.55,-11,+45,-271
53541,17.244,-10.713,5.798,1.664377,0.746778,-5.417461,100544.84,-12,+41,-269
53552,17.331,-12.833,4.506,1.415882,0.695696,-5.171627,100542.50,-14,+39,-263
53562,16.729,-14.153,3.373,1.079056,0.586081,-4.827352,100542.50,-14,+39,-263
53571,16.131,-15.349,2.876,0.808744,0.561072,-4.364416,100543.88,-18,+37,-276
53581,14.348,-16.823,4.365,0.710836,0.523824,-3.782288,100541.56,-31,+37,-271
53592,10.652,-19.552,5.346,0.510763,0.433366,-3.030949,100543.88,-37,+43,-265
53602,6.443,-23.213,5.767,0.059002,0.522760,-2.167867,100546.28,-37,+43,-265
53611,2.785,-24.745,4.388,-0.497053,0.563733,-1.471867,100546.28,-42,+45,-275
53621,1.863,-24.193,2.889,-0.980209,0.630246,-0.568877,100546.44,-51,+50,-269
53632,4.997,-20.243,1.885,-1.034484,0.708999,0.513434,100546.48,-56,+54,-262
53642,7.593,-17.180,2.467,-0.894007,0.459971,1.509011,100545.75,-56,+54,-262
53652,9.181,-15.298,1.794,-0.428411,0.127935,2.409341,100545.33,-62,+51,-273
53661,13.941,-7.436,0.894,0.591111,0.044926,2.813212,100545.33,-69,+43,-266
53671,30.778,15.173,-9.904,1.554230,-0.354157,1.780919,100543.66,-69,+39,-264
53682,26.817,27.630,-20.640,-0.292723,-0.962358,0.117012,100552.98,-69,+39,-264
53692,18.925,-3.549,10.531,0.525130,0.193384,2.999983,100548.54,-71,+37,-276
53701,13.349,-13.498,19.521,2.287477,-0.545184,3.590625,100538.70,-76,+27,-268
53711,9.593,-20.899,8.203,1.215276,-0.321698,3.266038,100538.70,-75,+20,-267
53722,10.025,-14.165,-5.413,1.304671,-0.473881,3.731634,100549.23,-75,+20,-267
53732,5.500,-0.923,2.795,2.810009,-0.126946,3.419817,100544.21,-74,+5,-278
53742,-0.426,-0.145,9.763,2.868009,0.193384,2.902607,100542.21,-78,-5,-268
53747,-1.260,-5.013,8.617,1.506340,-0.405239,2.541304,100543.73,-78,-5,-268
53756,4.072,-11.794,4.134,0.041442,-0.277001,2.011855,100543.73,-75,-11,-267
53767,10.949,-18.094,0.301,-1.331401,0.546173,1.764424,100543.73,-77,-15,-276
53777,13.657,-13.964,0.865,-2.276428,0.455714,1.380241,100546.90,-79,-11,-268
53787,11.854,-3.865,2.972,-2.668593,0.591934,1.134938,100542.45,-79,-11,-268
53796,10.160,0.831,2.594,-2.385510,0.740393,1.186021,100543.96,-78,-5,-266
53807,9.010,1.818,1.897,-1.835309,0.808503,1.096626,100543.96,-80,-7,-275
53817,9.047,4.371,3.156,-0.713090,0.547769,1.179635,100544.95,-83,-7,-264
53827,9.027,2.887,3.539,0.645387,0.231696,1.333947,100544.95,-83,-7,-264
53836,8.575,-2.193,3.682,1.230707,-0.103001,1.303617,100545.57,-81,-11,-264
53847,8.671,-5.120,3.834,1.248267,-0.139717,1.189746,100545.52,-80,-19,-273
53857,7.960,-8.131,4.958,0.759790,-0.046065,0.937526,100544.95,-82,-21,-263
53867,6.895,-10.812,6.078,-0.433732,0.273201,0.625177,100544.95,-82,-21,-263
53877,7.441,-6.463,5.535,-1.529878,0.621733,0.388920,100545.49,-81,-20,-263
53886,8.185,-1.154,4.502,-1.778373,0.756888,0.413397,100543.55,-83,-19,-271
53897,9.215,0.571,3.001,-1.528814,0.682925,0.443728,100545.34,-86,-15,-261
53907,10.209,0.377,2.159,-1.118025,0.461568,0.445324,100545.54,-86,-15,-261
53917,10.427,-0.403,3.178,-0.489071,0.250320,0.575159,100545.06,-85,-14,-261
53926,9.369,-2.166,3.788,-0.004319,0.097072,0.727874,100545.55,-86,-17,-269
53937,8.184,-3.759,4.369,0.145203,0.109311,0.862498,100547.95,-88,-19,-258
53947,7.621,-4.286,5.124,0.030800,0.283843,0.949232,100547.95,-88,-19,-258
53957,7.936,-3.849,5.072,-0.287934,0.417935,0.869415,100544.81,-86,-19,-260
53966,8.646,-2.874,4.833,-0.577402,0.462100,0.792260,100544.81,-88,-23,-266
53977,8.821,-2.448,4.660,-0.672649,0.442412,0.806094,100545.76,-90,-23,-254
53982,8.925,-2.267,4.375,-0.672117,0.396118,0.818333,100544.65,-90,-23,-254
53992,8.689,-2.577,4.177,-0.667328,0.332265,0.807159,100543.29,-89,-21,-258
54002,7.843,-3.238,3.811,-0.774814,0.248724,0.735856,100546.80,-91,-24,-264
54011,8.474,-3.160,4.307,-0.890282,0.250320,0.627306,100546.80,-91,-24,-264
54022,9.266,-2.716,4.241,-0.672117,0.167843,0.776296,100545.38,-92,-23,-253
54032,8.088,-4.602,3.830,-0.743952,0.109843,0.768847,100547.16,-91,-21,-256
54042,8.420,-3.735,3.955,-0.905181,0.197109,0.771507,100540.99,-91,-23,-263
54051,8.845,-3.475,3.714,-0.979677,0.195513,0.814608,100544.07,-91,-23,-263
54062,9.036,-3.760,3.349,-1.011603,0.165714,0.868883,100544.07,-93,-21,-250
54072,9.509,-4.511,3.082,-1.048319,0.118889,0.934333,100547.62,-91,-21,-256
54082,9.866,-5.058,2.809,-1.121750,0.112504,0.988608,100545.59,-91,-23,-263
54091,9.717,-5.221,2.811,-1.213805,0.124742,1.018938,100547.20,-91,-23,-263
54102,9.807,-4.672,2.553,-1.322355,0.133256,1.050333,100543.07,-92,-23,-251
54112,10.199,-3.870,2.517,-1.344704,0.116228,1.118975,100543.07,-90,-20,-257
54122,10.789,-3.184,2.737,-1.248392,0.028962,1.228590,100545.96,-91,-22,-262
54132,10.706,-2.981,2.753,-1.061089,-0.089166,1.381305,100546.34,-91,-22,-262
54141,10.782,-3.637,2.929,-1.061089,-0.222194,1.563287,100545.13,-90,-23,-251
54152,10.857,-3.761,3.579,-0.571548,-0.137056,1.729837,100544.51,-87,-23,-258
54162,11.298,-4.611,3.609,-0.800888,-0.223258,1.819764,100544.51,-87,-27,-263
54172,11.808,-4.729,3.800,-1.015328,-0.221129,1.917140,100547.26,-87,-27,-263
54181,12.555,-4.025,3.920,-1.187199,-0.256781,2.024094,100544.12,-86,-29,-252
54192,13.037,-3.564,4.231,-1.186667,-0.299349,2.180534,100546.10,-82,-29,-261
54202,13.530,-3.910,4.164,-1.208484,-0.322762,2.312497,100545.27,-81,-31,-265
54212,14.098,-5.033,3.654,-1.297346,-0.296157,2.391781,100545.27,-81,-31,-265
54217,15.001,-5.497,3.537,-1.439419,-0.236028,2.425304,100544.42,-78,-34,-254
54226,16.193,-4.616,3.888,-1.670355,-0.150359,2.429561,100544.42,-75,-32,-262
54237,17.841,-2.449,4.802,-1.970465,-0.106726,2.403488,100544.47,-75,-32,-262
54247,19.525,-0.274,6.263,-2.119988,-0.206762,2.224167,100543.89,-73,-34,-266
54257,20.700,1.160,6.903,-2.062520,-0.205698,2.065598,100542.02,-70,-33,-257
54267,20.515,1.721,7.554,-1.847548,-0.150359,2.277378,100543.97,-66,-30,-265
54277,19.712,0.223,8.499,-1.538924,-0.049790,2.588662,100543.13,-66,-30,-265
54287,17.099,-4.632,6.986,-1.865639,-0.273808,2.694020,100546.38,-64,-34,-266
54297,15.489,-9.753,8.293,-2.335492,-0.547313,2.952093,100546.38,-59,-35,-259
54307,16.408,-10.569,9.834,-1.652263,-0.567001,3.169726,100542.23,-53,-35,-268
54317,14.495,-4.649,8.978,-0.467255,-0.946927,3.019139,100542.23,-53,-35,-268
54327,12.278,0.913,7.629,0.268653,-1.348670,2.749891,100543.58,-46,-45,-270
54337,10.322,4.278,4.601,0.917827,-1.665985,2.435237,100540.83,-40,-55,-263
54346,7.485,3.949,3.129,0.879515,-1.590780,2.023561,100540.83,-32,-57,-272
54358,3.606,1.318,2.629,0.389442,-1.489147,1.440369,100543.06,-32,-57,-272
54367,1.509,0.393,3.613,0.372946,-1.310358,0.897617,100543.06,-26,-67,-275
54377,0.442,-0.559,2.956,0.672524,-1.021422,0.353269,100545.03,-23,-72,-265
54387,0.487,-3.282,3.714,0.349534,-0.671294,-0.103281,100544.22,-19,-71,-275
54397,2.540,-3.355,6.795,0.272910,-0.506872,-0.277281,100541.30,-19,-71,-275
54407,4.374,-0.597,6.149,0.313350,-0.095019,-0.645501,100541.30,-18,-79,-275
54417,6.263,2.307,0.733,-0.024540,0.424320,-1.214858,100541.30,-21,-80,-265
54427,6.477,5.701,-2.455,-0.414576,-0.139184,-1.645867,100542.33,-22,-77,-275
54437,4.819,4.665,-0.088,-0.336888,-0.459514,-1.859243,100542.86,-22,-77,-275
54447,3.993,2.875,1.918,0.179791,-0.244010,-2.240766,100541.02,-24,-81,-275
54453,3.744,2.088,2.318,0.411258,-0.211551,-2.535023,100539.56,-31,-81,-267
54462,4.010,1.364,2.236,0.467662,-0.132267,-2.812252,100539.56,-31,-81,-267
54472,4.545,1.085,2.658,0.597497,0.024705,-3.152270,100542.07,-34,-78,-275
54481,4.724,1.076,3.259,0.803423,0.174228,-3.422582,100542.02,-42,-81,-271
54492,5.099,0.497,3.836,0.837478,0.348760,-3.723224,100536.95,-53,-77,-263
54502,4.880,0.055,3.394,0.735845,0.409421,-4.101554,100538.37,-53,-77,-263
54512,5.662,0.249,3.108,0.692744,0.572246,-4.482012,100538.37,-61,-70,-270
54522,7.421,0.359,2.756,0.844928,0.747843,-4.791700,100537.55,-74,-65,-266
54532,8.255,-0.042,2.685,1.001900,0.772320,-5.006141,100536.91,-86,-53,-258
54542,8.978,-1.296,2.468,1.151955,0.783494,-5.155663,100539.84,-86,-53,-258
54552,10.087,-2.277,2.146,1.432909,0.807439,-5.294012,100535.34,-93,-40,-265
54562,11.094,-2.942,2.152,1.803789,0.820742,-5.387131,100535.34,-103,-28,-258
54572,12.013,-3.792,3.241,2.043239,0.810632,-5.507388,100537.44,-109,-11,-249
54582,13.497,-5.010,4.086,2.044835,0.805310,-5.590397,100541.14,-109,-11,-249
54592,14.821,-5.881,5.160,2.043771,0.806907,-5.674470,100539.53,-111,+3,-256
54602,16.082,-7.300,5.847,2.149661,0.842026,-5.739920,100540.36,-112,+21,-249
54611,17.331,-8.855,6.557,2.238523,0.827659,-5.778232,100540.36,-106,+41,-243
54622,18.129,-10.561,6.922,2.370486,0.757953,-5.782489,100541.77,-106,+41,-243
54632,18.733,-13.048,6.804,2.398688,0.675476,-5.677663,100540.88,-95,+53,-253
54642,18.563,-15.945,6.027,2.346542,0.533402,-5.418526,100539.32,-84,+63,-247
54652,18.491,-18.306,5.499,2.119331,0.442944,-5.015186,100541.99,-70,+69,-246
54662,16.875,-21.489,3.805,1.819221,0.266283,-4.439444,100541.99,-70,+69,-246
54672,13.436,-24.368,4.093,1.440891,0.084302,-3.660967,100545.31,-63,+63,-256
54682,9.786,-25.847,6.609,1.134928,0.147091,-2.967628,100544.64,-60,+61,-253
54692,6.082,-27.574,7.151,0.759790,0.213604,-2.272693,100544.84,-57,+61,-252
54702,1.957,-29.299,5.081,0.170745,0.358870,-1.344161,100542.33,-57,+61,-252
54712,0.949,-28.108,3.102,-0.435328,0.526485,-0.269832,100542.33,-60,+52,-260
54722,4.581,-23.506,2.026,-0.831750,0.592999,0.840682,100546.56,-64,+51,-251
54732,6.308,-20.220,1.590,-0.865805,0.397714,1.804864,100542.33,-66,+47,-251
54743,10.670,-14.748,0.730,-0.630613,0.257237,2.556735,100541.39,-66,+47,-251
54752,21.445,0.107,-0.160,-0.061787,-0.084909,2.872277,100538.61,-69,+34,-257
54762,34.457,27.936,-20.777,0.393167,-0.665441,0.443728,100538.61,-69,+29,-252
54772,20.664,14.139,-1.536,-0.516209,-0.057239,1.053525,100548.36,-69,+26,-253
54782,16.013,-8.252,15.772,1.395129,0.077916,3.531028,100543.28,-69,+26,-253
54792,11.937,-16.281,13.418,1.853276,-0.710138,3.443230,100539.16,-75,+7,-261
54802,9.170,-17.034,0.509,1.319038,-0.438230,3.411836,100542.19,-77,+0,-254
54812,6.462,-4.347,-1.967,2.289074,-0.456322,3.663524,100542.19,-75,-14,-256
54822,1.144,-0.875,4.284,2.889826,0.285971,2.934001,100543.15,-79,-34,-261
54832,0.505,-4.632,8.774,2.567899,-0.033295,2.538111,100541.99,-79,-34,-261
54842,6.314,-10.827,6.768,1.228047,-0.118964,2.276846,100544.62,-78,-39,-253
54852,10.461,-15.342,1.055,-0.606136,0.210944,1.983121,100544.30,-77,-44,-253
54862,11.608,-13.004,0.584,-2.117859,0.252448,1.542002,100544.30,-79,-47,-260
54873,10.809,-4.654,3.087,-2.620171,0.639292,1.261048,100546.59,-79,-47,-260
54882,9.751,0.998,3.903,-2.447235,0.685586,1.357360,100545.39,-79,-40,-254
54892,8.858,1.413,2.717,-1.994942,0.674944,1.191342,100542.05,-77,-39,-255
54902,8.699,1.021,2.343,-1.187732,0.512650,1.124296,100544.55,-80,-44,-260
54913,9.169,1.405,3.756,-0.152246,0.297678,1.177507,100544.55,-80,-44,-260
54922,9.182,-1.335,3.897,0.572488,-0.055111,1.211562,100542.38,-80,-42,-253
54932,8.642,-3.943,2.790,0.812469,-0.201441,1.176975,100545.52,-78,-48,-255
54942,8.476,-5.322,2.774,0.723607,-0.038616,1.061507,100543.27,-80,-57,-259
54952,8.572,-6.564,3.240,0.443717,0.130595,0.911984,100540.69,-80,-57,-259
54962,8.063,-6.382,5.027,-0.135218,0.309384,0.786406,100540.69,-80,-54,-251
54972,7.666,-4.693,6.042,-0.674246,0.520100,0.760333,100543.83,-79,-56,-253
54982,7.697,-3.352,5.045,-1.105787,0.660044,0.657104,100544.70,-80,-59,-256
54992,8.520,-2.186,4.194,-1.272869,0.634503,0.530462,100546.02,-80,-59,-256
55003,9.452,-1.069,3.758,-1.065878,0.531274,0.562388,100543.25,-82,-53,-249
55012,9.680,-0.503,3.253,-0.630613,0.355146,0.692223,100543.25,-81,-53,-253
55022,9.398,-1.459,3.069,-0.189494,0.202962,0.759801,100546.96,-82,-60,-256
55032,8.969,-3.315,3.157,0.037185,0.117293,0.803966,100545.91,-82,-60,-256
55043,8.504,-4.698,3.617,-0.053451,0.156314,0.820816,100545.54,-82,-57,-247
55052,8.337,-4.683,4.492,-0.284209,0.248724,0.846535,100546.74,-82,-60,-251
55062,8.344,-4.059,5.121,-0.550796,0.338118,0.853984,100546.74,-83,-64,-254
55072,7.917,-4.709,4.721,-0.909438,0.373769,0.781617,100546.08,-83,-64,-254
55083,7.001,-5.302,4.034,-1.590006,0.418467,0.604957,100545.25,-82,-59,-246
55092,11.349,1.568,5.494,-1.448997,0.427512,0.811415,100543.00,-82,-59,-251
55102,8.857,-3.148,3.448,-0.658814,0.196577,0.840149,100543.20,-83,-63,-254
55112,7.600,-3.838,3.088,-0.833879,0.167311,0.784810,100543.20,-83,-63,-254
55122,8.707,-3.484,3.283,-0.882833,0.247659,0.825250,100545.03,-82,-59,-246
55133,9.234,-4.151,3.180,-0.917952,0.218925,0.880058,100549.44,-83,-61,-252
55142,9.670,-4.283,3.595,-0.986594,0.188063,0.954021,100544.47,-83,-63,-255
55152,9.871,-4.418,3.653,-1.077053,0.151348,1.039158,100545.67,-83,-63,-255
55162,10.120,-4.784,3.066,-1.194649,0.142302,1.117379,100545.67,-83,-60,-248
55173,10.257,-4.921,2.277,-1.274465,0.113036,1.201452,100545.58,-81,-62,-254
55182,9.948,-4.428,1.593,-1.265420,0.088026,1.270626,100544.58,-82,-65,-257
55192,11.051,-4.559,2.537,-1.512318,0.055568,1.329690,100545.22,-82,-65,-257
55202,10.584,-3.384,2.292,-0.848246,0.073660,1.506883,100544.91,-80,-61,-250
55213,11.824,-3.448,2.980,-0.798759,0.000228,1.606387,100544.91,-80,-65,-258
55222,11.906,-3.783,3.795,-0.847181,-0.236560,1.815507,100545.82,-79,-69,-260
55232,12.179,-4.157,3.998,-0.962649,-0.349368,2.002809,100544.57,-79,-69,-260
55242,12.547,-4.579,4.212,-0.932319,-0.280726,2.151800,100543.68,-78,-67,-253
55252,13.328,-4.871,3.783,-1.071200,-0.233900,2.255029,100544.57,-75,-73,-261
55262,14.063,-4.751,3.898,-1.266484,-0.209955,2.351341,100544.57,-73,-77,-263
55272,14.975,-4.135,3.969,-1.451658,-0.217405,2.432222,100546.88,-73,-77,-263
55278,15.815,-3.742,4.109,-1.601181,-0.233900,2.487029,100543.69,-72,-76,-256
55287,16.884,-3.021,4.486,-1.783162,-0.193460,2.514699,100543.69,-69,-78,-266
55298,18.074,-1.750,5.394,-2.030593,-0.136524,2.508846,100545.16,-69,-78,-266
55308,18.942,-0.096,6.746,-2.159364,-0.212083,2.403488,100543.02,-67,-81,-268
55317,20.263,0.839,7.160,-2.193419,-0.220065,2.194369,100543.02,-66,-77,-264
55327,20.935,1.730,8.411,-2.095511,-0.059900,2.117745,100544.66,-64,-78,-273
55337,20.955,1.931,8.565,-1.750704,0.125806,2.423708,100544.44,-64,-78,-273
55348,18.651,-1.788,8.951,-1.864575,0.060889,2.897286,100540.73,-63,-83,-275
55357,16.118,-8.133,9.054,-2.207254,-0.303074,3.228258,100540.73,-61,-82,-270
55367,17.771,-11.280,9.522,-1.941731,-0.412689,3.264441,100540.73,-57,-84,-280
55377,16.422,-7.578,9.441,-0.623695,-0.739936,3.134607,100543.20,-57,-84,-280
55388,13.430,-1.986,7.582,0.404873,-1.280560,2.716368,100543.20,-51,-95,-280
55397,10.792,1.816,4.580,0.813533,-1.499257,2.307708,100543.00,-46,-99,-274
55407,6.879,2.225,3.550,0.704983,-1.397092,1.830938,100542.73,-40,-106,-282
55417,1.334,1.433,3.885,0.110084,-1.214046,1.131213,100542.73,-40,-106,-282
55428,-1.758,0.816,5.203,0.156910,-1.015569,0.619324,100539.89,-36,-113,-282
55438,-2.473,-2.669,6.458,0.367093,-0.490377,0.278242,100543.89,-37,-114,-275
55447,0.382,-4.802,6.876,0.070176,0.127403,-0.089978,100542.03,-38,-117,-282
55457,3.727,-2.756,1.475,-0.436393,0.391329,-0.572602,100542.03,-38,-117,-282
55468,4.799,2.367,-2.846,-1.082906,-0.230707,-0.883886,100544.63,-42,-119,-279
