376767,+10.185,+0.639,+1.410,+0.011,-0.000,-0.024,+100081.47
376776,+10.161,+0.649,+1.384,+0.010,-0.002,-0.024,+100083.59
376786,+10.161,+0.627,+1.409,+0.008,-0.004,-0.023,+100082.78
376797,+10.185,+0.632,+1.459,+0.008,-0.005,-0.022,+100082.08
376807,+10.168,+0.639,+1.483,+0.013,-0.010,-0.025,+100081.61
376816,+10.138,+0.602,+1.423,+0.020,-0.013,-0.026,+100081.61
376826,+10.139,+0.633,+1.388,+0.027,-0.016,-0.027,+100084.44
376837,+10.160,+0.672,+1.379,+0.032,-0.017,-0.025,+100079.86
376847,+10.155,+0.668,+1.393,+0.036,-0.015,-0.023,+100083.02
376857,+10.196,+0.670,+1.409,+0.041,-0.016,-0.023,+100079.86
376866,+10.204,+0.674,+1.429,+0.044,-0.019,-0.023,+100079.86
376877,+10.187,+0.658,+1.384,+0.047,-0.020,-0.025,+100082.78
376887,+10.185,+0.631,+1.399,+0.046,-0.020,-0.026,+100084.45
376897,+10.203,+0.657,+1.356,+0.033,-0.019,-0.027,+100084.86
376907,+10.179,+0.631,+1.379,+0.025,-0.016,-0.030,+100081.25
376916,+10.161,+0.661,+1.347,+0.016,-0.013,-0.033,+100081.25
376927,+10.178,+0.641,+1.371,+0.011,-0.010,-0.039,+100081.58
376937,+10.166,+0.608,+1.338,+0.010,-0.007,-0.045,+100081.83
376947,+10.156,+0.625,+1.321,+0.009,-0.005,-0.051,+100081.83
376956,+10.150,+0.637,+1.343,+0.007,-0.001,-0.057,+100079.55
376967,+10.144,+0.657,+1.368,+0.004,+0.000,-0.060,+100079.55
376977,+10.162,+0.704,+1.332,-0.006,+0.001,-0.061,+100083.45
376987,+10.160,+0.699,+1.326,-0.011,+0.003,-0.062,+100084.67
376997,+10.156,+0.702,+1.414,-0.014,+0.003,-0.060,+100081.31
377007,+10.149,+0.798,+1.463,-0.019,+0.002,-0.057,+100081.36
377017,+10.169,+0.833,+1.466,-0.018,-0.000,-0.053,+100081.36
377027,+10.181,+0.765,+1.429,-0.017,-0.004,-0.048,+100083.95
377037,+10.145,+0.796,+1.446,-0.015,-0.006,-0.041,+100083.48
377047,+10.168,+0.790,+1.423,-0.015,-0.007,-0.037,+100082.01
377057,+10.184,+0.793,+1.435,-0.012,-0.008,-0.032,+100081.35
377067,+10.209,+0.810,+1.409,-0.005,-0.010,-0.027,+100081.35
377077,+10.206,+0.815,+1.438,+0.005,-0.014,-0.023,+100083.14
377088,+10.191,+0.874,+1.473,+0.018,-0.019,-0.017,+100082.53
377097,+10.191,+0.906,+1.505,+0.035,-0.023,-0.009,+100080.66
377107,+10.173,+0.920,+1.487,+0.052,-0.025,+0.002,+100079.02
377117,+10.179,+0.889,+1.359,+0.064,-0.027,+0.017,+100079.02
377127,+10.155,+0.821,+1.308,+0.066,-0.027,+0.031,+100085.75
377137,+10.141,+0.746,+1.306,+0.060,-0.027,+0.040,+100080.41
377147,+10.155,+0.740,+1.298,+0.051,-0.025,+0.042,+100080.66
377157,+10.154,+0.711,+1.313,+0.045,-0.020,+0.042,+100083.36
377167,+10.166,+0.676,+1.344,+0.039,-0.020,+0.039,+100083.36
377178,+10.165,+0.677,+1.385,+0.036,-0.019,+0.032,+100084.86
377187,+10.196,+0.625,+1.379,+0.032,-0.019,+0.023,+100080.94
377197,+10.176,+0.627,+1.391,+0.027,-0.022,+0.013,+100083.08
377207,+10.150,+0.641,+1.360,+0.028,-0.023,+0.002,+100079.97
377218,+10.147,+0.687,+1.365,+0.031,-0.026,-0.006,+100079.97
377227,+10.129,+0.726,+1.335,+0.035,-0.026,-0.010,+100082.88
377237,+10.131,+0.720,+1.272,+0.035,-0.022,-0.010,+100083.65
377247,+10.142,+0.692,+1.174,+0.027,-0.017,-0.010,+100080.63
377257,+10.148,+0.658,+1.165,+0.017,-0.012,-0.012,+100081.91
377267,+10.155,+0.639,+1.271,+0.013,-0.006,-0.016,+100081.91
377277,+10.137,+0.687,+1.355,+0.009,-0.002,-0.022,+100084.14
377287,+10.139,+0.689,+1.414,+0.006,-0.002,-0.026,+100082.27
377297,+10.127,+0.711,+1.426,+0.001,-0.003,-0.030,+100080.84
377308,+10.173,+0.695,+1.415,-0.010,-0.008,-0.032,+100079.56
377317,+10.159,+0.718,+1.393,-0.024,-0.010,-0.033,+100079.56
377327,+10.184,+0.814,+1.281,-0.035,-0.010,-0.031,+100085.58
377337,+10.191,+0.846,+1.283,-0.040,-0.006,-0.024,+100079.92
377348,+10.176,+0.783,+1.318,-0.043,-0.005,-0.013,+100082.58
377358,+10.176,+0.816,+1.299,-0.044,-0.004,-0.002,+100082.78
377367,+10.169,+0.877,+1.299,-0.042,-0.002,+0.009,+100082.78
377377,+10.175,+0.916,+1.337,-0.037,-0.000,+0.024,+100083.90
377388,+10.173,+0.878,+1.359,-0.035,-0.000,+0.040,+100079.37
377398,+10.171,+0.808,+1.366,-0.038,-0.003,+0.054,+100083.18
377407,+10.161,+0.803,+1.367,-0.042,-0.006,+0.062,+100079.21
377417,+10.145,+0.746,+1.361,-0.043,-0.008,+0.067,+100079.21
377427,+10.147,+0.658,+1.313,-0.043,-0.010,+0.069,+100082.26
377438,+10.138,+0.674,+1.329,-0.039,-0.009,+0.066,+100083.37
377448,+10.168,+0.689,+1.336,-0.031,-0.007,+0.060,+100082.71
377457,+10.175,+0.717,+1.329,-0.025,-0.006,+0.056,+100081.65
377467,+10.166,+0.687,+1.266,-0.018,-0.003,+0.051,+100081.65
377478,+10.175,+0.647,+1.251,-0.012,+0.000,+0.045,+100084.42
377488,+10.162,+0.609,+1.303,-0.009,+0.004,+0.038,+100082.03
377497,+10.176,+0.613,+1.311,-0.006,+0.005,+0.029,+100081.58
377507,+10.157,+0.610,+1.270,-0.004,+0.009,+0.022,+100078.83
377518,+10.147,+0.652,+1.331,-0.001,+0.009,+0.016,+100078.83
377528,+10.175,+0.668,+1.349,+0.005,+0.011,+0.010,+100082.34
377538,+10.185,+0.680,+1.354,+0.008,+0.011,+0.009,+100086.41
377547,+10.210,+0.688,+1.362,+0.010,+0.010,+0.008,+100080.31
377558,+10.186,+0.684,+1.390,+0.012,+0.009,+0.010,+100080.61
377568,+10.175,+0.695,+1.416,+0.012,+0.006,+0.011,+100080.61
377578,+10.156,+0.656,+1.371,+0.014,+0.004,+0.012,+100083.81
377587,+10.172,+0.639,+1.290,+0.015,+0.003,+0.012,+100079.98
377597,+10.131,+0.643,+1.302,+0.016,+0.004,+0.012,+100081.88
377608,+10.169,+0.662,+1.323,+0.018,+0.007,+0.012,+100078.47
377618,+10.143,+0.659,+1.315,+0.021,+0.009,+0.011,+100078.47
377628,+10.135,+0.677,+1.378,+0.024,+0.010,+0.010,+100083.12
377637,+10.162,+0.655,+1.367,+0.026,+0.008,+0.008,+100082.91
377648,+10.168,+0.621,+1.411,+0.029,+0.005,+0.006,+100082.30
377658,+10.166,+0.639,+1.434,+0.035,-0.000,+0.001,+100081.90
377668,+10.166,+0.622,+1.386,+0.033,-0.004,-0.002,+100081.90
377677,+10.149,+0.628,+1.360,+0.031,-0.005,-0.004,+100084.90
377688,+10.144,+0.644,+1.363,+0.024,-0.005,-0.002,+100080.88
377698,+10.176,+0.639,+1.348,+0.015,-0.006,-0.002,+100083.07
377708,+10.162,+0.676,+1.319,+0.010,-0.004,-0.000,+100079.51
377718,+10.149,+0.683,+1.336,+0.009,-0.002,+0.004,+100079.51
377728,+10.142,+0.670,+1.357,+0.013,-0.004,+0.007,+100082.69
377738,+10.159,+0.686,+1.355,+0.020,-0.005,+0.010,+100082.94
377748,+10.191,+0.677,+1.399,+0.027,-0.008,+0.012,+100083.45
377758,+10.218,+0.707,+1.384,+0.033,-0.012,+0.017,+100083.91
377767,+10.199,+0.695,+1.365,+0.033,-0.013,+0.020,+100083.91
377778,+10.188,+0.659,+1.349,+0.027,-0.014,+0.021,+100082.27
377788,+10.193,+0.637,+1.343,+0.022,-0.014,+0.023,+100084.66
377798,+10.188,+0.610,+1.323,+0.016,-0.013,+0.022,+100082.83
377808,+10.149,+0.584,+1.296,+0.010,-0.011,+0.018,+100082.06
377818,+10.115,+0.570,+1.284,+0.003,-0.007,+0.013,+100082.06
377828,+10.137,+0.556,+1.268,-0.000,-0.003,+0.004,+100086.28
377838,+10.142,+0.579,+1.302,-0.003,+0.000,-0.004,+100084.59
377848,+10.160,+0.585,+1.294,+0.001,+0.003,-0.010,+100083.38
377858,+10.163,+0.656,+1.361,+0.002,+0.003,-0.016,+100080.88
377868,+10.204,+0.675,+1.403,+0.010,+0.002,-0.021,+100080.88
377878,+10.196,+0.683,+1.398,+0.012,+0.001,-0.025,+100081.71
377888,+10.169,+0.664,+1.399,+0.030,-0.003,-0.026,+100082.16
377899,+10.182,+0.678,+1.321,+0.037,-0.005,-0.024,+100079.68
377908,+10.123,+0.705,+1.295,+0.033,-0.004,-0.018,+100081.60
377918,+10.150,+0.667,+1.306,+0.026,-0.000,-0.013,+100081.60
377928,+10.160,+0.682,+1.327,+0.016,+0.000,-0.006,+100083.51
377938,+10.168,+0.729,+1.384,+0.010,+0.002,+0.001,+100084.99
377948,+10.165,+0.707,+1.368,+0.003,+0.002,+0.009,+100083.26
377958,+10.172,+0.723,+1.365,-0.003,+0.002,+0.017,+100080.55
377968,+10.180,+0.694,+1.374,-0.007,+0.002,+0.026,+100080.55
377978,+10.175,+0.698,+1.330,-0.011,+0.003,+0.034,+100081.70
377989,+10.184,+0.694,+1.298,-0.013,+0.005,+0.041,+100082.98
377998,+10.155,+0.681,+1.312,-0.012,+0.006,+0.048,+100079.31
378008,+10.145,+0.688,+1.292,-0.008,+0.010,+0.054,+100080.03
378018,+10.165,+0.683,+1.287,-0.001,+0.013,+0.059,+100080.03
378029,+10.149,+0.678,+1.325,+0.003,+0.017,+0.064,+100082.76
378038,+10.141,+0.684,+1.391,+0.010,+0.020,+0.067,+100080.88
378048,+10.161,+0.603,+1.353,+0.013,+0.020,+0.070,+100081.13
378058,+10.165,+0.577,+1.331,+0.015,+0.020,+0.073,+100081.90
378068,+10.168,+0.565,+1.345,+0.016,+0.021,+0.072,+100081.90
378079,+10.180,+0.542,+1.318,+0.014,+0.022,+0.070,+100085.59
378088,+10.182,+0.532,+1.306,+0.011,+0.022,+0.066,+100082.58
378099,+10.190,+0.512,+1.296,+0.005,+0.024,+0.062,+100083.14
378108,+10.192,+0.492,+1.301,+0.002,+0.027,+0.059,+100084.92
378119,+10.187,+0.519,+1.345,-0.004,+0.028,+0.056,+100084.92
378128,+10.175,+0.578,+1.355,-0.004,+0.030,+0.053,+100083.54
378138,+10.166,+0.567,+1.373,-0.003,+0.031,+0.052,+100080.18
378148,+10.173,+0.583,+1.359,-0.002,+0.030,+0.054,+100079.57
378159,+10.191,+0.553,+1.380,-0.000,+0.029,+0.057,+100079.52
378169,+10.129,+0.548,+1.391,+0.001,+0.027,+0.062,+100079.52
378178,+10.105,+0.559,+1.357,+0.007,+0.028,+0.066,+100086.14
378188,+10.084,+0.601,+1.371,+0.018,+0.036,+0.072,+100081.92
378199,+10.129,+0.591,+1.361,+0.031,+0.042,+0.076,+100081.66
378209,+10.159,+0.607,+1.354,+0.045,+0.046,+0.080,+100080.59
378218,+10.148,+0.530,+1.439,+0.056,+0.049,+0.084,+100080.59
378228,+10.184,+0.530,+1.427,+0.059,+0.050,+0.084,+100081.62
378238,+10.171,+0.491,+1.439,+0.060,+0.049,+0.085,+100084.05
378249,+10.151,+0.459,+1.417,+0.053,+0.047,+0.084,+100082.13
378259,+10.169,+0.446,+1.399,+0.042,+0.045,+0.082,+100081.26
378268,+10.191,+0.462,+1.453,+0.036,+0.043,+0.082,+100081.26
378278,+10.192,+0.447,+1.397,+0.038,+0.038,+0.078,+100080.38
378289,+10.147,+0.426,+1.381,+0.037,+0.038,+0.081,+100081.60
378299,+10.157,+0.361,+1.271,+0.035,+0.041,+0.081,+100082.93
378308,+10.147,+0.340,+1.333,+0.038,+0.044,+0.077,+100084.30
378318,+10.145,+0.331,+1.409,+0.041,+0.046,+0.070,+100084.30
378329,+10.142,+0.373,+1.424,+0.047,+0.051,+0.063,+100084.46
378339,+10.144,+0.390,+1.505,+0.050,+0.053,+0.058,+100083.09
378349,+10.151,+0.378,+1.527,+0.050,+0.052,+0.056,+100082.37
378358,+10.149,+0.373,+1.500,+0.043,+0.050,+0.053,+100080.09
378369,+10.181,+0.367,+1.512,+0.040,+0.049,+0.049,+100080.09
378379,+10.145,+0.372,+1.466,+0.041,+0.047,+0.048,+100084.29
378389,+10.132,+0.382,+1.428,+0.038,+0.050,+0.050,+100082.01
378399,+10.139,+0.444,+1.422,+0.036,+0.055,+0.054,+100081.65
378408,+10.127,+0.426,+1.420,+0.045,+0.059,+0.059,+100080.32
378419,+10.120,+0.403,+1.435,+0.048,+0.062,+0.063,+100080.32
378429,+10.113,+0.382,+1.472,+0.050,+0.066,+0.067,+100082.52
378439,+10.133,+0.336,+1.526,+0.049,+0.068,+0.070,+100081.14
378448,+10.167,+0.343,+1.538,+0.043,+0.068,+0.073,+100081.80
378459,+10.229,+0.558,+1.544,+0.038,+0.066,+0.081,+100079.41
378469,+10.284,+1.044,+1.585,+0.044,+0.066,+0.109,+100079.41
378479,+10.392,+1.737,+1.916,+0.038,+0.066,+0.162,+100082.30
378489,+10.161,+1.367,+2.094,+0.036,+0.056,+0.218,+100081.54
378499,+10.176,+0.318,+1.478,+0.043,+0.049,+0.236,+100080.43
378509,+10.259,+0.221,+1.375,+0.064,+0.043,+0.250,+100081.40
378519,+10.149,+0.055,+1.622,+0.044,+0.040,+0.248,+100081.40
378529,+10.308,+0.111,+1.493,-0.022,+0.043,+0.235,+100085.82
378539,+10.184,+0.022,+1.737,-0.105,+0.040,+0.217,+100084.60
378549,+10.224,-0.152,+1.517,-0.168,+0.054,+0.200,+100080.68
378559,+10.181,-0.180,+1.302,-0.185,+0.060,+0.181,+100080.99
378569,+10.103,-0.203,+1.227,-0.167,+0.071,+0.155,+100080.99
378579,+10.109,-0.271,+1.292,-0.142,+0.082,+0.132,+100084.73
378589,+10.076,-0.455,+1.506,-0.121,+0.091,+0.100,+100084.28
378599,+10.190,-0.295,+1.427,-0.123,+0.099,+0.068,+100080.56
378609,+10.130,-0.150,+1.694,-0.098,+0.084,+0.061,+100082.25
378619,+10.106,-0.082,+1.724,-0.091,+0.086,+0.047,+100082.25
378629,+10.129,-0.089,+1.617,-0.088,+0.080,+0.044,+100082.97
378639,+10.107,+0.006,+1.594,-0.078,+0.074,+0.044,+100083.63
378649,+10.102,+0.013,+1.665,-0.068,+0.069,+0.050,+100079.50
378659,+10.074,-0.003,+1.731,-0.059,+0.064,+0.056,+100082.70
378669,+10.065,-0.060,+1.716,-0.054,+0.058,+0.061,+100082.70
378679,+10.027,-0.094,+1.745,-0.054,+0.052,+0.063,+100084.67
378689,+10.046,-0.073,+1.716,-0.057,+0.047,+0.065,+100082.80
378699,+10.045,-0.074,+1.666,-0.056,+0.042,+0.073,+100083.09
378710,+10.090,-0.027,+1.629,-0.055,+0.038,+0.083,+100081.92
378719,+10.102,+0.028,+1.647,-0.053,+0.034,+0.094,+100081.92
378729,+10.121,+0.074,+1.720,-0.045,+0.028,+0.109,+100082.63
378739,+10.129,+0.100,+1.792,-0.036,+0.022,+0.120,+100082.63
378749,+10.139,+0.149,+1.812,-0.017,+0.011,+0.131,+100083.75
378759,+10.081,-0.007,+1.846,+0.012,-0.002,+0.137,+100080.34
378769,+10.057,-0.133,+1.757,+0.035,-0.009,+0.131,+100080.34
378779,+10.041,-0.205,+1.684,+0.055,-0.014,+0.117,+100082.86
378789,+10.053,-0.253,+1.611,+0.070,-0.016,+0.097,+100082.25
378800,+10.151,-0.335,+1.693,+0.086,-0.018,+0.065,+100081.84
378809,+10.058,-0.382,+1.547,+0.102,-0.023,+0.025,+100081.09
378819,+10.001,-0.449,+1.481,+0.111,-0.019,-0.012,+100081.09
378829,+9.973,-0.429,+1.527,+0.107,-0.009,-0.044,+100081.77
378840,+9.999,-0.351,+1.563,+0.098,+0.001,-0.073,+100081.50
378850,+10.078,-0.155,+1.563,+0.086,+0.009,-0.090,+100079.72
378859,+10.176,-0.000,+1.538,+0.074,+0.019,-0.096,+100081.25
378869,+10.278,+0.131,+1.537,+0.068,+0.028,-0.090,+100081.25
378880,+10.360,+0.497,+1.687,+0.072,+0.026,-0.068,+100084.41
378890,+10.368,+0.474,+1.997,+0.080,+0.017,-0.037,+100081.41
378899,+10.236,+0.133,+1.932,+0.063,+0.011,-0.013,+100082.94
378909,+10.174,+0.034,+1.796,+0.027,+0.005,+0.003,+100078.56
378919,+10.136,+0.084,+1.797,+0.007,+0.000,+0.018,+100078.56
378930,+10.160,+0.166,+1.763,-0.002,-0.003,+0.035,+100085.20
378940,+10.191,+0.264,+1.803,-0.002,-0.008,+0.058,+100080.52
378949,+10.149,+0.274,+1.821,+0.011,-0.015,+0.083,+100083.06
378959,+10.173,+0.294,+1.806,+0.027,-0.025,+0.106,+100080.88
378970,+10.095,+0.088,+1.872,+0.038,-0.032,+0.119,+100080.88
378980,+10.101,+0.019,+1.714,+0.029,-0.029,+0.117,+100083.96
378989,+10.156,-0.051,+1.572,+0.023,-0.023,+0.110,+100082.18
378999,+10.184,-0.294,+1.417,+0.012,-0.012,+0.098,+100082.95
379010,+10.241,-0.362,+1.341,-0.009,-0.002,+0.084,+100083.51
379020,+10.181,-0.301,+1.515,-0.029,+0.007,+0.071,+100083.51
379030,+10.118,-0.272,+1.617,-0.043,+0.011,+0.059,+100082.66
379039,+10.076,-0.261,+1.627,-0.051,+0.016,+0.048,+100084.44
379049,+10.076,-0.294,+1.626,-0.058,+0.020,+0.040,+100084.08
379060,+10.072,-0.240,+1.684,-0.065,+0.021,+0.036,+100078.94
379070,+10.057,-0.209,+1.690,-0.070,+0.022,+0.033,+100078.94
379079,+10.048,-0.191,+1.697,-0.075,+0.021,+0.036,+100079.63
379089,+10.070,-0.143,+1.731,-0.076,+0.021,+0.039,+100084.30
379100,+10.035,-0.137,+1.695,-0.073,+0.020,+0.042,+100082.06
379110,+10.038,-0.175,+1.664,-0.067,+0.022,+0.046,+100079.78
379119,+10.024,-0.192,+1.604,-0.059,+0.022,+0.050,+100079.78
379129,+10.059,-0.200,+1.651,-0.050,+0.022,+0.052,+100078.77
379140,+10.053,-0.231,+1.682,-0.043,+0.021,+0.049,+100082.70
379150,+10.075,-0.227,+1.708,-0.038,+0.019,+0.044,+100083.65
379160,+10.090,-0.186,+1.745,-0.034,+0.015,+0.042,+100080.45
379170,+10.114,-0.120,+1.770,-0.026,+0.009,+0.042,+100080.45
379180,+10.147,-0.122,+1.810,-0.019,+0.006,+0.045,+100082.77
379190,+10.136,-0.171,+1.784,-0.012,+0.002,+0.049,+100082.16
379200,+10.113,-0.203,+1.761,-0.007,-0.002,+0.049,+100082.00
379210,+10.080,-0.244,+1.719,-0.005,-0.004,+0.044,+100079.86
379219,+10.087,-0.278,+1.706,-0.004,-0.004,+0.036,+100079.86
379230,+10.076,-0.297,+1.653,-0.002,-0.004,+0.026,+100082.62
379240,+10.086,-0.294,+1.648,+0.002,-0.000,+0.014,+100082.87
379250,+10.038,-0.329,+1.586,+0.001,+0.002,+0.001,+100081.09
379259,+10.042,-0.307,+1.633,+0.004,+0.005,-0.013,+100081.45
379270,+10.054,-0.306,+1.678,+0.005,+0.009,-0.027,+100081.45
379280,+10.034,-0.351,+1.673,+0.007,+0.014,-0.040,+100083.45
379290,+10.030,-0.304,+1.673,+0.010,+0.017,-0.054,+100081.58
379299,+10.056,-0.266,+1.681,+0.011,+0.020,-0.066,+100081.83
379310,+10.101,-0.224,+1.683,+0.014,+0.021,-0.075,+100082.28
379320,+10.121,-0.197,+1.706,+0.019,+0.022,-0.079,+100082.28
379330,+10.149,-0.108,+1.732,+0.022,+0.019,-0.080,+100083.45
379340,+10.145,-0.094,+1.707,+0.026,+0.017,-0.079,+100079.54
379350,+10.161,-0.089,+1.652,+0.031,+0.017,-0.075,+100081.73
379360,+10.145,-0.079,+1.778,+0.031,+0.016,-0.067,+100080.40
379370,+10.168,-0.091,+1.779,+0.031,+0.014,-0.063,+100080.40
379380,+10.129,-0.057,+1.768,+0.031,+0.011,-0.058,+100084.64
379389,+10.129,-0.067,+1.754,+0.029,+0.010,-0.057,+100084.84
379400,+10.108,-0.096,+1.762,+0.023,+0.009,-0.055,+100083.47
379410,+10.144,-0.133,+1.689,+0.022,+0.008,-0.054,+100079.86
379420,+10.109,-0.078,+1.677,+0.024,+0.008,-0.052,+100079.86
379430,+10.113,-0.080,+1.705,+0.029,+0.009,-0.050,+100082.65
379440,+10.131,-0.092,+1.683,+0.035,+0.010,-0.049,+100082.38
379450,+10.133,-0.098,+1.700,+0.038,+0.012,-0.047,+100081.32
379460,+10.093,-0.108,+1.707,+0.040,+0.014,-0.048,+100078.41
379470,+10.060,-0.120,+1.688,+0.041,+0.017,-0.050,+100078.41
379481,+10.053,-0.136,+1.711,+0.045,+0.019,-0.052,+100083.68
379490,+10.053,-0.108,+1.725,+0.050,+0.021,-0.053,+100079.91
379500,+10.119,-0.028,+1.706,+0.051,+0.025,-0.051,+100084.09
379510,+10.130,-0.019,+1.738,+0.050,+0.027,-0.046,+100081.34
379521,+10.125,-0.027,+1.709,+0.052,+0.027,-0.041,+100081.34
379530,+10.129,-0.028,+1.733,+0.049,+0.028,-0.035,+100082.41
379540,+10.119,+0.003,+1.736,+0.048,+0.030,-0.029,+100081.91
379550,+10.120,+0.016,+1.728,+0.045,+0.029,-0.023,+100082.16
379560,+10.101,-0.011,+1.794,+0.044,+0.028,-0.015,+100081.59
379570,+10.121,+0.016,+1.816,+0.043,+0.025,-0.005,+100081.59
379580,+10.113,+0.012,+1.829,+0.040,+0.020,+0.007,+100084.27
379590,+10.093,+0.057,+1.867,+0.037,+0.015,+0.018,+100082.34
379600,+10.127,+0.113,+1.854,+0.033,+0.013,+0.027,+100080.76
379611,+10.120,+0.022,+1.803,+0.032,+0.010,+0.036,+100079.63
379620,+10.112,-0.049,+1.721,+0.029,+0.011,+0.042,+100079.63
379630,+10.094,-0.063,+1.693,+0.028,+0.013,+0.044,+100084.70
379640,+10.084,-0.096,+1.706,+0.031,+0.017,+0.044,+100082.66
379651,+10.066,-0.085,+1.711,+0.033,+0.019,+0.045,+100082.36
379660,+10.068,-0.082,+1.691,+0.037,+0.022,+0.047,+100080.58
379670,+10.044,-0.106,+1.720,+0.043,+0.025,+0.050,+100080.58
379680,+10.057,-0.084,+1.697,+0.053,+0.028,+0.055,+100081.55
379691,+10.090,-0.043,+1.708,+0.064,+0.030,+0.062,+100081.05
379701,+10.069,-0.037,+1.721,+0.073,+0.031,+0.072,+100081.87
379710,+10.074,-0.070,+1.727,+0.077,+0.032,+0.082,+100082.16
379720,+10.060,-0.076,+1.751,+0.079,+0.030,+0.092,+100082.16
379730,+10.066,+0.005,+1.809,+0.079,+0.029,+0.103,+100082.22
379741,+10.148,+0.158,+1.861,+0.080,+0.029,+0.116,+100085.63
379750,+10.144,+0.165,+1.895,+0.082,+0.031,+0.130,+100082.47
379760,+10.182,-0.034,+1.846,+0.076,+0.035,+0.140,+100081.00
379770,+10.124,-0.173,+1.716,+0.071,+0.036,+0.145,+100081.00
379781,+10.023,-0.186,+1.718,+0.069,+0.040,+0.146,+100083.24
379791,+10.003,-0.206,+1.778,+0.062,+0.045,+0.145,+100080.91
379800,+9.991,-0.274,+1.811,+0.056,+0.049,+0.143,+100083.66
379811,+10.047,-0.302,+1.869,+0.048,+0.052,+0.136,+100081.21
379821,+10.113,-0.243,+1.901,+0.036,+0.053,+0.134,+100081.21
379831,+10.172,-0.079,+1.938,+0.021,+0.049,+0.138,+100083.70
379840,+10.214,-0.013,+1.927,+0.010,+0.048,+0.153,+100082.73
379850,+10.162,+0.113,+1.940,+0.004,+0.046,+0.178,+100082.28
379860,+10.056,-0.005,+2.015,+0.010,+0.040,+0.204,+100082.28
379871,+10.056,-0.158,+1.962,+0.012,+0.034,+0.224,+100082.28
379881,+10.136,-0.084,+1.970,+0.013,+0.023,+0.245,+100084.92
379890,+10.165,-0.082,+2.126,+0.023,+0.003,+0.264,+100083.14
379900,+10.163,-0.262,+2.068,+0.028,-0.006,+0.278,+100081.36
379911,+10.182,-0.291,+1.956,+0.019,-0.014,+0.292,+100082.17
379921,+10.211,-0.229,+1.986,+0.013,-0.025,+0.302,+100082.17
379931,+10.169,-0.151,+2.074,+0.018,-0.037,+0.312,+100085.93
379940,+10.123,-0.286,+2.086,+0.027,-0.045,+0.315,+100083.24
379951,+10.064,-0.683,+1.863,+0.030,-0.042,+0.306,+100081.71
379961,+10.057,-0.893,+1.628,+0.032,-0.035,+0.285,+100081.05
379971,+10.002,-0.918,+1.604,+0.031,-0.024,+0.258,+100081.05
379980,+9.975,-0.936,+1.621,+0.035,-0.008,+0.226,+100082.81
379991,+9.911,-0.984,+1.636,+0.039,+0.005,+0.194,+100081.75
380001,+9.925,-1.045,+1.618,+0.041,+0.020,+0.161,+100084.14
380011,+9.954,-1.068,+1.642,+0.044,+0.031,+0.127,+100081.23
380021,+9.985,-0.993,+1.670,+0.038,+0.045,+0.097,+100081.23
380030,+10.047,-0.964,+1.599,+0.022,+0.057,+0.072,+100083.41
380041,+10.029,-0.839,+1.757,+0.016,+0.061,+0.054,+100083.05
380051,+10.027,-0.854,+1.890,+0.012,+0.066,+0.040,+100083.20
380061,+9.954,-0.787,+2.055,+0.003,+0.063,+0.028,+100081.92
380070,+9.973,-0.725,+2.174,-0.014,+0.053,+0.018,+100081.92
380081,+9.993,-0.734,+2.176,-0.034,+0.044,+0.012,+100083.70
380091,+10.046,-0.640,+2.039,-0.049,+0.034,+0.017,+100080.85
380101,+10.102,-0.581,+1.937,-0.051,+0.022,+0.030,+100078.80
380111,+10.171,-0.507,+1.926,-0.043,+0.013,+0.051,+100080.13
380121,+10.182,-0.468,+1.944,-0.035,+0.002,+0.080,+100080.13
380131,+10.210,-0.466,+1.956,-0.032,-0.009,+0.110,+100083.48
380141,+10.206,-0.516,+2.073,-0.032,-0.028,+0.143,+100082.47
380151,+10.097,-0.592,+2.170,-0.037,-0.043,+0.169,+100084.50
380161,+10.113,-0.614,+2.149,-0.046,-0.061,+0.192,+100079.88
380171,+10.096,-0.617,+2.101,-0.053,-0.078,+0.216,+100079.88
380181,+10.101,-0.723,+2.001,-0.050,-0.097,+0.241,+100084.27
380191,+10.091,-0.757,+1.986,-0.053,-0.114,+0.267,+100082.23
380201,+10.078,-0.717,+1.969,-0.062,-0.128,+0.297,+100081.22
380211,+10.123,-0.605,+1.926,-0.077,-0.137,+0.326,+100082.73
380221,+10.112,-0.631,+1.962,-0.090,-0.146,+0.354,+100082.73
380231,+10.112,-0.704,+1.855,-0.100,-0.160,+0.379,+100084.13
380241,+10.068,-0.757,+2.003,-0.104,-0.168,+0.399,+100080.77
380251,+10.064,-1.032,+1.903,-0.120,-0.176,+0.406,+100080.20
380261,+10.109,-1.151,+1.727,-0.137,-0.185,+0.408,+100081.33
380271,+10.081,-1.154,+1.705,-0.162,-0.190,+0.405,+100081.33
380281,+10.082,-1.184,+1.734,-0.185,-0.195,+0.401,+100084.88
380292,+10.154,-1.140,+1.709,-0.204,-0.198,+0.397,+100083.40
380301,+10.217,-1.263,+1.614,-0.222,-0.199,+0.391,+100080.80
380311,+10.204,-1.335,+1.429,-0.252,-0.199,+0.383,+100079.70
380321,+10.287,-1.348,+1.469,-0.274,-0.198,+0.376,+100079.70
380332,+10.296,-1.260,+1.448,-0.284,-0.206,+0.383,+100082.71
380341,+10.260,-1.236,+1.542,-0.304,-0.211,+0.398,+100082.80
380351,+10.220,-1.215,+1.760,-0.324,-0.226,+0.417,+100081.68
380361,+10.173,-1.138,+1.983,-0.336,-0.244,+0.442,+100081.63
380371,+10.238,-1.177,+1.979,-0.353,-0.258,+0.462,+100081.63
380382,+10.338,-1.276,+1.823,-0.368,-0.276,+0.481,+100083.19
380391,+10.496,-1.315,+1.754,-0.384,-0.290,+0.499,+100080.08
380401,+10.652,-1.470,+1.666,-0.412,-0.304,+0.526,+100081.16
380411,+10.797,-1.472,+1.365,-0.443,-0.321,+0.562,+100079.67
380422,+10.913,-1.379,+1.305,-0.475,-0.339,+0.602,+100079.67
380432,+11.177,-1.398,+1.268,-0.507,-0.361,+0.631,+100082.48
380441,+11.545,-0.899,+1.148,-0.526,-0.371,+0.655,+100083.30
380451,+11.591,-1.480,+0.740,-0.500,-0.402,+0.701,+100081.92
380462,+11.700,-1.414,+0.336,-0.487,-0.428,+0.773,+100078.22
380471,+11.794,-1.179,+0.414,-0.455,-0.459,+0.854,+100078.22
380481,+11.922,-1.079,+0.705,-0.423,-0.499,+0.945,+100084.65
380491,+11.978,-1.145,+1.074,-0.407,-0.537,+1.041,+100082.10
380502,+11.983,-1.231,+1.270,-0.410,-0.582,+1.139,+100080.02
380512,+11.959,-1.315,+1.416,-0.437,-0.621,+1.229,+100080.63
380521,+12.338,-1.145,+1.101,-0.486,-0.662,+1.315,+100080.63
380531,+12.811,-1.296,+1.110,-0.485,-0.711,+1.409,+100083.25
380541,+13.254,-0.655,+1.349,-0.490,-0.770,+1.508,+100081.31
380552,+13.455,-0.453,+1.398,-0.458,-0.811,+1.615,+100081.06
380562,+13.763,-0.266,+1.196,-0.466,-0.833,+1.734,+100082.23
380571,+14.558,+0.215,+1.019,-0.470,-0.851,+1.807,+100082.23
380581,+15.015,+0.519,+1.021,-0.471,-0.904,+1.915,+100080.73
380592,+15.385,+1.537,+1.468,-0.426,-0.920,+2.045,+100083.84
380602,+15.717,+2.139,+1.981,-0.343,-0.880,+2.148,+100081.85
380611,+15.772,+2.035,+2.598,-0.325,-0.827,+2.234,+100079.15
380621,+15.884,+1.923,+3.099,-0.319,-0.794,+2.286,+100079.15
380632,+15.395,+0.972,+3.378,-0.400,-0.765,+2.296,+100081.64
380642,+14.360,+0.226,+4.443,-0.423,-0.754,+2.428,+100081.50
380652,+14.073,+1.074,+4.190,-0.451,-0.740,+2.543,+100078.64
380661,+12.754,+0.948,+4.081,-0.466,-0.826,+2.539,+100079.61
380672,+11.637,+0.233,+4.506,-0.350,-0.799,+2.469,+100079.61
380682,+11.487,-0.942,+4.916,-0.138,-0.640,+2.366,+100080.34
380692,+10.076,-1.455,+4.193,-0.111,-0.459,+2.230,+100079.08
380701,+7.927,-1.646,+2.428,-0.263,-0.343,+2.003,+100078.31
380711,+6.187,-1.084,+0.397,-0.569,-0.350,+1.692,+100078.92
380722,+7.788,+0.382,+0.489,-0.665,-0.362,+1.344,+100078.92
380732,+6.614,+2.863,+1.797,-0.440,-0.304,+0.868,+100078.02
380742,+5.667,+3.626,+2.375,-0.228,-0.240,+0.347,+100079.90
380751,+5.898,+4.209,+1.781,-0.050,-0.198,-0.023,+100077.82
380762,+5.459,+4.196,+1.066,+0.228,-0.145,-0.286,+100080.01
380772,+4.979,+3.807,+0.736,+0.528,-0.086,-0.543,+100080.01
380782,+4.971,+2.972,+0.852,+0.771,-0.034,-0.824,+100079.68
380791,+5.266,+2.138,+1.227,+0.910,+0.024,-1.124,+100078.96
380802,+5.586,+1.682,+1.440,+0.976,+0.095,-1.433,+100076.48
380812,+5.993,+1.443,+1.392,+1.046,+0.159,-1.731,+100079.27
380822,+6.506,+1.054,+1.131,+1.130,+0.202,-2.022,+100079.27
380832,+7.058,+0.876,+0.852,+1.184,+0.225,-2.297,+100080.49
380841,+7.550,+0.842,+0.750,+1.208,+0.246,-2.557,+100077.45
380852,+8.071,+0.941,+0.803,+1.207,+0.280,-2.795,+100077.54
380862,+8.507,+0.947,+0.990,+1.214,+0.319,-3.013,+100078.55
380912,+11.102,-0.880,+1.970,+1.153,+0.472,-3.780,+100076.95
380922,+11.462,-0.825,+2.129,+1.191,+0.504,-3.877,+100076.95
380932,+11.817,-1.050,+2.223,+1.259,+0.534,-3.961,+100081.59
380942,+12.244,-1.552,+2.303,+1.316,+0.568,-4.034,+100081.02
380952,+12.707,-1.967,+2.362,+1.337,+0.605,-4.104,+100078.99
380962,+13.097,-2.313,+2.461,+1.320,+0.633,-4.171,+100077.57
380972,+13.483,-2.521,+2.443,+1.245,+0.656,-4.228,+100077.57
380982,+13.817,-2.743,+2.266,+1.103,+0.674,-4.272,+100083.56
380992,+14.254,-3.089,+2.174,+0.910,+0.689,-4.296,+100078.33
381002,+14.790,-3.335,+2.088,+0.683,+0.704,-4.287,+100080.63
381012,+15.172,-3.592,+2.066,+0.476,+0.721,-4.230,+100080.47
381022,+15.379,-3.944,+1.894,+0.298,+0.737,-4.148,+100080.47
381032,+15.530,-4.474,+1.737,+0.148,+0.764,-4.044,+100081.80
381042,+15.603,-5.417,+1.483,-0.005,+0.806,-3.898,+100081.34
381052,+15.580,-6.603,+1.002,-0.163,+0.851,-3.695,+100081.24
381062,+15.414,-7.641,+0.476,-0.271,+0.870,-3.431,+100079.10
381072,+14.960,-8.475,+0.096,-0.272,+0.865,-3.111,+100079.10
381082,+14.340,-9.453,-0.298,-0.180,+0.829,-2.717,+100082.11
381092,+13.650,-10.622,-0.717,-0.028,+0.762,-2.244,+100080.06
381103,+13.077,-11.752,-1.079,+0.139,+0.669,-1.699,+100083.38
381112,+12.544,-12.615,-1.136,+0.274,+0.556,-1.110,+100079.45
381122,+12.209,-13.101,-0.943,+0.373,+0.421,-0.492,+100079.45
381132,+11.923,-13.311,-0.592,+0.453,+0.282,+0.130,+100081.63
381143,+13.896,-12.421,+0.507,+0.506,+0.201,+0.748,+100082.34
381152,+12.540,-13.640,+0.108,+0.592,+0.117,+1.299,+100079.84
381162,+12.256,-14.659,+0.628,+0.564,+0.010,+1.899,+100083.09
381172,+12.832,-6.117,-0.730,+0.333,-0.065,+2.303,+100083.09
381182,+15.483,+12.484,-1.945,+0.093,-0.237,+2.016,+100083.99
381193,+14.241,+17.792,-2.557,-0.030,-0.269,+1.457,+100082.77
381203,+12.226,+2.558,-1.965,+0.028,-0.086,+1.811,+100082.16
381212,+15.992,-9.012,-0.923,+0.731,-0.078,+2.345,+100080.73
381222,+16.338,-9.759,-0.311,+1.298,-0.074,+2.527,+100080.73
381233,+13.094,-2.878,-2.317,+0.837,-0.080,+2.232,+100085.27
381242,+8.854,+2.083,-0.292,+0.646,+0.071,+1.935,+100082.97
381252,+8.864,-0.576,+2.242,+1.058,+0.246,+1.779,+100078.86
381262,+9.995,-2.793,+2.363,+0.996,+0.254,+1.703,+100079.77
381273,+9.825,-1.242,+2.347,+0.563,+0.252,+1.588,+100079.77
381283,+9.960,-1.091,+2.321,+0.156,+0.242,+1.447,+100083.80
381292,+10.648,-1.622,+2.441,-0.171,+0.180,+1.291,+100081.50
381302,+10.779,+0.040,+2.282,-0.378,+0.114,+1.117,+100078.45
381313,+10.266,+1.233,+2.274,-0.402,+0.068,+1.009,+100080.34
381323,+10.277,+0.944,+1.491,-0.289,+0.053,+0.951,+100080.34
381332,+10.329,+0.769,+1.463,-0.171,+0.056,+0.928,+100083.29
381342,+10.254,+0.900,+1.495,-0.067,+0.055,+0.905,+100082.79
381352,+10.471,+0.617,+1.339,+0.066,+0.055,+0.892,+100081.15
381363,+10.580,-0.438,+1.728,+0.079,+0.047,+0.876,+100079.73
381373,+10.690,-1.072,+1.968,-0.107,+0.027,+0.826,+100079.73
381382,+10.421,-1.009,+2.382,-0.334,+0.004,+0.762,+100081.97
381392,+10.126,-0.230,+2.499,-0.520,-0.003,+0.690,+100081.41
381403,+10.161,+0.158,+1.998,-0.576,-0.007,+0.653,+100079.42
381413,+10.197,+0.239,+1.651,-0.533,-0.029,+0.649,+100081.20
381422,+10.178,+0.469,+1.517,-0.451,-0.039,+0.659,+100081.20
381432,+10.254,+0.060,+1.535,-0.385,-0.031,+0.660,+100082.43
381443,+10.330,-0.323,+1.372,-0.370,-0.029,+0.669,+100082.88
381453,+10.233,-0.345,+1.500,-0.387,-0.024,+0.672,+100082.48
381463,+10.214,-0.343,+1.730,-0.421,-0.013,+0.672,+100080.18
381472,+10.216,-0.224,+1.879,-0.451,-0.003,+0.676,+100080.18
381483,+10.318,-0.150,+1.879,-0.463,+0.002,+0.686,+100081.99
381493,+10.425,-0.063,+1.873,-0.450,+0.000,+0.698,+100080.16
381503,+10.387,-0.205,+1.790,-0.426,-0.006,+0.730,+100080.82
381512,+10.537,-0.121,+1.475,-0.410,-0.027,+0.763,+100081.54
381522,+10.410,-0.148,+1.647,-0.361,-0.062,+0.814,+100081.54
381533,+10.442,-0.413,+1.725,-0.332,-0.073,+0.856,+100083.41
381543,+10.516,-0.680,+1.708,-0.320,-0.086,+0.886,+100082.48
381553,+10.488,-0.798,+1.616,-0.318,-0.095,+0.911,+100084.17
381562,+10.504,-0.993,+1.506,-0.326,-0.097,+0.929,+100083.16
381573,+10.661,-1.187,+1.405,-0.347,-0.101,+0.948,+100083.16
381583,+10.714,-1.202,+1.374,-0.383,-0.106,+0.976,+100083.05
381593,+10.744,-1.118,+1.347,-0.415,-0.113,+1.010,+100082.76
381602,+10.770,-1.051,+1.471,-0.435,-0.130,+1.057,+100081.54
381613,+10.892,-0.689,+1.876,-0.445,-0.157,+1.115,+100082.71
381623,+10.894,-0.156,+2.517,-0.402,-0.189,+1.186,+100082.71
381633,+10.829,-0.162,+2.944,-0.336,-0.212,+1.262,+100083.20
381643,+11.030,-0.474,+2.782,-0.300,-0.234,+1.341,+100083.00
381652,+11.352,-0.705,+2.466,-0.299,-0.268,+1.429,+100082.28
381663,+11.741,-1.075,+1.985,-0.319,-0.299,+1.534,+100078.52
381673,+12.189,-1.248,+1.418,-0.359,-0.338,+1.647,+100078.52
381683,+12.607,-0.929,+0.929,-0.405,-0.371,+1.771,+100083.88
381692,+12.998,-0.616,+0.535,-0.412,-0.407,+1.906,+100082.62
381703,+13.248,-0.480,+0.212,-0.384,-0.442,+2.047,+100081.29
381713,+13.586,-0.534,+0.094,-0.376,-0.472,+2.186,+100079.62
381723,+14.012,-0.515,-0.120,-0.406,-0.497,+2.315,+100079.62
381733,+14.937,-0.364,-0.139,-0.464,-0.541,+2.442,+100080.96
381743,+15.951,+0.366,+0.518,-0.538,-0.587,+2.551,+100082.09
381753,+16.631,+1.068,+1.502,-0.663,-0.602,+2.657,+100081.12
381763,+17.095,+1.866,+2.115,-0.933,-0.585,+2.749,+100080.80
381773,+17.879,+3.608,+2.904,-1.262,-0.537,+2.829,+100080.80
381784,+18.278,+4.480,+3.855,-1.530,-0.475,+2.907,+100080.55
381793,+18.802,+4.658,+4.655,-1.754,-0.387,+2.984,+100077.89
381803,+18.834,+4.309,+5.638,-1.818,-0.279,+3.091,+100078.41
381813,+18.179,+4.779,+5.985,-1.552,-0.213,+3.250,+100077.03
381824,+17.763,+4.789,+5.010,-1.127,-0.224,+3.255,+100077.03
381833,+18.082,+2.573,+3.911,-1.103,-0.448,+3.184,+100079.41
381843,+15.899,+0.084,+4.997,-1.313,-0.648,+3.127,+100076.70
381853,+14.687,+0.707,+6.115,-1.398,-0.519,+2.909,+100079.30
381863,+14.472,+1.165,+5.291,-1.190,-0.253,+2.821,+100077.27
381873,+3.585,-0.565,+3.911,-1.084,-0.282,+2.349,+100077.27
381883,+2.892,-0.861,+3.136,-1.247,-0.231,+1.528,+100078.78
381893,+9.998,+3.244,+2.407,-1.203,-0.069,+0.843,+100080.20
381903,+6.410,+6.581,+2.152,-0.756,-0.036,+0.062,+100077.70
381914,+4.021,+7.213,+1.496,-0.469,-0.007,-0.563,+100076.33
381923,+4.535,+6.480,+0.662,-0.205,+0.005,-1.005,+100076.33
381933,+4.508,+5.538,+0.425,+0.180,+0.023,-1.368,+100077.20
381943,+3.524,+4.530,+0.626,+0.617,+0.089,-1.737,+100079.43
381954,+3.396,+3.480,+1.083,+1.002,+0.179,-2.115,+100077.71
381963,+4.314,+2.797,+1.636,+1.263,+0.258,-2.525,+100076.79
381973,+5.180,+2.073,+1.843,+1.404,+0.304,-2.972,+100076.79
381983,+5.183,+1.558,+1.767,+1.457,+0.352,-3.394,+100079.59
381993,+5.343,+1.647,+1.367,+1.442,+0.418,-3.771,+100078.02
382004,+5.868,+1.488,+1.110,+1.385,+0.484,-4.118,+100077.61
382013,+6.748,+1.451,+0.949,+1.236,+0.528,-4.426,+100075.98
382023,+7.569,+1.364,+0.889,+1.087,+0.564,-4.697,+100075.98
382033,+8.653,+1.011,+0.931,+0.971,+0.608,-4.926,+100077.20
382044,+9.931,+0.396,+1.005,+0.864,+0.641,-5.125,+100075.52
382054,+11.423,-0.555,+0.922,+0.750,+0.662,-5.298,+100077.09
382063,+12.613,-1.269,+0.832,+0.644,+0.674,-5.428,+100076.13
382073,+13.386,-1.323,+0.737,+0.603,+0.695,-5.520,+100076.13
382084,+13.941,-1.153,+0.694,+0.717,+0.747,-5.582,+100077.61
382094,+14.737,-1.661,+0.792,+0.963,+0.798,-5.605,+100079.33
382103,+15.889,-3.158,+0.990,+1.169,+0.789,-5.603,+100075.78
382113,+16.688,-4.713,+1.582,+1.214,+0.746,-5.553,+100078.47
382124,+17.582,-6.019,+2.246,+1.101,+0.727,-5.462,+100078.47
382134,+18.138,-6.979,+2.808,+0.843,+0.729,-5.349,+100078.26
382144,+18.092,-7.305,+3.240,+0.549,+0.777,-5.218,+100080.60
382153,+18.307,-8.369,+3.765,+0.303,+0.875,-5.035,+100080.51
382163,+18.946,-10.155,+3.555,+0.089,+0.983,-4.724,+100076.90
382174,+18.924,-11.895,+2.292,-0.149,+1.032,-4.330,+100076.90
382184,+18.045,-13.560,+0.974,-0.398,+1.011,-3.903,+100082.51
382193,+17.092,-15.648,-0.009,-0.605,+0.938,-3.413,+100081.34
382203,+15.499,-17.236,-0.759,-0.697,+0.825,-2.789,+100080.46
382214,+13.548,-17.747,-1.155,-0.642,+0.685,-2.016,+100078.18
382224,+12.615,-17.535,-1.317,-0.499,+0.530,-1.162,+100078.18
382234,+12.486,-16.793,-1.099,-0.303,+0.374,-0.265,+100084.10
382243,+13.196,-15.664,-0.310,+0.003,+0.237,+0.608,+100082.18
382254,+15.573,-13.009,-0.019,+0.526,+0.142,+1.446,+100081.41
382264,+13.263,-15.275,-0.892,+1.096,-0.004,+2.264,+100081.62
382274,+15.060,+2.923,-1.504,+1.267,-0.061,+2.756,+100081.62
382283,+20.561,+23.969,-5.451,+1.028,-0.315,+2.148,+100085.62
382294,+15.788,+18.975,-8.095,+0.669,-0.456,+1.983,+100085.05
382304,+12.191,-4.595,-3.042,+0.840,-0.180,+2.768,+100082.21
382314,+17.498,-19.325,+2.641,+1.616,+0.023,+3.309,+100081.24
382323,+18.699,-10.978,+1.349,+1.619,+0.015,+3.144,+100081.24
382333,+12.817,+0.615,-2.419,+0.849,-0.114,+2.776,+100083.78
382344,+7.143,+2.765,-0.426,+1.062,-0.080,+2.489,+100079.95
382354,+8.497,-2.761,+3.414,+1.673,+0.122,+2.293,+100082.05
382364,+10.018,-3.916,+3.708,+1.403,+0.118,+2.146,+100081.59
382373,+8.954,-3.203,+3.494,+0.750,+0.077,+1.907,+100081.59
382384,+9.914,-2.775,+1.380,+0.076,+0.062,+1.711,+100084.03
382394,+10.835,-1.652,+0.626,-0.310,+0.062,+1.465,+100080.77
382404,+10.974,-0.046,+0.853,-0.367,+0.116,+1.284,+100081.08
382414,+10.364,-0.131,+0.670,-0.295,+0.121,+1.146,+100083.56
382424,+10.616,-0.629,+0.596,-0.244,+0.153,+1.059,+100083.56
382434,+10.542,-0.163,+1.049,-0.283,+0.162,+0.974,+100081.60
382444,+10.569,+0.195,+1.107,-0.237,+0.163,+0.899,+100082.26
382454,+10.464,-0.094,+1.915,-0.191,+0.151,+0.856,+100082.01
382464,+10.342,-0.665,+2.717,-0.264,+0.124,+0.796,+100079.98
382474,+10.167,-1.091,+2.850,-0.457,+0.089,+0.724,+100079.98
382484,+10.071,-0.572,+2.538,-0.661,+0.063,+0.623,+100085.84
382494,+10.053,+0.103,+2.050,-0.752,+0.040,+0.555,+100081.02
382504,+10.242,+0.160,+1.575,-0.711,+0.030,+0.540,+100081.78
382514,+10.318,+0.135,+1.632,-0.650,+0.018,+0.534,+100078.67
382524,+10.258,+0.209,+1.661,-0.583,+0.017,+0.533,+100078.67
382534,+10.267,-0.136,+1.581,-0.541,+0.017,+0.542,+100084.30
382544,+10.376,-0.039,+1.762,-0.535,+0.027,+0.547,+100081.55
382554,+10.494,+0.237,+1.800,-0.519,+0.027,+0.558,+100080.89
382564,+10.408,-0.016,+1.981,-0.512,+0.017,+0.593,+100081.59
382574,+10.363,+0.119,+1.912,-0.533,+0.019,+0.634,+100081.59
382584,+10.428,+0.195,+1.621,-0.523,+0.009,+0.681,+100085.69
382595,+10.300,+0.077,+1.517,-0.472,-0.007,+0.747,+100083.30
382604,+10.420,+0.157,+1.555,-0.423,-0.017,+0.803,+100081.66
382614,+10.424,-0.143,+1.750,-0.365,-0.037,+0.856,+100079.94
382624,+10.387,-0.362,+1.835,-0.337,-0.052,+0.909,+100079.94
382635,+10.491,-0.504,+1.711,-0.326,-0.062,+0.948,+100082.29
382644,+10.516,-0.796,+1.641,-0.318,-0.072,+0.983,+100082.09
382654,+10.525,-1.042,+1.590,-0.336,-0.083,+1.006,+100082.74
382664,+10.497,-1.424,+1.357,-0.364,-0.094,+1.020,+100082.45
382674,+10.572,-1.639,+1.193,-0.416,-0.102,+1.044,+100082.45
382685,+10.703,-1.323,+1.201,-0.476,-0.108,+1.088,+100082.48
382694,+10.818,-0.981,+1.511,-0.516,-0.128,+1.156,+100081.38
382704,+10.914,-0.389,+1.836,-0.537,-0.161,+1.251,+100080.77
382714,+11.139,+0.231,+2.003,-0.503,-0.202,+1.367,+100079.94
382725,+11.572,+0.382,+2.100,-0.429,-0.247,+1.501,+100079.94
382734,+12.190,-0.255,+2.109,-0.379,-0.295,+1.635,+100083.61
382744,+12.605,-0.504,+2.153,-0.370,-0.340,+1.777,+100084.47
382754,+12.890,-0.346,+2.139,-0.392,-0.378,+1.915,+100080.00
382765,+13.150,-0.437,+1.895,-0.419,-0.417,+2.046,+100079.48
382774,+13.283,-0.507,+1.679,-0.459,-0.464,+2.187,+100079.48
382784,+13.565,-0.446,+1.416,-0.507,-0.501,+2.321,+100081.24
382794,+13.842,-0.374,+1.003,-0.554,-0.528,+2.446,+100084.51
382804,+14.401,-0.628,+0.348,-0.640,-0.554,+2.566,+100081.80
382815,+15.663,-0.404,-0.113,-0.773,-0.572,+2.666,+100080.84
382824,+17.018,+0.772,+0.335,-0.918,-0.612,+2.755,+100080.84
382834,+17.669,+2.107,+1.579,-1.144,-0.577,+2.808,+100083.72
382844,+18.148,+3.376,+1.830,-1.443,-0.506,+2.861,+100081.69
382855,+18.567,+4.610,+2.401,-1.729,-0.417,+2.917,+100079.00
382865,+19.181,+5.327,+3.558,-1.956,-0.373,+2.982,+100079.70
382874,+19.800,+5.746,+5.250,-2.078,-0.298,+3.095,+100079.70
382884,+19.121,+5.104,+6.537,-1.876,-0.252,+3.273,+100080.18
382895,+18.307,+5.266,+6.061,-1.500,-0.222,+3.315,+100078.09
382905,+18.496,+3.243,+4.337,-1.480,-0.393,+3.266,+100078.85
382914,+16.166,+1.658,+4.809,-1.713,-0.682,+3.155,+100079.21
382924,+15.561,+2.989,+6.139,-1.843,-0.658,+2.895,+100079.21
382935,+14.784,+3.158,+5.807,-1.668,-0.454,+2.755,+100079.80
382945,+7.745,+0.588,+5.486,-1.441,-0.327,+2.527,+100078.38
382955,+0.780,-2.661,+4.558,-1.468,-0.163,+2.007,+100078.67
382964,+7.242,-3.487,+3.491,-1.578,+0.030,+1.237,+100078.06
382974,+7.306,+3.743,+3.112,-1.220,+0.009,+0.191,+100078.06
382985,+4.220,+7.605,+2.240,-0.576,-0.019,-0.681,+100082.32
382995,+4.186,+7.163,+1.258,-0.069,+0.034,-1.088,+100079.84
383004,+4.008,+6.269,+0.562,+0.327,+0.044,-1.402,+100080.24
383014,+3.342,+5.408,+0.212,+0.681,+0.073,-1.873,+100078.60
383025,+2.484,+4.500,+0.199,+1.030,+0.189,-2.325,+100078.60
383035,+2.497,+3.288,+0.961,+1.349,+0.368,-2.668,+100080.91
383045,+3.473,+2.259,+1.866,+1.589,+0.507,-2.996,+100079.28
383054,+4.536,+1.858,+2.382,+1.767,+0.583,-3.373,+100077.80
383065,+5.400,+1.678,+2.235,+1.876,+0.625,-3.781,+100078.16
383075,+5.903,+1.786,+1.892,+1.904,+0.675,-4.169,+100078.16
383085,+6.513,+1.502,+1.634,+1.871,+0.718,-4.509,+100075.50
383094,+7.469,+1.170,+1.519,+1.750,+0.750,-4.798,+100075.75
383105,+8.463,+0.627,+1.362,+1.609,+0.787,-5.059,+100075.19
383115,+9.489,+0.201,+1.345,+1.430,+0.830,-5.275,+100075.50
383125,+10.730,-0.010,+1.342,+1.229,+0.842,-5.453,+100075.50
383135,+12.319,-0.161,+1.308,+1.087,+0.835,-5.601,+100075.98
383144,+13.806,-0.616,+1.300,+1.023,+0.826,-5.723,+100075.98
383155,+14.867,-1.141,+1.084,+0.989,+0.814,-5.818,+100075.89
383165,+15.736,-1.699,+0.874,+1.002,+0.801,-5.891,+100073.14
383175,+16.825,-2.497,+1.072,+1.071,+0.777,-5.921,+100073.14
383184,+18.086,-3.507,+1.499,+1.072,+0.715,-5.907,+100077.28
383195,+19.330,-4.855,+2.206,+0.939,+0.644,-5.852,+100077.80
383205,+20.108,-6.586,+3.286,+0.723,+0.635,-5.721,+100076.06
383215,+20.320,-8.834,+4.435,+0.504,+0.726,-5.504,+100078.20
383224,+20.267,-11.044,+4.829,+0.310,+0.891,-5.180,+100078.20
383236,+20.209,-14.086,+3.622,+0.058,+1.074,-4.726,+100078.45
383245,+19.468,-16.969,+1.632,-0.237,+1.157,-4.236,+100081.67
383255,+18.196,-19.329,-0.796,-0.571,+1.143,-3.610,+100078.61
383265,+16.416,-20.205,-2.587,-0.756,+1.009,-2.842,+100080.64
383275,+14.783,-20.462,-2.976,-0.700,+0.779,-1.935,+100080.64
383285,+13.512,-20.353,-2.332,-0.491,+0.501,-0.947,+100083.64
383295,+13.099,-19.232,-1.301,-0.247,+0.272,+0.037,+100082.11
383305,+13.925,-17.007,+0.012,+0.084,+0.096,+0.961,+100081.45
383315,+15.687,-15.202,-0.943,+0.526,+0.008,+1.793,+100079.97
383325,+13.210,-13.830,-1.154,+0.915,-0.153,+2.662,+100079.97
383335,+15.636,+8.784,-2.586,+0.966,-0.162,+2.727,+100084.90
383345,+17.581,+25.087,-7.375,+0.789,-0.435,+1.835,+100084.15
383355,+13.550,+14.954,-8.304,+0.718,-0.483,+1.963,+100084.09
383365,+13.075,-3.347,-3.350,+1.104,-0.226,+2.711,+100083.23
383375,+16.204,-14.522,+4.813,+1.843,+0.138,+3.140,+100083.23
383385,+18.544,-11.937,+2.799,+1.764,+0.191,+3.059,+100081.80
383395,+11.485,-0.394,-0.159,+1.070,+0.022,+2.813,+100083.08
383406,+7.883,+0.901,+0.964,+1.250,+0.063,+2.549,+100080.02
383415,+9.738,-4.007,+2.558,+1.501,+0.121,+2.362,+100080.84
383425,+9.961,-5.203,+2.848,+1.141,+0.084,+2.214,+100080.84
383435,+9.143,-3.772,+2.587,+0.515,+0.114,+1.960,+100084.77
383446,+10.694,-2.852,+1.678,-0.084,+0.072,+1.716,+100083.04
383455,+10.807,-1.145,+1.737,-0.413,+0.007,+1.475,+100082.52
383465,+10.665,+0.244,+1.647,-0.401,+0.035,+1.306,+100079.38
383475,+10.376,-0.183,+1.219,-0.320,+0.019,+1.180,+100079.38
383485,+10.594,-0.119,+1.007,-0.257,+0.041,+1.072,+100082.06
383496,+10.925,-0.011,+0.974,-0.185,+0.043,+1.010,+100082.11
383505,+10.648,-0.142,+0.943,-0.111,+0.040,+0.951,+100082.56
383515,+10.512,-0.454,+1.248,-0.070,+0.037,+0.889,+100080.53
383525,+10.348,-0.653,+1.927,-0.118,+0.026,+0.818,+100080.53
383536,+10.229,-0.829,+2.656,-0.264,+0.013,+0.743,+100083.14
383545,+10.137,-0.781,+2.672,-0.442,-0.008,+0.666,+100080.44
383555,+9.973,-0.515,+2.334,-0.590,-0.013,+0.595,+100082.83
383565,+10.014,-0.234,+2.000,-0.655,-0.002,+0.550,+100080.08
383576,+10.264,+0.146,+1.679,-0.642,+0.012,+0.528,+100080.08
383586,+10.460,+0.267,+1.367,-0.573,+0.031,+0.533,+100081.73
383595,+10.534,-0.109,+1.228,-0.483,+0.045,+0.548,+100080.70
383605,+10.445,-0.413,+1.269,-0.475,+0.053,+0.572,+100083.41
383616,+10.471,-0.620,+1.230,-0.506,+0.060,+0.576,+100081.98
383626,+10.324,-0.727,+1.383,-0.564,+0.073,+0.606,+100081.98
383636,+10.628,-0.376,+1.035,-0.619,+0.085,+0.626,+100083.34
383645,+10.610,-0.094,+1.356,-0.603,+0.058,+0.669,+100082.18
383655,+10.467,+0.068,+1.785,-0.565,+0.045,+0.732,+100080.13
383666,+10.550,-0.086,+1.976,-0.529,+0.033,+0.796,+100078.51
383675,+10.660,-0.070,+2.242,-0.504,+0.002,+0.859,+100078.51
383685,+10.453,-0.203,+2.310,-0.486,-0.011,+0.924,+100082.12
383695,+10.510,-0.515,+1.980,-0.491,-0.019,+0.979,+100081.16
383706,+10.570,-0.952,+1.687,-0.509,-0.034,+1.027,+100079.59
383716,+10.476,-1.602,+1.532,-0.545,-0.052,+1.075,+100078.26
383725,+10.601,-1.619,+1.475,-0.629,-0.070,+1.120,+100078.26
383735,+10.837,-1.097,+1.647,-0.683,-0.109,+1.190,+100082.62
383746,+11.139,-0.185,+2.140,-0.688,-0.169,+1.294,+100079.87
383756,+11.627,+0.585,+2.247,-0.655,-0.224,+1.436,+100080.68
383766,+12.257,+0.683,+1.598,-0.595,-0.275,+1.614,+100082.32
383775,+12.834,+0.398,+0.887,-0.536,-0.338,+1.817,+100082.32
383785,+13.439,+0.088,+0.434,-0.490,-0.398,+2.018,+100084.41
383796,+13.999,+0.060,+0.367,-0.438,-0.452,+2.204,+100082.17
383806,+14.125,+0.013,+0.562,-0.393,-0.509,+2.380,+100081.00
383815,+14.433,+0.250,+0.922,-0.394,-0.549,+2.540,+100081.16
383825,+14.727,+0.106,+1.112,-0.473,-0.576,+2.669,+100081.16
383836,+15.426,+0.304,+0.312,-0.607,-0.609,+2.783,+100082.35
383846,+16.546,+0.980,+0.093,-0.745,-0.641,+2.883,+100081.43
383856,+17.909,+2.083,+0.585,-0.879,-0.687,+2.962,+100079.10
383865,+18.627,+3.470,+1.532,-1.096,-0.660,+3.036,+100080.82
383876,+19.326,+4.759,+2.418,-1.397,-0.567,+3.094,+100080.82
383886,+20.355,+6.049,+3.523,-1.758,-0.463,+3.125,+100082.63
383896,+20.633,+7.115,+5.078,-1.990,-0.367,+3.223,+100079.73
383905,+20.175,+6.344,+6.220,-1.837,-0.292,+3.391,+100078.80
383916,+18.766,+6.041,+6.998,-1.339,-0.246,+3.541,+100077.49
383926,+19.100,+5.154,+5.843,-1.090,-0.259,+3.461,+100077.49
383936,+18.639,+3.513,+4.912,-1.286,-0.602,+3.296,+100080.13
383946,+14.789,+2.041,+6.038,-1.326,-0.785,+3.130,+100079.20
383955,+16.605,+3.066,+6.760,-1.122,-0.530,+2.976,+100078.50
383966,+10.264,+2.078,+6.388,-0.699,-0.347,+2.738,+100080.13
383976,-0.558,-1.273,+6.401,-0.814,-0.241,+2.084,+100080.13
383986,+4.663,-2.028,+4.412,-1.163,-0.075,+1.233,+100079.15
383995,+9.906,+5.059,+3.256,-0.932,-0.030,+0.319,+100078.49
384006,+5.405,+9.034,+2.446,-0.216,-0.098,-0.630,+100078.99
384016,+3.381,+8.649,+1.699,+0.165,-0.079,-1.218,+100076.76
384026,+3.314,+6.997,+0.536,+0.280,-0.073,-1.683,+100076.76
384036,+2.954,+5.872,-0.028,+0.395,-0.003,-2.143,+100078.06
384046,+2.030,+4.965,+0.425,+0.559,+0.141,-2.562,+100080.20
384056,+1.663,+3.779,+1.196,+0.757,+0.297,-2.933,+100076.75
384066,+2.237,+2.626,+2.072,+0.954,+0.423,-3.298,+100076.95
384076,+3.230,+2.206,+2.681,+1.157,+0.510,-3.693,+100076.95
384087,+4.751,+2.206,+2.613,+1.385,+0.581,-4.135,+100077.78
384096,+6.237,+2.244,+2.311,+1.507,+0.575,-4.603,+100077.13
384106,+6.552,+2.387,+1.807,+1.453,+0.568,-5.018,+100075.64
384116,+6.900,+2.419,+1.639,+1.350,+0.621,-5.386,+100074.73
384126,+8.218,+2.548,+1.445,+1.214,+0.703,-5.699,+100074.73
384136,+9.853,+1.910,+1.159,+1.066,+0.762,-5.959,+100076.34
384146,+11.773,+1.052,+1.106,+0.992,+0.831,-6.191,+100077.83
384156,+13.899,+0.131,+1.204,+1.136,+0.947,-6.358,+100077.06
384166,+16.163,-0.920,+1.269,+1.450,+1.051,-6.472,+100073.23
384176,+18.184,-3.794,+0.738,+1.784,+1.060,-6.510,+100073.23
384186,+19.193,-6.253,-0.265,+1.733,+0.865,-6.496,+100078.16
384196,+20.624,-6.984,-0.046,+1.387,+0.712,-6.394,+100078.16
384206,+22.572,-7.219,+1.623,+1.000,+0.594,-6.218,+100075.52
384217,+23.026,-7.194,+4.165,+0.662,+0.464,-5.951,+100074.15
384226,+21.890,-7.955,+6.823,+0.525,+0.479,-5.628,+100074.15
384236,+21.410,-11.315,+8.119,+0.390,+0.697,-5.264,+100080.32
384246,+20.558,-16.275,+6.334,-0.112,+0.960,-4.798,+100080.32
384257,+18.754,-20.471,+2.407,-0.947,+1.098,-4.157,+100078.84
384267,+17.174,-21.931,-1.723,-1.765,+1.106,-3.354,+100080.27
384276,+16.002,-21.377,-4.016,-2.055,+0.970,-2.511,+100080.27
384286,+14.363,-20.274,-4.328,-1.718,+0.717,-1.518,+100083.88
384296,+13.357,-18.669,-3.802,-1.174,+0.399,-0.456,+100085.10
384307,+13.453,-16.805,-2.987,-0.514,+0.106,+0.570,+100080.68
384316,+14.011,-15.612,-1.759,+0.200,-0.112,+1.522,+100081.49
384326,+15.896,-13.839,-1.900,+0.797,-0.139,+2.313,+100081.49
384336,+12.908,-7.467,-1.334,+1.038,-0.199,+2.970,+100082.16
384347,+15.794,+15.405,-0.550,+0.786,-0.060,+2.460,+100080.84
384356,+13.599,+22.253,-4.634,+0.156,-0.257,+1.582,+100084.55
384366,+11.548,+9.499,-6.463,-0.051,-0.307,+1.798,+100082.77
384376,+14.804,-5.691,-3.510,+0.380,-0.196,+2.452,+100082.77
384387,+18.914,-13.392,+3.992,+1.171,+0.065,+2.821,+100082.73
384397,+20.247,-11.386,+0.833,+1.335,+0.072,+2.670,+100083.34
384406,+13.423,-2.798,-2.051,+0.813,-0.102,+2.533,+100084.24
384416,+9.101,-0.447,+0.026,+0.800,+0.014,+2.353,+100081.29
384427,+8.638,-1.669,+1.983,+0.774,+0.120,+2.228,+100081.29
384437,+9.022,-1.712,+1.916,+0.542,+0.106,+1.999,+100082.16
384446,+9.493,-1.864,+2.491,+0.269,+0.116,+1.751,+100080.94
384456,+10.658,-1.187,+3.008,-0.032,+0.101,+1.540,+100078.91
384466,+10.659,-0.646,+2.965,-0.260,+0.041,+1.340,+100079.00
384477,+10.532,-0.450,+2.146,-0.332,-0.002,+1.147,+100079.00
384487,+10.552,-0.096,+1.390,-0.350,-0.013,+1.017,+100083.48
384496,+10.774,-0.009,+0.800,-0.330,+0.003,+0.926,+100081.91
384506,+10.836,+0.456,+1.100,-0.263,+0.010,+0.865,+100082.11
384517,+10.756,+0.767,+1.738,-0.209,+0.014,+0.835,+100080.48
384527,+10.560,+0.098,+1.851,-0.191,-0.005,+0.804,+100080.48
384537,+10.556,-0.522,+1.943,-0.264,-0.030,+0.750,+100083.92
384546,+10.307,-0.933,+2.255,-0.425,-0.049,+0.697,+100081.42
384557,+10.137,-0.408,+2.496,-0.613,-0.058,+0.639,+100083.45
384567,+9.875,+0.267,+2.592,-0.701,-0.062,+0.616,+100078.88
384577,+9.986,+0.720,+2.673,-0.707,-0.062,+0.608,+100078.88
384586,+10.114,+1.020,+2.774,-0.692,-0.069,+0.616,+100083.23
384596,+10.097,+1.306,+2.814,-0.657,-0.063,+0.648,+100082.62
384607,+10.211,+0.706,+2.557,-0.625,-0.055,+0.684,+100081.70
384617,+10.259,+0.252,+2.574,-0.635,-0.053,+0.723,+100079.62
384627,+10.448,+1.374,+2.492,-0.643,-0.049,+0.755,+100079.62
384636,+10.372,+0.596,+2.217,-0.584,-0.052,+0.818,+100084.10
384647,+10.370,+0.231,+1.812,-0.574,-0.057,+0.884,+100080.88
384657,+10.315,+0.115,+1.693,-0.550,-0.075,+0.969,+100082.32
384667,+10.327,+0.043,+1.586,-0.499,-0.105,+1.055,+100079.10
384676,+10.551,-0.055,+1.465,-0.450,-0.139,+1.124,+100079.10
384687,+10.879,-0.329,+1.356,-0.408,-0.169,+1.188,+100083.27
384697,+11.085,-1.072,+1.084,-0.408,-0.214,+1.242,+100080.43
384707,+11.250,-1.076,+0.826,-0.466,-0.232,+1.272,+100080.88
384717,+11.151,-0.945,+0.828,-0.507,-0.254,+1.306,+100080.88
384727,+11.105,-0.514,+1.001,-0.508,-0.267,+1.346,+100080.88
384737,+11.189,-0.300,+1.135,-0.448,-0.297,+1.410,+100082.25
384747,+11.205,-0.066,+1.410,-0.362,-0.342,+1.509,+100081.44
384757,+11.334,+0.064,+1.409,-0.284,-0.383,+1.636,+100081.69
384766,+11.639,+0.040,+1.199,-0.198,-0.439,+1.794,+100081.19
384777,+12.101,+0.359,+1.481,-0.106,-0.501,+1.964,+100081.19
384787,+12.757,+0.412,+1.780,-0.047,-0.545,+2.129,+100080.54
384797,+13.429,+0.040,+1.836,-0.050,-0.582,+2.274,+100082.99
384807,+14.065,-0.429,+1.527,-0.127,-0.624,+2.424,+100080.24
384817,+14.545,-0.253,+1.354,-0.260,-0.660,+2.567,+100082.88
384827,+14.880,+0.095,+1.076,-0.419,-0.690,+2.724,+100082.88
384837,+15.531,+0.793,+0.661,-0.601,-0.712,+2.882,+100080.64
384847,+16.873,+1.678,+0.476,-0.782,-0.737,+3.025,+100081.36
384857,+18.575,+2.984,+1.038,-0.965,-0.774,+3.144,+100080.64
384867,+19.426,+4.577,+2.435,-1.169,-0.743,+3.230,+100081.11
384877,+19.777,+5.200,+3.248,-1.445,-0.649,+3.282,+100081.11
384887,+20.541,+5.657,+4.189,-1.786,-0.549,+3.349,+100080.99
384897,+20.911,+6.312,+5.443,-1.956,-0.429,+3.460,+100077.73
384907,+20.359,+7.057,+6.081,-1.697,-0.374,+3.624,+100077.99
384917,+19.939,+6.547,+5.059,-1.366,-0.403,+3.631,+100079.01
384927,+19.903,+5.443,+5.026,-1.512,-0.673,+3.523,+100079.01
384937,+17.074,+3.628,+6.765,-1.562,-0.897,+3.359,+100080.09
384948,+18.600,+3.481,+7.570,-1.138,-0.745,+3.195,+100080.18
384957,+13.009,+1.886,+6.285,-0.551,-0.591,+3.075,+100077.29
384967,+0.930,-1.381,+5.660,-0.462,-0.525,+2.462,+100076.57
384977,+4.075,-2.707,+3.887,-0.673,-0.382,+1.606,+100076.57
384988,+11.334,+4.143,+2.989,-0.529,-0.302,+0.703,+100078.98
384997,+6.607,+8.400,+2.671,+0.048,-0.325,-0.314,+100078.77
385007,+3.736,+8.765,+1.733,+0.405,-0.315,-0.960,+100077.10
385017,+3.530,+7.096,+0.820,+0.626,-0.323,-1.432,+100077.05
385028,+3.208,+6.024,+0.495,+0.840,-0.253,-1.881,+100077.05
385037,+2.695,+5.293,+0.875,+1.035,-0.133,-2.300,+100080.86
385047,+2.103,+4.440,+1.508,+1.263,-0.039,-2.686,+100079.03
385057,+2.282,+3.316,+2.200,+1.488,+0.040,-3.087,+100075.22
385068,+3.463,+2.751,+2.505,+1.638,+0.115,-3.513,+100073.48
385077,+4.652,+2.157,+2.650,+1.713,+0.177,-3.973,+100073.48
385087,+5.204,+1.844,+2.662,+1.698,+0.249,-4.425,+100075.10
385097,+5.644,+1.847,+2.426,+1.574,+0.308,-4.824,+100074.79
385107,+6.263,+1.949,+2.367,+1.423,+0.372,-5.181,+100072.60
385118,+7.433,+1.974,+2.180,+1.258,+0.450,-5.497,+100072.60
385127,+9.067,+1.744,+1.963,+1.104,+0.518,-5.769,+100072.60
385137,+10.858,+1.132,+1.997,+1.070,+0.600,-6.004,+100076.27
385147,+12.669,+0.441,+2.118,+1.245,+0.712,-6.187,+100076.77
385158,+14.389,-0.259,+2.337,+1.582,+0.809,-6.333,+100074.34
385167,+16.328,-1.275,+2.629,+2.001,+0.873,-6.461,+100071.84
385177,+17.901,-4.439,+2.283,+2.281,+0.850,-6.509,+100071.84
385187,+18.936,-6.734,+1.721,+2.153,+0.679,-6.514,+100078.30
385198,+20.916,-7.838,+2.507,+1.816,+0.586,-6.415,+100075.91
385208,+22.703,-9.155,+4.433,+1.413,+0.510,-6.224,+100077.20
385217,+22.975,-10.585,+6.904,+0.979,+0.469,-5.955,+100076.93
385227,+21.711,-12.737,+9.214,+0.587,+0.570,-5.585,+100076.93
385238,+20.197,-15.541,+9.365,+0.147,+0.781,-5.144,+100080.94
385248,+19.285,-19.543,+6.033,-0.636,+0.972,-4.581,+100079.77
385258,+17.603,-22.810,+1.948,-1.645,+1.025,-3.871,+100083.69
385267,+16.088,-23.279,-0.718,-2.445,+1.007,-3.041,+100080.28
385277,+14.347,-22.526,-2.052,-2.725,+0.859,-2.094,+100080.28
385288,+13.330,-20.575,-2.373,-2.455,+0.642,-1.025,+100083.88
385298,+12.977,-17.875,-2.229,-1.817,+0.389,+0.038,+100082.56
385307,+13.832,-15.930,-1.384,-0.989,+0.164,+1.058,+100081.89
385317,+17.640,-12.444,-1.500,-0.099,+0.048,+1.992,+100081.64
385328,+13.446,-11.680,-2.568,+0.725,-0.135,+2.752,+100081.64
385338,+15.707,+11.130,-1.828,+1.009,-0.053,+2.844,+100080.76
385348,+20.813,+29.234,-8.016,+0.901,-0.269,+1.848,+100082.90
385357,+14.824,+13.491,-10.824,+0.743,-0.469,+2.214,+100084.73
385368,+12.971,-9.840,-3.760,+1.299,-0.189,+3.027,+100079.38
385378,+19.161,-19.805,+3.046,+1.913,+0.128,+3.334,+100079.38
385388,+18.446,-8.604,-0.013,+1.306,+0.191,+3.097,+100082.74
385397,+10.789,+1.792,-1.692,+0.727,+0.113,+2.774,+100081.07
385408,+7.736,-1.971,+2.702,+1.066,+0.128,+2.632,+100082.18
385418,+9.561,-4.108,+2.752,+0.904,+0.119,+2.443,+100079.65
385428,+9.142,-2.581,+3.009,+0.469,+0.068,+2.132,+100079.65
385438,+9.005,-2.967,+3.245,+0.086,+0.033,+1.845,+100082.73
385447,+10.518,-1.656,+1.351,-0.237,+0.031,+1.533,+100083.96
385458,+11.229,-0.945,+1.713,-0.320,+0.048,+1.292,+100079.73
385468,+10.864,-0.302,+1.752,-0.285,+0.008,+1.149,+100080.45
385478,+10.430,+0.118,+1.207,-0.219,+0.003,+1.035,+100080.45
385487,+10.904,-0.320,+0.413,-0.114,+0.027,+0.959,+100084.87
385498,+11.023,+0.169,+0.959,-0.023,+0.038,+0.896,+100082.99
385508,+10.837,+0.327,+1.912,+0.018,+0.034,+0.845,+100081.57
385518,+10.787,+0.008,+2.310,-0.019,+0.023,+0.767,+100079.48
385527,+10.817,-0.944,+2.282,-0.134,-0.001,+0.680,+100079.48
385538,+10.531,-1.493,+2.322,-0.368,-0.006,+0.595,+100080.51
385548,+10.542,-0.974,+2.124,-0.647,+0.016,+0.522,+100081.48
385558,+10.876,-0.274,+1.933,-0.794,+0.022,+0.487,+100082.18
385568,+11.115,+0.671,+2.028,-0.832,+0.024,+0.476,+100081.16
385577,+10.732,+0.740,+2.000,-0.784,+0.003,+0.479,+100081.16
385588,+10.514,+0.196,+1.987,-0.756,-0.003,+0.523,+100082.28
385598,+10.300,+0.252,+1.792,-0.749,-0.022,+0.568,+100082.84
385608,+10.118,+0.018,+1.734,-0.722,-0.043,+0.624,+100078.06
385618,+10.167,+0.010,+1.997,-0.721,-0.063,+0.672,+100079.80
385628,+9.889,+0.069,+2.214,-0.713,-0.078,+0.717,+100079.80
385638,+9.826,-0.145,+2.335,-0.694,-0.082,+0.769,+100082.33
385648,+9.803,-0.261,+2.390,-0.685,-0.091,+0.816,+100081.31
385658,+9.950,-0.097,+2.358,-0.678,-0.104,+0.868,+100082.69
385668,+10.058,-0.130,+2.493,-0.666,-0.114,+0.920,+100078.77
385678,+10.133,-0.023,+2.453,-0.664,-0.118,+0.979,+100078.77
385688,+10.136,+0.131,+2.453,-0.635,-0.128,+1.049,+100083.80
385698,+9.804,-0.681,+2.232,-0.611,-0.124,+1.132,+100082.88
385709,+9.632,-0.738,+1.819,-0.625,-0.119,+1.211,+100082.07
385718,+9.662,-0.267,+1.738,-0.562,-0.142,+1.320,+100080.49
385728,+10.171,-0.219,+1.861,-0.439,-0.198,+1.442,+100080.49
385738,+11.101,-0.337,+1.768,-0.365,-0.272,+1.570,+100082.96
385748,+11.946,-0.059,+1.508,-0.354,-0.327,+1.710,+100083.12
385758,+12.718,+0.149,+1.235,-0.349,-0.372,+1.864,+100082.15
385768,+13.266,+0.046,+0.747,-0.343,-0.418,+2.039,+100081.45
385778,+13.753,+0.113,+0.255,-0.337,-0.471,+2.222,+100081.45
385788,+14.125,+0.242,+0.050,-0.338,-0.522,+2.398,+100083.59
385799,+14.479,+0.434,+0.197,-0.354,-0.570,+2.571,+100083.27
385808,+14.845,+0.585,+0.557,-0.418,-0.604,+2.743,+100079.87
385818,+15.465,+0.485,+0.693,-0.552,-0.618,+2.902,+100079.10
385828,+16.531,+1.113,+0.491,-0.757,-0.653,+3.033,+100079.10
385839,+18.290,+2.759,+0.984,-0.945,-0.672,+3.142,+100081.85
385848,+19.186,+4.021,+2.016,-1.106,-0.650,+3.217,+100080.27
385858,+19.838,+4.038,+2.824,-1.347,-0.558,+3.281,+100080.27
385868,+20.931,+5.348,+3.856,-1.683,-0.437,+3.345,+100079.66
385879,+21.453,+6.386,+4.762,-1.854,-0.356,+3.440,+100079.66
385889,+21.184,+7.225,+5.590,-1.597,-0.332,+3.611,+100081.43
385938,+16.646,+3.324,+5.001,-0.579,-0.797,+3.207,+100079.27
385948,+6.027,-0.146,+5.357,-0.319,-0.612,+2.854,+100077.94
385958,-2.416,-2.651,+6.025,-0.663,-0.442,+2.059,+100076.72
385969,+8.060,-1.029,+3.968,-0.931,-0.230,+1.189,+100076.06
385978,+9.769,+6.107,+2.616,-0.560,-0.328,+0.122,+100076.06
385988,+4.418,+9.470,+1.891,+0.105,-0.474,-0.841,+100080.46
385998,+3.946,+8.607,+1.126,+0.414,-0.472,-1.335,+100080.15
386009,+4.148,+6.771,+0.445,+0.543,-0.533,-1.726,+100079.34
386019,+3.326,+5.106,+0.138,+0.677,-0.537,-2.258,+100077.60
386028,+2.163,+3.841,+0.657,+0.844,-0.438,-2.664,+100077.60
386038,+1.823,+2.729,+1.669,+1.080,-0.308,-3.039,+100079.23
386049,+3.068,+2.479,+2.491,+1.309,-0.205,-3.434,+100078.15
386059,+4.555,+2.333,+2.833,+1.511,-0.173,-3.884,+100076.02
386069,+5.673,+1.827,+2.948,+1.671,-0.179,-4.349,+100074.29
386078,+5.918,+2.001,+3.114,+1.727,-0.135,-4.793,+100074.29
386088,+6.582,+2.244,+3.254,+1.675,-0.060,-5.170,+100078.31
386099,+7.333,+2.187,+3.627,+1.638,+0.026,-5.485,+100075.58
386109,+8.478,+2.123,+3.722,+1.576,+0.113,-5.742,+100076.48
386118,+9.877,+1.291,+4.149,+1.462,+0.204,-5.957,+100073.48
386128,+11.490,+0.238,+4.517,+1.333,+0.309,-6.143,+100073.48
386139,+13.097,-0.519,+4.833,+1.283,+0.444,-6.320,+100076.07
386149,+14.822,-1.006,+5.408,+1.403,+0.620,-6.464,+100077.60
386159,+16.715,-1.820,+6.046,+1.655,+0.799,-6.583,+100075.55
386168,+18.442,-4.899,+5.906,+1.828,+0.965,-6.607,+100076.68
386179,+20.025,-8.130,+3.888,+1.458,+0.920,-6.544,+100076.68
386189,+21.156,-9.317,+4.414,+0.764,+0.828,-6.396,+100079.50
386199,+22.577,-10.511,+5.752,+0.037,+0.854,-6.147,+100076.95
386208,+23.239,-11.853,+6.376,-0.636,+0.965,-5.821,+100079.56
386219,+21.848,-13.162,+5.234,-1.163,+1.071,-5.410,+100078.48
386229,+20.242,-15.871,+3.682,-1.639,+1.092,-4.887,+100078.48
386239,+18.158,-18.175,+1.921,-1.980,+1.132,-4.188,+100081.80
386249,+16.282,-19.488,-0.641,-2.142,+1.172,-3.362,+100084.69
386258,+15.018,-20.182,-3.682,-2.041,+1.077,-2.422,+100082.25
386269,+14.148,-20.210,-5.498,-1.632,+0.864,-1.368,+100081.28
386279,+13.719,-19.732,-5.786,-1.030,+0.584,-0.266,+100081.28
386289,+14.296,-18.032,-5.368,-0.322,+0.297,+0.756,+100085.74
386298,+14.678,-16.647,-4.925,+0.467,+0.041,+1.638,+100081.46
386309,+17.150,-12.639,-2.606,+1.180,-0.074,+2.365,+100082.43
386319,+13.277,-6.504,-1.918,+1.609,-0.166,+2.826,+100081.41
386329,+14.603,+18.605,-0.487,+1.357,+0.025,+2.419,+100081.41
386339,+14.292,+25.494,-5.671,+0.627,-0.166,+1.456,+100084.37
386349,+14.381,+9.067,-8.993,+0.265,-0.299,+1.955,+100084.71
386359,+14.924,-9.333,-2.149,+0.725,-0.129,+2.808,+100084.93
386369,+20.054,-17.391,+5.218,+1.632,+0.246,+3.123,+100081.26
386379,+18.844,-9.387,+0.754,+1.348,+0.217,+2.887,+100081.26
386388,+11.164,-1.415,-2.394,+0.735,+0.050,+2.595,+100085.00
386399,+9.189,-3.319,+0.460,+0.721,+0.165,+2.434,+100080.31
386409,+9.795,-2.836,+2.616,+0.496,+0.216,+2.259,+100081.69
386419,+8.803,-1.835,+3.157,+0.232,+0.171,+1.983,+100078.89
386429,+9.627,-1.807,+3.019,-0.006,+0.143,+1.711,+100078.89
386439,+10.204,-0.821,+3.092,-0.287,+0.052,+1.471,+100082.38
386449,+10.233,+0.184,+2.626,-0.294,+0.028,+1.220,+100079.33
386459,+10.721,-0.381,+1.949,-0.204,-0.012,+1.032,+100078.92
386469,+10.600,+0.068,+1.365,-0.185,-0.031,+0.926,+100078.61
386479,+10.708,+0.556,+1.075,-0.104,-0.015,+0.862,+100078.61
386489,+10.806,+0.407,+1.252,-0.016,-0.029,+0.823,+100081.37
386499,+10.285,+0.489,+1.300,-0.002,-0.027,+0.773,+100081.16
386509,+10.411,+0.137,+1.634,-0.024,-0.005,+0.736,+100079.73
386520,+10.442,-0.327,+2.390,-0.155,+0.003,+0.706,+100079.84
386529,+10.097,-0.581,+3.040,-0.373,+0.003,+0.652,+100079.84
386539,+9.778,-0.136,+2.955,-0.592,+0.008,+0.597,+100080.08
386549,+9.826,+0.073,+2.416,-0.698,+0.030,+0.564,+100080.44
386560,+9.998,-0.088,+1.914,-0.686,+0.033,+0.553,+100079.36
386569,+10.119,+0.277,+1.653,-0.628,+0.019,+0.565,+100079.67
386579,+10.150,+0.243,+1.749,-0.583,+0.028,+0.591,+100079.67
386589,+10.369,-0.139,+2.024,-0.596,+0.035,+0.611,+100081.30
386599,+10.593,+0.246,+2.019,-0.641,+0.032,+0.633,+100081.40
386610,+10.476,+0.111,+2.056,-0.652,+0.027,+0.672,+100081.10
386619,+10.410,-0.163,+1.949,-0.686,+0.035,+0.712,+100082.32
386629,+10.603,-0.247,+1.335,-0.726,+0.029,+0.744,+100082.32
386639,+10.685,-0.325,+1.162,-0.731,+0.018,+0.790,+100083.29
386650,+10.856,-0.228,+0.989,-0.728,+0.006,+0.843,+100081.98
386660,+11.069,-0.117,+1.057,-0.725,-0.012,+0.901,+100081.51
386669,+11.271,-0.163,+1.336,-0.706,-0.045,+0.952,+100081.91
386679,+11.006,-0.558,+1.634,-0.710,-0.078,+1.005,+100081.91
386690,+10.862,-0.944,+1.636,-0.748,-0.105,+1.047,+100080.17
386700,+10.727,-0.877,+1.800,-0.781,-0.155,+1.100,+100081.55
386709,+10.564,-0.292,+2.194,-0.778,-0.225,+1.178,+100081.05
386719,+10.554,+0.246,+2.575,-0.738,-0.274,+1.288,+100078.14
386729,+11.044,+0.902,+2.750,-0.673,-0.318,+1.423,+100078.14
386740,+11.533,+1.279,+2.704,-0.578,-0.380,+1.583,+100083.63
386750,+12.201,+0.842,+2.311,-0.500,-0.441,+1.757,+100082.98
386759,+12.929,+0.540,+1.809,-0.482,-0.492,+1.933,+100082.82
386769,+13.563,+0.716,+1.541,-0.483,-0.552,+2.098,+100080.79
386780,+13.882,+0.682,+1.465,-0.468,-0.616,+2.255,+100080.79
386790,+14.046,+0.224,+1.478,-0.474,-0.670,+2.426,+100084.28
386799,+14.356,+0.115,+1.381,-0.533,-0.706,+2.592,+100080.02
386809,+14.727,+0.183,+0.907,-0.662,-0.717,+2.729,+100080.72
386820,+15.279,+0.690,-0.119,-0.827,-0.728,+2.851,+100081.39
386830,+16.656,+1.664,-0.712,-0.955,-0.744,+2.943,+100081.39
386840,+18.050,+3.046,-0.189,-1.037,-0.765,+3.020,+100082.70
386849,+18.718,+4.120,+0.993,-1.152,-0.734,+3.065,+100083.30
386860,+19.155,+5.024,+1.841,-1.411,-0.652,+3.114,+100079.49
386870,+19.136,+5.838,+3.391,-1.697,-0.565,+3.219,+100080.60
386879,+19.377,+8.153,+5.024,-1.687,-0.470,+3.345,+100080.60
386889,+18.978,+6.618,+6.116,-1.224,-0.438,+3.513,+100079.08
386899,+18.296,+6.032,+5.972,-0.631,-0.397,+3.608,+100077.97
386910,+17.894,+3.994,+4.341,-0.417,-0.460,+3.513,+100079.59
386920,+16.923,+2.505,+4.603,-0.641,-0.735,+3.345,+100076.84
386929,+15.762,+3.452,+5.617,-0.742,-0.900,+3.132,+100076.84
386939,+17.168,+3.560,+4.422,-0.475,-0.844,+3.015,+100080.41
386950,+11.022,+0.488,+4.196,-0.171,-0.655,+2.888,+100077.71
386960,+0.668,-2.736,+5.254,-0.240,-0.544,+2.422,+100076.79
386970,+0.565,-4.488,+4.646,-0.614,-0.388,+1.586,+100077.76
386980,+9.477,+1.311,+4.103,-0.611,-0.312,+0.543,+100077.76
386990,+6.298,+7.115,+3.313,+0.126,-0.510,-0.522,+100079.79
387000,+3.450,+7.501,+2.322,+0.802,-0.565,-1.243,+100080.04
387010,+3.723,+5.594,+1.262,+0.957,-0.530,-1.569,+100079.02
387019,+3.637,+4.755,+0.416,+0.910,-0.555,-1.889,+100078.21
387030,+2.796,+4.161,+0.109,+0.863,-0.558,-2.409,+100078.21
387040,+1.735,+3.526,+0.819,+0.898,-0.426,-2.849,+100079.20
387050,+1.840,+2.757,+2.110,+0.941,-0.247,-3.148,+100077.31
387060,+3.059,+2.554,+3.007,+0.999,-0.110,-3.482,+100077.11
387069,+4.562,+2.535,+3.183,+1.098,-0.031,-3.899,+100077.72
387080,+6.176,+2.125,+3.096,+1.195,+0.006,-4.338,+100077.72
387090,+6.633,+2.496,+2.812,+1.195,+0.055,-4.753,+100076.48
387100,+7.205,+2.690,+2.738,+1.096,+0.120,-5.103,+100075.47
387109,+7.800,+2.497,+2.709,+0.975,+0.209,-5.410,+100073.64
387120,+8.715,+2.271,+2.815,+0.837,+0.332,-5.694,+100072.20
387130,+9.865,+1.987,+3.046,+0.673,+0.461,-5.941,+100072.20
387140,+11.577,+1.636,+3.257,+0.609,+0.608,-6.168,+100075.48
387150,+13.386,+0.827,+3.600,+0.810,+0.822,-6.349,+100076.70
387160,+15.341,-0.021,+4.113,+1.205,+1.057,-6.475,+100074.88
387170,+17.575,-2.919,+3.453,+1.678,+1.262,-6.520,+100072.73
387180,+18.565,-6.955,+1.780,+1.730,+1.150,-6.443,+100072.73
387190,+19.564,-8.165,+1.406,+1.396,+0.982,-6.333,+100079.18
387200,+22.007,-9.115,+2.155,+0.997,+0.953,-6.122,+100078.71
387210,+24.003,-11.178,+3.191,+0.549,+0.914,-5.784,+100079.74
387220,+23.567,-13.560,+4.269,+0.045,+0.843,-5.349,+100080.20
387230,+20.796,-15.563,+4.962,-0.400,+0.793,-4.849,+100080.20
387240,+18.543,-18.286,+4.769,-0.836,+0.819,-4.308,+100081.93
387250,+17.196,-21.680,+3.256,-1.423,+0.885,-3.659,+100078.88
387260,+15.434,-23.254,+0.857,-2.075,+0.921,-2.840,+100081.52
387270,+14.181,-22.743,-1.731,-2.501,+0.858,-1.909,+100082.29
387280,+13.695,-21.288,-3.720,-2.529,+0.665,-0.916,+100082.29
387291,+13.673,-19.387,-4.019,-2.191,+0.411,+0.109,+100082.45
387300,+16.641,-15.184,-2.430,-1.620,+0.170,+1.056,+100081.59
387310,+16.089,-14.677,-4.888,-0.781,-0.088,+1.942,+100081.23
387320,+13.977,-7.239,-4.275,-0.129,-0.306,+2.714,+100079.34
387330,+18.488,+21.874,-5.531,+0.203,-0.436,+2.388,+100079.34
387340,+18.319,+32.049,-6.943,+0.562,-0.545,+1.655,+100085.97
387350,+12.834,+7.926,-4.542,+1.019,-0.327,+2.376,+100082.50
387360,+14.157,-13.682,-1.158,+2.142,-0.129,+3.096,+100082.91
387371,+18.808,-17.422,+1.989,+2.767,+0.004,+3.287,+100080.52
387380,+14.405,-5.795,-0.692,+1.840,+0.064,+2.970,+100080.52
387390,+8.116,+0.090,-0.277,+1.199,+0.010,+2.575,+100083.37
387400,+8.770,-3.752,+3.426,+1.271,+0.125,+2.372,+100080.77
387410,+9.327,-5.675,+2.918,+0.873,+0.081,+2.154,+100081.65
387421,+8.897,-4.844,+3.716,+0.263,+0.084,+1.855,+100081.70
387430,+10.284,-3.544,+1.806,-0.463,+0.005,+1.575,+100081.70
387440,+10.937,-0.525,+0.656,-0.724,-0.031,+1.296,+100082.18
387450,+10.901,+0.228,+1.612,-0.528,+0.012,+1.131,+100082.12
387461,+10.628,+0.207,+2.452,-0.403,-0.030,+1.020,+100082.38
387470,+10.317,+0.791,+1.885,-0.355,-0.047,+0.925,+100080.54
387480,+10.718,+0.704,+1.384,-0.211,-0.041,+0.873,+100080.54
387490,+10.664,+0.518,+1.168,-0.048,-0.045,+0.853,+100084.55
387501,+10.488,+0.100,+1.062,+0.055,-0.052,+0.824,+100084.66
387511,+10.475,-0.277,+1.416,+0.059,-0.041,+0.778,+100082.88
387520,+10.357,-0.702,+2.290,-0.053,-0.047,+0.717,+100084.00
387530,+10.176,-1.133,+3.258,-0.284,-0.073,+0.633,+100084.00
387540,+9.738,-0.854,+3.327,-0.555,-0.102,+0.537,+100083.25
387551,+9.716,+0.390,+2.587,-0.713,-0.109,+0.477,+100081.16
387560,+9.791,+0.604,+2.254,-0.682,-0.105,+0.463,+100080.80
387570,+10.004,+0.554,+1.768,-0.627,-0.083,+0.495,+100082.98
387580,+10.232,+0.713,+1.452,-0.536,-0.060,+0.547,+100082.98
387591,+10.446,+0.650,+1.483,-0.422,-0.060,+0.606,+100084.04
387601,+10.494,+0.359,+1.807,-0.357,-0.062,+0.667,+100080.73
387610,+10.414,+0.119,+2.315,-0.375,-0.061,+0.717,+100081.70
387620,+10.572,+0.153,+2.314,-0.426,-0.070,+0.766,+100079.20
387631,+10.442,-0.126,+2.218,-0.468,-0.094,+0.833,+100079.20
387641,+10.564,-0.070,+1.828,-0.513,-0.108,+0.885,+100084.52
387650,+10.931,-0.128,+1.276,-0.526,-0.125,+0.943,+100082.43
387660,+11.249,+0.015,+0.901,-0.515,-0.152,+1.018,+100083.70
387671,+11.448,-0.074,+0.979,-0.475,-0.178,+1.092,+100079.02
387681,+11.280,-0.306,+1.186,-0.460,-0.188,+1.166,+100079.02
387691,+11.062,-0.798,+1.523,-0.471,-0.193,+1.232,+100082.48
387700,+10.771,-0.764,+1.920,-0.499,-0.218,+1.309,+100081.30
387710,+10.821,-0.268,+2.338,-0.509,-0.262,+1.405,+100082.79
387721,+11.225,+0.112,+2.803,-0.501,-0.320,+1.528,+100080.54
387731,+11.758,+0.614,+2.734,-0.502,-0.376,+1.672,+100080.54
387741,+12.623,+0.060,+1.539,-0.512,-0.427,+1.823,+100082.40
387750,+13.464,+0.022,+0.910,-0.504,-0.520,+2.021,+100082.30
387761,+13.886,+0.125,+0.806,-0.490,-0.589,+2.201,+100082.91
387771,+14.418,+0.064,+0.780,-0.477,-0.640,+2.355,+100078.18
387781,+14.816,+0.002,+0.857,-0.477,-0.691,+2.505,+100078.18
387790,+14.801,+0.161,+0.947,-0.507,-0.727,+2.653,+100083.27
387801,+15.246,+0.728,+0.653,-0.579,-0.741,+2.783,+100082.21
387811,+16.318,+0.926,+0.256,-0.634,-0.759,+2.900,+100081.70
387821,+17.627,+1.726,+0.622,-0.707,-0.807,+3.009,+100080.68
387831,+18.264,+2.949,+1.746,-0.888,-0.791,+3.086,+100080.68
387841,+19.106,+3.969,+2.581,-1.234,-0.725,+3.132,+100083.59
387851,+19.716,+6.119,+4.059,-1.614,-0.612,+3.186,+100080.70
387861,+19.689,+7.369,+5.570,-1.885,-0.544,+3.267,+100077.48
387871,+19.120,+6.599,+6.894,-1.897,-0.485,+3.384,+100080.08
387880,+18.298,+5.413,+6.753,-1.629,-0.437,+3.509,+100080.08
387891,+18.562,+5.042,+5.157,-1.441,-0.487,+3.458,+100083.23
387901,+18.387,+3.573,+4.933,-1.653,-0.768,+3.249,+100077.89
387911,+15.312,+3.010,+7.004,-1.749,-0.936,+3.036,+100080.03
387921,+17.510,+3.579,+6.881,-1.546,-0.681,+2.859,+100075.59
387931,+11.754,+0.558,+5.995,-1.125,-0.408,+2.805,+100075.59
387941,+1.581,-1.461,+4.999,-0.989,-0.346,+2.303,+100080.23
387951,+4.292,-1.422,+2.886,-0.882,-0.337,+1.365,+100081.77
387961,+9.431,+5.672,+2.216,-0.443,-0.211,+0.497,+100078.86
387971,+6.746,+8.792,+2.158,+0.163,-0.085,-0.408,+100076.47
387981,+3.891,+7.822,+1.517,+0.479,-0.060,-1.007,+100076.47
387991,+2.632,+6.140,+0.711,+0.635,-0.039,-1.475,+100081.88
388001,+2.104,+4.921,+0.615,+0.800,+0.094,-1.927,+100080.82
388012,+1.781,+4.071,+1.214,+0.927,+0.270,-2.306,+100075.12
388021,+1.450,+3.694,+2.000,+1.029,+0.416,-2.653,+100077.26
388031,+2.030,+3.727,+2.462,+1.106,+0.522,-3.034,+100077.26
388041,+3.448,+3.338,+2.272,+1.241,+0.604,-3.433,+100079.34
388051,+4.774,+2.270,+1.936,+1.379,+0.669,-3.877,+100077.36
388061,+5.359,+2.066,+1.489,+1.365,+0.719,-4.263,+100077.11
388071,+6.021,+2.362,+1.160,+1.264,+0.747,-4.692,+100077.02
388081,+6.825,+2.602,+1.083,+1.150,+0.766,-5.079,+100077.02
388091,+7.965,+2.493,+1.108,+1.024,+0.805,-5.416,+100076.83
388102,+9.544,+2.230,+1.159,+0.872,+0.863,-5.719,+100077.28
388111,+11.371,+2.087,+1.246,+0.766,+0.934,-5.998,+100072.70
388121,+13.344,+1.458,+1.319,+0.797,+1.046,-6.258,+100075.66
388131,+15.086,+0.461,+1.422,+0.941,+1.178,-6.461,+100075.66
388142,+16.628,-1.202,+1.179,+1.198,+1.287,-6.562,+100073.97
388151,+17.830,-3.416,+0.432,+1.395,+1.257,-6.545,+100078.39
388161,+19.491,-5.448,+0.434,+1.360,+1.125,-6.495,+100078.19
388171,+21.797,-6.958,+1.224,+1.258,+1.045,-6.342,+100075.84
388182,+24.224,-9.360,+2.588,+1.046,+0.966,-6.084,+100075.84
388192,+24.734,-12.352,+4.427,+0.755,+0.905,-5.717,+100081.13
388201,+22.697,-15.351,+5.764,+0.409,+0.932,-5.251,+100079.45
388211,+19.884,-18.310,+5.588,+0.050,+1.045,-4.655,+100077.00
388261,+13.539,-20.643,-3.716,-1.209,+0.425,-0.043,+100084.26
388272,+14.083,-17.857,-2.334,-0.678,+0.141,+0.940,+100081.66
388281,+17.050,-14.173,-1.954,-0.008,-0.045,+1.808,+100081.66
388291,+14.121,-14.662,-3.439,+0.567,-0.254,+2.590,+100083.97
388301,+14.488,+6.204,-2.767,+0.652,-0.282,+2.863,+100081.98
388312,+17.687,+29.159,-6.929,+0.641,-0.427,+1.983,+100081.17
388322,+13.813,+21.060,-8.503,+0.849,-0.495,+1.864,+100083.09
388331,+12.668,-2.323,-3.053,+1.548,-0.210,+2.692,+100083.09
388341,+17.536,-19.349,+2.625,+2.640,+0.009,+3.182,+100085.90
388352,+18.003,-14.060,+1.573,+2.433,+0.025,+3.161,+100085.49
388362,+10.783,-0.437,-1.006,+1.437,-0.016,+2.645,+100083.91
388372,+8.540,-0.139,+0.942,+1.652,+0.016,+2.328,+100081.68
388381,+10.494,-6.803,+2.921,+1.794,+0.078,+2.249,+100081.68
388391,+9.450,-5.819,+3.069,+1.093,+0.064,+2.074,+100085.72
388402,+9.345,-3.593,+2.527,+0.327,+0.045,+1.758,+100082.11
388412,+10.759,-2.315,+2.159,-0.327,-0.023,+1.513,+100081.30
388421,+10.527,-0.717,+2.284,-0.581,-0.061,+1.275,+100081.19
388431,+10.476,+0.221,+1.499,-0.501,-0.070,+1.090,+100081.19
388442,+10.366,+0.180,+1.187,-0.350,-0.063,+0.987,+100083.19
388452,+10.795,+0.486,+1.150,-0.261,-0.025,+0.919,+100082.78
388462,+10.856,+0.783,+1.082,-0.204,-0.017,+0.893,+100079.92
388471,+10.552,+0.489,+0.778,-0.076,-0.008,+0.890,+100081.20
388482,+10.370,-0.090,+0.960,+0.029,-0.012,+0.878,+100081.20
388492,+10.296,-0.485,+1.542,+0.024,-0.011,+0.843,+100085.90
388502,+10.223,-0.920,+2.299,-0.119,-0.010,+0.787,+100082.49
388511,+9.943,-1.044,+2.775,-0.367,-0.014,+0.713,+100082.85
388521,+9.774,-0.581,+2.619,-0.605,-0.008,+0.636,+100081.68
388532,+9.938,+0.135,+2.126,-0.716,+0.002,+0.588,+100081.68
388542,+10.178,+0.240,+1.715,-0.714,+0.014,+0.595,+100083.14
388552,+10.449,+0.441,+1.276,-0.672,+0.026,+0.622,+100084.92
388561,+10.745,+0.380,+1.235,-0.583,+0.034,+0.667,+100079.02
388572,+10.667,-0.234,+1.649,-0.533,+0.038,+0.718,+100080.34
388582,+10.484,-0.630,+1.900,-0.604,+0.045,+0.763,+100080.34
388592,+10.809,+0.038,+1.902,-0.707,+0.035,+0.775,+100081.93
388601,+10.731,+0.148,+2.313,-0.719,-0.014,+0.814,+100080.70
388612,+10.740,+0.016,+2.256,-0.734,-0.027,+0.859,+100080.29
388622,+11.064,-0.289,+1.636,-0.751,-0.046,+0.892,+100078.91
388632,+11.237,-0.556,+1.445,-0.761,-0.077,+0.947,+100078.91
388642,+11.049,-0.565,+1.357,-0.782,-0.096,+1.018,+100082.84
388652,+10.913,-0.550,+1.245,-0.799,-0.110,+1.084,+100082.08
388662,+10.788,-0.721,+1.262,-0.785,-0.143,+1.162,+100081.00
388672,+10.841,-0.847,+1.196,-0.755,-0.189,+1.253,+100080.70
388682,+11.317,-0.349,+1.427,-0.734,-0.253,+1.353,+100080.70
388691,+11.964,+0.110,+1.787,-0.698,-0.324,+1.478,+100083.72
388702,+12.469,+0.365,+1.520,-0.664,-0.388,+1.636,+100080.52
388712,+13.064,+0.847,+1.029,-0.615,-0.466,+1.811,+100082.80
388722,+13.418,+0.973,+1.078,-0.523,-0.554,+2.008,+100077.91
388731,+13.814,+0.640,+1.222,-0.423,-0.623,+2.213,+100077.91
388742,+14.138,+0.482,+1.448,-0.346,-0.689,+2.396,+100083.67
388752,+14.301,+0.372,+2.047,-0.331,-0.741,+2.563,+100083.27
388762,+14.600,+0.371,+1.907,-0.389,-0.747,+2.697,+100080.42
388772,+15.174,+0.231,+1.380,-0.513,-0.753,+2.814,+100082.20
388782,+16.225,+0.542,+0.822,-0.666,-0.780,+2.935,+100082.20
388792,+17.373,+1.902,+1.281,-0.872,-0.777,+3.012,+100079.65
388802,+18.460,+3.200,+2.162,-1.093,-0.739,+3.077,+100080.87
388812,+19.394,+4.609,+2.975,-1.414,-0.634,+3.126,+100081.99
388823,+19.999,+6.320,+4.487,-1.734,-0.531,+3.181,+100079.24
388832,+19.980,+7.003,+5.852,-1.924,-0.450,+3.252,+100079.24
388842,+18.413,+5.267,+6.769,-1.800,-0.385,+3.366,+100078.14
388852,+17.200,+4.817,+6.180,-1.508,-0.316,+3.407,+100079.11
388862,+17.692,+3.681,+4.101,-1.488,-0.407,+3.260,+100082.06
388872,+16.100,+1.707,+4.493,-1.776,-0.707,+3.061,+100077.02
388882,+15.111,+2.354,+6.388,-1.926,-0.718,+2.803,+100077.02
388892,+16.124,+2.708,+5.394,-1.735,-0.430,+2.728,+100078.55
388902,+7.591,-0.584,+4.748,-1.471,-0.248,+2.532,+100078.40
388913,-0.262,-2.148,+4.354,-1.497,-0.226,+1.881,+100079.46
388922,+6.177,-0.716,+3.088,-1.476,-0.139,+1.100,+100077.95
388932,+8.293,+5.894,+2.623,-0.968,-0.015,+0.309,+100077.95
388942,+5.298,+8.509,+1.963,-0.341,+0.072,-0.464,+100081.41
388953,+3.832,+7.874,+1.081,+0.037,+0.089,-0.980,+100082.48
388962,+3.487,+6.747,-0.138,+0.312,+0.068,-1.410,+100079.23
388972,+2.855,+5.682,-0.331,+0.662,+0.142,-1.816,+100078.57
388982,+2.213,+4.459,+0.373,+0.992,+0.291,-2.173,+100078.57
388993,+2.109,+3.494,+1.343,+1.275,+0.429,-2.518,+100077.35
389003,+3.027,+3.097,+1.932,+1.503,+0.521,-2.903,+100075.32
389012,+4.476,+2.831,+1.936,+1.667,+0.556,-3.334,+100076.99
389022,+5.246,+2.732,+1.615,+1.792,+0.576,-3.793,+100075.93
389032,+5.856,+2.573,+1.387,+1.842,+0.589,-4.231,+100075.93
389043,+6.524,+2.263,+1.314,+1.803,+0.578,-4.627,+100076.45
389052,+7.209,+2.119,+1.313,+1.690,+0.588,-4.984,+100074.88
389062,+8.274,+1.967,+1.372,+1.522,+0.625,-5.300,+100074.36
389072,+9.473,+1.818,+1.550,+1.354,+0.666,-5.561,+100075.13
389083,+11.073,+1.519,+1.653,+1.223,+0.710,-5.788,+100075.13
389093,+12.755,+0.927,+1.645,+1.186,+0.766,-5.999,+100076.59
389102,+14.514,+0.439,+1.629,+1.255,+0.859,-6.175,+100076.23
389112,+16.115,+0.198,+1.934,+1.461,+0.953,-6.318,+100078.58
389123,+17.861,-0.460,+2.152,+1.778,+1.031,-6.390,+100076.44
389133,+19.732,-3.274,+1.415,+1.944,+1.005,-6.347,+100076.44
389142,+20.600,-4.555,+1.556,+1.771,+0.830,-6.298,+100077.71
389152,+22.286,-5.132,+3.419,+1.535,+0.791,-6.177,+100077.55
389163,+23.047,-6.975,+5.787,+1.309,+0.865,-5.957,+100077.15
389173,+22.510,-9.726,+6.912,+1.032,+1.034,-5.630,+100074.76
389182,+21.387,-13.149,+6.018,+0.606,+1.208,-5.208,+100074.76
389192,+20.145,-16.542,+3.295,-0.039,+1.287,-4.647,+100081.98
389202,+18.900,-19.611,-0.123,-0.840,+1.223,-3.975,+100084.13
389213,+16.513,-21.677,-1.573,-1.454,+1.066,-3.190,+100078.73
389223,+14.377,-22.649,-1.996,-1.731,+0.843,-2.259,+100079.14
389232,+12.832,-21.662,-2.326,-1.763,+0.510,-1.183,+100079.14
389242,+12.482,-18.698,-2.108,-1.519,+0.208,-0.047,+100080.58
389253,+14.339,-15.229,-0.692,-1.002,+0.006,+1.015,+100083.53
389263,+16.336,-11.917,-0.946,-0.296,-0.101,+1.976,+100082.20
389273,+13.486,-12.518,-0.454,+0.323,-0.232,+2.832,+100079.75
389282,+16.407,+4.625,-0.455,+0.502,-0.206,+3.102,+100079.75
389293,+21.439,+23.805,-4.098,+0.403,-0.459,+2.380,+100085.35
389303,+16.263,+16.428,-6.869,+0.261,-0.563,+2.430,+100084.09
389313,+12.202,-4.535,-4.356,+0.936,-0.301,+3.222,+100083.21
389322,+16.987,-17.740,+0.035,+2.100,-0.149,+3.566,+100084.18
389332,+18.111,-13.560,-0.248,+1.953,-0.136,+3.363,+100084.18
389343,+11.880,-0.756,-2.028,+0.910,-0.145,+2.935,+100085.46
389353,+6.689,+2.456,+1.160,+1.122,-0.078,+2.553,+100081.84
389363,+8.261,-3.661,+3.190,+1.780,+0.076,+2.301,+100081.13
389372,+10.558,-6.858,+2.140,+1.403,+0.105,+2.194,+100078.43
389383,+9.451,-3.122,+2.347,+0.543,+0.135,+1.959,+100078.43
389393,+9.768,-2.111,+1.871,-0.188,+0.144,+1.696,+100084.73
389403,+11.120,-2.174,+0.673,-0.576,+0.129,+1.401,+100081.16
389412,+11.170,-0.549,+0.607,-0.635,+0.141,+1.146,+100081.37
389423,+10.810,-0.132,+1.441,-0.601,+0.149,+1.013,+100080.96
389433,+10.698,+0.037,+1.366,-0.605,+0.124,+0.929,+100080.96
389443,+10.901,-0.071,+1.359,-0.560,+0.111,+0.857,+100082.77
389453,+10.697,+0.170,+1.645,-0.458,+0.080,+0.803,+100078.86
389463,+10.664,+0.480,+2.209,-0.379,+0.056,+0.762,+100081.45
389473,+10.518,+0.142,+2.687,-0.335,+0.017,+0.722,+100079.52
389483,+10.312,-0.176,+2.696,-0.385,-0.022,+0.659,+100079.52
389493,+10.358,-0.982,+2.564,-0.527,-0.041,+0.591,+100083.05
389502,+10.301,-0.984,+2.402,-0.753,-0.050,+0.534,+100081.32
389513,+10.230,-0.000,+2.193,-0.915,-0.032,+0.495,+100080.35
389523,+10.408,+0.429,+1.922,-0.933,-0.022,+0.488,+100081.27
389533,+10.643,+0.672,+1.752,-0.869,-0.039,+0.505,+100081.27
389543,+10.751,+0.997,+1.541,-0.770,-0.052,+0.527,+100081.70
389553,+10.738,+0.510,+1.436,-0.675,-0.078,+0.596,+100081.29
389563,+10.607,+0.382,+1.647,-0.625,-0.098,+0.661,+100080.07
389573,+10.301,+0.288,+2.054,-0.591,-0.116,+0.723,+100080.74
389583,+9.996,+0.333,+2.570,-0.558,-0.125,+0.776,+100080.74
389593,+9.767,+0.255,+2.854,-0.525,-0.125,+0.818,+100083.50
389603,+9.789,-0.145,+2.891,-0.500,-0.125,+0.859,+100079.78
389613,+9.942,-0.435,+2.618,-0.496,-0.137,+0.901,+100081.36
389623,+10.132,-0.426,+2.187,-0.491,-0.152,+0.949,+100082.53
389634,+10.332,-0.355,+2.052,-0.471,-0.157,+1.004,+100082.53
389643,+10.516,-0.387,+1.596,-0.441,-0.163,+1.058,+100082.57
389653,+10.667,-0.945,+1.026,-0.401,-0.184,+1.119,+100082.98
389663,+10.639,-1.208,+0.558,-0.408,-0.211,+1.186,+100080.07
389673,+10.758,-1.044,+0.510,-0.426,-0.242,+1.264,+100081.45
389683,+10.971,-0.608,+0.885,-0.420,-0.287,+1.371,+100081.45
389693,+11.358,-0.088,+1.204,-0.399,-0.337,+1.506,+100083.70
389703,+11.793,+0.177,+1.060,-0.352,-0.394,+1.664,+100082.38
389713,+12.343,+0.269,+0.803,-0.285,-0.462,+1.832,+100080.03
389724,+13.003,+0.214,+0.780,-0.222,-0.532,+2.000,+100081.41
389733,+13.593,-0.054,+0.820,-0.178,-0.584,+2.166,+100081.41
389743,+14.018,-0.237,+0.831,-0.162,-0.625,+2.329,+100082.20
389753,+14.238,-0.009,+1.132,-0.196,-0.672,+2.482,+100082.61
389764,+14.438,+0.059,+1.472,-0.261,-0.721,+2.625,+100082.91
389773,+14.937,-0.049,+1.430,-0.370,-0.750,+2.740,+100080.72
389783,+15.889,+0.542,+1.240,-0.551,-0.786,+2.854,+100080.72
389793,+17.117,+1.601,+1.197,-0.714,-0.810,+2.945,+100083.96
389804,+18.432,+2.615,+1.430,-0.925,-0.823,+3.010,+100082.38
389814,+19.401,+3.724,+1.763,-1.245,-0.793,+3.061,+100082.49
389823,+20.189,+5.290,+2.638,-1.603,-0.737,+3.100,+100081.98
389873,+18.665,+4.330,+4.010,-1.266,-0.749,+3.363,+100075.02
389883,+15.956,+2.678,+6.196,-1.414,-0.974,+3.123,+100075.02
389894,+18.164,+3.004,+6.949,-1.294,-0.788,+2.946,+100078.19
389904,+12.511,+0.378,+6.598,-0.876,-0.531,+2.881,+100078.13
389913,+1.616,-2.531,+5.966,-0.885,-0.408,+2.401,+100078.03
389923,+4.016,-2.732,+4.442,-1.089,-0.338,+1.532,+100077.36
389934,+11.290,+4.385,+3.341,-0.875,-0.187,+0.671,+100077.36
389944,+7.229,+8.614,+3.045,-0.276,-0.112,-0.250,+100078.63
389954,+4.178,+7.643,+2.065,+0.004,-0.081,-0.870,+100078.12
389963,+3.438,+5.348,+1.007,+0.078,-0.076,-1.364,+100079.90
389974,+3.124,+4.321,+0.619,+0.162,+0.017,-1.783,+100079.65
389984,+2.449,+3.634,+1.179,+0.322,+0.152,-2.170,+100079.65
389994,+2.021,+3.319,+1.954,+0.547,+0.271,-2.521,+100079.23
390003,+2.466,+3.353,+2.534,+0.797,+0.370,-2.901,+100074.41
390013,+3.752,+3.487,+2.596,+1.072,+0.455,-3.323,+100077.05
390024,+4.700,+3.257,+2.311,+1.330,+0.532,-3.767,+100077.77
390034,+5.219,+2.699,+2.000,+1.477,+0.612,-4.206,+100077.77
390044,+5.793,+2.234,+1.926,+1.471,+0.666,-4.613,+100077.60
390053,+6.342,+1.688,+2.077,+1.366,+0.723,-4.992,+100076.99
390064,+7.427,+1.747,+2.068,+1.172,+0.800,-5.333,+100076.09
390074,+8.821,+2.012,+2.072,+0.973,+0.880,-5.637,+100072.01
390084,+10.303,+2.151,+2.037,+0.821,+0.958,-5.904,+100072.01
390093,+12.036,+1.545,+1.991,+0.742,+1.048,-6.140,+100076.20
390104,+13.668,+0.996,+1.677,+0.769,+1.168,-6.323,+100073.04
390114,+15.287,+1.054,+1.088,+1.000,+1.314,-6.432,+100078.27
390124,+16.795,+1.020,+1.112,+1.531,+1.433,-6.461,+100072.93
390133,+19.254,-1.450,+0.831,+2.156,+1.475,-6.412,+100072.93
390144,+21.451,-4.791,-0.017,+2.330,+1.307,-6.378,+100079.87
390154,+22.815,-6.842,+0.536,+2.251,+1.153,-6.220,+100077.07
390164,+24.227,-8.965,+2.327,+2.103,+1.078,-5.963,+100076.15
390174,+24.312,-11.401,+4.344,+1.888,+1.036,-5.617,+100077.79
390183,+22.210,-14.179,+5.419,+1.672,+1.078,-5.145,+100077.79
390194,+20.248,-17.693,+5.131,+1.371,+1.138,-4.554,+100077.44
390204,+19.041,-22.218,+2.618,+0.774,+1.123,-3.815,+100080.70
390214,+17.414,-26.055,-0.188,-0.130,+0.991,-2.972,+100080.44
390223,+14.723,-27.051,-1.194,-0.927,+0.775,-2.037,+100078.45
390234,+13.228,-25.240,-1.155,-1.350,+0.516,-0.968,+100078.45
390244,+13.223,-22.342,-0.645,-1.386,+0.227,+0.126,+100080.35
390254,+14.666,-19.179,+0.687,-1.127,+0.006,+1.124,+100083.21
390264,+17.476,-15.033,+0.996,-0.696,-0.107,+2.001,+100080.87
390274,+14.608,-13.635,-0.620,-0.275,-0.239,+2.823,+100079.34
390284,+16.677,+9.700,-3.635,-0.073,-0.324,+3.035,+100079.34
390294,+19.072,+29.444,-9.412,+0.250,-0.616,+2.263,+100082.63
390304,+13.557,+19.603,-9.858,+0.889,-0.530,+2.375,+100082.69
390313,+11.150,-3.938,-1.093,+1.927,-0.027,+3.035,+100082.98
390324,+16.868,-22.664,+3.099,+2.937,+0.268,+3.451,+100082.58
390334,+18.878,-16.521,+1.570,+2.263,+0.132,+3.255,+100082.58
390344,+10.764,+2.315,+2.777,+1.161,+0.119,+2.703,+100084.51
390354,+6.374,+3.007,+1.365,+1.547,+0.181,+2.298,+100084.04
390364,+8.513,-4.671,+3.055,+2.063,+0.298,+2.330,+100080.34
390374,+10.403,-7.001,+4.952,+1.617,+0.240,+2.099,+100080.99
390384,+9.889,-4.038,+2.648,+0.578,+0.144,+1.941,+100080.99
390394,+10.921,-2.955,+0.798,-0.284,+0.116,+1.729,+100084.89
390405,+11.567,-1.120,+0.549,-0.636,+0.079,+1.443,+100083.02
390414,+10.402,+0.513,+0.450,-0.549,+0.138,+1.261,+100084.34
390424,+10.858,-0.752,+0.590,-0.387,+0.166,+1.127,+100081.89
390434,+11.017,-0.528,+0.804,-0.353,+0.167,+1.031,+100081.89
390445,+10.816,-0.119,+0.764,-0.301,+0.161,+0.957,+100083.90
390454,+10.702,-0.303,+0.692,-0.189,+0.155,+0.892,+100080.79
390464,+10.604,-0.340,+1.408,-0.132,+0.138,+0.837,+100081.09
390474,+10.621,-0.517,+2.745,-0.197,+0.116,+0.772,+100078.65
390484,+10.360,-0.964,+3.592,-0.416,+0.089,+0.678,+100078.65
390495,+10.090,-1.240,+3.406,-0.707,+0.077,+0.567,+100083.28
390504,+10.184,-0.544,+2.805,-0.952,+0.103,+0.447,+100083.95
390514,+10.606,+0.012,+2.195,-1.043,+0.143,+0.376,+100079.97
390524,+10.886,+0.374,+1.236,-1.065,+0.158,+0.373,+100082.31
390535,+11.220,+0.667,+0.801,-0.991,+0.120,+0.401,+100082.31
390544,+11.109,+0.841,+1.112,-0.866,+0.087,+0.482,+100081.09
390554,+10.782,+0.462,+0.943,-0.764,+0.063,+0.563,+100080.77
390564,+10.610,+0.179,+1.203,-0.705,+0.056,+0.646,+100081.29
390575,+10.422,-0.011,+1.767,-0.681,+0.043,+0.732,+100081.09
390585,+10.241,-0.115,+2.322,-0.685,+0.034,+0.802,+100081.09
390594,+10.265,-0.011,+2.392,-0.692,+0.020,+0.857,+100082.66
390604,+10.241,-0.345,+2.253,-0.678,-0.006,+0.915,+100084.95
390615,+10.381,-0.642,+2.056,-0.688,-0.032,+0.984,+100080.88
390625,+10.706,-0.659,+1.890,-0.710,-0.066,+1.045,+100079.70
390634,+10.562,-0.884,+1.288,-0.739,-0.089,+1.121,+100079.70
390644,+10.749,-1.129,+0.716,-0.764,-0.114,+1.193,+100085.21
390654,+10.657,-0.962,+0.740,-0.750,-0.160,+1.279,+100081.54
390665,+10.628,-0.326,+1.169,-0.689,-0.205,+1.380,+100080.68
390674,+10.952,+0.368,+1.792,-0.595,-0.261,+1.504,+100080.57
390684,+11.411,+0.728,+2.108,-0.469,-0.319,+1.660,+100080.57
390694,+11.918,+0.807,+2.035,-0.358,-0.372,+1.834,+100080.28
390705,+12.591,+0.558,+1.588,-0.284,-0.418,+2.012,+100081.61
390715,+13.295,+0.218,+1.047,-0.245,-0.462,+2.184,+100079.83
390725,+13.718,-0.253,+0.440,-0.250,-0.518,+2.348,+100080.94
390734,+14.444,-0.200,+0.376,-0.303,-0.555,+2.467,+100080.94
390745,+14.488,+0.444,+0.633,-0.333,-0.588,+2.610,+100083.13
390755,+14.544,+0.262,+0.595,-0.402,-0.618,+2.740,+100083.95
390765,+15.033,+0.523,+0.091,-0.567,-0.616,+2.870,+100081.04
390774,+16.495,+1.406,-0.193,-0.760,-0.630,+2.958,+100080.84
390785,+18.057,+3.064,+0.747,-0.954,-0.654,+3.032,+100080.84
390795,+18.743,+4.315,+2.365,-1.165,-0.615,+3.088,+100083.54
390805,+19.162,+4.302,+3.604,-1.507,-0.526,+3.132,+100081.80
390814,+19.860,+4.950,+4.590,-1.934,-0.443,+3.190,+100080.84
390824,+20.094,+5.927,+6.079,-2.101,-0.358,+3.317,+100080.07
390835,+19.575,+7.239,+7.051,-1.819,-0.294,+3.490,+100080.07
390845,+19.300,+6.845,+5.615,-1.392,-0.259,+3.532,+100080.51
390854,+19.149,+4.299,+2.933,-1.270,-0.428,+3.518,+100079.49
390864,+16.351,+2.705,+4.442,-1.464,-0.772,+3.302,+100076.27
390875,+18.290,+3.998,+6.452,-1.587,-0.734,+3.004,+100078.05
390885,+15.432,+2.546,+5.315,-1.361,-0.576,+2.932,+100078.05
390895,+6.911,-1.847,+4.991,-1.169,-0.356,+2.738,+100078.62
390904,-1.286,-4.639,+5.248,-1.196,-0.314,+2.011,+100079.09
390915,+8.267,-1.000,+4.047,-1.171,-0.182,+1.003,+100079.49
390925,+9.090,+7.388,+3.036,-0.541,-0.209,-0.082,+100078.27
390935,+5.425,+9.421,+2.373,+0.034,-0.149,-0.849,+100078.27
390945,+4.161,+7.910,+1.878,+0.242,-0.096,-1.251,+100077.42
390955,+3.968,+6.209,+0.826,+0.304,-0.124,-1.725,+100078.23
390965,+3.267,+4.814,+0.499,+0.434,-0.087,-2.229,+100077.38
390975,+2.471,+3.683,+1.148,+0.582,+0.058,-2.578,+100075.39
390985,+2.162,+3.255,+2.203,+0.745,+0.197,-2.871,+100075.39
390994,+2.938,+3.516,+2.645,+0.939,+0.279,-3.240,+100079.57
391005,+4.572,+3.483,+2.327,+1.172,+0.343,-3.681,+100076.16
391015,+5.990,+3.146,+2.037,+1.365,+0.377,-4.160,+100073.87
391025,+6.248,+2.856,+1.760,+1.415,+0.427,-4.599,+100074.38
391034,+6.409,+2.363,+1.626,+1.347,+0.481,-4.973,+100074.38
391045,+6.981,+2.238,+1.536,+1.213,+0.558,-5.300,+100077.23
391055,+8.141,+2.253,+1.708,+1.055,+0.657,-5.594,+100073.30
391065,+9.668,+2.487,+1.564,+0.930,+0.746,-5.881,+100075.74
391075,+11.491,+2.453,+1.481,+0.961,+0.845,-6.144,+100073.71
391085,+13.419,+1.891,+1.416,+1.216,+0.983,-6.364,+100073.71
391095,+15.493,+1.329,+1.806,+1.689,+1.131,-6.530,+100078.82
391105,+18.092,-1.257,+1.537,+2.293,+1.223,-6.620,+100075.98
391115,+19.495,-5.105,+0.722,+2.580,+1.053,-6.654,+100076.23
391126,+21.184,-7.322,+0.612,+2.404,+0.845,-6.638,+100077.20
391135,+23.480,-8.569,+1.784,+2.121,+0.742,-6.484,+100077.20
391145,+25.298,-10.370,+3.998,+1.849,+0.663,-6.194,+100076.94
391155,+25.198,-13.008,+6.797,+1.577,+0.629,-5.788,+100080.95
391165,+22.181,-16.386,+8.405,+1.231,+0.673,-5.280,+100077.59
391175,+19.516,-21.164,+7.460,+0.607,+0.798,-4.654,+100078.52
391185,+17.921,-26.096,+4.181,-0.438,+0.867,-3.849,+100078.52
391195,+16.021,-27.870,+1.150,-1.625,+0.846,-2.952,+100082.84
391205,+14.249,-26.546,-0.665,-2.443,+0.715,-1.956,+100083.05
391215,+13.295,-23.284,-1.128,-2.623,+0.480,-0.821,+100083.61
391225,+14.734,-18.485,-0.246,-2.246,+0.232,+0.291,+100082.64
391235,+15.510,-15.563,-1.104,-1.422,+0.005,+1.314,+100082.64
391245,+14.539,-15.730,-1.447,-0.575,-0.139,+2.334,+100083.74
391256,+15.766,-5.645,-3.049,+0.048,-0.244,+3.015,+100081.15
391265,+21.274,+21.945,-8.993,+0.699,-0.575,+2.813,+100084.10
391275,+17.176,+25.636,-11.285,+1.438,-0.704,+2.253,+100081.60
391285,+11.404,+1.192,-4.366,+2.089,-0.217,+2.819,+100081.60
391296,+15.198,-20.449,-1.250,+2.841,+0.066,+3.297,+100082.74
391306,+17.911,-19.584,+0.815,+2.403,-0.022,+3.363,+100081.88
391315,+11.982,+0.441,+2.636,+1.184,+0.139,+2.799,+100082.09
391325,+6.354,+5.974,+2.590,+1.417,+0.151,+2.336,+100080.71
391335,+7.563,-3.595,+2.595,+2.068,+0.238,+2.317,+100080.71
391346,+11.041,-7.688,+4.220,+1.773,+0.241,+2.263,+100081.19
391355,+9.152,-3.897,+4.343,+0.688,+0.136,+1.992,+100078.23
391365,+10.141,-2.897,+1.578,-0.257,+0.084,+1.706,+100080.38
391375,+11.808,-2.478,-0.188,-0.621,+0.044,+1.438,+100079.67
391386,+11.065,-0.022,+0.262,-0.524,+0.083,+1.217,+100079.67
391396,+10.601,-0.361,+0.686,-0.352,+0.100,+1.098,+100081.41
391405,+10.786,-0.710,+0.612,-0.318,+0.104,+0.996,+100080.70
391415,+11.010,+0.040,+0.650,-0.284,+0.107,+0.918,+100081.51
391426,+10.743,+0.317,+1.005,-0.137,+0.092,+0.871,+100077.70
391436,+10.651,+0.129,+1.828,-0.060,+0.072,+0.835,+100077.70
391446,+10.610,-0.019,+2.848,-0.108,+0.034,+0.776,+100080.90
391455,+10.305,-0.557,+3.477,-0.246,-0.007,+0.705,+100079.99
391465,+9.887,-1.087,+3.003,-0.442,-0.027,+0.606,+100081.87
391476,+9.973,-0.625,+1.973,-0.661,+0.006,+0.511,+100080.04
391485,+10.730,+0.350,+1.222,-0.712,+0.058,+0.442,+100080.04
391495,+10.823,+0.303,+1.147,-0.616,+0.076,+0.440,+100083.06
391505,+10.769,+0.231,+1.327,-0.574,+0.079,+0.480,+100081.69
391516,+10.982,+0.137,+1.043,-0.545,+0.073,+0.501,+100081.84
391526,+10.903,+0.243,+1.096,-0.536,+0.076,+0.562,+100082.20
391535,+10.788,-0.116,+1.037,-0.543,+0.068,+0.614,+100082.20
391545,+10.600,+0.048,+1.512,-0.558,+0.069,+0.679,+100084.11
391556,+10.423,-0.064,+1.791,-0.566,+0.061,+0.749,+100081.77
391566,+10.417,-0.280,+1.954,-0.576,+0.047,+0.821,+100080.50
391576,+10.569,-0.256,+2.092,-0.589,+0.026,+0.895,+100082.83
391585,+10.637,-0.284,+2.041,-0.606,+0.002,+0.971,+100082.83
391596,+10.767,-0.667,+1.875,-0.633,-0.025,+1.046,+100083.03
391606,+10.866,-0.811,+1.587,-0.673,-0.061,+1.125,+100082.28
391616,+10.956,-0.869,+1.695,-0.719,-0.102,+1.208,+100082.48
391625,+10.932,-0.571,+2.085,-0.759,-0.149,+1.310,+100079.02
391635,+11.119,+0.105,+2.288,-0.782,-0.196,+1.437,+100079.02
391646,+11.505,+0.811,+1.942,-0.761,-0.251,+1.592,+100082.04
391656,+11.870,+1.018,+1.187,-0.686,-0.327,+1.779,+100081.02
391666,+12.435,+0.949,+0.439,-0.559,-0.412,+1.990,+100080.71
391675,+13.084,+0.694,+0.075,-0.432,-0.493,+2.208,+100078.57
391686,+13.797,+0.385,+0.066,-0.338,-0.550,+2.415,+100078.57
391696,+14.328,+0.450,+0.530,-0.280,-0.603,+2.602,+100084.22
391706,+14.522,+0.574,+1.150,-0.267,-0.643,+2.763,+100082.50
391715,+14.488,+0.667,+1.299,-0.307,-0.655,+2.902,+100078.88
391726,+15.258,+0.989,+1.047,-0.385,-0.661,+3.030,+100080.00
391736,+16.761,+1.519,+1.088,-0.479,-0.693,+3.149,+100080.00
391746,+18.067,+2.427,+1.924,-0.634,-0.713,+3.242,+100082.43
391756,+18.685,+3.378,+2.715,-0.998,-0.659,+3.306,+100082.43
391766,+19.648,+3.604,+3.104,-1.485,-0.593,+3.341,+100081.76
391776,+20.676,+4.648,+3.898,-2.013,-0.501,+3.374,+100079.68
391786,+21.396,+5.881,+6.392,-2.394,-0.422,+3.449,+100079.68
391796,+20.547,+7.124,+7.224,-2.350,-0.344,+3.539,+100082.56
391805,+19.462,+6.842,+5.588,-2.024,-0.378,+3.543,+100081.03
391816,+19.388,+5.451,+4.889,-1.962,-0.612,+3.430,+100078.08
391826,+16.167,+3.486,+6.146,-2.012,-0.815,+3.240,+100079.09
391836,+16.419,+3.754,+6.471,-1.930,-0.656,+2.978,+100079.09
391846,+14.244,+2.844,+5.904,-1.602,-0.398,+2.867,+100077.68
391856,+4.673,+0.279,+4.068,-1.347,-0.343,+2.390,+100078.80
391866,+4.155,-1.983,+2.617,-1.190,-0.329,+1.548,+100078.55
391876,+9.458,+4.216,+2.410,-0.575,-0.220,+0.759,+100077.07
391886,+6.312,+8.296,+2.129,+0.287,-0.088,-0.266,+100077.07
391897,+4.396,+7.952,+1.633,+0.728,+0.039,-0.946,+100078.62
391906,+4.027,+6.557,+1.078,+0.888,+0.100,-1.396,+100077.80
391916,+3.539,+5.266,+0.732,+1.034,+0.204,-1.805,+100075.66
391926,+2.918,+4.065,+0.838,+1.158,+0.331,-2.170,+100080.45
391936,+2.455,+3.494,+1.254,+1.275,+0.442,-2.496,+100080.45
391946,+2.768,+3.046,+1.664,+1.378,+0.530,-2.866,+100077.52
391956,+3.747,+2.827,+1.640,+1.454,+0.573,-3.288,+100077.82
391966,+4.624,+2.614,+1.306,+1.518,+0.604,-3.733,+100078.34
391976,+5.790,+2.244,+0.901,+1.516,+0.619,-4.184,+100075.95
391986,+6.312,+2.273,+0.486,+1.386,+0.598,-4.611,+100075.95
391996,+6.639,+2.321,+0.245,+1.188,+0.603,-4.982,+100077.53
392006,+7.206,+2.338,+0.318,+1.008,+0.639,-5.318,+100077.33
392016,+8.560,+2.153,+0.390,+0.834,+0.693,-5.627,+100073.30
392027,+10.338,+2.153,+0.317,+0.701,+0.731,-5.910,+100076.66
392036,+12.067,+2.040,+0.239,+0.715,+0.796,-6.166,+100076.66
392046,+13.971,+1.730,+0.177,+0.906,+0.888,-6.385,+100076.73
392056,+15.872,+0.973,+0.425,+1.307,+0.961,-6.544,+100076.57
392067,+17.760,-1.370,+0.400,+1.758,+0.962,-6.618,+100075.91
392077,+19.535,-4.215,-0.097,+1.859,+0.800,-6.673,+100076.57
392086,+20.997,-5.927,+0.410,+1.761,+0.648,-6.621,+100076.57
392096,+22.865,-7.377,+2.013,+1.625,+0.585,-6.438,+100080.22
392107,+24.530,-9.326,+4.645,+1.490,+0.583,-6.171,+100079.45
392117,+23.998,-11.611,+6.771,+1.332,+0.627,-5.733,+100080.02
392126,+22.798,-15.679,+7.299,+1.084,+0.774,-5.291,+100079.70
392136,+20.600,-20.793,+5.562,+0.540,+0.923,-4.672,+100079.70
392146,+18.778,-25.363,+2.048,-0.351,+0.971,-3.895,+100082.70
392157,+16.411,-27.316,-0.649,-1.257,+0.864,-3.025,+100081.84
392166,+14.284,-26.908,-1.706,-1.772,+0.664,-1.965,+100082.14
392176,+13.376,-24.583,-1.637,-1.821,+0.393,-0.764,+100080.98
392186,+12.869,-20.821,-1.049,-1.458,+0.113,+0.408,+100080.98
392197,+14.996,-16.938,+0.568,-0.755,-0.076,+1.475,+100082.84
392207,+16.892,-15.527,-0.416,+0.101,-0.177,+2.388,+100081.38
392216,+11.907,-7.651,+1.609,+0.524,-0.208,+3.129,+100079.69
392226,+17.916,+21.599,-0.383,+0.344,+0.006,+2.464,+100078.52
392237,+16.158,+26.713,-7.227,-0.141,-0.282,+1.587,+100078.52
392247,+12.209,+8.660,-8.502,+0.076,-0.328,+2.266,+100083.85
392256,+13.494,-9.518,-1.020,+1.233,-0.058,+3.006,+100082.74
392266,+19.664,-17.476,+3.926,+2.226,+0.201,+3.153,+100082.52
392276,+17.889,-9.945,-0.267,+1.598,+0.099,+2.891,+100080.70
392287,+10.302,-0.256,-1.647,+0.974,+0.039,+2.551,+100080.70
392297,+8.705,-0.991,+0.870,+1.299,+0.172,+2.359,+100084.42
392306,+9.750,-4.301,+1.433,+1.195,+0.188,+2.202,+100083.31
392316,+9.507,-4.602,+1.633,+0.629,+0.228,+2.006,+100082.34
392327,+10.163,-3.350,+2.001,+0.065,+0.266,+1.750,+100082.84
392337,+10.712,-1.542,+2.307,-0.395,+0.191,+1.480,+100082.84
392346,+10.530,-0.167,+2.424,-0.524,+0.168,+1.246,+100081.88
392356,+10.809,-0.577,+1.774,-0.519,+0.128,+1.081,+100079.83
392367,+10.818,+0.094,+1.111,-0.557,+0.085,+0.964,+100079.83
392377,+11.017,+0.428,+0.900,-0.490,+0.084,+0.897,+100079.53
392386,+10.882,+0.506,+1.282,-0.380,+0.061,+0.867,+100079.53
392396,+10.864,+1.147,+1.815,-0.327,+0.053,+0.852,+100082.26
392407,+10.727,+0.832,+2.198,-0.266,+0.021,+0.843,+100081.04
392417,+10.446,-0.013,+2.299,-0.288,-0.008,+0.813,+100081.24
392427,+10.380,-0.608,+2.329,-0.436,-0.028,+0.763,+100080.68
392437,+10.210,-0.586,+2.364,-0.694,-0.017,+0.723,+100080.68
392446,+10.265,+0.088,+2.359,-0.844,-0.009,+0.717,+100083.31
392457,+10.362,+0.663,+2.241,-0.864,-0.017,+0.722,+100082.45
392467,+10.337,+0.732,+2.244,-0.815,-0.037,+0.749,+100081.53
392477,+10.629,+1.249,+2.352,-0.774,-0.039,+0.772,+100080.88
392486,+10.475,+0.526,+2.146,-0.688,-0.063,+0.813,+100080.88
392497,+10.403,+0.129,+2.067,-0.677,-0.063,+0.849,+100082.04
392507,+10.324,+0.251,+1.904,-0.673,-0.072,+0.871,+100080.10
392517,+10.205,-0.188,+2.005,-0.624,-0.078,+0.897,+100082.34
392527,+10.121,-0.503,+1.884,-0.591,-0.081,+0.915,+100081.79
392537,+10.097,-0.681,+1.925,-0.587,-0.081,+0.936,+100081.79
392547,+10.135,-0.416,+1.750,-0.562,-0.070,+0.958,+100085.91
392557,+10.197,-0.701,+1.538,-0.498,-0.072,+0.992,+100085.19
392567,+10.563,-0.659,+1.426,-0.455,-0.090,+1.029,+100083.52
392577,+10.663,-0.460,+1.427,-0.400,-0.110,+1.079,+100077.97
392587,+10.607,-0.818,+1.363,-0.365,-0.122,+1.145,+100077.97
392597,+10.688,-1.106,+1.132,-0.380,-0.152,+1.221,+100083.41
392607,+10.955,-0.782,+1.113,-0.424,-0.202,+1.311,+100080.81
392616,+11.332,-0.261,+1.341,-0.446,-0.246,+1.427,+100080.16
392627,+11.840,+0.079,+1.342,-0.417,-0.295,+1.569,+100078.94
392637,+12.250,+0.191,+1.099,-0.367,-0.346,+1.735,+100078.94
392647,+12.628,+0.447,+0.905,-0.303,-0.404,+1.914,+100082.79
392657,+13.009,+0.510,+0.800,-0.226,-0.461,+2.106,+100083.24
392667,+13.556,+0.318,+0.896,-0.150,-0.519,+2.299,+100080.65
392677,+13.890,+0.124,+1.201,-0.126,-0.576,+2.475,+100078.76
392687,+14.163,-0.107,+1.693,-0.193,-0.607,+2.619,+100078.76
392697,+14.366,-0.332,+1.624,-0.346,-0.620,+2.766,+100083.62
392707,+15.025,-0.077,+1.078,-0.572,-0.633,+2.891,+100081.63
392717,+16.553,+1.173,+0.856,-0.783,-0.654,+3.010,+100079.13
392727,+18.448,+2.896,+1.803,-0.964,-0.675,+3.094,+100080.87
392737,+18.960,+3.474,+2.683,-1.210,-0.633,+3.151,+100080.87
392748,+19.200,+3.428,+2.958,-1.623,-0.521,+3.207,+100081.09
392758,+20.317,+5.611,+4.685,-2.112,-0.389,+3.278,+100079.47
392767,+20.821,+6.535,+6.070,-2.236,-0.318,+3.380,+100078.59
392777,+20.193,+6.961,+7.217,-1.939,-0.297,+3.563,+100080.13
392787,+19.726,+6.895,+5.499,-1.592,-0.312,+3.540,+100080.13
392798,+19.364,+4.320,+4.544,-1.712,-0.601,+3.390,+100081.57
392807,+16.769,+2.712,+6.076,-1.924,-0.866,+3.219,+100077.87
392817,+18.012,+4.101,+6.256,-1.803,-0.749,+3.007,+100079.29
392827,+14.947,+3.004,+5.102,-1.286,-0.575,+2.919,+100076.79
392838,+4.720,-0.228,+4.446,-0.958,-0.479,+2.521,+100076.79
392847,+2.413,-1.342,+3.123,-0.799,-0.467,+1.716,+100080.56
392857,+9.662,+3.083,+2.765,-0.205,-0.365,+0.949,+100079.80
392867,+7.180,+7.819,+2.519,+0.718,-0.278,-0.057,+100075.63
392878,+4.379,+7.600,+2.054,+1.250,-0.187,-0.782,+100074.45
392887,+3.892,+6.124,+1.368,+1.350,-0.156,-1.257,+100074.45
392897,+3.614,+5.122,+0.814,+1.353,-0.136,-1.722,+100077.93
392907,+2.869,+4.065,+1.083,+1.367,-0.053,-2.139,+100078.40
392918,+2.143,+3.346,+1.646,+1.375,+0.061,-2.475,+100077.07
392928,+2.255,+3.100,+1.988,+1.379,+0.151,-2.829,+100074.57
392937,+3.126,+2.844,+1.867,+1.399,+0.191,-3.234,+100074.57
392947,+4.225,+2.224,+1.386,+1.421,+0.227,-3.655,+100076.36
392957,+5.575,+1.350,+0.993,+1.382,+0.238,-4.103,+100078.50
392968,+5.995,+1.624,+0.761,+1.202,+0.243,-4.554,+100079.20
392977,+6.298,+2.366,+0.688,+0.994,+0.275,-4.947,+100075.28
392987,+6.934,+2.856,+0.534,+0.831,+0.336,-5.287,+100075.28
392997,+8.267,+2.878,+0.663,+0.691,+0.420,-5.592,+100079.22
393008,+9.748,+2.771,+0.697,+0.580,+0.499,-5.857,+100077.34
393018,+11.424,+2.599,+0.604,+0.535,+0.568,-6.098,+100076.33
393027,+13.018,+2.189,+0.620,+0.675,+0.675,-6.319,+100076.06
393037,+14.763,+1.883,+1.020,+1.018,+0.812,-6.516,+100076.06
393048,+16.914,+0.981,+1.643,+1.595,+0.923,-6.649,+100075.61
393058,+19.355,-3.108,+1.270,+2.090,+0.905,-6.696,+100079.53
393068,+20.560,-6.507,+0.859,+2.050,+0.697,-6.725,+100076.63
393077,+22.464,-7.655,+1.699,+1.785,+0.616,-6.631,+100076.83
393088,+24.519,-9.053,+3.553,+1.526,+0.618,-6.418,+100076.83
393098,+25.687,-11.731,+6.046,+1.311,+0.633,-6.084,+100077.69
393108,+24.663,-15.196,+7.903,+1.023,+0.695,-5.637,+100081.31
393117,+21.629,-19.568,+7.408,+0.474,+0.787,-5.065,+100077.89
393127,+19.239,-24.470,+4.575,-0.477,+0.822,-4.314,+100078.66
393138,+16.891,-27.494,+1.600,-1.593,+0.801,-3.372,+100078.66
393148,+14.629,-27.580,-0.366,-2.455,+0.699,-2.310,+100081.80
393158,+13.062,-24.674,-1.541,-2.680,+0.494,-1.115,+100080.77
393167,+12.735,-20.483,-1.854,-2.164,+0.241,+0.118,+100082.14
393178,+16.216,-15.855,-1.066,-1.212,+0.023,+1.302,+100080.22
393188,+15.961,-15.656,-2.651,-0.082,-0.193,+2.423,+100080.22
393198,+13.114,-5.809,+0.287,+0.581,-0.225,+3.254,+100085.74
393207,+18.966,+23.601,-1.616,+0.693,-0.161,+2.659,+100081.62
393218,+17.193,+26.912,-6.169,+0.651,-0.352,+1.904,+100081.71
393228,+11.710,+6.620,-5.792,+0.988,-0.269,+2.609,+100080.80
393238,+14.099,-15.007,-0.401,+2.152,+0.022,+3.277,+100080.80
393248,+20.792,-24.094,+0.846,+2.546,+0.001,+3.478,+100082.24
393257,+17.011,-7.730,-0.524,+1.259,-0.078,+3.102,+100084.34
393268,+8.522,+4.988,+0.522,+0.884,+0.058,+2.528,+100081.59
393278,+6.278,-1.777,+1.396,+1.562,+0.135,+2.353,+100079.40
393288,+9.857,-7.409,+2.012,+1.481,+0.197,+2.244,+100079.40
393297,+10.087,-3.710,+2.542,+0.788,+0.266,+1.991,+100082.08
393308,+9.886,-1.895,+1.378,+0.072,+0.250,+1.798,+100081.63
393318,+10.968,-1.809,+1.013,-0.382,+0.197,+1.586,+100080.20
393328,+11.014,-0.413,+1.901,-0.454,+0.183,+1.362,+100080.05
393337,+10.367,+0.169,+2.492,-0.426,+0.128,+1.183,+100080.05
393348,+10.716,+0.095,+1.792,-0.413,+0.079,+1.079,+100083.08
393358,+11.066,+0.526,+1.253,-0.383,+0.053,+1.022,+100082.72
393368,+10.622,+0.872,+1.090,-0.336,+0.055,+1.014,+100081.34
393378,+10.573,+0.609,+1.082,-0.262,+0.071,+1.020,+100077.98
393388,+10.531,+0.390,+1.393,-0.233,+0.070,+1.025,+100077.98
393398,+10.551,-0.218,+2.013,-0.261,+0.056,+1.012,+100081.98
393408,+10.319,-0.793,+2.577,-0.401,+0.033,+0.962,+100081.42
393418,+10.125,-0.768,+2.674,-0.597,+0.026,+0.864,+100079.59
393427,+10.042,-0.924,+2.414,-0.783,+0.037,+0.770,+100079.95
393438,+10.196,-0.499,+2.012,-0.912,+0.048,+0.712,+100079.95
393448,+10.330,-0.013,+1.734,-0.897,+0.043,+0.684,+100081.80
393458,+10.360,+0.070,+1.851,-0.815,+0.036,+0.690,+100081.80
393468,+10.753,+0.225,+1.366,-0.705,+0.036,+0.662,+100080.31
393478,+10.855,-0.300,+1.517,-0.626,+0.022,+0.689,+100082.14
393488,+10.937,-0.308,+1.154,-0.639,+0.009,+0.700,+100082.14
393498,+10.889,-0.207,+1.459,-0.657,+0.004,+0.735,+100083.36
393508,+10.864,+0.027,+1.713,-0.665,-0.003,+0.783,+100082.39
393518,+10.660,+0.188,+2.118,-0.647,-0.017,+0.851,+100079.95
393528,+10.569,+0.006,+2.356,-0.621,-0.032,+0.920,+100081.67
393538,+10.964,-0.294,+2.214,-0.621,-0.048,+0.985,+100081.67
393548,+11.120,-0.774,+2.025,-0.642,-0.086,+1.053,+100083.63
393559,+10.709,-1.033,+1.637,-0.699,-0.109,+1.141,+100082.10
393568,+10.709,-0.898,+1.282,-0.766,-0.126,+1.221,+100079.91
393578,+10.739,-0.408,+1.126,-0.753,-0.169,+1.326,+100079.87
393588,+11.083,+0.025,+1.398,-0.673,-0.217,+1.451,+100079.87
393598,+11.661,+0.191,+1.645,-0.594,-0.268,+1.600,+100084.68
393609,+12.305,+0.390,+1.623,-0.527,-0.326,+1.770,+100081.77
393618,+12.918,+0.470,+1.432,-0.489,-0.385,+1.954,+100081.27
393628,+13.554,+0.608,+1.122,-0.467,-0.445,+2.145,+100080.76
393638,+14.057,+0.542,+0.680,-0.422,-0.509,+2.338,+100080.76
393649,+14.371,+0.335,+0.448,-0.390,-0.573,+2.523,+100083.85
393658,+14.863,+0.608,+0.589,-0.400,-0.630,+2.691,+100081.57
393668,+15.292,+0.543,+0.766,-0.457,-0.669,+2.848,+100080.70
393678,+15.900,+0.724,+0.491,-0.601,-0.692,+2.985,+100080.40
393689,+17.407,+2.102,+0.270,-0.786,-0.690,+3.106,+100080.40
393699,+19.081,+3.695,+1.314,-0.963,-0.710,+3.177,+100082.38
393708,+19.696,+4.552,+2.321,-1.216,-0.662,+3.226,+100082.08
393718,+20.376,+4.950,+3.597,-1.604,-0.566,+3.260,+100080.30
393729,+21.131,+6.518,+5.680,-2.011,-0.449,+3.321,+100082.48
393739,+20.221,+6.328,+7.133,-2.081,-0.346,+3.449,+100082.48
393748,+18.774,+6.629,+6.999,-1.711,-0.264,+3.544,+100081.70
393758,+18.951,+5.572,+4.649,-1.546,-0.321,+3.443,+100081.19
393768,+17.771,+3.279,+4.482,-1.810,-0.649,+3.272,+100078.59
393779,+15.057,+2.745,+7.081,-1.992,-0.748,+3.052,+100078.34
393788,+17.248,+3.777,+6.810,-1.876,-0.412,+2.921,+100078.34
393798,+11.358,+1.785,+5.751,-1.569,-0.178,+2.791,+100080.84
393808,+1.179,-2.041,+4.997,-1.543,-0.086,+2.320,+100080.44
393819,+3.309,-5.782,+3.161,-1.658,-0.039,+1.494,+100079.11
393829,+9.737,+2.393,+2.669,-1.363,-0.022,+0.541,+100077.94
393838,+6.324,+8.936,+2.176,-0.514,-0.076,-0.509,+100077.94
393848,+4.746,+9.452,+1.509,+0.142,-0.025,-1.060,+100079.58
393859,+4.226,+8.174,+1.034,+0.492,-0.007,-1.400,+100077.84
393869,+3.875,+7.010,+0.121,+0.758,-0.001,-1.868,+100076.78
393879,+2.908,+5.469,+0.053,+1.082,+0.099,-2.309,+100077.39
393888,+1.981,+3.905,+0.822,+1.356,+0.259,-2.585,+100077.39
393899,+2.072,+2.934,+1.952,+1.576,+0.402,-2.852,+100080.20
393909,+3.237,+2.751,+2.466,+1.751,+0.477,-3.220,+100078.51
393919,+4.465,+2.621,+2.295,+1.874,+0.520,-3.660,+100075.40
393928,+5.821,+1.923,+2.083,+1.892,+0.542,-4.122,+100077.59
393938,+6.301,+1.728,+1.841,+1.763,+0.536,-4.559,+100077.59
393949,+6.584,+1.823,+1.621,+1.590,+0.540,-4.939,+100078.60
393959,+7.137,+1.943,+1.574,+1.438,+0.572,-5.281,+100080.04
393969,+8.417,+2.012,+1.507,+1.283,+0.624,-5.599,+100079.88
393978,+10.078,+1.692,+1.494,+1.107,+0.672,-5.891,+100075.80
393989,+12.174,+1.578,+1.394,+0.948,+0.712,-6.154,+100075.80
393999,+13.937,+1.381,+1.404,+0.971,+0.800,-6.374,+100077.57
394009,+15.748,+1.028,+1.761,+1.242,+0.940,-6.544,+100077.41
394018,+17.608,+0.021,+2.380,+1.773,+1.064,-6.661,+100075.73
394029,+19.918,-4.122,+1.515,+2.168,+1.065,-6.654,+100076.45
394039,+20.868,-6.851,+0.699,+2.007,+0.799,-6.628,+100076.45
394049,+22.452,-7.963,+1.831,+1.626,+0.682,-6.459,+100082.46
394058,+24.403,-9.517,+4.313,+1.267,+0.714,-6.180,+100077.93
394068,+24.440,-11.514,+6.256,+0.933,+0.768,-5.741,+100078.65
394079,+22.357,-14.990,+6.796,+0.567,+0.883,-5.279,+100077.43
394089,+20.251,-19.921,+4.675,-0.011,+1.003,-4.689,+100077.43
394099,+18.053,-24.080,+1.517,-0.814,+1.025,-3.870,+100080.74
394108,+15.641,-26.111,-0.952,-1.569,+0.924,-2.964,+100082.16
394119,+13.990,-25.823,-2.366,-2.004,+0.722,-1.891,+100083.18
394129,+13.409,-23.285,-2.662,-1.965,+0.451,-0.717,+100081.71
394139,+15.731,-18.032,-1.188,-1.451,+0.192,+0.427,+100081.71
394149,+15.676,-15.991,-1.696,-0.451,-0.046,+1.532,+100084.94
394159,+13.606,-17.468,+0.268,+0.492,-0.151,+2.609,+100083.92
394169,+16.278,-0.016,+0.712,+0.744,-0.083,+3.069,+100080.91
394179,+24.026,+29.840,-5.716,+0.484,-0.328,+2.272,+100079.95
394189,+16.456,+16.827,-8.515,+0.322,-0.483,+2.321,+100079.95
394199,+12.356,-9.892,-4.304,+1.265,-0.143,+3.247,+100084.52
394209,+18.991,-20.681,+1.278,+2.428,+0.012,+3.621,+100082.42
394219,+18.587,-10.279,-1.075,+1.816,-0.047,+3.301,+100083.91
394229,+9.420,+2.043,-1.882,+0.797,-0.072,+2.865,+100081.36
394240,+6.355,+0.201,+2.159,+1.314,+0.090,+2.546,+100081.36
394249,+9.810,-6.368,+3.118,+1.591,+0.149,+2.386,+100082.75
394259,+9.652,-4.852,+3.166,+0.968,+0.069,+2.179,+100079.89
394269,+9.343,-1.758,+2.454,+0.242,+0.088,+1.902,+100080.09
394279,+10.788,-1.655,+1.751,-0.257,+0.013,+1.653,+100078.22
394289,+10.721,+0.019,+1.276,-0.390,+0.017,+1.412,+100078.22
394299,+10.393,+0.018,+1.684,-0.282,+0.060,+1.247,+100083.48
394309,+10.968,-0.513,+1.306,-0.239,+0.041,+1.142,+100083.48
394319,+10.958,-0.159,+0.829,-0.278,+0.040,+1.064,+100082.40
394330,+10.812,-0.323,+0.786,-0.264,+0.050,+1.015,+100080.32
394339,+10.677,-0.107,+1.088,-0.245,+0.053,+0.966,+100080.32
394349,+10.481,+0.012,+1.900,-0.238,+0.028,+0.918,+100082.85
394359,+10.398,-0.374,+2.680,-0.319,+0.003,+0.847,+100080.91
394370,+10.233,-1.053,+2.631,-0.490,+0.001,+0.757,+100082.34
394379,+10.045,-1.257,+2.237,-0.715,+0.006,+0.675,+100081.88
394389,+10.303,-0.382,+2.066,-0.873,+0.035,+0.591,+100081.88
394399,+10.610,+0.453,+2.405,-0.893,+0.056,+0.547,+100082.38
394409,+10.809,+0.672,+2.167,-0.813,+0.048,+0.498,+100083.19
394420,+10.683,+0.129,+2.005,-0.749,+0.015,+0.511,+100079.98
394429,+10.677,+0.269,+1.608,-0.729,+0.003,+0.533,+100081.31
394439,+10.586,+0.301,+1.799,-0.695,+0.002,+0.582,+100081.31
394449,+10.446,-0.010,+1.824,-0.666,+0.001,+0.632,+100082.63
394460,+10.335,-0.102,+1.823,-0.651,-0.006,+0.690,+100080.85
394469,+10.281,-0.054,+1.813,-0.622,-0.016,+0.760,+100082.18
394479,+10.354,-0.128,+2.078,-0.585,-0.030,+0.831,+100079.88
394489,+10.412,-0.238,+2.082,-0.576,-0.040,+0.889,+100079.88
394500,+10.823,-0.392,+1.813,-0.590,-0.055,+0.943,+100083.34
394510,+11.086,-0.680,+1.648,-0.616,-0.086,+0.993,+100080.95
394519,+10.799,-0.775,+1.280,-0.659,-0.105,+1.059,+100079.01
394529,+10.680,-0.873,+1.064,-0.694,-0.123,+1.126,+100079.77
394540,+10.406,-0.917,+0.947,-0.691,-0.162,+1.223,+100079.77
394550,+10.531,-0.418,+1.003,-0.642,-0.214,+1.345,+100082.16
394559,+10.934,+0.300,+1.199,-0.563,-0.285,+1.497,+100080.98
394569,+11.529,+0.808,+1.222,-0.443,-0.355,+1.675,+100084.14
394579,+12.166,+0.783,+1.171,-0.318,-0.428,+1.872,+100078.34
394590,+12.951,+0.647,+1.051,-0.220,-0.491,+2.072,+100078.34
394600,+13.641,+0.401,+1.059,-0.159,-0.548,+2.254,+100080.94
394609,+14.158,+0.214,+1.235,-0.135,-0.608,+2.423,+100082.06
394619,+14.533,+0.312,+1.775,-0.153,-0.655,+2.576,+100079.25
394630,+14.636,+0.336,+2.210,-0.237,-0.678,+2.717,+100080.73
394640,+14.779,+0.333,+2.027,-0.399,-0.677,+2.845,+100080.73
394650,+15.712,+0.798,+1.420,-0.602,-0.678,+2.953,+100085.05
394659,+17.055,+1.402,+1.160,-0.821,-0.698,+3.043,+100080.84
394670,+18.811,+2.339,+1.707,-1.109,-0.683,+3.104,+100080.07
394680,+19.546,+2.617,+2.065,-1.594,-0.644,+3.117,+100079.10
394689,+20.120,+3.980,+2.639,-2.283,-0.535,+3.142,+100079.10
394699,+20.314,+6.361,+4.393,-2.862,-0.450,+3.219,+100082.13
394710,+19.544,+7.806,+6.153,-2.860,-0.375,+3.374,+100079.73
394720,+19.061,+8.250,+6.404,-2.302,-0.332,+3.512,+100080.61
394730,+19.467,+6.858,+4.816,-1.874,-0.436,+3.497,+100075.72
394739,+17.449,+4.044,+5.366,-1.862,-0.736,+3.353,+100075.72
394749,+15.462,+3.317,+7.145,-1.788,-0.781,+3.120,+100081.23
394760,+16.744,+3.684,+6.892,-1.464,-0.512,+2.981,+100080.42
394770,+10.297,+0.790,+5.861,-0.991,-0.353,+2.747,+100079.25
394780,+1.049,-2.567,+4.341,-0.955,-0.329,+2.232,+100076.86
394790,+6.403,-2.760,+2.153,-0.981,-0.316,+1.287,+100076.86
394800,+9.805,+5.855,+1.979,-0.407,-0.261,+0.413,+100081.69
394810,+6.003,+9.745,+1.794,+0.513,-0.219,-0.532,+100078.94
394820,+4.040,+8.431,+1.512,+1.058,-0.206,-1.096,+100077.77
394829,+3.245,+6.426,+0.778,+1.275,-0.180,-1.552,+100076.59
394840,+2.617,+4.751,+0.528,+1.424,-0.070,-2.003,+100076.59
394850,+2.101,+3.318,+1.083,+1.506,+0.079,-2.392,+100076.60
394860,+1.764,+2.497,+1.932,+1.526,+0.215,-2.724,+100077.46
394870,+2.458,+2.540,+2.538,+1.542,+0.294,-3.090,+100076.29
394880,+3.524,+2.812,+2.795,+1.613,+0.342,-3.505,+100075.59
394890,+4.728,+2.494,+2.510,+1.698,+0.393,-3.960,+100075.59
394900,+6.246,+1.739,+2.106,+1.698,+0.408,-4.424,+100076.66
394910,+7.004,+1.566,+1.976,+1.532,+0.394,-4.860,+100076.25
394919,+7.212,+1.652,+1.821,+1.272,+0.412,-5.234,+100076.77
394930,+7.840,+2.058,+1.564,+1.022,+0.487,-5.562,+100074.47
394940,+9.368,+2.176,+1.582,+0.824,+0.595,-5.865,+100074.47
394950,+11.429,+2.296,+1.634,+0.690,+0.696,-6.128,+100077.89
394959,+13.263,+2.024,+1.569,+0.776,+0.820,-6.335,+100075.70
394970,+14.989,+1.568,+1.569,+1.107,+0.973,-6.482,+100075.97
394980,+17.276,-0.295,+1.284,+1.658,+1.114,-6.554,+100076.27
394990,+18.846,-3.839,+0.604,+2.077,+1.059,-6.554,+100076.27
395000,+20.375,-6.917,+0.377,+2.024,+0.892,-6.523,+100079.34
395010,+22.382,-8.485,+0.737,+1.837,+0.816,-6.319,+100081.48
395020,+24.199,-10.392,+2.011,+1.610,+0.752,-5.970,+100077.45
395030,+24.039,-12.523,+4.471,+1.361,+0.672,-5.522,+100079.23
395040,+21.711,-14.643,+6.212,+1.129,+0.697,-5.011,+100079.23
395051,+19.215,-18.217,+5.917,+0.826,+0.787,-4.424,+100081.56
395060,+17.445,-22.501,+3.787,+0.213,+0.865,-3.704,+100082.53
395070,+16.242,-25.121,+0.946,-0.662,+0.874,-2.873,+100079.22
395080,+14.864,-25.034,-1.293,-1.396,+0.751,-1.971,+100080.03
395090,+13.759,-23.196,-2.169,-1.633,+0.533,-0.957,+100080.03
395101,+13.477,-20.255,-1.786,-1.411,+0.275,+0.079,+100084.79
395111,+15.818,-16.271,-1.380,-0.805,+0.053,+1.102,+100084.95
395120,+14.010,-17.532,-1.669,-0.128,-0.110,+2.013,+100082.40
395130,+14.157,-14.042,+0.115,+0.281,-0.160,+2.760,+100078.74
395141,+17.130,+11.311,-1.744,+0.287,-0.226,+2.749,+100078.74
395150,+19.298,+27.432,-4.482,+0.342,-0.323,+1.889,+100083.53
395160,+13.135,+10.496,-2.964,+0.552,-0.169,+2.222,+100082.27
395170,+14.664,-12.901,-1.295,+1.620,+0.060,+2.936,+100082.67
395181,+18.580,-19.457,-0.521,+2.328,-0.039,+3.331,+100077.94
395190,+14.253,-5.254,-1.307,+1.451,-0.049,+2.982,+100077.94
395200,+7.799,+3.945,+0.193,+0.948,+0.066,+2.473,+100081.88
395210,+7.469,-1.732,+2.114,+1.470,+0.195,+2.301,+100083.66
395220,+10.266,-7.469,+2.504,+1.358,+0.227,+2.227,+100080.91
395231,+9.513,-3.613,+2.363,+0.558,+0.236,+1.976,+100081.21
395240,+9.622,-2.166,+1.685,-0.159,+0.245,+1.691,+100081.21
395250,+11.295,-1.973,+1.138,-0.531,+0.215,+1.434,+100081.33
395260,+11.022,-0.418,+1.472,-0.533,+0.202,+1.205,+100082.00
395271,+10.891,-0.155,+1.914,-0.460,+0.169,+1.083,+100082.30
395280,+10.704,+0.062,+1.881,-0.438,+0.118,+1.004,+100081.33
395290,+11.012,+0.203,+1.537,-0.368,+0.083,+0.942,+100081.33
395300,+10.976,+0.123,+1.369,-0.287,+0.039,+0.924,+100083.34
395311,+10.830,+0.311,+1.784,-0.272,+0.014,+0.903,+100080.29
395321,+10.844,+0.186,+2.393,-0.312,-0.037,+0.881,+100081.15
395330,+10.524,-0.122,+2.702,-0.394,-0.090,+0.826,+100080.59
395340,+10.266,-0.642,+2.551,-0.535,-0.114,+0.764,+100080.59
395351,+10.165,-0.462,+2.478,-0.685,-0.107,+0.696,+100084.34
395361,+10.273,-0.051,+2.371,-0.747,-0.074,+0.640,+100084.43
395370,+10.616,+0.578,+2.279,-0.721,-0.039,+0.601,+100079.60
395380,+10.708,+0.219,+1.790,-0.645,-0.033,+0.609,+100079.65
395390,+10.805,+0.037,+1.130,-0.614,-0.039,+0.640,+100079.65
395401,+10.633,-0.005,+1.102,-0.579,-0.041,+0.697,+100081.25
395411,+10.542,-0.036,+1.302,-0.552,-0.039,+0.754,+100080.89
395420,+10.540,-0.975,+1.491,-0.531,-0.041,+0.805,+100083.59
395430,+9.777,+0.316,+1.688,-0.668,-0.048,+0.815,+100078.20
395441,+10.995,+0.186,+1.989,-0.432,-0.053,+0.923,+100078.20
395451,+9.712,-1.242,+1.921,-0.407,-0.084,+0.965,+100083.03
395460,+10.691,-0.648,+1.907,-0.510,-0.075,+0.974,+100079.27
395470,+10.612,-0.910,+1.521,-0.505,-0.090,+1.011,+100078.30
395481,+10.686,-1.334,+1.143,-0.537,-0.102,+1.040,+100080.69
395491,+10.767,-1.596,+0.719,-0.581,-0.114,+1.073,+100080.69
395501,+10.578,-1.513,+0.355,-0.612,-0.130,+1.133,+100082.16
395510,+10.479,-1.165,+0.248,-0.611,-0.160,+1.220,+100081.09
395521,+10.714,-0.525,+0.549,-0.571,-0.205,+1.342,+100084.71
395531,+11.274,+0.420,+1.026,-0.491,-0.260,+1.496,+100078.85
395541,+11.878,+0.695,+1.433,-0.371,-0.315,+1.671,+100078.85
395551,+12.567,+0.510,+1.514,-0.284,-0.372,+1.852,+100080.55
395560,+13.259,+0.234,+1.391,-0.253,-0.435,+2.037,+100080.34
395571,+13.769,+0.190,+1.301,-0.246,-0.492,+2.221,+100080.09
395581,+14.041,+0.389,+1.554,-0.260,-0.554,+2.394,+100079.53
395591,+14.448,+0.579,+1.985,-0.284,-0.602,+2.553,+100079.53
395600,+14.736,+0.344,+2.137,-0.363,-0.632,+2.704,+100081.97
395611,+15.373,+0.498,+1.706,-0.526,-0.638,+2.835,+100076.92
395621,+16.504,+0.939,+1.105,-0.743,-0.646,+2.945,+100079.78
395631,+18.414,+2.340,+1.295,-0.990,-0.640,+3.024,+100077.80
395640,+19.480,+3.362,+2.349,-1.288,-0.613,+3.059,+100077.80
395651,+19.986,+4.202,+3.043,-1.726,-0.506,+3.085,+100080.59
395661,+20.510,+5.467,+4.386,-2.221,-0.400,+3.151,+100077.88
395671,+19.988,+6.476,+5.928,-2.476,-0.320,+3.291,+100078.13
395681,+19.210,+7.273,+6.857,-2.275,-0.239,+3.430,+100078.24
395691,+19.143,+6.853,+5.376,-1.898,-0.214,+3.457,+100078.24
395701,+18.444,+4.668,+3.783,-1.902,-0.456,+3.363,+100080.73
395711,+15.067,+2.450,+5.401,-2.151,-0.755,+3.107,+100078.14
395721,+17.305,+3.306,+6.829,-2.174,-0.629,+2.887,+100076.77
395731,+14.751,+2.629,+5.815,-1.811,-0.441,+2.784,+100078.23
395741,+6.188,-0.127,+4.879,-1.507,-0.289,+2.541,+100078.23
395751,+0.411,-2.221,+3.164,-1.316,-0.341,+1.791,+100081.45
395761,+9.282,+0.565,+2.389,-0.734,-0.290,+0.922,+100077.99
395771,+7.513,+7.428,+2.309,+0.344,-0.261,-0.183,+100078.54
395781,+4.445,+8.619,+1.867,+1.168,-0.165,-0.937,+100076.71
395791,+3.790,+6.872,+1.520,+1.554,-0.094,-1.319,+100076.71
395801,+3.586,+5.488,+0.980,+1.690,-0.058,-1.747,+100081.49
395811,+2.833,+3.923,+0.993,+1.741,+0.038,-2.247,+100076.76
395822,+2.001,+2.852,+1.448,+1.713,+0.188,-2.626,+100076.40
395831,+2.045,+2.565,+2.177,+1.661,+0.316,-2.937,+100078.13
395841,+3.073,+2.755,+2.339,+1.613,+0.370,-3.313,+100078.13
395851,+4.287,+2.401,+1.944,+1.573,+0.382,-3.764,+100079.14
395862,+5.661,+1.563,+1.585,+1.483,+0.392,-4.216,+100079.03
395871,+6.489,+1.443,+1.298,+1.286,+0.398,-4.648,+100079.19
395881,+6.787,+1.703,+0.955,+1.036,+0.443,-5.021,+100075.22
395891,+7.481,+1.819,+1.094,+0.836,+0.512,-5.336,+100075.22
395901,+8.666,+2.141,+0.952,+0.690,+0.588,-5.608,+100078.19
395911,+10.264,+1.664,+0.941,+0.577,+0.669,-5.858,+100078.64
395921,+12.165,+1.277,+0.783,+0.499,+0.752,-6.068,+100076.91
395931,+13.753,+1.159,+0.711,+0.608,+0.862,-6.233,+100074.63
395941,+15.298,+1.313,+0.730,+0.980,+0.993,-6.323,+100074.63
395952,+17.327,+0.297,+0.796,+1.594,+1.118,-6.364,+100081.39
395961,+19.246,-4.145,+0.272,+2.089,+1.095,-6.331,+100077.00
395971,+20.124,-7.734,-0.694,+2.008,+0.865,-6.279,+100078.84
395981,+21.242,-9.389,+0.070,+1.770,+0.734,-6.078,+100076.19
395992,+22.401,-10.690,+2.113,+1.520,+0.670,-5.786,+100076.19
396001,+22.283,-11.738,+4.114,+1.270,+0.642,-5.376,+100079.91
396011,+20.956,-13.132,+5.071,+1.090,+0.672,-4.895,+100078.84
396021,+19.462,-16.617,+4.786,+0.828,+0.733,-4.381,+100079.55
396032,+17.933,-21.136,+3.239,+0.218,+0.769,-3.732,+100079.40
396042,+16.185,-23.694,+1.211,-0.613,+0.750,-2.941,+100079.40
396051,+14.796,-23.574,-0.509,-1.276,+0.657,-2.045,+100080.31
396061,+13.977,-22.161,-1.570,-1.482,+0.479,-1.058,+100082.86
396071,+13.355,-20.200,-1.503,-1.298,+0.259,-0.037,+100082.34
396082,+15.835,-16.356,+0.207,-0.867,+0.084,+0.910,+100080.16
396091,+15.585,-15.678,-0.214,-0.132,-0.063,+1.797,+100080.16
396101,+13.241,-14.514,+0.809,+0.442,-0.124,+2.665,+100083.40
396111,+16.002,+6.486,-1.388,+0.565,-0.181,+2.830,+100082.95
396122,+19.503,+26.079,-5.000,+0.565,-0.358,+2.079,+100082.70
396132,+14.735,+14.541,-5.915,+0.616,-0.294,+2.121,+100080.87
396141,+13.015,-7.207,-1.963,+1.265,+0.034,+2.886,+100080.87
396151,+16.837,-19.202,+0.831,+1.974,+0.129,+3.227,+100084.77
396162,+16.576,-10.122,+0.254,+1.438,+0.044,+3.114,+100082.42
396172,+9.252,+4.148,+1.102,+0.741,+0.105,+2.621,+100082.13
396182,+6.203,+2.880,+2.489,+1.255,+0.181,+2.328,+100080.34
396191,+8.918,-5.633,+2.200,+1.614,+0.209,+2.223,+100080.34
396201,+10.710,-5.592,+2.399,+1.212,+0.215,+2.084,+100082.30
396212,+9.689,-2.987,+1.956,+0.518,+0.198,+1.867,+100083.18
396222,+10.783,-3.174,+0.426,-0.164,+0.170,+1.633,+100080.99
396231,+11.566,-2.242,-0.104,-0.510,+0.171,+1.389,+100081.45
396241,+10.635,-0.495,+0.730,-0.551,+0.214,+1.176,+100081.45
396252,+10.758,-0.227,+1.216,-0.499,+0.220,+1.043,+100082.30
396262,+10.878,+0.063,+1.440,-0.490,+0.194,+0.964,+100081.23
396272,+10.927,+0.383,+1.372,-0.441,+0.180,+0.910,+100079.55
396281,+10.737,+0.201,+1.544,-0.320,+0.141,+0.889,+100079.76
396292,+10.609,+0.170,+1.713,-0.251,+0.114,+0.861,+100079.76
396302,+10.704,-0.252,+2.338,-0.275,+0.082,+0.838,+100083.80
396312,+10.515,-0.521,+2.899,-0.418,+0.043,+0.795,+100080.84
396321,+10.340,-0.516,+2.704,-0.595,+0.013,+0.722,+100077.73
396332,+10.402,-0.307,+2.119,-0.763,+0.004,+0.665,+100078.50
396342,+10.631,+0.090,+1.791,-0.856,+0.003,+0.657,+100078.50
396352,+10.623,+0.520,+1.898,-0.837,-0.002,+0.678,+100083.35
396362,+10.813,+0.931,+2.197,-0.773,+0.006,+0.704,+100080.76
396371,+11.002,+0.813,+2.131,-0.687,+0.004,+0.705,+100080.30
396382,+11.089,+0.093,+1.517,-0.648,-0.014,+0.749,+100081.46
396392,+10.810,-0.392,+1.371,-0.666,-0.029,+0.805,+100081.46
396402,+10.676,-0.382,+1.342,-0.702,-0.030,+0.848,+100081.98
396411,+10.611,-0.092,+1.666,-0.710,-0.049,+0.899,+100080.15
396422,+10.318,+0.066,+2.279,-0.659,-0.082,+0.950,+100078.41
396432,+10.271,+0.061,+2.632,-0.600,-0.095,+0.990,+100080.40
396442,+10.434,-0.341,+2.738,-0.573,-0.101,+1.023,+100080.40
396452,+10.787,-0.890,+2.453,-0.582,-0.115,+1.054,+100083.28
396462,+10.716,-0.981,+1.884,-0.627,-0.133,+1.083,+100083.75
396472,+10.563,-1.128,+1.324,-0.673,-0.143,+1.116,+100080.33
396482,+10.502,-1.106,+1.143,-0.677,-0.165,+1.171,+100079.72
396492,+10.457,-0.874,+1.015,-0.639,-0.194,+1.269,+100079.72
396503,+10.919,-0.279,+1.095,-0.575,-0.239,+1.410,+100085.33
396512,+11.384,+0.444,+1.326,-0.486,-0.293,+1.558,+100083.34
396522,+12.016,+0.724,+1.517,-0.372,-0.344,+1.750,+100080.64
396532,+12.894,+0.573,+1.276,-0.310,-0.393,+1.957,+100081.56
396541,+13.676,+0.277,+0.753,-0.312,-0.458,+2.159,+100081.56
396552,+14.332,+0.340,+0.355,-0.334,-0.523,+2.348,+100081.91
396562,+14.919,+0.534,+0.346,-0.345,-0.587,+2.527,+100082.77
396572,+15.204,+0.352,+0.342,-0.386,-0.633,+2.699,+100081.55
396582,+15.768,+0.623,+0.221,-0.512,-0.667,+2.849,+100079.72
396592,+16.634,+1.334,-0.096,-0.683,-0.673,+2.972,+100079.72
396602,+18.373,+2.589,+0.031,-0.890,-0.695,+3.058,+100081.60
396612,+19.714,+4.192,+1.324,-1.127,-0.717,+3.100,+100079.55
396622,+20.048,+5.099,+2.587,-1.445,-0.659,+3.118,+100080.93
396632,+20.339,+5.862,+4.534,-1.878,-0.569,+3.175,+100078.49
