7,-9.488221,-0.641646,2.274492,-0.038098,-0.035916,0.032056,100965.304688
17,-9.466674,-0.693121,2.252944,-0.041822,-0.037512,0.033120,100965.304688
31,-9.538500,-0.701501,2.340332,-0.058318,-0.041769,0.033652,100965.187500
41,-9.498995,-0.685939,2.281674,-0.067896,-0.042834,0.035780,100965.187500
51,-9.498995,-0.641646,2.317587,-0.073749,-0.045494,0.035780,100965.078125
62,-9.564836,-0.614113,2.370260,-0.080666,-0.043898,0.038973,100965.078125
76,-9.536105,-0.634463,2.331953,-0.079602,-0.043898,0.041101,100965.187500
91,-9.463082,-0.624887,2.389413,-0.074281,-0.044430,0.043230,100965.179688
101,-9.431957,-0.632069,2.311602,-0.073749,-0.048155,0.044826,100965.179688
112,-9.516952,-0.730232,2.404976,-0.077474,-0.051347,0.045358,100965.257812
126,-9.585187,-0.776918,2.443283,-0.083327,-0.052944,0.045890,100965.203125
136,-9.564836,-0.609324,2.511518,-0.090777,-0.051347,0.044294,100965.203125
146,-9.460688,-0.545878,2.553416,-0.093969,-0.047090,0.043230,100965.203125
161,-9.642648,-0.515950,2.525883,-0.076410,-0.037512,0.033120,100965.148438
177,-9.496601,-0.390255,2.554613,-0.048208,-0.027934,0.021946,100965.320312
196,-9.439140,-0.541090,2.430115,-0.015749,-0.021549,0.008111,100965.515625
226,-9.519346,-0.670376,2.406173,-0.026391,-0.022613,-0.000935,100965.468750
237,-9.543288,-0.599748,2.410961,-0.043419,-0.023678,-0.000935,100965.359375
247,-9.488221,-0.496797,2.481590,-0.044483,-0.024742,-0.003064,100965.359375
256,-9.521740,-0.599748,2.540248,-0.037566,-0.024210,-0.006256,100965.257812
266,-9.564836,-0.592565,2.493561,-0.027988,-0.021549,-0.008385,100965.257812
277,-9.477448,-0.508768,2.522291,-0.020538,-0.016228,-0.012109,100965.273438
286,-9.391256,-0.545878,2.461239,-0.007235,-0.012503,-0.013706,100965.273438
296,-9.483433,-0.727837,2.491167,0.001278,-0.015164,-0.015302,100965.320312
312,-9.518148,-0.732626,2.397793,-0.008300,-0.016228,-0.012642,100965.328125
326,-9.537302,-0.696713,2.494758,-0.020538,-0.016228,-0.010513,100965.328125
341,-9.509769,-0.591368,2.504335,-0.020006,-0.014100,-0.009981,100965.226562
356,-9.487024,-0.578200,2.476802,0.001278,-0.012503,-0.013174,100965.132812
366,-9.503783,-0.634463,2.467225,0.011388,-0.009311,-0.016898,100965.132812
376,-9.504981,-0.654814,2.367866,0.011388,-0.007714,-0.018495,100965.281250
386,-9.497798,-0.675165,2.473210,0.006067,-0.008246,-0.018495,100965.281250
396,-9.488221,-0.665588,2.425326,0.001811,-0.008246,-0.015302,100965.351562
406,-9.485827,-0.673968,2.404976,-0.000318,-0.008778,-0.014770,100965.351562
416,-9.558850,-0.673968,2.403779,-0.002446,-0.010375,-0.014770,100965.375000
436,-9.472659,-0.640449,2.442086,-0.006171,-0.010907,-0.008385,100965.351562
446,-9.497798,-0.696713,2.457648,-0.008832,-0.015696,-0.007320,100965.351562
456,-9.556456,-0.642843,2.482787,-0.011492,-0.016760,-0.006788,100965.328125
471,-9.455899,-0.611719,2.548628,-0.004043,-0.010907,-0.005724,100965.460938
486,-9.563639,-0.636858,2.479196,0.005003,-0.008778,-0.005724,100965.460938
496,-9.518148,-0.741005,2.445677,0.010856,-0.006118,-0.001999,100965.492188
506,-9.508572,-0.677559,2.433706,0.007664,-0.005054,0.001193,100965.492188
526,-9.487024,-0.604536,2.445677,0.010324,-0.006650,-0.000403,100965.578125
541,-9.484630,-0.622492,2.424129,0.018306,-0.007182,-0.002532,100965.414062
556,-9.485827,-0.695516,2.396596,0.013517,-0.010907,-0.001999,100965.265625
566,-9.495404,-0.732626,2.384625,0.006599,-0.014100,0.000129,100965.265625
576,-9.503783,-0.711078,2.433706,-0.003511,-0.017292,0.000661,100965.367188
596,-9.473856,-0.623690,2.438494,-0.005639,-0.016760,0.005982,100965.468750
611,-9.483433,-0.661997,2.479196,0.001278,-0.016228,0.005450,100965.335938
621,-9.507375,-0.676362,2.517503,-0.000850,-0.017292,0.008111,100965.335938
631,-9.585187,-0.738611,2.460042,-0.004043,-0.015696,0.010239,100965.156250
646,-9.507375,-0.548272,2.513912,-0.001382,-0.014632,0.011303,100965.156250
656,-9.463082,-0.586579,2.503138,0.007664,-0.013567,0.009707,100964.992188
671,-9.461885,-0.672771,2.438494,0.015113,-0.013035,0.005450,100965.101562
686,-9.476251,-0.697910,2.418144,0.003407,-0.016228,0.009707,100965.101562
696,-9.469068,-0.693121,2.416947,-0.005639,-0.018356,0.012368,100965.085938
711,-9.482236,-0.651223,2.531868,-0.010428,-0.019953,0.014496,100965.125000
726,-9.488221,-0.624887,2.512715,-0.005639,-0.018889,0.014496,100965.125000
746,-9.500193,-0.578200,2.540248,0.001278,-0.016760,0.009707,100965.062500
756,-9.514558,-0.578200,2.479196,0.010324,-0.014100,0.003854,100965.000000
771,-9.473856,-0.604536,2.451663,0.012453,-0.015696,-0.000935,100965.046875
781,-9.539697,-0.654814,2.462436,0.007664,-0.014100,-0.000935,100965.046875
801,-9.488221,-0.632069,2.517503,0.002343,-0.015696,-0.002532,100965.148438
811,-9.491813,-0.626084,2.570175,0.007132,-0.013035,-0.003596,100965.257812
821,-9.481039,-0.614113,2.566584,0.020434,-0.010375,-0.004660,100965.257812
836,-9.538500,-0.670376,2.541445,0.048636,-0.006118,-0.005192,100965.164062
846,-9.498995,-0.751779,2.421735,0.061407,-0.004522,-0.003596,100965.164062
856,-9.470264,-0.808043,2.293645,0.053425,-0.006650,0.003322,100965.078125
866,-9.515755,-0.749385,2.406173,0.031077,-0.011439,0.011835,100965.078125
881,-9.491813,-0.691924,2.505532,0.018306,-0.014100,0.018753,100965.195312
896,-9.545682,-0.597353,2.553416,0.022563,-0.009311,0.019285,100965.265625
911,-9.488221,-0.578200,2.518700,0.026288,-0.010375,0.019817,100965.437500
921,-9.430760,-0.572214,2.481590,0.024159,-0.007182,0.019285,100965.437500
931,-9.496601,-0.541090,2.546233,0.025223,-0.008778,0.016092,100965.265625
946,-9.457097,-0.567426,2.540248,0.025223,-0.007182,0.010771,100965.265625
956,-9.477448,-0.620098,2.523489,0.023627,-0.005586,0.007046,100965.109375
966,-9.459491,-0.483629,2.501941,0.022563,-0.006118,0.002790,100965.109375
981,-9.493010,-0.501585,2.577358,0.024691,-0.004522,-0.000935,100965.093750
991,-9.497798,-0.615310,2.541445,0.033205,0.000799,-0.006256,100965.093750
1006,-9.502586,-0.661997,2.485181,0.032673,0.001332,-0.006788,100965.101562
1021,-9.494206,-0.620098,2.524686,0.022563,-0.000265,-0.006788,100965.148438
1036,-9.479841,-0.525527,2.512715,0.015645,-0.000265,-0.007320,100965.023438
1051,-9.489418,-0.555455,2.492364,0.022563,0.000799,-0.008385,100965.023438
1071,-9.422380,-0.654814,2.513912,0.024691,0.002396,-0.008385,100964.914062
1086,-9.482236,-0.642843,2.543839,0.019370,0.001864,-0.004660,100965.023438
1096,-9.479841,-0.623690,2.505532,0.016710,0.003460,-0.001999,100965.109375
1106,-9.522937,-0.684742,2.570175,0.020966,0.003460,0.000661,100965.109375
1116,-9.510966,-0.633266,2.481590,0.023095,0.005056,0.003854,100965.070312
1126,-9.566033,-0.647632,2.488773,0.019902,0.005056,0.004918,100965.070312
1136,-9.515755,-0.616507,2.497152,0.014049,0.005588,0.005982,100964.898438
1146,-9.503783,-0.535104,2.461239,0.013517,0.006121,0.005450,100964.898438
1161,-9.457097,-0.547075,2.500744,0.018306,0.007185,0.002790,100964.742188
1171,-9.433155,-0.593762,2.525883,0.018306,0.007717,0.002790,100964.742188
1181,-9.439140,-0.645237,2.528277,0.016710,0.006653,0.002790,100964.914062
1191,-9.461885,-0.591368,2.559402,0.009792,0.003992,0.000661,100964.914062
1206,-9.464279,-0.594959,2.574964,0.008728,0.002928,-0.000403,100965.007812
1221,-9.473856,-0.560243,2.470816,0.013517,0.003460,-0.003064,100965.054688
1236,-9.473856,-0.545878,2.422932,0.009260,0.001864,-0.003596,100964.929688
1251,-9.495404,-0.604536,2.448071,0.009260,-0.001861,-0.004660,100964.929688
1266,-9.501390,-0.648829,2.460042,0.008728,-0.003989,-0.003596,100964.828125
1286,-9.442732,-0.604536,2.479196,0.000214,-0.006118,0.000129,100965.117188
1296,-9.482236,-0.644040,2.513912,0.000746,-0.007714,0.001725,100965.156250
1306,-9.512163,-0.696713,2.501941,0.001811,-0.007714,0.003854,100965.156250
1321,-9.507375,-0.593762,2.493561,-0.002978,-0.009843,0.007579,100965.203125
1331,-9.472659,-0.577003,2.517503,-0.000850,-0.011439,0.007046,100965.203125
1341,-9.488221,-0.541090,2.501941,-0.000318,-0.009843,0.007046,100965.031250
1356,-9.463082,-0.581791,2.539051,0.000746,-0.010375,0.004918,100964.867188
1371,-9.490616,-0.609324,2.500744,0.004471,-0.009311,0.003854,100964.867188
1381,-9.489418,-0.626084,2.501941,0.003939,-0.008778,0.004918,100965.039062
1396,-9.484630,-0.620098,2.485181,0.002875,-0.008246,0.007046,100965.070312
1411,-9.495404,-0.587777,2.507926,-0.000850,-0.008778,0.007579,100965.070312
1421,-9.493010,-0.605733,2.547431,-0.000318,-0.008778,0.007579,100965.015625
1431,-9.481039,-0.644040,2.534262,-0.000850,-0.009311,0.009707,100965.015625
1446,-9.431957,-0.586579,2.512715,0.000746,-0.007714,0.010771,100965.000000
1456,-9.501390,-0.557849,2.564190,0.001811,-0.007182,0.008643,100964.960938
1471,-9.487024,-0.614113,2.521094,0.008728,-0.006650,0.009707,100964.960938
1496,-9.453506,-0.586579,2.578555,0.009260,-0.005054,0.009707,100965.195312
1506,-9.478644,-0.535104,2.573767,0.019902,-0.003457,0.009175,100965.195312
1526,-9.502586,-0.605733,2.492364,0.023627,-0.005054,0.008111,100965.257812
1536,-9.507375,-0.611719,2.485181,0.016177,-0.005586,0.007046,100965.148438
1546,-9.519346,-0.556652,2.500744,0.012985,-0.006650,0.007579,100965.148438
1566,-9.454702,-0.584185,2.469619,0.013517,-0.009843,0.007046,100965.039062
1576,-9.473856,-0.590171,2.519897,0.012985,-0.014100,0.007046,100965.140625
1586,-9.475053,-0.624887,2.533065,0.008196,-0.017292,0.008643,100965.140625
1606,-9.479841,-0.530316,2.567781,0.016177,-0.017292,0.005450,100965.195312
1621,-9.501390,-0.729034,2.554613,0.026288,-0.017292,0.009175,100965.171875
1631,-9.516952,-0.711078,2.489970,0.023095,-0.017824,0.012368,100965.171875
1641,-9.502586,-0.669179,2.396596,0.012453,-0.021017,0.016092,100965.109375
1651,-9.489418,-0.599748,2.498349,0.008196,-0.026870,0.023010,100965.109375
1666,-9.506178,-0.506374,2.580950,0.012985,-0.026870,0.025670,100965.046875
1681,-9.496601,-0.572214,2.619257,0.028416,-0.025806,0.026202,100965.109375
1696,-9.455899,-0.630872,2.567781,0.037462,-0.022613,0.026735,100965.125000
1706,-9.504981,-0.654814,2.452860,0.032141,-0.026870,0.028863,100965.125000
1726,-9.493010,-0.606930,2.530671,0.014049,-0.029531,0.035248,100965.046875
1741,-9.472659,-0.484826,2.576161,0.003939,-0.030595,0.034716,100965.007812
1756,-9.465476,-0.475249,2.612074,0.006599,-0.030063,0.034716,100965.007812
1771,-9.471462,-0.454898,2.541445,0.010324,-0.028999,0.032056,100964.968750
1786,-9.487024,-0.515950,2.598906,0.010856,-0.028999,0.032056,100965.250000
1806,-9.465476,-0.600945,2.591723,0.008728,-0.030063,0.037377,100965.367188
1816,-9.448717,-0.509965,2.511518,0.002875,-0.031659,0.039505,100965.367188
1826,-9.446322,-0.459687,2.567781,-0.003511,-0.033788,0.039505,100965.281250
1841,-9.478644,-0.474052,2.565387,-0.002446,-0.036448,0.040037,100965.210938
1856,-9.463082,-0.543484,2.541445,-0.007767,-0.039109,0.041101,100965.210938
1871,-9.454702,-0.580594,2.584541,-0.015749,-0.038045,0.048551,100965.156250
1881,-9.469068,-0.585382,2.559402,-0.019474,-0.042301,0.053340,100965.257812
1891,-9.530120,-0.533907,2.573767,-0.029052,-0.046026,0.057065,100965.257812
1901,-9.465476,-0.489614,2.560599,-0.040226,-0.047090,0.062386,100965.273438
1916,-9.467871,-0.452504,2.586935,-0.042887,-0.052944,0.066111,100965.273438
1931,-9.455899,-0.383072,2.632425,-0.036501,-0.054008,0.064514,100965.164062
1946,-9.409213,-0.389058,2.608483,-0.031180,-0.056668,0.062918,100965.093750
1956,-9.501390,-0.338780,2.616863,-0.030116,-0.061989,0.061854,100965.093750
1966,-9.445126,-0.351948,2.637213,-0.026391,-0.064118,0.062386,100965.031250
1976,-9.478644,-0.390255,2.602497,-0.020538,-0.064118,0.063450,100965.031250
1991,-9.402030,-0.436942,2.562993,-0.010428,-0.065714,0.069303,100965.179688
2001,-9.460688,-0.495600,2.574964,-0.007767,-0.071035,0.075689,100965.234375
2026,-9.472659,-0.618901,2.610877,-0.022667,-0.083274,0.090588,100965.242188
2036,-9.558850,-0.468066,2.703054,-0.045547,-0.089127,0.099634,100965.242188
2046,-9.467871,-0.390255,2.839523,-0.051933,-0.089127,0.105487,100965.179688
2056,-9.423578,-0.343568,2.810793,-0.039162,-0.089127,0.108147,100965.179688
2071,-9.443929,-0.306458,2.825158,-0.014685,-0.088595,0.108147,100965.117188
2081,-9.418790,-0.350751,2.699462,0.003407,-0.090723,0.108147,100965.171875
2091,-9.409213,-0.369904,2.647987,0.008728,-0.094980,0.108147,100965.171875
2111,-9.415198,-0.313640,2.576161,-0.000318,-0.107219,0.110808,100965.125000
2121,-9.487024,-0.307655,2.574964,-0.012024,-0.115733,0.113468,100964.929688
2131,-9.396045,-0.326809,2.670732,-0.023731,-0.121586,0.117193,100964.929688
2146,-9.425972,-0.387861,2.612074,-0.037566,-0.133824,0.121450,100964.750000
2156,-9.425972,-0.367510,2.591723,-0.052997,-0.139677,0.126771,100964.750000
2166,-9.317036,-0.359130,2.622848,-0.076410,-0.147659,0.137413,100964.890625
2186,-9.266758,-0.171185,2.704251,-0.085455,-0.162558,0.146459,100964.992188
2196,-9.246407,-0.171185,2.742558,-0.076942,-0.176393,0.155505,100964.992188
2206,-9.271546,-0.320823,2.740164,-0.073217,-0.184907,0.155505,100965.054688
2221,-9.246407,-0.132878,2.703054,-0.093437,-0.197677,0.156569,100964.968750
2231,-9.332599,0.094571,2.846706,-0.110465,-0.216301,0.156037,100964.968750
2241,-9.331401,0.226252,3.017891,-0.097694,-0.221622,0.149120,100964.890625
2251,-9.325416,0.222661,3.101688,-0.056722,-0.225347,0.132624,100964.890625
2266,-9.245210,-0.125696,3.139996,-0.018410,-0.227476,0.113468,100964.960938
2276,-9.422380,-0.144849,3.428497,-0.031712,-0.225347,0.106019,100964.960938
2286,-9.455899,-0.010774,3.675100,-0.034905,-0.212577,0.095909,100964.992188
2296,-9.281123,0.047884,3.547010,0.001811,-0.194485,0.086863,100964.992188
2306,-9.252393,-0.025139,3.217807,0.047572,-0.183310,0.076753,100964.937500
2321,-9.713276,-0.453701,3.138798,0.045976,-0.175861,0.085267,100964.937500
2331,-9.695320,-0.350751,3.311181,0.022031,-0.168944,0.103890,100964.921875
2341,-9.567230,-0.076614,3.462016,0.027884,-0.157237,0.119854,100964.921875
2356,-9.435549,-0.035913,3.557784,0.100251,-0.140742,0.136881,100964.921875
2366,-9.423578,-0.269348,3.481169,0.173150,-0.122650,0.154973,100964.890625
2376,-9.406818,-0.415394,3.416526,0.177939,-0.110944,0.177322,100964.890625
2386,-9.414001,-0.221464,3.456030,0.161443,-0.099769,0.199670,100964.937500
2401,-9.757569,0.416591,3.568558,0.179535,-0.071567,0.216166,100964.937500
2411,-9.686940,0.369904,3.520674,0.255095,-0.050283,0.212441,100964.953125
2421,-9.528923,0.165200,3.363853,0.329058,-0.034852,0.210312,100964.953125
2431,-9.350554,-0.136469,3.375824,0.348214,-0.023678,0.217230,100964.859375
2441,-9.415198,-0.259771,3.373430,0.327994,-0.017824,0.226276,100964.859375
2456,-9.388862,0.169988,3.562572,0.289150,-0.002925,0.243303,100964.765625
2471,-9.240421,0.137667,3.332729,0.313095,0.009845,0.256606,100964.921875
2486,-9.346964,0.039504,3.107674,0.307774,0.009845,0.269377,100964.906250
2501,-9.260772,0.320823,3.066972,0.258287,-0.002393,0.289065,100964.906250
2516,-9.230844,0.281319,3.172317,0.239664,-0.014100,0.301303,100964.929688
2526,-9.283517,0.184354,3.217807,0.226893,-0.019421,0.311413,100964.835938
2536,-9.214086,0.193930,3.236961,0.208801,-0.025274,0.325780,100964.835938
2546,-9.156625,0.173580,3.247735,0.193370,-0.029531,0.343340,100964.757812
2566,-9.202114,0.270545,3.229778,0.160379,-0.039641,0.381120,100964.890625
2586,-9.336189,0.404620,3.299210,0.126324,-0.049751,0.418367,100964.960938
2606,-9.515755,0.646434,3.300407,0.146012,-0.053476,0.465193,100964.984375
2621,-9.479841,0.296881,3.105280,0.172086,-0.053476,0.503505,100964.984375
2631,-9.680955,0.403423,3.117251,0.140691,-0.055604,0.534899,100964.945312
2641,-9.704897,0.736217,3.227384,0.111957,-0.060925,0.564698,100964.945312
2656,-9.751583,1.083376,3.429694,0.132710,-0.063054,0.589175,100964.914062
2666,-9.545682,0.877475,3.427300,0.187517,-0.060393,0.619505,100964.968750
2681,-9.698911,0.960075,3.368642,0.226893,-0.062522,0.651431,100964.968750
2696,-9.759963,1.015141,3.353080,0.250306,-0.063054,0.680697,100965.007812
2706,-9.758766,1.201889,3.471592,0.275847,-0.058265,0.711028,100965.015625
2721,-9.539697,1.341950,3.514688,0.331186,-0.055072,0.739230,100965.015625
2736,-9.647436,1.437718,3.438074,0.373223,-0.059329,0.749340,100964.992188
2746,-9.745598,1.470040,3.270479,0.405150,-0.059861,0.774349,100964.953125
2761,-10.153810,1.533486,3.066972,0.432819,-0.059861,0.811064,100964.953125
2776,-10.427945,1.383849,3.025074,0.431755,-0.056136,0.855229,100965.101562
2786,-10.558430,1.389834,3.308787,0.414196,-0.047622,0.903651,100965.054688
2801,-10.734404,1.733402,3.326743,0.437608,-0.039641,0.962716,100965.054688
2816,-11.018116,1.547851,3.173514,0.488691,-0.027402,1.019651,100965.039062
2826,-11.329363,1.431733,2.987964,0.511572,-0.014632,1.097339,100965.015625
2841,-11.264719,1.235408,3.033453,0.511572,-0.000797,1.213871,100965.015625
2851,-11.354502,1.247379,3.116054,0.502526,0.005588,1.292624,100965.000000
2861,-11.441890,1.233014,3.183091,0.490287,0.013570,1.372972,100965.000000
2871,-11.657368,1.072602,3.134010,0.484434,0.018359,1.457046,100965.187500
2881,-11.974600,0.978031,2.956839,0.481774,0.032194,1.546440,100965.187500
2891,-12.653356,0.465672,3.032256,0.441865,0.061992,1.645944,100965.273438
2901,-13.111846,-0.246603,3.556587,0.364709,0.085937,1.757688,100965.273438
2911,-13.001713,-0.326809,3.827132,0.320544,0.072102,1.863577,100965.156250
2921,-13.128605,-0.247800,3.659537,0.342893,0.041240,1.964146,100965.156250
2931,-14.014460,-0.671574,3.920505,0.403021,0.017827,2.067375,100965.117188
2941,-14.308947,-1.218649,4.246117,0.503590,0.001332,2.180183,100965.117188
2951,-14.544775,-1.119289,4.604050,0.635021,-0.042301,2.253082,100965.085938
2966,-15.788563,-2.443283,5.902905,1.023461,-0.129035,2.306825,100965.226562
2976,-16.533159,-4.648343,6.093243,1.465644,-0.166815,2.354182,100965.226562
2986,-15.942989,-5.424064,5.044583,1.826415,-0.172668,2.430274,100965.250000
3001,-15.630546,-2.234987,3.602077,1.808855,-0.224283,2.577137,100965.250000
3011,-16.002844,1.884237,2.844312,1.395938,-0.271641,2.838935,100965.296875
3021,-16.059109,3.730166,3.362656,0.935131,-0.272705,3.107650,100965.296875
3036,-12.433089,2.169147,4.756082,0.663223,-0.201934,3.330604,100965.195312
3046,-10.296265,0.787692,4.124012,0.698342,-0.159366,3.124677,100965.093750
3056,-7.911640,0.156820,3.313575,0.664287,-0.146595,2.862347,100965.093750
3066,-4.832696,0.344765,2.361880,0.542434,-0.145531,2.547871,100965.109375
3081,-5.261258,-0.317232,1.595735,0.486562,-0.065714,1.931155,100965.109375
3096,-5.158308,-4.009091,1.641225,0.518489,-0.038577,0.975486,100964.890625
3106,-4.432865,-3.582923,-0.610521,0.625975,0.058267,0.421028,100964.890625
3121,-2.862268,-2.606089,-1.559822,0.433884,0.132231,-0.064256,100964.859375
3136,-2.254141,-1.788469,-1.760935,-0.042355,0.166286,-0.655962,100964.710938
3146,-2.445677,-2.020706,-1.923741,-0.399400,0.222689,-0.973632,100964.710938
3161,-2.924517,-2.327164,-2.005144,-0.952262,0.282818,-1.348237,100964.578125
3176,-3.684676,-2.377442,-1.334767,-1.803638,0.357313,-1.828200,100964.757812
3191,-4.590882,-1.314417,-0.223858,-2.254335,0.381258,-2.151191,100964.882812
3206,-5.278018,-0.475249,1.028310,-2.496977,0.505240,-2.538567,100964.882812
3216,-5.827487,-0.136469,1.545457,-2.498573,0.586120,-2.783337,100964.789062
3226,-6.807912,0.750582,1.790863,-2.436316,0.700524,-3.046199,100964.789062
3236,-8.074445,1.843535,1.972822,-2.302225,0.858028,-3.276071,100964.773438
3251,-8.996213,2.850297,2.329558,-2.039895,1.057037,-3.501685,100964.750000
3261,-9.788693,3.269282,2.675520,-1.696684,1.225716,-3.725703,100964.750000
3276,-10.266336,1.844732,2.171541,-1.294941,1.374707,-3.988566,100964.890625
3291,-10.882844,1.049857,2.078167,-1.191712,1.430046,-4.185978,100964.742188
3305,-11.941081,0.706290,2.481590,-1.308244,1.456652,-4.380731,100964.742188
3321,-13.103466,1.186327,3.350685,-1.439675,1.486982,-4.533978,100964.703125
3331,-13.676877,1.510741,3.752911,-1.491289,1.514652,-4.627629,100964.593750
3346,-14.325706,2.123657,4.462792,-1.535455,1.550303,-4.730859,100964.593750
3361,-14.991294,2.826355,5.397728,-1.442868,1.576376,-4.774492,100964.484375
3371,-15.741877,3.513491,6.230910,-1.158721,1.627459,-4.792583,100964.546875
3385,-15.980100,4.003105,6.660669,-0.599474,1.678542,-4.762785,100964.546875
3401,-15.543158,3.842694,6.484695,-0.027456,1.658321,-4.693079,100964.515625
3411,-15.046361,3.914520,6.511032,0.289682,1.562542,-4.646785,100964.484375
3421,-14.657303,4.396951,6.465542,0.542966,1.392799,-4.572822,100964.484375
3430,-13.996503,5.100847,6.403293,0.771773,1.167184,-4.452034,100964.359375
3441,-13.692439,5.791574,5.834670,0.993131,0.919221,-4.279098,100964.359375
3455,-13.553576,6.679823,4.752491,1.262911,0.586120,-3.889593,100964.250000
3465,-13.582306,7.249643,3.998317,1.353369,0.421698,-3.543722,100964.250000
3475,-13.056779,7.518991,3.647566,1.364544,0.325386,-3.113777,100964.367188
3485,-12.677298,7.575254,3.548207,1.309736,0.257809,-2.599759,100964.367188
3495,-12.362460,7.406463,3.428497,1.172452,0.197680,-2.004861,100964.476562
3505,-11.901577,7.407660,3.138798,0.931406,0.116799,-1.363136,100964.476562
3515,-11.500547,7.814674,3.124433,0.594049,-0.017824,-0.710238,100964.554688
3525,-11.044453,8.516175,3.375824,0.241260,-0.182778,-0.074366,100964.554688
3541,-10.550050,9.165004,3.569755,-0.142391,-0.388705,0.769028,100964.554688
3556,-11.407174,6.880936,3.823540,-0.344061,-0.511622,1.452257,100964.554688
3570,-11.487380,3.053804,2.183512,-0.405786,-0.578668,1.802385,100964.726562
3581,-11.030087,-15.246277,-1.758541,-0.373859,-0.297182,1.874220,100964.726562
3595,-15.603012,-18.789696,0.563834,0.858507,-0.216833,0.896734,100964.734375
3605,-23.075315,3.556587,-7.183802,1.190544,-0.434466,0.722202,100964.734375
3615,-16.389507,12.446258,2.499547,-0.543602,-0.654760,2.002990,100964.625000
3625,-9.665392,4.667496,5.170279,-1.008134,-0.676576,2.575540,100964.625000
3635,-12.491747,0.521936,5.366603,-0.296171,-0.780338,2.089192,100964.585938
3645,-11.465832,-0.057461,2.643199,0.206141,-0.756393,1.798660,100964.585938
3661,-7.736863,-0.675165,3.580529,-0.136006,-0.797365,1.656055,100964.546875
3671,-8.853758,0.657208,3.863045,-0.329694,-0.839934,1.488440,100964.773438
3681,-9.868899,1.375469,4.394557,-0.353107,-0.778209,1.381486,100964.773438
3695,-10.668563,1.505953,4.412514,-0.047144,-0.598356,1.258569,100964.773438
3705,-10.515334,1.586159,4.122815,0.512636,-0.369017,1.110642,100964.773438
3715,-10.277111,1.071405,3.203442,1.006966,-0.233329,0.969633,100964.828125
3725,-9.733627,-0.353145,1.286883,1.288452,-0.145531,0.852037,100964.828125
3735,-9.181764,-2.586935,0.469264,1.237369,-0.179054,0.780202,100964.812500
3745,-9.020155,-4.691438,0.738611,0.968122,-0.288668,0.763707,100964.812500
3761,-9.725247,-4.315548,0.916979,0.314691,-0.375402,0.798294,100964.812500
3771,-9.417592,-2.614468,2.511518,-0.095566,-0.405732,0.840862,100965.039062
3781,-9.290700,-1.188721,4.183867,-0.197199,-0.396686,0.812661,100965.039062
3795,-9.165004,-0.161609,5.287594,0.096526,-0.289200,0.750404,100965.210938
3805,-9.167398,-0.070629,4.903325,0.541902,-0.150320,0.687083,100965.210938
3821,-9.453506,-1.651999,3.032256,0.941516,-0.041769,0.590239,100965.085938
3830,-9.583989,-2.651578,1.577779,0.996856,-0.032191,0.563633,100964.953125
3841,-9.605537,-2.845509,1.076194,0.848929,-0.069971,0.560973,100964.953125
3855,-9.615114,-1.865083,1.660379,0.575957,-0.133292,0.589175,100964.820312
3865,-9.417592,-1.015141,2.876633,0.422177,-0.168411,0.615248,100964.820312
3881,-9.209297,-0.814029,3.523068,0.488159,-0.161494,0.615248,100964.906250
3895,-9.127894,-1.047463,3.332729,0.650452,-0.126907,0.585982,100965.039062
3905,-8.960299,-1.253365,2.971204,0.683975,-0.115200,0.589707,100965.039062
3921,-9.081207,-1.509544,2.671929,0.625975,-0.115733,0.612055,100965.078125
3930,-9.168595,-1.807622,2.662352,0.547223,-0.126375,0.631743,100965.078125
3941,-9.040505,-2.098518,2.783259,0.436544,-0.143402,0.658349,100965.093750
3955,-9.309854,-1.680730,2.867057,0.273186,-0.159898,0.686551,100965.109375
3965,-9.367314,-0.447716,2.788048,0.111957,-0.162026,0.739230,100965.109375
3975,-9.375694,-0.264559,3.057395,0.068324,-0.162026,0.770624,100965.289062
3985,-9.543288,-0.391452,2.876633,0.125260,-0.163622,0.777009,100965.289062
3995,-9.580399,-0.535104,2.710236,0.179003,-0.170540,0.790844,100965.390625
4005,-9.662998,-0.762553,2.814384,0.191242,-0.187567,0.809468,100965.390625
4015,-9.455899,-1.079785,3.175909,0.186985,-0.207788,0.831284,100965.367188
4025,-9.154230,-1.334767,3.468001,0.180067,-0.229604,0.852569,100965.367188
4035,-8.801085,-1.631648,3.551798,0.145480,-0.245567,0.883431,100965.203125
4045,-8.467094,-2.199074,3.472790,0.061407,-0.263659,0.937706,100965.203125
4061,-8.963891,-0.587777,3.195062,-0.154630,-0.304099,1.059560,100965.054688
4075,-10.157401,1.395820,3.926491,-0.184960,-0.322191,1.159064,100965.210938
4085,-10.135853,0.682347,3.056198,0.037462,-0.311549,1.196312,100965.210938
4095,-10.182540,0.483629,1.659182,0.163040,-0.308888,1.250587,100965.164062
4105,-10.427945,1.290475,1.440112,0.116214,-0.320595,1.333064,100965.164062
4121,-11.146206,1.823185,1.944092,0.158783,-0.330705,1.415009,100965.007812
4141,-11.069592,0.712275,2.190695,0.302453,-0.334430,1.488440,100964.875000
4161,-10.746374,0.039504,3.132813,0.233278,-0.342943,1.604440,100964.750000
4170,-11.227609,0.581791,3.412935,0.146544,-0.353586,1.686385,100964.750000
4186,-11.578360,1.316811,3.603274,0.155590,-0.337090,1.784825,100964.875000
4201,-11.637017,1.063026,3.426103,0.284361,-0.313677,1.891247,100965.039062
4211,-11.969811,1.066617,3.459621,0.350342,-0.310485,1.974256,100965.039062
4221,-12.373235,0.544681,3.596091,0.414196,-0.317934,2.067375,100965.062500
4231,-13.153744,0.404620,3.515885,0.494544,-0.318466,2.154641,100965.062500
4241,-13.532028,-0.337582,3.345897,0.556801,-0.309420,2.292990,100964.906250
4251,-14.759056,-0.737414,3.278859,0.591920,-0.286540,2.441449,100964.906250
4261,-16.418238,-1.323994,3.924097,0.589260,-0.249292,2.604806,100964.757812
4281,-17.988834,-2.136825,3.963601,0.686104,-0.232265,2.804880,100964.914062
4291,-19.504364,-4.126407,4.132392,0.879792,-0.212044,2.981008,100964.914062
4301,-20.988770,-7.833828,5.094861,1.139461,-0.214705,3.101265,100964.984375
4311,-19.800049,-10.837354,5.250484,1.495443,-0.248760,3.209815,100964.984375
4321,-17.962498,-9.570822,4.316746,1.776397,-0.320595,3.200769,100965.062500
4330,-17.675194,-5.704185,3.744531,1.912085,-0.432338,3.095412,100965.062500
4345,-17.657238,2.258929,2.594118,1.793424,-0.437659,3.186934,100965.039062
4356,-17.494432,5.280412,2.251747,1.411901,-0.320595,3.466824,100965.000000
4366,-13.400347,3.732560,3.992331,1.001113,-0.256742,3.720108,100965.000000
4391,-8.505402,-2.752135,3.582923,0.906397,-0.318998,2.906512,100965.101562
4401,-4.505888,-3.588908,1.719037,0.622250,-0.140742,2.308421,100965.101562
4410,-1.458069,-3.311181,-0.286107,0.082159,0.017295,1.839100,100965.101562
4421,-2.152387,-4.453215,0.328006,-0.353107,0.085937,1.262293,100965.156250
4430,-2.683900,-5.561730,1.045069,-0.380776,0.175864,0.526918,100965.156250
4450,-3.829526,-3.744531,-0.356736,-0.018942,0.472781,-0.568696,100964.898438
4461,-2.488773,-2.249352,-1.046266,-0.040758,0.669129,-1.029503,100964.664062
4470,-2.009932,-1.004368,-0.984017,-0.280740,0.743625,-1.379099,100964.664062
4481,-2.452860,-0.916979,-0.975637,-0.591492,0.841001,-1.725503,100964.828125
4495,-3.234566,-2.035071,-1.249773,-1.003345,0.960193,-2.142145,100964.914062
4510,-4.158728,-2.681506,-0.938527,-1.560996,1.005423,-2.649778,100964.914062
4521,-5.367800,-1.552640,0.043096,-1.971252,1.028303,-3.028108,100964.898438
4530,-5.882554,-0.086191,1.295263,-2.164940,1.101735,-3.244676,100964.898438
4545,-5.925649,1.819593,2.699462,-2.245821,1.296487,-3.550107,100964.750000
4555,-6.418855,2.612074,3.238158,-2.152170,1.446542,-3.810841,100964.750000
4575,-7.469909,2.455254,3.679888,-1.739253,1.606175,-4.183318,100964.617188
4585,-8.385692,1.465251,3.712210,-1.209271,1.743991,-4.487153,100964.679688
4601,-9.594764,1.116895,3.123236,-0.813914,1.814762,-4.770767,100964.609375
4610,-10.735600,1.843535,3.424906,-0.711749,1.780174,-4.922418,100964.609375
4625,-11.767501,2.094927,4.191050,-0.536152,1.670560,-5.071941,100964.484375
4641,-13.435062,2.311602,4.370615,-0.330226,1.585954,-5.206565,100964.359375
4650,-13.958196,2.852691,4.420894,-0.380776,1.506138,-5.252326,100964.359375
4665,-14.443022,3.743334,4.503493,-0.615969,1.314579,-5.278932,100964.226562
4681,-15.124172,3.294421,4.796783,-0.799015,1.142707,-5.323629,100964.265625
4690,-16.135723,3.356671,5.242105,-0.837859,1.044799,-5.301280,100964.265625
4705,-16.754623,4.195838,5.954380,-0.779859,0.994248,-5.175170,100964.367188
4721,-16.717514,5.373785,6.278794,-0.568611,0.975625,-4.988932,100964.429688
4730,-16.802507,6.355408,6.616376,-0.241364,0.938909,-4.736712,100964.429688
4745,-15.650896,6.776788,6.403293,0.160379,0.832487,-4.329116,100964.187500
4755,-15.155296,7.444770,6.278794,0.333847,0.687221,-3.980584,100964.187500
4770,-14.568717,9.732430,6.002264,0.475388,0.375405,-3.263300,100963.976562
4785,-13.788208,11.829751,5.227739,0.564251,0.087533,-2.292732,100964.109375
4801,-13.038822,12.410344,4.484340,0.614801,-0.075824,-1.132733,100964.226562
4810,-12.564771,11.789049,4.416105,0.605223,-0.127971,-0.336696,100964.226562
4821,-12.170924,10.679337,4.209007,0.521150,-0.187035,0.411450,100964.273438
4830,-11.990162,9.458294,4.244920,0.335975,-0.293457,1.074459,100964.273438
4845,-12.826936,4.821922,2.659958,0.038526,-0.482888,1.850807,100964.203125
4861,-12.586318,-8.531737,-3.986346,-0.267437,-0.296118,2.096109,100964.140625
4875,-13.364434,-24.235306,0.604536,0.245517,-0.194485,1.342642,100964.140625
4890,-20.712238,4.240131,-6.281188,-0.180703,-0.667530,1.268679,100964.218750
4901,-12.793417,11.028890,2.845509,-1.923895,-0.854301,2.520201,100964.226562
4915,-9.472659,4.868609,5.262455,-1.755748,-0.984668,2.773485,100964.226562
4930,-11.617864,1.983596,2.990358,-0.467510,-0.960191,2.147724,100964.265625
4945,-7.371747,-0.442927,5.530606,-0.351510,-1.000631,1.845486,100964.218750
4955,-8.675390,0.811634,5.345055,-0.342465,-1.072998,1.624128,100964.218750
4965,-9.740809,0.773327,4.419696,-0.436648,-1.017126,1.571449,100964.179688
4981,-10.508151,1.316811,4.197036,-0.279676,-0.799494,1.434697,100964.289062
4990,-10.860099,2.176329,3.810372,0.130581,-0.631347,1.310715,100964.289062
5005,-10.350134,1.704672,4.040215,0.857975,-0.396154,1.143633,100964.554688
5021,-9.914390,-0.260968,1.381454,1.383700,-0.207788,0.911101,100964.546875
5030,-9.455899,-1.687912,-0.088585,1.329424,-0.211512,0.820110,100964.546875
5045,-9.654618,-3.444059,-0.198719,0.780819,-0.398815,0.770624,100964.562500
5061,-9.639056,-2.068590,1.941698,0.179535,-0.518008,0.766367,100964.578125
5070,-9.275137,-0.882263,2.901772,-0.005639,-0.506301,0.732312,100964.578125
5085,-9.346964,-0.183156,3.875015,0.050765,-0.421696,0.638129,100964.726562
5095,-9.437943,-0.275333,3.876213,0.242324,-0.334962,0.573743,100964.726562
5105,-9.441534,-0.537498,3.926491,0.463150,-0.256210,0.522129,100964.843750
5115,-9.399636,-0.940921,3.466804,0.666948,-0.191824,0.490734,100964.843750
5125,-9.163807,-1.580173,2.552219,0.786140,-0.157769,0.476367,100964.734375
5141,-9.336189,-2.358289,1.655591,0.738783,-0.181714,0.477964,100964.625000
5155,-9.392453,-2.444480,1.413776,0.473260,-0.252485,0.533303,100964.625000
5165,-9.258378,-1.620875,2.193089,0.189645,-0.316870,0.598752,100964.773438
5181,-9.206903,-0.621295,3.445256,0.128453,-0.332301,0.636532,100964.851562
5195,-9.198523,-0.423774,3.740940,0.319480,-0.291329,0.650367,100964.851562
5205,-9.196129,-1.162385,3.005920,0.479645,-0.252485,0.658349,100964.851562
5215,-9.342175,-1.830367,2.404976,0.475920,-0.250356,0.689743,100964.851562
5230,-9.661801,-1.881842,2.464831,0.304581,-0.276962,0.777541,100964.781250
5241,-10.008960,-1.504756,2.886210,0.207737,-0.302503,0.837138,100964.718750
5250,-10.031705,-0.910994,2.788048,0.190177,-0.312613,0.890881,100964.718750
5281,-9.433155,-0.931344,2.572570,0.396104,-0.338154,0.989853,100964.757812
5290,-9.986216,-0.818817,3.598485,0.427498,-0.344540,1.039871,100964.757812
5315,-9.720459,0.058658,3.323152,0.401957,-0.361567,1.107449,100964.679688
5325,-10.262746,0.553061,3.106477,0.427498,-0.358375,1.129266,100964.437500
5345,-10.370484,0.304064,3.184288,0.505186,-0.338687,1.183009,100964.226562
5361,-10.348937,0.023942,3.366248,0.582342,-0.334430,1.270275,100964.226562
5370,-10.749966,0.029928,3.244143,0.591920,-0.331769,1.326147,100964.296875
5395,-11.281479,0.433351,2.995146,0.633957,-0.327512,1.476734,100964.304688
5405,-11.414356,0.440533,2.577358,0.650452,-0.326980,1.573578,100964.335938
5415,-11.613075,0.369904,2.393005,0.639278,-0.318998,1.666697,100964.335938
5425,-12.017695,0.231040,2.108095,0.596709,-0.311549,1.770458,100964.250000
5441,-12.057199,0.302867,2.464831,0.509443,-0.295586,1.942330,100964.250000
5450,-11.957840,0.159214,2.773683,0.470067,-0.282815,2.075889,100964.179688
5470,-13.512875,0.831985,3.738546,0.484434,-0.304632,2.269045,100964.250000
5480,-13.722367,0.852336,3.940856,0.610012,-0.307292,2.341944,100964.250000
5490,-13.414712,0.022745,3.643975,0.788269,-0.304099,2.436127,100964.390625
5510,-15.322891,-1.623269,3.142390,0.982489,-0.282815,2.642054,100964.351562
5520,-16.180016,-2.987964,4.361038,1.005902,-0.241843,2.755393,100964.351562
5530,-17.068264,-3.301604,5.330690,1.121369,-0.241843,2.838403,100964.234375
5540,-18.622101,-4.774038,6.234501,1.423608,-0.271109,2.885760,100964.234375
5555,-19.545065,-9.799467,6.022614,2.300525,-0.234393,2.929925,100964.140625
5575,-18.340782,-10.524911,2.407370,3.164139,-0.106155,2.929393,100964.257812
5585,-18.901026,-6.408081,0.788889,3.073680,0.027937,2.949081,100964.156250
5595,-19.410990,0.695516,-0.344765,2.331919,0.141809,3.236953,100964.156250
5605,-16.558298,4.599261,1.322796,1.154892,0.185442,3.846750,100964.125000
5620,-11.921927,3.026271,5.598841,-0.239235,-0.132228,4.324585,100964.125000
5630,-11.700463,0.464475,3.111265,-0.375987,-0.144466,3.881870,100964.007812
5645,-7.593211,-1.622072,2.668338,-0.674501,0.083809,3.080513,100963.789062
5660,-2.826355,-1.370680,2.094927,-1.170427,0.176928,1.868366,100963.789062
5675,-2.389413,-3.901352,2.642002,-0.842648,0.251423,0.738697,100964.054688
5695,-2.290054,-2.707842,-0.338780,0.135370,0.512689,-0.503779,100964.078125
5705,-1.015141,-2.446874,-0.928950,0.147076,0.643588,-0.912439,100964.062500
5720,0.092177,-1.769315,-0.530316,-0.193474,0.705845,-1.535540,100964.062500
5730,-0.227449,-1.632846,-0.840365,-0.451015,0.763313,-1.925576,100964.101562
5740,-1.555034,-2.141613,-1.249773,-0.730905,0.828762,-2.291668,100964.101562
5755,-3.685874,-2.203863,-1.448492,-1.235877,0.925606,-2.788126,100964.132812
5770,-4.880580,-1.757344,-0.981623,-1.737124,0.997441,-3.206897,100964.125000
5780,-5.402516,-1.588553,-0.480037,-1.997326,1.020854,-3.443685,100964.125000
5795,-5.900510,-1.071405,0.555455,-2.265509,1.053845,-3.713465,100964.078125
5805,-6.339846,-0.172383,1.497573,-2.439509,1.129404,-4.005593,100963.984375
5815,-6.986280,0.980426,2.254141,-2.486867,1.203900,-4.261538,100963.984375
5835,-8.664616,2.525883,3.837905,-2.277215,1.358212,-4.672859,100963.937500
5845,-10.149021,2.752135,3.830723,-1.863766,1.521569,-4.899538,100963.906250
5855,-11.210850,2.315193,3.259706,-1.419987,1.674817,-5.029904,100963.906250
5870,-12.455834,2.634819,4.016273,-0.875106,1.732817,-5.182620,100963.906250
5880,-13.339294,3.623624,5.544971,-0.519125,1.723771,-5.288510,100963.906250
5890,-14.147338,4.091691,5.965154,-0.131749,1.754633,-5.374179,100963.929688
5900,-14.597447,3.360262,5.092467,0.161443,1.780174,-5.481133,100963.929688
5915,-15.531186,2.373851,4.616021,0.158783,1.668964,-5.581170,100963.937500
5925,-16.436195,3.090914,4.893748,-0.050336,1.525826,-5.580106,100963.882812
5940,-17.172411,4.699818,5.752069,-0.247217,1.356083,-5.497629,100963.882812
5950,-17.520767,5.248090,6.428432,-0.285529,1.202835,-5.371519,100963.820312
5960,-17.542316,5.309142,6.624756,-0.147180,1.129404,-5.221464,100963.820312
5970,-16.571466,5.608418,6.473921,0.077370,1.090028,-5.002767,100964.007812
5980,-15.729905,6.282385,6.010643,0.285957,1.004359,-4.744162,100964.007812
5990,-15.230714,7.070077,5.638345,0.390251,0.855368,-4.429685,100964.054688
6005,-15.004462,8.677784,5.667076,0.362049,0.562707,-3.828933,100964.054688
6020,-14.362816,10.274716,5.433641,0.269994,0.237056,-3.019062,100964.070312
6035,-14.170083,11.942278,4.844667,0.181664,0.022084,-2.132567,100964.171875
6050,-13.207614,13.618219,4.753687,0.027884,-0.191292,-0.838476,100964.273438
6070,-12.840104,11.609484,4.850653,-0.141327,-0.450962,1.071266,100964.390625
6080,-14.129381,11.909956,2.624045,-0.311070,-0.566962,1.736403,100964.390625
6090,-14.589068,1.461660,-4.155137,-0.680886,-0.507897,2.422293,100964.484375
6100,-14.459781,-23.889345,2.849100,-0.721859,-0.313145,2.505302,100964.484375
6115,-20.655975,-16.746244,-0.986411,0.430691,-0.595163,1.654458,100964.375000
6130,-16.462530,9.266758,-2.755726,-0.893198,-0.879842,2.464329,100964.421875
6150,-7.967903,2.048239,4.461595,-1.069326,-1.148026,2.898531,100964.460938
6160,-8.528147,1.380257,3.377022,-0.378648,-1.065548,2.323852,100964.460938
6175,-7.180211,0.746991,6.664260,-0.384501,-1.075126,1.975320,100964.515625
6185,-9.987412,2.120066,7.460332,-0.460061,-1.143237,1.707669,100964.515625
6200,-14.092271,2.347515,3.490746,-0.308942,-0.897402,1.646477,100964.515625
6210,-11.851298,2.188300,2.971204,0.080031,-0.608998,1.629981,100964.578125
6220,-9.708488,2.501941,4.053383,0.602562,-0.482888,1.519835,100964.578125
6230,-9.071630,1.586159,2.880225,1.061241,-0.391365,1.358073,100964.601562
6240,-8.820239,0.523133,0.774524,1.222470,-0.304632,1.179816,100964.601562
6250,-9.402030,-0.902614,-0.254982,1.067626,-0.374338,1.030826,100964.625000
6260,-10.475829,-2.843115,-0.026336,0.728672,-0.492998,0.969101,100964.625000
6270,-10.251971,-3.541024,1.243788,0.341297,-0.546209,0.980275,100964.750000
6285,-9.415198,-1.792060,2.063802,-0.004043,-0.560044,0.983468,100964.750000
6295,-8.832211,-0.084994,3.143587,-0.207841,-0.552063,0.943560,100964.914062
6305,-9.519346,0.592565,4.270059,-0.151969,-0.511622,0.865872,100964.914062
6315,-9.433155,0.367510,4.680665,0.126856,-0.415310,0.812661,100964.718750
6329,-9.592369,-0.110133,3.944447,0.545095,-0.296118,0.735505,100964.625000
6340,-9.460688,-0.962469,2.582147,0.785608,-0.228008,0.679101,100964.625000
6350,-9.435549,-1.655591,1.589750,0.743572,-0.237054,0.663138,100964.539062
6365,-9.448717,-1.862689,1.167173,0.498801,-0.300375,0.692404,100964.539062
6375,-9.599552,-1.273715,1.742979,0.218911,-0.366888,0.731780,100964.726562
6390,-9.589975,0.457293,3.518279,0.156122,-0.402008,0.730716,100964.742188
6400,-9.027337,0.973243,4.240131,0.316287,-0.378595,0.713156,100964.742188
6410,-8.531737,0.715866,4.253299,0.550948,-0.324320,0.674844,100964.679688
6420,-9.629479,-1.073799,3.062184,0.685039,-0.308356,0.642918,100964.679688
6430,-9.595961,-1.283292,2.194286,0.613737,-0.276430,0.653028,100964.593750
6440,-9.639056,-0.866701,2.224213,0.457829,-0.286540,0.694000,100964.593750
6449,-9.589975,-0.268151,2.549825,0.316287,-0.298778,0.729652,100964.515625
6460,-9.509769,0.058658,2.920926,0.252966,-0.304632,0.746147,100964.515625
6475,-9.777920,0.271742,3.298013,0.286489,-0.313145,0.763174,100964.695312
6490,-10.032902,0.316035,3.132813,0.375352,-0.317402,0.765835,100964.773438
6510,-10.247183,0.201113,2.764106,0.479645,-0.322191,0.800422,100964.703125
6520,-10.232818,-0.068235,3.025074,0.482306,-0.336026,0.836606,100964.703125
6530,-10.263943,-0.089783,3.098097,0.479645,-0.349861,0.876514,100964.601562
6550,-10.098742,0.296881,3.009511,0.515296,-0.364228,0.980807,100964.507812
6560,-10.285490,0.330400,3.114856,0.557333,-0.363164,1.043064,100964.507812
6570,-10.406398,-0.171185,2.936488,0.595645,-0.358375,1.128202,100964.648438
6580,-10.649409,-0.333991,3.102885,0.607884,-0.362099,1.226642,100964.648438
6590,-10.571598,-0.454898,3.178303,0.595113,-0.365824,1.348495,100964.617188
6600,-11.257536,-0.071826,3.132813,0.566911,-0.381255,1.465559,100964.617188
6609,-12.024879,0.628478,2.941277,0.540838,-0.388173,1.557082,100964.695312
6620,-12.016499,0.671574,2.482787,0.555205,-0.380191,1.649669,100964.695312
6630,-11.832145,0.354342,2.276886,0.574361,-0.369549,1.753963,100964.695312
6640,-11.932701,-0.034716,1.938106,0.556269,-0.365824,1.880073,100964.695312
6655,-12.378023,-0.130484,2.128445,0.462085,-0.350393,2.074825,100964.687500
6665,-12.746730,-0.004788,3.017891,0.368434,-0.335494,2.273834,100964.687500
6680,-13.384785,0.155623,3.980360,0.403021,-0.351457,2.475504,100964.710938
6690,-13.687651,0.043096,4.288015,0.540838,-0.369017,2.595760,100964.765625
6700,-14.356831,-0.350751,4.174291,0.727608,-0.390833,2.718678,100964.765625
6710,-15.388731,-1.369483,3.730166,0.929810,-0.404136,2.851173,100964.671875
6724,-17.800890,-2.828749,4.553771,1.117645,-0.370613,3.009742,100964.671875
6734,-20.257341,-4.879383,5.762844,1.310801,-0.341879,3.150219,100964.531250
6749,-22.839487,-8.213309,6.501455,1.878562,-0.367420,3.199173,100964.406250
6765,-20.705057,-12.073959,4.012682,3.250873,-0.191824,3.209815,100964.406250
6775,-19.147629,-9.878476,1.200692,3.760634,-0.098173,3.079980,100964.539062
6790,-18.272547,-0.758962,-0.993594,3.118377,0.049221,3.075723,100964.578125
6800,-15.389929,4.198233,-0.134075,1.929112,0.085405,3.529081,100964.578125
6810,-13.047202,4.740520,2.843115,0.665883,-0.002393,3.982970,100964.578125
6820,-10.929531,2.492364,4.605247,-0.095566,-0.276430,4.067044,100964.578125
6830,-9.976639,-1.254562,2.662352,-0.361088,-0.259402,3.615283,100964.578125
6849,-6.196194,-1.240196,2.232593,-0.869785,0.059332,2.615448,100964.554688
6860,-3.258508,0.922965,1.952471,-1.266739,0.115735,1.694366,100964.531250
6875,-2.015918,-2.772485,2.643199,-0.994831,0.227478,0.649835,100964.570312
6890,-2.176329,-2.754529,0.298078,-0.303088,0.431808,-0.405871,100964.570312
6900,-0.944513,-2.772485,-0.814029,-0.201455,0.551001,-0.802825,100964.578125
6914,0.294487,-1.936909,-0.610521,-0.519657,0.652634,-1.325889,100964.585938
6929,-0.008380,-1.301249,-0.373495,-0.984721,0.723405,-1.788292,100964.585938
6940,-1.080982,-1.626860,-0.211887,-1.294941,0.758524,-2.093191,100964.320312
6949,-2.268506,-1.808819,0.038307,-1.589730,0.798432,-2.414585,100964.320312
6960,-3.481169,-1.637634,0.320823,-1.803638,0.858560,-2.742365,100964.085938
6974,-4.847061,-0.788889,0.794875,-1.869619,0.966047,-3.129740,100964.132812
6984,-5.564125,-0.107739,1.086968,-1.812684,1.075129,-3.460181,100964.132812
7000,-6.166266,0.664391,1.617283,-1.704665,1.194322,-3.765079,100964.195312
7014,-6.933608,1.827973,2.047042,-1.556207,1.380028,-4.126382,100964.148438
7034,-7.897274,2.009932,2.686294,-1.293877,1.542854,-4.536639,100964.039062
7050,-9.554062,1.110910,2.919729,-0.751657,1.705147,-4.992125,100964.039062
7060,-10.621876,1.067814,2.737770,-0.464850,1.761019,-5.192198,100963.929688
7069,-11.517307,1.611298,2.936488,-0.253070,1.739734,-5.343317,100963.929688
7080,-12.404359,2.257732,3.749320,-0.059914,1.672156,-5.459317,100963.937500
7094,-14.713567,3.060987,4.304775,0.229553,1.597661,-5.593409,100963.960938
7104,-15.186421,3.306392,4.368221,0.271590,1.559349,-5.631188,100963.960938
7120,-16.177620,2.948459,4.236540,0.100783,1.391202,-5.648748,100963.890625
7134,-17.225084,3.512294,4.414908,-0.204648,1.199643,-5.640767,100963.812500
7149,-17.653646,4.043807,5.244499,-0.402061,1.057570,-5.494436,100963.812500
7164,-17.701530,5.001487,6.417658,-0.415896,0.926670,-5.181556,100963.734375
7180,-16.436195,6.379351,6.534974,-0.125364,0.823441,-4.817593,100963.906250
7189,-15.715540,7.261614,6.191406,0.096526,0.699460,-4.526529,100963.906250
7200,-15.333665,8.014590,5.470751,0.239131,0.560047,-4.176401,100963.914062
7209,-15.206772,8.802282,5.070919,0.278508,0.407863,-3.750713,100963.914062
7220,-15.102624,9.880871,4.905719,0.246049,0.253020,-3.213814,100963.867188
7229,-14.501679,11.197681,4.817134,0.166765,0.109350,-2.550805,100963.867188
7240,-13.921085,12.631808,5.024232,0.077370,-0.039641,-1.801062,100963.796875
7254,-12.679692,13.808558,5.370194,0.015645,-0.226943,-0.581467,100963.679688
7264,-12.399570,12.978968,5.282806,0.004471,-0.327512,0.243835,100963.679688
7274,-12.386402,10.313024,5.124789,-0.043419,-0.438723,0.996771,100963.859375
7284,-13.535620,10.098742,3.175909,-0.158887,-0.543549,1.598587,100963.859375
7294,-14.122199,4.078523,-1.875857,-0.498905,-0.552595,2.205724,100964.015625
7309,-13.107058,-19.663578,1.083376,-0.431859,-0.309420,2.176990,100964.015625
7324,-25.281572,-2.551022,-8.736442,0.881920,-0.603677,1.328807,100964.007812
7340,-11.923124,12.206838,1.033098,-1.466280,-0.880374,3.079980,100964.031250
7349,-6.971915,5.069722,6.007052,-1.567913,-0.985200,3.202366,100964.031250
7360,-9.607931,2.770091,5.386954,-0.529235,-1.080448,2.575008,100964.046875
7374,-8.117541,1.009156,5.954380,0.042251,-1.038943,2.169540,100964.164062
7389,-9.889250,1.521515,5.438429,-0.245621,-1.160796,1.807174,100964.164062
7409,-11.735180,1.752556,2.970007,-0.390354,-0.863879,1.663504,100964.265625
7419,-12.079945,3.690662,4.116830,0.040122,-0.634007,1.483119,100964.210938
7429,-10.010158,2.452860,4.781221,0.606819,-0.431274,1.424055,100964.210938
7440,-9.218874,0.559046,3.155558,1.141057,-0.305696,1.269743,100964.289062
7454,-8.974665,-1.182736,0.221464,1.285259,-0.249824,1.035082,100964.367188
7469,-9.974244,-3.169923,0.980426,0.745700,-0.372742,0.921211,100964.367188
7484,-9.267955,-3.135207,1.321599,0.214654,-0.417439,0.944092,100964.562500
7500,-9.576807,-1.252167,2.983175,-0.229125,-0.469053,0.893009,100964.703125
7509,-9.563639,0.110133,4.073734,-0.219547,-0.427017,0.848844,100964.703125
7520,-9.385271,0.592565,4.607641,0.045444,-0.354118,0.799890,100964.734375
7534,-9.324219,0.120907,4.243722,0.565315,-0.230668,0.692404,100964.781250
7549,-9.156625,-1.267730,2.697068,0.846801,-0.157237,0.597688,100964.781250
7574,-9.488221,-1.936909,1.225831,0.624379,-0.206723,0.607266,100964.828125
7589,-9.713276,-0.938527,2.144008,0.161443,-0.305164,0.706239,100964.945312
7604,-9.235633,0.440533,3.712210,0.171021,-0.324320,0.726991,100964.984375
7614,-9.107543,0.325611,3.974375,0.362581,-0.310485,0.703046,100964.984375
7629,-9.142260,-0.531513,3.175909,0.617462,-0.265255,0.681230,100965.093750
7644,-9.375694,-1.252167,2.384625,0.597773,-0.248228,0.730184,100965.031250
7654,-9.543288,-1.284489,2.394202,0.459957,-0.259934,0.785523,100965.031250
7669,-9.502586,-0.594959,2.742558,0.281168,-0.281751,0.848844,100964.968750
7684,-9.414001,-0.262165,2.852691,0.206673,-0.298778,0.881835,100965.179688
7699,-9.627085,0.119710,2.956839,0.177939,-0.299843,0.922807,100965.289062
7709,-9.917980,0.369904,3.075352,0.188049,-0.301439,0.954202,100965.289062
7720,-10.090364,0.442927,3.160346,0.245517,-0.307824,0.970697,100965.414062
7734,-10.071210,0.530316,3.107674,0.329058,-0.317402,0.988789,100965.414062
7749,-9.865308,0.457293,3.239355,0.392911,-0.331237,1.018587,100965.343750
7764,-9.949105,0.591368,3.344700,0.422177,-0.338154,1.057963,100965.281250
7779,-10.413580,0.750582,3.610456,0.498269,-0.338154,1.109046,100965.304688
7789,-10.679337,0.626084,3.165135,0.574361,-0.336026,1.145229,100965.304688
7800,-10.708067,0.587777,3.081338,0.626507,-0.338687,1.193119,100965.382812
7814,-11.002554,0.422577,2.562993,0.664287,-0.344008,1.289431,100965.382812
7829,-11.529279,0.344765,2.268506,0.640874,-0.336026,1.453853,100965.351562
7844,-11.870452,0.135272,1.969231,0.566379,-0.324852,1.649137,100965.164062
7859,-12.120646,0.193930,2.615665,0.427498,-0.311549,1.901357,100965.000000
7874,-12.587516,0.374693,3.408146,0.378544,-0.301971,2.112605,100965.000000
7884,-13.069947,0.533907,3.792415,0.426434,-0.307292,2.242972,100965.093750
7899,-14.027628,0.289698,3.857059,0.607351,-0.313145,2.431339,100965.148438
7909,-14.721947,-0.190339,3.597288,0.760599,-0.311017,2.569155,100965.148438
7920,-15.778986,-0.808043,3.070564,0.911186,-0.308356,2.726660,100965.132812
7944,-18.351557,-3.136404,4.083311,1.091039,-0.256210,3.003889,100965.140625
7964,-21.926100,-8.544906,5.297171,1.573663,-0.251421,3.258769,100965.148438
7984,-19.960459,-11.857284,3.242946,2.363846,-0.216833,3.321558,100965.164062
7999,-17.800890,-5.639542,1.470040,2.377681,-0.147659,3.167246,100965.218750
8009,-18.746599,3.824737,0.499191,1.646030,-0.077421,3.340182,100965.218750
8029,-11.604695,7.195773,5.825093,-0.031712,-0.231200,4.326714,100965.179688
8044,-11.024101,-0.082600,3.714604,-0.117914,-0.238118,3.664237,100965.140625
8054,-8.128315,-2.995146,3.493140,-0.272226,0.011442,2.966109,100965.140625
8069,-3.439271,-3.148375,1.916559,-0.573932,0.157240,2.108348,100965.101562
8084,-2.187103,-4.517859,1.686715,-0.679290,0.225882,0.871193,100965.187500
8109,-1.529895,-2.469619,-0.086191,-0.003511,0.465331,-0.488348,100965.187500
8124,0.061052,-1.595735,-0.113725,-0.150905,0.604212,-1.074733,100965.148438
8134,-0.117316,-1.552640,-0.100556,-0.335547,0.657423,-1.479668,100965.148438
8144,-0.942118,-2.013524,-0.588974,-0.569143,0.719148,-1.856934,100965.039062
8159,-2.398990,-2.483984,-0.943315,-0.959712,0.799496,-2.298053,100964.937500
8169,-3.502717,-2.506729,-0.677559,-1.382207,0.889955,-2.723209,100964.937500
8189,-4.723760,-1.392228,0.577003,-1.887711,0.974028,-3.351630,100965.101562
8209,-5.165490,-0.298078,1.793257,-1.874408,1.131533,-3.822015,100965.015625
8220,-5.888539,0.493206,2.770091,-1.692959,1.310854,-4.162034,100965.007812
8234,-8.050503,0.912191,1.983596,-1.344959,1.504542,-4.566437,100965.007812
8249,-8.945934,1.705869,2.942474,-1.140097,1.518376,-4.836749,100964.875000
8259,-10.172963,3.361459,4.622006,-0.783051,1.496560,-5.026712,100964.757812
8274,-11.488577,3.581726,4.101267,0.043847,1.596597,-5.248069,100964.757812
8284,-12.342110,2.512715,3.168726,0.392379,1.615221,-5.415684,100964.757812
8294,-13.543999,1.927332,3.120842,0.499333,1.540725,-5.597134,100964.757812
8304,-14.286201,1.948880,2.817975,0.458361,1.423129,-5.736546,100964.648438
8319,-14.681245,2.883816,2.492364,0.084820,1.199643,-5.861592,100964.648438
8329,-15.164873,3.264494,3.031059,-0.288189,1.035753,-5.900436,100964.500000
8339,-16.110582,2.630031,3.354277,-0.584574,0.921349,-5.915335,100964.500000
8359,-17.569849,2.298434,4.663905,-1.012923,0.839937,-5.751445,100964.359375
8369,-18.243816,4.155137,5.802348,-1.102849,0.841533,-5.559354,100964.398438
8384,-18.533516,6.560112,6.889316,-0.942684,0.853239,-5.182088,100964.390625
8399,-17.939753,8.220491,7.155072,-0.579785,0.747350,-4.665409,100964.390625
8409,-16.711529,9.354146,7.005434,-0.313731,0.653166,-4.262602,100964.234375
8419,-15.793351,10.882844,7.056910,-0.088116,0.503643,-3.825208,100964.234375
8430,-15.100230,12.398374,7.375339,0.107168,0.319001,-3.300016,100964.226562
8449,-13.984532,14.334085,6.682217,0.337572,0.054010,-2.207062,100964.218750
8459,-13.097481,15.179238,5.807136,0.511040,-0.139145,-0.916164,100964.218750
8469,-12.558785,13.900735,5.450400,0.559994,-0.204063,-0.021155,100964.210938
8479,-12.176909,11.932701,5.208586,0.487627,-0.285476,0.788184,100964.210938
8494,-12.381614,9.034520,5.282806,0.169425,-0.481292,1.809834,100964.453125
8504,-12.524069,3.669114,0.369904,0.016710,-0.570154,2.276495,100964.453125
8519,-10.474632,-19.130869,-2.923320,-0.154630,-0.155641,2.179118,100964.640625
8529,-11.631032,-30.014910,3.557784,0.658966,-0.158833,1.043596,100964.640625
8549,-23.568521,8.530540,-5.046977,-0.283932,-0.703714,1.471945,100964.687500
8564,-6.859388,5.225345,4.400543,-2.363950,-0.914429,3.578567,100964.781250
8574,-12.121843,4.220978,5.267244,-1.201822,-1.112374,2.702182,100964.867188
8589,-8.107965,1.635240,5.683835,-0.103015,-1.005420,2.142403,100964.867188
8604,-7.504625,0.539892,6.266823,0.126324,-1.015530,1.716183,100964.937500
8619,-10.145430,1.005565,4.407725,-0.130153,-0.999567,1.525688,100964.828125
8629,-11.256339,0.451307,3.596091,-0.296171,-0.810136,1.443211,100964.828125
8639,-11.237185,1.612495,3.547010,-0.118446,-0.589310,1.310715,100964.710938
8649,-11.039664,1.813608,4.151546,0.265205,-0.447237,1.223981,100964.710938
8669,-9.722853,0.609324,2.075773,0.998984,-0.185971,1.012202,100964.609375
8684,-9.248801,-0.980426,0.001197,1.095828,-0.212044,0.856294,100964.835938
8694,-9.921572,-2.413355,-0.132878,0.855315,-0.344540,0.783395,100964.835938
8714,-9.902418,-2.911349,1.369483,0.318948,-0.470118,0.753596,100964.976562
8729,-9.204509,-1.069011,2.856283,-0.101951,-0.473310,0.737101,100965.000000
8739,-9.156625,0.022745,4.004303,-0.105676,-0.415842,0.694000,100965.039062
8749,-9.290700,0.324414,4.774038,0.151865,-0.339219,0.621101,100965.039062
8759,-9.396045,0.153229,4.651934,0.543498,-0.253017,0.527450,100965.078125
8769,-9.130288,-0.638055,3.712210,0.864360,-0.169476,0.467321,100965.078125
8784,-9.312247,-1.623269,2.049437,1.014948,-0.140210,0.412514,100965.250000
8794,-9.636662,-2.481590,0.931344,0.882452,-0.170008,0.418899,100965.250000
8809,-9.690532,-2.592921,1.047463,0.549884,-0.245567,0.474771,100965.257812
8819,-9.721656,-1.711854,2.636016,0.250306,-0.309420,0.527450,100965.218750
8829,-9.311050,-0.909797,3.829526,0.234342,-0.316338,0.565230,100965.218750
8839,-8.927979,-0.536301,4.128801,0.375352,-0.290797,0.579064,100965.117188
8849,-8.756793,-0.834379,3.679888,0.535517,-0.259934,0.580661,100965.117188
8859,-9.202114,-1.343147,3.041833,0.601498,-0.241310,0.612587,100965.031250
8874,-9.701305,-1.671153,2.287660,0.490819,-0.248760,0.699321,100965.031250
8889,-9.848549,-1.079785,2.658761,0.356196,-0.273237,0.753064,100965.117188
8899,-9.762358,-0.475249,3.139996,0.305113,-0.289732,0.804147,100965.164062
8909,-9.700109,-0.533907,3.317167,0.346618,-0.299843,0.839266,100965.164062
8924,-9.587581,-0.906205,3.302801,0.420581,-0.304099,0.885560,100965.125000
8939,-9.689334,-1.101333,3.077746,0.441333,-0.311549,0.986661,100965.085938
8954,-9.859323,-0.780510,3.139996,0.403021,-0.329641,1.072330,100965.085938
8969,-9.872491,-0.287304,3.034651,0.393443,-0.356778,1.194715,100965.054688
8979,-10.070012,-0.179565,3.125630,0.409407,-0.363696,1.256440,100965.031250
8994,-10.319010,-0.434548,3.204639,0.422177,-0.372742,1.351156,100965.031250
9009,-10.736797,-0.080206,3.216610,0.385462,-0.378063,1.448532,100965.031250
9029,-11.131841,0.901417,2.960430,0.412599,-0.369017,1.565064,100965.140625
9039,-11.423933,0.847547,2.901772,0.459957,-0.349861,1.632110,100965.023438
9049,-11.942278,0.776918,2.494758,0.516893,-0.337090,1.700752,100965.023438
9059,-12.297817,0.563834,1.963245,0.533388,-0.318466,1.785889,100964.921875
9074,-12.222400,0.074220,2.060210,0.475388,-0.292393,1.946054,100964.921875
9094,-12.628217,0.073023,2.833538,0.407810,-0.274301,2.142403,100965.085938
9109,-13.582306,0.459687,4.387374,0.477517,-0.260999,2.370146,100965.164062
9119,-13.658920,0.095768,4.759673,0.661094,-0.249292,2.469651,100965.218750
9134,-14.075512,-0.693121,4.323928,0.940452,-0.250888,2.600549,100965.218750
9144,-15.286978,-1.649605,3.643975,1.187883,-0.254613,2.750604,100965.257812
9159,-18.436550,-2.907758,3.497929,1.417755,-0.181714,2.949081,100965.296875
9169,-20.245369,-5.103241,4.483143,1.557167,-0.109347,3.084237,100965.296875
9179,-21.341913,-7.559692,5.106832,1.856745,-0.107219,3.143301,100965.382812
9194,-21.121647,-10.723629,5.195418,2.452708,-0.108283,3.127338,100965.382812
9209,-18.312052,-10.991780,2.406173,3.324304,-0.031127,3.092751,100965.554688
9219,-18.197130,-8.002619,-0.015562,3.116249,0.084341,3.191723,100965.484375
9229,-20.687099,-2.290054,-1.999158,2.086617,0.255148,3.525888,100965.484375
9249,-13.809755,1.507150,3.423708,-0.441969,0.057735,4.541686,100965.289062
9259,-8.576031,1.435324,5.134366,-1.241730,-0.331769,4.333099,100965.109375
9269,-9.615114,0.797269,3.624821,-1.227363,-0.301439,3.498219,100965.109375
9289,-3.928885,-0.332794,4.104859,-1.270464,0.044432,2.206256,100965.234375
9304,-3.102885,-2.005144,2.610877,-0.961308,0.221093,1.007413,100965.140625
9319,-2.840720,-3.761291,2.120066,-0.252538,0.461074,-0.122256,100965.101562
9334,-1.364695,-3.114856,-0.351948,0.337040,0.725001,-0.985338,100965.101562
9344,-0.065841,-2.647987,-0.703895,0.210398,0.832487,-1.354090,100964.898438
9354,0.490811,-2.252944,-0.287304,-0.046611,0.881973,-1.738806,100964.898438
9374,-1.128866,-2.020706,-0.197522,-0.492519,0.966047,-2.377337,100964.726562
9384,-2.960430,-2.116474,-0.410606,-0.836262,1.039478,-2.812603,100965.000000
9399,-4.390966,-1.604115,-0.172383,-1.197033,1.147496,-3.328218,100964.992188
9409,-4.735731,-1.054646,0.202310,-1.355601,1.185808,-3.630988,100964.992188
9419,-5.227739,-0.430956,0.979228,-1.455106,1.197514,-3.882676,100964.859375
9429,-5.258864,-0.214281,1.849521,-1.454042,1.236890,-4.115208,100964.859375
9439,-5.340267,-0.123301,2.788048,-1.376354,1.303936,-4.358914,100964.765625
9454,-6.659472,-0.059855,2.649184,-1.200758,1.384817,-4.718088,100964.765625
9469,-9.340978,0.251391,1.920150,-1.152336,1.386945,-5.084180,100964.687500
9489,-11.998542,2.561796,4.149151,-1.108170,1.257643,-5.252859,100964.609375
9499,-12.840104,3.253720,4.948815,-0.739950,1.293826,-5.276271,100964.609375
9509,-14.107834,3.015497,4.456807,-0.422281,1.344909,-5.363005,100964.515625
9519,-15.770607,3.526659,4.643554,-0.299364,1.295423,-5.470491,100964.515625
9534,-16.001648,4.147954,5.333084,-0.360556,1.191129,-5.518913,100964.335938
9544,-15.692795,4.965574,5.773617,-0.469107,1.059698,-5.532748,100964.171875
9554,-16.235083,5.755661,5.823895,-0.512208,0.903790,-5.521042,100964.171875
9564,-16.579847,5.659893,5.396531,-0.539877,0.773423,-5.485391,100964.187500
9574,-16.651672,4.818331,5.106832,-0.547327,0.690946,-5.388014,100964.187500
9589,-16.541540,4.929661,4.999093,-0.480813,0.674450,-5.185280,100964.085938
9609,-16.350004,6.704962,5.580884,-0.241896,0.665937,-4.788859,100964.109375
9629,-16.077065,6.995857,4.958392,-0.007767,0.485551,-4.132767,100964.007812
9639,-15.411476,7.790732,4.793192,-0.039694,0.343478,-3.682070,100964.007812
9654,-14.645331,9.657013,4.582502,-0.162079,0.135955,-2.942438,100963.921875
9669,-13.885173,12.233173,4.799177,-0.305217,-0.076356,-1.865448,100964.062500
9679,-13.063962,13.601460,5.335478,-0.302024,-0.173733,-0.878916,100964.062500
9694,-11.955446,12.709620,5.608418,-0.201455,-0.249824,0.095909,100964.179688
9704,-12.259510,9.824607,5.744887,-0.137070,-0.373274,0.960055,100964.195312
9714,-13.162124,8.991425,3.847482,-0.118978,-0.493530,1.501211,100964.195312
9729,-13.075933,-4.479551,-5.503073,-0.502097,-0.357310,2.240311,100964.109375
9744,-15.417461,-26.633101,6.204574,0.088544,-0.295586,1.540055,100964.031250
9759,-25.153482,3.711013,-9.419987,0.413131,-0.670723,1.495890,100964.031250
9768,-12.690466,11.469423,0.742203,-1.437546,-0.775017,2.915558,100964.187500
9779,-5.609614,5.523423,7.012617,-1.620060,-0.941035,3.229503,100964.187500
9789,-10.504560,2.778471,5.287594,-0.561694,-1.110778,2.625026,100964.203125
9804,-8.315063,-2.460042,5.324705,-0.096630,-0.943695,2.324384,100964.218750
9819,-8.354567,-0.945710,5.426458,-0.563822,-1.142704,2.033853,100964.218750
9834,-9.582792,1.112107,3.925294,-1.060281,-1.046393,1.960421,100964.125000
9844,-11.178528,3.101688,4.827908,-1.077840,-0.852172,1.794935,100963.953125
9859,-11.625047,4.665102,4.681861,-0.180703,-0.509494,1.553890,100963.953125
9874,-10.377667,3.082535,3.892972,0.714305,-0.274833,1.354880,100964.078125
9884,-9.360131,0.930147,1.659182,1.403388,-0.124246,1.091486,100964.125000
9894,-8.632295,-0.375890,-0.196325,1.506617,-0.129035,0.954202,100964.125000
9909,-9.920375,-3.320758,-1.346738,1.077204,-0.293989,0.845119,100964.125000
9924,-9.852140,-3.087323,1.297657,0.123664,-0.527053,0.803083,100964.218750
9934,-8.898050,-1.374272,2.558204,-0.182832,-0.557384,0.813725,100964.218750
9949,-8.840590,0.296881,3.718195,-0.227529,-0.522797,0.729652,100964.296875
9959,-9.271546,1.312023,4.687847,0.039590,-0.430742,0.606202,100964.296875
9973,-9.476251,0.755371,4.704607,0.573296,-0.290265,0.483285,100964.375000
9984,-9.467871,-0.494403,3.405752,1.056984,-0.161494,0.396019,100964.382812
9998,-9.482236,-2.115277,1.848324,1.187351,-0.119989,0.394422,100964.382812
10013,-9.384073,-3.816358,0.306458,0.890434,-0.185971,0.466257,100964.367188
10024,-9.548077,-3.414132,0.335188,0.325333,-0.305164,0.559376,100964.328125
10034,-9.504981,-1.713051,2.414552,-0.072685,-0.383384,0.650899,100964.328125
10044,-9.147048,0.093374,4.181473,-0.127492,-0.394026,0.706771,100964.289062
10054,-9.137471,0.794875,4.902128,0.117278,-0.348265,0.697193,100964.289062
10078,-9.569624,-1.717840,2.244564,0.719627,-0.220026,0.673780,100964.312500
10089,-9.722853,-2.080561,1.732205,0.590856,-0.233861,0.728055,100964.437500
10098,-9.860519,-1.963245,2.292448,0.376416,-0.265787,0.802018,100964.437500
10113,-9.879673,-1.128866,2.820370,0.223168,-0.299310,0.876514,100964.351562
10123,-9.963470,-0.415394,3.502717,0.207737,-0.318466,0.931853,100964.351562
10134,-9.976639,-0.402226,3.545813,0.306177,-0.319531,0.972826,100964.335938
10164,-9.878476,-0.652420,2.950854,0.432819,-0.335494,1.101596,100964.312500
10178,-10.255563,0.148441,3.409343,0.403553,-0.353586,1.222917,100964.492188
10193,-10.625467,0.468066,3.581726,0.483902,-0.337090,1.277192,100964.406250
10209,-10.589554,0.050278,3.440468,0.647792,-0.314742,1.362330,100964.414062
10218,-10.906786,-0.175974,3.023877,0.699939,-0.310485,1.421394,100964.414062
10233,-11.353305,-0.219069,2.572570,0.688232,-0.302503,1.535798,100964.460938
10249,-11.749545,0.027533,2.238579,0.630764,-0.295586,1.731614,100964.507812
10258,-12.107478,0.235829,1.928530,0.585535,-0.295586,1.853467,100964.507812
10268,-12.297817,0.311246,2.304419,0.527535,-0.289200,1.983302,100964.609375
10283,-12.789825,0.061052,2.608483,0.477517,-0.273237,2.146660,100964.609375
10293,-13.239936,0.026336,2.756923,0.437608,-0.256210,2.306293,100964.515625
10308,-13.820529,0.104148,3.141193,0.455700,-0.254613,2.442513,100964.500000
10324,-14.532804,-0.189142,3.053804,0.589792,-0.274833,2.630880,100964.500000
10339,-15.504850,-0.948104,2.753332,0.720691,-0.261531,2.779871,100964.390625
10348,-16.699556,-2.820370,3.082535,0.793590,-0.207255,2.966641,100964.289062
10364,-17.286137,-4.650737,4.569334,0.812214,-0.172668,3.164054,100964.289062
10374,-19.269732,-5.270835,5.712565,0.917571,-0.199274,3.220989,100964.351562
10384,-20.623653,-8.492233,7.910442,1.255993,-0.204063,3.273136,100964.351562
10394,-19.132067,-11.811794,8.336611,1.930176,-0.193421,3.282182,100964.359375
10408,-17.150864,-10.018537,5.062540,2.800708,-0.161494,3.106586,100964.296875
10418,-17.117346,-3.852271,2.765303,3.193937,-0.113604,2.973026,100964.296875
10428,-17.634493,2.212242,1.312023,2.983222,-0.015164,3.152879,100964.210938
10438,-15.965734,4.983531,0.907402,2.276580,0.125313,3.600916,100964.210938
10448,-13.178884,2.917335,3.313575,1.351773,0.105093,3.993081,100964.132812
10468,-10.129868,-1.978808,2.261323,0.660562,-0.093916,3.631246,100964.140625
10483,-4.666299,-2.273294,1.485602,-0.449951,-0.072632,2.499981,100964.140625
10493,-2.893393,-1.388637,1.017536,-0.897987,0.006121,1.902954,100964.257812
10503,-2.616863,-2.560599,1.440112,-0.986317,0.019423,1.223449,100964.257812
10513,-2.349909,-3.740940,2.233790,-0.729840,0.014634,0.439120,100964.296875
10528,-3.227384,-2.670732,0.266953,-0.201988,0.123185,-0.354788,100964.062500
10538,-1.078588,-2.477999,-1.495179,-0.168465,0.270579,-0.862421,100964.062500
10548,0.234632,-2.728193,-1.389834,-0.530831,0.274836,-1.282256,100963.859375
10564,-0.961272,-3.782839,-2.036268,-1.192244,0.281221,-1.909081,100963.859375
10574,-2.328361,-4.307169,-2.223016,-1.647198,0.349331,-2.289539,100964.007812
10583,-3.819949,-3.921702,-1.756147,-2.082995,0.403074,-2.646053,100964.007812
10593,-5.181053,-2.956839,-1.001973,-2.469307,0.452561,-2.969043,100964.015625
10603,-6.333860,-1.547851,-0.161609,-2.738023,0.538762,-3.264364,100964.015625
10613,-6.627151,-0.225055,0.966060,-2.833802,0.643588,-3.534676,100963.929688
10623,-6.882133,0.543484,1.574188,-2.783784,0.802157,-3.795942,100963.929688
10638,-7.752425,1.393425,2.446874,-2.617766,1.133661,-4.164162,100963.765625
10653,-9.062054,2.987964,3.264494,-2.249546,1.426854,-4.578675,100963.617188
10678,-10.826580,3.268085,3.562572,-1.137969,1.686523,-5.021923,100963.640625
10693,-11.451467,2.281674,2.697068,-0.548923,1.798798,-5.252326,100963.609375
10708,-13.142970,2.864662,3.470395,-0.318520,1.824872,-5.486454,100963.484375
10718,-13.991714,3.111265,3.706224,-0.165272,1.835514,-5.639702,100963.484375
10748,-15.459360,3.487155,3.867833,-0.112061,1.770597,-5.795610,100963.250000
10763,-17.696741,5.426458,5.099649,-0.355767,1.648743,-5.699831,100963.250000
10780,-18.422186,6.508637,6.373365,-0.234446,1.610432,-5.487519,100963.343750
10788,-18.242620,7.751228,7.304709,0.097058,1.554028,-5.229978,100963.414062
10798,-16.499641,7.829040,6.959944,0.421113,1.458248,-4.964987,100963.414062
10808,-14.960170,7.791929,6.245275,0.589260,1.252322,-4.639336,100963.500000
10818,-14.543578,8.263587,5.826290,0.531792,0.967111,-4.233336,100963.500000
10833,-14.811728,9.740809,5.289989,0.274783,0.552065,-3.452731,100963.335938
10848,-14.568717,11.376049,5.073313,0.132177,0.306763,-2.665741,100963.195312
10858,-13.454216,12.703634,5.422867,0.116214,0.154579,-1.793081,100963.195312
10868,-12.534843,12.727576,5.653907,0.196563,0.073166,-1.056641,100963.195312
10878,-11.599907,11.362882,5.687426,0.251370,-0.016760,-0.319669,100963.328125
10898,-12.175713,8.129512,5.540183,0.090141,-0.276962,0.790844,100963.460938
10913,-13.388376,7.521385,3.353080,-0.393015,-0.510558,1.649669,100963.546875
10933,-16.406267,-14.931438,1.051055,-0.823492,-0.411586,2.132825,100963.539062
10948,-23.763649,-1.808819,-6.279991,-0.000318,-0.620173,1.860917,100963.539062
10963,-8.769960,8.019379,1.899799,-1.659968,-0.902723,3.204494,100963.523438
10978,-6.821081,3.502717,4.812346,-1.553546,-1.095347,3.002824,100963.671875
10988,-8.257602,1.759738,3.791218,-0.700574,-1.092686,2.510623,100963.671875
10998,-6.641516,1.405396,6.555324,-0.526042,-1.167714,2.305228,100963.804688
11008,-9.410410,3.955221,7.325060,-0.620758,-1.395989,2.038109,100963.804688
11023,-12.389994,2.901772,2.681506,-0.728776,-1.098007,1.957761,100963.796875
11033,-12.491747,3.974375,3.658340,-0.596813,-0.911769,1.781100,100963.750000
11043,-12.352883,4.503493,4.264073,-0.026923,-0.788851,1.563468,100963.750000
11053,-10.262746,2.693477,4.368221,0.646195,-0.580796,1.443211,100963.710938
11063,-9.147048,0.888249,3.977966,1.209700,-0.418503,1.309119,100963.710938
11078,-9.012972,-0.729034,2.082955,1.536947,-0.313677,1.175027,100963.796875
11088,-9.027337,-1.693898,0.697910,1.357094,-0.296118,1.082972,100963.796875
11103,-10.256760,-2.679112,1.181539,0.724416,-0.372209,0.972294,100963.843750
11113,-9.986216,-2.395399,1.237802,0.391315,-0.396686,0.941431,100963.859375
11128,-9.404425,-1.126472,1.751359,0.053425,-0.419035,0.911101,100963.859375
11143,-9.215282,0.603339,3.460819,-0.066832,-0.420099,0.826495,100963.898438
11158,-9.345766,1.017536,3.763685,0.279572,-0.370613,0.712092,100963.929688
11173,-9.425972,0.481235,3.430891,0.599902,-0.324852,0.614716,100964.187500
11188,-9.346964,-0.709881,2.389413,0.782948,-0.288136,0.519468,100964.187500
11198,-9.373300,-1.144428,1.683124,0.701003,-0.295054,0.510954,100964.250000
11213,-9.512163,-0.981623,1.813608,0.503058,-0.324320,0.529046,100964.226562
11228,-9.429564,-0.141258,2.829947,0.319480,-0.357310,0.572147,100964.226562
11238,-9.220071,0.408211,3.551798,0.343957,-0.350925,0.575872,100964.195312
11253,-9.165004,0.177171,3.699042,0.473260,-0.324320,0.557780,100964.164062
11268,-9.473856,-0.581791,2.831144,0.598306,-0.281751,0.563101,100964.164062
11283,-9.850943,-0.621295,2.451663,0.496140,-0.284411,0.619505,100964.296875
11298,-9.847352,-0.105345,2.607286,0.370563,-0.298246,0.669523,100964.414062
11308,-9.941922,0.397437,3.144784,0.339168,-0.308888,0.701982,100964.414062
11318,-10.071210,0.574608,3.210624,0.401425,-0.310485,0.712092,100964.484375
11333,-10.102334,0.559046,3.272874,0.529131,-0.312613,0.721670,100964.382812
11348,-9.987412,0.158017,2.825158,0.611608,-0.331237,0.756789,100964.382812
11358,-10.026917,0.065841,3.011906,0.607884,-0.341879,0.804147,100964.289062
11368,-10.107122,0.096965,3.159149,0.598306,-0.347200,0.866404,100964.289062
11383,-10.409989,0.154426,3.359065,0.611076,-0.345072,0.950477,100964.343750
11398,-10.562021,0.167594,3.535039,0.675994,-0.343476,1.077651,100964.500000
11418,-11.165359,0.183156,3.175909,0.737186,-0.334962,1.189927,100964.585938
11433,-11.816583,0.104148,2.500744,0.762195,-0.309953,1.402238,100964.492188
11443,-12.162544,-0.094571,2.012326,0.728672,-0.293457,1.537394,100964.492188
11453,-12.381614,-0.136469,1.702277,0.665883,-0.274833,1.686917,100964.335938
11473,-12.697649,-0.055067,2.000355,0.533920,-0.251421,1.931155,100964.468750
11488,-12.992135,0.099359,2.999935,0.428563,-0.221090,2.244568,100964.468750
11498,-12.848483,-0.044293,3.489549,0.463150,-0.213641,2.383981,100964.484375
11508,-13.681665,-0.092177,3.585317,0.538709,-0.226943,2.509027,100964.484375
11518,-15.142129,-0.225055,3.235764,0.638214,-0.231732,2.629815,100964.468750
11528,-16.287754,-1.055843,3.329138,0.753150,-0.192356,2.761779,100964.468750
11538,-17.085024,-2.922123,4.229357,0.852654,-0.118393,2.923540,100964.539062
11548,-17.802086,-4.316746,4.578911,0.961737,-0.101898,3.075191,100964.539062
11558,-19.861101,-5.694609,5.382165,1.124562,-0.130100,3.177888,100964.593750
11568,-21.887793,-7.858967,6.252458,1.423608,-0.143934,3.228439,100964.593750
11578,-21.192276,-10.861296,6.440403,1.904103,-0.197677,3.265155,100964.726562
11593,-19.439720,-10.451887,3.798401,2.867222,-0.217366,3.152879,100964.750000
11603,-18.007988,-7.083246,1.420959,2.965130,-0.121054,3.183742,100964.750000
11613,-18.197130,-0.926556,0.323217,2.313295,-0.013035,3.406696,100964.656250
11623,-15.258247,3.259706,1.371878,1.262379,0.049754,3.824402,100964.656250
11638,-11.741165,4.171896,4.838682,0.255627,-0.181714,4.069705,100964.578125
11648,-9.811439,1.753753,2.889802,0.038526,-0.320063,3.725430,100964.578125
11658,-8.598776,-0.905008,3.324349,-0.073749,-0.132760,3.065081,100964.507812
11673,-4.447230,-2.442086,2.574964,-0.359492,0.050818,2.103027,100964.507812
11693,-2.900575,-5.052963,2.188300,-0.253070,0.103497,0.869596,100964.656250
11708,-2.877831,-4.029441,1.043872,0.239131,0.254616,-0.309027,100964.625000
11728,-0.866701,-2.898181,-0.770933,0.224764,0.472781,-0.985338,100964.562500
11738,-0.899023,-2.003947,-0.438139,-0.058318,0.522267,-1.505209,100964.507812
11753,-1.558625,-2.924517,-1.267730,-0.524978,0.532909,-2.027741,100964.507812
11768,-3.136404,-3.451242,-1.792060,-1.060813,0.509496,-2.487484,100964.453125
11778,-5.125986,-2.586935,-1.629254,-1.635491,0.549405,-2.927539,100964.593750
11793,-6.166266,-0.058658,-0.084994,-2.155362,0.723405,-3.330878,100964.593750
11808,-6.336255,1.319205,1.023521,-2.284665,0.908579,-3.695373,100964.671875
11818,-6.405687,1.685518,2.092532,-2.193674,1.077790,-4.083281,100964.585938
11833,-6.933608,1.358709,3.403358,-1.805234,1.247001,-4.524932,100964.585938
11848,-7.605182,1.173159,3.574543,-1.331124,1.394395,-4.821849,100964.437500
11858,-8.220491,1.246182,3.160346,-0.888941,1.516780,-5.046932,100964.304688
11868,-9.144653,1.504756,2.760514,-0.622886,1.540193,-5.215079,100964.304688
11878,-10.575189,2.336741,3.363853,-0.384501,1.489643,-5.369923,100964.289062
11888,-11.735180,2.955642,4.036624,-0.052997,1.432707,-5.479537,100964.289062
11898,-12.957419,2.517503,3.477578,0.343957,1.418340,-5.601390,100964.148438
11908,-14.390349,2.158373,3.072958,0.523810,1.336927,-5.736014,100964.148438
11918,-15.690401,3.248932,3.366248,0.454636,1.174634,-5.808913,100964.015625
11938,-16.432604,4.429273,3.463213,0.028948,0.934120,-5.790289,100963.914062
11953,-17.342400,5.383362,4.080917,-0.596281,0.592506,-5.638106,100963.914062
11968,-17.712305,5.469554,4.285621,-0.935235,0.455753,-5.402381,100963.820312
11978,-18.051085,5.720945,4.765658,-1.107106,0.439258,-5.070345,100963.882812
11993,-17.380707,7.292738,5.467160,-1.009730,0.545680,-4.611666,100963.882812
12008,-16.830040,9.174581,6.591237,-0.820831,0.525460,-4.241318,100963.835938
12023,-15.245079,10.195708,6.957550,-0.503162,0.401478,-3.605447,100963.859375
12033,-14.557943,10.922348,7.052121,-0.340336,0.240249,-3.099942,100963.859375
12048,-13.992912,12.836513,6.524199,-0.134942,0.039644,-2.305503,100963.796875
12058,-13.286622,14.644135,5.969942,0.064599,-0.136485,-1.383888,100963.750000
12073,-12.810176,14.306552,5.682638,0.322141,-0.249824,-0.196752,100963.750000
12083,-12.719196,11.394006,5.250484,0.466342,-0.301971,0.554587,100963.867188
12093,-13.032837,10.763134,3.257311,0.476985,-0.364760,1.177688,100963.867188
12103,-13.618219,6.224925,-0.750582,0.168893,-0.428081,1.816220,100963.929688
12113,-13.066356,-13.776237,-4.455609,-0.176446,-0.215237,2.170605,100963.929688
12128,-22.731749,-18.294096,-3.107674,0.732397,-0.278026,1.202697,100964.031250
12138,-25.428816,1.455675,-9.264363,0.383333,-0.537163,1.575174,100963.921875
12148,-12.139800,9.048885,0.885855,-1.354537,-0.719677,2.892146,100963.921875
12158,-4.920084,3.927688,7.736863,-1.860574,-0.949016,3.150751,100963.820312
12168,-9.550470,2.413355,7.047333,-1.119877,-1.146429,2.613320,100963.820312
12178,-9.751583,0.879869,6.816292,-0.710684,-1.092686,2.471779,100964.000000
12188,-8.760384,-0.043096,6.709750,-0.834666,-1.203897,2.424953,100964.000000
12198,-9.479841,-0.393846,3.749320,-1.072519,-1.183145,2.238183,100964.187500
12213,-9.006987,1.953669,4.361038,-1.230024,-0.971897,2.003522,100964.187500
12223,-10.930728,4.395754,5.431247,-0.812317,-0.778741,1.765669,100964.195312
12238,-11.558009,4.537012,4.552575,0.355664,-0.358375,1.611889,100964.218750
12253,-10.814610,2.182315,3.637990,1.283131,-0.151916,1.416605,100964.218750
12263,-9.410410,-0.338780,0.155623,1.797681,-0.047622,1.209615,100964.242188
12278,-9.282320,-3.220201,-1.256956,1.337406,-0.249824,1.070202,100964.359375
12293,-9.799467,-4.279635,0.046687,0.530728,-0.417439,1.037211,100964.359375
12303,-9.358934,-2.379837,1.444901,-0.186556,-0.506833,1.035082,100964.437500
12318,-8.990228,0.478840,3.313575,-0.492519,-0.518540,0.975486,100964.523438
12328,-9.573215,1.575385,4.950012,-0.266373,-0.463200,0.878642,100964.523438
12343,-9.336189,1.581370,5.487510,0.376416,-0.330705,0.763707,100964.539062
12353,-8.954314,0.158017,3.697845,0.998984,-0.208852,0.616844,100964.539062
12368,-9.467871,-1.661576,1.060631,1.171388,-0.196081,0.515211,100964.554688
12378,-9.934740,-2.383428,-0.031125,0.936195,-0.246099,0.542881,100964.671875
12393,-9.935937,-1.625663,0.788889,0.465810,-0.336026,0.613119,100964.671875
12403,-9.702502,0.281319,2.894590,0.203480,-0.389769,0.648771,100964.742188
12413,-9.160215,0.682347,4.250905,0.291278,-0.375934,0.628019,100964.742188
12423,-8.908825,-0.002394,4.322731,0.503058,-0.330705,0.585450,100964.812500
12438,-8.953117,-0.706290,3.378219,0.637150,-0.274301,0.559909,100964.812500
12453,-9.521740,-1.058237,2.603694,0.517425,-0.238650,0.583321,100964.789062
12468,-9.798270,-0.266953,2.771288,0.345553,-0.241843,0.625890,100964.773438
12478,-9.922769,0.173580,3.068170,0.326397,-0.248760,0.639725,100964.773438
12488,-10.048465,0.314838,3.143587,0.399296,-0.255145,0.643982,100964.882812
12504,-10.107122,0.110133,2.973598,0.514764,-0.259402,0.657285,100965.054688
12523,-9.971850,-0.634463,3.026271,0.598306,-0.274301,0.744551,100964.960938
12538,-10.020931,-0.875081,3.081338,0.569040,-0.286540,0.844055,100964.960938
12553,-10.174160,-0.430956,3.137601,0.540838,-0.298246,0.982936,100964.960938
12574,-10.396821,-0.380678,3.086126,0.585003,-0.296650,1.146293,100964.742188
12594,-10.748769,-0.407014,3.287239,0.587663,-0.290797,1.349559,100964.742188
12623,-11.628637,0.160412,2.875436,0.603095,-0.272173,1.602844,100964.945312
12638,-12.223597,0.282516,2.139219,0.623315,-0.241843,1.831651,100964.945312
12653,-12.686874,0.173580,2.221819,0.563718,-0.224283,2.007247,100965.125000
12678,-12.972981,0.069432,2.844312,0.528067,-0.199274,2.266917,100965.289062
12693,-13.207614,-0.531513,3.647566,0.639278,-0.190228,2.573412,100965.375000
12703,-13.913903,-0.946907,3.724181,0.731333,-0.202466,2.730916,100965.257812
12723,-16.589424,-2.091335,4.127604,0.856379,-0.193421,2.946953,100965.156250
12733,-18.448521,-3.983952,5.074511,1.008030,-0.150852,3.144898,100965.156250
12743,-20.128054,-5.035006,5.930438,1.212892,-0.162558,3.200769,100965.054688
12753,-21.848288,-7.131130,5.734113,1.559828,-0.149788,3.223650,100965.054688
12763,-20.924126,-11.048044,6.424840,2.051497,-0.151384,3.264090,100965.023438
12773,-19.024326,-12.339716,4.723760,2.669809,-0.116265,3.240145,100965.023438
12783,-17.853561,-9.980229,1.929727,3.001845,-0.061457,3.199705,100965.007812
12793,-17.402254,-4.647145,1.060631,2.723552,0.040708,3.274200,100965.007812
12803,-16.163256,1.205481,0.337582,1.912085,0.128506,3.553026,100964.789062
12813,-13.710396,4.517859,2.679112,0.865425,0.092322,3.922842,100964.789062
12823,-11.092337,4.534618,4.264073,0.122067,-0.143402,4.111741,100964.703125
12833,-9.747993,1.774103,2.310405,-0.139199,-0.193421,3.785026,100964.703125
12853,-6.057330,-1.605312,3.163938,-0.845308,-0.047622,2.652696,100964.617188
12863,-3.950433,-4.353856,2.018312,-0.943749,0.176396,1.709266,100964.664062
12878,-2.187103,-7.158663,1.969231,-0.573932,0.247698,0.398147,100964.664062
12893,-2.892196,-5.457583,0.086191,-0.206777,0.345075,-0.461210,100964.601562
12903,-1.145625,-3.970783,-1.161188,-0.265841,0.469056,-0.957136,100964.546875
12913,0.257377,-3.136404,-0.556652,-0.601602,0.477570,-1.328549,100964.546875
12923,0.122104,-2.561796,-0.288501,-0.883088,0.506304,-1.756365,100964.546875
12938,-1.945289,-2.888604,-0.648829,-1.220446,0.637735,-2.375209,100964.312500
12948,-3.708618,-2.806004,-0.816423,-1.467345,0.716487,-2.770566,100964.101562
12963,-5.450400,-2.133234,-0.476446,-1.838225,0.859625,-3.288841,100964.101562
12983,-6.084864,-1.428141,0.392649,-2.095234,0.962854,-3.684731,100964.234375
12998,-6.673837,-0.468066,2.020706,-2.349582,1.136854,-4.106162,100964.140625
13013,-7.796718,0.395043,2.990358,-2.387362,1.286909,-4.372217,100964.007812
13023,-9.299079,1.709460,4.088099,-2.231986,1.447606,-4.665409,100964.007812
13038,-10.970232,2.451663,4.311957,-1.714243,1.622138,-4.957006,100963.875000
13048,-11.886014,3.163938,4.875792,-1.305583,1.678009,-5.090033,100963.750000
13058,-12.264298,4.230555,5.951985,-0.821895,1.702487,-5.188473,100963.750000
13068,-12.848483,4.841076,6.473921,-0.209969,1.752505,-5.302345,100963.796875
13078,-13.503298,4.290410,5.726931,0.388654,1.791349,-5.482730,100963.796875
13093,-14.802152,3.378219,4.952406,0.755278,1.682798,-5.729629,100963.742188
13103,-15.443798,3.224990,4.055778,0.835626,1.491239,-5.831262,100963.742188
13113,-15.515624,3.545813,3.884592,0.715902,1.260303,-5.784436,100963.679688
13123,-15.898696,3.664326,4.041412,0.505718,1.031496,-5.727500,100963.679688
13143,-16.700754,3.562572,4.192247,0.208269,0.808542,-5.595005,100963.390625
13158,-17.009605,5.072116,4.923676,-0.005107,0.637735,-5.258712,100963.132812
13168,-16.919823,6.065710,5.416882,0.027884,0.572818,-5.018730,100963.210938
13178,-16.514006,6.681020,5.421670,0.113021,0.505772,-4.733520,100963.210938
13193,-16.095020,7.870938,4.912902,0.201884,0.391900,-4.276437,100963.367188
13208,-15.388731,9.825804,3.839103,0.125792,0.150322,-3.348970,100963.296875
13218,-14.652514,10.797850,3.434482,-0.071621,0.007717,-2.631686,100963.296875
13228,-13.869611,11.834539,3.596091,-0.336079,-0.121054,-1.818622,100963.195312
13243,-12.764687,13.103466,4.575319,-0.689400,-0.288668,-0.539962,100963.195312
13263,-11.632229,12.882002,5.832275,-0.793161,-0.463732,0.803083,100963.101562
13278,-12.144588,8.704121,6.221333,-0.662262,-0.663806,1.864642,100963.296875
13292,-12.629414,1.018733,-1.677138,-0.595217,-0.605274,2.257339,100963.453125
13303,-10.365696,-25.807100,-0.858321,-0.560097,-0.167347,2.166880,100963.453125
13317,-20.556616,-17.033548,-3.096900,0.608416,-0.331769,1.073394,100963.539062
13327,-27.008989,10.648212,-7.256825,-0.248813,-0.716484,1.858256,100963.546875
13343,-10.304645,9.070433,3.676297,-2.057986,-0.880374,3.431705,100963.546875
13358,-11.186908,2.864662,4.161122,-0.822428,-1.104925,2.542017,100963.554688
13368,-7.842207,-0.202310,4.736928,-0.420685,-1.030961,2.364825,100963.726562
13378,-6.497863,-0.436942,6.265626,-0.521785,-1.136851,2.164219,100963.726562
13388,-7.912837,1.878251,6.015432,-0.673437,-1.198576,1.910935,100963.875000
13398,-9.513360,2.251747,5.074511,-0.852226,-1.124081,1.779504,100963.875000
13408,-11.500547,2.302025,4.748899,-0.788372,-0.939971,1.635834,100963.882812
13418,-12.338518,3.834314,4.525041,-0.373859,-0.671255,1.473009,100963.882812
13428,-11.034876,3.394978,5.372589,0.218911,-0.452558,1.355945,100963.921875
13443,-10.177752,1.719037,4.120421,1.032507,-0.257806,1.123945,100963.921875
13453,-8.977059,0.093374,1.380257,1.559296,-0.086467,0.935578,100964.000000
13468,-9.506178,-2.112883,-1.231817,1.370397,-0.225347,0.814789,100964.093750
13478,-10.415975,-3.803190,-0.581791,0.860636,-0.390301,0.772220,100964.093750
13492,-10.177752,-3.332729,1.376666,0.216251,-0.499384,0.763707,100964.335938
13503,-9.015367,-1.104924,2.677915,-0.196134,-0.515879,0.777541,100964.335938
13517,-8.930372,0.342371,4.189853,-0.162611,-0.452026,0.703578,100964.343750
13527,-9.290700,0.766145,5.360618,0.211462,-0.338154,0.593964,100964.304688
13547,-9.133880,-0.661997,3.655946,0.969718,-0.148723,0.426349,100964.304688
13563,-9.236830,-2.139219,1.393425,1.025058,-0.138081,0.384312,100964.281250
13573,-9.346964,-3.193865,0.512359,0.784544,-0.197145,0.426881,100964.382812
13583,-9.500193,-2.811990,0.853533,0.429627,-0.275365,0.489138,100964.382812
13593,-9.672575,-1.159991,2.486378,0.153462,-0.338154,0.550863,100964.406250
13603,-9.384073,-0.020351,3.901352,0.124728,-0.349861,0.593431,100964.406250
13613,-9.012972,0.056264,4.283227,0.305113,-0.325384,0.595028,100964.359375
13623,-8.868123,-0.785298,3.845088,0.532324,-0.282815,0.595560,100964.359375
13633,-9.180567,-1.899799,3.191471,0.656305,-0.254613,0.631211,100964.320312
13643,-9.472659,-2.315193,2.421735,0.617462,-0.245567,0.710496,100964.320312
13653,-9.756371,-1.723825,2.144008,0.448783,-0.262063,0.790312,100964.289062
13663,-9.799467,-1.212663,2.469619,0.279572,-0.287604,0.862679,100964.289062
13672,-9.715671,-0.797269,2.899378,0.217847,-0.309420,0.924404,100964.398438
13687,-9.982624,-0.351948,3.011906,0.260948,-0.330173,0.979743,100964.398438
13697,-10.090364,-0.141258,3.082535,0.313627,-0.336558,1.011138,100964.328125
13707,-9.981427,-0.183156,3.342306,0.365241,-0.342411,1.047321,100964.328125
13723,-9.963470,0.108936,3.220201,0.429627,-0.344540,1.080844,100964.335938
13733,-9.937134,0.117316,3.303998,0.459425,-0.342943,1.097871,100964.226562
13743,-10.049662,0.341174,3.436877,0.489755,-0.344008,1.119688,100964.226562
13752,-9.991004,0.326809,3.471592,0.525939,-0.348265,1.146293,100964.125000
13763,-10.297462,0.556652,3.506308,0.569040,-0.349861,1.164385,100964.125000
13773,-10.551247,0.628478,3.399766,0.616929,-0.343476,1.194183,100964.382812
13783,-10.727221,0.462081,3.392584,0.679186,-0.326448,1.238348,100964.382812
13797,-10.912771,-0.075417,2.938883,0.770709,-0.308356,1.336789,100964.453125
13807,-11.197681,-0.132878,2.840720,0.774434,-0.306760,1.426183,100964.453125
13817,-11.499351,-0.110133,2.415750,0.735590,-0.302503,1.541651,100964.398438
13827,-11.817780,0.086191,2.383428,0.660030,-0.290797,1.668825,100964.398438
13843,-12.186486,0.173580,2.541445,0.558397,-0.273769,1.859321,100964.476562
13857,-12.627020,0.466869,2.940080,0.515296,-0.254081,2.002458,100964.539062
13867,-12.882002,0.536301,3.339911,0.527003,-0.237054,2.139210,100964.539062
13877,-13.128605,0.433351,3.378219,0.597773,-0.237054,2.230733,100964.656250
13887,-13.369223,0.111330,3.264494,0.672801,-0.229072,2.335027,100964.656250
13907,-14.290990,-0.204704,3.095703,0.787737,-0.210448,2.505834,100964.765625
13923,-15.873557,-1.370680,3.560178,0.924489,-0.140210,2.731981,100964.718750
13937,-18.230648,-3.532645,4.871003,1.117645,-0.092852,2.941632,100964.648438
13947,-21.043837,-5.992687,6.451177,1.443296,-0.099769,3.015595,100964.648438
13963,-20.968418,-11.052833,6.288371,2.203681,-0.083806,3.139577,100964.578125
13973,-19.748573,-11.915942,5.176264,2.757075,-0.132760,3.126274,100964.726562
13983,-19.671959,-10.290278,3.645172,3.259387,-0.146063,3.010274,100964.726562
13992,-18.666393,-6.889316,2.128445,3.442432,-0.075824,2.991650,100964.796875
14003,-19.116503,-1.570596,0.248997,3.012487,0.086469,3.209283,100964.796875
14023,-14.352042,2.214637,2.038663,1.270892,0.074231,3.894108,100964.828125
14037,-9.931149,1.301249,3.558981,-0.271694,-0.271109,3.928695,100964.726562
14047,-8.370130,-0.074220,3.306392,-0.605327,-0.204595,3.257705,100964.726562
14057,-4.266468,-0.711078,3.092112,-0.683015,-0.055604,2.662274,100964.625000
14067,-4.174291,1.022324,2.883816,-0.633529,-0.005586,1.935944,100964.625000
14077,-3.459621,-0.713472,2.870648,-0.338740,0.158836,1.179816,100964.648438
14087,-2.591723,-2.452860,2.810793,0.169425,0.307295,0.392826,100964.648438
14097,-2.687491,-2.885013,0.893037,0.724416,0.407863,-0.287210,100964.640625
14112,-1.691504,-3.442862,-0.897826,0.831370,0.519607,-0.871467,100964.585938
14127,0.086191,-3.477578,-1.611298,0.223168,0.575478,-1.547778,100964.585938
14137,0.062249,-3.499126,-1.928530,-0.281272,0.588781,-1.894714,100964.562500
14147,-0.618901,-3.743334,-2.009932,-0.836262,0.633478,-2.229411,100964.562500
14163,-3.088520,-3.082535,-1.177947,-1.648794,0.682964,-2.753539,100964.539062
14172,-4.326323,-2.231396,-0.366313,-2.092573,0.735111,-3.050988,100964.671875
14183,-4.914099,-1.808819,0.392649,-2.418225,0.815460,-3.332474,100964.671875
14197,-5.880159,-1.663970,1.325191,-2.708225,0.949551,-3.788492,100964.726562
14207,-6.196194,-1.419762,1.790863,-2.794426,1.044267,-4.071043,100964.726562
14217,-6.587646,-0.843956,2.212242,-2.818903,1.152817,-4.322731,100964.601562
14232,-7.231686,0.220267,3.557784,-2.709821,1.360872,-4.660620,100964.421875
14247,-8.784326,1.511938,4.261679,-2.357032,1.533276,-4.930400,100964.421875
14263,-10.447099,2.026692,3.969586,-1.686042,1.742927,-5.297024,100964.265625
14277,-11.994950,2.827552,5.902905,-0.896391,1.728028,-5.606179,100964.375000
14287,-12.909535,2.924517,5.682638,-0.221143,1.768468,-5.780179,100964.375000
14297,-13.797785,2.188300,4.124012,0.277443,1.820615,-5.956307,100964.367188
14312,-16.417042,1.980005,2.890999,0.225829,1.604046,-6.187775,100964.328125
14327,-17.374722,3.157952,3.463213,-0.321180,1.375771,-6.189904,100964.328125
14337,-18.841169,4.406528,4.765658,-0.824024,1.141643,-6.140950,100964.218750
14347,-19.859903,4.417302,5.427655,-1.033143,0.979881,-5.973867,100964.218750
14363,-20.811598,5.644331,6.423643,-1.207675,0.831955,-5.499225,100964.125000
14372,-20.651186,7.819463,7.448361,-1.211932,0.796836,-5.084180,100964.125000
14397,-16.637308,13.257892,9.299079,-0.659602,0.619111,-4.078492,100964.226562
14412,-14.203602,14.851233,9.461885,0.109297,0.331240,-3.128676,100964.226562
14423,-14.237121,15.539566,8.274361,0.530195,0.137020,-2.412989,100964.117188
14432,-13.952210,16.032772,6.810307,0.845204,-0.031659,-1.562145,100964.117188
14443,-13.306973,15.555128,5.603629,1.051131,-0.130632,-0.668201,100964.078125
14452,-12.747927,14.109031,5.100847,1.153828,-0.186503,0.186367,100964.078125
14472,-13.220781,7.073669,3.355474,0.948434,-0.317934,1.612422,100964.039062
14483,-14.660894,3.882198,-3.701436,0.669608,-0.322723,2.009376,100964.210938
14492,-11.316195,-15.258247,-8.189367,0.158251,0.021552,2.227540,100964.210938
14503,-10.187328,-30.834923,5.746084,0.369498,-0.056136,1.532073,100964.281250
14512,-21.235373,-10.882844,-7.752425,1.345388,-0.456815,0.639725,100964.281250
14523,-23.934834,8.583213,-6.690597,-0.028520,-0.680833,1.415009,100964.328125
14532,-11.823765,11.109096,2.911349,-1.957950,-0.838338,2.923008,100964.328125
14552,-11.990162,4.485537,7.633912,-0.765492,-1.135255,2.327577,100964.390625
14563,-11.261127,2.163161,6.769605,-0.045547,-1.059163,2.151449,100964.445312
14572,-9.003395,-0.239420,7.115568,-0.059382,-1.073530,2.045559,100964.445312
14583,-9.339781,-1.016339,3.323152,-0.239235,-0.997971,1.817284,100964.648438
14597,-8.451532,1.401805,3.444059,-0.526574,-0.795769,1.614018,100964.695312
14612,-10.982203,3.780444,3.881001,-0.136538,-0.583989,1.413945,100964.695312
14623,-11.586740,3.361459,4.056975,0.398232,-0.395090,1.308587,100964.726562
14632,-11.329363,1.963245,3.811569,0.999516,-0.271641,1.148954,100964.726562
14643,-10.518925,0.597353,2.470816,1.475222,-0.151384,0.976018,100964.703125
14652,-8.930372,-0.906205,0.848745,1.613571,-0.094448,0.871193,100964.703125
14663,-8.901642,-2.444480,-0.407014,1.393278,-0.168411,0.777009,100964.679688
14677,-9.804255,-4.414908,0.248997,0.575957,-0.365292,0.726459,100964.835938
14687,-9.928755,-3.409343,1.625663,0.051829,-0.415310,0.728055,100964.835938
14697,-9.214086,-1.648408,2.311602,-0.252538,-0.406264,0.758385,100964.890625
14707,-9.045294,-0.361524,3.216610,-0.348850,-0.395090,0.747211,100964.890625
14723,-9.390059,0.610521,4.596867,-0.072153,-0.300375,0.651963,100964.929688
14732,-9.299079,0.265756,4.677073,0.317352,-0.205127,0.590239,100964.929688
14752,-8.990228,-1.304840,2.929306,0.810085,-0.097109,0.482220,100964.867188
14763,-9.114726,-2.122460,1.363498,0.849993,-0.106155,0.458276,100964.812500
14777,-9.405622,-2.462436,0.806846,0.604159,-0.191292,0.511487,100964.953125
14787,-9.533711,-2.229002,1.435324,0.247113,-0.282283,0.592899,100964.953125
14797,-9.373300,-1.188721,2.788048,0.050765,-0.331237,0.639193,100965.195312
14812,-8.931569,-0.098162,3.949236,0.116214,-0.326980,0.668991,100965.195312
14823,-8.900445,-0.417788,3.970783,0.301388,-0.294521,0.666330,100965.226562
14832,-9.198523,-1.092953,3.277662,0.459425,-0.263127,0.675908,100965.226562
14847,-9.732430,-1.659182,2.081758,0.443462,-0.248760,0.742422,100965.187500
14867,-9.983821,-1.619677,2.141613,0.251902,-0.287604,0.839798,100965.164062
14883,-10.184934,-0.737414,2.618060,0.128985,-0.345604,0.957927,100965.335938
14892,-10.408792,0.093374,2.979584,0.154526,-0.358375,1.006349,100965.335938
14903,-10.234015,0.116119,3.440468,0.237535,-0.354650,1.051046,100965.351562
14912,-10.049662,-0.118513,3.459621,0.371095,-0.342411,1.088826,100965.351562
14923,-9.992201,-0.342371,3.368642,0.463150,-0.339219,1.122881,100965.187500
14932,-10.110714,-0.367510,3.280056,0.491351,-0.331769,1.166514,100965.187500
14943,-10.390836,-0.282516,3.276465,0.489755,-0.328576,1.219725,100965.156250
14957,-10.705673,0.669179,3.666720,0.520618,-0.305696,1.295284,100965.109375
14977,-10.794258,-0.017957,3.330335,0.701003,-0.287072,1.385743,100965.148438
14987,-11.176133,-0.458490,2.974796,0.765920,-0.261531,1.487376,100965.148438
15003,-11.615470,-0.323217,2.815581,0.731333,-0.254081,1.609761,100965.171875
15012,-11.942278,0.081403,2.477999,0.682911,-0.245567,1.747577,100965.171875
15032,-12.571953,0.369904,2.426523,0.604691,-0.216833,1.969999,100965.250000
15047,-13.074736,0.363919,2.559402,0.585535,-0.192356,2.130697,100965.140625
15063,-13.451822,0.178368,2.883816,0.595645,-0.172136,2.305761,100964.937500
15077,-13.819332,-0.228646,3.139996,0.658434,-0.164687,2.484017,100964.937500
15087,-14.356831,-0.611719,3.154361,0.743572,-0.170008,2.604806,100965.203125
15112,-16.966511,-3.216610,4.052186,0.951094,-0.099237,2.938971,100965.296875
15123,-17.750612,-3.916914,4.456807,1.039425,-0.078485,3.059228,100965.289062
15132,-19.977219,-5.044583,5.726931,1.205443,-0.088595,3.132659,100965.289062
15152,-21.065384,-11.701661,8.075643,2.147277,-0.114668,3.228439,100965.171875
15167,-19.077000,-10.547656,4.255693,3.072616,-0.129567,3.169907,100965.062500
15192,-18.126501,0.547075,0.617704,2.071718,0.167882,3.910604,100965.046875
15203,-14.444219,-1.138443,3.608062,1.030379,0.209387,4.261264,100964.968750
15212,-11.328165,-3.994725,4.489128,0.288618,0.036451,4.099503,100964.968750
15232,-8.087613,-2.002750,1.236605,-0.393015,-0.051347,3.226843,100964.937500
15242,-3.602077,0.559046,1.944092,-0.866060,0.007717,2.711228,100964.812500
15267,-3.343503,-0.981623,2.614468,-0.716006,0.094983,1.263358,100964.687500
15283,-3.329138,-2.387019,-0.032322,0.429627,0.409460,-0.613393,100964.812500
15292,-1.926135,-2.390610,-1.177947,0.635021,0.544616,-1.057705,100964.812500
15307,0.032322,-2.719813,-1.758541,0.474324,0.612194,-1.555760,100964.734375
15323,0.664391,-3.457227,-1.553837,-0.196666,0.580799,-2.294860,100964.710938
15332,-0.372298,-3.803190,-1.732205,-0.659602,0.596230,-2.701924,100964.710938
15352,-3.288436,-3.153164,-1.321599,-1.630170,0.665405,-3.346309,100964.648438
15363,-4.545392,-2.300828,-0.648829,-2.048940,0.674450,-3.654933,100964.601562
15372,-5.550957,-1.831564,0.104148,-2.355968,0.709038,-3.932694,100964.601562
15382,-6.156690,-1.446098,0.202310,-2.589032,0.785129,-4.163098,100964.578125
15397,-7.010222,-0.673968,0.702698,-2.931179,0.924010,-4.515354,100964.578125
15412,-8.455123,0.915782,2.657564,-3.015784,1.129404,-4.888363,100964.390625
15422,-9.752781,1.865083,3.257311,-2.756114,1.316707,-5.126216,100964.335938
15437,-11.760319,2.895787,3.825934,-2.042555,1.556156,-5.439097,100964.335938
15447,-12.532449,4.074931,5.548563,-1.428501,1.589147,-5.532216,100964.109375
15467,-12.757504,4.158728,6.282385,-0.258923,1.697698,-5.668968,100963.914062
15483,-15.289372,2.907758,4.109647,0.771773,1.680670,-5.999940,100963.937500
15492,-16.773777,3.174711,3.766079,0.698874,1.490707,-6.073904,100963.937500
15512,-17.365145,5.066131,4.188656,0.141223,1.053313,-5.987170,100963.921875
15523,-18.501194,4.717774,4.352659,-0.078538,0.858028,-5.894051,100963.804688
15532,-18.939333,4.101267,4.151546,-0.250410,0.746817,-5.696106,100963.804688
15542,-19.348742,5.139154,4.729745,-0.412703,0.680304,-5.419941,100963.804688
15557,-18.775330,7.337031,5.776011,-0.486666,0.649973,-5.000106,100963.703125
15572,-16.995241,9.305065,7.065289,-0.279676,0.567496,-4.309428,100963.765625
15582,-16.049532,9.988609,7.236475,-0.117382,0.442983,-3.807116,100963.765625
15592,-15.521609,11.349713,6.891710,-0.026923,0.271643,-3.197851,100963.703125
15602,-14.767436,13.095086,6.475119,-0.013621,0.069974,-2.448108,100963.703125
15612,-14.033613,14.587871,6.205771,0.006599,-0.109879,-1.597264,100963.695312
15632,-12.762292,14.180857,5.802348,0.150801,-0.293457,0.181578,100963.625000
15642,-12.236765,11.838130,5.809530,0.146544,-0.356246,0.986128,100963.625000
15652,-12.905944,7.675811,5.481525,0.027352,-0.467989,1.654458,100963.562500
15677,-12.356475,-13.739126,-6.108806,-0.609051,-0.189696,2.339283,100963.703125
15687,-13.213599,-28.458679,3.090914,-0.397272,-0.094448,1.577834,100963.867188
15697,-23.618799,-5.583278,-8.461109,0.325865,-0.505769,1.025505,100963.867188
15707,-21.462822,11.666945,-3.803190,-1.157657,-0.820778,2.143999,100964.046875
15717,-9.060856,10.599131,3.863045,-2.552848,-1.019787,3.420531,100964.046875
15737,-9.355343,3.860650,6.013038,-1.037932,-1.137915,2.701118,100964.070312
15747,-8.828619,0.292093,5.501875,-0.073749,-1.080980,2.289265,100964.101562
15762,-8.838196,0.314838,6.537368,-0.282868,-1.260301,1.992880,100964.101562
15772,-9.910798,0.969652,3.351882,-0.560097,-1.148558,1.924238,100964.296875
15782,-9.859323,1.225831,4.156334,-0.782519,-0.974026,1.850807,100964.296875
15792,-11.432313,3.404555,4.746505,-0.531896,-0.817053,1.660311,100964.320312
15802,-12.017695,4.405331,4.721366,0.068856,-0.553127,1.577834,100964.320312
15812,-11.099519,3.228581,4.969166,0.759535,-0.326448,1.495890,100964.468750
15832,-9.253590,0.146046,0.835576,1.738617,-0.056136,1.136716,100964.523438
15842,-8.883685,-1.319205,-1.028310,1.602397,-0.107751,1.033486,100964.523438
15852,-9.749189,-3.129222,-1.051055,1.134672,-0.268448,0.964844,100964.570312
15872,-10.058042,-2.858677,1.248576,0.045444,-0.452558,0.960587,100964.757812
15882,-9.160215,-1.255759,2.382231,-0.324373,-0.474375,0.961651,100964.757812
15892,-8.700529,-0.377087,3.448848,-0.443565,-0.457347,0.899395,100964.812500
15902,-9.117120,0.606930,4.290410,-0.296171,-0.396686,0.811064,100964.812500
15912,-9.294291,1.108515,4.650737,0.027884,-0.310485,0.750404,100964.835938
15922,-9.204509,0.572214,4.268862,0.400893,-0.225347,0.683358,100964.835938
15937,-9.208099,-0.602142,2.549825,0.739847,-0.163090,0.573743,100964.828125
15952,-9.372103,-1.391031,1.143231,0.686104,-0.194485,0.539156,100964.812500
15962,-9.621099,-1.521515,0.737414,0.498801,-0.250356,0.559909,100964.812500
15977,-9.702502,-0.981623,1.685518,0.149737,-0.342943,0.617376,100964.945312
15997,-9.327810,-0.245406,3.667917,0.125260,-0.363696,0.661541,100964.968750
16012,-9.176975,-0.158017,3.913323,0.431755,-0.312613,0.663670,100964.984375
16037,-9.855731,-0.785298,2.379837,0.545627,-0.261531,0.697193,100964.898438
16047,-10.117896,-0.699107,2.278083,0.437076,-0.275365,0.749872,100964.828125
16057,-10.158598,-0.156820,2.630031,0.373755,-0.295586,0.789248,100964.828125
16067,-10.010158,0.323217,3.046622,0.385462,-0.314209,0.814789,100964.953125
16077,-10.060435,0.442927,3.173514,0.482306,-0.330705,0.826495,100964.953125
16092,-10.158598,-0.161609,3.216610,0.640342,-0.331769,0.874917,100965.179688
16102,-10.187328,-0.653617,3.081338,0.681847,-0.337090,0.927596,100965.179688
16117,-10.188525,-0.667982,2.643199,0.643003,-0.340815,1.026037,100965.046875
16127,-10.363302,-0.384269,3.100491,0.557865,-0.356246,1.143633,100965.046875
16142,-10.684125,0.566229,3.587711,0.547223,-0.368485,1.259101,100965.109375
16152,-10.839748,0.622492,3.629610,0.622250,-0.350393,1.325614,100965.171875
16167,-11.145009,0.211887,3.424906,0.762195,-0.329641,1.413413,100965.171875
16177,-11.718420,-0.069432,2.776077,0.843608,-0.317934,1.523559,100965.320312
16187,-12.097901,-0.260968,1.830367,0.827113,-0.306228,1.643816,100965.320312
16202,-12.248735,-0.015562,1.580173,0.691957,-0.288136,1.869963,100965.250000
16212,-12.297817,-0.063446,1.782483,0.589260,-0.275365,2.032788,100965.218750
16232,-13.837289,0.496797,2.670732,0.480709,-0.271109,2.327045,100965.148438
16242,-14.233529,0.592565,3.136404,0.527003,-0.267384,2.443577,100965.148438
16257,-14.301764,-0.178368,3.436877,0.713773,-0.260999,2.636733,100965.085938
16267,-14.856022,-0.667982,3.246537,0.857443,-0.264723,2.780402,100965.085938
16282,-17.404650,-1.714248,3.379416,1.052727,-0.238650,3.016127,100965.203125
16292,-19.108124,-3.268085,4.079720,1.146379,-0.163622,3.183742,100965.187500
16302,-20.635624,-5.681441,5.081693,1.296434,-0.144466,3.304531,100965.187500
16317,-23.100454,-11.093534,5.930438,1.875901,-0.157237,3.413613,100965.148438
16327,-20.110098,-13.831304,4.308366,2.402690,-0.094980,3.492365,100965.148438
16337,-18.896236,-11.443087,1.092953,2.751222,-0.058265,3.367320,100965.093750
16357,-18.015171,-1.100136,1.521515,2.531460,0.054543,3.230567,100964.984375
16367,-15.727511,4.280833,1.959654,1.909424,0.268983,3.612622,100964.984375
16382,-12.500127,2.810793,4.090494,0.705260,0.241313,4.045760,100965.039062
16397,-11.159374,-1.944092,2.257732,-0.143988,0.000267,3.574310,100965.000000
16407,-6.651093,-2.638410,2.372654,-1.017180,0.108286,3.005485,100965.000000
16417,-2.158373,-2.626439,0.855927,-1.640812,0.299313,2.374403,100964.773438
16432,-2.639607,-2.777274,1.783680,-1.918574,0.183845,1.234624,100964.710938
16447,-2.394202,-2.266112,3.082535,-1.435418,0.214176,0.286936,100964.710938
16457,-1.736993,-1.588553,1.380257,-0.734097,0.389240,-0.439926,100964.664062
16472,0.125696,-2.011129,0.541090,-0.503694,0.523863,-0.987467,100964.742188
16487,0.420182,-2.337938,-0.215478,-0.596281,0.655294,-1.821815,100964.742188
16507,-1.231817,-3.041833,-0.925359,-0.953327,0.788322,-2.519411,100964.804688
16516,-3.138798,-2.572570,-1.030704,-1.263014,0.866542,-2.995117,100964.757812
16527,-4.594473,-2.172738,-0.961272,-1.518959,0.923478,-3.338328,100964.757812
16542,-5.521029,-1.940500,-0.152032,-1.735528,1.012872,-3.786364,100964.640625
16557,-6.309918,-0.630872,0.483629,-1.789803,1.070340,-4.146070,100964.523438
16567,-6.924031,0.399832,1.207875,-1.797785,1.167184,-4.361575,100964.523438
16577,-7.724892,1.519121,2.200271,-1.764794,1.289037,-4.597299,100964.554688
16587,-8.480263,2.318784,2.940080,-1.613675,1.387478,-4.837281,100964.554688
16602,-9.695320,2.415750,3.232172,-1.101253,1.523698,-5.171446,100964.468750
16616,-10.931925,2.159570,2.901772,-0.509547,1.615753,-5.393335,100964.343750
16636,-12.644977,2.398990,3.072958,0.196031,1.640230,-5.593941,100964.242188
16652,-14.372393,2.264915,2.958036,0.697810,1.597661,-5.773262,100964.242188
16662,-15.667656,2.535460,2.910152,0.735590,1.474743,-5.884473,100963.945312
16672,-16.518795,2.700660,2.705448,0.607884,1.347037,-5.895115,100963.945312
16682,-17.183186,2.312799,2.366668,0.410471,1.200707,-5.870106,100963.906250
16692,-18.612524,2.881422,2.738967,0.140691,1.020854,-5.832858,100963.906250
16701,-19.106926,3.511097,3.022680,-0.127492,0.903790,-5.714730,100963.750000
16717,-18.772936,4.716578,4.240131,-0.381841,0.823973,-5.395464,100963.656250
16726,-18.248606,6.045359,5.291186,-0.384501,0.790450,-5.127281,100963.656250
16746,-16.613365,7.920019,6.275203,-0.151437,0.672854,-4.565905,100963.562500
16762,-15.837645,9.914390,5.695806,0.095994,0.447240,-3.857135,100963.476562
16771,-15.697583,11.531672,5.023035,0.166765,0.307295,-3.290970,100963.476562
16781,-15.312117,13.079524,4.814740,0.176875,0.180653,-2.594438,100963.515625
16791,-14.379576,14.393941,5.201403,0.172086,0.073166,-1.803191,100963.515625
16802,-13.250710,15.087062,5.582081,0.180067,-0.023678,-0.953412,100963.523438
16812,-12.138602,14.308947,5.615600,0.156122,-0.131696,-0.083412,100963.523438
16821,-11.608287,12.160151,5.242105,0.072049,-0.254613,0.724863,100963.476562
16832,-12.364855,9.570822,5.415684,-0.113657,-0.400943,1.420862,100963.476562
16842,-12.504915,7.028179,4.509479,-0.307877,-0.543017,1.951375,100963.414062
16851,-12.405556,2.021903,-1.776498,-0.540941,-0.518008,2.253614,100963.414062
16862,-10.493786,-19.597738,-2.646790,-0.738886,-0.164155,2.229137,100963.351562
16876,-17.585411,-20.787657,0.630872,0.398764,-0.265787,1.076055,100963.437500
16891,-23.721750,12.211626,-3.926491,-0.660134,-0.749475,2.010440,100963.437500
16901,-7.830236,7.984663,2.946065,-2.085124,-0.783530,3.370512,100963.554688
16912,-7.575254,4.022259,4.825513,-1.513638,-0.950081,2.946953,100963.554688
16922,-11.574768,3.909731,3.029862,-0.418556,-1.000631,2.292458,100963.500000
16932,-8.098388,-0.132878,4.856638,-0.068960,-0.917622,2.156238,100963.500000
16947,-8.377312,-1.358709,5.406107,-0.119511,-1.013934,1.772587,100963.460938
16957,-8.960299,-0.008380,5.301960,-0.361620,-1.050117,1.670954,100963.429688
16967,-10.627861,0.551863,4.353856,-0.634061,-1.010741,1.662440,100963.429688
16977,-11.519701,0.847547,4.035427,-0.671308,-0.818117,1.639027,100963.546875
16992,-11.231200,2.705448,4.147954,-0.162079,-0.509494,1.528348,100963.546875
17001,-10.653001,2.420538,4.284424,0.347682,-0.363164,1.430972,100963.695312
17011,-9.900024,1.830367,2.986767,0.846801,-0.202466,1.272403,100963.695312
17031,-9.649830,-1.070208,0.128090,1.246415,-0.136485,1.026037,100963.609375
17042,-9.785102,-2.667141,-0.508768,1.014415,-0.238118,0.991982,100963.570312
17051,-9.947908,-3.563769,-0.164003,0.540838,-0.375402,0.975486,100963.570312
17061,-9.849746,-2.940080,0.764947,0.045976,-0.457879,0.973358,100963.539062
17071,-8.948329,-1.572991,1.783680,-0.292978,-0.473842,0.982404,100963.539062
17086,-9.059659,-0.021548,3.203442,-0.383969,-0.471182,0.917486,100963.687500
17097,-9.418790,0.995988,4.298789,-0.149309,-0.409989,0.822239,100963.804688
17106,-9.569624,1.174356,4.252102,0.246581,-0.315274,0.745615,100963.804688
17116,-9.416395,0.231040,3.968389,0.639278,-0.233861,0.679633,100963.828125
17126,-9.121908,-1.144428,2.932897,0.907993,-0.185971,0.631743,100963.828125
17141,-9.263166,-2.051831,0.867898,0.923957,-0.209384,0.620037,100963.937500
17151,-9.611523,-2.102109,0.520739,0.697810,-0.273237,0.669523,100963.937500
17161,-9.904813,-1.681927,1.223437,0.409939,-0.342943,0.733908,100964.039062
17171,-9.743204,-0.966060,2.425326,0.200820,-0.379659,0.799358,100964.039062
17181,-9.222465,-0.064643,3.634398,0.159847,-0.378063,0.839798,100964.218750
17196,-9.024943,0.301669,4.218584,0.424306,-0.330705,0.825431,100964.234375
17206,-9.554062,-0.357933,3.561375,0.652581,-0.285476,0.801486,100964.234375
17216,-9.894038,-1.219846,2.975993,0.756874,-0.252485,0.816918,100964.234375
17231,-10.032902,-1.720234,2.057816,0.625443,-0.253017,0.883431,100964.359375
17241,-10.052056,-0.796072,2.059013,0.442930,-0.272173,0.934514,100964.242188
17251,-10.083180,0.152032,2.618060,0.331186,-0.293457,0.974954,100964.242188
17261,-10.228029,0.645237,3.262100,0.362049,-0.309953,0.987725,100964.132812
17271,-10.297462,0.713472,3.451242,0.484966,-0.310485,0.994110,100964.132812
17286,-10.113108,0.061052,2.926912,0.643535,-0.311017,1.019119,100964.179688
17296,-10.291476,-0.323217,2.784456,0.675994,-0.318466,1.058495,100964.179688
17311,-10.473435,0.241814,2.952051,0.635021,-0.316870,1.163853,100964.187500
17326,-10.657789,0.312443,2.952051,0.653113,-0.321659,1.245798,100964.273438
17346,-10.898406,-0.098162,2.688689,0.691957,-0.315274,1.402770,100964.140625
17356,-11.591528,-0.250194,2.328361,0.689828,-0.321127,1.573578,100964.140625
17371,-12.030864,-0.045490,2.013524,0.642471,-0.317934,1.740128,100964.023438
17381,-12.150574,0.093374,1.877054,0.571700,-0.305696,1.929559,100964.195312
17401,-12.684481,0.265756,2.202666,0.482306,-0.291329,2.162091,100964.328125
17416,-13.918692,0.690727,2.758120,0.449315,-0.276962,2.431871,100964.328125
17431,-14.346057,0.377087,2.993949,0.567975,-0.273769,2.613320,100964.460938
17441,-14.926650,-0.462081,3.062184,0.690361,-0.273237,2.754861,100964.351562
17456,-16.773777,-2.053028,2.528277,0.814874,-0.246632,3.014531,100964.351562
17471,-19.060240,-4.000711,3.749320,0.752085,-0.149788,3.313044,100964.242188
17481,-20.428526,-6.002264,4.665102,0.731865,-0.143934,3.472677,100964.421875
17496,-22.999899,-11.062409,6.982689,1.072415,-0.188632,3.623264,100964.421875
17506,-20.987572,-12.802994,6.108806,1.608250,-0.162026,3.702017,100964.382812
17521,-18.806454,-9.618706,4.842273,2.284029,-0.122650,3.542916,100964.250000
17536,-18.747797,-0.209493,4.465186,2.766121,-0.050283,3.320494,100964.250000
17551,-14.616601,5.640739,2.391808,1.919534,0.059332,4.002659,100964.117188
17561,-11.563994,3.306392,3.063381,1.007498,-0.076356,4.290530,100963.992188
17571,-10.281899,-0.465672,1.525106,0.482306,-0.129567,3.976053,100963.992188
17586,-6.971915,-3.812766,0.786495,-0.542538,0.098176,2.896402,100964.007812
17601,-3.125630,-3.739743,0.684742,-0.982060,0.292396,1.793339,100963.984375
17611,-1.793257,-5.419276,2.200271,-0.935235,0.175864,0.957394,100963.984375
17626,-2.616863,-4.116830,0.529119,-0.479217,0.231203,-0.219632,100964.000000
17636,-1.395820,-3.124433,-0.752976,-0.363217,0.325386,-0.647981,100964.000000
17646,-0.544681,-2.770091,-0.663194,-0.495180,0.344010,-1.080586,100963.976562
17666,-0.384269,-3.137601,-0.362722,-0.854886,0.405203,-1.805319,100963.960938
17681,-1.878251,-3.670311,-1.144428,-1.392849,0.528120,-2.695007,100963.937500
17691,-3.303998,-3.186682,-1.458069,-1.731803,0.573882,-3.058438,100963.937500
17711,-5.995081,-1.599327,-0.816423,-2.359160,0.697331,-3.658658,100963.906250
17721,-6.720524,-1.049857,-0.458490,-2.519325,0.807478,-3.912474,100963.742188
17731,-7.044939,-0.656011,-0.159214,-2.592225,0.948487,-4.150327,100963.742188
17751,-8.255207,0.793678,1.377863,-2.557637,1.302340,-4.603684,100963.578125
17761,-9.030929,2.060210,2.515109,-2.382041,1.497092,-4.814932,100963.437500
17771,-9.868899,3.353080,3.420117,-2.034041,1.666835,-5.001703,100963.437500
17791,-10.627861,2.843115,3.391387,-0.967693,1.961092,-5.275207,100963.460938
17801,-11.192893,2.477999,3.958812,-0.492519,1.991422,-5.463042,100963.484375
17811,-12.404359,2.633622,4.448427,-0.040226,1.980780,-5.663115,100963.484375
17831,-14.470555,2.182315,3.355474,0.563186,1.919587,-6.008454,100963.398438
17841,-15.520412,2.267309,3.224990,0.474324,1.770597,-6.094124,100963.367188
17851,-16.330851,2.772485,3.153164,0.219443,1.620009,-6.104766,100963.367188
17861,-17.434576,2.952051,3.713407,-0.073217,1.498156,-6.096785,100963.335938
17876,-19.649214,3.381810,5.270835,-0.300960,1.332670,-5.982381,100963.335938
17891,-20.272903,4.876989,6.786365,-0.351510,1.231037,-5.649280,100963.437500
17901,-19.698294,6.912060,8.313866,-0.287125,1.152285,-5.357152,100963.437500
17911,-18.346767,8.957906,9.454702,-0.037566,1.035221,-5.011281,100963.437500
17921,-16.442181,10.602722,9.835381,0.346086,0.838340,-4.582400,100963.382812
17931,-15.437813,12.434286,9.472659,0.718030,0.573350,-4.081153,100963.382812
17951,-15.552734,15.830462,6.659472,1.210764,0.115203,-2.664145,100963.351562
17961,-15.156494,16.212337,5.352238,1.316122,-0.007182,-1.739870,100963.289062
17971,-14.031219,15.310920,4.349067,1.285791,-0.075292,-0.734182,100963.289062
17981,-12.805387,13.265075,3.311181,1.063902,-0.156173,0.261395,100963.289062
17996,-12.832921,9.574412,2.528277,0.334911,-0.388173,1.551229,100963.460938
18011,-13.044808,4.340688,-1.915361,-0.336079,-0.545145,2.239779,100963.578125
18021,-11.812991,-10.724827,-9.333796,-1.075712,-0.296650,2.542017,100963.578125
18031,-10.606314,-30.327353,4.534618,-1.044849,-0.173733,1.982770,100963.632812
18041,-21.168335,-12.536040,-4.490325,0.259884,-0.537163,0.990385,100963.632812
18051,-26.619932,9.641450,-7.357382,-0.283400,-0.739365,1.529945,100963.656250
18071,-6.374562,4.734534,7.623138,-2.062775,-0.947420,3.515778,100963.679688
18081,-10.799047,3.387795,6.908469,-0.655877,-1.069805,2.649503,100963.679688
18091,-9.498995,0.883460,4.274847,0.171021,-0.936246,2.283944,100963.750000
18101,-6.919243,-2.591723,5.628768,0.007664,-0.948484,2.149320,100963.750000
18116,-8.471883,-0.061052,5.221754,-0.563290,-1.051182,1.840697,100963.859375
18126,-9.744401,1.359907,3.901352,-0.850629,-0.987328,1.844954,100963.890625
18136,-11.469423,2.743755,4.053383,-0.858079,-0.827695,1.768862,100963.890625
18146,-12.155362,4.122815,4.182671,-0.462189,-0.620705,1.634770,100963.906250
18161,-11.038467,2.718616,4.776433,0.481774,-0.409989,1.448000,100963.906250
18171,-10.177752,1.529895,3.112462,1.095296,-0.246632,1.288899,100963.921875
18181,-9.103952,0.266953,1.394622,1.426800,-0.147659,1.162789,100963.921875
18191,-8.918402,-1.039083,0.011971,1.418287,-0.176393,1.067009,100964.046875
18201,-9.793482,-2.355895,-0.531513,1.087314,-0.300907,0.989853,100964.046875
18211,-10.387244,-3.469198,0.290895,0.569572,-0.423824,0.966972,100964.148438
18221,-9.991004,-2.829947,1.589750,0.115682,-0.479163,0.976550,100964.148438
18231,-9.009381,-1.334767,2.494758,-0.133345,-0.478631,0.982936,100964.109375
18241,-8.838196,0.037110,3.436877,-0.174850,-0.450430,0.929193,100964.109375
18251,-9.285912,1.064223,4.290410,-0.017345,-0.389769,0.837670,100964.062500
18271,-9.210494,0.104148,4.186262,0.718562,-0.226943,0.670587,100964.023438
18286,-9.196129,-0.995988,2.877831,0.965993,-0.175861,0.593964,100964.210938
18296,-9.362526,-1.716643,1.102530,0.937259,-0.191292,0.568422,100964.210938
18306,-9.592369,-1.985990,0.456095,0.693553,-0.249824,0.599817,100964.335938
18321,-9.758766,-1.382651,1.535880,0.335443,-0.324320,0.683890,100964.335938
18336,-9.289502,0.035913,3.661932,0.177407,-0.362631,0.769028,100964.335938
18346,-9.084799,0.300472,3.967192,0.333847,-0.344008,0.756789,100964.343750
18366,-9.430760,-0.781707,3.010709,0.582874,-0.287072,0.754129,100964.351562
18381,-9.880871,-1.121683,2.355895,0.475920,-0.278558,0.810000,100964.351562
18391,-10.017340,-0.565032,2.711433,0.367370,-0.291329,0.852569,100964.476562
18401,-9.952697,0.137667,3.065775,0.330654,-0.306760,0.883431,100964.476562
18411,-10.099940,0.615310,3.005920,0.394507,-0.326980,0.899395,100964.468750
18426,-10.234015,0.405817,2.892196,0.520085,-0.339751,0.923872,100964.476562
18441,-10.465055,-0.493206,2.475605,0.598838,-0.347732,0.999963,100964.476562
18456,-10.386047,-0.317232,2.811990,0.554140,-0.358375,1.096807,100964.289062
18471,-10.625467,0.426168,3.379416,0.524342,-0.376998,1.221321,100964.109375
18481,-10.748769,0.697910,3.321955,0.576489,-0.367953,1.287835,100964.109375
18496,-11.141418,0.167594,3.198653,0.689828,-0.347200,1.384147,100964.242188
18506,-11.392809,-0.241814,3.110068,0.719627,-0.337090,1.476202,100964.265625
18516,-11.789049,-0.296881,2.857480,0.706324,-0.331769,1.593266,100964.265625
18531,-12.131420,-0.074220,2.674323,0.657902,-0.313145,1.756623,100964.273438
18541,-12.354081,0.017957,2.351106,0.608416,-0.283879,1.927431,100964.273438
18551,-12.752715,0.319626,2.431312,0.558397,-0.263127,2.066311,100964.226562
18566,-13.828909,0.483629,2.418144,0.520085,-0.233329,2.267981,100964.187500
18591,-14.308947,-0.143652,2.695871,0.595645,-0.207255,2.519669,100964.281250
18606,-15.047558,-1.452083,3.144784,0.717498,-0.217366,2.772421,100964.281250
18616,-15.685613,-2.442086,3.348291,0.799443,-0.237586,2.918219,100964.281250
18626,-17.032351,-3.199851,4.023456,0.910122,-0.230668,3.061357,100964.210938
18641,-19.640833,-5.488708,5.856217,1.084122,-0.159898,3.224182,100964.210938
18651,-22.024261,-9.336189,7.918822,1.467241,-0.147659,3.350292,100964.171875
18666,-20.951658,-14.268245,8.572439,2.468139,-0.128503,3.361999,100964.132812
18691,-19.373880,-6.336255,2.395399,3.367937,0.027405,3.244934,100964.210938
18706,-19.147629,5.067328,-0.035913,2.203149,0.246634,3.874420,100964.171875
18721,-13.863625,3.476381,5.099649,0.796250,0.098176,4.443778,100964.171875
18731,-11.322180,-1.716643,3.594894,0.296067,-0.134356,4.096310,100964.070312
18746,-7.831434,-3.950433,1.816002,-0.217951,0.041772,3.022512,100964.070312
18761,-3.693056,-3.336320,0.585382,-0.962904,0.148194,2.216366,100963.906250
18771,-2.140416,-5.567716,1.587356,-1.424776,0.161497,1.223981,100963.750000
18781,-2.559402,-4.989516,2.433706,-1.233216,0.141809,0.277358,100963.750000
18791,-2.999935,-2.738967,0.604536,-0.788372,0.231735,-0.414384,100963.820312
18801,-1.728614,-2.321178,-0.521936,-0.582446,0.387111,-0.866146,100963.820312
18821,0.063446,-2.153584,-0.817620,-0.725584,0.546744,-1.670696,100963.820312
18831,-0.348356,-1.880645,-0.818817,-0.991638,0.648377,-2.229943,100963.773438
18841,-1.704672,-2.067393,-1.332373,-1.250776,0.732983,-2.623704,100963.773438
18856,-3.405752,-2.426523,-1.486799,-1.699877,0.853771,-3.147300,100963.726562
18866,-4.805163,-2.063802,-0.975637,-1.938794,0.905918,-3.489979,100963.726562
18876,-5.627571,-1.325191,-0.446519,-2.092041,0.952212,-3.776786,100963.687500
18891,-5.946000,-0.616507,0.703895,-2.179839,1.060230,-4.070510,100963.671875
18906,-6.658275,0.955287,1.610101,-2.173454,1.285845,-4.504712,100963.671875
18921,-7.096414,2.087744,2.449268,-2.046280,1.454523,-4.861226,100963.601562
18931,-8.353370,2.680309,2.857480,-1.752555,1.589679,-5.209758,100963.328125
18946,-9.752781,2.048239,2.832341,-1.116684,1.724835,-5.520510,100963.328125
18961,-11.438298,0.699107,1.365892,-0.459529,1.863716,-5.807317,100963.085938
18971,-12.966996,1.442507,2.226608,-0.236043,1.799330,-5.939280,100962.875000
18981,-14.426262,2.770091,3.745728,-0.073749,1.681202,-6.003665,100962.875000
19001,-16.718710,3.514688,3.159149,-0.044483,1.566798,-6.077629,100962.898438
19011,-17.374722,3.596091,3.485958,-0.490923,1.403973,-6.124454,100962.984375
19031,-19.792866,5.365406,5.169082,-1.067730,1.209221,-6.008454,100962.890625
19041,-20.598515,6.781576,6.819883,-1.157125,1.183679,-5.718987,100962.890625
19051,-20.286072,8.204929,8.239645,-0.941620,1.208157,-5.374712,100962.710938
19066,-18.743008,9.500193,9.491813,-0.472299,1.159202,-4.916033,100962.710938
19076,-16.802507,10.484209,9.879673,0.026288,0.965514,-4.447776,100962.546875
19086,-15.288175,11.494562,9.356541,0.337040,0.700524,-4.013575,100962.546875
19096,-14.579492,12.814964,8.911219,0.516361,0.388175,-3.519777,100962.609375
19111,-14.784196,15.215152,7.349002,0.817535,0.058267,-2.630090,100962.671875
19121,-14.871584,16.154877,6.245275,1.056984,-0.031127,-1.856934,100962.671875
19136,-13.262680,14.844050,5.373785,1.207571,-0.059861,-0.733118,100962.679688
19151,-11.840525,11.918336,4.777629,0.983021,-0.209916,0.518404,100962.679688
19166,-12.281057,7.084443,3.062184,0.262544,-0.529714,1.707669,100962.679688
19181,-14.166492,-3.919308,-11.352107,-0.370134,-0.297182,2.195082,100962.671875
19196,-10.886436,-32.158916,5.880159,-0.624483,-0.075292,1.550165,100962.851562
19211,-27.167007,0.991199,-10.164583,0.143884,-0.666998,0.858422,100963.070312
19221,-18.962078,15.140931,0.215478,-1.928684,-0.920282,2.420164,100963.070312
19236,-5.679047,5.724536,7.301118,-2.247950,-1.107053,3.267283,100963.117188
19251,-11.738770,3.274071,5.780800,-0.281804,-1.152815,2.245632,100963.007812
19261,-8.876503,-1.164779,8.060080,0.011921,-1.124613,2.136550,100963.007812
19276,-9.391256,-1.581370,4.581305,-0.273290,-1.150686,1.909339,100962.914062
19286,-8.929175,-0.582988,3.767276,-0.620758,-0.976154,1.923174,100962.914062
19301,-10.303447,2.626439,4.358644,-0.610116,-0.743622,1.784825,100963.109375
19321,-11.368867,3.962404,4.544195,0.272654,-0.369017,1.625192,100963.164062
19336,-10.597934,2.167950,2.628834,1.218745,-0.151916,1.360202,100963.312500
19346,-9.187749,0.128090,0.154426,1.623681,-0.083274,1.143101,100963.312500
19356,-9.234436,-2.080561,-1.146823,1.446488,-0.207255,1.056899,100963.320312
19371,-10.010158,-4.926070,-0.092177,0.607351,-0.442448,1.049449,100963.328125
19386,-9.504981,-3.278859,1.346738,-0.082263,-0.512154,1.088293,100963.328125
19396,-8.371326,-0.717063,2.533065,-0.520721,-0.524925,1.072330,100963.554688
19406,-8.935161,1.235408,3.904943,-0.559033,-0.507897,0.954734,100963.554688
19421,-9.579201,2.512715,5.194221,0.015645,-0.368485,0.795633,100963.687500
19431,-9.394848,1.471237,4.429273,0.570104,-0.259402,0.693468,100963.640625
19446,-9.097966,-0.548272,2.890999,0.958544,-0.196081,0.575872,100963.640625
19456,-9.242816,-2.032677,1.544260,0.996856,-0.202999,0.515743,100963.593750
19471,-9.743204,-2.466028,0.098162,0.631828,-0.281751,0.566826,100963.554688
19486,-9.896433,-1.319205,1.019930,0.184324,-0.367953,0.651431,100963.554688
19496,-9.343372,-0.126893,3.472790,-0.059382,-0.411586,0.714752,100963.703125
19511,-8.921992,0.766145,4.572925,0.192838,-0.375402,0.679633,100963.703125
19521,-9.307459,0.225055,3.931279,0.440801,-0.327512,0.635468,100963.828125
19536,-9.774328,-0.724246,3.044227,0.593517,-0.279090,0.633872,100963.796875
19546,-9.853337,-1.333570,2.250550,0.566911,-0.274833,0.675376,100963.796875
19566,-10.022128,-0.687136,2.612074,0.414196,-0.317402,0.765835,100963.828125
19576,-10.315418,-0.300472,2.892196,0.371095,-0.353586,0.824367,100963.875000
19586,-10.455479,0.247800,3.183091,0.403021,-0.371677,0.864275,100963.875000
19596,-10.404003,0.290895,3.460819,0.494012,-0.380723,0.902055,100963.953125
19606,-10.405201,-0.086191,2.913743,0.599902,-0.376466,0.939835,100963.953125
19616,-10.448297,-0.150835,2.492364,0.631296,-0.365292,0.998367,100964.023438
19631,-10.245986,-0.203507,2.986767,0.595113,-0.364228,1.129266,100964.023438
19646,-10.623073,-0.211887,3.341109,0.598838,-0.346136,1.250587,100964.070312
19656,-11.239580,-0.457293,3.507505,0.644067,-0.319531,1.391064,100964.000000
19666,-11.710040,-0.806846,3.274071,0.685039,-0.304099,1.519835,100964.000000
19676,-12.081141,-0.814029,3.184288,0.690361,-0.298778,1.666165,100963.937500
19686,-12.417527,-0.562637,2.630031,0.662691,-0.297714,1.819412,100963.937500
19696,-12.683284,-0.051475,2.432509,0.626507,-0.291329,1.967871,100964.062500
19711,-12.528857,-0.099359,2.054225,0.575425,-0.256210,2.210513,100964.062500
19721,-12.443863,-0.446519,2.741361,0.530728,-0.222154,2.393027,100964.054688
19731,-13.831304,-0.281319,3.315969,0.487095,-0.221090,2.545210,100964.054688
19741,-15.188815,0.492008,3.639187,0.515829,-0.251421,2.647375,100964.007812
19760,-14.932636,-0.569820,3.139996,0.804232,-0.250888,2.839999,100963.945312
19770,-15.740679,-2.363077,2.655170,0.977168,-0.254081,3.012402,100963.945312
19786,-18.630480,-4.363432,3.906140,0.982489,-0.224283,3.245466,100964.156250
19795,-20.075380,-5.234922,5.240908,0.997920,-0.224283,3.368916,100964.179688
19810,-23.160311,-8.438364,7.152678,1.419883,-0.276962,3.402971,100964.179688
19826,-20.387825,-14.888343,6.127959,2.816139,-0.167347,3.446072,100964.031250
