
60042,7.609,-5.654,2.016,0.034623,0.006722,0.027279,101505.45
60052,7.635,-5.712,2.011,0.033558,0.003529,0.033132,101505.27
60062,7.677,-5.671,2.029,0.029834,-0.001792,0.036857,101505.68
60072,7.657,-5.666,2.052,0.026109,-0.003921,0.041646,101504.54
60083,7.634,-5.740,1.996,0.024513,-0.005517,0.046967,101506.88
60092,7.630,-5.747,1.920,0.017063,-0.004453,0.049628,101506.88
60102,7.631,-5.742,1.969,0.010678,-0.001792,0.052821,101508.73
60108,7.611,-5.714,1.929,0.013870,-0.003921,0.055481,101510.45
60118,7.615,-5.710,1.939,0.018659,-0.008177,0.057610,101510.45
60128,7.601,-5.703,1.906,0.022384,-0.010838,0.062398,101505.09
60138,7.612,-5.706,1.945,0.020788,-0.009242,0.069316,101504.46
60147,7.676,-5.646,1.963,0.021852,-0.008710,0.075169,101504.46
60157,7.745,-5.573,2.026,0.027173,-0.009774,0.082619,101506.91
60168,7.752,-5.645,2.047,0.036751,-0.011370,0.085811,101507.09
60178,7.727,-5.775,2.002,0.049522,-0.014031,0.087940,101505.27
60187,7.611,-5.883,1.908,0.055375,-0.014563,0.084215,101505.27
60197,7.515,-5.975,1.888,0.052714,-0.010306,0.076233,101505.27
60208,7.445,-5.990,1.852,0.042604,-0.001792,0.063995,101509.44
60218,7.463,-5.957,1.811,0.035687,0.007786,0.054417,101507.56
60227,7.514,-5.885,1.845,0.033558,0.013639,0.049628,101508.59
60237,7.573,-5.822,1.886,0.036751,0.016300,0.047499,101506.00
60248,7.588,-5.745,1.926,0.040476,0.017364,0.049628,101506.00
60258,7.634,-5.648,2.005,0.041008,0.019492,0.052288,101508.88
60267,7.640,-5.714,2.107,0.039944,0.023217,0.052288,101508.46
60277,7.597,-5.911,2.072,0.046329,0.020556,0.050692,101507.12
60288,7.495,-5.994,1.981,0.043668,0.028006,0.042178,101507.12
60298,7.463,-6.086,1.864,0.029302,0.041309,0.027811,101508.88
60307,7.432,-6.128,1.750,0.009613,0.057272,0.016105,101508.88
60317,7.466,-5.961,1.796,-0.002093,0.068446,0.007059,101510.81
60327,7.481,-5.854,1.829,0.001100,0.074832,0.003334,101506.80
60338,7.493,-5.832,1.929,0.013338,0.072703,0.004399,101507.84
60347,7.521,-5.843,2.002,0.023980,0.067382,0.008123,101507.84
60357,7.554,-5.800,2.063,0.032494,0.063657,0.009188,101510.26
60367,7.522,-5.817,2.100,0.035155,0.060997,0.010784,101509.48
60378,7.521,-5.896,2.050,0.031430,0.063125,0.009188,101507.02
60388,7.464,-5.992,1.983,0.019724,0.068978,0.004399,101505.91
60398,7.505,-5.935,1.993,0.003760,0.076428,-0.003051,101508.36
60407,7.579,-5.850,2.015,0.000035,0.079621,-0.005179,101508.20
60418,7.581,-5.825,2.039,0.018127,0.071107,-0.004115,101505.39
60428,7.526,-5.876,2.064,0.034090,0.060465,-0.004647,101505.39
60437,7.473,-5.940,2.041,0.039412,0.056208,-0.008372,101504.97
60447,7.459,-5.928,2.052,0.033026,0.058868,-0.013161,101504.97
60457,7.461,-5.832,2.102,0.028237,0.059933,-0.017950,101506.34
60468,7.481,-5.838,2.149,0.033026,0.055144,-0.018482,101506.66
60478,7.495,-5.877,2.159,0.038879,0.046630,-0.017418,101508.38
60487,7.491,-5.865,2.136,0.043136,0.039712,-0.014225,101505.41
60497,7.488,-5.873,2.109,0.043136,0.033859,-0.011565,101505.41
60508,7.495,-5.798,2.131,0.039944,0.030667,-0.006776,101509.72
60518,7.493,-5.733,2.144,0.038347,0.026942,0.000142,101506.45
60527,7.500,-5.677,2.156,0.039944,0.022685,0.010252,101505.36
60537,7.557,-5.759,2.185,0.043668,0.016832,0.021958,101505.36
60548,7.570,-5.757,2.223,0.044201,0.010446,0.031536,101505.36
60558,7.548,-5.775,2.215,0.043136,0.007254,0.039518,101510.17
60567,7.542,-5.896,2.174,0.040476,0.005657,0.044307,101504.91
60577,7.506,-5.891,2.112,0.034623,0.003529,0.045371,101507.88
60588,7.476,-5.846,2.138,0.033026,0.001401,0.046967,101504.50
60598,7.453,-5.858,2.114,0.041540,-0.002324,0.047499,101504.50
60608,7.429,-5.843,2.048,0.056439,-0.009242,0.051224,101509.21
60617,7.406,-5.829,2.056,0.069210,-0.012434,0.055481,101506.76
60627,7.423,-5.829,2.095,0.082512,-0.017755,0.062398,101504.68
60638,7.409,-5.895,2.100,0.091558,-0.025737,0.067187,101504.68
60648,7.333,-5.955,2.094,0.093155,-0.034251,0.073573,101507.23
60657,7.252,-5.934,2.093,0.087834,-0.042232,0.082087,101507.23
60667,7.212,-5.848,2.169,0.086237,-0.055003,0.101243,101508.89
60678,7.313,-5.610,2.203,0.093155,-0.069370,0.134233,101507.95
60688,7.475,-5.494,2.247,0.095815,-0.079480,0.174674,101502.84
60698,7.623,-5.627,2.242,0.091913,-0.087994,0.215823,101505.87
60707,7.779,-5.761,2.284,0.076659,-0.088526,0.242252,101505.87
60718,7.786,-5.856,2.267,0.052182,-0.077884,0.262472,101509.77
60728,7.627,-5.975,2.170,0.030366,-0.066710,0.274178,101504.51
60738,7.390,-6.041,2.082,0.019191,-0.061921,0.276839,101505.60
60747,7.229,-6.077,1.975,0.024513,-0.058728,0.270986,101509.89
60758,7.178,-6.316,1.777,0.041540,-0.056599,0.260875,101506.83
60768,7.262,-6.570,1.506,0.055907,-0.062453,0.248105,101505.52
60778,7.319,-6.437,1.494,0.056439,-0.049682,0.228949,101505.52
60787,7.318,-6.187,1.631,0.062824,-0.016159,0.215646,101507.39
60797,7.305,-6.030,1.809,0.085705,-0.002856,0.210325,101507.39
60808,7.408,-5.873,2.191,0.108054,-0.012966,0.209261,101507.79
60818,7.294,-5.979,2.390,0.129338,-0.022544,0.203940,101507.84
60827,7.234,-6.151,2.424,0.131999,-0.019352,0.195958,101504.76
60837,7.235,-6.189,2.519,0.111779,-0.013499,0.184252,101504.91
60848,7.214,-5.864,2.569,0.092623,-0.016159,0.176802,101504.91
60858,7.183,-5.793,2.489,0.093687,-0.019884,0.181591,101509.14
60868,7.185,-6.089,2.276,0.102733,-0.026269,0.188509,101505.64
60877,7.229,-6.145,2.416,0.095283,-0.031058,0.200215,101507.05
60888,7.236,-6.137,2.576,0.067081,-0.030526,0.210857,101507.05
60898,7.272,-6.211,2.578,0.031962,-0.025737,0.222031,101507.05
60908,7.232,-6.224,2.674,-0.002625,-0.026269,0.234802,101508.85
60917,7.118,-6.144,2.727,-0.027102,-0.036379,0.242784,101506.35
60928,7.132,-6.005,2.623,-0.031359,-0.055535,0.246508,101505.82
60933,7.171,-6.013,2.534,-0.019120,-0.076287,0.252362,101506.09
60943,7.212,-6.132,2.429,0.010678,-0.100765,0.261408,101506.09
60953,7.175,-6.297,2.281,0.050586,-0.128434,0.274710,101508.84
60962,7.005,-6.488,2.204,0.061760,-0.133755,0.276839,101510.15
60973,6.925,-6.712,2.044,0.034623,-0.110343,0.267793,101508.10
60983,6.985,-6.673,1.906,-0.007946,-0.076820,0.253958,101508.68
60993,7.080,-6.528,1.968,-0.028698,-0.050746,0.239591,101508.68
61002,7.092,-6.579,2.002,-0.025506,-0.044893,0.231609,101509.49
61012,6.987,-6.688,2.094,-0.014864,-0.046489,0.226820,101509.45
61023,6.883,-6.685,2.248,-0.026570,-0.040636,0.213518,101507.57
61033,6.758,-6.753,2.410,-0.058497,-0.027333,0.199683,101505.16
61042,6.768,-6.730,2.394,-0.101065,-0.019352,0.182655,101505.16
61052,6.844,-6.414,2.285,-0.127671,-0.018288,0.174674,101508.59
61063,6.977,-6.123,2.217,-0.121286,-0.026269,0.182655,101505.98
61073,7.145,-6.002,2.246,-0.089359,-0.047554,0.210325,101506.72
61083,7.106,-6.163,2.282,-0.052111,-0.076820,0.244912,101506.20
61092,6.875,-6.382,2.378,-0.045726,-0.090654,0.275775,101506.20
61103,6.730,-6.449,2.445,-0.078185,-0.085865,0.294930,101505.80
61113,6.747,-6.408,2.533,-0.128735,-0.077352,0.309830,101507.78
61123,6.803,-6.265,2.390,-0.155341,-0.077352,0.324196,101508.88
61132,7.062,-5.885,2.364,-0.144698,-0.084801,0.349738,101502.94
61143,7.054,-6.105,2.260,-0.112772,-0.101829,0.381132,101502.94
61153,6.904,-6.565,2.042,-0.073396,-0.128966,0.411463,101506.28
61163,6.701,-6.729,2.024,-0.067542,-0.140141,0.424765,101506.13
61172,6.615,-6.833,1.996,-0.088295,-0.129498,0.431151,101506.53
61182,6.628,-6.934,2.009,-0.121818,-0.120453,0.434875,101507.78
61193,6.632,-6.860,1.951,-0.146295,-0.111939,0.438068,101507.78
61203,6.653,-6.682,1.882,-0.148423,-0.111407,0.452435,101507.02
61213,6.673,-6.729,1.748,-0.144698,-0.109810,0.471059,101509.21
61222,6.710,-6.839,1.792,-0.161194,-0.100765,0.490747,101506.29
61233,6.789,-6.826,1.931,-0.199506,-0.072031,0.502985,101505.73
61243,6.761,-7.031,2.056,-0.228772,-0.046489,0.506710,101505.73
61253,6.668,-7.246,2.016,-0.246863,-0.031058,0.500325,101509.91
61262,6.552,-7.511,1.876,-0.260698,-0.016691,0.477976,101508.08
61273,6.459,-7.801,1.620,-0.273469,-0.004985,0.446582,101509.58
61283,6.456,-7.689,1.555,-0.301671,0.012043,0.418380,101507.14
61293,6.476,-7.549,1.729,-0.334129,0.031731,0.402949,101507.14
61303,6.617,-7.420,1.997,-0.360735,0.037584,0.398692,101508.47
61313,6.777,-7.399,2.192,-0.380955,0.036520,0.400288,101508.42
61323,6.752,-7.433,2.309,-0.402240,0.029602,0.409334,101506.86
61333,6.807,-7.385,2.145,-0.431506,0.023749,0.429554,101503.47
61343,6.883,-7.467,1.901,-0.453854,0.009382,0.455628,101503.47
61352,6.814,-7.598,2.112,-0.480460,0.001401,0.491811,101507.70
61363,6.754,-7.653,2.217,-0.524093,0.002997,0.527462,101507.23
61373,7.020,-7.848,2.251,-0.569322,0.006722,0.558857,101504.22
61383,7.066,-8.211,2.807,-0.616680,0.021089,0.593444,101507.92
61392,8.134,-8.422,1.846,-0.701817,0.043437,0.621646,101507.92
61403,8.951,-8.474,1.105,-0.763542,0.005125,0.665279,101509.41
61413,9.203,-8.090,1.192,-0.798129,-0.043297,0.748820,101508.06
61423,9.161,-7.851,1.488,-0.775781,-0.108214,0.841939,101507.64
61433,9.191,-8.313,1.774,-0.759285,-0.182709,0.930802,101505.92
61443,9.576,-8.854,2.184,-0.781634,-0.243370,0.996783,101505.92
61453,9.975,-8.995,2.551,-0.814625,-0.293920,1.048398,101509.79
61463,9.987,-8.877,2.667,-0.848680,-0.313076,1.096820,101504.99
61473,9.801,-8.743,2.326,-0.900826,-0.293388,1.138857,101504.68
61483,9.875,-8.758,1.791,-0.984368,-0.260930,1.179297,101505.05
61493,10.008,-8.775,1.482,-1.094514,-0.228471,1.212288,101505.05
61503,10.368,-8.770,1.601,-1.220092,-0.198141,1.234104,101509.63
61513,10.992,-8.581,2.240,-1.369083,-0.167810,1.260710,101506.91
61522,11.759,-7.771,3.007,-1.543083,-0.105021,1.294233,101505.40
61533,12.134,-6.873,3.639,-1.707505,-0.002856,1.330948,101506.34
61543,12.225,-6.205,3.752,-1.890550,0.101437,1.383095,101506.34
61553,11.909,-6.116,3.308,-2.062422,0.200410,1.458655,101510.41
61563,11.202,-7.115,2.859,-2.143303,0.260006,1.590618,101505.23
61573,10.419,-8.314,3.326,-2.072000,0.230740,1.809315,101504.56
61583,10.937,-7.755,3.613,-1.935780,0.154116,2.000342,101505.14
61593,11.427,-6.139,3.344,-1.812863,0.108887,2.027480,101505.14
61603,10.206,-5.934,3.326,-1.726129,0.132300,1.975865,101508.70
61613,8.335,-7.153,3.344,-1.725596,0.199345,1.912012,101506.63
61623,7.092,-8.352,3.402,-1.794771,0.272244,1.851884,101506.31
61633,6.987,-8.616,3.307,-1.845853,0.339822,1.781113,101504.91
61643,7.347,-7.701,3.125,-1.817651,0.363235,1.692783,101504.91
61652,7.333,-6.262,3.340,-1.669193,0.356318,1.561884,101507.16
61663,6.827,-5.226,3.606,-1.386110,0.303107,1.436838,101505.73
61673,5.648,-4.851,3.098,-1.076423,0.245639,1.302746,101505.64
61683,4.221,-4.846,1.341,-0.963615,0.274905,1.101077,101504.80
61692,1.380,-6.524,-0.302,-1.119523,0.478171,0.783939,101504.80
61703,1.289,-6.808,0.939,-1.065780,0.712299,0.563646,101506.47
61713,3.794,-3.791,1.671,-0.923707,0.768171,0.238527,101505.89
61723,5.465,-1.184,1.198,-0.785359,0.714960,-0.109473,101504.17
61733,5.843,0.328,0.175,-0.434166,0.531914,-0.368078,101506.89
61743,5.691,1.291,0.047,0.197980,0.288740,-0.588372,101506.89
61753,5.758,1.464,0.226,0.906218,0.077492,-0.826225,101505.18
61763,5.471,0.530,0.317,1.525062,-0.088526,-1.055032,101504.55
61773,4.646,-1.044,0.460,1.990658,-0.194948,-1.255637,101506.12
61783,3.941,-2.445,0.594,2.290236,-0.234856,-1.450390,101501.59
61793,3.855,-3.247,0.471,2.409961,-0.202930,-1.692500,101501.59
61803,4.136,-3.756,0.218,2.387612,-0.111939,-1.960151,101505.70
61813,4.463,-4.185,0.179,2.276401,0.024281,-2.236315,101503.88
61824,4.786,-4.532,0.206,2.134328,0.191364,-2.508756,101502.78
61833,5.143,-4.634,0.407,1.973631,0.368024,-2.770554,101502.31
61843,5.514,-4.805,0.541,1.802291,0.522336,-3.011067,101502.31
61853,5.933,-5.202,0.490,1.633080,0.655363,-3.232957,101507.55
61863,6.355,-5.775,0.279,1.450567,0.789455,-3.445269,101504.69
61873,6.775,-6.219,0.127,1.280824,0.928868,-3.649599,101505.73
61879,7.101,-6.356,0.085,1.184512,1.031565,-3.790608,101502.97
61888,7.463,-6.317,0.071,1.140347,1.124152,-3.912993,101502.97
61898,8.014,-6.140,0.169,1.198879,1.200776,-4.048150,101502.97
61908,8.563,-6.267,0.259,1.411723,1.203969,-4.146058,101502.48
61918,9.174,-6.846,0.261,1.687356,1.160336,-4.213635,101504.09
61928,9.729,-7.839,0.174,1.916695,1.103400,-4.262590,101502.27
61938,10.107,-8.949,0.188,2.042273,1.059235,-4.299838,101502.27
61948,10.300,-9.857,0.287,2.071539,1.027840,-4.321654,101501.74
61958,10.496,-10.518,0.412,2.041208,1.008152,-4.329636,101501.74
61968,10.648,-11.245,0.609,1.987998,0.998042,-4.321122,101503.41
61978,10.752,-11.881,0.730,1.911906,0.998574,-4.284938,101507.27
61988,10.810,-12.260,0.841,1.821447,1.009748,-4.209379,101505.02
61998,10.610,-12.390,1.052,1.711833,1.014005,-4.082736,101505.02
62008,10.289,-12.164,1.210,1.569227,1.008152,-3.900755,101509.98
62018,10.052,-11.935,1.250,1.433539,0.995914,-3.663966,101508.46
62028,9.828,-11.768,1.353,1.339356,1.000703,-3.408553,101506.96
62039,9.361,-11.759,1.050,1.266989,1.027308,-3.150480,101507.49
62049,8.626,-12.518,0.234,1.186640,1.095418,-2.940297,101506.91
62058,7.897,-13.763,-0.181,0.983906,1.160868,-2.775343,101507.18
62068,6.837,-13.961,-0.507,0.570989,1.239620,-2.576334,101504.30
62078,6.011,-13.531,-0.376,0.075063,1.340189,-2.282077,101504.30
62088,6.110,-12.790,-0.126,-0.335726,1.379033,-1.925564,101505.98
62098,6.513,-11.629,-0.146,-0.541120,1.237491,-1.556279,101505.98
62108,6.696,-10.878,-0.527,-0.468753,0.917694,-1.146555,101509.86
62113,6.380,-10.823,-0.901,-0.309652,0.637804,-0.786317,101505.94
62124,5.961,-10.873,-1.220,-0.147891,0.394630,-0.371271,101509.44
62133,5.963,-10.476,-1.556,0.067081,0.102501,0.182123,101507.92
62143,6.281,-9.886,-1.858,0.315044,-0.202930,0.647719,101507.92
62153,6.330,-9.605,-2.192,0.577375,-0.512085,0.993058,101509.83
62163,5.988,-9.442,-1.628,0.830659,-0.776544,1.255388,101506.55
62173,4.344,-9.979,0.862,1.142475,-0.906911,1.480471,101507.80
62183,6.817,-4.960,6.783,1.322860,-0.830819,1.614563,101507.39
62193,16.917,7.715,13.059,1.236126,-0.515278,0.997315,101507.39
62203,22.080,2.981,0.931,0.377301,-0.034251,0.214050,101508.02
62214,16.859,-10.620,-2.976,0.095815,-0.209315,1.061701,101509.42
62223,12.738,-11.260,1.655,0.447008,-0.575939,1.857205,101507.86
62233,9.678,-7.275,4.706,0.478934,-0.441847,1.866251,101509.22
62243,9.127,-9.310,2.166,0.647081,-0.368948,1.965223,101509.22
62254,9.437,-9.946,0.380,0.966879,-0.712691,2.191370,101508.39
62263,7.787,-8.102,2.927,1.036585,-0.839333,2.136030,101507.09
62273,7.211,-6.652,3.998,0.495962,-0.595627,1.965223,101508.34
62283,5.633,-5.943,4.273,-0.210680,-0.332764,1.756636,101507.72
62294,4.630,-5.704,3.970,-0.857725,0.004061,1.533682,101507.72
62303,6.261,-4.355,2.594,-1.272771,0.238722,1.354893,101510.56
62313,8.530,-2.488,2.819,-1.213707,0.196685,1.288379,101508.69
62323,9.494,-1.985,2.920,-0.825799,0.015235,1.302214,101507.80
62333,9.356,-3.078,1.925,-0.259634,-0.209847,1.325627,101506.64
62343,8.784,-5.176,1.547,0.220329,-0.423223,1.329352,101506.64
62349,8.566,-6.365,1.665,0.399118,-0.519003,1.291040,101508.25
62358,8.187,-6.669,2.090,0.374109,-0.502507,1.204306,101508.25
62368,7.074,-6.593,2.582,0.162861,-0.354049,1.067022,101509.19
62379,6.631,-5.818,2.732,-0.079249,-0.195480,0.945169,101506.69
62389,7.410,-4.671,2.957,-0.148955,-0.149719,0.852049,101505.23
62398,8.463,-4.058,3.034,-0.027102,-0.207186,0.810013,101510.73
62408,8.885,-4.251,3.031,0.172971,-0.302966,0.815334,101508.44
62418,8.384,-4.814,3.117,0.247467,-0.342874,0.821719,101505.63
62429,7.594,-5.580,2.749,0.111779,-0.273700,0.802031,101505.63
62438,7.190,-6.164,2.510,-0.140442,-0.141205,0.758398,101506.00
62448,7.410,-5.856,2.715,-0.403304,-0.016159,0.705187,101506.00
62458,7.955,-4.936,3.029,-0.552294,0.047162,0.675921,101509.98
62469,8.323,-4.082,3.129,-0.543249,0.028538,0.699334,101507.01
62478,8.335,-3.862,3.050,-0.417671,-0.057664,0.759462,101507.01
62488,8.158,-4.186,2.943,-0.266019,-0.160893,0.823848,101506.34
62498,7.859,-4.746,2.704,-0.172368,-0.228471,0.879719,101506.34
62509,7.621,-5.137,2.610,-0.163854,-0.243902,0.912710,101509.56
62519,7.671,-5.107,2.771,-0.236221,-0.211975,0.934526,101506.52
62528,7.828,-4.716,2.889,-0.335726,-0.159829,0.951554,101504.38
62538,7.740,-4.724,2.874,-0.390533,-0.115131,0.966453,101504.38
62548,7.617,-5.232,2.453,-0.372441,-0.115664,0.979756,101504.38
62559,7.542,-5.727,2.090,-0.354882,-0.117260,0.979224,101508.37
62568,7.392,-6.322,1.801,-0.375634,-0.089590,0.956875,101508.43
62578,7.308,-6.534,1.643,-0.437359,-0.034783,0.931334,101509.21
62588,7.251,-6.533,1.723,-0.492698,0.014703,0.894618,101505.71
62599,7.306,-6.247,1.921,-0.511854,0.038648,0.865884,101505.71
62609,7.287,-6.028,2.075,-0.483652,0.038116,0.854178,101506.76
62618,7.229,-6.048,2.106,-0.419799,0.020024,0.845132,101507.65
62628,7.244,-6.242,2.139,-0.363395,0.007254,0.833958,101505.55
62639,7.129,-6.566,2.119,-0.344240,0.012043,0.818526,101505.55
62649,7.020,-6.716,2.095,-0.358074,0.029602,0.796178,101509.84
62658,7.059,-6.620,2.168,-0.400111,0.056740,0.770104,101510.89
62668,7.153,-6.506,2.327,-0.427781,0.066850,0.753077,101510.89
62679,7.139,-6.493,2.366,-0.424056,0.052483,0.751481,101504.31
62689,7.078,-6.529,2.390,-0.421928,0.036520,0.759462,101505.52
62698,7.080,-6.563,2.520,-0.451194,0.027474,0.771701,101505.52
62708,7.212,-6.518,2.684,-0.502808,0.026410,0.791921,101509.44
62718,7.370,-6.601,2.763,-0.550166,0.019492,0.821187,101508.66
62729,7.384,-6.759,2.791,-0.593267,0.010979,0.860031,101505.00
62739,7.312,-6.826,2.792,-0.643817,0.007786,0.895682,101506.16
62748,7.159,-6.930,2.775,-0.683726,-0.002856,0.931334,101506.63
62758,7.035,-7.137,2.884,-0.723634,-0.011370,0.962728,101507.46
62769,7.029,-7.414,3.651,-0.776313,0.004593,0.985609,101504.65
62778,8.260,-8.254,2.283,-0.862514,0.007254,0.991462,101504.65
62788,9.529,-8.480,1.492,-0.919982,-0.063517,1.014343,101505.27
62798,9.992,-7.982,1.522,-0.975322,-0.100765,1.075535,101505.27
62809,9.901,-7.610,1.559,-0.956166,-0.138012,1.163866,101509.97
62819,9.888,-7.814,1.434,-0.945524,-0.179517,1.261242,101508.72
62828,10.005,-8.164,1.543,-0.972661,-0.207186,1.352765,101507.78
62838,10.085,-8.234,1.740,-1.026404,-0.234856,1.440031,101505.69
62849,10.058,-8.124,1.983,-1.095046,-0.258801,1.519315,101505.69
62859,10.135,-8.131,2.351,-1.180184,-0.279553,1.594875,101509.79
62869,10.502,-8.401,2.567,-1.283413,-0.291260,1.663517,101507.15
62878,11.342,-8.667,2.888,-1.430276,-0.289131,1.720985,101505.93
62888,12.690,-8.881,3.417,-1.616514,-0.276361,1.761425,101505.93
62899,14.184,-8.793,3.767,-1.836275,-0.237517,1.809847,101505.93
62909,15.830,-8.248,3.697,-2.100734,-0.157168,1.867847,101509.73
62918,17.121,-6.828,3.357,-2.429578,-0.045957,1.931700,101506.96
62928,17.943,-5.074,2.973,-2.747779,0.063125,1.983847,101507.85
62939,17.865,-4.026,2.766,-2.929406,0.106758,2.040960,101505.38
62949,16.331,-5.358,2.642,-2.824935,0.000868,2.153590,101505.38
62959,13.692,-8.686,3.271,-2.417339,-0.300838,2.434544,101507.25
62968,12.954,-9.425,5.259,-1.998569,-0.584984,2.656966,101508.45
62979,12.617,-7.648,6.156,-1.761780,-0.678636,2.561718,101505.06
62989,10.197,-7.180,5.824,-1.479230,-0.673847,2.417516,101504.02
62999,8.272,-6.910,5.610,-1.166349,-0.662140,2.350471,101506.78
63008,8.398,-5.622,4.602,-0.874753,-0.706305,2.234471,101505.89
63019,7.956,-4.147,3.861,-0.519304,-0.803682,2.013113,101505.89
63029,6.535,-3.831,3.424,-0.201102,-0.860617,1.729498,101507.88
63039,3.834,-4.663,2.631,-0.066478,-0.830819,1.441627,101505.53
63048,1.178,-5.367,1.717,-0.125542,-0.638727,1.116508,101505.53
63058,-1.161,-8.022,0.485,-0.436295,-0.250287,0.707316,101506.38
63069,-0.206,-7.848,1.926,-0.736937,0.158373,0.372086,101509.66
63079,2.522,-4.084,2.715,-0.717781,0.263199,-0.037106,101505.38
63089,4.114,-1.009,2.685,-0.525157,0.236061,-0.458005,101506.69
63098,4.586,0.242,1.613,-0.367652,0.194556,-0.748537,101503.79
63109,4.906,1.046,0.498,-0.069139,0.057272,-0.947014,101507.49
63119,4.879,1.483,-0.011,0.515118,-0.158232,-1.168903,101503.79
63129,4.684,0.837,0.071,1.137154,-0.332232,-1.424316,101503.43
63138,4.562,-0.327,0.325,1.616053,-0.419498,-1.660041,101503.43
63149,4.481,-1.389,0.398,1.928401,-0.441315,-1.891509,101503.43
63159,4.280,-2.245,0.564,2.123685,-0.406196,-2.125637,101504.73
63169,4.228,-2.891,0.850,2.215208,-0.327975,-2.365618,101505.77
63178,4.622,-3.175,0.752,2.218401,-0.238049,-2.632205,101502.33
63188,5.004,-3.068,0.307,2.229575,-0.176856,-2.892407,101499.67
63199,5.250,-3.068,0.291,2.280126,-0.119388,-3.111636,101499.67
63209,5.438,-3.709,0.717,2.328016,-0.069902,-3.300003,101504.34
63219,5.452,-4.675,0.951,2.334933,-0.043829,-3.504333,101503.20
63228,5.423,-5.698,0.964,2.273740,0.009914,-3.742186,101501.80
63239,5.398,-6.771,0.876,2.132199,0.139217,-3.991214,101501.80
63249,5.602,-7.432,0.824,1.914566,0.358446,-4.239177,101504.02
63258,6.051,-7.610,1.039,1.661282,0.617584,-4.472241,101504.02
63268,6.816,-7.504,1.275,1.466530,0.846391,-4.686681,101499.84
63279,7.797,-7.505,1.354,1.381392,1.018262,-4.870259,101503.50
63289,8.882,-7.846,1.106,1.406402,1.130537,-5.001690,101500.67
63298,9.668,-8.634,0.730,1.465998,1.197051,-5.078314,101500.67
63308,10.090,-9.934,0.601,1.489943,1.246005,-5.108112,101506.53
63319,10.299,-11.470,0.867,1.442053,1.291767,-5.111837,101503.03
63329,10.485,-12.606,0.915,1.312218,1.325290,-5.114498,101503.77
63339,10.640,-13.381,0.684,1.211117,1.334868,-5.086296,101505.23
63349,10.813,-14.337,0.513,1.214842,1.315712,-4.978277,101503.83
63358,10.679,-14.861,0.558,1.219099,1.281124,-4.787250,101507.42
63369,10.253,-14.097,0.671,1.190365,1.257712,-4.513746,101507.42
63379,10.194,-12.757,0.912,1.185576,1.250262,-4.160425,101507.27
63388,10.192,-12.822,0.729,1.308493,1.222060,-3.809764,101505.14
63398,9.753,-14.890,0.259,1.473447,1.134262,-3.551691,101505.14
63409,8.047,-15.810,-0.491,1.348934,1.027308,-3.285636,101509.46
63419,6.416,-16.304,-1.260,1.003062,0.997510,-2.874847,101508.48
63429,4.721,-17.501,-1.790,0.577375,0.938978,-2.343802,101510.93
63438,3.390,-18.847,-2.350,0.212879,0.733051,-1.695160,101505.62
63449,3.585,-18.780,-2.186,-0.104258,0.491474,-0.898060,101505.62
63459,3.978,-17.363,-0.835,-0.306992,0.293529,-0.024868,101509.52
63469,3.876,-16.578,-0.680,-0.256974,-0.016159,0.873866,101509.48
63479,3.488,-15.308,3.292,0.268751,-0.443443,1.706086,101504.73
63489,20.570,5.905,11.766,0.807778,-0.753663,1.686930,101504.73
63499,26.639,3.133,-0.341,0.135191,-0.465792,0.677517,101504.73
63509,15.860,-13.830,-2.618,0.080384,-0.228471,1.728434,101509.72
63518,11.307,-12.721,1.930,0.706677,-0.524324,2.467003,101508.20
63529,5.848,-11.872,5.111,0.802812,-0.443088,2.379027,101506.95
63539,8.369,-15.648,3.108,0.876420,-0.420562,2.613333,101506.95
63549,12.048,-13.383,0.635,0.623136,-0.838269,2.628232,101506.95
63559,8.562,-9.081,1.360,0.030366,-0.767498,2.319076,101510.05
63568,4.260,-5.852,4.675,-0.985432,-0.155040,2.064195,101510.46
63579,1.859,-3.430,6.327,-1.590441,0.252024,1.756636,101507.87
63589,4.264,-0.762,3.709,-1.553193,0.277566,1.432581,101507.87
63599,8.218,-0.052,2.364,-0.950313,-0.075755,1.331480,101508.80
63608,11.387,-1.445,1.795,-0.042533,-0.523260,1.391077,101508.80
63619,11.945,-3.712,0.729,0.798200,-0.834012,1.446948,101508.54
63629,10.093,-6.319,0.026,1.204200,-0.952672,1.503884,101506.82
63639,7.930,-8.011,-0.458,1.027007,-0.809003,1.474086,101508.80
63648,6.204,-8.559,0.627,0.433705,-0.427480,1.325627,101508.80
63659,6.141,-7.297,2.510,-0.236753,-0.023609,1.122893,101508.80
63669,7.127,-5.319,3.453,-0.643285,0.190300,0.947829,101509.07
63679,7.995,-3.758,3.806,-0.683193,0.186043,0.847260,101508.18
63689,8.443,-3.334,3.500,-0.459707,0.050355,0.804692,101505.88
63699,8.469,-4.088,2.769,-0.171304,-0.111407,0.795114,101507.68
63709,8.231,-5.082,1.804,0.006953,-0.210379,0.787132,101506.43
63719,7.840,-5.724,1.470,0.029302,-0.210379,0.760526,101505.29
63729,7.433,-5.854,1.570,-0.073928,-0.118856,0.722215,101505.29
63738,7.323,-5.539,1.801,-0.223451,-0.002324,0.689756,101506.38
63749,7.679,-4.407,2.640,-0.334129,0.073235,0.679114,101506.38
63759,8.146,-2.892,3.854,-0.325084,0.088134,0.692416,101509.48
63769,8.632,-1.699,4.768,-0.163322,0.012043,0.734453,101509.64
63779,8.550,-1.425,5.237,0.100072,-0.158764,0.794049,101506.52
63789,8.184,-2.044,5.234,0.405503,-0.352452,0.859499,101505.63
63799,7.811,-3.849,4.123,0.665705,-0.529645,0.927609,101505.63
63809,7.833,-5.682,2.258,0.766806,-0.664801,1.003168,101508.54
63819,8.189,-6.757,0.888,0.670494,-0.675975,1.063297,101510.87
63828,8.293,-7.190,0.176,0.434237,-0.577003,1.120233,101505.34
63839,8.034,-7.122,0.067,0.159668,-0.450361,1.167590,101505.34
63849,7.599,-6.508,0.730,-0.084570,-0.313076,1.195260,101505.34
63859,7.392,-5.695,1.717,-0.266019,-0.192820,1.220801,101509.55
63868,7.651,-4.394,2.821,-0.357542,-0.120985,1.239425,101508.20
63879,7.607,-4.828,2.995,-0.345836,-0.106618,1.251664,101505.29
63885,7.360,-5.831,2.664,-0.281983,-0.141205,1.255921,101505.85
63894,7.028,-6.593,2.296,-0.219726,-0.187498,1.237297,101505.85
63904,6.882,-6.833,1.890,-0.160662,-0.216232,1.181425,101508.10
63913,6.837,-6.864,1.677,-0.124478,-0.215168,1.115976,101508.21
63924,6.784,-6.857,1.419,-0.104258,-0.203994,1.064361,101506.02
63934,6.815,-6.767,1.355,-0.081909,-0.185370,1.034031,101508.46
63944,6.827,-6.898,1.370,-0.077120,-0.148654,1.008490,101508.46
63953,6.771,-7.012,1.450,-0.128735,-0.083205,0.986141,101510.93
63964,6.787,-6.948,1.777,-0.220790,0.001933,0.957407,101506.66
63974,6.971,-7.036,2.016,-0.305396,0.077492,0.929205,101507.91
63984,7.129,-7.106,2.174,-0.369781,0.130171,0.905260,101506.35
63993,7.046,-7.121,2.327,-0.412350,0.154648,0.884508,101506.35
64004,6.894,-7.155,2.473,-0.460239,0.171144,0.870141,101510.62
64014,6.892,-7.135,2.447,-0.518239,0.180189,0.860031,101508.85
64024,7.036,-6.886,2.586,-0.576239,0.174336,0.864288,101508.32
64034,7.007,-6.940,2.807,-0.606038,0.146667,0.893554,101505.10
64044,7.082,-7.232,2.944,-0.629982,0.113676,0.924416,101505.10
64054,7.245,-7.519,2.935,-0.682661,0.097180,0.947829,101508.14
64064,7.332,-7.803,3.046,-0.756625,0.091859,0.969113,101508.56
64074,7.368,-8.057,3.777,-0.845487,0.115804,0.991462,101505.95
64083,8.498,-8.476,3.176,-0.976386,0.184446,1.012746,101506.69
64094,10.145,-8.603,1.015,-1.083340,0.147199,1.054783,101506.69
64104,10.659,-8.354,1.196,-1.150386,0.096116,1.148435,101507.17
64114,10.925,-7.654,1.329,-1.125909,0.022685,1.282526,101506.97
64119,10.927,-7.783,1.579,-1.087597,-0.040104,1.390012,101507.59
64129,10.909,-8.279,1.723,-1.073762,-0.102893,1.490581,101507.59
64139,11.103,-8.750,2.030,-1.130166,-0.157700,1.606581,101505.72
64149,11.403,-8.981,2.384,-1.247762,-0.183774,1.708746,101505.72
64159,11.831,-9.096,2.837,-1.400477,-0.190159,1.775792,101506.98
64169,13.114,-9.164,3.327,-1.570753,-0.199205,1.835920,101507.73
64179,14.614,-9.201,4.297,-1.748477,-0.215168,1.893388,101504.41
64189,16.215,-8.750,5.067,-1.947486,-0.195480,1.960966,101504.41
64199,17.791,-7.447,5.546,-2.191193,-0.102893,2.047700,101504.41
64209,18.802,-5.921,4.939,-2.486514,0.033859,2.124856,101506.70
64219,19.416,-4.407,4.103,-2.803119,0.200410,2.155718,101511.34
64229,18.685,-4.285,3.384,-3.054275,0.333437,2.172214,101507.79
64239,15.316,-7.048,2.970,-2.990954,0.248299,2.336636,101503.84
64249,12.767,-9.056,4.826,-2.622734,-0.031058,2.622911,101503.84
64260,12.942,-6.851,5.761,-2.359339,-0.218361,2.637810,101510.52
64269,11.910,-5.647,5.570,-1.977816,-0.288067,2.495204,101505.94
64279,9.826,-5.955,5.239,-1.615982,-0.330104,2.411663,101504.58
64289,9.340,-5.524,4.599,-1.306826,-0.359370,2.316416,101504.58
64300,9.196,-4.134,4.066,-0.965744,-0.419498,2.116342,101510.42
64309,7.918,-3.247,4.082,-0.591138,-0.442911,1.852948,101508.39
64319,5.468,-3.745,3.417,-0.292093,-0.424819,1.609774,101508.39
64329,2.763,-4.520,1.744,-0.171836,-0.322122,1.325627,101504.89
64339,-0.600,-7.546,-0.291,-0.422460,-0.040104,0.899939,101505.25
64349,-0.364,-7.907,1.113,-0.590606,0.328648,0.545022,101505.25
64355,1.985,-4.639,2.357,-0.537395,0.437731,0.218307,101507.82
64364,3.979,-1.412,2.652,-0.443744,0.476042,-0.197271,101503.96
64374,5.116,0.917,1.871,-0.288900,0.488281,-0.643179,101504.21
64385,5.176,1.953,0.681,0.062824,0.371217,-0.941693,101503.43
64394,5.058,2.643,0.311,0.675815,0.167419,-1.210940,101503.43
64404,4.798,2.258,0.277,1.341484,0.012575,-1.496683,101507.83
64414,4.458,0.828,0.435,1.829961,-0.053407,-1.769123,101504.95
64424,4.117,-0.774,0.635,2.096016,-0.046489,-2.046352,101505.31
64434,3.618,-2.135,0.926,2.196584,0.014703,-2.340077,101504.22
64444,3.428,-3.240,1.006,2.207759,0.109951,-2.621031,101504.22
64454,3.783,-3.930,0.696,2.125282,0.225951,-2.906242,101503.05
64464,4.198,-4.228,0.371,1.994383,0.340354,-3.181875,101503.74
64474,4.513,-4.218,0.259,1.887429,0.456354,-3.453783,101505.62
64484,5.132,-3.999,0.153,1.801227,0.576611,-3.718773,101501.71
64494,5.708,-4.027,0.261,1.742695,0.690483,-3.975250,101501.71
64504,6.188,-4.333,0.709,1.731521,0.794776,-4.210443,101500.24
64515,6.603,-4.816,1.136,1.676181,0.887363,-4.416369,101498.90
64524,7.299,-5.337,1.277,1.548475,0.987932,-4.599947,101501.40
64534,8.012,-6.079,1.024,1.437796,1.075198,-4.771286,101497.63
64544,8.807,-6.849,0.855,1.426090,1.157143,-4.934112,101497.63
64555,9.637,-7.422,0.620,1.520273,1.229510,-5.069268,101505.92
64564,10.419,-8.046,0.527,1.719814,1.272079,-5.140571,101502.53
64574,10.986,-9.369,0.650,1.926273,1.262501,-5.126204,101501.75
64584,11.177,-11.350,0.848,2.132199,1.135859,-5.037874,101502.44
64589,11.109,-12.899,0.823,2.278529,0.980482,-4.951672,101502.44
64600,11.095,-14.448,0.694,2.393997,0.818189,-4.867599,101502.44
64610,11.049,-16.379,0.732,2.456786,0.654831,-4.748938,101506.89
64619,10.404,-17.604,0.933,2.328548,0.584061,-4.619636,101504.70
64629,9.365,-17.230,0.965,1.989594,0.632483,-4.456278,101504.44
64640,8.845,-15.991,1.337,1.635209,0.751143,-4.201929,101505.18
64650,8.813,-14.764,2.259,1.458548,0.815528,-3.826260,101509.66
64659,8.797,-13.828,2.901,1.471319,0.816593,-3.372370,101506.80
64669,8.219,-14.669,1.670,1.549539,0.858097,-2.971691,101506.80
64679,7.069,-17.752,0.375,1.455888,0.919822,-2.764169,101510.13
64690,4.824,-17.680,-1.151,0.945594,1.019859,-2.536425,101509.15
64699,4.349,-16.675,-1.489,0.302274,1.199712,-2.120848,101509.15
64710,4.405,-16.267,-1.265,-0.219548,1.227027,-1.546879,101509.97
64719,4.558,-15.583,-1.744,-0.385212,1.002299,-1.033216,101509.97
64730,4.830,-15.256,-2.022,-0.333065,0.628758,-0.415968,101508.19
64740,4.536,-14.915,-2.469,-0.245799,0.295125,0.274710,101508.19
64749,4.976,-13.731,-2.050,-0.123946,0.022685,0.932930,101508.19
64759,4.773,-12.938,-1.567,0.191595,-0.283278,1.446948,101510.65
64770,9.372,-6.260,2.144,0.590145,-0.611590,1.868911,101509.09
64780,26.285,15.818,9.332,0.597063,-0.714819,1.105866,101506.10
64789,23.832,-2.309,-2.770,-0.181414,0.061529,0.537040,101506.10
64799,17.012,-16.076,-2.581,0.008549,-0.126838,2.073773,101506.10
64809,9.772,-11.988,6.126,0.343778,-0.291260,2.548415,101509.80
64820,7.408,-12.349,7.034,0.418806,-0.072031,2.500525,101508.76
64829,9.919,-14.523,3.619,0.588549,-0.393957,2.835222,101506.05
64839,8.668,-6.800,3.595,0.739136,-0.964911,2.741039,101508.87
64849,3.270,-5.065,5.824,0.417210,-0.705773,2.368030,101508.87
64860,0.442,-6.793,4.982,-0.241542,-0.384379,2.047700,101510.41
64870,3.256,-7.083,2.929,-0.658184,-0.133223,1.696508,101509.01
64879,8.307,-5.471,0.692,-0.781102,-0.066710,1.426728,101507.96
64889,11.868,-4.370,-0.262,-0.517175,-0.168875,1.343187,101507.96
64900,12.008,-4.935,-0.357,0.037283,-0.310416,1.383627,101509.04
64909,9.546,-5.929,0.473,0.394329,-0.393957,1.401719,101509.04
64919,7.246,-6.605,1.418,0.333668,-0.321590,1.320838,101508.88
64929,6.388,-6.904,2.494,0.031430,-0.136416,1.163866,101506.91
64940,6.617,-6.721,3.424,-0.328276,0.022153,0.992526,101506.23
64945,7.257,-6.150,3.705,-0.544845,0.107822,0.875994,101506.23
64954,7.829,-5.294,3.674,-0.662441,0.151988,0.784471,101509.83
64964,8.299,-4.207,3.437,-0.681597,0.158905,0.717426,101507.27
64974,8.445,-3.547,3.175,-0.594331,0.125914,0.706251,101507.06
64985,8.351,-3.597,3.156,-0.475671,0.095052,0.711572,101506.59
64994,8.206,-4.220,3.105,-0.406496,0.077492,0.722215,101506.59
65004,8.122,-4.532,3.303,-0.434166,0.087602,0.731793,101510.56
65014,8.131,-4.464,3.655,-0.512386,0.117400,0.734453,101509.30
65025,8.125,-4.328,3.723,-0.576771,0.135492,0.744563,101509.30
65035,7.952,-4.061,3.687,-0.569322,0.116868,0.764251,101506.02
65044,7.673,-4.098,3.573,-0.503872,0.071107,0.787664,101506.02
65054,7.411,-4.423,3.296,-0.428313,0.011511,0.812141,101510.05
65064,7.434,-4.559,3.247,-0.385744,-0.039572,0.828637,101506.34
65075,7.309,-4.468,3.291,-0.372973,-0.063517,0.837150,101508.33
65084,7.149,-4.431,3.287,-0.341579,-0.051810,0.849921,101504.94
65094,7.203,-4.068,3.393,-0.293157,-0.059792,0.868013,101504.94
65104,7.469,-3.374,3.836,-0.208552,-0.102893,0.894086,101507.64
65115,7.430,-3.696,3.874,-0.042001,-0.178453,0.940912,101509.58
65125,7.288,-6.164,2.266,0.126145,-0.319462,1.002104,101509.31
65134,8.005,-7.828,0.617,0.110182,-0.398214,1.021792,101508.11
65144,8.337,-8.322,0.552,-0.107983,-0.274232,0.996783,101508.11
65155,8.018,-7.500,0.820,-0.367652,-0.086930,0.971774,101511.52
65165,7.591,-6.414,1.214,-0.506533,0.032795,0.956343,101508.62
65174,7.459,-6.084,1.969,-0.532074,0.071107,0.951022,101504.38
65184,7.416,-6.156,2.898,-0.524625,0.056740,0.945701,101504.65
65195,7.196,-6.176,3.368,-0.515579,0.032263,0.929737,101504.65
65205,7.005,-6.301,3.427,-0.525689,0.012575,0.907389,101508.70
65214,6.901,-6.261,3.435,-0.565065,-0.020948,0.885572,101506.46
65224,6.866,-6.248,3.400,-0.586349,-0.047021,0.877591,101505.99
65234,6.860,-6.256,3.268,-0.578900,-0.074691,0.887701,101504.63
65245,6.955,-6.267,3.380,-0.577304,-0.099700,0.914838,101504.63
65255,6.991,-6.384,3.692,-0.617744,-0.094911,0.949425,101508.57
65264,7.235,-6.709,3.443,-0.715120,-0.052875,0.998912,101504.91
65274,7.703,-6.992,2.838,-0.828459,-0.028398,1.060104,101505.34
65285,8.553,-6.878,2.469,-0.933285,-0.044893,1.130875,101503.73
65295,9.400,-7.030,2.115,-0.988092,-0.084269,1.206967,101503.73
65304,9.980,-7.394,1.851,-0.982239,-0.125242,1.295829,101507.66
65314,10.145,-7.761,1.273,-0.967872,-0.166746,1.379902,101508.13
65325,10.115,-8.039,0.928,-0.989689,-0.207186,1.454398,101506.77
65335,10.041,-8.005,1.066,-1.038111,-0.242838,1.527297,101505.88
65344,10.112,-7.846,1.392,-1.093450,-0.268379,1.604452,101505.88
65354,10.500,-7.877,1.730,-1.137615,-0.297113,1.690122,101509.16
65364,10.946,-7.887,2.075,-1.179120,-0.351388,1.766746,101507.02
65375,11.405,-7.789,2.312,-1.231266,-0.415773,1.852948,101507.18
65385,11.870,-7.722,2.504,-1.296184,-0.471645,1.941278,101507.76
65394,12.344,-7.914,2.576,-1.402606,-0.493994,2.034397,101507.76
65404,12.992,-8.265,2.336,-1.577138,-0.465792,2.109957,101505.63
65415,14.286,-8.437,2.258,-1.866073,-0.385975,2.151462,101508.14
65425,16.800,-7.992,2.819,-2.276330,-0.276361,2.153590,101505.73
65434,20.006,-6.225,3.765,-2.664770,-0.196012,2.134434,101504.80
65444,22.199,-3.267,4.844,-2.893578,-0.176856,2.144544,101504.80
65455,21.575,-1.307,5.279,-2.861119,-0.325315,2.233406,101508.34
65465,18.529,-3.155,4.604,-2.466825,-0.682361,2.453700,101504.64
65474,15.419,-6.761,5.422,-1.770294,-1.176690,2.837351,101507.09
65484,14.734,-7.192,7.101,-1.144001,-1.502342,3.060837,101503.55
65495,13.978,-6.585,7.154,-0.768863,-1.554488,2.916635,101503.55
65505,11.049,-8.780,5.970,-0.686386,-1.474672,2.681443,101509.35
65515,9.002,-10.190,5.404,-0.840698,-1.338984,2.524470,101508.62
65524,9.749,-7.467,6.621,-0.838037,-1.262892,2.376012,101507.90
65534,10.802,-3.238,7.818,-0.510435,-1.298721,2.059052,101506.80
65545,9.531,-1.452,6.812,-0.096809,-1.404433,1.699700,101506.80
65555,5.739,-1.492,4.579,0.240549,-1.517773,1.435774,101507.26
65564,1.058,-4.550,1.414,0.363999,-1.453920,1.201645,101508.15
65574,-1.676,-9.650,1.094,0.218733,-1.048984,0.860031,101506.63
65585,1.239,-7.664,2.771,0.178824,-0.747810,0.489683,101506.52
65595,3.236,-3.550,3.328,0.193191,-0.593498,-0.065840,101506.52
65604,3.789,-1.550,2.348,0.090494,-0.342342,-0.543142,101505.63
65614,3.597,-0.496,0.941,-0.141506,-0.115131,-0.913491,101504.64
65625,3.454,0.821,0.356,-0.082442,-0.022544,-1.267876,101506.20
65635,3.498,1.690,0.513,0.294824,-0.004453,-1.701545,101505.06
65644,3.553,1.228,0.801,0.712530,0.032795,-2.120316,101505.06
65654,3.764,-0.122,0.759,1.065851,0.080153,-2.447031,101505.64
65665,3.843,-1.425,0.350,1.385649,0.107822,-2.710425,101505.64
65675,3.822,-2.563,-0.002,1.611796,0.164758,-2.947214,101503.81
65685,3.910,-3.433,-0.117,1.736310,0.240318,-3.198370,101501.00
65694,4.356,-3.668,-0.297,1.778878,0.320666,-3.481452,101501.00
65704,4.884,-3.548,-0.541,1.760255,0.414318,-3.775177,101503.81
65715,5.252,-3.659,-0.510,1.786860,0.512758,-4.048682,101502.72
65725,5.540,-4.106,-0.062,1.830493,0.620244,-4.296113,101500.69
65734,5.683,-4.712,0.416,1.803355,0.729859,-4.536094,101499.95
65744,5.866,-5.421,0.544,1.708108,0.846391,-4.780865,101499.95
65755,6.146,-6.417,0.399,1.576677,0.975161,-5.033617,101501.69
65765,6.561,-7.403,0.369,1.404805,1.152886,-5.287433,101501.17
65770,7.020,-8.024,0.313,1.263264,1.308262,-5.460369,101499.88
65779,7.538,-8.486,0.332,1.158970,1.458317,-5.594993,101499.88
65789,8.410,-9.154,0.258,1.094053,1.623803,-5.718974,101499.61
65800,9.231,-10.168,0.335,1.090328,1.718519,-5.774846,101499.61
65810,9.835,-11.611,0.560,1.130769,1.732354,-5.764204,101502.40
65820,10.273,-13.508,0.746,1.182915,1.690849,-5.733341,101503.38
65829,10.336,-15.488,0.412,1.216438,1.643491,-5.697690,101501.66
65840,10.167,-17.315,-0.148,1.240915,1.653069,-5.613084,101501.66
65850,10.154,-19.001,-0.402,1.243576,1.724904,-5.442809,101501.66
65860,9.864,-19.840,-0.051,1.143007,1.807913,-5.186864,101506.73
65869,8.861,-19.751,0.908,0.936017,1.851546,-4.819709,101505.44
65880,7.744,-18.850,2.029,0.744989,1.884537,-4.276424,101505.28
65890,7.733,-18.292,2.188,0.659319,1.926041,-3.617140,101507.58
65900,7.694,-19.010,-0.323,0.650274,1.884537,-3.009471,101507.58
65910,7.013,-21.955,-3.567,0.563540,1.724904,-2.599746,101509.16
65920,4.366,-23.006,-5.268,0.039412,1.432244,-2.214499,101508.89
65930,2.271,-22.661,-4.715,-0.711395,1.240684,-1.538188,101508.61
65940,2.422,-20.952,-3.512,-1.138679,1.039015,-0.576133,101508.61
65950,5.273,-16.203,-3.066,-1.010973,0.624501,0.419444,101510.26
65959,7.081,-12.351,-1.843,-0.267084,-0.069902,1.301682,101507.96
65970,9.687,-5.041,3.515,0.718384,-0.835608,2.012581,101507.96
65980,24.931,19.868,12.997,1.396291,-1.227773,1.367132,101506.51
65990,23.000,2.575,-1.122,0.734347,-0.429608,0.469462,101503.70
65999,16.962,-17.213,-3.527,0.808310,-0.627021,2.050361,101503.70
66010,11.177,-11.926,1.629,0.901962,-0.811663,2.409003,101512.37
66020,5.387,-8.103,6.168,0.747118,-0.346067,2.065792,101506.63
66030,5.588,-12.771,6.103,1.047760,-0.287535,2.290342,101508.88
66040,11.460,-12.004,4.015,1.440457,-0.797828,2.735718,101505.54
66050,10.847,-6.933,3.105,1.352126,-1.204360,2.627700,101508.50
66060,6.560,-6.443,3.558,0.931760,-1.097406,2.369627,101509.03
66070,3.353,-7.939,4.010,0.158072,-0.800489,2.141351,101507.47
66080,4.070,-6.234,3.186,-0.638496,-0.347663,1.899773,101507.36
66089,6.995,-2.556,2.132,-0.976918,-0.119920,1.709278,101507.36
66100,9.635,-1.063,1.783,-0.670423,-0.247627,1.658728,101507.36
66110,10.471,-3.405,1.233,-0.123946,-0.517939,1.734819,101511.96
66120,9.641,-5.634,1.203,0.337393,-0.724929,1.797608,101510.40
66129,8.268,-6.269,1.716,0.532145,-0.726526,1.736416,101507.68
66140,6.749,-6.296,2.096,0.391136,-0.565828,1.612966,101505.96
66150,6.115,-5.885,2.720,0.066017,-0.351920,1.492710,101505.96
66160,6.777,-5.112,2.947,-0.226111,-0.210911,1.390012,101511.98
66170,7.885,-4.713,2.804,-0.313377,-0.181113,1.318710,101508.36
66180,8.454,-5.033,2.421,-0.196313,-0.238581,1.274544,101508.33
66190,8.399,-5.464,1.839,-0.019120,-0.306159,1.231976,101508.33
66200,7.804,-5.762,1.498,0.083577,-0.314673,1.185150,101508.33
66210,7.315,-5.951,1.271,0.072402,-0.252948,1.130343,101506.69
66220,7.314,-6.064,1.319,-0.038276,-0.145462,1.075003,101506.64
66230,7.376,-6.036,1.760,-0.197909,-0.023077,1.030838,101506.11
66240,7.592,-5.655,2.483,-0.373506,0.086006,1.003701,101507.67
66249,7.846,-5.124,2.953,-0.479928,0.142410,0.986141,101507.67
66260,7.947,-4.948,3.127,-0.476203,0.134428,0.987205,101509.53
66270,7.797,-5.277,2.889,-0.416606,0.090795,0.990398,101507.03
66280,7.560,-5.637,2.672,-0.381487,0.054612,0.991462,101504.69
66290,7.409,-5.919,2.493,-0.403304,0.051951,0.977627,101506.71
66300,7.461,-6.192,2.252,-0.477799,0.095584,0.955811,101508.34
66310,7.517,-6.411,1.957,-0.556551,0.152520,0.934526,101508.96
66320,7.578,-6.239,2.080,-0.607102,0.198813,0.916435,101508.96
66330,7.597,-5.907,2.410,-0.620404,0.217969,0.907389,101506.30
66340,7.576,-5.719,2.928,-0.589542,0.196153,0.897811,101508.02
66350,7.314,-5.868,2.907,-0.522496,0.142942,0.898875,101508.02
66361,6.897,-6.435,2.564,-0.440197,0.084764,0.889474,101507.82
66370,6.760,-6.850,2.270,-0.419799,0.065254,0.868013,101507.82
66380,6.725,-7.071,2.295,-0.459175,0.086538,0.833426,101503.62
66391,6.869,-6.952,2.475,-0.535267,0.134428,0.800967,101504.60
66400,7.245,-6.893,2.612,-0.614019,0.181254,0.785004,101504.60
66410,7.590,-6.660,2.799,-0.699157,0.221694,0.794049,101506.17
66420,7.738,-6.465,3.159,-0.793872,0.253088,0.830765,101508.55
66430,7.803,-6.251,3.789,-0.888056,0.274905,0.893022,101507.34
66440,7.883,-6.170,4.587,-0.976918,0.303639,0.965921,101507.34
66450,8.999,-6.760,3.081,-1.055138,0.281290,1.039884,101507.34
66460,9.959,-7.268,2.157,-1.097707,0.174336,1.133535,101509.63
66470,10.176,-7.045,2.119,-1.133358,0.112611,1.242618,101506.75
66480,10.123,-6.821,1.851,-1.106221,0.051419,1.361810,101506.70
66490,10.253,-7.277,1.397,-1.068441,-0.031058,1.471957,101505.97
66500,10.533,-7.901,1.350,-1.077487,-0.103957,1.569333,101505.97
66510,10.647,-7.947,1.632,-1.118991,-0.163553,1.659260,101508.95
66521,10.929,-7.778,2.032,-1.164753,-0.220489,1.747058,101508.73
66530,11.322,-7.881,2.498,-1.198276,-0.284874,1.824214,101506.34
66540,11.830,-7.826,2.771,-1.248294,-0.341810,1.902966,101506.34
66550,12.112,-7.872,2.767,-1.327046,-0.372673,1.988636,101507.43
66560,12.405,-8.004,2.664,-1.470184,-0.368416,2.068985,101507.43
66570,13.096,-8.257,2.753,-1.719211,-0.302966,2.133370,101510.09
66580,14.454,-8.258,3.395,-2.137982,-0.127902,2.180727,101508.93
66590,17.154,-7.222,4.178,-2.712128,0.138685,2.217975,101508.46
66599,20.230,-4.839,4.717,-3.288403,0.362171,2.264269,101508.46
66610,21.951,-2.576,4.360,-3.576806,0.371217,2.322801,101506.84
66620,21.130,-2.300,4.263,-3.439522,0.155712,2.432948,101507.57
66630,17.919,-5.321,4.996,-2.954770,-0.213040,2.691553,101504.45
66640,15.772,-7.714,7.314,-2.265688,-0.658416,3.056048,101504.79
66651,15.948,-7.058,8.279,-1.698459,-0.961718,3.142782,101507.02
66660,14.300,-7.621,7.613,-1.225413,-1.126140,2.982085,101503.23
66670,11.121,-9.737,5.889,-0.948716,-1.246397,2.889498,101506.51
66680,9.644,-9.283,6.016,-0.712992,-1.317167,2.911846,101506.51
66690,9.761,-7.048,6.697,-0.360203,-1.357076,2.770305,101505.30
66700,8.262,-5.698,6.381,0.027705,-1.352287,2.365370,101505.30
66710,5.467,-5.004,5.202,0.261301,-1.316635,1.864654,101507.43
66720,1.244,-6.454,1.890,0.142641,-1.106984,1.325095,101506.65
66731,-2.174,-8.654,1.422,-0.287304,-0.550397,0.806288,101508.30
66740,-0.344,-6.212,2.412,-0.681597,-0.066710,0.351866,101506.38
66750,1.640,-2.054,2.169,-0.905083,0.177529,-0.179711,101506.38
66760,2.428,0.203,1.088,-1.084936,0.398354,-0.643179,101506.48
66770,2.607,1.343,-0.300,-1.117395,0.474446,-0.988518,101506.72
66781,2.434,2.030,-1.107,-0.779505,0.398887,-1.290757,101506.30
66790,2.379,2.101,-1.095,-0.201102,0.310024,-1.629711,101506.30
66800,2.555,1.507,-0.632,0.353888,0.258942,-1.967600,101506.30
66810,2.875,0.622,-0.225,0.824806,0.244043,-2.261325,101506.30
66820,3.220,-0.035,-0.079,1.253686,0.241382,-2.507159,101504.43
66830,3.400,-0.744,-0.191,1.637337,0.230740,-2.731710,101505.48
66840,3.558,-1.263,-0.279,1.948089,0.231804,-2.952535,101502.82
66850,3.997,-1.583,-0.226,2.213612,0.234465,-3.176553,101502.82
66861,4.478,-1.785,-0.024,2.507337,0.214244,-3.402168,101503.34
66870,4.876,-2.302,0.262,2.808511,0.199345,-3.609691,101502.56
66880,5.118,-2.958,0.509,3.033593,0.210520,-3.801250,101500.72
66890,5.231,-3.759,0.855,3.139483,0.255217,-3.994406,101500.72
66900,5.255,-4.791,1.249,3.037850,0.356318,-4.205654,101501.05
66910,5.566,-5.958,1.277,2.715391,0.510097,-4.453617,101501.05
66920,5.926,-7.167,0.805,2.298749,0.695804,-4.745214,101502.97
66930,6.607,-8.123,0.428,1.895410,0.961327,-5.039470,101503.97
66940,7.348,-9.056,0.496,1.489943,1.315712,-5.281048,101502.19
66950,7.965,-10.152,0.826,1.073833,1.673821,-5.460901,101502.19
66960,8.529,-11.101,0.795,0.768402,1.920720,-5.641286,101505.28
66970,9.293,-12.001,0.578,0.669962,2.055876,-5.793469,101503.47
66980,10.325,-13.006,0.314,0.737007,2.087803,-5.832846,101502.84
66991,11.540,-13.524,0.084,0.916328,2.029803,-5.737066,101503.20
67001,13.225,-13.859,-0.258,1.240915,1.869638,-5.532204,101507.74
67010,14.602,-14.835,-0.618,1.579869,1.613161,-5.248057,101506.34
67020,13.975,-16.494,-0.364,1.812401,1.301877,-4.908571,101506.70
67031,11.869,-17.558,0.111,1.941172,1.003895,-4.545672,101506.70
67040,10.138,-17.325,0.126,1.965117,0.876189,-4.117324,101504.71
67050,9.355,-17.326,0.101,2.036419,0.826171,-3.596920,101504.71
67060,8.587,-18.076,-1.029,2.139117,0.672923,-3.043526,101510.54
67070,7.552,-19.806,-2.869,2.133263,0.452098,-2.483214,101509.70
67080,5.824,-20.388,-3.841,1.846456,0.236061,-1.866499,101509.80
67090,4.147,-19.926,-3.469,1.381925,-0.000196,-1.149215,101506.52
67100,3.497,-18.949,-2.384,1.040310,-0.307755,-0.368078,101506.52
67110,3.919,-17.149,-1.241,0.934952,-0.635003,0.425297,101510.38
67121,2.800,-16.353,1.070,1.131833,-0.881902,1.161205,101507.20
67130,0.121,-18.606,3.351,1.369686,-0.921278,1.862526,101507.10
67140,10.964,-5.753,9.152,1.187704,-0.766966,1.976929,101507.10
67150,21.812,3.678,2.287,-0.262827,-0.164618,0.758398,101507.10
67161,16.429,-13.980,-4.503,-1.685156,0.841070,1.014875,101509.03
67170,15.246,-15.444,-2.346,-1.991119,0.717088,1.866251,101509.72
67180,11.180,-6.444,4.566,-1.863413,0.711235,1.872636,101508.83
67186,8.736,-4.139,8.436,-1.397285,0.701657,1.801865,101506.91
67195,9.146,-8.774,7.290,-0.617744,0.487217,2.104636,101506.91
67206,11.283,-10.097,4.850,0.273540,-0.247095,2.691553,101507.73
67215,8.247,-4.730,5.222,0.540127,-0.797296,2.555865,101506.48
67225,2.496,-6.086,4.692,0.123485,-0.527517,2.191370,101507.41
67235,1.600,-7.768,2.345,-0.528350,-0.140673,1.856673,101509.49
67246,5.824,-6.521,2.609,-1.033322,0.247767,1.535810,101509.49
67255,9.690,-3.903,1.368,-1.114202,0.279162,1.319242,101510.12
67265,11.202,-3.179,1.714,-0.649138,0.087070,1.291572,101509.74
67275,10.575,-3.917,1.499,-0.032955,-0.215700,1.334673,101510.23
67286,8.710,-5.630,1.596,0.323558,-0.373737,1.325627,101507.66
67295,7.299,-6.615,2.378,0.257577,-0.338085,1.224526,101507.66
67305,6.766,-6.548,3.247,-0.029231,-0.166746,1.073407,101510.48
67315,6.746,-6.047,3.345,-0.302203,-0.002324,0.912710,101506.35
67325,7.041,-5.202,3.311,-0.422992,0.083345,0.769040,101505.73
67336,7.515,-4.543,3.254,-0.390001,0.088667,0.671664,101506.87
67345,7.840,-4.462,2.864,-0.267616,0.039180,0.628031,101506.87
67355,8.114,-4.623,2.354,-0.161726,-0.002856,0.607811,101510.29
67365,8.121,-4.979,2.051,-0.140974,0.005657,0.592912,101507.43
67376,8.049,-5.186,2.095,-0.191524,0.063125,0.586527,101507.05
67385,8.013,-5.036,2.442,-0.284643,0.119529,0.584398,101506.80
67395,8.119,-4.596,2.817,-0.378295,0.165290,0.599297,101506.80
67405,8.171,-4.325,3.149,-0.435230,0.187639,0.628563,101509.34
67416,8.236,-4.384,3.146,-0.444276,0.178593,0.670600,101506.48
67421,8.238,-4.534,3.066,-0.437359,0.161033,0.704655,101507.26
67430,8.195,-4.717,3.044,-0.419799,0.139217,0.728600,101507.26
67440,8.126,-5.026,3.047,-0.406496,0.121657,0.749884,101509.65
67450,8.050,-5.306,2.951,-0.429909,0.120061,0.759994,101509.65
67461,7.995,-5.562,2.780,-0.480460,0.133364,0.757334,101506.70
67471,7.902,-5.575,2.726,-0.531010,0.152520,0.753077,101507.35
67480,7.734,-5.464,2.738,-0.560808,0.164226,0.755737,101505.76
67490,7.582,-5.321,2.810,-0.564533,0.166355,0.764251,101505.76
67501,7.500,-5.362,2.791,-0.553891,0.159437,0.772765,101505.76
67511,7.528,-5.557,2.785,-0.551762,0.144538,0.780747,101506.06
67520,7.782,-5.703,2.799,-0.567194,0.135492,0.788728,101509.70
67530,7.949,-5.824,2.692,-0.584221,0.128575,0.798306,101508.25
67540,7.909,-5.780,2.591,-0.593799,0.112079,0.809481,101506.31
67551,7.746,-5.576,2.751,-0.591138,0.086538,0.827572,101506.31
67561,7.664,-5.502,2.994,-0.566129,0.053547,0.850985,101507.13
67570,7.564,-5.394,3.426,-0.533139,0.010446,0.870673,101506.30
67580,7.341,-4.918,4.000,-0.491634,-0.036379,0.895150,101506.16
67591,6.971,-4.394,4.670,-0.412882,-0.081609,0.932930,101506.16
67601,6.562,-4.044,5.241,-0.299010,-0.133755,0.984545,101506.63
67610,6.195,-4.177,5.405,-0.190460,-0.198141,1.040948,101507.77
67620,5.981,-5.097,5.048,-0.133524,-0.255076,1.094159,101507.77
67631,6.043,-6.163,4.417,-0.186203,-0.288067,1.126086,101506.83
67641,6.534,-6.814,3.262,-0.317102,-0.282214,1.141517,101505.11
67650,6.756,-7.305,2.211,-0.441084,-0.269975,1.171315,101505.11
67660,7.093,-7.818,0.789,-0.533139,-0.283278,1.221334,101508.63
67671,7.769,-8.340,-0.477,-0.630515,-0.309352,1.259645,101509.25
67681,8.657,-8.931,-1.355,-0.770459,-0.294452,1.278801,101506.64
67691,9.729,-8.670,-1.428,-0.912533,-0.250819,1.301682,101507.48
67700,10.418,-7.966,-1.095,-0.955634,-0.258269,1.349040,101508.26
67710,10.716,-7.732,-0.570,-0.882203,-0.317865,1.416618,101509.20
67721,10.822,-7.961,0.247,-0.790147,-0.391829,1.492710,101506.85
67731,10.788,-8.283,0.987,-0.755560,-0.449296,1.566673,101505.87
67740,10.953,-8.367,1.777,-0.793340,-0.489205,1.634783,101505.87
67750,11.239,-8.100,2.483,-0.878478,-0.517939,1.700232,101505.87
67761,11.577,-7.761,3.261,-0.966808,-0.549865,1.764086,101509.10
67771,11.819,-7.637,3.794,-1.035982,-0.599351,1.848691,101508.41
67780,12.020,-7.716,3.964,-1.137615,-0.630214,1.927975,101508.48
67790,12.356,-7.973,3.942,-1.329707,-0.598819,1.996617,101505.02
67801,13.290,-8.089,3.673,-1.624496,-0.504636,2.039186,101505.02
67811,15.190,-7.625,3.894,-2.045395,-0.351920,2.046104,101510.16
67821,17.810,-6.733,4.335,-2.522697,-0.192820,2.028012,101505.95
67830,20.129,-4.303,4.951,-2.932421,-0.057132,2.001939,101504.98
67841,20.396,-1.881,5.100,-3.080880,-0.038508,2.041315,101504.98
67851,18.027,-3.098,3.915,-2.765339,-0.326379,2.260012,101504.98
67861,15.000,-6.502,4.230,-2.052312,-0.848911,2.703259,101509.02
67870,14.260,-7.711,6.843,-1.338753,-1.174030,3.041149,101507.39
67880,14.323,-8.072,7.686,-0.899762,-1.233094,3.055516,101505.58
67891,12.046,-10.067,6.512,-0.788019,-1.162856,2.931534,101505.47
67900,9.353,-10.810,5.492,-0.938074,-1.012269,2.821388,101505.47
67911,8.987,-8.386,6.136,-1.008312,-0.778140,2.680911,101506.84
67920,9.413,-5.252,6.692,-0.889120,-0.596691,2.393039,101505.43
67931,8.363,-3.761,5.795,-0.655524,-0.540287,1.927975,101507.30
67941,5.350,-3.511,4.391,-0.594863,-0.466856,1.507077,101505.91
67951,1.434,-5.603,1.707,-0.686918,-0.281150,1.174508,101509.15
67960,-2.346,-10.080,0.536,-0.908808,0.146667,0.854178,101506.74
67971,-0.222,-9.154,1.882,-1.125909,0.519143,0.529059,101506.74
67981,2.465,-4.541,1.851,-1.245633,0.653767,-0.021675,101504.35
67991,3.227,-1.758,1.553,-1.134423,0.762850,-0.478757,101505.60
68000,3.007,-0.420,0.863,-0.973193,0.840538,-0.772482,101505.60
68012,2.778,0.845,0.098,-0.788196,0.885057,-1.046696,101506.33
68021,2.813,1.701,-0.438,-0.443744,0.845327,-1.300335,101506.33
68031,3.273,2.517,-0.516,0.241081,0.678776,-1.602573,101504.73
68041,4.065,2.309,-0.227,0.954640,0.535639,-1.873949,101504.22
68050,4.740,1.356,0.193,1.582530,0.409529,-2.140536,101504.22
68061,5.006,0.043,0.199,2.143906,0.294061,-2.376261,101502.20
68071,4.877,-1.230,-0.025,2.563208,0.209455,-2.581655,101501.83
68081,4.661,-2.404,-0.109,2.806382,0.167951,-2.798223,101504.08
68090,4.606,-3.382,-0.085,2.896309,0.162630,-3.054700,101504.08
68101,4.584,-4.008,-0.196,2.869171,0.181786,-3.336186,101504.08
68111,4.664,-4.273,-0.306,2.755300,0.239254,-3.612351,101502.80
68121,4.924,-4.339,-0.395,2.626529,0.336098,-3.888516,101501.40
68130,5.347,-4.503,-0.104,2.527025,0.466997,-4.166810,101500.82
68141,5.900,-4.848,0.426,2.402511,0.616519,-4.441379,101500.46
68151,6.534,-5.285,0.978,2.180621,0.771363,-4.720204,101500.46
68161,7.229,-6.043,0.942,1.857099,0.929400,-5.008607,101502.63
68171,7.840,-7.153,0.793,1.596897,1.090097,-5.278387,101500.80
68180,8.399,-8.389,0.698,1.382457,1.299216,-5.502938,101502.16
68191,8.679,-9.444,0.747,1.265392,1.525895,-5.660442,101502.16
68201,8.941,-10.249,1.016,1.229209,1.716390,-5.737598,101503.91
68210,9.913,-11.107,1.131,1.224952,1.816427,-5.745580,101503.91
68220,11.386,-12.742,1.018,1.256879,1.803124,-5.703011,101504.18
68231,12.428,-15.181,0.801,1.315411,1.735546,-5.641286,101506.41
68241,12.531,-17.565,0.518,1.330842,1.699895,-5.568387,101506.10
68250,11.515,-18.606,0.290,1.289337,1.719583,-5.450259,101506.10
68260,10.342,-17.978,0.223,1.185044,1.782372,-5.174626,101506.93
68271,9.710,-16.920,0.966,1.155246,1.830794,-4.664865,101508.49
68281,9.534,-16.412,1.882,1.245704,1.779711,-4.015159,101506.10
68291,9.640,-17.236,1.097,1.376603,1.677546,-3.383012,101507.94
68301,9.259,-20.237,-2.633,1.364365,1.598262,-2.925398,101508.78
68311,7.263,-23.472,-5.842,0.991888,1.406170,-2.627948,101509.92
68321,4.066,-23.438,-6.095,0.176696,1.108721,-2.097967,101511.13
68331,2.284,-23.054,-3.720,-0.588478,0.824042,-1.124206,101511.13
68340,3.303,-19.423,-1.790,-0.852936,0.528189,0.051224,101509.41
68350,6.595,-14.370,-0.248,-0.426184,0.066318,1.081389,101509.41
68361,7.010,-12.160,-0.444,0.457650,-0.608397,1.850819,101511.76
68371,11.408,-0.926,5.453,1.371282,-1.287901,2.273315,101509.21
68381,24.667,19.702,8.528,1.630420,-1.431571,1.250600,101507.70
68390,18.852,-1.588,-3.057,0.859393,-0.509957,0.722747,101506.96
68401,14.670,-17.593,-0.823,0.996677,-0.625425,2.190838,101506.96
68411,8.321,-16.481,8.805,1.344145,-0.463131,2.557461,101508.34
68421,10.993,-18.771,4.884,1.453759,-0.346599,2.703791,101508.20
68431,13.093,-13.046,-2.437,1.395759,-1.232562,2.820856,101507.48
68441,7.596,-6.909,0.173,1.279759,-1.338452,2.557993,101507.48
68451,4.210,-7.334,3.052,0.436365,-0.703645,2.398893,101507.48
68461,3.121,-6.460,3.307,-0.561872,-0.209847,2.158379,101506.75
68470,5.054,-4.753,2.849,-1.133358,0.191364,1.792287,101506.70
68481,7.907,-2.507,2.746,-1.123780,0.205731,1.600728,101506.66
68491,9.872,-1.322,3.358,-0.680533,-0.035847,1.597003,101507.91
68501,9.833,-1.561,3.499,0.035687,-0.358306,1.597003,101507.91
68511,8.190,-3.813,3.078,0.583228,-0.606269,1.578911,101510.23
68520,7.013,-6.336,2.210,0.755099,-0.681296,1.496966,101510.91
68531,6.960,-8.016,1.756,0.539595,-0.554122,1.335205,101508.28
68541,7.477,-8.181,1.725,0.075063,-0.279021,1.149499,101508.28
68551,8.059,-6.553,2.060,-0.377230,-0.004985,1.003701,101509.20
68560,8.414,-4.641,2.543,-0.594331,0.131767,0.929205,101509.20
68571,8.663,-3.376,3.120,-0.550698,0.118997,0.916435,101509.36
68581,8.484,-3.595,3.291,-0.338918,0.013107,0.922820,101507.94
68591,7.935,-4.730,3.049,-0.169708,-0.080544,0.914306,101507.84
68601,7.394,-5.570,2.965,-0.164209,-0.077706,0.861095,101509.80
68611,7.247,-5.662,3.129,-0.274001,-0.008177,0.792985,101509.80
68621,7.400,-5.487,3.056,-0.422992,0.074300,0.723811,101509.74
68631,7.782,-5.220,2.836,-0.549634,0.139749,0.679114,101507.87
68641,8.127,-4.913,2.815,-0.625193,0.177529,0.669004,101509.18
68652,8.378,-4.592,2.929,-0.642221,0.170611,0.686563,101508.03
68661,8.413,-4.542,3.216,-0.616148,0.141345,0.716893,101508.92
68671,8.208,-4.625,3.562,-0.573047,0.095584,0.745627,101507.36
68681,7.916,-4.914,3.511,-0.541120,0.053015,0.761059,101507.36
68690,7.713,-4.951,3.226,-0.527285,0.022153,0.769572,101504.91
68701,7.596,-4.846,3.053,-0.517707,-0.000196,0.782875,101504.91
68711,7.538,-4.722,2.940,-0.494294,-0.024141,0.806288,101509.43
68721,7.549,-4.652,2.977,-0.466093,-0.045957,0.837150,101506.30
68730,7.525,-4.726,3.040,-0.431506,-0.063517,0.868545,101506.66
68741,7.441,-5.017,2.956,-0.395854,-0.091719,0.897279,101505.10
68751,7.357,-5.198,2.870,-0.371377,-0.111407,0.916967,101505.10
68761,7.294,-5.452,2.873,-0.358606,-0.126306,0.936123,101506.55
68771,7.344,-5.576,2.751,-0.360203,-0.157168,0.955279,101506.87
68781,7.422,-5.417,2.837,-0.375634,-0.178453,0.967517,101509.68
68791,7.384,-5.623,2.862,-0.374570,-0.184838,0.985077,101509.68
68801,7.374,-6.171,2.715,-0.382551,-0.203462,1.005297,101509.68
68811,7.418,-6.527,2.652,-0.436827,-0.205058,1.020728,101508.92
68820,7.347,-6.493,2.927,-0.524625,-0.180049,1.030838,101507.09
68831,7.118,-6.260,3.073,-0.599120,-0.153443,1.049994,101508.41
68836,7.089,-6.327,3.013,-0.626790,-0.131627,1.072875,101505.91
68846,7.174,-6.550,2.702,-0.656588,-0.119388,1.100545,101505.91
68856,7.628,-6.872,2.005,-0.727891,-0.108746,1.145242,101507.18
68866,8.199,-7.018,1.756,-0.810900,-0.111407,1.199517,101503.90
68876,9.153,-6.838,1.248,-0.884331,-0.134820,1.269755,101506.71
68886,9.577,-6.982,1.576,-0.911469,-0.183774,1.355957,101505.46
68896,9.735,-7.099,1.804,-0.914129,-0.240177,1.452801,101505.46
68905,9.768,-7.477,1.677,-0.894441,-0.293920,1.540067,101508.58
68916,9.880,-7.881,1.667,-0.894973,-0.346599,1.612966,101507.53
68926,9.937,-8.047,1.857,-0.937542,-0.390232,1.680012,101508.89
68936,10.032,-8.042,2.091,-0.997138,-0.422159,1.743333,101505.08
68945,10.279,-8.083,2.475,-1.059395,-0.457810,1.810379,101505.08
68956,10.745,-8.199,2.710,-1.119523,-0.497186,1.880085,101507.11
68966,11.429,-8.258,2.903,-1.188698,-0.533370,1.943939,101506.69
68976,12.062,-8.422,2.718,-1.278092,-0.558911,2.001939,101505.03
68986,12.651,-8.668,2.463,-1.419633,-0.550929,2.059939,101505.97
68996,13.972,-8.707,2.489,-1.650569,-0.516342,2.100379,101505.97
69006,16.458,-8.846,3.489,-1.981541,-0.487076,2.112617,101506.86
69016,19.941,-7.941,5.251,-2.413615,-0.392893,2.122728,101506.39
69026,22.161,-5.355,6.922,-2.874954,-0.186434,2.174874,101507.58
69036,22.056,-2.643,6.614,-3.108550,-0.055003,2.241388,101504.88
69046,19.812,-2.912,5.628,-3.022880,-0.091719,2.361645,101504.88
69056,15.088,-8.303,4.437,-2.609963,-0.356177,2.697938,101507.86
69066,12.495,-11.476,6.789,-2.198642,-0.642984,3.029975,101507.19
69076,12.765,-10.258,8.744,-2.053908,-0.600416,3.039021,101504.89
69086,12.561,-8.661,8.264,-1.770294,-0.501443,2.910250,101504.36
69096,12.061,-6.609,6.990,-1.432404,-0.520599,2.834690,101504.36
69106,11.978,-3.466,5.826,-1.039175,-0.642984,2.669736,101507.11
69116,10.873,-1.269,4.615,-0.575175,-0.724397,2.314287,101508.36
69126,8.137,-1.383,3.102,-0.215469,-0.747278,1.924783,101505.19
69136,4.525,-2.491,1.094,-0.147359,-0.640324,1.576251,101504.92
69146,-1.462,-8.212,-1.744,-0.472478,-0.217297,1.171847,101504.92
69156,-3.474,-11.928,-0.001,-0.975854,0.473914,0.862692,101506.51
69166,-0.360,-7.529,2.375,-1.295120,0.869804,0.381664,101505.10
69176,2.397,-2.251,2.841,-1.237652,1.018794,-0.215363,101503.43
69186,3.372,0.717,2.260,-1.005120,1.047528,-0.641051,101508.85
69191,3.407,1.651,1.488,-0.786423,1.018794,-0.828885,101508.85
69201,3.209,2.030,0.533,-0.493230,0.926739,-0.952867,101508.85
69212,3.039,2.848,-0.260,0.170843,0.679840,-1.141234,101507.43
69221,3.375,3.306,-0.145,1.066916,0.413254,-1.389729,101504.46
69231,3.725,2.340,0.328,1.815594,0.222758,-1.666958,101506.02
69241,3.920,0.770,0.711,2.379098,0.101437,-1.973453,101503.47
69252,3.985,-0.516,0.894,2.768070,0.050355,-2.263985,101503.88
69261,3.853,-1.610,1.003,2.970804,0.059401,-2.529508,101503.98
69271,3.782,-2.568,1.111,3.043171,0.088134,-2.780132,101503.98
69281,3.839,-3.392,0.981,3.019758,0.112611,-3.034480,101502.63
69292,3.974,-4.044,0.601,2.907483,0.147731,-3.301599,101503.88
69301,4.154,-4.464,0.413,2.715924,0.227547,-3.584682,101503.88
69311,4.629,-4.643,0.204,2.521171,0.348868,-3.870957,101504.88
69321,5.279,-4.846,0.393,2.383887,0.483492,-4.154039,101502.73
69331,5.829,-5.259,0.964,2.224254,0.642061,-4.424883,101503.05
69342,6.461,-5.661,1.493,1.971502,0.809675,-4.679764,101500.13
69351,7.089,-6.295,1.343,1.619778,0.982611,-4.938901,101501.75
69361,7.605,-7.119,1.063,1.370750,1.148097,-5.176222,101502.80
69371,8.321,-7.811,1.024,1.247833,1.340721,-5.382149,101501.70
69382,9.298,-8.431,1.122,1.278163,1.499822,-5.528479,101501.70
69391,10.302,-9.660,1.101,1.435668,1.564207,-5.600314,101501.70
69401,11.160,-11.519,1.088,1.685759,1.498225,-5.571048,101501.70
69411,11.947,-13.703,0.957,1.949154,1.332207,-5.467818,101505.85
69422,12.490,-16.220,0.571,2.108254,1.163528,-5.331066,101504.85
69427,12.529,-18.228,0.329,2.116768,1.084776,-5.228369,101506.21
69436,11.921,-19.450,-0.109,1.964585,1.081583,-5.126204,101506.99
69446,10.574,-19.251,-0.486,1.606475,1.189602,-4.938901,101506.99
69456,9.604,-18.009,0.467,1.316475,1.329014,-4.593562,101509.02
69467,8.960,-16.452,2.161,1.229741,1.355088,-4.053471,101507.30
69476,8.802,-15.590,2.194,1.338292,1.320501,-3.406425,101507.19
69486,8.550,-18.568,-0.562,1.503246,1.290170,-2.862077,101507.72
69496,6.409,-22.064,-3.133,1.403741,1.141180,-2.512480,101507.72
69507,4.051,-22.142,-4.520,0.691246,1.070941,-2.044224,101509.69
69516,2.423,-22.670,-4.099,-0.123414,0.986336,-1.273197,101510.05
69526,2.963,-20.173,-3.591,-0.621469,0.731455,-0.418629,101507.86
69536,4.948,-16.574,-3.628,-0.670955,0.346740,0.453499,101507.55
69547,5.732,-14.417,-2.941,-0.286772,-0.143865,1.230379,101507.55
69557,5.672,-12.180,-1.403,0.269815,-0.598287,1.888067,101508.56
69566,17.990,10.519,10.368,0.628989,-0.868067,1.719388,101509.30
69576,27.220,13.312,4.376,0.287375,-0.274764,0.374747,101505.33
69586,20.577,-11.419,-3.379,-0.230368,0.134428,1.142581,101506.89
69596,10.825,-12.317,6.608,0.341650,-0.322654,2.195095,101506.89
69606,4.776,-14.746,13.271,1.122255,-0.043297,2.324929,101507.63
69616,11.851,-16.975,2.393,1.451631,-0.661608,2.822452,101506.70
69626,11.347,-7.388,-1.991,1.692145,-1.806176,2.786801,101508.95
69637,6.943,-6.131,3.149,1.583062,-1.445938,2.534580,101508.52
69646,2.887,-9.964,2.239,0.442751,-0.844122,2.352599,101508.52
69656,2.764,-9.927,1.289,-0.784826,-0.154508,2.000342,101509.64
69666,6.372,-6.818,1.276,-1.572349,0.297786,1.662452,101511.36
69677,9.005,-2.682,3.170,-1.674514,0.275437,1.564012,101509.33
69686,10.277,-0.085,4.350,-1.098239,0.024813,1.544856,101507.86
69696,9.438,-1.324,3.897,-0.262295,-0.356709,1.556031,101507.86
69706,7.907,-4.269,2.465,0.345907,-0.698324,1.555498,101507.45
69716,7.491,-6.516,1.933,0.530549,-0.779737,1.459187,101508.85
69727,7.495,-7.634,1.984,0.294292,-0.608929,1.316049,101507.20
69736,7.428,-7.101,2.331,-0.149487,-0.305095,1.172912,101507.45
69746,7.381,-5.242,3.040,-0.509726,-0.067774,1.040416,101507.45
69756,7.549,-3.408,3.727,-0.562405,-0.003921,0.956343,101512.55
69767,7.558,-2.950,3.898,-0.302735,-0.102893,0.921224,101508.02
69776,7.433,-4.025,3.125,0.060696,-0.293388,0.918563,101508.64
69782,7.520,-4.797,2.223,0.253320,-0.406196,0.912178,101505.77
69791,7.601,-5.524,1.975,0.306531,-0.401939,0.893022,101505.77
69801,7.531,-6.202,1.791,0.188934,-0.281150,0.867481,101505.77
69812,7.445,-6.168,1.807,-0.047854,-0.099168,0.841939,101508.66
69822,7.549,-5.672,2.083,-0.271873,0.057272,0.822783,101506.78
69831,7.944,-5.135,2.651,-0.384680,0.115804,0.827040,101506.36
69841,8.240,-4.711,3.304,-0.368184,0.074832,0.853114,101506.36
69852,8.032,-4.526,3.647,-0.274533,-0.013499,0.888233,101508.69
69861,7.617,-4.628,3.730,-0.196845,-0.100232,0.918563,101508.69
69871,7.268,-5.016,3.395,-0.183010,-0.152911,0.946765,101510.88
69881,7.347,-5.340,2.955,-0.216001,-0.163021,0.969113,101507.75
69892,7.621,-5.562,2.691,-0.266019,-0.151847,0.988802,101506.97
69901,7.806,-5.691,2.534,-0.303267,-0.142269,1.010086,101506.97
69911,7.793,-5.823,2.352,-0.313377,-0.142269,1.031370,101508.46
69921,7.671,-6.089,2.149,-0.311781,-0.142269,1.045737,101507.10
69932,7.593,-6.398,1.983,-0.318698,-0.131095,1.042545,101507.41
69942,7.527,-6.686,2.064,-0.353285,-0.096508,1.021260,101507.55
69952,7.453,-6.863,2.179,-0.392662,-0.057132,0.987737,101510.20
69961,7.275,-7.032,2.180,-0.427249,-0.018820,0.947829,101505.72
69971,7.132,-7.184,2.044,-0.464496,0.020556,0.905260,101507.81
69982,7.016,-7.350,2.142,-0.523561,0.076428,0.866416,101507.81
69991,7.171,-7.362,2.191,-0.617212,0.141878,0.833958,101506.41
70001,7.428,-7.022,2.409,-0.731083,0.198813,0.817994,101506.41
70011,7.440,-6.627,2.824,-0.828992,0.229676,0.833426,101506.70
70017,7.400,-6.411,3.210,-0.885395,0.234465,0.860031,101507.01
70027,7.542,-6.171,3.803,-0.939138,0.225951,0.894086,101504.91
70036,7.848,-6.023,4.258,-1.019487,0.191896,0.943572,101508.73
70046,8.094,-6.375,3.794,-1.051413,0.124850,1.007957,101508.73
70056,8.620,-6.645,2.904,-1.073762,0.041309,1.079260,101508.50
70067,8.830,-6.626,2.658,-1.096111,-0.043297,1.155884,101506.47
70076,8.860,-6.666,2.525,-1.093450,-0.106086,1.247939,101504.44
70086,9.182,-6.924,2.125,-1.043432,-0.176324,1.339462,101505.69
70096,9.473,-7.626,1.634,-1.015762,-0.253480,1.409700,101505.69
70107,9.789,-8.006,1.401,-1.041303,-0.314673,1.469297,101509.63
70117,10.095,-7.948,1.704,-1.104092,-0.347131,1.526765,101506.77
70126,10.526,-7.858,2.063,-1.163689,-0.367352,1.595407,101506.55
70136,11.011,-7.876,2.235,-1.209450,-0.404067,1.676819,101505.72
70147,11.475,-7.938,2.404,-1.256276,-0.437590,1.751847,101505.72
70157,11.822,-8.023,2.416,-1.330239,-0.451425,1.842306,101505.54
70166,12.190,-7.894,2.357,-1.461138,-0.448232,1.923718,101507.62
70176,12.930,-7.642,2.801,-1.647908,-0.431737,2.004599,101508.29
70187,14.615,-7.511,3.503,-1.902257,-0.396085,2.074838,101504.96
70197,17.504,-7.147,4.605,-2.213009,-0.354049,2.130177,101504.96
70207,20.640,-5.916,5.929,-2.553027,-0.319994,2.171682,101509.45
70216,22.307,-4.233,6.040,-2.797798,-0.296049,2.210526,101507.68
70226,21.354,-3.364,5.316,-2.878146,-0.350856,2.251498,101506.16
70237,17.685,-6.202,4.307,-2.695633,-0.557847,2.455296,101507.84
70247,14.790,-9.315,5.575,-2.148624,-0.977149,2.885241,101507.84
70256,15.580,-8.413,8.380,-1.732514,-1.269278,3.054452,101507.34
70266,15.211,-6.862,8.387,-1.481890,-1.340048,2.880452,101505.67
70277,12.470,-6.562,6.520,-1.144533,-1.392195,2.743168,101506.36
70287,10.824,-5.028,4.965,-0.813560,-1.468287,2.637278,101506.30
70296,9.666,-2.373,4.926,-0.443212,-1.487443,2.411131,101506.30
70306,8.315,-1.063,4.859,0.012806,-1.447002,2.043443,101507.50
70317,5.437,-2.256,3.427,0.322494,-1.407094,1.625205,101506.98
70327,1.829,-3.885,1.080,0.225118,-1.215002,1.195260,101503.84
70337,-2.630,-9.468,-1.687,-0.170240,-0.777608,0.817994,101507.50
70346,-2.555,-10.694,0.588,-0.466625,-0.244434,0.508306,101507.50
70356,0.721,-6.053,1.997,-0.633175,0.024281,-0.045620,101506.79
70367,2.468,-2.434,2.301,-0.653927,0.228611,-0.575601,101506.74
70377,2.783,-0.548,2.021,-0.581560,0.390373,-0.908702,101504.13
70386,2.892,1.059,1.725,-0.436295,0.483492,-1.164114,101503.20
70396,2.824,2.113,1.388,-0.066478,0.462740,-1.432830,101503.20
70407,3.020,2.685,1.263,0.608769,0.349400,-1.725490,101506.80
70417,3.604,1.908,1.259,1.272842,0.280758,-1.985692,101505.87
70426,3.855,0.262,1.257,1.721411,0.267988,-2.248022,101507.12
70436,4.040,-1.363,0.878,1.991190,0.322795,-2.526315,101502.23
70447,4.181,-2.563,0.533,2.059832,0.446244,-2.802480,101502.23
70457,4.319,-3.295,0.408,1.982144,0.603749,-3.079710,101503.69
70467,4.507,-3.643,0.383,1.840071,0.763914,-3.367049,101505.09
70476,4.792,-3.728,0.350,1.705979,0.907051,-3.650131,101503.84
70487,5.073,-3.778,0.064,1.623502,1.015070,-3.905544,101499.47
70497,5.229,-4.103,-0.054,1.649044,1.096482,-4.117324,101499.47
70507,5.784,-4.494,0.387,1.697998,1.186409,-4.315801,101503.80
70516,6.659,-4.884,0.854,1.633080,1.280060,-4.549397,101502.86
70526,7.532,-5.478,1.024,1.570823,1.356684,-4.821305,101499.78
70537,8.480,-6.291,1.165,1.552200,1.460446,-5.097470,101500.88
70547,9.705,-6.937,1.063,1.601154,1.581234,-5.326277,101500.88
70556,10.479,-7.951,0.906,1.701723,1.700427,-5.465690,101504.19
70566,10.433,-10.021,0.709,1.811869,1.773858,-5.485378,101502.72
70577,10.027,-12.610,0.317,1.899135,1.743528,-5.400240,101502.41
70587,9.955,-14.963,0.064,1.947025,1.626464,-5.286901,101503.66
70596,10.616,-17.127,-0.273,1.971502,1.482262,-5.183672,101503.66
70606,11.472,-18.999,-0.777,1.922016,1.369455,-5.072993,101506.79
70617,11.336,-19.882,-1.501,1.718218,1.314115,-4.937305,101507.15
70627,10.188,-19.690,-1.640,1.438860,1.294959,-4.704773,101507.26
70637,8.827,-19.002,-0.403,1.260604,1.210354,-4.333360,101507.26
70646,7.675,-17.562,1.195,1.228677,1.057106,-3.799122,101507.26
70657,6.963,-16.779,1.765,1.402145,0.885235,-3.154205,101505.81
70667,6.554,-17.899,0.155,1.723007,0.694740,-2.578462,101508.58
70677,5.264,-20.587,-1.385,1.902328,0.486153,-2.154371,101506.13
70686,3.713,-21.781,-2.736,1.552732,0.416978,-1.717509,101507.73
70696,2.583,-22.309,-2.699,0.816292,0.536703,-1.174225,101507.73
70707,2.944,-20.912,-1.849,0.085705,0.620244,-0.601142,101511.05
70717,4.278,-18.883,-1.837,-0.277194,0.517547,0.033665,101511.09
70727,5.584,-17.543,-2.775,-0.278258,0.134960,0.823315,101508.19
70736,7.163,-13.008,1.014,0.077191,-0.373737,1.638508,101506.72
70747,22.709,11.253,9.818,0.560347,-0.805278,1.571462,101506.72
70757,23.804,9.513,5.119,0.467228,-0.361498,0.673260,101506.38
70767,14.232,-9.448,3.973,1.212181,-0.141205,1.740673,101507.84
70776,7.812,-18.024,4.529,2.269484,-0.859021,2.801700,101508.37
70787,9.921,-15.181,1.619,2.678144,-1.410287,3.027314,101505.60
70797,9.024,-9.369,-1.013,2.388144,-1.764140,2.590452,101505.60
70807,5.641,-10.008,-0.590,1.818254,-1.340048,2.240856,101510.84
70816,3.835,-10.454,0.696,0.606108,-0.565296,2.117406,101510.11
70827,5.016,-7.309,1.939,-0.778441,0.175933,1.838049,101507.92
70837,6.585,-5.160,2.404,-1.565964,0.565437,1.564544,101507.45
70842,7.886,-4.110,2.872,-1.604807,0.561180,1.467700,101507.45
70852,9.578,-2.471,3.450,-1.233927,0.336098,1.412361,101507.45
70862,10.282,-1.279,3.326,-0.564533,-0.014031,1.388416,101510.30
70872,9.434,-2.177,2.528,0.152219,-0.337553,1.427792,101508.73
70882,8.278,-4.408,2.172,0.650274,-0.542416,1.427260,101506.59
70892,7.546,-6.328,2.448,0.782769,-0.560507,1.343187,101506.64
70902,7.242,-6.992,2.770,0.551301,-0.417370,1.197921,101509.77
70912,7.216,-6.266,2.938,0.110714,-0.184306,1.061701,101507.95
70922,7.612,-5.131,3.178,-0.262827,0.006190,0.967517,101507.95
70932,8.308,-4.191,3.187,-0.369781,0.040245,0.912710,101509.41
70942,8.754,-3.684,3.079,-0.222919,-0.057664,0.906857,101507.53
70951,8.582,-3.867,2.994,-0.034020,-0.169939,0.939315,101507.53
70962,8.194,-4.476,2.848,0.026109,-0.217297,0.978691,101511.63
70972,7.906,-4.965,2.663,-0.093084,-0.167278,1.004233,101509.59
70982,7.762,-5.234,2.579,-0.313909,-0.044361,1.002636,101507.45
70992,7.896,-4.979,2.691,-0.527285,0.074300,0.997315,101508.28
71002,8.121,-4.526,3.010,-0.645946,0.129639,1.007425,101510.54
71012,8.232,-4.315,3.218,-0.635836,0.108355,1.029774,101507.30
71022,8.204,-4.401,3.224,-0.538992,0.036520,1.061168,101507.15
71032,7.847,-4.674,3.214,-0.450661,-0.036379,1.090967,101508.29
71042,7.534,-5.095,3.029,-0.421395,-0.070434,1.111187,101508.29
71052,7.424,-5.295,2.829,-0.442680,-0.071498,1.117572,101508.29
71062,7.477,-5.329,2.719,-0.475139,-0.056599,1.119701,101509.23
71072,7.564,-5.519,2.623,-0.490038,-0.042232,1.120233,101506.46
71077,7.570,-5.731,2.472,-0.487377,-0.039040,1.117572,101508.20
71087,7.622,-5.876,2.299,-0.477799,-0.033719,1.113847,101505.05
71097,7.599,-5.976,2.269,-0.468221,-0.027333,1.108526,101505.05
71107,7.564,-6.238,2.218,-0.452790,-0.016159,1.094691,101508.81
71117,7.433,-6.729,2.234,-0.464496,0.001933,1.076600,101509.38
71127,7.254,-7.057,2.254,-0.522496,0.042905,1.047334,101507.30
71137,7.222,-7.048,2.361,-0.608698,0.096648,1.011150,101504.64
71147,7.353,-6.796,2.666,-0.693836,0.147731,0.984013,101504.64
71157,7.373,-6.511,3.427,-0.764606,0.196153,0.979756,101505.57
71166,7.321,-6.327,4.305,-0.823138,0.255749,0.990930,101504.95
71177,7.580,-6.615,4.022,-0.898698,0.311621,1.013279,101504.48
71187,8.948,-7.092,2.071,-1.006716,0.296189,1.052655,101506.55
71197,9.839,-6.921,1.701,-1.100368,0.217437,1.127682,101506.55
71206,10.222,-6.061,1.929,-1.132294,0.161566,1.243150,101508.13
71217,10.093,-6.072,1.884,-1.067377,0.081749,1.380434,101506.83
71227,10.057,-6.814,1.582,-1.021083,-0.015627,1.519315,101507.08
71237,10.072,-7.348,1.742,-1.039707,-0.086930,1.632122,101504.00
71246,10.052,-7.332,2.099,-1.092918,-0.137480,1.724709,101504.00
71257,10.129,-7.243,2.544,-1.130166,-0.201865,1.823150,101508.09
71267,10.390,-7.253,2.868,-1.141340,-0.282746,1.922122,101505.13
71277,10.652,-7.336,3.107,-1.150918,-0.352985,2.015241,101504.70
71287,10.904,-7.391,3.058,-1.183377,-0.414709,2.103572,101508.30
71297,11.204,-7.546,3.031,-1.250955,-0.449296,2.194562,101508.30
71307,11.551,-7.999,3.055,-1.382918,-0.434929,2.277039,101509.83
71313,12.218,-8.259,3.375,-1.555853,-0.384911,2.326526,101507.58
71322,13.422,-8.470,4.002,-1.831486,-0.268911,2.367498,101507.58
71332,16.602,-8.518,4.759,-2.339651,-0.051278,2.413792,101506.59
71343,20.746,-7.285,5.058,-2.972330,0.169547,2.468067,101505.08
71352,23.301,-5.115,4.220,-3.469852,0.313217,2.506379,101505.08
71362,23.074,-3.158,4.066,-3.605540,0.303639,2.508507,101507.70
71372,19.264,-4.337,4.245,-3.299045,0.046630,2.609608,101507.09
71383,13.947,-8.042,5.260,-2.611027,-0.357774,2.889498,101504.70
71392,12.293,-10.049,6.904,-2.053376,-0.640856,3.052323,101504.70
71402,12.271,-9.104,6.803,-1.744220,-0.769626,2.943773,101504.70
71412,11.790,-8.061,5.915,-1.406331,-0.884030,2.847993,101505.02
71421,11.486,-6.001,5.181,-1.008845,-1.066012,2.749553,101506.33
71432,11.336,-3.163,5.028,-0.529946,-1.208085,2.430819,101504.50
71442,9.196,-1.962,4.343,-0.163322,-1.249057,1.975333,101507.16
71452,5.189,-2.503,3.128,0.056971,-1.185204,1.557627,101507.16
71462,1.481,-3.882,1.487,0.116035,-0.962782,1.119701,101505.30
71473,-2.609,-7.741,-0.413,-0.129799,-0.551462,0.678582,101505.20
71482,-2.194,-8.521,1.136,-0.429377,-0.075755,0.327389,101505.12
71492,1.028,-4.032,1.790,-0.576239,0.109951,-0.196207,101505.12
71502,2.431,-0.729,1.719,-0.534735,0.208923,-0.730445,101507.13
71512,2.711,0.342,1.325,-0.311249,0.279694,-1.062482,101507.13
71522,3.121,0.870,0.556,-0.050515,0.292465,-1.308848,101503.22
71532,3.143,1.305,-0.082,0.322494,0.202006,-1.554683,101506.23
71542,3.383,1.704,-0.051,0.925906,0.082281,-1.826059,101502.13
71552,3.844,1.107,0.366,1.446310,0.037584,-2.105949,101502.13
71562,4.294,0.045,0.493,1.840603,0.024813,-2.400205,101506.38
71572,4.646,-0.969,0.366,2.143906,0.049823,-2.686481,101504.40
71582,4.683,-2.019,0.375,2.295557,0.109951,-2.940297,101502.68
71592,4.611,-3.060,0.400,2.339722,0.195621,-3.171232,101503.20
71603,4.524,-3.844,0.291,2.250860,0.311088,-3.417599,101504.45
71612,4.475,-4.218,-0.015,2.082713,0.443584,-3.665562,101500.16
71622,4.851,-4.191,-0.572,1.937447,0.578207,-3.910865,101500.79
71632,5.423,-4.329,-0.452,1.862420,0.727198,-4.150846,101500.79
71642,6.057,-4.719,0.143,1.791117,0.861822,-4.376461,101498.29
71652,6.705,-5.338,0.784,1.643723,0.979418,-4.610057,101498.29
71662,7.507,-6.268,0.654,1.414915,1.101804,-4.866002,101500.72
71667,7.930,-7.191,0.581,1.282420,1.201840,-5.062351,101502.23
71677,8.438,-8.067,0.422,1.172273,1.333271,-5.252846,101500.97
71687,9.282,-8.795,-0.012,1.095649,1.506207,-5.452919,101500.61
71697,9.753,-9.763,-0.194,1.120126,1.652005,-5.539653,101500.61
71707,9.900,-11.492,0.225,1.233998,1.699363,-5.499745,101502.27
71717,10.324,-13.444,0.609,1.351062,1.607308,-5.387470,101505.71
71727,10.964,-15.177,0.698,1.419704,1.456721,-5.274662,101506.09
71737,11.186,-16.499,0.516,1.478236,1.352959,-5.173029,101501.45
71747,10.811,-17.256,0.249,1.475044,1.349767,-5.047451,101501.45
71757,9.990,-17.479,0.055,1.375007,1.404042,-4.867599,101509.05
71768,8.935,-17.667,0.176,1.243044,1.447675,-4.615911,101504.14
71777,7.983,-17.533,0.795,1.106824,1.466299,-4.264186,101507.28
71787,7.380,-16.758,1.643,1.003062,1.466831,-3.744847,101504.77
71797,7.607,-16.016,1.555,1.027539,1.420005,-3.120150,101504.77
71808,8.122,-16.280,-0.361,1.134493,1.288042,-2.544939,101509.03
71817,7.786,-17.835,-2.971,1.243044,1.039015,-2.088921,101510.30
71827,6.351,-18.584,-4.372,1.080750,0.704318,-1.676004,101508.00
71837,4.602,-18.074,-4.229,0.701888,0.374942,-1.076316,101506.06
71847,3.890,-17.328,-3.060,0.501283,0.033859,-0.314867,101506.06
71858,4.264,-15.845,-2.425,0.634842,-0.366287,0.452967,101510.99
71867,4.331,-14.813,-0.815,1.011576,-0.766966,1.151095,101509.79
71877,2.819,-15.718,1.176,1.365961,-1.017590,1.812508,101509.63
71887,11.712,-1.786,9.792,1.433539,-1.037278,1.984379,101506.98
71898,25.032,12.298,5.897,0.676347,-0.600948,0.750416,101506.98
71903,18.859,-2.202,-2.278,-0.289432,0.323859,0.349206,101508.78
71912,14.530,-12.083,-1.793,-0.381487,0.260538,1.297425,101508.78
71922,6.906,-9.893,8.276,-0.018588,0.109951,1.847627,101510.50
71932,5.394,-10.774,12.214,0.595998,0.333969,1.904562,101505.86
71943,14.214,-13.195,2.155,1.263264,-0.421627,2.387186,101507.38
71953,13.543,-8.017,-2.027,1.828897,-1.653461,2.525002,101509.07
71962,9.039,-6.524,0.785,1.985337,-1.567259,2.353131,101508.07
71972,5.167,-10.113,0.210,0.938145,-0.960122,2.176471,101508.85
71983,2.199,-11.771,-0.398,-0.460772,-0.163553,1.931700,101508.85
71992,4.724,-7.596,-0.160,-1.628752,0.637272,1.594875,101507.45
72002,8.053,-2.268,2.127,-1.875119,0.799565,1.378306,101507.45
72012,10.299,-0.193,4.432,-1.354184,0.530318,1.365003,101511.94
72023,10.559,-1.149,3.890,-0.444808,0.054257,1.428679,101508.55
72032,9.173,-3.062,3.013,0.300677,-0.333829,1.439499,101508.55
72042,7.904,-5.319,2.514,0.773191,-0.565828,1.366599,101507.30
72052,7.224,-7.077,2.211,0.715723,-0.507296,1.253260,101507.30
72062,6.655,-7.528,2.132,0.269815,-0.233792,1.095224,101509.38
72073,7.015,-6.516,2.476,-0.229836,0.065254,0.929205,101507.30
72082,7.855,-5.040,3.257,-0.533671,0.231804,0.812673,101509.23
72092,8.626,-3.656,3.813,-0.541652,0.214777,0.762123,101509.23
72102,8.714,-2.908,3.936,-0.308588,0.065254,0.765315,101509.23
72113,8.410,-3.161,3.718,-0.044130,-0.099700,0.808416,101510.58
72122,8.156,-3.874,3.483,0.088366,-0.197609,0.854710,101507.30
72132,7.976,-4.457,3.229,0.052714,-0.205058,0.898875,101506.61
72142,7.932,-4.611,3.026,-0.096809,-0.142801,0.944104,101507.23
72153,7.901,-4.717,3.064,-0.270276,-0.065645,0.985077,101507.23
72163,8.037,-4.646,3.229,-0.381487,-0.031058,1.021260,101507.40
72172,8.098,-4.350,3.553,-0.404900,-0.051278,1.048930,101507.18
72182,7.994,-4.344,3.429,-0.364992,-0.104489,1.079792,101505.82
72193,7.786,-4.815,2.996,-0.294221,-0.171535,1.108526,101505.82
72203,7.642,-5.236,2.521,-0.252717,-0.209847,1.127682,101511.29
72213,7.532,-5.617,2.239,-0.258570,-0.206122,1.137260,101508.16
72222,7.410,-5.852,2.068,-0.296882,-0.173664,1.136196,101508.16
72232,7.385,-6.043,2.010,-0.347964,-0.123113,1.120233,101509.35
72243,7.362,-6.290,2.044,-0.393194,-0.076287,1.095224,101504.51
72252,7.386,-6.249,2.027,-0.420863,-0.041700,1.067554,101504.51
72258,7.321,-6.202,2.123,-0.426717,-0.017755,1.046269,101508.19
72267,7.348,-6.293,2.208,-0.421928,0.000336,1.021792,101508.86
72278,7.362,-6.658,2.330,-0.428845,0.028006,0.984545,101503.34
72288,7.362,-6.911,2.321,-0.467689,0.072171,0.940380,101504.06
72297,7.314,-7.038,2.361,-0.538460,0.126978,0.901003,101504.06
72307,7.442,-6.897,2.376,-0.621469,0.181254,0.871205,101507.07
72317,7.578,-6.702,2.471,-0.697028,0.221694,0.854710,101506.45
72328,7.651,-6.517,2.743,-0.766735,0.252024,0.868013,101508.68
72337,7.569,-6.322,3.329,-0.845487,0.285547,0.903132,101506.18
72347,7.582,-6.108,4.494,-0.948716,0.353125,0.957939,101506.18
72357,8.019,-6.365,4.128,-1.062588,0.395162,1.026581,101510.72
72368,9.511,-6.761,1.966,-1.157303,0.319602,1.110655,101508.02
72378,10.026,-6.415,2.147,-1.195083,0.194556,1.224526,101506.75
72387,9.977,-5.862,2.454,-1.168478,0.106758,1.363939,101503.00
72397,9.858,-6.255,2.161,-1.082276,0.009382,1.502820,101503.00
72408,9.864,-7.196,1.816,-1.026936,-0.091187,1.617223,101508.16
72418,9.937,-7.726,1.756,-1.037046,-0.175792,1.706618,101506.40
72427,10.155,-7.889,2.160,-1.068973,-0.239113,1.771003,101504.88
72437,10.421,-8.022,2.403,-1.099303,-0.286471,1.839113,101504.68
72448,10.672,-8.028,2.473,-1.138147,-0.323186,1.899241,101504.68
72458,10.892,-7.905,2.332,-1.204129,-0.348196,1.961498,101507.86
72467,11.201,-7.738,2.299,-1.294588,-0.367352,2.028012,101510.27
72477,11.599,-7.967,2.305,-1.423358,-0.370544,2.098251,101504.94
72487,12.425,-8.319,2.606,-1.627156,-0.337553,2.151994,101505.58
72493,13.565,-8.621,3.159,-1.853835,-0.273168,2.173278,101505.58
72503,15.518,-8.983,3.735,-2.157138,-0.163021,2.173278,101505.58
72513,19.284,-8.223,4.429,-2.667963,0.027474,2.165296,101507.73
72522,21.714,-5.532,4.954,-3.211779,0.218501,2.184984,101504.59
72532,21.646,-2.847,4.652,-3.471981,0.262134,2.243516,101505.59
72543,19.429,-3.310,4.682,-3.268715,0.070043,2.426030,101506.92
72553,15.842,-6.801,5.654,-2.635504,-0.379058,2.799039,101506.41
72562,14.965,-8.364,7.384,-1.938972,-0.787186,3.139589,101504.42
72572,14.922,-8.041,8.193,-1.518606,-0.984599,3.117773,101504.42
72583,13.109,-8.263,7.269,-1.249358,-1.021847,3.000177,101506.14
72593,11.992,-7.512,6.265,-0.963083,-1.044195,2.947498,101504.22
72602,12.049,-4.923,5.932,-0.636900,-1.114434,2.789993,101504.22
72612,10.751,-3.222,5.217,-0.229304,-1.168709,2.468067,101506.70
72623,7.500,-3.317,3.773,0.004824,-1.091553,2.102507,101507.06
72633,3.116,-4.892,1.930,0.010146,-0.844654,1.726838,101505.61
72643,-2.095,-9.125,0.189,-0.198441,-0.368948,1.298489,101506.80
72652,-2.712,-9.442,2.795,-0.597524,0.294593,0.816398,101506.39
72663,0.887,-3.985,3.722,-0.947652,0.711235,0.167224,101505.66
72673,2.957,-0.055,2.866,-1.168478,0.984207,-0.533032,101502.38
72683,3.112,1.335,1.611,-1.269578,1.174170,-0.991179,101504.09
72692,3.713,2.760,0.220,-1.074826,1.172042,-1.237014,101504.09
72702,4.068,3.784,-0.624,-0.504937,0.990060,-1.480720,101504.09
72713,3.977,3.214,-0.608,0.277265,0.792648,-1.739325,101508.24
72723,4.076,1.690,-0.228,1.007319,0.647382,-1.988885,101503.71
72728,4.168,0.465,0.035,1.443117,0.567565,-2.182572,101502.73
72737,4.104,-0.613,0.105,1.776750,0.524997,-2.385306,101504.60
72748,3.956,-1.729,0.044,2.085373,0.519143,-2.656682,101504.60
72758,4.045,-2.520,-0.002,2.252988,0.542556,-2.920609,101504.92
72768,4.430,-2.939,-0.275,2.362071,0.554263,-3.184535,101501.58
72777,4.733,-3.113,-0.473,2.433373,0.573951,-3.441012,101502.78
72787,5.131,-3.222,-0.546,2.457318,0.610134,-3.690039,101500.13
72798,5.550,-3.358,-0.487,2.484456,0.649510,-3.943856,101500.13
72808,5.991,-3.772,-0.006,2.506272,0.716556,-4.179581,101501.84
72817,6.608,-4.327,0.644,2.452529,0.795308,-4.407323,101501.53
72827,7.235,-5.382,1.216,2.296621,0.866611,-4.666993,101500.19
72838,7.744,-6.952,0.997,2.015135,0.950684,-4.978809,101499.56
72848,8.104,-8.550,0.536,1.681502,1.096482,-5.292754,101499.56
72857,8.550,-9.447,-0.142,1.374475,1.332207,-5.548167,101501.36
72867,9.183,-9.821,-0.331,1.167484,1.600922,-5.701947,101504.39
72878,9.742,-10.632,0.199,1.070640,1.785565,-5.737598,101503.03
72888,10.351,-12.259,0.614,1.133429,1.780776,-5.694497,101503.19
72897,11.171,-14.538,0.642,1.329778,1.631253,-5.609891,101503.19
72907,11.787,-17.139,0.065,1.546346,1.468959,-5.471011,101505.34
72918,11.559,-19.178,-0.663,1.709172,1.376372,-5.269341,101503.62
72928,10.593,-19.743,-1.151,1.773557,1.352427,-5.013929,101502.99
72938,9.637,-19.836,-0.979,1.696401,1.342849,-4.667525,101505.29
72947,8.376,-19.967,-0.179,1.554328,1.269418,-4.180113,101505.29
72957,6.934,-19.511,0.911,1.442585,1.167253,-3.532535,101508.25
72964,6.304,-19.071,0.849,1.387778,1.108189,-2.979673,101505.38
72973,6.309,-18.929,-0.504,1.338292,1.066152,-2.459802,101505.38
72983,6.193,-20.235,-2.838,1.391502,0.894813,-1.899490,101504.81
72993,5.264,-20.982,-4.191,1.276567,0.557987,-1.477527,101506.22
73003,3.335,-20.647,-4.083,0.875356,0.236593,-0.903913,101506.22
73013,2.691,-19.872,-2.928,0.578439,-0.014563,-0.155234,101508.38
73023,2.671,-18.594,-2.201,0.664641,-0.322122,0.627499,101508.81
73033,2.594,-19.063,-1.677,0.988163,-0.747810,1.503352,101503.08
73042,15.118,-1.140,7.581,1.226548,-1.040470,1.894984,101503.08
73053,28.184,12.496,3.224,0.490641,-0.690342,0.696141,101503.08
73063,17.020,-9.218,-3.579,-0.277726,0.205199,0.966453,101508.09
73072,10.624,-13.639,-0.542,-0.145231,-0.080544,1.999810,101509.54
73082,4.909,-9.502,8.631,0.056971,0.230208,1.921058,101507.93
73093,7.125,-13.187,7.739,0.421466,0.272244,1.982782,101505.90
73103,13.273,-11.246,2.166,0.873228,-0.520599,2.405278,101505.90
73113,10.349,-4.621,2.971,1.178659,-1.073993,2.296727,101510.45
73123,6.748,-4.690,3.959,0.928567,-0.938837,2.133370,101507.68
73133,3.475,-6.733,2.460,0.267155,-0.659480,1.957241,101505.62
73143,4.460,-6.536,1.040,-0.297414,-0.182177,1.720452,101505.62
73153,7.891,-4.395,0.764,-0.561872,0.024813,1.567205,101510.13
73162,9.541,-3.408,2.144,-0.492698,-0.035847,1.563480,101510.13
73172,9.886,-3.371,2.793,-0.128203,-0.168342,1.548049,101507.30
73183,8.854,-4.559,2.837,0.252788,-0.338618,1.507077,101508.57
73193,7.653,-6.072,2.624,0.394861,-0.459939,1.436306,101508.46
73202,7.370,-6.481,2.773,0.271411,-0.415241,1.310196,101508.46
73212,7.382,-6.253,2.844,-0.032955,-0.251352,1.178233,101508.34
73223,7.813,-5.406,2.631,-0.329873,-0.090122,1.081921,101506.16
73233,8.229,-4.390,2.904,-0.462368,-0.022012,1.017535,101507.30
73243,8.232,-3.801,3.231,-0.411285,-0.047554,0.990930,101505.70
73253,7.811,-4.125,3.357,-0.256974,-0.098104,0.968049,101507.11
73263,7.382,-4.777,3.160,-0.151616,-0.114599,0.929205,101507.27
73273,7.360,-5.160,2.971,-0.161194,-0.076287,0.881848,101508.52
73283,7.524,-5.162,2.919,-0.255377,-0.005517,0.846728,101508.52
73292,7.712,-4.945,2.771,-0.349561,0.060997,0.832361,101506.89
73303,7.912,-4.846,2.543,-0.388405,0.090795,0.844600,101506.89
73313,8.143,-5.337,2.340,-0.358074,0.042905,0.877059,101509.74
73318,8.298,-5.702,2.163,-0.328808,-0.015627,0.897279,101507.91
73328,8.279,-5.801,2.381,-0.322423,-0.032654,0.902600,101505.10
73337,7.806,-5.856,2.674,-0.353818,-0.009774,0.891425,101504.95
73348,7.410,-5.746,2.628,-0.417139,0.022685,0.880783,101504.95
73358,7.379,-5.532,2.636,-0.487377,0.055676,0.869609,101508.32
73368,7.637,-5.295,2.904,-0.540056,0.068446,0.860563,101508.52
73377,7.702,-5.187,3.090,-0.540588,0.047694,0.858435,101508.90
73388,7.550,-5.384,2.933,-0.481524,0.011511,0.858967,101507.12
73398,7.399,-5.554,2.574,-0.421395,-0.022544,0.857903,101507.12
73408,7.253,-5.666,2.500,-0.384148,-0.036379,0.856306,101506.31
73418,7.306,-5.658,2.506,-0.376698,-0.031058,0.858435,101506.16
73427,7.433,-5.633,2.588,-0.371909,-0.026269,0.870673,101506.53
73438,7.539,-5.742,2.752,-0.367120,-0.032122,0.891958,101505.64
73448,7.524,-6.053,2.840,-0.375634,-0.041168,0.912710,101505.64
73458,7.554,-6.494,2.728,-0.413414,-0.034783,0.927609,101508.50
73467,7.664,-6.728,2.506,-0.500680,-0.008177,0.941444,101507.14
73478,7.640,-6.564,2.578,-0.601781,0.024813,0.960600,101505.58
73488,7.493,-6.341,3.074,-0.694368,0.070575,0.990398,101505.05
73498,7.528,-6.168,3.509,-0.780037,0.118997,1.023921,101505.05
73508,7.732,-6.346,3.146,-0.854001,0.133896,1.064361,101506.21
73518,8.256,-6.711,2.321,-0.908276,0.089199,1.120765,101507.35
73528,9.027,-6.812,1.808,-0.925303,0.004061,1.188875,101506.68
73538,9.356,-6.648,1.866,-0.904551,-0.085333,1.277737,101505.48
73548,9.409,-6.724,1.877,-0.867836,-0.148122,1.374581,101505.48
73558,9.476,-7.229,1.748,-0.844423,-0.215700,1.466636,101508.45
73568,9.658,-7.801,1.793,-0.867836,-0.286471,1.539003,101506.88
73578,9.822,-8.099,1.906,-0.919982,-0.331700,1.600196,101505.12
73588,9.933,-8.082,2.125,-0.989157,-0.351388,1.659260,101506.48
73597,10.223,-7.962,2.354,-1.043964,-0.374801,1.718856,101506.48
73608,10.568,-7.931,2.550,-1.087597,-0.406728,1.770471,101506.91
73618,10.917,-7.809,2.531,-1.137083,-0.435994,1.849223,101502.73
73628,11.149,-7.902,2.360,-1.215303,-0.458342,1.925315,101506.19
73637,11.565,-8.184,2.358,-1.341945,-0.469517,1.994489,101504.56
73648,12.645,-8.418,2.619,-1.561707,-0.447168,2.042911,101504.56
73658,14.566,-8.931,3.364,-1.894275,-0.383315,2.070049,101508.30
73668,17.795,-8.555,4.584,-2.358807,-0.242838,2.079095,101506.70
73678,20.568,-6.281,5.755,-2.875486,-0.029994,2.121131,101505.76
73688,21.354,-3.382,5.466,-3.171871,0.081749,2.194562,101504.98
73698,20.691,-2.131,4.864,-3.143669,-0.001260,2.283957,101504.98
73708,17.326,-5.094,4.162,-2.765871,-0.318397,2.507443,101509.22
73718,13.565,-9.089,5.382,-2.100202,-0.756856,2.902268,101508.02
73728,13.345,-9.852,7.708,-1.687817,-0.968636,3.059773,101503.48
73738,12.820,-8.755,7.893,-1.488808,-0.924470,2.924617,101503.22
73748,11.437,-7.953,6.723,-1.246166,-0.846782,2.815534,101503.22
73758,11.020,-5.819,5.525,-1.016294,-0.861682,2.720287,101507.41
73768,10.406,-3.023,5.132,-0.643285,-0.934581,2.480837,101506.23
73778,9.152,-1.366,4.237,-0.258038,-0.949480,2.058342,101508.21
73788,6.031,-1.974,2.575,-0.092020,-0.898397,1.626801,101503.62
73798,2.115,-3.702,0.838,-0.151084,-0.713755,1.254856,101503.62
73808,-2.835,-8.737,-1.009,-0.453854,-0.258801,0.868013,101508.20
73818,-3.297,-10.416,1.099,-0.871028,0.341419,0.515756,101508.20
73828,0.242,-5.595,2.613,-1.082276,0.617584,0.010252,101505.28
73838,2.582,-1.060,2.465,-0.990753,0.707510,-0.551124,101504.61
73848,2.838,0.758,1.894,-0.765138,0.753804,-0.925729,101504.61
73858,2.905,1.410,0.773,-0.491634,0.752207,-1.147087,101505.41
73868,2.971,2.110,-0.357,-0.046258,0.608538,-1.351417,101503.90
73878,3.112,2.569,-0.602,0.681668,0.394098,-1.611619,101505.21
73888,3.577,1.801,-0.212,1.332970,0.275969,-1.884059,101502.55
73897,3.999,0.488,0.218,1.777814,0.237657,-2.182040,101502.55
73909,4.289,-0.756,0.432,2.121734,0.258942,-2.484456,101503.97
73918,4.478,-1.561,0.536,2.305135,0.307364,-2.709893,101503.77
73928,4.655,-2.414,0.655,2.397722,0.371749,-2.949343,101502.47
73938,4.813,-3.156,0.474,2.387612,0.432942,-3.193049,101503.03
73948,4.926,-3.562,0.186,2.310988,0.489877,-3.439416,101503.03
73958,5.214,-3.754,-0.098,2.259373,0.539364,-3.677801,101503.80
73968,5.532,-4.123,-0.173,2.261502,0.607474,-3.903415,101499.48
73978,6.081,-4.651,0.364,2.235428,0.714428,-4.119984,101498.12
73988,6.813,-5.208,1.110,2.064089,0.842666,-4.370076,101499.05
73998,7.506,-5.949,1.189,1.804420,0.956005,-4.664332,101499.05
74008,8.019,-6.941,1.197,1.592640,1.109253,-4.966039,101500.02
74018,8.885,-7.829,1.033,1.414915,1.318372,-5.234754,101503.15
74029,9.526,-8.658,1.016,1.287741,1.551968,-5.427910,101502.43
74038,9.825,-9.842,0.952,1.196750,1.760023,-5.513580,101499.35
74048,10.018,-12.059,0.686,1.203136,1.844097,-5.523158,101499.35
74058,10.106,-14.810,0.439,1.271778,1.797271,-5.484314,101504.83
74068,10.348,-16.590,0.226,1.285081,1.731289,-5.417800,101506.39
74078,10.739,-17.359,0.277,1.259007,1.716922,-5.313507,101502.80
74088,10.812,-16.976,0.465,1.158438,1.748317,-5.150681,101502.47
74098,10.411,-15.936,0.703,0.987631,1.800996,-4.887819,101502.47
74108,10.430,-15.543,1.203,0.976989,1.798335,-4.523324,101505.73
74118,10.417,-15.852,1.747,1.156310,1.679675,-4.076351,101506.57
74128,9.402,-16.658,1.270,1.318603,1.532280,-3.573507,101505.63
74138,8.250,-18.099,-0.692,1.337227,1.430115,-3.083434,101505.88
74148,7.382,-20.013,-3.024,1.205796,1.327950,-2.646572,101505.88
74159,6.392,-20.062,-4.584,0.872163,1.104464,-2.157031,101508.93
74168,5.176,-19.825,-4.937,0.505540,0.751675,-1.439215,101508.41
74178,4.331,-19.394,-4.117,0.345907,0.289804,-0.536225,101509.15
74188,4.610,-17.422,-3.214,0.407099,-0.201333,0.403481,101507.52
74199,5.096,-15.750,-1.308,0.705081,-0.650966,1.253792,101507.52
74208,4.594,-15.266,-0.691,1.110016,-1.048452,1.977461,101508.80
74218,12.233,-0.491,5.676,1.402677,-1.333663,2.165296,101508.23
74228,23.882,15.503,4.905,1.151521,-1.124544,0.993591,101505.73
74238,17.322,-2.968,-3.316,0.498090,-0.294985,0.741903,101506.73
74248,12.763,-13.336,-3.463,0.533742,-0.529645,1.801865,101506.73
74258,5.746,-9.399,7.431,0.725301,-0.262526,1.895517,101505.93
74268,6.653,-12.670,8.655,1.023815,0.068446,1.873168,101508.12
74278,13.000,-15.335,3.799,1.439392,-0.520599,2.476048,101506.35
74289,12.538,-7.274,1.756,1.631484,-1.332599,2.492012,101504.99
74298,7.356,-4.587,3.522,1.443649,-1.178287,2.213718,101504.99
74308,3.067,-7.007,3.402,0.614622,-0.814324,2.031205,101508.45
74318,2.646,-7.553,2.731,-0.297414,-0.308819,1.780049,101510.39
74329,6.267,-5.372,0.987,-0.959358,0.118465,1.525700,101506.38
74338,9.738,-2.970,0.835,-0.962019,0.136024,1.423535,101507.56
74348,11.002,-2.781,2.032,-0.561340,-0.043297,1.476746,101507.56
74358,10.248,-3.078,2.622,-0.057964,-0.253480,1.540067,101508.60
74369,8.463,-3.516,3.223,0.393797,-0.435462,1.548581,101507.15
74379,7.237,-4.972,3.398,0.602384,-0.548446,1.499272,101507.66
74388,7.059,-6.247,3.356,0.423595,-0.517939,1.427260,101506.52
74398,7.301,-6.721,3.271,-0.010607,-0.364691,1.319774,101506.52
74408,7.774,-5.937,2.974,-0.425120,-0.171535,1.214416,101508.13
74419,8.196,-4.804,2.779,-0.637432,-0.059792,1.147902,101508.65
74428,8.364,-3.891,2.762,-0.616148,-0.072031,1.128214,101505.41
74438,8.347,-3.733,2.862,-0.426184,-0.171003,1.140985,101505.21
74448,8.105,-4.313,2.695,-0.225579,-0.279553,1.162802,101505.21
74459,7.949,-4.793,2.430,-0.139377,-0.318930,1.175572,101509.68
74468,7.673,-4.893,2.501,-0.192588,-0.267315,1.170783,101506.91
74478,7.440,-5.307,2.360,-0.315506,-0.172599,1.158013,101506.91
74488,7.557,-5.507,2.217,-0.424588,-0.100765,1.147902,101506.13
74499,7.766,-5.431,2.320,-0.466625,-0.073095,1.138857,101506.13
74508,7.754,-5.405,2.613,-0.426717,-0.093315,1.128214,101506.45
74518,7.517,-5.482,2.679,-0.358074,-0.135884,1.121297,101506.72
74528,7.228,-5.708,2.531,-0.321359,-0.162489,1.110123,101506.05
74539,7.107,-5.949,2.283,-0.346368,-0.147058,1.095756,101506.41
74548,7.203,-6.052,2.176,-0.399047,-0.110343,1.077132,101506.41
74558,7.366,-6.122,2.033,-0.443744,-0.073627,1.056912,101507.79
74568,7.487,-6.163,2.003,-0.455983,-0.051278,1.038820,101507.43
74578,7.442,-6.239,2.103,-0.433102,-0.043829,1.017535,101507.07
74589,7.379,-6.381,2.133,-0.402772,-0.038508,0.989334,101506.07
74598,7.217,-6.696,2.009,-0.391597,-0.021480,0.958471,101506.07
74608,7.057,-7.124,1.987,-0.416606,0.019492,0.917499,101507.85
74618,6.936,-7.307,2.118,-0.500148,0.089199,0.870673,101504.41
74629,7.035,-7.176,2.339,-0.619340,0.171144,0.832893,101505.15
74638,7.415,-6.805,2.755,-0.747579,0.240850,0.820655,101506.60
74648,7.952,-6.235,3.098,-0.858258,0.275437,0.846728,101506.60
74658,8.419,-5.751,3.479,-0.915725,0.251492,0.916435,101507.43
74669,8.283,-5.534,4.449,-0.930092,0.184978,1.020728,101504.77
74679,7.833,-5.805,5.694,-0.940735,0.158373,1.127682,101506.70
74688,8.414,-6.827,4.417,-0.987560,0.132832,1.211756,101505.45
74698,9.882,-7.772,1.566,-1.068441,0.029070,1.279333,101505.45
74708,10.178,-7.736,1.177,-1.127505,-0.076820,1.356489,101510.01
74719,10.044,-7.197,1.165,-1.129101,-0.132159,1.453333,101507.55
74728,10.060,-7.297,0.839,-1.074294,-0.198673,1.545920,101504.90
74734,10.242,-7.799,0.447,-1.032257,-0.259333,1.610306,101503.74
74743,10.459,-8.142,0.388,-1.022147,-0.309884,1.666709,101503.74
74754,10.645,-8.225,0.788,-1.052478,-0.366819,1.738544,101503.74
74764,10.910,-8.174,1.657,-1.089193,-0.424819,1.789095,101508.03
74774,11.352,-8.130,2.617,-1.115267,-0.468984,1.852416,101504.75
74783,11.636,-8.149,3.160,-1.152514,-0.484416,1.919994,101507.22
74793,11.964,-8.090,3.439,-1.263193,-0.449829,1.991829,101507.22
74804,12.506,-7.985,3.765,-1.489340,-0.366287,2.073773,101505.65
74813,13.665,-7.565,4.425,-1.813927,-0.249755,2.163168,101505.65
74823,15.950,-6.930,4.932,-2.217266,-0.127902,2.252030,101506.99
74833,19.137,-6.171,5.209,-2.641890,-0.047021,2.304177,101505.70
74844,21.742,-4.886,5.075,-2.991486,-0.009242,2.307370,101503.62
74853,21.092,-3.894,4.799,-3.184642,0.041309,2.304177,101503.62
74863,17.456,-6.005,4.245,-3.066513,-0.030526,2.414856,101506.07
74873,13.679,-9.419,5.257,-2.641890,-0.308287,2.727736,101505.98
74884,14.121,-9.401,6.954,-2.257706,-0.538691,2.925681,101505.76
74894,14.514,-7.267,7.470,-1.993780,-0.649902,2.772434,101500.70
74904,12.188,-6.599,6.939,-1.675046,-0.662140,2.601094,101505.34
74913,10.713,-5.376,5.798,-1.309487,-0.719608,2.474984,101505.80
74924,10.275,-3.271,4.645,-0.952973,-0.788250,2.252030,101505.74
74934,9.160,-1.878,4.186,-0.608166,-0.780269,1.923186,101505.74
74943,6.676,-2.254,3.297,-0.292625,-0.765902,1.566141,101505.02
74953,2.677,-3.946,1.622,-0.131928,-0.665333,1.218673,101505.02
74963,-1.998,-8.798,-1.120,-0.444276,-0.253480,0.806288,101507.58
74974,-2.373,-10.884,0.003,-0.796001,0.270648,0.517884,101507.67
74984,0.610,-6.239,1.513,-0.849744,0.479235,0.069316,101505.33
74993,2.726,-2.100,1.682,-0.701285,0.558519,-0.430335,101506.27
75003,3.432,-0.096,0.842,-0.482056,0.584593,-0.758647,101506.27
75014,3.628,1.081,0.102,-0.240478,0.574483,-0.991179,101506.59
75024,3.662,1.999,-0.331,0.183613,0.468061,-1.234885,101504.77
75034,3.845,2.636,-0.096,0.898237,0.272244,-1.530206,101506.06
75043,4.327,2.115,0.171,1.593172,0.130703,-1.803178,101506.06
75054,4.324,0.689,0.499,2.124750,0.043437,-2.074554,101506.06
75064,4.269,-0.759,0.455,2.527557,0.010446,-2.335820,101503.76
75073,4.290,-1.868,0.384,2.755832,0.018960,-2.592829,101504.45
75083,4.326,-2.734,0.338,2.826070,0.060465,-2.859416,101502.87
75094,4.374,-3.450,0.195,2.755832,0.130703,-3.152076,101502.93
75104,4.283,-3.977,0.114,2.587685,0.231272,-3.460168,101502.93
75114,4.428,-4.182,0.076,2.369520,0.373345,-3.771452,101502.22
75123,4.813,-4.210,-0.138,2.170511,0.515419,-4.057727,101503.00
75133,5.349,-4.287,0.042,2.053447,0.652703,-4.309947,101500.25
75144,6.001,-4.457,0.607,1.967777,0.778813,-4.543012,101500.25
75154,6.864,-4.950,1.200,1.812933,0.900666,-4.779800,101503.03
75163,7.817,-5.903,1.046,1.620310,1.006556,-5.055965,101503.03
75173,8.636,-7.292,0.943,1.499521,1.147565,-5.343837,101500.16
75184,9.480,-8.553,0.704,1.403209,1.350831,-5.592864,101501.63
75194,9.963,-9.796,0.469,1.373411,1.572721,-5.750369,101500.00
75203,9.835,-11.520,0.698,1.428218,1.724372,-5.770057,101500.00
75213,10.117,-13.441,0.954,1.595833,1.718519,-5.663635,101504.13
75224,11.228,-15.993,1.140,1.781007,1.599326,-5.506662,101505.33
75234,11.643,-19.135,0.960,1.881576,1.456721,-5.333727,101506.16
75244,10.780,-21.024,0.368,1.854438,1.374776,-5.142167,101502.67
75254,9.190,-20.705,-0.281,1.705979,1.383822,-4.905378,101506.52
75264,8.236,-19.558,-0.105,1.529851,1.460978,-4.507892,101505.79
75274,7.737,-18.852,1.315,1.448970,1.482794,-3.905544,101507.68
75284,7.671,-18.601,2.196,1.496860,1.381693,-3.193049,101507.68
75293,7.581,-19.241,0.645,1.514952,1.250794,-2.530572,101506.37
75303,6.442,-20.621,-2.195,1.462273,1.093290,-1.984096,101506.37
75314,5.602,-21.620,-4.587,1.108420,0.915565,-1.561600,101509.88
75324,3.764,-21.188,-4.422,0.495430,0.634611,-1.069399,101510.55
75333,2.662,-18.937,-3.294,0.055375,0.340354,-0.338812,101509.88
75343,4.094,-16.622,-1.500,0.231503,-0.016159,0.535444,101507.73
75354,4.365,-15.476,-1.087,0.823209,-0.528049,1.411829,101507.73
75364,8.921,-7.045,4.830,1.463869,-1.079847,2.117406,101507.10
75374,26.330,17.388,9.973,1.523466,-1.329406,1.334673,101504.10
75383,20.554,0.066,-1.569,0.711466,-0.363627,0.602490,101507.96
75394,13.366,-17.072,-3.617,0.668897,-0.391296,2.013645,101507.96
75404,6.798,-13.197,3.181,0.650806,-0.363095,2.252562,101507.96
75414,7.478,-10.587,4.711,0.588017,0.034391,2.009388,101509.12
75423,10.670,-11.921,1.566,0.791815,-0.304563,2.196159,101507.54
75433,9.755,-8.661,1.125,0.942402,-0.755792,2.324397,101508.07
75444,8.706,-6.202,2.698,0.628457,-0.612654,2.228617,101509.12
75454,5.905,-6.254,3.497,-0.059029,-0.365755,2.051957,101509.12
75464,4.458,-6.241,3.237,-0.611891,-0.015095,1.800269,101509.09
75473,6.471,-3.915,2.379,-0.858790,0.183382,1.586893,101506.95
75484,8.703,-1.607,3.004,-0.754496,0.069511,1.540599,101506.91
75494,9.409,-1.853,3.378,-0.281451,-0.148122,1.543792,101506.91
75504,9.075,-3.825,3.204,0.291632,-0.399278,1.533682,101510.18
75514,8.175,-5.707,2.847,0.588549,-0.605205,1.487921,101507.99
75524,7.635,-6.584,2.636,0.535338,-0.588177,1.377242,101507.99
75534,7.344,-6.144,2.842,0.213944,-0.384911,1.262838,101508.30
75544,7.409,-5.047,2.977,-0.137781,-0.151315,1.166526,101509.55
75553,7.892,-3.876,3.034,-0.283579,-0.026801,1.092563,101509.55
75564,8.255,-3.553,3.007,-0.171836,-0.062985,1.067022,101508.49
75574,8.255,-4.318,2.872,0.056971,-0.193352,1.069150,101508.45
75584,7.928,-5.332,2.708,0.198512,-0.268379,1.046802,101505.57
75594,7.522,-5.803,2.555,0.153815,-0.229003,0.994655,101506.98
75603,7.302,-6.036,2.240,-0.029231,-0.121517,0.941444,101507.74
75614,7.366,-6.029,2.180,-0.248460,-0.000196,0.894618,101508.93
75624,7.648,-5.691,2.460,-0.433102,0.099309,0.860031,101505.02
75634,7.888,-5.307,2.786,-0.530478,0.142410,0.849389,101505.02
75643,8.036,-4.939,2.989,-0.537395,0.128575,0.848857,101504.09
75654,8.017,-5.029,3.073,-0.501212,0.108355,0.853114,101504.09
75664,7.816,-5.317,2.892,-0.477799,0.088667,0.855242,101509.03
75674,7.596,-5.441,2.832,-0.477799,0.077492,0.848325,101506.42
75683,7.496,-5.458,2.868,-0.479395,0.072703,0.840875,101504.39
75694,7.415,-5.498,2.824,-0.471414,0.064722,0.837150,101504.50
75704,7.406,-5.599,2.654,-0.461836,0.058868,0.833958,101504.50
75714,7.406,-5.678,2.612,-0.458111,0.055676,0.833426,101507.59
75724,7.439,-5.733,2.728,-0.464496,0.056740,0.835554,101505.84
75734,7.483,-5.780,2.835,-0.478331,0.055144,0.839811,101504.83
75744,7.526,-5.692,2.999,-0.491634,0.046098,0.848857,101504.83
75754,7.588,-5.677,2.992,-0.488973,0.037052,0.858967,101504.83
75764,7.672,-5.812,2.888,-0.479395,0.028538,0.879187,101505.45
75773,7.621,-6.162,2.795,-0.487909,0.033859,0.898343,101506.13
75784,7.601,-6.533,2.599,-0.540056,0.059401,0.912710,101505.03
75794,7.638,-6.661,2.435,-0.631047,0.100373,0.926367,101506.05
75804,7.639,-6.433,2.588,-0.719909,0.140281,0.949425,101506.05
75814,7.499,-6.236,3.099,-0.802918,0.181786,0.987205,101507.92
75824,7.578,-6.202,3.742,-0.886992,0.230740,1.036691,101507.88
75834,8.023,-6.438,3.448,-0.977982,0.254685,1.090967,101506.52
75844,8.855,-6.855,2.196,-1.037579,0.200942,1.152691,101506.52
75854,9.543,-6.699,1.783,-1.044496,0.085474,1.233572,101505.81
75864,9.644,-6.388,2.167,-1.008312,-0.003388,1.338398,101506.53
75874,9.506,-6.551,2.182,-0.939138,-0.080544,1.446948,101506.53
75884,9.558,-7.208,1.892,-0.898166,-0.157168,1.543260,101506.33
75894,9.605,-7.700,1.753,-0.923707,-0.215700,1.623608,101502.94
75904,9.790,-7.851,2.114,-0.983303,-0.256141,1.693847,101502.94
75914,10.085,-7.808,2.539,-1.037579,-0.288599,1.755040,101507.95
75924,10.357,-7.756,2.927,-1.081212,-0.312544,1.837517,101505.61
75934,10.615,-7.671,2.889,-1.127505,-0.335957,1.921590,101506.14
75944,10.956,-7.699,2.658,-1.199872,-0.355645,2.010984,101501.39
75954,11.326,-8.012,2.457,-1.321725,-0.370544,2.096122,101510.70
75964,12.293,-8.331,2.688,-1.501578,-0.376397,2.164764,101505.13
75974,14.251,-8.628,3.427,-1.784661,-0.339682,2.212654,101507.83
75984,17.548,-8.836,4.596,-2.175229,-0.267315,2.241388,101505.55
75994,21.191,-7.674,5.660,-2.602514,-0.191223,2.263205,101505.55
76004,22.094,-5.127,5.981,-2.896238,-0.114067,2.281828,101505.55
76014,20.300,-3.138,5.075,-2.926036,-0.104489,2.277039,101507.38
76024,15.942,-5.017,3.382,-2.726495,-0.206654,2.353663,101506.02
76029,12.392,-8.331,2.738,-2.475339,-0.349792,2.529792,101501.73
76039,10.823,-10.041,4.683,-2.189596,-0.477498,2.752213,101505.75
76049,12.268,-8.877,6.763,-1.958128,-0.530177,2.820856,101505.75
76059,12.450,-7.589,6.858,-1.758587,-0.483351,2.645259,101508.44
76069,10.744,-7.306,5.477,-1.625028,-0.424287,2.481902,101506.30
76079,9.407,-5.932,4.340,-1.469120,-0.389700,2.369094,101506.70
76089,9.147,-3.644,4.112,-1.186569,-0.345535,2.163700,101504.42
76099,7.979,-2.355,3.693,-0.928496,-0.293388,1.788030,101504.42
76109,5.316,-3.295,2.363,-0.752368,-0.245498,1.428856,101507.39
76119,1.851,-4.036,1.859,-0.699689,-0.101829,1.125022,101506.50
76129,-1.462,-6.770,0.163,-0.776313,0.202538,0.777022,101506.14
76139,-1.918,-9.017,0.663,-0.991817,0.703785,0.439132,101506.23
76149,1.531,-5.610,1.795,-1.092918,0.962923,0.068252,101506.23
76158,3.931,-1.373,1.906,-0.934349,1.009748,-0.392023,101504.02
76169,4.337,0.568,1.424,-0.639560,1.027840,-0.757051,101506.43
76179,4.220,1.149,0.548,-0.376166,1.038482,-1.016720,101501.52
76189,4.230,1.467,-0.375,-0.063818,0.980482,-1.244463,101504.96
76198,4.523,2.201,-0.691,0.500751,0.810207,-1.515307,101504.96
76209,4.841,1.977,-0.470,1.095649,0.673455,-1.780298,101505.02
76219,5.114,0.974,-0.086,1.578273,0.565969,-2.026132,101507.09
76229,5.315,-0.094,0.091,1.982676,0.479767,-2.289526,101501.94
76239,5.414,-1.043,0.231,2.295557,0.406336,-2.538554,101501.11
76249,5.363,-2.100,0.445,2.513722,0.345676,-2.770022,101501.11
76259,5.310,-3.218,0.365,2.613226,0.301510,-3.000425,101503.89
76269,5.214,-4.060,0.194,2.591942,0.297786,-3.251049,101501.66
76279,5.359,-4.504,-0.021,2.482859,0.348336,-3.518700,101500.66
76289,5.741,-4.690,-0.033,2.362071,0.424960,-3.798590,101502.28
76299,6.331,-4.757,0.638,2.201905,0.559584,-4.079544,101502.28
76309,7.118,-4.777,0.936,1.899135,0.718684,-4.372204,101503.01
76319,7.592,-5.141,0.954,1.682034,0.833620,-4.661140,101504.52
76329,8.036,-6.117,0.924,1.570823,0.970905,-4.907507,101500.82
76339,8.514,-7.328,1.133,1.529851,1.141712,-5.082039,101501.02
76349,8.681,-8.911,1.479,1.396824,1.369455,-5.203360,101501.02
76359,8.989,-10.590,1.407,1.177594,1.584427,-5.311910,101504.49
76369,9.421,-11.772,1.196,0.997741,1.756831,-5.417268,101503.34
76379,10.048,-12.791,0.826,1.007319,1.851546,-5.464094,101506.21
76385,10.422,-13.727,0.516,1.127044,1.865913,-5.438020,101504.02
76394,10.574,-14.679,0.230,1.328181,1.840904,-5.343305,101504.02
76404,10.689,-15.645,-0.079,1.587319,1.784500,-5.157598,101504.02
76414,10.738,-16.453,-0.066,1.678842,1.708409,-4.905910,101502.78
76425,10.424,-17.055,0.011,1.643190,1.604647,-4.610590,101504.03
76434,9.755,-17.515,0.328,1.648512,1.481198,-4.263122,101504.58
76444,9.146,-17.674,0.961,1.709704,1.372647,-3.812957,101504.58
76454,8.754,-17.607,1.091,1.717686,1.280592,-3.281911,101506.20
76464,7.928,-18.001,0.286,1.713961,1.140115,-2.733838,101506.20
76474,7.197,-18.668,-2.169,1.665007,0.955473,-2.229398,101507.72
76484,6.443,-20.759,-4.382,1.429282,0.727198,-1.822866,101508.41
76494,4.142,-20.779,-4.871,0.920585,0.436134,-1.340775,101506.11
76504,2.806,-19.418,-4.058,0.443283,0.205731,-0.623491,101506.11
76514,3.260,-17.305,-3.064,0.341650,-0.070434,0.256619,101508.38
76524,5.022,-14.526,-1.561,0.644952,-0.489737,1.112783,101509.89
76534,4.564,-14.003,-0.346,1.175998,-1.000030,1.893388,101508.33
76545,10.979,0.459,9.815,1.609668,-1.295883,2.207865,101510.37
76555,24.961,17.487,11.413,1.260604,-0.807406,0.942508,101506.66
76564,20.331,-4.997,-3.906,0.192127,-0.018820,0.606215,101509.38
76574,15.520,-14.216,-3.061,0.161797,-0.524324,1.964691,101507.82
76584,7.325,-9.763,7.223,0.275136,-0.282746,2.032269,101507.82
76594,6.706,-13.302,6.400,0.704549,0.009382,2.100911,101506.73
76604,12.897,-12.378,0.089,1.317007,-0.697792,2.699535,101506.73
76614,11.297,-5.774,-0.592,1.624567,-1.326745,2.637278,101510.78
76619,8.143,-5.479,1.706,1.544218,-1.191590,2.485094,101507.23
76630,4.998,-7.815,3.160,0.896640,-0.935645,2.393571,101508.50
76639,2.820,-8.807,4.043,-0.081909,-0.454085,2.162104,101507.81
76649,4.580,-5.968,3.910,-0.898166,0.059933,1.824214,101507.81
76659,7.036,-1.968,3.686,-1.079083,0.100373,1.611370,101510.34
76669,8.678,-1.142,3.681,-0.653395,-0.148654,1.564544,101508.22
76679,9.720,-2.909,2.829,-0.018056,-0.493462,1.584232,101506.64
76689,9.882,-4.698,1.692,0.475742,-0.754195,1.583700,101505.70
76699,9.121,-5.585,1.544,0.640696,-0.815920,1.555498,101505.70
76709,7.686,-5.364,2.785,0.523631,-0.666397,1.500691,101512.23
76720,6.633,-4.213,4.067,0.294292,-0.445040,1.404379,101510.09
76729,6.675,-3.226,4.688,0.166586,-0.365223,1.300618,101506.45
76739,7.475,-3.520,3.981,0.237889,-0.458342,1.230911,101506.91
76749,8.246,-5.418,2.118,0.370916,-0.600416,1.208563,101506.91
76760,8.478,-7.475,0.490,0.364531,-0.660012,1.216545,101507.11
76769,8.344,-7.779,-0.376,0.157540,-0.554122,1.193132,101507.58
76779,7.809,-6.664,0.198,-0.146827,-0.282214,1.142581,101506.27
76789,7.344,-5.406,1.298,-0.413414,-0.037443,1.106398,101507.63
76800,7.481,-4.416,2.318,-0.528350,0.056740,1.095224,101507.63
76810,7.987,-3.911,3.249,-0.472478,0.029070,1.094691,101508.34
76819,8.200,-4.180,3.601,-0.327744,-0.055535,1.104802,101508.66
76829,7.848,-4.974,3.496,-0.201102,-0.144398,1.102141,101506.11
76839,7.332,-5.580,2.952,-0.135653,-0.198673,1.076600,101504.75
76850,7.036,-6.093,2.220,-0.131928,-0.211975,1.051058,101504.75
76855,7.087,-6.286,1.725,-0.143634,-0.209315,1.034563,101507.86
76864,7.293,-6.342,1.532,-0.162790,-0.194416,1.018600,101507.86
76874,7.515,-6.172,1.634,-0.186735,-0.165150,1.009022,101506.30
76884,7.555,-5.914,1.856,-0.199506,-0.139609,1.010618,101506.50
76895,7.445,-5.950,2.023,-0.216001,-0.107682,1.020728,101507.44
76905,7.339,-6.210,1.973,-0.249524,-0.074691,1.020728,101509.41
76914,7.289,-6.451,2.014,-0.309120,-0.029462,1.010086,101504.70
76924,7.376,-6.487,2.168,-0.358606,0.010446,0.988269,101504.66
76935,7.307,-6.517,2.270,-0.371909,0.024813,0.966453,101504.66
76944,7.142,-6.669,2.246,-0.360203,0.018960,0.946765,101503.61
76954,7.040,-6.691,2.252,-0.352753,0.014171,0.916967,101503.61
76964,6.986,-6.923,2.246,-0.362863,0.017896,0.879719,101505.75
76975,6.954,-6.917,2.193,-0.406496,0.036520,0.866416,101506.38
76984,7.044,-6.690,2.311,-0.486845,0.065254,0.871205,101508.63
76994,7.220,-6.568,2.619,-0.573579,0.087602,0.892490,101506.33
77004,7.648,-6.808,3.119,-0.671487,0.106758,0.923884,101506.33
77015,8.104,-6.998,3.313,-0.776313,0.129639,0.968049,101505.37
77025,8.189,-6.900,3.572,-0.859322,0.132300,1.019132,101506.21
77034,7.867,-6.879,4.598,-0.927432,0.152520,1.079260,101505.63
77044,9.258,-7.464,2.637,-1.006716,0.154648,1.136196,101505.63
77054,10.526,-7.833,1.152,-1.054606,0.032795,1.208031,101505.63
77065,10.946,-7.554,1.225,-1.096111,-0.065645,1.313921,101508.33
77074,10.793,-7.100,1.736,-1.056734,-0.152379,1.444820,101507.50
77084,10.569,-7.316,2.101,-1.014166,-0.241241,1.584764,101505.36
77094,10.595,-7.895,2.487,-1.018423,-0.322654,1.699168,101508.33
77105,10.797,-8.234,2.828,-1.077487,-0.372140,1.781645,101508.33
77115,11.098,-8.401,3.059,-1.167945,-0.372673,1.865186,101507.03
77124,11.291,-8.585,2.945,-1.296716,-0.343407,1.938617,101506.03
77134,11.836,-8.605,2.823,-1.467523,-0.299241,1.995021,101508.31
77145,12.966,-8.607,3.193,-1.685688,-0.240709,2.051425,101508.31
77155,14.783,-8.539,3.910,-1.998037,-0.158232,2.107828,101506.88
77164,17.733,-7.897,4.973,-2.365725,-0.080544,2.160507,101506.30
77174,20.542,-5.880,5.779,-2.723835,-0.014031,2.237131,101506.30
77185,21.163,-3.981,5.277,-2.936678,0.056740,2.313755,101505.27
77195,19.842,-3.578,4.759,-3.011174,0.070043,2.368030,101504.18
77204,16.198,-6.605,3.844,-2.869632,-0.058196,2.525002,101504.18
77214,12.973,-9.893,4.818,-2.447137,-0.318930,2.824580,101505.92
77224,13.670,-8.879,5.682,-2.149688,-0.485480,2.888966,101506.77
77235,13.045,-7.070,5.850,-1.944826,-0.510489,2.671333,101505.25
77245,10.495,-6.822,5.744,-1.718147,-0.466324,2.513828,101504.16
77254,9.680,-5.683,5.156,-1.446239,-0.452489,2.395168,101507.95
77264,9.998,-3.663,4.044,-1.145065,-0.538159,2.172746,101507.44
77275,8.954,-2.549,3.429,-0.859854,-0.580195,1.842838,101503.00
77285,6.165,-2.848,2.767,-0.603909,-0.572746,1.533682,101505.14
77294,2.719,-3.857,1.396,-0.444808,-0.463663,1.216012,101505.14
77304,-1.846,-8.182,-0.695,-0.578368,-0.109278,0.849921,101505.14
77315,-2.240,-9.839,0.511,-0.738001,0.323859,0.581205,101508.62
77325,0.207,-5.697,1.471,-0.769927,0.496263,0.133701,101506.79
77334,1.899,-1.968,1.401,-0.683726,0.588318,-0.365418,101506.52
77344,2.477,-0.295,0.630,-0.587414,0.687290,-0.733106,101506.95
77355,2.865,0.807,-0.152,-0.392129,0.695272,-0.990115,101506.95
77365,3.225,2.281,-0.404,0.154879,0.540428,-1.246059,101506.72
77375,3.530,2.886,-0.297,0.881741,0.368556,-1.505197,101506.17
77384,3.549,2.235,0.060,1.542622,0.219033,-1.744646,101500.36
77394,3.456,1.086,0.293,2.123153,0.096648,-1.970261,101500.36
77405,3.336,-0.229,0.329,2.528089,0.025878,-2.187894,101500.36
77415,3.219,-1.492,0.467,2.736144,0.017364,-2.419894,101504.66
77424,3.269,-2.633,0.572,2.783501,0.050887,-2.672646,101504.55
77434,3.401,-3.514,0.499,2.720181,0.111547,-2.948278,101506.11
77445,3.604,-4.016,0.446,2.581122,0.203957,-3.268431,101503.41
77455,4.011,-4.101,0.246,2.447740,0.305767,-3.529874,101503.41
77465,4.580,-4.012,-0.024,2.349832,0.415382,-3.803379,101506.06
77474,5.049,-4.152,0.423,2.260970,0.545217,-4.059856,101502.25
77485,5.724,-4.495,1.115,2.064089,0.683565,-4.300901,101501.58
77495,6.377,-5.175,1.263,1.801227,0.788391,-4.566424,101502.02
77505,6.792,-6.335,1.268,1.605411,0.912372,-4.842589,101501.13
77514,7.582,-7.434,1.263,1.459080,1.098079,-5.088424,101500.97
77524,8.448,-8.130,1.279,1.338824,1.335400,-5.269341,101500.97
77535,9.155,-8.835,1.310,1.259539,1.560482,-5.378956,101500.61
77545,9.977,-10.115,1.362,1.299448,1.681803,-5.428442,101501.50
77554,11.103,-12.130,1.349,1.481961,1.659987,-5.410350,101501.50
77564,12.326,-14.964,1.257,1.732053,1.534941,-5.335323,101504.60
77575,12.720,-17.762,1.227,1.881043,1.413620,-5.226773,101504.60
77585,11.546,-19.222,1.382,1.800163,1.368390,-5.086296,101505.29
77595,9.924,-18.663,1.270,1.429282,1.428519,-4.858021,101507.16
77604,9.119,-17.072,1.514,1.105760,1.563675,-4.496718,101507.16
77615,9.165,-15.373,2.378,1.040310,1.659987,-4.011966,101507.82
77625,9.212,-14.686,2.221,1.184512,1.649344,-3.507526,101506.34
77635,8.892,-17.201,0.875,1.368622,1.557822,-3.118554,101504.71
77644,7.023,-20.062,-1.166,1.219631,1.407767,-2.773746,101504.71
77655,5.088,-20.979,-2.797,0.592274,1.386482,-2.283141,101504.71
77665,3.791,-21.759,-3.007,-0.188331,1.355088,-1.583417,101511.18
77675,3.661,-20.311,-2.923,-0.852936,1.190134,-0.796427,101510.09
77680,4.448,-18.003,-2.857,-1.150386,1.015602,-0.164812,101508.21
77689,4.993,-15.713,-2.647,-1.181248,0.780941,0.456692,101508.77
77700,6.088,-12.727,-2.024,-0.867303,0.370153,1.155352,101508.77
77710,7.354,-9.538,-3.699,-0.274533,-0.198673,1.665113,101510.13
77720,11.153,0.718,-0.839,0.437962,-0.921810,1.929572,101510.19
77729,21.746,20.441,9.826,1.309558,-1.191590,1.258049,101507.20
77740,23.974,6.777,3.504,1.465998,-0.570617,0.565774,101505.64
77750,16.782,-13.098,1.807,1.879447,-0.764305,1.962030,101505.64
77760,7.391,-16.341,7.033,2.722841,-1.211278,2.594709,101507.53
77769,6.746,-16.739,5.027,3.115538,-1.356544,2.837351,101507.22
77779,9.403,-11.324,-1.605,2.638236,-1.883332,2.733590,101507.02
77790,6.148,-10.610,-0.608,1.997575,-1.617277,2.378672,101506.23
77800,4.748,-13.064,0.395,0.575246,-0.702581,2.217975,101506.23
77809,4.836,-10.415,2.020,-1.048753,0.109419,1.931700,101507.77
77819,5.910,-6.334,3.247,-2.087431,0.667070,1.595939,101507.62
77830,7.698,-2.022,3.735,-2.187468,0.644189,1.408104,101508.20
77840,9.388,0.479,4.659,-1.580330,0.265859,1.410765,101506.57
77849,9.990,-0.240,3.775,-0.723102,-0.193884,1.511865,101506.57
77859,9.209,-3.240,2.513,0.120824,-0.611058,1.575719,101509.05
77870,8.260,-6.166,2.248,0.558751,-0.815920,1.554434,101509.57
77880,7.527,-7.635,2.457,0.466164,-0.744085,1.452801,101505.35
77890,6.895,-7.662,2.589,-0.014864,-0.457810,1.316049,101506.02
77899,6.863,-6.445,3.041,-0.561340,-0.141737,1.183022,101506.02
77910,7.357,-4.747,3.612,-0.850808,0.014703,1.083517,101507.78
77920,8.034,-3.156,3.861,-0.743322,-0.052343,1.036159,101508.98
77930,8.088,-2.689,3.722,-0.347964,-0.266783,1.047866,101503.98
77939,7.775,-3.657,2.959,0.079852,-0.493462,1.084581,101506.95
77949,7.561,-5.326,1.864,0.317173,-0.605205,1.110123,101506.95
77960,7.505,-6.746,1.069,0.291100,-0.553590,1.105334,101509.47
77970,7.315,-7.366,1.111,0.056971,-0.373737,1.070214,101508.73
77980,7.273,-6.663,1.629,-0.262295,-0.144930,1.015407,101505.81
77989,7.368,-5.408,2.423,-0.500680,0.034391,0.965921,101506.44
78000,7.554,-4.939,2.921,-0.548038,0.083345,0.941976,101506.44
78010,7.805,-4.936,3.020,-0.452258,0.020556,0.937719,101508.03
78020,7.732,-5.188,2.915,-0.324019,-0.058728,0.939315,101507.09
78029,7.380,-5.762,2.403,-0.230900,-0.105554,0.939847,101507.45
78040,7.133,-6.292,1.817,-0.218130,-0.102361,0.932398,101505.38
78050,7.117,-6.449,1.718,-0.276129,-0.057132,0.912710,101505.38
78060,7.216,-6.390,1.892,-0.350625,0.001933,0.886104,101507.36
78069,7.299,-6.201,2.150,-0.410221,0.055144,0.871737,101509.30
78080,7.398,-6.025,2.421,-0.446937,0.090263,0.865352,101505.28
78090,7.470,-5.921,2.386,-0.440019,0.095052,0.864288,101504.39
78100,7.451,-6.111,2.434,-0.406496,0.089199,0.871737,101504.39
78110,7.341,-6.390,2.524,-0.378295,0.074832,0.875462,101506.55
78119,7.111,-6.692,2.504,-0.374038,0.069511,0.869609,101508.94
78130,6.987,-6.913,2.448,-0.396918,0.075896,0.856306,101506.44
78140,7.014,-6.992,2.449,-0.449065,0.098245,0.842471,101503.94
78150,7.072,-6.903,2.550,-0.523561,0.128575,0.839279,101503.94
78159,7.131,-6.852,2.783,-0.606570,0.153584,0.846196,101507.24
78170,7.290,-6.825,3.061,-0.677872,0.156244,0.868013,101505.90
78180,7.387,-6.772,3.670,-0.730551,0.147199,0.901536,101505.48
78190,7.321,-6.743,4.575,-0.787487,0.162630,0.942508,101503.76
78199,7.797,-7.106,4.276,-0.873157,0.196153,0.981352,101503.76
78210,9.422,-7.694,2.054,-0.963083,0.144538,1.037756,101508.70
78220,10.248,-7.625,1.852,-1.043432,0.052483,1.119168,101508.97
78230,10.257,-7.034,1.993,-1.053542,-0.025205,1.238361,101507.50
78240,10.285,-7.323,2.042,-0.999799,-0.119920,1.358618,101501.92
78249,10.428,-8.111,1.950,-0.987560,-0.191223,1.459719,101501.92
78260,10.435,-8.392,2.083,-1.053542,-0.220489,1.549645,101506.51
78270,10.380,-8.230,2.289,-1.168478,-0.231309,1.636202,101505.46
78280,10.642,-7.962,2.270,-1.249890,-0.255608,1.707682,101503.79
78289,11.129,-7.896,2.410,-1.306294,-0.290196,1.776324,101505.51
78300,11.862,-7.935,2.563,-1.356312,-0.335425,1.855608,101505.51
78310,12.687,-8.041,3.097,-1.460606,-0.362030,1.935425,101506.48
78320,13.891,-8.066,3.930,-1.659615,-0.344471,2.012581,101506.32
78329,15.820,-7.919,4.957,-1.929927,-0.292324,2.082287,101504.96
78340,18.362,-7.145,5.591,-2.275798,-0.216232,2.149333,101506.52
78350,20.003,-5.581,5.548,-2.641890,-0.096508,2.222232,101506.52
78360,20.170,-4.134,5.194,-2.963284,0.063657,2.272783,101507.89
78370,18.423,-4.676,4.684,-3.072366,0.141345,2.364837,101506.84
78380,14.813,-8.018,4.052,-2.798862,-0.024141,2.617058,101506.64
78390,12.705,-10.391,5.904,-2.370514,-0.259333,2.903865,101504.09
78400,12.798,-9.078,6.839,-2.168312,-0.356177,2.881516,101504.09
78410,11.905,-8.118,5.866,-1.885229,-0.339682,2.755938,101506.91
78419,10.864,-7.349,4.456,-1.584055,-0.374269,2.704324,101508.56
78430,10.285,-5.976,3.743,-1.271175,-0.468452,2.619718,101505.03
78440,9.280,-4.708,3.577,-0.913597,-0.521663,2.366434,101504.72
78450,7.238,-4.142,2.854,-0.704478,-0.480691,1.997150,101504.72
78460,4.699,-3.520,2.411,-0.604441,-0.322122,1.616691,101506.34
78470,1.429,-5.363,0.054,-0.693836,-0.044361,1.175040,101506.61
78480,-1.532,-8.622,-0.530,-1.000331,0.413254,0.815866,101509.27
78490,-0.644,-7.328,1.112,-1.123780,0.701657,0.520545,101504.31
78500,1.390,-3.383,1.476,-0.955634,0.728795,0.071444,101504.31
78510,2.284,-0.984,0.975,-0.673615,0.695804,-0.332959,101505.39
78520,2.491,-0.080,0.344,-0.324551,0.651107,-0.606996,101506.33
78530,2.631,0.546,-0.169,0.102733,0.554263,-0.836335,101505.03
78540,2.748,1.380,-0.288,0.668897,0.395162,-1.090151,101503.30
78550,3.024,1.677,-0.166,1.291466,0.255749,-1.351417,101503.30
78560,3.092,1.019,0.076,1.821979,0.140813,-1.619068,101506.20
78570,2.890,0.066,0.259,2.230639,0.068446,-1.886720,101506.52
78580,2.721,-0.900,0.433,2.511593,0.047694,-2.127765,101502.66
78589,2.582,-1.863,0.538,2.686657,0.045566,-2.356572,101503.44
78600,2.707,-2.645,0.600,2.765410,0.045034,-2.586444,101503.44
78610,3.026,-3.249,0.467,2.733483,0.057272,-2.839196,101505.48
78620,3.432,-3.750,0.284,2.596731,0.104098,-3.124407,101503.45
78630,3.797,-3.977,0.279,2.390805,0.199345,-3.423452,101502.77
78640,4.264,-3.920,0.284,2.182750,0.326520,-3.713452,101499.70
78650,4.933,-3.821,0.121,2.033759,0.455822,-3.972590,101499.70
