171612,+8.641,+2.761,+1.022,-0.006,+0.000,-0.010,+100772.12
171622,+8.634,+2.737,+1.061,-0.006,+0.001,-0.010,+100772.12
171631,+8.610,+2.739,+1.066,-0.001,+0.003,-0.009,+100774.56
171641,+8.613,+2.766,+1.056,-0.002,+0.004,-0.009,+100775.08
171652,+8.651,+2.748,+1.065,-0.001,+0.005,-0.010,+100774.36
171662,+8.661,+2.749,+1.108,-0.004,+0.004,-0.009,+100770.55
171671,+8.640,+2.755,+1.056,-0.004,+0.005,-0.011,+100770.55
171681,+8.622,+2.787,+1.099,-0.005,+0.003,-0.010,+100775.64
171692,+8.653,+2.769,+1.080,-0.005,+0.003,-0.007,+100773.86
171702,+8.643,+2.784,+1.080,-0.005,+0.004,-0.003,+100774.63
171712,+8.637,+2.790,+1.108,-0.005,+0.004,+0.000,+100772.17
171721,+8.644,+2.755,+1.041,-0.004,+0.004,+0.005,+100772.17
171731,+8.610,+2.790,+1.025,+0.000,+0.006,+0.010,+100773.73
171742,+8.623,+2.817,+1.156,+0.003,+0.009,+0.011,+100771.95
171752,+8.674,+2.743,+1.085,+0.002,+0.006,+0.015,+100771.54
171761,+8.633,+2.712,+1.062,-0.004,+0.005,+0.012,+100772.15
171771,+8.625,+2.734,+1.068,-0.003,+0.007,+0.008,+100772.15
171782,+8.633,+2.724,+1.074,-0.005,+0.007,+0.006,+100774.55
171792,+8.628,+2.700,+1.083,-0.005,+0.008,+0.002,+100771.95
171802,+8.633,+2.707,+1.074,-0.004,+0.009,+0.001,+100773.53
171811,+8.607,+2.737,+1.093,-0.000,+0.009,-0.001,+100773.98
171822,+8.641,+2.743,+1.137,+0.001,+0.010,-0.002,+100773.98
171832,+8.631,+2.735,+1.097,-0.000,+0.008,-0.000,+100774.91
171842,+8.615,+2.762,+1.086,+0.000,+0.009,+0.000,+100774.80
171851,+8.650,+2.728,+1.084,-0.002,+0.009,+0.001,+100775.06
171862,+8.659,+2.760,+1.058,-0.000,+0.008,+0.001,+100771.09
171872,+8.647,+2.757,+1.071,-0.001,+0.009,+0.001,+100771.09
171882,+8.638,+2.744,+1.097,-0.001,+0.009,+0.001,+100774.97
171892,+8.627,+2.768,+1.079,+0.002,+0.010,+0.001,+100773.34
171901,+8.645,+2.751,+1.120,+0.002,+0.011,+0.002,+100774.20
171912,+8.649,+2.707,+1.090,+0.001,+0.009,+0.002,+100774.72
171922,+8.628,+2.695,+1.061,-0.000,+0.006,-0.000,+100774.72
171932,+8.626,+2.744,+1.071,-0.003,+0.008,-0.002,+100774.09
171942,+8.640,+2.740,+1.074,-0.001,+0.008,-0.001,+100772.30
171952,+8.641,+2.743,+1.060,-0.001,+0.008,+0.000,+100772.71
171962,+8.651,+2.744,+1.068,-0.000,+0.009,+0.001,+100772.87
171972,+8.629,+2.747,+1.113,+0.001,+0.011,+0.002,+100772.87
171982,+8.621,+2.750,+1.097,+0.004,+0.011,+0.003,+100775.62
171992,+8.626,+2.757,+1.074,+0.002,+0.012,+0.002,+100776.02
172002,+8.625,+2.760,+1.125,+0.002,+0.012,+0.000,+100773.88
172012,+8.652,+2.718,+1.107,+0.002,+0.011,+0.000,+100772.87
172022,+8.639,+2.730,+1.095,-0.001,+0.010,-0.001,+100772.87
172033,+8.633,+2.729,+1.055,-0.001,+0.010,-0.003,+100774.10
172042,+8.623,+2.749,+1.071,-0.001,+0.010,-0.002,+100773.70
172052,+8.639,+2.757,+1.115,+0.000,+0.010,-0.002,+100772.84
172062,+8.637,+2.751,+1.102,-0.000,+0.010,-0.001,+100773.54
172072,+8.627,+2.738,+1.090,+0.002,+0.011,-0.003,+100773.54
172082,+8.635,+2.710,+1.064,-0.001,+0.011,-0.004,+100775.90
172092,+8.640,+2.708,+1.092,-0.002,+0.011,-0.006,+100773.80
172102,+8.620,+2.716,+1.097,-0.003,+0.010,-0.008,+100773.10
172112,+8.643,+2.756,+1.098,-0.005,+0.010,-0.009,+100772.63
172122,+8.646,+2.767,+1.128,-0.004,+0.010,-0.009,+100772.63
172132,+8.649,+2.769,+1.127,-0.004,+0.009,-0.006,+100775.15
172142,+8.649,+2.732,+1.117,-0.005,+0.009,-0.004,+100771.23
172152,+8.608,+2.719,+1.040,-0.006,+0.008,-0.006,+100774.88
172163,+8.621,+2.753,+1.091,-0.005,+0.011,-0.008,+100771.99
172172,+8.631,+2.745,+1.145,-0.006,+0.011,-0.007,+100771.99
172182,+8.657,+2.749,+1.091,-0.005,+0.011,-0.006,+100775.00
172192,+8.659,+2.756,+1.125,-0.003,+0.013,-0.006,+100775.05
172203,+8.632,+2.729,+1.140,-0.001,+0.014,-0.006,+100770.88
172212,+8.645,+2.719,+1.102,-0.003,+0.014,-0.007,+100773.31
172222,+8.627,+2.744,+1.147,-0.003,+0.014,-0.008,+100773.31
172232,+8.649,+2.756,+1.097,-0.005,+0.013,-0.008,+100775.52
172242,+8.627,+2.739,+1.086,-0.006,+0.013,-0.009,+100773.33
172253,+8.620,+2.728,+1.125,-0.007,+0.013,-0.009,+100771.48
172262,+8.649,+2.714,+1.128,-0.007,+0.014,-0.009,+100772.86
172272,+8.638,+2.729,+1.113,-0.004,+0.014,-0.010,+100772.86
172282,+8.629,+2.763,+1.126,-0.004,+0.017,-0.012,+100774.58
172293,+8.647,+2.744,+1.166,-0.004,+0.017,-0.011,+100772.70
172302,+8.640,+2.743,+1.109,-0.002,+0.017,-0.012,+100771.22
172312,+8.629,+2.756,+1.089,-0.002,+0.018,-0.014,+100771.88
172322,+8.621,+2.761,+1.144,-0.004,+0.019,-0.013,+100771.88
172333,+8.633,+2.771,+1.117,-0.004,+0.018,-0.013,+100777.22
172343,+8.619,+2.784,+1.119,-0.001,+0.019,-0.012,+100772.84
172352,+8.626,+2.767,+1.145,+0.001,+0.018,-0.010,+100774.22
172362,+8.605,+2.771,+1.164,-0.002,+0.018,-0.008,+100771.97
172372,+8.631,+2.747,+1.143,-0.003,+0.017,-0.009,+100771.97
172383,+8.619,+2.768,+1.149,-0.003,+0.018,-0.007,+100775.94
172392,+8.621,+2.773,+1.165,-0.001,+0.018,-0.007,+100772.98
172402,+8.632,+2.778,+1.166,-0.001,+0.019,-0.006,+100773.14
172412,+8.616,+2.761,+1.108,-0.001,+0.018,-0.006,+100771.77
172423,+8.604,+2.754,+1.174,-0.004,+0.017,-0.007,+100771.77
172433,+8.595,+2.748,+1.149,-0.005,+0.017,-0.007,+100772.62
172442,+8.613,+2.769,+1.158,-0.007,+0.016,-0.006,+100775.07
172452,+8.605,+2.790,+1.143,-0.007,+0.016,-0.005,+100773.95
172463,+8.627,+2.795,+1.139,-0.006,+0.018,-0.004,+100772.41
172473,+8.619,+2.728,+1.134,-0.007,+0.019,-0.003,+100772.41
172483,+8.633,+2.737,+1.151,-0.009,+0.019,-0.004,+100775.63
172492,+8.615,+2.762,+1.163,-0.008,+0.020,-0.005,+100773.84
172503,+8.584,+2.768,+1.155,-0.007,+0.020,-0.004,+100772.98
172513,+8.632,+2.807,+1.132,-0.006,+0.020,-0.003,+100770.69
172523,+8.616,+2.804,+1.149,-0.004,+0.021,-0.002,+100770.69
172532,+8.641,+2.810,+1.184,-0.002,+0.022,-0.000,+100775.08
172542,+8.645,+2.760,+1.150,-0.004,+0.022,-0.000,+100773.91
172553,+8.629,+2.757,+1.133,-0.005,+0.023,-0.000,+100773.16
172563,+8.595,+2.769,+1.137,-0.004,+0.024,-0.001,+100772.95
172573,+8.600,+2.769,+1.207,-0.005,+0.023,-0.001,+100772.95
172582,+8.613,+2.772,+1.214,-0.005,+0.023,+0.000,+100775.30
172593,+8.631,+2.779,+1.217,-0.002,+0.023,+0.000,+100774.17
172603,+8.607,+2.760,+1.189,-0.004,+0.023,+0.001,+100772.14
172613,+8.643,+2.760,+1.143,-0.005,+0.024,+0.001,+100769.75
172622,+8.626,+2.759,+1.123,-0.004,+0.024,+0.002,+100769.75
172633,+8.608,+2.787,+1.200,+0.001,+0.026,+0.002,+100775.63
172643,+8.609,+2.774,+1.219,-0.000,+0.025,+0.005,+100775.22
172653,+8.596,+2.779,+1.202,-0.000,+0.025,+0.007,+100773.75
172663,+8.600,+2.767,+1.216,-0.001,+0.025,+0.008,+100773.30
172673,+8.619,+2.779,+1.214,-0.001,+0.025,+0.011,+100773.30
172683,+8.607,+2.771,+1.208,-0.004,+0.025,+0.013,+100774.19
172693,+8.629,+2.759,+1.213,-0.003,+0.026,+0.014,+100772.88
172703,+8.635,+2.755,+1.236,-0.001,+0.026,+0.015,+100772.56
172712,+8.614,+2.759,+1.244,-0.001,+0.025,+0.016,+100771.70
172723,+8.614,+2.769,+1.190,-0.003,+0.026,+0.016,+100771.70
172733,+8.625,+2.742,+1.212,-0.001,+0.026,+0.016,+100775.48
172743,+8.641,+2.753,+1.220,-0.001,+0.027,+0.017,+100772.06
172753,+8.627,+2.716,+1.228,+0.000,+0.027,+0.017,+100771.86
172763,+8.614,+2.726,+1.238,-0.001,+0.027,+0.017,+100770.89
172773,+8.596,+2.723,+1.204,-0.001,+0.028,+0.016,+100770.89
172783,+8.615,+2.748,+1.244,-0.000,+0.028,+0.017,+100774.76
172793,+8.637,+2.737,+1.238,+0.001,+0.027,+0.014,+100774.40
172803,+8.643,+2.763,+1.240,+0.002,+0.027,+0.014,+100770.79
172813,+8.640,+2.723,+1.250,-0.001,+0.026,+0.015,+100772.98
172823,+8.626,+2.694,+1.231,-0.003,+0.026,+0.013,+100772.98
172833,+8.628,+2.732,+1.256,-0.001,+0.028,+0.012,+100775.45
172844,+8.611,+2.750,+1.243,-0.000,+0.027,+0.013,+100772.49
172853,+8.615,+2.705,+1.248,+0.002,+0.027,+0.013,+100772.13
172863,+8.628,+2.737,+1.265,+0.003,+0.027,+0.013,+100771.68
172873,+8.659,+2.726,+1.299,+0.004,+0.027,+0.012,+100771.68
172883,+8.646,+2.700,+1.267,+0.001,+0.025,+0.012,+100772.41
172893,+8.634,+2.700,+1.275,-0.002,+0.026,+0.009,+100773.42
172903,+8.622,+2.677,+1.243,-0.006,+0.025,+0.006,+100772.45
172913,+8.622,+2.735,+1.261,-0.005,+0.026,+0.003,+100770.72
172923,+8.623,+2.775,+1.268,+0.002,+0.029,+0.001,+100770.72
172934,+8.644,+2.710,+1.253,+0.004,+0.028,+0.002,+100775.83
172943,+8.634,+2.687,+1.243,+0.002,+0.029,-0.000,+100773.44
172953,+8.637,+2.736,+1.281,+0.001,+0.028,-0.004,+100773.59
172963,+8.597,+2.724,+1.275,+0.000,+0.027,-0.005,+100774.00
172974,+8.641,+2.710,+1.247,-0.002,+0.026,-0.006,+100774.00
172984,+8.627,+2.713,+1.283,-0.004,+0.027,-0.007,+100776.89
172993,+8.610,+2.722,+1.263,-0.005,+0.028,-0.008,+100774.05
173003,+8.607,+2.744,+1.295,-0.003,+0.029,-0.009,+100774.61
173014,+8.629,+2.716,+1.296,-0.003,+0.028,-0.008,+100772.83
173023,+8.613,+2.698,+1.283,-0.002,+0.028,-0.009,+100772.83
173033,+8.610,+2.704,+1.284,-0.001,+0.029,-0.010,+100775.94
173043,+8.616,+2.751,+1.296,-0.001,+0.029,-0.009,+100776.66
173053,+8.619,+2.743,+1.299,-0.001,+0.029,-0.008,+100772.13
173064,+8.619,+2.741,+1.289,+0.001,+0.029,-0.007,+100773.91
173073,+8.601,+2.763,+1.287,+0.002,+0.031,-0.006,+100773.91
173083,+8.632,+2.767,+1.314,+0.003,+0.032,-0.005,+100776.11
173093,+8.641,+2.743,+1.301,+0.003,+0.030,-0.005,+100775.80
173104,+8.627,+2.742,+1.326,+0.001,+0.028,-0.006,+100773.36
173114,+8.635,+2.736,+1.323,+0.000,+0.027,-0.008,+100774.44
173123,+8.609,+2.766,+1.328,+0.001,+0.026,-0.009,+100774.44
173133,+8.614,+2.756,+1.320,-0.000,+0.026,-0.009,+100776.57
173144,+8.616,+2.737,+1.339,+0.001,+0.023,-0.008,+100774.32
173154,+8.585,+2.749,+1.371,-0.004,+0.022,-0.007,+100772.54
173163,+8.583,+2.747,+1.353,-0.006,+0.020,-0.008,+100771.84
173173,+8.570,+2.761,+1.347,-0.007,+0.021,-0.008,+100771.84
173184,+8.627,+2.725,+1.289,-0.005,+0.022,-0.008,+100772.72
173194,+8.651,+2.732,+1.265,-0.006,+0.021,-0.011,+100774.91
173204,+8.677,+2.641,+1.217,-0.008,+0.022,-0.017,+100773.02
173213,+8.613,+2.643,+1.283,-0.008,+0.025,-0.024,+100770.73
173223,+8.579,+2.672,+1.354,-0.012,+0.027,-0.031,+100770.73
173234,+8.577,+2.674,+1.376,-0.012,+0.025,-0.036,+100774.35
173244,+8.596,+2.698,+1.345,-0.010,+0.023,-0.042,+100772.57
173253,+8.615,+2.731,+1.353,-0.007,+0.022,-0.047,+100772.62
173263,+8.621,+2.745,+1.390,-0.007,+0.022,-0.049,+100774.20
173274,+8.596,+2.785,+1.360,-0.009,+0.023,-0.049,+100774.20
173284,+8.571,+2.784,+1.293,-0.009,+0.025,-0.048,+100775.59
173294,+8.579,+2.813,+1.296,-0.003,+0.028,-0.046,+100773.66
173303,+8.584,+2.777,+1.314,+0.002,+0.034,-0.044,+100774.72
173314,+8.592,+2.783,+1.362,+0.007,+0.037,-0.045,+100774.31
173324,+8.687,+2.762,+1.388,+0.009,+0.035,-0.048,+100774.31
173334,+8.662,+2.728,+1.389,+0.002,+0.033,-0.053,+100775.18
173343,+8.602,+2.732,+1.414,-0.008,+0.032,-0.058,+100776.24
173353,+8.567,+2.744,+1.381,-0.015,+0.030,-0.061,+100773.49
173364,+8.529,+2.808,+1.384,-0.018,+0.029,-0.063,+100773.54
173374,+8.554,+2.857,+1.377,-0.014,+0.030,-0.061,+100773.54
173384,+8.600,+2.859,+1.363,-0.008,+0.029,-0.058,+100773.50
173393,+8.580,+2.892,+1.410,-0.004,+0.029,-0.055,+100771.02
173404,+8.564,+2.836,+1.429,-0.006,+0.030,-0.052,+100773.91
173414,+8.549,+2.835,+1.405,-0.009,+0.027,-0.051,+100772.69
173424,+8.555,+2.854,+1.454,-0.010,+0.026,-0.051,+100772.69
173434,+8.580,+2.854,+1.467,-0.013,+0.026,-0.051,+100773.79
173444,+8.579,+2.847,+1.425,-0.014,+0.022,-0.051,+100775.52
173454,+8.561,+2.864,+1.445,-0.017,+0.023,-0.051,+100774.04
173464,+8.568,+2.863,+1.439,-0.017,+0.023,-0.050,+100773.54
173474,+8.570,+2.870,+1.377,-0.016,+0.023,-0.050,+100773.54
173484,+8.555,+2.901,+1.394,-0.015,+0.026,-0.048,+100772.91
173494,+8.571,+2.899,+1.364,-0.012,+0.028,-0.047,+100774.74
173504,+8.552,+2.906,+1.415,-0.009,+0.029,-0.044,+100774.63
173514,+8.554,+2.920,+1.463,-0.005,+0.028,-0.042,+100770.37
173523,+8.577,+2.918,+1.472,-0.005,+0.028,-0.040,+100770.37
173534,+8.558,+2.917,+1.472,-0.007,+0.027,-0.037,+100773.34
173544,+8.553,+2.895,+1.477,-0.010,+0.025,-0.036,+100773.34
173554,+8.541,+2.941,+1.495,-0.012,+0.022,-0.034,+100773.59
173564,+8.568,+2.932,+1.459,-0.011,+0.021,-0.030,+100771.29
173574,+8.547,+2.895,+1.426,-0.008,+0.022,-0.028,+100771.29
173584,+8.564,+2.907,+1.386,-0.010,+0.023,-0.026,+100773.49
173594,+8.542,+2.893,+1.399,-0.012,+0.025,-0.025,+100771.91
173604,+8.549,+2.892,+1.420,-0.008,+0.027,-0.024,+100775.93
173615,+8.532,+2.929,+1.484,-0.003,+0.028,-0.024,+100772.32
173624,+8.550,+2.882,+1.491,-0.001,+0.027,-0.024,+100772.32
173634,+8.529,+2.955,+1.515,+0.000,+0.026,-0.026,+100772.97
173644,+8.567,+2.956,+1.565,-0.008,+0.023,-0.027,+100775.63
173655,+8.542,+2.912,+1.527,-0.021,+0.017,-0.030,+100773.03
173664,+8.583,+2.939,+1.448,-0.037,+0.018,-0.034,+100770.17
173674,+8.547,+2.985,+1.425,-0.039,+0.018,-0.033,+100770.17
173684,+8.532,+3.053,+1.405,-0.037,+0.021,-0.027,+100773.43
173694,+8.531,+3.051,+1.360,-0.026,+0.025,-0.018,+100773.95
173704,+8.548,+2.960,+1.448,-0.020,+0.027,-0.008,+100774.45
173714,+8.550,+2.933,+1.502,-0.016,+0.026,-0.006,+100771.09
173724,+8.559,+2.921,+1.506,-0.021,+0.025,-0.007,+100771.09
173734,+8.568,+2.936,+1.529,-0.026,+0.022,-0.007,+100777.54
173745,+8.532,+2.929,+1.508,-0.029,+0.021,-0.008,+100773.41
173754,+8.516,+2.977,+1.496,-0.031,+0.023,-0.006,+100774.07
173764,+8.535,+2.984,+1.423,-0.027,+0.027,-0.001,+100773.30
173774,+8.524,+2.986,+1.371,-0.020,+0.033,+0.006,+100773.30
173785,+8.544,+2.971,+1.408,-0.009,+0.039,+0.013,+100776.07
173794,+8.550,+2.935,+1.471,-0.003,+0.041,+0.019,+100774.18
173804,+8.560,+2.911,+1.510,-0.001,+0.042,+0.022,+100772.76
173814,+8.548,+2.926,+1.517,-0.003,+0.041,+0.023,+100773.32
173825,+8.534,+2.917,+1.621,-0.005,+0.038,+0.024,+100773.32
173835,+8.532,+2.924,+1.557,-0.010,+0.033,+0.027,+100776.77
173844,+8.519,+2.956,+1.491,-0.012,+0.031,+0.031,+100774.49
173854,+8.546,+2.923,+1.468,-0.012,+0.033,+0.034,+100772.96
173864,+8.550,+2.875,+1.467,-0.012,+0.034,+0.034,+100774.74
173875,+8.536,+2.875,+1.503,-0.011,+0.037,+0.033,+100774.74
173885,+8.525,+2.878,+1.461,-0.008,+0.041,+0.032,+100773.96
173894,+8.515,+2.900,+1.516,-0.004,+0.043,+0.033,+100772.95
173904,+8.519,+2.918,+1.554,-0.003,+0.044,+0.034,+100771.73
173915,+8.540,+2.901,+1.572,-0.001,+0.045,+0.036,+100770.20
173925,+8.547,+2.927,+1.578,-0.005,+0.043,+0.039,+100770.20
173934,+8.555,+2.966,+1.594,-0.009,+0.040,+0.042,+100775.54
173944,+8.567,+2.967,+1.536,-0.015,+0.039,+0.047,+100772.45
173955,+8.570,+2.953,+1.459,-0.020,+0.039,+0.055,+100773.30
173965,+8.577,+2.961,+1.506,-0.018,+0.042,+0.062,+100774.88
173974,+8.590,+2.955,+1.603,-0.013,+0.042,+0.067,+100774.88
173984,+8.602,+2.864,+1.668,-0.013,+0.039,+0.072,+100774.34
173995,+8.549,+2.845,+1.607,-0.018,+0.037,+0.073,+100774.38
174005,+8.574,+2.862,+1.627,-0.022,+0.036,+0.073,+100772.80
174015,+8.571,+2.833,+1.636,-0.025,+0.033,+0.073,+100770.16
174024,+8.560,+2.785,+1.614,-0.026,+0.031,+0.073,+100770.16
174034,+8.553,+2.781,+1.601,-0.026,+0.030,+0.073,+100778.39
174045,+8.531,+2.820,+1.606,-0.027,+0.029,+0.073,+100774.69
174055,+8.540,+2.803,+1.602,-0.031,+0.029,+0.075,+100772.14
174065,+8.549,+2.787,+1.575,-0.029,+0.028,+0.075,+100776.81
174074,+8.559,+2.769,+1.642,-0.033,+0.027,+0.075,+100776.81
174085,+8.592,+2.717,+1.593,-0.031,+0.026,+0.072,+100776.17
174095,+8.598,+2.681,+1.621,-0.032,+0.025,+0.067,+100771.33
174105,+8.598,+2.680,+1.659,-0.035,+0.024,+0.059,+100772.20
174114,+8.566,+2.698,+1.639,-0.040,+0.022,+0.052,+100774.80
174125,+8.559,+2.741,+1.601,-0.041,+0.021,+0.049,+100774.80
174135,+8.561,+2.755,+1.600,-0.038,+0.022,+0.048,+100775.30
174145,+8.570,+2.757,+1.623,-0.036,+0.022,+0.048,+100775.26
174155,+8.567,+2.817,+1.661,-0.037,+0.023,+0.050,+100774.70
174164,+8.602,+2.826,+1.655,-0.036,+0.023,+0.056,+100771.18
174175,+8.600,+2.774,+1.647,-0.031,+0.022,+0.060,+100771.18
174185,+8.597,+2.719,+1.693,-0.032,+0.022,+0.062,+100775.37
174195,+8.611,+2.698,+1.717,-0.035,+0.020,+0.060,+100773.59
174204,+8.598,+2.711,+1.693,-0.036,+0.018,+0.058,+100773.38
174215,+8.634,+2.729,+1.724,-0.041,+0.017,+0.057,+100773.18
174225,+8.610,+2.699,+1.636,-0.048,+0.016,+0.057,+100773.18
174235,+8.611,+2.720,+1.656,-0.050,+0.014,+0.058,+100775.38
174245,+8.584,+2.739,+1.684,-0.050,+0.013,+0.062,+100773.24
174255,+8.595,+2.706,+1.711,-0.050,+0.011,+0.067,+100773.65
174265,+8.566,+2.674,+1.772,-0.047,+0.008,+0.066,+100773.20
174275,+8.584,+2.658,+1.736,-0.053,+0.004,+0.065,+100773.20
174285,+8.594,+2.606,+1.612,-0.059,+0.001,+0.063,+100773.28
174295,+8.607,+2.607,+1.618,-0.055,-0.001,+0.060,+100772.11
174305,+8.608,+2.655,+1.649,-0.049,-0.002,+0.057,+100772.83
174315,+8.590,+2.650,+1.625,-0.045,-0.003,+0.057,+100772.22
174325,+8.586,+2.650,+1.631,-0.039,-0.002,+0.059,+100772.22
174336,+8.560,+2.650,+1.694,-0.030,+0.000,+0.060,+100775.77
174345,+8.580,+2.616,+1.681,-0.023,+0.001,+0.064,+100773.73
174355,+8.584,+2.632,+1.685,-0.018,+0.001,+0.066,+100774.39
174365,+8.610,+2.609,+1.687,-0.016,-0.002,+0.068,+100774.75
174375,+8.631,+2.598,+1.708,-0.016,-0.005,+0.069,+100774.75
174385,+8.646,+2.580,+1.709,-0.016,-0.010,+0.069,+100774.89
174395,+8.600,+2.591,+1.680,-0.019,-0.013,+0.069,+100775.66
174405,+8.602,+2.589,+1.637,-0.023,-0.013,+0.070,+100774.59
174415,+8.614,+2.584,+1.631,-0.019,-0.013,+0.072,+100770.31
174426,+8.652,+2.547,+1.591,-0.015,-0.011,+0.074,+100770.31
174435,+8.617,+2.511,+1.682,-0.012,-0.009,+0.073,+100772.81
174445,+8.607,+2.456,+1.681,-0.011,-0.009,+0.068,+100773.33
174455,+8.611,+2.453,+1.679,-0.017,-0.011,+0.063,+100773.69
174466,+8.592,+2.474,+1.711,-0.021,-0.012,+0.055,+100773.83
174475,+8.578,+2.440,+1.687,-0.022,-0.012,+0.049,+100773.83
174485,+8.579,+2.487,+1.629,-0.022,-0.012,+0.045,+100775.84
174495,+8.591,+2.496,+1.633,-0.017,-0.011,+0.043,+100772.79
174505,+8.607,+2.528,+1.621,-0.015,-0.007,+0.043,+100773.74
174516,+8.623,+2.473,+1.590,-0.010,-0.005,+0.043,+100770.54
174525,+8.632,+2.468,+1.595,-0.004,-0.003,+0.042,+100770.54
174535,+8.645,+2.468,+1.605,-0.003,-0.001,+0.040,+100772.65
174545,+8.632,+2.495,+1.664,-0.003,-0.002,+0.038,+100774.18
174556,+8.645,+2.514,+1.682,-0.004,-0.002,+0.035,+100773.41
174566,+8.639,+2.449,+1.666,-0.005,-0.000,+0.032,+100771.77
174575,+8.629,+2.428,+1.663,-0.005,+0.000,+0.029,+100771.77
174585,+8.620,+2.421,+1.703,-0.005,+0.001,+0.023,+100775.80
174596,+8.622,+2.413,+1.659,-0.006,+0.000,+0.018,+100772.09
174606,+8.608,+2.443,+1.684,-0.005,-0.000,+0.014,+100773.61
174615,+8.615,+2.451,+1.630,-0.005,+0.001,+0.009,+100771.58
174625,+8.632,+2.434,+1.650,-0.008,+0.000,+0.003,+100771.58
174636,+8.616,+2.429,+1.647,-0.006,-0.000,-0.002,+100776.37
174646,+8.650,+2.438,+1.632,-0.003,+0.000,-0.006,+100775.04
174655,+8.613,+2.461,+1.664,-0.001,+0.000,-0.009,+100773.77
174665,+8.629,+2.482,+1.682,-0.002,+0.001,-0.011,+100772.80
174675,+8.647,+2.485,+1.694,-0.001,-0.001,-0.013,+100772.80
174686,+8.647,+2.493,+1.674,-0.004,-0.001,-0.015,+100773.77
174696,+8.637,+2.456,+1.635,-0.005,-0.003,-0.015,+100774.83
174705,+8.645,+2.481,+1.662,-0.006,-0.004,-0.018,+100772.50
174715,+8.617,+2.514,+1.659,-0.005,-0.004,-0.018,+100771.73
174726,+8.643,+2.541,+1.649,-0.003,-0.001,-0.016,+100771.73
174736,+8.651,+2.488,+1.664,-0.001,-0.000,-0.011,+100774.84
174745,+8.623,+2.489,+1.672,+0.001,+0.001,-0.010,+100771.12
174755,+8.640,+2.479,+1.637,-0.003,-0.001,-0.011,+100773.91
174766,+8.663,+2.471,+1.663,-0.006,-0.002,-0.013,+100773.55
174776,+8.640,+2.498,+1.655,-0.007,-0.002,-0.015,+100773.55
174786,+8.627,+2.470,+1.662,-0.007,-0.004,-0.017,+100775.32
174795,+8.621,+2.495,+1.624,-0.003,-0.005,-0.019,+100774.24
174806,+8.627,+2.499,+1.636,+0.000,-0.003,-0.019,+100775.77
174816,+8.622,+2.538,+1.641,+0.000,-0.003,-0.019,+100772.98
174826,+8.619,+2.552,+1.635,+0.003,-0.002,-0.017,+100772.98
174836,+8.655,+2.538,+1.650,+0.002,-0.001,-0.014,+100773.53
174845,+8.646,+2.538,+1.611,+0.002,-0.001,-0.011,+100772.83
174856,+8.641,+2.536,+1.651,+0.002,+0.000,-0.012,+100773.38
174866,+8.596,+2.554,+1.686,+0.002,+0.002,-0.011,+100772.88
174876,+8.628,+2.534,+1.661,-0.000,-0.000,-0.009,+100772.88
174885,+8.623,+2.535,+1.648,+0.000,-0.002,-0.007,+100774.59
174896,+8.650,+2.530,+1.678,+0.000,-0.002,-0.003,+100772.96
174906,+8.610,+2.528,+1.669,+0.002,-0.004,-0.001,+100772.45
174916,+8.615,+2.534,+1.663,+0.001,-0.003,+0.001,+100771.88
174925,+8.601,+2.530,+1.614,+0.000,-0.003,+0.003,+100771.88
174936,+8.627,+2.529,+1.614,+0.001,-0.001,+0.004,+100773.66
174946,+8.609,+2.559,+1.657,+0.001,+0.001,+0.005,+100773.71
174956,+8.621,+2.523,+1.666,+0.001,+0.002,+0.006,+100772.85
174966,+8.609,+2.512,+1.655,-0.000,+0.002,+0.007,+100772.38
174976,+8.607,+2.546,+1.635,+0.001,+0.003,+0.008,+100772.38
174986,+8.631,+2.568,+1.702,-0.001,+0.005,+0.008,+100773.05
174996,+8.673,+2.519,+1.678,-0.005,+0.003,+0.009,+100774.58
175006,+8.655,+2.519,+1.656,-0.009,+0.004,+0.009,+100774.22
175016,+8.657,+2.554,+1.657,-0.007,+0.005,+0.012,+100773.56
175026,+8.628,+2.536,+1.647,-0.004,+0.008,+0.017,+100773.56
175036,+8.625,+2.511,+1.642,-0.006,+0.009,+0.020,+100776.24
175046,+8.640,+2.558,+1.630,-0.006,+0.010,+0.022,+100771.60
175056,+8.652,+2.561,+1.660,-0.008,+0.011,+0.026,+100772.93
175066,+8.667,+2.519,+1.710,-0.008,+0.009,+0.030,+100773.23
175076,+8.635,+2.513,+1.675,-0.012,+0.007,+0.033,+100773.23
175086,+8.598,+2.523,+1.641,-0.014,+0.007,+0.035,+100774.95
175096,+8.625,+2.475,+1.694,-0.016,+0.009,+0.036,+100775.97
175107,+8.651,+2.474,+1.654,-0.015,+0.009,+0.035,+100772.61
175116,+8.668,+2.481,+1.711,-0.016,+0.011,+0.033,+100777.34
175126,+8.649,+2.455,+1.664,-0.014,+0.011,+0.032,+100777.34
175136,+8.607,+2.489,+1.727,-0.016,+0.010,+0.028,+100775.16
175147,+8.632,+2.459,+1.702,-0.018,+0.010,+0.026,+100772.73
175156,+8.643,+2.415,+1.582,-0.019,+0.010,+0.027,+100772.37
175166,+8.653,+2.452,+1.624,-0.012,+0.011,+0.025,+100772.52
175176,+8.659,+2.477,+1.669,-0.009,+0.014,+0.022,+100772.52
175186,+8.647,+2.421,+1.704,-0.008,+0.013,+0.020,+100775.10
175196,+8.641,+2.440,+1.697,-0.008,+0.013,+0.018,+100772.55
175206,+8.622,+2.426,+1.672,-0.010,+0.011,+0.016,+100772.62
175216,+8.616,+2.428,+1.693,-0.012,+0.010,+0.015,+100773.48
175226,+8.671,+2.409,+1.696,-0.013,+0.007,+0.015,+100773.48
175237,+8.641,+2.445,+1.682,-0.014,+0.006,+0.014,+100774.95
175246,+8.621,+2.453,+1.686,-0.013,+0.006,+0.016,+100773.05
175256,+8.602,+2.417,+1.672,-0.010,+0.004,+0.017,+100775.24
175266,+8.602,+2.402,+1.703,-0.009,+0.004,+0.017,+100772.96
175277,+8.610,+2.384,+1.681,-0.007,+0.004,+0.017,+100772.96
175287,+8.621,+2.372,+1.717,-0.008,+0.002,+0.016,+100772.73
175296,+8.616,+2.401,+1.724,-0.008,+0.001,+0.012,+100773.95
175306,+8.634,+2.401,+1.744,-0.009,+0.000,+0.010,+100770.38
175316,+8.637,+2.358,+1.649,-0.008,-0.001,+0.007,+100771.40
175327,+8.655,+2.404,+1.657,-0.006,-0.002,+0.002,+100771.40
175336,+8.662,+2.425,+1.664,-0.007,+0.001,-0.001,+100775.04
175346,+8.633,+2.432,+1.670,-0.004,+0.002,-0.003,+100773.01
175356,+8.601,+2.446,+1.659,-0.000,+0.003,-0.003,+100771.32
175367,+8.644,+2.427,+1.690,+0.001,+0.004,-0.003,+100772.70
175376,+8.650,+2.419,+1.718,+0.002,+0.003,-0.005,+100772.70
175386,+8.676,+2.465,+1.656,-0.001,+0.003,-0.005,+100776.06
175396,+8.637,+2.444,+1.676,-0.003,+0.002,-0.003,+100775.09
175407,+8.644,+2.425,+1.664,-0.004,+0.003,-0.003,+100774.28
175417,+8.659,+2.434,+1.668,-0.006,+0.003,-0.003,+100773.56
175426,+8.652,+2.475,+1.672,-0.008,+0.003,-0.001,+100773.56
175436,+8.643,+2.492,+1.664,-0.005,+0.005,+0.005,+100775.23
175447,+8.653,+2.465,+1.736,-0.003,+0.005,+0.006,+100772.80
175457,+8.671,+2.443,+1.696,-0.004,+0.005,+0.007,+100774.58
175467,+8.650,+2.437,+1.692,-0.008,+0.004,+0.006,+100771.92
175476,+8.632,+2.425,+1.693,-0.011,+0.003,+0.006,+100771.92
175486,+8.634,+2.434,+1.674,-0.009,+0.003,+0.006,+100774.51
175497,+8.649,+2.441,+1.675,-0.009,+0.003,+0.007,+100772.73
175507,+8.653,+2.461,+1.691,-0.009,+0.004,+0.008,+100772.66
175516,+8.651,+2.467,+1.718,-0.007,+0.005,+0.009,+100773.59
175526,+8.657,+2.423,+1.716,-0.006,+0.003,+0.010,+100773.59
175537,+8.653,+2.406,+1.688,-0.008,+0.002,+0.009,+100774.80
175547,+8.627,+2.402,+1.730,-0.010,+0.001,+0.008,+100775.25
175557,+8.622,+2.392,+1.674,-0.010,+0.001,+0.007,+100773.98
175566,+8.627,+2.395,+1.739,-0.010,+0.002,+0.005,+100774.44
175577,+8.619,+2.415,+1.718,-0.009,+0.000,+0.003,+100774.44
175587,+8.613,+2.411,+1.691,-0.008,-0.000,+0.003,+100773.85
175597,+8.634,+2.434,+1.741,-0.007,+0.001,+0.005,+100774.21
175606,+8.631,+2.401,+1.728,-0.005,-0.002,+0.006,+100774.01
175617,+8.643,+2.396,+1.681,-0.006,-0.003,+0.003,+100773.24
175627,+8.647,+2.350,+1.691,-0.007,-0.003,-0.000,+100773.24
175637,+8.653,+2.362,+1.636,-0.007,-0.004,-0.004,+100773.79
175647,+8.640,+2.421,+1.639,-0.006,-0.002,-0.007,+100775.07
175656,+8.680,+2.441,+1.678,-0.003,-0.001,-0.007,+100773.09
175667,+8.647,+2.427,+1.659,-0.001,-0.001,-0.007,+100771.45
175677,+8.651,+2.457,+1.691,+0.001,+0.000,-0.005,+100771.45
175687,+8.644,+2.445,+1.706,-0.001,+0.001,-0.003,+100774.86
175696,+8.634,+2.459,+1.697,-0.004,-0.001,-0.002,+100773.59
175707,+8.639,+2.499,+1.712,-0.005,+0.000,+0.001,+100771.09
175717,+8.662,+2.456,+1.676,-0.005,+0.001,+0.005,+100770.58
175727,+8.671,+2.431,+1.686,-0.003,+0.002,+0.008,+100770.58
175737,+8.651,+2.440,+1.670,+0.001,+0.004,+0.008,+100772.41
175747,+8.656,+2.445,+1.726,+0.001,+0.004,+0.009,+100776.29
175757,+8.629,+2.422,+1.709,+0.001,+0.003,+0.010,+100773.23
175767,+8.645,+2.423,+1.699,-0.001,+0.003,+0.011,+100771.71
175777,+8.633,+2.433,+1.686,+0.000,+0.003,+0.009,+100771.71
175787,+8.646,+2.406,+1.687,-0.003,+0.003,+0.010,+100772.73
175797,+8.631,+2.400,+1.704,-0.002,+0.001,+0.011,+100772.13
175807,+8.627,+2.420,+1.717,-0.003,+0.001,+0.011,+100774.06
175817,+8.649,+2.426,+1.667,-0.003,+0.001,+0.010,+100773.41
175827,+8.649,+2.372,+1.684,-0.001,+0.003,+0.010,+100773.41
175837,+8.663,+2.377,+1.697,-0.003,+0.003,+0.009,+100774.89
175847,+8.652,+2.386,+1.728,-0.003,+0.001,+0.006,+100772.19
175857,+8.646,+2.349,+1.718,-0.005,+0.001,+0.002,+100773.16
175867,+8.664,+2.376,+1.715,-0.007,+0.001,-0.001,+100771.22
175877,+8.650,+2.428,+1.710,-0.008,+0.000,-0.001,+100771.22
175887,+8.643,+2.394,+1.693,-0.008,+0.001,-0.002,+100774.07
175897,+8.631,+2.406,+1.716,-0.008,+0.001,-0.002,+100773.52
175907,+8.653,+2.425,+1.710,-0.008,+0.000,-0.000,+100773.21
175918,+8.635,+2.444,+1.729,-0.005,+0.000,+0.001,+100772.60
175927,+8.638,+2.389,+1.709,-0.006,-0.000,+0.001,+100772.60
175937,+8.652,+2.403,+1.684,-0.006,-0.000,-0.001,+100775.45
175947,+8.647,+2.398,+1.666,-0.008,-0.000,-0.002,+100775.86
175958,+8.647,+2.391,+1.684,-0.008,+0.002,-0.003,+100771.64
175968,+8.633,+2.408,+1.712,-0.008,+0.001,-0.003,+100771.64
175977,+8.647,+2.411,+1.705,-0.007,+0.000,-0.002,+100771.64
175987,+8.647,+2.439,+1.674,-0.003,+0.000,+0.001,+100778.19
175997,+8.633,+2.446,+1.685,-0.002,+0.002,+0.003,+100771.83
176008,+8.656,+2.426,+1.736,+0.001,+0.001,+0.006,+100769.69
176017,+8.661,+2.396,+1.710,-0.001,+0.001,+0.006,+100772.73
176027,+8.646,+2.392,+1.734,-0.004,+0.001,+0.004,+100772.73
176037,+8.652,+2.386,+1.715,-0.005,-0.001,+0.001,+100774.64
176048,+8.657,+2.408,+1.710,-0.006,-0.002,-0.000,+100773.06
176058,+8.657,+2.397,+1.703,-0.007,-0.000,-0.001,+100775.00
176067,+8.637,+2.392,+1.680,-0.006,-0.002,-0.001,+100772.66
176077,+8.641,+2.413,+1.676,-0.005,-0.002,-0.001,+100772.66
176088,+8.644,+2.401,+1.718,-0.004,-0.002,-0.002,+100774.75
176098,+8.644,+2.397,+1.714,-0.006,-0.002,-0.002,+100773.03
176107,+8.633,+2.403,+1.690,-0.006,-0.003,-0.002,+100774.61
176117,+8.638,+2.413,+1.706,-0.006,-0.002,-0.002,+100771.55
176128,+8.652,+2.407,+1.688,-0.004,-0.002,-0.001,+100771.55
176138,+8.645,+2.373,+1.711,-0.004,-0.003,-0.000,+100773.19
176147,+8.622,+2.413,+1.682,-0.003,-0.002,-0.001,+100774.41
176157,+8.625,+2.398,+1.710,-0.003,-0.002,-0.003,+100772.22
176167,+8.649,+2.348,+1.659,-0.001,-0.001,-0.005,+100771.30
176178,+8.628,+2.417,+1.706,+0.001,+0.000,-0.005,+100771.30
176188,+8.657,+2.435,+1.772,+0.001,+0.002,-0.006,+100772.13
176197,+8.647,+2.414,+1.709,+0.002,+0.000,-0.006,+100774.21
176207,+8.662,+2.434,+1.675,+0.001,+0.002,-0.006,+100771.62
176218,+8.646,+2.439,+1.740,+0.002,+0.001,-0.005,+100772.90
176228,+8.641,+2.391,+1.668,-0.001,+0.001,-0.006,+100772.90
176238,+8.651,+2.407,+1.672,-0.002,+0.002,-0.005,+100773.91
176247,+8.680,+2.408,+1.721,-0.001,+0.003,-0.006,+100772.94
176258,+8.661,+2.413,+1.734,-0.001,+0.003,-0.007,+100772.13
176268,+8.655,+2.410,+1.678,-0.002,+0.003,-0.008,+100771.41
176278,+8.656,+2.384,+1.702,-0.001,+0.003,-0.008,+100771.41
176287,+8.651,+2.370,+1.667,+0.001,+0.005,-0.010,+100777.07
176297,+8.637,+2.407,+1.744,+0.002,+0.005,-0.012,+100775.70
176308,+8.621,+2.393,+1.740,+0.002,+0.005,-0.014,+100773.35
176318,+8.619,+2.392,+1.703,+0.001,+0.005,-0.016,+100773.87
176327,+8.625,+2.395,+1.680,+0.005,+0.006,-0.016,+100773.87
176337,+8.622,+2.421,+1.687,+0.009,+0.007,-0.016,+100773.39
176348,+8.605,+2.419,+1.684,+0.015,+0.010,-0.014,+100775.84
176358,+8.617,+2.426,+1.739,+0.020,+0.012,-0.012,+100772.58
176368,+8.616,+2.432,+1.784,+0.020,+0.011,-0.013,+100772.17
176377,+8.671,+2.403,+1.692,+0.012,+0.010,-0.018,+100772.17
176388,+8.650,+2.416,+1.705,+0.008,+0.009,-0.022,+100774.17
176398,+8.682,+2.433,+1.637,+0.010,+0.009,-0.023,+100775.95
176408,+8.646,+2.445,+1.696,+0.014,+0.010,-0.023,+100772.45
176418,+8.644,+2.437,+1.645,+0.019,+0.011,-0.020,+100772.09
176428,+8.640,+2.435,+1.638,+0.024,+0.014,-0.018,+100772.09
176438,+8.632,+2.386,+1.597,+0.032,+0.016,-0.019,+100775.25
176448,+8.619,+2.311,+1.654,+0.043,+0.018,-0.022,+100773.58
176458,+8.564,+2.262,+1.650,+0.056,+0.018,-0.027,+100773.42
176467,+8.525,+2.230,+1.735,+0.071,+0.017,-0.035,+100773.06
176478,+8.512,+2.152,+1.784,+0.079,+0.010,-0.043,+100773.06
176488,+8.471,+2.220,+1.757,+0.083,+0.004,-0.055,+100777.66
176498,+8.497,+2.340,+1.726,+0.081,+0.003,-0.064,+100776.63
176508,+8.603,+2.504,+1.693,+0.077,+0.005,-0.063,+100771.48
176518,+8.661,+2.543,+1.597,+0.074,+0.009,-0.053,+100774.30
176528,+8.682,+2.614,+1.437,+0.074,+0.016,-0.039,+100774.30
176538,+8.688,+2.757,+1.524,+0.086,+0.031,-0.027,+100771.98
176548,+8.718,+2.814,+1.644,+0.096,+0.042,-0.009,+100772.80
176558,+8.730,+2.755,+1.682,+0.098,+0.047,+0.008,+100773.77
176568,+8.717,+2.769,+1.772,+0.093,+0.054,+0.020,+100773.56
176578,+8.754,+2.629,+1.818,+0.078,+0.057,+0.030,+100773.56
176588,+8.706,+2.548,+1.747,+0.063,+0.052,+0.037,+100775.73
176599,+8.595,+2.652,+1.765,+0.049,+0.053,+0.043,+100773.48
176608,+8.590,+2.664,+1.742,+0.040,+0.057,+0.053,+100774.81
176618,+8.617,+2.615,+1.688,+0.041,+0.058,+0.071,+100773.23
176628,+8.605,+2.570,+1.669,+0.046,+0.060,+0.084,+100773.23
176638,+8.621,+2.493,+1.637,+0.047,+0.064,+0.096,+100773.90
176648,+8.582,+2.500,+1.639,+0.044,+0.068,+0.101,+100773.74
176658,+8.600,+2.513,+1.742,+0.037,+0.073,+0.106,+100772.16
176668,+8.626,+2.417,+1.755,+0.033,+0.070,+0.109,+100771.35
176678,+8.633,+2.388,+1.771,+0.027,+0.070,+0.110,+100771.35
176689,+8.619,+2.385,+1.794,+0.024,+0.070,+0.110,+100774.94
176698,+8.598,+2.463,+1.757,+0.024,+0.069,+0.112,+100776.36
176708,+8.564,+2.586,+1.789,+0.027,+0.079,+0.116,+100774.08
176718,+8.695,+2.482,+1.746,+0.036,+0.085,+0.128,+100772.25
176729,+8.674,+2.404,+1.659,+0.045,+0.085,+0.141,+100772.25
176738,+8.669,+2.437,+1.767,+0.054,+0.092,+0.146,+100773.71
176748,+8.673,+2.364,+1.802,+0.050,+0.097,+0.150,+100771.73
176758,+8.635,+2.407,+1.782,+0.046,+0.094,+0.154,+100770.96
176769,+8.638,+2.425,+1.821,+0.035,+0.096,+0.154,+100771.46
176778,+8.681,+2.300,+1.736,+0.028,+0.097,+0.154,+100771.46
176788,+8.694,+2.269,+1.736,+0.026,+0.102,+0.156,+100773.59
176798,+8.635,+2.287,+1.807,+0.030,+0.108,+0.157,+100773.99
176808,+8.611,+2.299,+1.801,+0.033,+0.112,+0.163,+100771.13
176819,+8.604,+2.299,+1.836,+0.040,+0.118,+0.171,+100772.15
176828,+8.646,+2.374,+1.834,+0.046,+0.121,+0.181,+100772.15
176838,+8.681,+2.365,+1.697,+0.048,+0.119,+0.196,+100772.66
176848,+8.665,+2.319,+1.627,+0.049,+0.128,+0.215,+100774.49
176859,+8.705,+2.194,+1.770,+0.050,+0.132,+0.228,+100775.20
176869,+8.683,+2.119,+1.817,+0.042,+0.136,+0.231,+100769.80
176878,+8.639,+2.127,+1.878,+0.025,+0.134,+0.233,+100769.80
176888,+8.673,+2.221,+1.826,-0.003,+0.135,+0.239,+100770.95
176899,+8.669,+2.273,+1.939,-0.014,+0.139,+0.258,+100770.39
176909,+8.705,+2.297,+1.961,-0.001,+0.142,+0.282,+100771.77
176918,+8.661,+2.195,+1.936,+0.021,+0.140,+0.310,+100772.88
176928,+8.617,+1.996,+2.100,+0.028,+0.145,+0.323,+100772.88
176939,+8.596,+1.868,+2.038,+0.010,+0.146,+0.326,+100772.30
176949,+8.615,+1.782,+1.936,-0.009,+0.146,+0.322,+100772.91
176959,+8.670,+1.834,+1.958,-0.014,+0.150,+0.316,+100772.95
176968,+8.637,+1.824,+1.992,-0.013,+0.153,+0.313,+100773.88
176978,+8.641,+1.703,+2.045,-0.001,+0.158,+0.308,+100773.88
176989,+8.619,+1.687,+2.066,+0.008,+0.166,+0.298,+100776.72
176999,+8.686,+1.681,+2.140,+0.020,+0.166,+0.290,+100773.47
177008,+8.767,+1.684,+2.360,+0.035,+0.156,+0.279,+100773.20
177018,+8.847,+1.667,+2.386,+0.034,+0.144,+0.266,+100773.97
177029,+8.947,+1.748,+2.496,+0.013,+0.124,+0.250,+100773.97
177039,+8.928,+1.851,+2.580,-0.018,+0.100,+0.240,+100774.17
177049,+8.906,+1.777,+2.482,-0.048,+0.079,+0.234,+100772.86
177058,+8.837,+1.699,+2.553,-0.069,+0.059,+0.231,+100774.89
177069,+8.773,+1.655,+2.434,-0.087,+0.041,+0.225,+100771.22
177079,+8.774,+1.574,+2.408,-0.107,+0.022,+0.221,+100771.22
177089,+8.791,+1.687,+2.337,-0.129,+0.009,+0.218,+100773.63
177098,+8.816,+1.728,+2.374,-0.142,-0.003,+0.230,+100774.14
177108,+8.829,+1.717,+2.408,-0.143,-0.015,+0.247,+100772.09
177119,+8.868,+1.735,+2.531,-0.157,-0.032,+0.260,+100772.20
177129,+8.920,+1.697,+2.445,-0.181,-0.053,+0.267,+100772.20
177139,+8.893,+1.609,+2.362,-0.207,-0.068,+0.271,+100776.17
177148,+8.829,+1.498,+2.236,-0.219,-0.075,+0.272,+100774.84
177159,+8.835,+1.356,+2.032,-0.217,-0.075,+0.272,+100773.58
177169,+8.802,+1.345,+2.122,-0.207,-0.075,+0.274,+100773.27
177179,+8.807,+1.350,+2.219,-0.199,-0.077,+0.274,+100773.27
177189,+8.924,+1.289,+2.398,-0.195,-0.086,+0.268,+100773.35
177199,+8.901,+1.316,+2.487,-0.208,-0.099,+0.260,+100774.77
177209,+8.892,+1.293,+2.394,-0.232,-0.108,+0.256,+100772.02
177219,+8.829,+1.328,+2.298,-0.253,-0.117,+0.260,+100771.77
177229,+8.816,+1.402,+2.201,-0.266,-0.121,+0.275,+100771.77
177239,+8.827,+1.420,+2.103,-0.259,-0.124,+0.297,+100774.73
177249,+8.837,+1.407,+2.170,-0.239,-0.127,+0.323,+100773.04
177259,+8.868,+1.398,+2.194,-0.212,-0.137,+0.349,+100774.07
177269,+8.907,+1.262,+2.295,-0.198,-0.145,+0.370,+100772.54
177278,+8.936,+1.181,+2.240,-0.199,-0.143,+0.383,+100772.54
177289,+8.981,+1.145,+2.121,-0.212,-0.143,+0.389,+100774.74
177299,+8.975,+1.146,+1.856,-0.220,-0.135,+0.396,+100773.32
177309,+9.078,+1.073,+1.784,-0.211,-0.123,+0.406,+100774.74
177319,+9.105,+1.042,+1.928,-0.203,-0.122,+0.423,+100773.37
177329,+9.078,+0.947,+1.971,-0.206,-0.118,+0.437,+100773.37
177339,+9.139,+1.025,+1.814,-0.212,-0.122,+0.445,+100772.41
177349,+9.248,+1.011,+1.764,-0.223,-0.133,+0.456,+100773.27
177359,+9.317,+1.079,+1.793,-0.222,-0.133,+0.473,+100774.53
177370,+9.356,+1.098,+1.823,-0.220,-0.132,+0.495,+100769.75
177379,+9.327,+1.007,+1.696,-0.224,-0.128,+0.525,+100769.75
177389,+9.260,+0.993,+1.668,-0.227,-0.122,+0.552,+100774.41
177399,+9.226,+1.005,+1.714,-0.215,-0.128,+0.581,+100773.85
177410,+9.291,+0.908,+1.805,-0.208,-0.132,+0.612,+100774.52
177419,+9.330,+0.844,+1.896,-0.201,-0.143,+0.643,+100772.34
177429,+9.367,+0.811,+2.010,-0.200,-0.153,+0.672,+100772.34
177439,+9.323,+0.754,+1.997,-0.208,-0.159,+0.700,+100772.66
177449,+9.390,+0.811,+1.988,-0.224,-0.170,+0.725,+100771.13
177460,+9.490,+0.865,+1.981,-0.224,-0.178,+0.756,+100770.97
177469,+9.601,+0.795,+1.899,-0.228,-0.179,+0.791,+100770.77
177479,+9.751,+0.758,+1.748,-0.240,-0.179,+0.826,+100770.77
177489,+9.813,+0.865,+1.544,-0.257,-0.182,+0.863,+100776.96
177500,+9.816,+1.068,+1.384,-0.258,-0.182,+0.910,+100771.62
177509,+9.797,+1.200,+1.333,-0.247,-0.180,+0.980,+100775.32
177519,+9.919,+1.257,+1.285,-0.229,-0.176,+1.064,+100770.65
177529,+10.017,+1.486,+1.292,-0.198,-0.174,+1.147,+100770.65
177540,+10.291,+1.825,+1.516,-0.164,-0.171,+1.235,+100774.99
177550,+10.645,+2.088,+1.769,-0.125,-0.176,+1.320,+100775.10
177559,+10.978,+2.356,+1.875,-0.106,-0.176,+1.410,+100771.88
177569,+11.397,+2.577,+1.839,-0.115,-0.173,+1.501,+100772.65
177580,+11.840,+2.957,+1.569,-0.141,-0.169,+1.598,+100772.65
177590,+12.126,+3.611,+1.325,-0.155,-0.158,+1.710,+100774.57
177599,+12.641,+4.456,+1.356,-0.149,-0.147,+1.815,+100774.02
177609,+13.475,+5.043,+1.554,-0.162,-0.140,+1.914,+100771.01
177619,+14.513,+5.079,+1.562,-0.278,-0.195,+2.012,+100774.07
177630,+15.107,+5.526,+1.814,-0.505,-0.332,+2.089,+100774.07
177640,+14.426,+6.407,+3.297,-0.834,-0.468,+2.169,+100771.70
177649,+12.963,+7.186,+3.829,-1.123,-0.527,+2.326,+100772.46
177659,+11.731,+7.388,+4.546,-1.200,-0.473,+2.486,+100770.32
177670,+12.011,+5.723,+3.184,-0.843,-0.294,+2.763,+100771.70
177680,+14.298,+1.676,+0.630,-0.299,-0.303,+3.224,+100771.70
177689,+15.003,-0.495,+2.210,+0.293,-0.304,+3.524,+100773.66
177699,+13.556,-0.228,+4.542,+0.565,-0.235,+3.398,+100772.44
177710,+11.778,-0.175,+5.818,+0.669,-0.048,+3.253,+100771.58
177720,+9.999,+0.062,+5.755,+0.811,+0.172,+3.082,+100771.22
177729,+8.043,-0.102,+5.244,+0.960,+0.294,+2.832,+100771.22
177739,+6.058,-0.344,+3.765,+1.016,+0.183,+2.453,+100770.97
177750,+3.875,+0.840,+2.264,+0.961,-0.072,+1.775,+100773.27
177760,+3.495,+0.402,+2.300,+0.543,-0.237,+1.141,+100770.97
177770,+3.881,+2.955,+2.694,+0.278,-0.148,+0.691,+100771.38
177779,+3.270,+4.892,+2.172,+0.196,-0.219,+0.202,+100771.38
177789,+2.244,+4.020,+1.599,+0.137,-0.314,-0.123,+100768.88
177800,+1.921,+2.668,+1.393,+0.214,-0.298,-0.392,+100771.07
177810,+2.250,+1.654,+1.896,+0.341,-0.235,-0.685,+100767.91
177820,+2.869,+1.456,+2.446,+0.456,-0.172,-1.033,+100768.07
177829,+3.296,+1.665,+2.579,+0.590,-0.128,-1.433,+100768.07
177840,+3.483,+1.796,+2.269,+0.716,-0.112,-1.839,+100769.88
177850,+3.543,+1.744,+1.843,+0.802,-0.107,-2.229,+100771.20
177860,+3.551,+1.444,+1.613,+0.828,-0.100,-2.576,+100768.34
177869,+3.882,+1.017,+1.593,+0.809,-0.097,-2.863,+100768.61
177880,+4.389,+0.970,+1.697,+0.751,-0.113,-3.127,+100768.61
177890,+5.024,+1.304,+1.843,+0.685,-0.125,-3.417,+100770.55
177900,+5.480,+1.996,+1.849,+0.651,-0.122,-3.727,+100771.41
177910,+5.937,+2.544,+1.474,+0.648,-0.100,-4.025,+100768.05
177920,+6.455,+2.613,+1.110,+0.650,-0.087,-4.275,+100770.80
177930,+6.883,+2.400,+0.897,+0.624,-0.079,-4.483,+100770.80
177940,+7.293,+2.439,+0.856,+0.588,-0.066,-4.688,+100769.19
177950,+7.906,+2.567,+0.864,+0.546,-0.057,-4.907,+100768.33
177959,+8.795,+2.983,+0.749,+0.506,-0.036,-5.138,+100768.67
177970,+9.664,+3.645,+0.600,+0.481,-0.009,-5.350,+100767.97
177980,+10.751,+4.024,+0.403,+0.516,+0.027,-5.528,+100767.97
177990,+11.919,+4.301,+0.459,+0.583,+0.083,-5.693,+100771.72
178000,+13.104,+4.487,+0.621,+0.670,+0.130,-5.851,+100771.36
178011,+14.543,+4.472,+0.858,+0.763,+0.165,-6.003,+100769.89
178020,+16.048,+4.223,+1.315,+0.848,+0.215,-6.084,+100767.95
178030,+17.615,+3.526,+2.122,+0.934,+0.269,-6.085,+100767.95
178040,+19.045,+1.903,+3.142,+0.948,+0.283,-5.961,+100771.91
178050,+20.241,-0.276,+4.536,+0.814,+0.211,-5.661,+100773.08
178060,+20.847,-2.566,+5.917,+0.628,+0.103,-5.232,+100770.78
178070,+21.039,-5.013,+6.120,+0.472,-0.019,-4.728,+100769.16
178080,+20.828,-7.784,+5.310,+0.352,-0.054,-4.144,+100769.16
178091,+19.911,-10.445,+4.485,+0.200,-0.055,-3.510,+100774.29
178100,+18.516,-11.638,+3.884,+0.042,-0.053,-2.957,+100771.74
178110,+16.789,-11.648,+3.333,-0.014,-0.009,-2.284,+100774.34
178120,+15.314,-11.988,+2.346,+0.004,+0.021,-1.598,+100772.26
178130,+14.919,-13.200,+1.685,-0.059,+0.008,-0.792,+100772.26
178140,+15.449,-13.362,+1.521,-0.182,-0.025,+0.106,+100775.66
178150,+17.160,-11.115,+2.221,-0.148,-0.045,+0.789,+100772.05
178160,+13.115,-11.191,+0.266,+0.066,-0.111,+1.655,+100771.48
178170,+9.810,-3.444,-0.093,+0.385,+0.155,+2.184,+100770.67
178180,+8.420,+13.037,+2.298,+1.100,+0.478,+1.482,+100770.67
178190,+2.767,+29.903,+3.178,+1.176,+0.283,-0.498,+100775.14
178200,+9.710,+21.775,-2.157,-1.504,-0.586,+0.145,+100773.72
178210,+16.642,+3.386,-1.604,-1.829,-0.476,+2.496,+100776.72
178221,+14.435,-3.483,+1.181,+0.080,-0.002,+3.171,+100772.23
178230,+14.192,-0.688,+4.028,+1.104,+0.569,+2.301,+100772.23
178240,+12.152,+0.423,+1.875,+0.429,+0.475,+1.859,+100773.49
178250,+8.945,+1.990,+1.831,+0.009,+0.344,+1.863,+100769.41
178260,+8.301,+3.245,+1.951,+0.268,+0.437,+1.779,+100774.91
178271,+9.077,+1.844,+1.631,+0.447,+0.428,+1.655,+100774.41
178280,+8.998,+0.488,+1.783,+0.381,+0.327,+1.459,+100774.41
178290,+8.689,+0.586,+2.241,+0.112,+0.211,+1.225,+100775.05
178300,+8.524,+1.682,+2.072,-0.192,+0.115,+0.976,+100772.10
178311,+8.845,+2.501,+1.720,-0.409,+0.031,+0.799,+100773.18
178320,+8.686,+3.000,+1.661,-0.502,-0.040,+0.679,+100770.73
178331,+8.329,+3.234,+1.837,-0.498,-0.059,+0.536,+100770.73
178340,+8.170,+3.484,+1.939,-0.467,-0.053,+0.422,+100772.50
178351,+8.155,+3.864,+1.624,-0.418,-0.045,+0.336,+100773.27
178361,+8.105,+4.204,+1.438,-0.333,-0.034,+0.300,+100773.47
178370,+8.158,+4.423,+1.281,-0.261,-0.007,+0.300,+100771.48
178380,+8.240,+4.421,+1.650,-0.155,+0.020,+0.337,+100771.48
178391,+8.171,+4.560,+1.961,-0.046,+0.041,+0.357,+100776.16
178401,+8.228,+4.261,+2.215,+0.002,+0.024,+0.376,+100774.59
178410,+8.155,+4.017,+2.257,-0.022,-0.006,+0.382,+100771.68
178420,+8.052,+3.947,+2.388,-0.079,-0.039,+0.373,+100770.51
178430,+7.922,+3.964,+2.487,-0.142,-0.078,+0.360,+100770.51
178441,+7.870,+4.013,+2.366,-0.210,-0.114,+0.353,+100773.56
178451,+7.909,+4.068,+2.141,-0.257,-0.139,+0.362,+100772.50
178460,+7.979,+4.272,+1.900,-0.266,-0.140,+0.388,+100772.95
178470,+8.025,+4.338,+1.702,-0.251,-0.128,+0.440,+100771.58
178481,+8.084,+4.492,+1.593,-0.210,-0.100,+0.516,+100771.58
178491,+8.117,+4.587,+1.619,-0.159,-0.074,+0.605,+100773.16
178500,+8.155,+4.590,+1.559,-0.129,-0.055,+0.714,+100773.41
178510,+8.060,+4.696,+1.506,-0.125,-0.033,+0.834,+100775.55
178521,+7.888,+4.994,+1.711,-0.131,+0.018,+0.953,+100773.77
178531,+7.981,+4.892,+2.106,-0.133,+0.060,+1.068,+100773.77
178541,+8.137,+4.278,+2.301,-0.096,+0.063,+1.165,+100773.09
178550,+8.288,+3.712,+2.073,-0.068,+0.041,+1.234,+100771.56
178561,+8.540,+3.133,+1.769,-0.081,+0.011,+1.288,+100771.31
178571,+8.764,+2.789,+1.460,-0.097,-0.008,+1.324,+100773.50
178581,+8.665,+3.180,+1.630,-0.073,+0.007,+1.343,+100773.50
178591,+8.614,+3.459,+2.042,-0.053,+0.035,+1.374,+100773.01
178600,+8.564,+3.254,+2.086,-0.047,+0.034,+1.420,+100774.70
178611,+8.755,+3.036,+2.269,-0.035,+0.008,+1.443,+100772.45
178621,+8.833,+2.580,+2.444,-0.087,-0.020,+1.449,+100773.01
178631,+8.957,+2.273,+2.180,-0.184,-0.043,+1.467,+100773.01
178640,+8.951,+2.553,+1.833,-0.263,-0.072,+1.517,+100775.52
178651,+9.010,+3.006,+1.957,-0.297,-0.103,+1.597,+100775.27
178661,+9.045,+3.180,+1.840,-0.298,-0.146,+1.714,+100775.23
178671,+9.240,+3.041,+2.044,-0.298,-0.154,+1.840,+100774.76
178680,+9.309,+2.998,+2.392,-0.308,-0.172,+1.974,+100774.76
178691,+9.490,+3.181,+2.821,-0.346,-0.189,+2.096,+100774.98
178701,+9.987,+2.896,+2.832,-0.375,-0.200,+2.163,+100770.55
178711,+10.308,+2.343,+2.575,-0.407,-0.199,+2.240,+100773.40
178721,+10.423,+1.696,+1.748,-0.493,-0.205,+2.286,+100769.59
178731,+11.019,+1.785,+1.014,-0.579,-0.237,+2.271,+100769.59
178741,+11.668,+2.025,+0.141,-0.621,-0.334,+2.252,+100773.72
178751,+12.352,+2.409,+0.496,-0.607,-0.369,+2.244,+100775.19
178761,+13.087,+2.814,+0.131,-0.573,-0.365,+2.242,+100773.81
178770,+13.737,+3.209,+0.014,-0.543,-0.357,+2.253,+100771.89
178781,+14.046,+3.885,+0.367,-0.495,-0.324,+2.300,+100771.89
178791,+14.437,+4.636,+0.793,-0.503,-0.316,+2.360,+100773.98
178801,+14.964,+6.053,+1.538,-0.527,-0.334,+2.384,+100775.00
178811,+15.875,+8.651,+3.275,-0.506,-0.309,+2.361,+100771.86
178821,+16.330,+10.929,+4.394,-0.528,-0.237,+2.386,+100771.09
178831,+15.115,+12.857,+5.346,-0.494,-0.037,+2.463,+100771.09
178841,+14.840,+14.235,+2.761,-0.327,+0.290,+2.504,+100774.73
178851,+16.004,+11.539,+0.992,-0.613,-0.052,+2.951,+100773.51
178862,+14.506,+5.981,+0.235,-0.756,-0.309,+3.473,+100773.96
178871,+13.022,-0.503,+2.617,-1.099,-0.672,+3.772,+100771.68
178881,+13.406,-4.116,+6.172,-1.319,-0.663,+3.947,+100771.68
178891,+13.921,-3.083,+6.468,-0.721,-0.187,+3.697,+100773.29
178902,+14.706,+0.138,+7.147,+0.062,+0.299,+3.333,+100772.27
178911,+8.143,+3.565,+4.872,+0.455,+0.241,+2.896,+100770.09
178921,+0.854,+3.788,+2.128,+0.170,+0.019,+2.422,+100769.37
178931,+1.417,+3.393,+2.105,-0.387,-0.179,+1.840,+100769.37
178941,+0.875,+4.238,+3.279,-0.775,-0.207,+1.299,+100771.32
178952,-0.655,+6.588,+2.183,-0.753,-0.111,+0.528,+100771.01
178961,-0.679,+5.814,+2.218,-0.586,-0.031,-0.010,+100771.77
178971,-0.495,+4.272,+1.953,-0.387,+0.016,-0.358,+100768.57
178981,+0.039,+3.260,+2.259,-0.177,+0.046,-0.742,+100768.57
178992,+1.048,+3.084,+2.802,+0.082,+0.129,-1.164,+100772.35
179001,+1.719,+3.636,+2.745,+0.438,+0.211,-1.604,+100771.63
179011,+2.280,+3.774,+2.635,+0.860,+0.283,-1.995,+100767.37
179021,+2.721,+3.542,+2.322,+1.254,+0.336,-2.317,+100767.46
179032,+3.040,+2.950,+2.255,+1.525,+0.381,-2.603,+100767.46
179042,+3.375,+2.505,+2.415,+1.672,+0.429,-2.903,+100771.41
179051,+3.994,+1.928,+2.546,+1.710,+0.474,-3.207,+100772.11
179061,+4.722,+1.505,+2.719,+1.684,+0.469,-3.494,+100770.44
179072,+5.389,+1.257,+2.714,+1.622,+0.437,-3.778,+100766.31
179082,+6.013,+1.195,+2.699,+1.542,+0.400,-4.070,+100766.31
179091,+6.575,+1.316,+2.708,+1.409,+0.338,-4.364,+100768.96
179101,+7.232,+1.698,+2.745,+1.239,+0.252,-4.651,+100767.49
179111,+8.128,+1.931,+2.756,+1.035,+0.176,-4.902,+100766.88
179122,+8.712,+1.935,+2.865,+0.799,+0.110,-5.118,+100767.60
179131,+9.513,+2.079,+2.925,+0.518,+0.073,-5.335,+100767.60
179141,+10.263,+2.694,+2.540,+0.272,+0.037,-5.528,+100772.44
179151,+11.324,+3.318,+1.752,+0.097,+0.023,-5.716,+100770.00
179162,+13.007,+3.795,+1.212,+0.009,+0.091,-5.866,+100771.11
179172,+14.847,+4.296,+1.386,+0.024,+0.186,-5.933,+100768.38
179182,+16.634,+4.372,+1.759,+0.086,+0.249,-5.982,+100768.38
179191,+18.088,+3.466,+1.831,+0.147,+0.262,-5.999,+100772.11
179202,+19.152,+2.089,+1.964,+0.237,+0.282,-5.966,+100773.47
179212,+19.771,+0.648,+2.451,+0.312,+0.283,-5.834,+100771.28
179222,+20.412,-1.061,+3.309,+0.340,+0.261,-5.580,+100769.77
179231,+20.745,-2.934,+4.447,+0.333,+0.243,-5.141,+100769.77
179241,+20.718,-5.384,+4.384,+0.286,+0.225,-4.575,+100772.77
179252,+20.283,-7.939,+3.702,+0.207,+0.210,-3.929,+100773.63
179262,+19.315,-10.238,+3.012,+0.054,+0.183,-3.306,+100773.67
179271,+17.905,-12.294,+2.666,-0.012,+0.179,-2.699,+100774.84
179281,+16.982,-14.255,+2.718,-0.091,+0.161,-1.980,+100774.84
179292,+16.695,-16.326,+2.842,-0.320,+0.142,-1.069,+100775.29
179302,+16.560,-16.895,+1.443,-0.481,+0.118,-0.081,+100774.23
179312,+16.414,-13.023,+0.412,-0.532,+0.087,+0.883,+100772.29
179321,+16.571,-7.278,+0.198,-0.356,+0.148,+1.540,+100775.35
179332,+13.146,-3.417,-3.013,+0.356,+0.168,+2.226,+100775.35
179342,+7.334,+9.747,+1.188,+1.478,+0.609,+2.046,+100775.87
179352,+2.157,+30.205,+2.066,+2.479,+0.982,+0.108,+100771.09
179361,+7.917,+29.710,-3.912,+0.389,+0.056,-0.071,+100775.16
179372,+19.813,+5.769,-5.428,-1.039,-0.253,+2.442,+100772.98
179382,+14.943,-7.469,-3.179,+0.041,-0.212,+3.853,+100772.98
179392,+14.231,-5.169,+2.840,+1.014,+0.474,+2.894,+100776.72
179402,+13.232,-2.203,+3.993,+0.264,+0.671,+1.980,+100776.16
179411,+9.712,+1.247,+3.865,-0.180,+0.566,+1.757,+100773.66
179422,+8.431,+3.977,+4.092,+0.086,+0.559,+1.665,+100772.48
179432,+7.405,+3.975,+3.822,+0.402,+0.443,+1.566,+100772.48
179442,+8.163,+2.421,+3.203,+0.492,+0.339,+1.429,+100774.12
179451,+9.570,+1.552,+2.900,+0.281,+0.186,+1.394,+100771.26
179462,+8.578,+2.274,+2.735,+0.038,+0.058,+1.301,+100772.63
179472,+9.147,+2.016,+2.179,-0.136,-0.008,+1.143,+100771.12
179482,+9.138,+1.787,+1.963,-0.297,-0.109,+1.013,+100771.12
179492,+8.687,+2.089,+1.940,-0.444,-0.145,+0.819,+100771.78
179503,+7.912,+3.005,+1.831,-0.568,-0.141,+0.612,+100774.17
179512,+7.594,+4.111,+1.775,-0.537,-0.069,+0.488,+100772.09
179522,+7.825,+5.034,+1.874,-0.376,+0.016,+0.457,+100771.33
179532,+8.060,+5.083,+2.344,-0.191,+0.045,+0.522,+100771.33
179542,+8.033,+4.673,+2.457,-0.071,+0.035,+0.613,+100772.55
179552,+7.910,+4.362,+2.761,+0.025,+0.009,+0.662,+100773.93
179562,+7.902,+4.081,+2.846,+0.031,-0.024,+0.673,+100769.76
179572,+7.929,+3.809,+3.224,-0.061,-0.054,+0.678,+100771.38
179582,+7.872,+3.786,+3.307,-0.175,-0.102,+0.675,+100771.38
179592,+7.752,+3.895,+3.023,-0.303,-0.138,+0.667,+100775.60
179602,+7.847,+4.090,+2.645,-0.399,-0.155,+0.685,+100771.68
179612,+7.929,+4.312,+2.243,-0.416,-0.150,+0.734,+100769.60
179622,+8.006,+4.301,+2.127,-0.386,-0.130,+0.820,+100771.48
179632,+8.062,+4.271,+2.215,-0.333,-0.115,+0.914,+100771.48
179642,+8.100,+4.335,+2.364,-0.293,-0.105,+0.994,+100771.78
179652,+8.445,+3.915,+2.359,-0.275,-0.113,+1.067,+100772.28
179662,+8.674,+3.358,+2.182,-0.279,-0.131,+1.132,+100771.88
179673,+8.719,+3.006,+2.195,-0.314,-0.129,+1.150,+100770.77
179682,+8.634,+2.690,+2.422,-0.361,-0.130,+1.134,+100770.77
179692,+8.585,+2.508,+2.322,-0.412,-0.146,+1.126,+100776.52
179702,+8.499,+2.577,+2.112,-0.448,-0.155,+1.125,+100774.18
179713,+8.550,+2.643,+2.145,-0.442,-0.151,+1.137,+100771.99
179722,+8.547,+2.760,+2.332,-0.419,-0.149,+1.162,+100771.99
179732,+8.548,+2.882,+2.632,-0.390,-0.153,+1.202,+100771.99
179742,+8.619,+2.681,+2.792,-0.366,-0.169,+1.243,+100775.36
179752,+8.728,+2.379,+2.656,-0.363,-0.190,+1.275,+100773.17
179763,+8.832,+2.127,+3.006,-0.380,-0.215,+1.290,+100773.38
179772,+8.912,+2.117,+2.965,-0.441,-0.249,+1.290,+100770.52
179782,+9.015,+2.182,+2.678,-0.505,-0.274,+1.300,+100770.52
179792,+9.262,+2.293,+2.362,-0.551,-0.297,+1.321,+100772.05
179803,+9.661,+2.544,+2.332,-0.554,-0.302,+1.345,+100774.85
179812,+9.800,+2.687,+2.464,-0.543,-0.299,+1.394,+100774.74
179822,+9.949,+2.711,+2.050,-0.569,-0.326,+1.486,+100771.70
179832,+10.477,+3.184,+1.374,-0.571,-0.376,+1.585,+100771.70
179843,+10.667,+3.508,+1.007,-0.498,-0.435,+1.691,+100774.32
179853,+10.614,+3.570,+1.202,-0.435,-0.413,+1.851,+100772.90
179862,+10.676,+3.324,+0.455,-0.426,-0.370,+2.022,+100771.27
179872,+10.840,+3.193,+0.144,-0.401,-0.346,+2.177,+100772.49
179883,+10.989,+3.345,+0.768,-0.343,-0.332,+2.306,+100772.49
179893,+11.689,+3.599,+1.630,-0.293,-0.320,+2.398,+100772.33
179902,+12.542,+3.926,+2.392,-0.306,-0.322,+2.461,+100772.02
179912,+13.374,+4.508,+2.610,-0.385,-0.330,+2.482,+100770.08
179922,+14.071,+5.336,+2.639,-0.493,-0.316,+2.483,+100772.02
179933,+15.057,+6.383,+2.470,-0.644,-0.307,+2.488,+100772.02
179943,+16.075,+9.172,+2.675,-0.785,-0.323,+2.450,+100774.84
179952,+16.572,+12.651,+3.666,-0.855,-0.273,+2.471,+100773.46
179962,+16.897,+16.007,+3.309,-0.734,-0.042,+2.624,+100773.26
179973,+17.727,+16.179,+0.804,-0.718,-0.044,+2.968,+100770.51
179983,+15.726,+12.845,+1.031,-0.834,-0.213,+3.504,+100770.51
179993,+14.298,+6.965,-0.509,-0.894,-0.330,+3.876,+100776.98
180002,+13.983,-0.251,+2.753,-1.184,-0.644,+4.194,+100771.39
180013,+15.242,-3.457,+6.982,-1.301,-0.503,+4.272,+100771.33
180023,+15.407,-2.451,+7.707,-0.557,-0.004,+4.035,+100770.31
180033,+12.067,+0.514,+8.087,+0.356,+0.408,+3.581,+100770.31
180042,+8.735,+1.929,+6.419,+0.539,+0.303,+3.114,+100772.14
180052,+4.831,+2.738,+4.749,+0.406,+0.044,+2.506,+100770.09
180063,+2.974,+3.057,+2.544,-0.179,-0.249,+1.768,+100771.53
180073,+2.285,+1.803,+2.722,-0.797,-0.418,+1.335,+100767.50
180082,+0.080,+3.897,+1.740,-0.750,-0.361,+0.696,+100767.50
180092,-0.943,+3.862,+1.341,-0.656,-0.313,+0.070,+100772.52
180103,-0.691,+2.534,+1.565,-0.583,-0.233,-0.292,+100771.30
180113,-0.732,+1.516,+1.237,-0.470,-0.188,-0.647,+100769.73
180123,-0.916,+1.071,+1.496,-0.308,-0.140,-1.058,+100769.52
180132,-0.846,+1.520,+1.668,-0.069,-0.066,-1.491,+100769.52
180143,-0.463,+1.978,+1.557,+0.228,-0.006,-1.906,+100769.63
180153,-0.120,+2.197,+1.399,+0.566,+0.043,-2.294,+100770.73
180163,+0.284,+2.312,+1.456,+0.878,+0.093,-2.662,+100770.03
180172,+0.828,+2.349,+1.669,+1.132,+0.134,-3.018,+100767.58
180183,+1.516,+2.352,+1.898,+1.320,+0.161,-3.361,+100767.58
180193,+2.263,+2.317,+1.996,+1.477,+0.192,-3.662,+100769.96
180203,+2.901,+2.335,+2.151,+1.649,+0.242,-3.928,+100765.45
180213,+3.657,+2.230,+2.304,+1.809,+0.281,-4.189,+100767.93
180222,+4.729,+2.048,+2.451,+1.917,+0.285,-4.455,+100766.15
180233,+5.683,+2.113,+2.750,+1.963,+0.252,-4.714,+100766.15
180243,+6.961,+1.824,+3.141,+1.915,+0.217,-4.949,+100771.60
180253,+7.957,+1.995,+3.712,+1.706,+0.146,-5.203,+100767.88
180263,+8.890,+2.197,+3.398,+1.409,+0.059,-5.443,+100768.79
180273,+10.040,+2.580,+2.649,+1.159,+0.022,-5.634,+100769.40
180283,+11.483,+3.419,+2.518,+1.080,+0.063,-5.815,+100769.40
180293,+14.093,+3.927,+3.372,+0.987,+0.155,-5.960,+100769.38
180303,+17.844,+4.074,+3.939,+0.837,+0.218,-5.993,+100769.31
180313,+20.107,+3.688,+4.784,+0.801,+0.142,-5.963,+100770.19
180323,+20.635,+2.896,+4.977,+0.814,+0.055,-6.047,+100768.70
180333,+20.464,+1.843,+5.098,+0.787,+0.121,-6.176,+100768.70
180343,+20.254,-0.434,+5.814,+0.660,+0.205,-6.084,+100771.30
180354,+19.819,-2.566,+7.312,+0.339,+0.157,-5.725,+100770.13
180363,+19.554,-4.074,+7.631,-0.137,+0.052,-5.289,+100773.94
180373,+19.813,-5.137,+5.870,-0.625,-0.024,-4.815,+100772.36
180383,+19.546,-6.215,+3.765,-1.037,-0.055,-4.221,+100772.36
180393,+18.783,-8.231,+2.003,-1.362,-0.124,-3.566,+100773.05
180403,+17.879,-10.998,+0.709,-1.506,-0.197,-2.927,+100774.17
180413,+17.059,-13.589,+0.774,-1.536,-0.189,-2.179,+100774.06
180423,+16.308,-14.583,+0.221,-1.465,-0.163,-1.327,+100772.48
180433,+15.486,-12.260,-1.029,-1.334,-0.206,-0.426,+100772.48
180444,+14.821,-9.858,-1.540,-1.108,-0.179,+0.507,+100773.63
180453,+14.981,-7.552,-1.493,-0.703,-0.085,+1.387,+100773.72
180463,+14.340,-1.657,-1.270,-0.134,+0.071,+1.809,+100771.28
180473,+10.145,+4.572,-3.785,+0.671,+0.183,+2.048,+100772.14
180484,+6.428,+14.995,-1.021,+1.715,+0.582,+1.578,+100772.14
180493,+3.175,+27.280,+1.090,+2.171,+0.777,+0.381,+100774.76
180503,+8.883,+21.726,-1.007,+0.819,+0.368,+0.803,+100773.29
180513,+16.478,+4.948,-2.979,+0.059,-0.044,+2.359,+100774.76
180524,+16.323,-5.847,-0.818,+0.455,+0.061,+3.438,+100772.88
180533,+15.033,-5.135,+1.225,+0.844,+0.397,+2.965,+100772.88
180543,+12.221,-0.605,+3.886,+0.451,+0.541,+2.197,+100776.19
180553,+8.767,+3.100,+4.480,+0.235,+0.625,+1.836,+100773.69
180563,+7.485,+4.363,+4.664,+0.480,+0.592,+1.762,+100771.45
180574,+7.839,+2.983,+4.153,+0.786,+0.442,+1.727,+100769.31
180583,+7.672,+1.296,+3.513,+0.664,+0.240,+1.592,+100769.31
180593,+9.464,+0.721,+3.405,+0.289,+0.095,+1.452,+100775.68
180603,+9.795,+1.079,+2.810,-0.084,-0.116,+1.330,+100775.21
180614,+8.889,+1.666,+2.027,-0.396,-0.220,+1.166,+100774.20
180624,+8.802,+1.797,+1.635,-0.582,-0.221,+0.971,+100770.74
180633,+8.762,+1.727,+1.674,-0.659,-0.235,+0.772,+100770.74
180643,+8.366,+2.587,+1.562,-0.671,-0.214,+0.595,+100773.75
180654,+8.153,+3.455,+1.660,-0.603,-0.179,+0.474,+100774.36
180664,+8.153,+4.256,+1.821,-0.444,-0.129,+0.432,+100773.59
180674,+8.109,+4.877,+1.771,-0.256,-0.071,+0.475,+100770.73
180683,+8.175,+5.064,+2.083,-0.118,-0.030,+0.560,+100770.73
180694,+8.151,+5.025,+2.658,-0.003,-0.023,+0.675,+100776.72
180704,+8.141,+4.437,+3.258,+0.030,-0.058,+0.765,+100774.69
180714,+7.941,+3.940,+3.411,-0.036,-0.120,+0.798,+100774.84
180723,+7.856,+3.769,+3.279,-0.177,-0.173,+0.780,+100772.39
180733,+7.922,+3.443,+3.067,-0.315,-0.227,+0.756,+100772.39
180744,+7.885,+3.734,+2.802,-0.395,-0.268,+0.737,+100774.55
180754,+7.970,+4.195,+2.397,-0.445,-0.278,+0.758,+100772.73
180763,+8.155,+4.295,+1.862,-0.423,-0.261,+0.838,+100777.01
180773,+8.274,+4.247,+1.629,-0.331,-0.231,+0.956,+100775.93
180784,+8.330,+4.056,+1.621,-0.219,-0.201,+1.075,+100775.93
180794,+8.456,+3.732,+2.008,-0.121,-0.197,+1.176,+100773.10
180804,+8.440,+3.753,+2.340,-0.059,-0.195,+1.252,+100773.62
180813,+8.561,+3.216,+2.397,-0.087,-0.209,+1.300,+100772.49
180824,+8.717,+2.440,+2.256,-0.148,-0.227,+1.294,+100770.37
180834,+8.677,+2.326,+2.287,-0.223,-0.224,+1.259,+100770.37
180844,+8.747,+2.316,+2.498,-0.308,-0.230,+1.231,+100776.17
180853,+8.783,+2.099,+2.046,-0.365,-0.253,+1.229,+100773.56
180864,+8.682,+2.215,+1.757,-0.382,-0.260,+1.233,+100772.30
180874,+8.692,+2.148,+1.763,-0.363,-0.251,+1.248,+100773.16
180884,+8.746,+2.125,+1.807,-0.335,-0.239,+1.279,+100773.16
180894,+8.814,+2.414,+2.168,-0.322,-0.229,+1.323,+100774.73
180903,+9.035,+2.561,+2.556,-0.331,-0.236,+1.362,+100773.52
180914,+9.290,+2.243,+2.616,-0.363,-0.251,+1.398,+100772.05
180924,+9.282,+2.141,+2.896,-0.422,-0.253,+1.428,+100773.98
180934,+9.452,+2.123,+2.818,-0.500,-0.258,+1.456,+100773.98
180943,+9.652,+2.091,+2.173,-0.567,-0.285,+1.495,+100772.93
180954,+9.764,+2.119,+1.661,-0.593,-0.305,+1.560,+100773.20
180964,+10.177,+2.451,+1.517,-0.587,-0.328,+1.641,+100772.73
180974,+10.684,+3.008,+1.429,-0.540,-0.373,+1.724,+100774.01
180984,+11.321,+3.307,+0.788,-0.489,-0.428,+1.828,+100774.01
180994,+11.042,+3.251,+0.538,-0.429,-0.435,+1.975,+100774.02
181004,+11.128,+3.186,+0.080,-0.395,-0.408,+2.149,+100773.16
181014,+11.683,+3.455,+0.121,-0.349,-0.413,+2.305,+100774.52
181024,+12.356,+3.919,+0.973,-0.280,-0.433,+2.441,+100769.64
181033,+13.277,+4.302,+2.062,-0.277,-0.415,+2.553,+100769.64
181044,+14.437,+4.830,+2.247,-0.365,-0.410,+2.610,+100774.20
181054,+15.399,+5.773,+2.244,-0.496,-0.420,+2.622,+100772.27
181064,+16.235,+6.690,+2.384,-0.657,-0.394,+2.639,+100773.45
181074,+17.284,+9.456,+2.838,-0.815,-0.385,+2.566,+100773.38
181084,+17.630,+12.631,+4.008,-0.920,-0.363,+2.520,+100773.38
181094,+17.122,+14.748,+4.327,-0.992,-0.259,+2.621,+100774.43
181104,+17.547,+15.011,+2.893,-1.044,-0.248,+2.836,+100771.74
181114,+16.898,+12.436,+1.472,-1.174,-0.579,+3.243,+100771.63
181124,+13.619,+7.573,+2.441,-1.297,-1.171,+3.573,+100773.01
181134,+11.737,+2.549,+6.574,-1.501,-1.306,+3.860,+100773.01
181144,+13.729,-0.507,+5.775,-0.860,-0.752,+4.133,+100771.23
181154,+13.735,-2.209,+6.836,+0.252,-0.010,+4.054,+100772.56
181165,+15.568,-1.786,+9.073,+0.983,+0.406,+3.632,+100770.11
181174,+9.321,-0.907,+6.158,+1.147,+0.102,+3.018,+100769.70
181184,-0.147,-0.499,+0.794,+0.699,-0.169,+2.371,+100769.70
181194,+5.248,-0.051,+1.876,-0.060,-0.056,+1.998,+100772.67
181204,+1.664,+4.575,+2.780,-0.262,-0.158,+1.235,+100768.75
181214,-1.383,+6.392,+1.812,-0.282,-0.100,+0.434,+100771.56
181224,-1.210,+5.808,+2.024,-0.208,-0.014,-0.028,+100768.61
181234,-0.862,+3.482,+1.536,-0.037,+0.020,-0.219,+100768.61
181244,-0.287,+0.921,+1.597,+0.127,+0.103,-0.414,+100772.52
181255,+0.041,+0.048,+2.212,+0.272,+0.197,-0.746,+100770.24
181264,+0.276,+0.849,+2.294,+0.393,+0.270,-1.194,+100770.13
181274,+0.679,+1.690,+1.838,+0.526,+0.291,-1.684,+100770.04
181284,+0.912,+2.040,+1.378,+0.685,+0.290,-2.126,+100770.04
181295,+1.148,+2.113,+1.275,+0.829,+0.305,-2.494,+100771.71
181305,+1.549,+1.844,+1.308,+0.928,+0.336,-2.834,+100771.82
181314,+1.932,+1.753,+1.551,+0.973,+0.367,-3.164,+100767.99
181324,+2.324,+1.963,+1.630,+0.989,+0.400,-3.494,+100766.32
181335,+2.844,+2.220,+1.461,+1.023,+0.429,-3.810,+100766.32
181345,+3.533,+2.106,+1.371,+1.058,+0.448,-4.094,+100770.77
181354,+4.316,+1.857,+1.444,+1.055,+0.462,-4.368,+100770.37
181364,+5.244,+1.580,+1.601,+1.011,+0.465,-4.646,+100767.82
181374,+5.972,+1.548,+1.854,+0.892,+0.450,-4.935,+100765.27
181385,+6.722,+2.042,+1.947,+0.704,+0.426,-5.244,+100765.27
181395,+7.356,+2.972,+1.784,+0.541,+0.415,-5.551,+100769.46
181404,+8.201,+3.630,+1.648,+0.459,+0.417,-5.828,+100769.26
181414,+9.611,+3.983,+1.508,+0.399,+0.431,-6.074,+100769.87
181425,+11.170,+4.381,+1.395,+0.349,+0.456,-6.317,+100768.13
181435,+12.903,+4.631,+1.388,+0.317,+0.489,-6.569,+100768.13
181444,+15.241,+4.478,+1.545,+0.272,+0.519,-6.811,+100772.16
181454,+18.041,+4.090,+1.982,+0.197,+0.543,-6.982,+100771.55
181465,+20.761,+3.684,+2.443,+0.077,+0.569,-7.034,+100771.96
181475,+23.434,+2.352,+3.319,-0.110,+0.544,-6.924,+100771.24
181484,+25.614,+0.014,+5.251,-0.385,+0.426,-6.542,+100771.24
181494,+27.031,-3.348,+6.546,-0.628,+0.215,-5.875,+100774.64
181505,+26.742,-7.536,+5.556,-0.666,+0.083,-5.063,+100775.09
181515,+25.273,-11.751,+3.295,-0.629,+0.005,-4.138,+100774.64
181525,+22.056,-14.336,+2.032,-0.530,+0.045,-3.342,+100772.09
181534,+19.782,-16.127,+1.670,-0.481,+0.124,-2.488,+100772.09
181544,+18.924,-19.029,+1.333,-0.519,+0.161,-1.468,+100774.98
181555,+18.837,-21.769,+0.028,-0.597,+0.112,-0.235,+100774.23
181565,+19.328,-16.140,-0.518,-0.599,+0.009,+0.862,+100774.13
181574,+17.950,-9.369,-3.289,-0.203,-0.014,+1.622,+100773.88
181584,+10.371,+0.437,-5.838,+0.614,-0.016,+2.374,+100773.88
181595,+4.887,+22.541,-0.155,+2.170,+0.781,+1.182,+100775.41
181605,+0.056,+42.052,-1.618,+1.994,+0.451,-0.763,+100775.57
181615,+17.322,+19.542,-4.817,-1.394,-0.305,+1.298,+100775.26
181624,+18.887,-3.045,-4.344,-1.133,-0.636,+4.032,+100773.79
181635,+12.322,-8.681,-1.473,+0.612,-0.102,+4.028,+100773.79
181645,+13.576,-2.491,+5.877,+1.126,+0.787,+2.650,+100772.87
181655,+11.520,+0.821,+4.186,+0.626,+0.863,+2.094,+100772.30
181664,+8.871,+2.904,+4.589,+0.676,+0.709,+2.057,+100770.52
181675,+7.735,+3.095,+5.402,+0.838,+0.450,+1.954,+100771.70
181685,+6.853,+1.466,+4.054,+0.721,+0.237,+1.783,+100771.70
181695,+10.238,+0.039,+3.775,+0.340,+0.130,+1.691,+100775.20
181705,+9.428,+0.475,+3.440,-0.048,-0.180,+1.610,+100777.34
181714,+8.795,+1.117,+2.056,-0.416,-0.272,+1.359,+100772.30
181725,+9.264,+1.489,+1.534,-0.613,-0.308,+1.137,+100771.78
181735,+8.580,+2.342,+1.463,-0.684,-0.307,+0.954,+100771.78
181745,+7.897,+3.686,+1.577,-0.665,-0.225,+0.792,+100773.20
181754,+7.698,+4.260,+1.472,-0.521,-0.099,+0.717,+100773.96
181765,+7.862,+4.662,+1.904,-0.293,+0.015,+0.727,+100771.82
181775,+8.194,+4.645,+2.553,-0.097,+0.034,+0.773,+100771.66
181785,+8.323,+4.105,+2.423,+0.032,+0.007,+0.832,+100771.66
181795,+8.242,+3.635,+2.688,+0.139,-0.020,+0.857,+100774.64
181805,+8.169,+3.137,+3.144,+0.129,-0.058,+0.841,+100772.23
181815,+8.103,+2.741,+3.429,+0.025,-0.120,+0.790,+100775.34
181825,+7.981,+2.816,+3.473,-0.137,-0.191,+0.702,+100772.59
181835,+8.064,+2.863,+3.124,-0.311,-0.250,+0.610,+100772.59
181846,+8.190,+3.103,+2.331,-0.447,-0.280,+0.557,+100772.88
181855,+8.289,+3.382,+1.934,-0.478,-0.269,+0.555,+100773.65
181865,+8.408,+3.504,+1.833,-0.437,-0.245,+0.601,+100773.45
181875,+8.451,+3.514,+2.081,-0.368,-0.231,+0.676,+100772.43
181885,+8.333,+3.571,+2.505,-0.314,-0.241,+0.748,+100772.43
181895,+8.215,+3.849,+2.726,-0.299,-0.261,+0.810,+100774.27
181905,+8.349,+4.140,+2.941,-0.321,-0.269,+0.887,+100774.11
181915,+8.474,+4.044,+2.890,-0.362,-0.270,+0.977,+100773.34
181925,+8.626,+3.607,+2.610,-0.390,-0.276,+1.070,+100769.78
181936,+8.729,+3.173,+2.537,-0.415,-0.274,+1.135,+100769.78
181945,+8.807,+2.698,+2.372,-0.449,-0.277,+1.178,+100773.97
181955,+8.671,+2.492,+2.131,-0.467,-0.285,+1.207,+100772.23
181965,+8.669,+2.609,+2.226,-0.470,-0.279,+1.237,+100774.78
181976,+8.847,+2.632,+2.165,-0.445,-0.286,+1.279,+100771.78
181985,+9.008,+2.507,+2.064,-0.392,-0.292,+1.298,+100771.78
181995,+8.956,+2.476,+2.298,-0.353,-0.309,+1.342,+100774.70
182005,+9.078,+2.440,+2.429,-0.357,-0.308,+1.392,+100774.18
182016,+9.273,+2.676,+2.736,-0.362,-0.312,+1.430,+100771.70
182026,+9.457,+2.578,+2.638,-0.381,-0.340,+1.488,+100770.21
182035,+9.549,+2.349,+2.348,-0.434,-0.362,+1.561,+100770.21
182045,+9.675,+2.214,+2.063,-0.497,-0.387,+1.632,+100774.30
182055,+10.344,+2.658,+1.540,-0.543,-0.428,+1.705,+100772.46
182066,+10.995,+3.278,+0.719,-0.505,-0.500,+1.750,+100771.80
182075,+11.177,+3.617,+1.016,-0.420,-0.521,+1.867,+100775.16
182085,+11.213,+3.690,+0.622,-0.368,-0.485,+2.004,+100775.16
182095,+11.190,+3.485,-0.120,-0.332,-0.436,+2.167,+100777.34
182106,+10.937,+3.396,-0.292,-0.257,-0.413,+2.333,+100772.85
182116,+11.115,+3.424,+0.330,-0.158,-0.394,+2.462,+100775.35
182125,+11.906,+3.792,+1.505,-0.083,-0.383,+2.526,+100772.90
182135,+13.214,+4.327,+2.602,-0.074,-0.399,+2.522,+100772.90
182146,+14.037,+5.185,+3.532,-0.129,-0.411,+2.476,+100774.59
182156,+15.077,+5.872,+3.630,-0.279,-0.405,+2.435,+100771.52
182165,+15.841,+8.118,+3.700,-0.481,-0.437,+2.400,+100773.46
182175,+16.546,+11.441,+4.804,-0.631,-0.440,+2.402,+100771.16
182185,+17.319,+14.488,+4.538,-0.747,-0.371,+2.522,+100771.16
182196,+18.643,+15.107,+3.533,-1.083,-0.470,+2.803,+100774.29
182206,+17.763,+14.136,+3.284,-1.338,-0.680,+3.144,+100773.73
182215,+15.500,+10.096,+0.399,-1.605,-0.964,+3.520,+100770.63
182225,+13.123,+3.701,+2.298,-1.672,-1.303,+3.963,+100770.27
182236,+13.539,+0.279,+6.968,-1.352,-0.978,+4.388,+100770.27
182246,+14.947,-1.228,+6.820,-0.264,-0.190,+4.385,+100772.81
182296,+3.333,+2.037,+2.939,-0.529,-0.298,+1.633,+100770.32
182305,-0.382,+5.739,+1.437,-0.547,-0.265,+0.661,+100768.54
182316,-1.084,+5.636,+1.752,-0.459,-0.103,+0.158,+100769.96
182326,-0.949,+3.876,+1.430,-0.278,-0.016,-0.041,+100771.24
182336,-0.832,+2.076,+1.170,-0.072,+0.075,-0.257,+100771.24
182346,-0.891,+1.212,+1.374,+0.101,+0.168,-0.613,+100770.31
182355,-0.737,+1.246,+1.564,+0.233,+0.269,-1.061,+100770.83
182366,-0.393,+1.564,+1.517,+0.413,+0.341,-1.508,+100771.08
182376,-0.007,+1.741,+1.282,+0.683,+0.400,-1.932,+100769.45
182386,+0.447,+1.638,+1.267,+0.946,+0.453,-2.251,+100769.45
182395,+0.927,+1.722,+1.596,+1.218,+0.514,-2.610,+100769.23
182406,+1.511,+2.119,+1.875,+1.428,+0.552,-3.009,+100769.74
182416,+2.048,+2.465,+1.837,+1.575,+0.571,-3.398,+100768.46
182426,+2.488,+2.591,+1.799,+1.710,+0.589,-3.728,+100767.49
182435,+3.087,+2.362,+1.903,+1.851,+0.612,-3.996,+100767.49
182446,+4.124,+1.989,+2.020,+1.962,+0.605,-4.240,+100771.66
182456,+4.969,+1.706,+2.465,+1.990,+0.553,-4.485,+100767.89
182466,+6.167,+1.055,+2.544,+1.903,+0.491,-4.752,+100767.13
182476,+7.077,+1.374,+2.864,+1.683,+0.393,-5.058,+100768.45
182486,+7.656,+1.528,+2.654,+1.405,+0.288,-5.343,+100768.45
182496,+8.523,+2.030,+2.857,+1.094,+0.194,-5.574,+100770.50
182506,+9.409,+2.690,+3.094,+0.764,+0.103,-5.804,+100769.84
182516,+11.061,+3.710,+2.979,+0.472,+0.047,-6.080,+100771.63
182525,+13.363,+4.400,+2.167,+0.281,+0.027,-6.333,+100769.38
182536,+16.306,+4.359,+2.252,+0.248,+0.059,-6.512,+100769.38
182546,+19.009,+4.538,+3.504,+0.196,+0.074,-6.594,+100770.53
182556,+21.083,+3.806,+4.389,+0.002,+0.043,-6.646,+100769.77
182566,+22.104,+1.487,+5.063,-0.274,-0.016,-6.570,+100774.50
182576,+22.319,-1.054,+6.350,-0.605,-0.039,-6.298,+100770.06
182586,+22.634,-4.117,+7.643,-0.859,-0.034,-5.880,+100770.06
182596,+22.422,-7.030,+6.902,-0.967,-0.059,-5.343,+100774.49
182606,+21.405,-8.635,+4.411,-1.112,-0.033,-4.723,+100774.13
182616,+20.623,-9.217,+2.058,-1.435,-0.008,-4.047,+100772.51
182626,+19.677,-10.301,+0.172,-1.625,-0.016,-3.298,+100772.60
182636,+18.570,-12.658,-0.594,-1.536,+0.021,-2.451,+100772.60
182646,+18.813,-17.407,-0.010,-1.149,+0.069,-1.210,+100775.56
182657,+18.453,-18.717,-0.997,-0.501,+0.141,-0.094,+100773.38
182666,+17.804,-13.827,-2.592,-0.196,+0.094,+0.981,+100775.88
182676,+17.282,-7.105,-2.847,+0.169,+0.213,+1.642,+100773.44
182686,+10.596,+0.161,-6.883,+0.939,+0.145,+2.437,+100773.44
182696,+5.643,+19.325,-0.098,+2.507,+0.855,+1.632,+100775.99
182706,+1.845,+39.552,+0.370,+3.125,+0.957,-0.274,+100776.04
182716,+16.754,+23.792,-1.896,-0.491,-0.041,+1.019,+100777.10
182726,+19.650,-4.608,-4.930,-1.762,-0.676,+3.944,+100775.07
182736,+12.807,-11.223,-0.353,+0.347,-0.119,+4.252,+100775.07
182747,+15.125,-2.613,+6.483,+1.361,+0.862,+2.620,+100774.30
182756,+12.628,-0.745,+3.141,+0.629,+0.672,+2.071,+100773.24
182766,+9.624,+1.065,+4.182,+0.394,+0.379,+2.049,+100773.45
182776,+7.181,+2.092,+3.950,+0.345,+0.165,+1.888,+100769.99
182787,+8.457,+1.653,+2.815,+0.222,+0.120,+1.714,+100769.99
182797,+9.030,+0.877,+3.090,-0.029,-0.039,+1.627,+100775.80
182806,+8.068,+1.108,+2.684,-0.358,-0.177,+1.466,+100772.08
182816,+8.772,+1.416,+2.182,-0.523,-0.200,+1.217,+100774.06
182827,+8.755,+2.061,+2.307,-0.545,-0.223,+0.997,+100772.03
182837,+8.209,+3.113,+1.911,-0.576,-0.215,+0.825,+100772.03
182846,+7.753,+3.819,+1.520,-0.515,-0.134,+0.701,+100774.41
182856,+8.036,+4.020,+2.003,-0.360,-0.032,+0.656,+100774.16
182866,+8.127,+4.053,+2.798,-0.182,-0.017,+0.651,+100772.84
182877,+7.987,+4.109,+2.920,-0.123,-0.028,+0.648,+100771.37
182886,+8.135,+3.899,+3.154,-0.082,-0.059,+0.657,+100771.37
182896,+8.188,+3.490,+3.097,-0.062,-0.123,+0.676,+100773.35
182906,+8.166,+3.120,+3.396,-0.127,-0.170,+0.658,+100774.02
182917,+8.161,+2.895,+3.356,-0.264,-0.223,+0.600,+100771.73
182927,+8.042,+3.097,+3.198,-0.404,-0.257,+0.537,+100774.43
182936,+7.951,+3.757,+3.039,-0.503,-0.259,+0.501,+100774.43
182946,+8.219,+4.043,+2.822,-0.523,-0.255,+0.526,+100775.22
182957,+8.427,+3.849,+2.631,-0.486,-0.273,+0.605,+100772.06
182967,+8.292,+3.668,+2.616,-0.432,-0.286,+0.664,+100770.48
182977,+8.329,+3.302,+2.761,-0.414,-0.294,+0.713,+100769.88
182986,+8.301,+3.216,+2.704,-0.426,-0.319,+0.760,+100769.88
182996,+8.353,+3.354,+2.710,-0.437,-0.328,+0.800,+100774.30
183007,+8.553,+3.372,+2.572,-0.452,-0.334,+0.847,+100775.56
183017,+8.585,+3.515,+2.372,-0.469,-0.327,+0.903,+100773.28
183026,+8.734,+3.296,+2.659,-0.493,-0.314,+0.969,+100771.08
183036,+8.611,+2.980,+2.580,-0.533,-0.319,+1.033,+100771.08
183047,+8.716,+3.218,+2.300,-0.528,-0.305,+1.077,+100772.05
183057,+9.020,+3.105,+2.124,-0.467,-0.298,+1.129,+100773.49
183066,+8.945,+2.525,+1.939,-0.477,-0.294,+1.169,+100773.70
183076,+8.986,+2.371,+1.844,-0.481,-0.295,+1.195,+100770.48
183087,+8.947,+2.485,+1.945,-0.479,-0.284,+1.212,+100770.48
183097,+8.860,+2.584,+2.275,-0.432,-0.283,+1.261,+100774.51
183107,+8.937,+2.480,+2.513,-0.396,-0.306,+1.327,+100772.16
183116,+8.972,+2.422,+2.828,-0.399,-0.345,+1.405,+100773.74
183127,+9.204,+2.361,+2.909,-0.431,-0.384,+1.456,+100771.35
183137,+9.935,+2.641,+2.247,-0.469,-0.435,+1.490,+100771.35
183147,+10.430,+2.803,+1.423,-0.461,-0.489,+1.529,+100772.07
183157,+10.866,+3.054,+1.129,-0.446,-0.512,+1.598,+100773.70
183166,+11.185,+3.453,+0.422,-0.407,-0.522,+1.679,+100772.63
183177,+11.263,+3.883,+0.163,-0.337,-0.527,+1.807,+100771.66
183187,+11.069,+4.324,+0.624,-0.230,-0.513,+1.950,+100771.66
183197,+10.703,+4.271,+0.731,-0.154,-0.470,+2.104,+100774.13
183206,+10.703,+3.823,+0.300,-0.133,-0.430,+2.275,+100773.21
183217,+10.749,+3.866,+0.551,-0.086,-0.422,+2.417,+100770.82
183227,+11.206,+4.303,+1.860,+0.001,-0.434,+2.488,+100771.59
183237,+12.198,+4.603,+3.083,+0.017,-0.463,+2.544,+100771.59
183247,+13.399,+5.186,+3.737,-0.099,-0.494,+2.575,+100774.02
183257,+14.914,+6.343,+3.897,-0.293,-0.530,+2.570,+100774.22
183267,+16.446,+9.183,+4.292,-0.514,-0.580,+2.552,+100773.00
183277,+17.875,+12.309,+4.475,-0.764,-0.620,+2.655,+100773.05
183287,+18.506,+15.636,+2.933,-1.005,-0.735,+2.920,+100773.05
183297,+17.112,+17.823,+2.024,-1.007,-0.832,+3.241,+100772.48
183307,+15.235,+16.482,+1.138,-0.981,-0.784,+3.613,+100774.42
183317,+15.138,+9.917,-0.039,-0.853,-0.840,+4.005,+100771.31
183327,+14.666,+3.369,+4.547,-0.726,-0.974,+4.495,+100770.97
183336,+15.761,+1.275,+7.449,-0.173,-0.577,+4.582,+100770.97
183347,+14.553,+0.435,+6.872,+0.837,-0.166,+4.267,+100771.47
183357,+11.027,-0.049,+8.092,+1.499,+0.229,+3.922,+100770.30
183367,+8.292,-0.737,+7.712,+1.511,+0.345,+3.526,+100770.91
183377,+5.307,-0.302,+5.191,+1.454,+0.094,+2.827,+100768.72
183387,+3.927,-0.682,+2.409,+0.907,-0.264,+1.924,+100768.72
183397,+3.337,-0.608,+3.118,+0.199,-0.444,+1.308,+100772.11
183407,+1.315,+3.503,+2.858,-0.002,-0.401,+0.508,+100769.66
183417,-0.773,+5.356,+2.076,-0.190,-0.430,-0.160,+100769.77
183428,-1.484,+4.158,+1.601,-0.370,-0.436,-0.437,+100768.84
183437,-1.359,+2.356,+1.140,-0.366,-0.400,-0.676,+100768.84
183447,-0.971,+0.949,+1.220,-0.270,-0.318,-0.964,+100772.30
183457,-0.607,+0.771,+1.612,-0.090,-0.219,-1.341,+100772.05
183468,-0.218,+1.508,+1.788,+0.139,-0.126,-1.785,+100768.78
183477,+0.318,+1.957,+1.473,+0.402,-0.054,-2.231,+100769.86
183487,+0.741,+2.269,+1.256,+0.716,+0.015,-2.630,+100769.86
183497,+1.265,+2.358,+1.378,+1.007,+0.097,-2.984,+100770.63
183507,+1.733,+2.271,+1.801,+1.225,+0.170,-3.324,+100768.70
183518,+2.229,+2.228,+2.160,+1.354,+0.234,-3.658,+100769.25
183527,+2.900,+2.215,+2.332,+1.436,+0.294,-3.970,+100766.36
183537,+3.563,+2.212,+2.394,+1.509,+0.353,-4.262,+100766.36
183547,+4.537,+2.342,+2.508,+1.557,+0.390,-4.582,+100767.54
183558,+5.398,+2.261,+2.496,+1.585,+0.413,-4.829,+100766.63
183567,+6.649,+1.486,+2.645,+1.485,+0.413,-5.099,+100764.02
183577,+7.035,+1.754,+2.682,+1.275,+0.387,-5.388,+100766.93
183587,+8.007,+2.337,+2.531,+1.033,+0.375,-5.664,+100766.93
183598,+9.103,+2.991,+2.591,+0.836,+0.355,-5.913,+100768.58
183608,+10.498,+3.680,+2.459,+0.689,+0.351,-6.187,+100771.27
183617,+12.368,+4.024,+2.297,+0.559,+0.345,-6.475,+100767.41
183627,+14.320,+4.263,+2.230,+0.414,+0.337,-6.742,+100767.45
183638,+16.476,+4.344,+2.409,+0.242,+0.316,-6.965,+100767.45
183648,+19.166,+4.281,+2.979,+0.059,+0.321,-7.091,+100771.81
183657,+21.732,+3.786,+4.104,-0.137,+0.340,-7.053,+100771.75
183667,+23.615,+2.340,+5.931,-0.399,+0.282,-6.821,+100768.30
183677,+24.208,-0.020,+7.348,-0.670,+0.132,-6.378,+100771.55
183688,+24.796,-3.368,+7.175,-0.843,-0.025,-5.727,+100771.55
183698,+25.102,-7.776,+5.411,-1.006,-0.076,-4.877,+100773.84
183707,+23.876,-11.964,+3.044,-1.213,-0.111,-3.967,+100774.52
183717,+21.634,-14.434,+0.938,-1.246,-0.100,-3.172,+100772.94
183728,+18.553,-14.973,+0.788,-1.019,+0.003,-2.398,+100776.14
183738,+19.165,-17.402,+0.004,-1.019,+0.057,-1.411,+100776.14
183748,+18.947,-20.731,-0.424,-0.676,+0.006,-0.169,+100776.80
183757,+17.701,-16.820,-1.162,-0.492,-0.030,+0.879,+100773.04
183768,+18.172,-8.316,-1.016,-0.286,+0.052,+1.579,+100772.88
183778,+12.434,-2.051,-5.392,+0.408,-0.000,+2.288,+100773.49
183787,+7.666,+12.286,-1.058,+1.609,+0.557,+1.985,+100773.49
183797,+0.946,+34.912,+0.493,+2.802,+0.914,-0.088,+100771.47
183808,+6.915,+31.718,-2.115,+0.131,-0.020,+0.259,+100774.31
183818,+20.341,+6.666,-4.345,-1.410,-0.323,+2.808,+100773.20
183828,+15.886,-8.001,-1.611,-0.175,-0.292,+4.421,+100773.30
183837,+14.481,-6.461,+4.872,+1.320,+0.595,+3.395,+100773.30
183847,+13.158,-1.570,+4.593,+1.019,+0.859,+2.292,+100773.90
183858,+9.709,+1.151,+3.670,+0.620,+0.690,+2.058,+100772.48
183868,+8.498,+2.592,+4.300,+0.683,+0.422,+1.929,+100768.71
183878,+6.896,+1.971,+3.595,+0.554,+0.236,+1.784,+100772.16
183887,+8.497,+0.964,+3.103,+0.333,+0.225,+1.627,+100772.16
183898,+10.424,+0.184,+3.249,+0.037,-0.011,+1.531,+100774.41
183908,+8.747,+0.965,+2.191,-0.325,-0.218,+1.354,+100772.97
183918,+9.218,+1.364,+1.593,-0.569,-0.214,+1.103,+100771.70
183927,+8.977,+1.972,+1.633,-0.654,-0.228,+0.903,+100772.11
183938,+8.266,+2.786,+1.563,-0.647,-0.214,+0.711,+100772.11
183948,+7.762,+3.708,+1.532,-0.572,-0.155,+0.565,+100774.95
183958,+7.805,+4.708,+1.599,-0.404,-0.040,+0.507,+100776.13
183968,+7.934,+5.112,+2.130,-0.213,+0.044,+0.548,+100773.64
183977,+7.977,+4.832,+2.591,-0.098,+0.056,+0.627,+100773.48
183988,+8.117,+4.375,+2.912,-0.031,+0.023,+0.696,+100773.48
183998,+8.048,+3.982,+3.258,+0.001,-0.042,+0.728,+100773.08
184008,+8.014,+3.826,+3.475,-0.092,-0.106,+0.722,+100772.88
184017,+8.023,+3.588,+3.603,-0.233,-0.162,+0.693,+100773.98
184028,+7.965,+3.544,+3.387,-0.370,-0.214,+0.665,+100772.52
184038,+7.908,+3.919,+2.822,-0.470,-0.247,+0.649,+100772.52
184048,+8.213,+4.023,+2.262,-0.500,-0.251,+0.680,+100770.52
184058,+8.420,+3.999,+1.964,-0.462,-0.248,+0.765,+100772.61
184068,+8.450,+3.957,+2.080,-0.389,-0.249,+0.863,+100773.22
184078,+8.303,+3.946,+2.365,-0.332,-0.249,+0.935,+100769.50
184088,+8.351,+3.683,+2.555,-0.309,-0.254,+1.005,+100769.50
184098,+8.243,+3.835,+2.619,-0.314,-0.268,+1.077,+100773.70
184108,+8.364,+3.844,+2.706,-0.328,-0.269,+1.133,+100773.04
184118,+8.495,+3.410,+2.683,-0.345,-0.273,+1.193,+100774.98
184128,+8.786,+2.778,+2.738,-0.370,-0.288,+1.235,+100771.41
184138,+8.905,+2.224,+2.196,-0.456,-0.307,+1.227,+100771.41
184148,+9.196,+2.200,+1.366,-0.517,-0.291,+1.201,+100773.23
184158,+8.904,+2.383,+1.879,-0.453,-0.289,+1.202,+100769.77
184168,+8.495,+2.548,+2.437,-0.447,-0.274,+1.209,+100773.69
184178,+8.475,+2.696,+2.123,-0.412,-0.287,+1.260,+100771.30
184188,+8.689,+2.681,+2.264,-0.359,-0.300,+1.327,+100771.30
184198,+9.027,+2.987,+2.559,-0.322,-0.319,+1.410,+100773.23
184208,+9.442,+2.541,+2.538,-0.299,-0.338,+1.454,+100774.35
184218,+9.514,+2.186,+2.413,-0.350,-0.354,+1.494,+100773.70
184228,+9.581,+2.036,+2.172,-0.451,-0.367,+1.518,+100771.85
184239,+9.794,+2.219,+1.759,-0.521,-0.389,+1.545,+100771.85
184248,+10.499,+2.913,+0.782,-0.531,-0.442,+1.570,+100773.29
184258,+10.700,+3.172,+0.618,-0.442,-0.485,+1.644,+100774.87
184268,+11.062,+3.607,+0.666,-0.362,-0.484,+1.762,+100774.96
184279,+11.384,+3.947,+0.550,-0.285,-0.485,+1.895,+100773.85
184289,+11.298,+4.204,+0.528,-0.197,-0.486,+2.046,+100773.85
184298,+10.972,+3.993,+0.348,-0.133,-0.448,+2.230,+100774.59
184308,+10.875,+3.864,+0.299,-0.089,-0.412,+2.394,+100774.18
184318,+11.143,+4.144,+1.000,-0.033,-0.405,+2.516,+100770.51
184329,+11.914,+4.743,+2.344,+0.020,-0.413,+2.584,+100774.43
184338,+13.030,+5.051,+3.197,-0.004,-0.416,+2.617,+100774.43
184348,+14.474,+5.474,+3.342,-0.133,-0.453,+2.609,+100772.32
184358,+15.570,+7.059,+3.419,-0.311,-0.503,+2.567,+100773.23
184369,+16.709,+10.111,+4.123,-0.512,-0.536,+2.484,+100774.05
184379,+18.242,+13.250,+4.304,-0.755,-0.543,+2.553,+100771.76
184388,+19.448,+15.393,+3.281,-1.149,-0.740,+2.860,+100771.76
184398,+17.663,+15.520,+2.947,-1.663,-0.969,+3.250,+100771.92
184409,+15.010,+13.292,+2.834,-1.909,-1.068,+3.499,+100772.17
184419,+13.991,+8.889,+2.048,-1.645,-1.204,+3.809,+100771.67
184428,+13.447,+5.575,+5.982,-0.964,-1.215,+4.272,+100770.44
184438,+14.384,+4.448,+6.292,+0.041,-0.709,+4.365,+100770.44
184449,+12.346,+1.996,+6.411,+0.994,-0.180,+4.201,+100771.79
184459,+8.899,+0.414,+7.752,+1.539,+0.259,+3.869,+100771.13
184469,+7.164,-0.948,+7.395,+1.615,+0.268,+3.252,+100770.57
184478,+3.882,-3.275,+3.956,+1.605,+0.044,+2.538,+100768.23
184488,+3.092,-6.350,+1.037,+1.008,-0.138,+1.816,+100768.23
184499,+6.397,-4.607,+3.349,+0.231,-0.202,+1.359,+100769.81
184509,+0.600,+2.711,+3.710,-0.056,-0.390,+0.277,+100768.89
184518,-2.757,+6.203,+2.488,-0.439,-0.413,-0.583,+100769.30
184528,-2.370,+6.266,+1.005,-0.576,-0.361,-0.891,+100769.34
184539,-1.875,+3.814,-0.032,-0.346,-0.282,-0.977,+100769.34
184549,-0.926,+1.067,+0.240,-0.093,-0.138,-1.043,+100773.00
184559,-0.232,+0.059,+1.326,+0.153,+0.022,-1.251,+100769.38
184568,+0.094,+1.068,+2.069,+0.415,+0.149,-1.647,+100769.64
184579,+0.408,+2.304,+1.686,+0.724,+0.214,-2.182,+100766.73
184589,+0.944,+2.840,+1.196,+1.059,+0.262,-2.700,+100766.73
184599,+1.498,+2.717,+1.176,+1.306,+0.313,-3.098,+100767.44
184608,+2.045,+2.261,+1.548,+1.438,+0.357,-3.422,+100764.83
184619,+2.603,+2.083,+2.031,+1.467,+0.389,-3.730,+100763.81
184629,+3.356,+2.036,+2.311,+1.449,+0.407,-4.039,+100763.41
184639,+3.934,+2.123,+2.473,+1.434,+0.426,-4.351,+100763.41
184649,+4.738,+2.414,+2.524,+1.396,+0.439,-4.669,+100766.36
184658,+5.723,+2.346,+2.481,+1.319,+0.439,-4.954,+100766.16
184669,+6.594,+2.342,+2.525,+1.185,+0.452,-5.238,+100767.80
184679,+7.420,+2.779,+2.355,+1.037,+0.467,-5.528,+100763.77
184689,+8.489,+3.193,+2.380,+0.882,+0.477,-5.775,+100763.77
184699,+9.563,+3.650,+2.268,+0.746,+0.473,-6.003,+100768.34
184709,+11.097,+3.841,+2.050,+0.628,+0.485,-6.264,+100769.41
184719,+12.994,+4.050,+1.970,+0.493,+0.520,-6.574,+100769.25
184729,+14.713,+4.000,+2.057,+0.338,+0.530,-6.822,+100771.50
184738,+17.299,+3.633,+2.252,+0.080,+0.532,-7.031,+100771.50
184749,+20.229,+3.422,+2.863,-0.173,+0.540,-7.112,+100772.01
184759,+23.039,+2.760,+3.859,-0.431,+0.517,-7.045,+100771.13
184769,+25.169,+0.563,+5.212,-0.731,+0.360,-6.740,+100767.88
184779,+26.169,-2.364,+6.047,-0.989,+0.103,-6.170,+100768.29
184788,+26.584,-6.082,+5.215,-1.110,-0.106,-5.383,+100768.29
184799,+25.622,-10.526,+3.313,-1.185,-0.187,-4.419,+100774.77
184809,+23.005,-14.873,+1.284,-1.137,-0.166,-3.485,+100777.62
184819,+20.033,-16.869,+0.161,-0.918,-0.027,-2.614,+100775.38
184829,+19.840,-18.750,-1.264,-0.686,+0.153,-1.537,+100773.35
184839,+19.485,-19.995,-2.510,-0.224,+0.188,-0.452,+100773.35
184849,+21.028,-15.124,-1.517,+0.025,+0.177,+0.517,+100774.73
184859,+18.982,-13.804,-3.323,+0.563,+0.087,+1.546,+100777.08
184869,+10.133,-4.886,-4.679,+1.074,+0.099,+2.565,+100772.05
184879,+7.335,+16.694,+5.097,+2.259,+0.908,+1.650,+100771.89
184889,+1.411,+43.269,+2.020,+2.432,+0.841,-1.054,+100771.89
184899,+16.822,+21.913,-3.933,-2.611,-0.811,+1.022,+100774.59
184909,+17.593,-3.384,-4.820,-2.536,-1.070,+4.107,+100773.88
184920,+12.069,-7.206,+3.494,+0.449,+0.076,+4.121,+100772.96
184929,+15.404,-1.739,+5.949,+1.575,+0.994,+2.557,+100769.80
184939,+11.575,-0.729,+2.644,+0.883,+0.584,+2.229,+100769.80
184949,+8.404,+1.285,+2.877,+0.530,+0.342,+2.128,+100775.77
184960,+6.682,+2.668,+2.553,+0.443,+0.208,+1.938,+100773.54
184969,+8.925,+1.702,+2.239,+0.479,+0.257,+1.813,+100775.88
184979,+9.479,+0.414,+2.954,+0.364,+0.103,+1.756,+100768.90
184989,+8.535,+0.090,+2.492,-0.031,-0.083,+1.547,+100768.90
184999,+8.781,+0.885,+1.566,-0.397,-0.128,+1.241,+100776.73
185010,+8.628,+2.426,+1.900,-0.567,-0.135,+0.980,+100772.77
185019,+8.317,+3.668,+1.727,-0.625,-0.115,+0.812,+100771.28
185029,+7.829,+3.971,+1.754,-0.538,-0.056,+0.732,+100772.25
185039,+7.851,+4.224,+2.433,-0.379,+0.018,+0.692,+100772.25
185050,+8.009,+4.312,+2.921,-0.230,+0.017,+0.686,+100774.10
185059,+8.038,+4.347,+2.793,-0.169,+0.001,+0.710,+100773.74
185069,+8.153,+4.132,+2.751,-0.100,-0.033,+0.751,+100773.79
185079,+8.178,+3.824,+2.966,-0.064,-0.081,+0.785,+100770.23
185090,+8.105,+3.597,+3.276,-0.120,-0.117,+0.782,+100770.23
185100,+8.088,+3.376,+3.231,-0.231,-0.155,+0.746,+100775.31
185109,+8.172,+3.367,+3.085,-0.353,-0.187,+0.696,+100773.06
185119,+8.214,+3.473,+2.574,-0.432,-0.203,+0.668,+100771.75
185129,+8.367,+3.442,+2.194,-0.447,-0.203,+0.674,+100772.36
185140,+8.390,+3.411,+2.279,-0.404,-0.198,+0.698,+100772.36
185149,+8.396,+3.216,+2.607,-0.364,-0.196,+0.715,+100773.00
185159,+8.324,+2.943,+2.750,-0.371,-0.226,+0.732,+100772.59
185169,+8.214,+2.921,+2.732,-0.397,-0.255,+0.742,+100772.86
185180,+8.196,+3.222,+2.571,-0.427,-0.274,+0.758,+100770.16
185190,+8.463,+3.488,+2.669,-0.439,-0.283,+0.786,+100770.16
185199,+8.598,+3.461,+2.552,-0.451,-0.290,+0.839,+100772.72
185209,+8.640,+3.203,+2.319,-0.462,-0.287,+0.891,+100773.84
185220,+8.700,+2.826,+2.347,-0.469,-0.277,+0.933,+100770.89
185230,+8.594,+2.496,+2.419,-0.489,-0.278,+0.958,+100769.97
185239,+8.706,+2.559,+2.170,-0.494,-0.269,+0.964,+100769.97
185250,+8.765,+2.355,+2.086,-0.472,-0.265,+0.972,+100774.26
185260,+8.696,+2.200,+1.849,-0.467,-0.267,+0.987,+100772.07
185270,+8.677,+2.257,+1.936,-0.452,-0.271,+1.007,+100771.30
185280,+8.659,+2.686,+2.298,-0.419,-0.282,+1.060,+100771.87
185289,+8.742,+3.032,+2.639,-0.368,-0.282,+1.112,+100771.87
185299,+8.954,+2.878,+2.832,-0.336,-0.290,+1.179,+100775.46
185310,+9.214,+2.546,+2.810,-0.338,-0.319,+1.258,+100772.51
185320,+9.344,+2.359,+2.840,-0.385,-0.351,+1.315,+100775.26
185330,+9.631,+2.280,+2.404,-0.469,-0.376,+1.357,+100772.01
185339,+10.262,+2.807,+1.374,-0.520,-0.424,+1.379,+100772.01
185350,+10.602,+3.197,+0.803,-0.480,-0.489,+1.434,+100774.15
185360,+10.752,+3.609,+0.781,-0.422,-0.504,+1.556,+100774.15
185370,+10.909,+3.871,+0.745,-0.339,-0.508,+1.691,+100771.60
185379,+10.995,+4.141,+1.053,-0.245,-0.515,+1.837,+100772.57
185390,+10.833,+3.969,+0.933,-0.212,-0.496,+2.002,+100772.57
185400,+10.720,+3.581,+0.487,-0.202,-0.451,+2.158,+100775.77
185410,+10.693,+3.534,+0.534,-0.166,-0.434,+2.288,+100775.30
185419,+11.006,+3.901,+1.492,-0.117,-0.435,+2.385,+100774.28
185430,+11.942,+4.512,+2.629,-0.093,-0.442,+2.436,+100771.78
185440,+13.247,+5.326,+3.149,-0.149,-0.454,+2.464,+100771.78
185450,+14.355,+6.193,+3.010,-0.282,-0.471,+2.481,+100772.70
185460,+15.700,+7.138,+2.422,-0.459,-0.518,+2.511,+100770.81
185469,+16.621,+10.339,+3.640,-0.588,-0.564,+2.486,+100772.34
185480,+17.936,+13.697,+4.558,-0.718,-0.520,+2.581,+100770.31
185490,+18.358,+16.207,+2.854,-0.965,-0.618,+2.926,+100770.31
185500,+16.227,+15.893,+1.994,-1.190,-0.771,+3.342,+100774.59
185510,+14.172,+12.988,+0.975,-1.128,-0.766,+3.655,+100774.43
185520,+13.338,+7.734,+2.463,-0.890,-0.965,+3.928,+100769.20
185530,+13.868,+3.073,+6.910,-0.664,-0.903,+4.343,+100768.73
185540,+16.180,-0.004,+5.537,+0.099,-0.433,+4.480,+100768.73
185550,+13.640,-1.211,+7.132,+1.024,+0.081,+4.236,+100773.66
185560,+10.603,-0.225,+8.810,+1.444,+0.418,+3.767,+100773.05
185571,+7.013,-0.258,+6.320,+1.410,+0.211,+3.133,+100770.55
185580,+4.195,+0.471,+3.738,+1.136,-0.013,+2.400,+100771.72
185590,+4.599,-0.666,+2.561,+0.250,-0.311,+1.766,+100771.72
185601,+2.554,+1.936,+3.038,-0.224,-0.384,+1.181,+100771.62
185610,-0.682,+5.008,+1.747,-0.337,-0.419,+0.342,+100770.34
185620,-1.363,+4.561,+1.754,-0.467,-0.372,-0.087,+100770.04
185630,-1.207,+3.164,+1.341,-0.453,-0.333,-0.341,+100768.26
185640,-0.876,+1.641,+1.082,-0.336,-0.272,-0.596,+100768.26
185650,-0.617,+0.932,+1.382,-0.160,-0.194,-0.934,+100770.70
185660,-0.192,+1.220,+1.594,+0.079,-0.105,-1.359,+100770.80
185670,+0.257,+1.916,+1.536,+0.375,-0.035,-1.818,+100769.27
185680,+0.764,+2.262,+1.316,+0.704,+0.024,-2.253,+100769.67
185690,+1.228,+2.341,+1.194,+1.026,+0.088,-2.635,+100769.67
185700,+1.622,+2.452,+1.406,+1.262,+0.154,-2.999,+100770.46
185710,+2.185,+2.676,+1.864,+1.421,+0.207,-3.373,+100769.49
185720,+2.711,+2.852,+2.116,+1.520,+0.238,-3.722,+100768.21
185731,+3.211,+2.803,+2.216,+1.594,+0.255,-4.029,+100768.46
185740,+3.821,+2.613,+2.326,+1.649,+0.275,-4.302,+100768.46
185750,+4.745,+2.487,+2.507,+1.660,+0.301,-4.573,+100768.84
185760,+5.753,+2.236,+2.684,+1.666,+0.319,-4.835,+100768.93
185771,+6.712,+1.886,+2.947,+1.581,+0.327,-5.115,+100765.21
185781,+7.287,+2.323,+2.884,+1.443,+0.318,-5.422,+100766.84
185790,+8.262,+2.932,+2.804,+1.292,+0.306,-5.696,+100766.84
185800,+9.279,+3.443,+2.884,+1.165,+0.294,-5.936,+100769.76
185810,+10.708,+3.795,+2.832,+1.063,+0.303,-6.192,+100768.54
185821,+12.685,+4.018,+2.961,+0.951,+0.321,-6.478,+100766.96
185830,+14.810,+4.181,+3.376,+0.816,+0.339,-6.753,+100768.74
185840,+17.539,+3.892,+4.205,+0.623,+0.377,-6.959,+100768.74
185850,+20.656,+2.892,+4.793,+0.320,+0.458,-7.016,+100770.82
185861,+22.559,+1.198,+6.319,-0.153,+0.397,-6.878,+100768.93
185871,+23.432,-0.596,+8.560,-0.663,+0.255,-6.600,+100773.26
185880,+24.872,-3.339,+9.473,-1.081,+0.075,-6.120,+100771.43
185890,+25.834,-6.642,+7.825,-1.305,-0.050,-5.461,+100771.43
185901,+24.972,-10.757,+4.111,-1.568,-0.168,-4.557,+100776.20
185911,+22.710,-14.007,+1.219,-1.945,-0.256,-3.602,+100775.39
185920,+20.626,-15.693,-0.149,-1.963,-0.203,-2.781,+100773.75
185930,+18.733,-16.813,-0.822,-1.710,-0.085,-1.912,+100774.52
185940,+19.754,-19.527,-1.934,-1.404,-0.062,-0.691,+100774.52
185951,+19.056,-15.731,-3.323,-0.861,-0.072,+0.368,+100777.40
185961,+19.577,-9.653,-3.451,-0.267,+0.028,+1.047,+100776.68
185970,+12.567,-4.921,-9.069,+0.614,-0.064,+2.151,+100775.26
185980,+6.867,+11.090,-4.368,+1.712,+0.427,+2.124,+100772.40
185991,+1.674,+35.857,-0.357,+3.131,+0.938,-0.134,+100772.40
186001,+11.595,+34.246,-1.045,+0.297,+0.071,+0.202,+100775.01
186010,+20.191,+3.896,-3.172,-2.321,-0.651,+3.399,+100774.87
186020,+12.216,-11.475,-2.694,-0.508,-0.447,+4.633,+100773.90
186031,+13.715,-4.100,+7.838,+1.604,+0.855,+3.079,+100773.13
186041,+13.323,+0.150,+4.376,+1.223,+0.934,+2.110,+100773.13
186051,+10.317,+0.780,+3.810,+0.897,+0.646,+2.095,+100771.21
186060,+8.433,+1.527,+4.651,+0.873,+0.311,+1.973,+100773.91
186071,+7.456,+1.067,+3.026,+0.575,+0.150,+1.772,+100772.79
186081,+9.376,-0.028,+2.604,+0.185,+0.053,+1.634,+100772.79
186091,+8.889,+0.276,+2.978,-0.231,-0.197,+1.466,+100772.79
186101,+8.383,+1.247,+1.815,-0.599,-0.283,+1.196,+100776.41
186110,+8.993,+1.627,+1.533,-0.703,-0.262,+0.929,+100772.33
186121,+8.592,+2.321,+1.617,-0.706,-0.251,+0.729,+100771.88
186131,+8.240,+3.287,+1.639,-0.637,-0.199,+0.578,+100773.50
186140,+7.795,+4.175,+1.934,-0.500,-0.128,+0.499,+100773.50
186150,+7.888,+4.900,+2.057,-0.309,-0.030,+0.493,+100772.28
186161,+7.951,+5.115,+2.312,-0.142,+0.033,+0.565,+100771.22
186171,+7.924,+4.973,+2.712,-0.034,+0.051,+0.659,+100771.58
186181,+7.994,+4.363,+3.022,+0.028,+0.017,+0.738,+100770.30
186190,+8.087,+3.670,+3.141,+0.049,-0.048,+0.764,+100770.30
186201,+8.050,+3.624,+3.380,-0.014,-0.096,+0.747,+100772.70
186211,+8.023,+3.424,+3.727,-0.167,-0.149,+0.719,+100772.95
186221,+7.929,+3.338,+3.421,-0.362,-0.215,+0.665,+100772.86
186231,+7.894,+3.727,+2.680,-0.485,-0.248,+0.623,+100769.39
186241,+8.181,+3.927,+2.186,-0.515,-0.251,+0.642,+100769.39
186251,+8.303,+4.067,+1.840,-0.468,-0.230,+0.705,+100774.13
186261,+8.414,+4.036,+1.923,-0.383,-0.195,+0.790,+100772.91
186271,+8.359,+3.946,+2.203,-0.318,-0.180,+0.883,+100772.41
186280,+8.365,+3.770,+2.355,-0.289,-0.182,+0.955,+100772.86
186291,+8.463,+3.498,+2.438,-0.290,-0.188,+1.017,+100772.86
186301,+8.450,+3.443,+2.475,-0.318,-0.202,+1.085,+100774.35
186311,+8.380,+3.467,+2.639,-0.338,-0.205,+1.141,+100773.74
186321,+8.412,+3.057,+3.064,-0.377,-0.214,+1.185,+100772.88
186331,+8.532,+2.742,+3.065,-0.446,-0.246,+1.218,+100770.59
186341,+9.272,+2.762,+1.730,-0.415,-0.271,+1.240,+100770.59
186351,+8.870,+2.082,+1.892,-0.385,-0.265,+1.253,+100775.18
186361,+8.744,+1.882,+1.937,-0.432,-0.230,+1.237,+100773.76
186371,+8.665,+2.128,+2.233,-0.423,-0.246,+1.239,+100770.74
186381,+8.487,+2.504,+2.660,-0.397,-0.265,+1.264,+100771.30
186391,+8.601,+2.447,+2.841,-0.390,-0.277,+1.323,+100771.30
186401,+8.980,+2.391,+2.839,-0.374,-0.325,+1.368,+100775.04
186412,+9.379,+2.326,+3.034,-0.358,-0.339,+1.378,+100773.62
186422,+9.544,+2.242,+2.615,-0.415,-0.343,+1.394,+100774.07
186431,+9.768,+2.031,+2.226,-0.473,-0.360,+1.420,+100770.51
186441,+9.840,+2.176,+1.791,-0.520,-0.389,+1.463,+100770.51
186451,+10.278,+2.489,+1.617,-0.540,-0.411,+1.527,+100777.19
186461,+11.020,+3.399,+0.883,-0.515,-0.490,+1.597,+100770.77
186471,+11.063,+3.673,+0.933,-0.426,-0.538,+1.725,+100772.81
186481,+11.027,+3.668,+0.629,-0.387,-0.513,+1.900,+100770.97
186491,+11.101,+3.428,+0.082,-0.354,-0.495,+2.071,+100770.97
186502,+10.852,+3.306,+0.082,-0.291,-0.497,+2.229,+100773.59
186511,+11.094,+3.191,+0.853,-0.211,-0.489,+2.342,+100773.75
186521,+11.724,+3.321,+1.850,-0.156,-0.496,+2.390,+100771.72
186531,+12.531,+3.753,+2.769,-0.157,-0.517,+2.378,+100773.39
186542,+13.248,+4.302,+3.278,-0.221,-0.524,+2.338,+100773.39
186552,+14.434,+4.939,+3.067,-0.369,-0.547,+2.289,+100774.61
186561,+15.242,+7.299,+3.190,-0.553,-0.620,+2.262,+100773.02
186571,+16.093,+10.346,+3.556,-0.713,-0.659,+2.273,+100771.03
186582,+17.457,+13.335,+3.237,-0.804,-0.655,+2.402,+100773.28
186592,+18.964,+15.168,+1.811,-0.920,-0.730,+2.693,+100773.28
186601,+18.034,+15.477,+1.740,-1.115,-0.895,+3.100,+100775.06
186611,+15.698,+13.905,+1.345,-1.228,-0.964,+3.453,+100771.19
186621,+13.419,+8.809,+2.002,-1.175,-1.231,+3.814,+100772.63
186632,+12.510,+4.101,+7.114,-0.813,-1.108,+4.253,+100772.06
186641,+14.968,+1.559,+5.341,+0.218,-0.514,+4.447,+100772.06
186651,+12.848,-0.823,+6.032,+1.284,+0.052,+4.276,+100774.55
186661,+10.417,-1.610,+8.043,+1.798,+0.507,+3.861,+100771.44
186672,+8.207,-2.455,+7.014,+1.794,+0.439,+3.355,+100771.23
186682,+4.428,-1.458,+3.700,+1.593,+0.091,+2.537,+100771.64
186691,+4.802,-1.704,+2.025,+0.657,-0.254,+1.804,+100771.64
186701,+2.323,+1.508,+2.757,-0.026,-0.336,+1.208,+100773.50
186712,-0.870,+5.535,+1.593,-0.165,-0.305,+0.340,+100774.06
186722,-1.253,+5.341,+1.751,-0.165,-0.215,-0.099,+100772.08
186732,-0.943,+3.652,+1.207,-0.087,-0.181,-0.287,+100769.03
186741,-0.713,+1.869,+0.945,+0.068,-0.129,-0.510,+100769.03
186752,-0.564,+0.894,+1.192,+0.233,-0.049,-0.865,+100773.97
186762,-0.263,+0.993,+1.430,+0.382,+0.016,-1.312,+100772.55
186772,+0.229,+1.539,+1.451,+0.562,+0.047,-1.767,+100768.78
186781,+0.691,+1.808,+1.298,+0.803,+0.066,-2.180,+100767.25
186791,+1.280,+1.848,+1.432,+1.050,+0.099,-2.555,+100767.25
186802,+1.902,+1.975,+1.718,+1.267,+0.136,-2.928,+100770.15
186812,+2.484,+2.244,+2.086,+1.432,+0.169,-3.314,+100769.49
186822,+2.937,+2.426,+2.305,+1.532,+0.173,-3.676,+100766.95
186831,+3.149,+2.367,+2.297,+1.580,+0.155,-3.990,+100768.48
186842,+3.505,+2.215,+2.392,+1.574,+0.139,-4.272,+100768.48
186852,+4.295,+2.194,+2.523,+1.512,+0.139,-4.546,+100768.21
186862,+5.269,+2.068,+2.663,+1.423,+0.132,-4.818,+100767.35
186871,+6.293,+1.603,+2.933,+1.256,+0.126,-5.081,+100765.66
186882,+7.096,+1.840,+2.941,+1.007,+0.116,-5.368,+100766.63
186892,+7.994,+2.432,+2.731,+0.763,+0.105,-5.642,+100766.63
186902,+8.750,+3.030,+2.719,+0.566,+0.094,-5.887,+100768.27
186911,+9.906,+3.762,+2.423,+0.439,+0.112,-6.143,+100770.80
186921,+11.699,+4.352,+2.306,+0.356,+0.171,-6.418,+100769.38
186932,+13.723,+4.737,+2.425,+0.292,+0.236,-6.682,+100769.22
186942,+16.356,+4.372,+2.832,+0.185,+0.288,-6.911,+100769.22
186952,+19.219,+3.690,+3.252,-0.021,+0.322,-7.037,+100773.00
186961,+21.492,+2.827,+3.882,-0.403,+0.326,-7.018,+100772.23
186972,+23.305,+1.744,+5.285,-0.834,+0.302,-6.828,+100771.77
186982,+24.934,-0.061,+6.820,-1.180,+0.177,-6.429,+100771.52
186992,+26.017,-3.083,+6.952,-1.315,+0.003,-5.759,+100771.52
187002,+26.287,-7.303,+5.250,-1.351,-0.135,-4.828,+100775.48
187012,+24.344,-12.375,+2.973,-1.358,-0.213,-3.779,+100773.90
187022,+21.527,-16.241,+1.180,-1.241,-0.240,-2.908,+100772.52
187032,+18.869,-17.735,+0.400,-1.141,-0.091,-2.111,+100775.48
187042,+19.091,-21.071,-1.042,-1.004,+0.001,-0.989,+100775.48
187052,+18.605,-19.537,-2.577,-0.741,+0.043,+0.063,+100777.69
187062,+19.929,-12.067,-1.988,-0.567,-0.021,+1.025,+100775.81
187072,+16.256,-7.143,-5.426,+0.181,-0.056,+1.861,+100775.77
187082,+8.725,+4.041,-5.143,+1.095,+0.083,+2.447,+100774.08
187091,+4.122,+25.662,+1.107,+2.734,+0.924,+0.722,+100774.08
187102,+1.082,+41.578,-0.494,+1.819,+0.293,-0.680,+100775.39
187112,+16.861,+16.546,-4.480,-1.918,-0.594,+1.832,+100776.41
187122,+16.834,-5.465,-3.136,-1.438,-0.749,+4.310,+100773.41
187132,+13.773,-9.577,+4.530,+0.902,+0.233,+3.938,+100774.17
187142,+15.467,-1.972,+6.205,+1.584,+0.931,+2.433,+100774.17
187152,+10.928,+0.507,+2.346,+0.873,+0.607,+2.104,+100773.42
187162,+8.894,+2.087,+3.185,+0.821,+0.437,+2.025,+100771.55
187172,+7.032,+1.811,+3.113,+0.740,+0.211,+1.872,+100770.98
187182,+8.027,+0.311,+2.475,+0.509,+0.181,+1.685,+100772.92
187192,+9.704,-0.400,+2.907,+0.125,-0.009,+1.533,+100772.92
187202,+9.039,+0.479,+2.257,-0.347,-0.232,+1.284,+100774.55
187212,+9.017,+1.194,+1.267,-0.651,-0.265,+1.005,+100773.83
187223,+8.957,+2.246,+1.309,-0.708,-0.227,+0.781,+100773.58
187232,+8.407,+3.344,+1.593,-0.656,-0.194,+0.632,+100772.77
187242,+7.932,+4.090,+1.991,-0.540,-0.147,+0.544,+100772.77
187252,+7.866,+4.567,+2.220,-0.363,-0.082,+0.519,+100773.64
187262,+7.977,+4.961,+2.433,-0.162,-0.040,+0.546,+100772.42
187273,+7.916,+5.147,+2.452,-0.040,-0.023,+0.631,+100773.94
187282,+7.945,+4.807,+2.604,-0.018,-0.023,+0.724,+100773.23
187292,+7.982,+4.292,+2.941,+0.026,-0.049,+0.788,+100773.23
187302,+8.092,+3.680,+3.337,+0.036,-0.103,+0.796,+100771.31
187313,+8.135,+3.270,+3.521,-0.083,-0.183,+0.768,+100774.02
187322,+8.110,+3.089,+3.221,-0.283,-0.261,+0.705,+100772.44
187332,+8.061,+3.249,+2.529,-0.453,-0.302,+0.655,+100772.23
187342,+8.027,+3.860,+1.990,-0.513,-0.294,+0.650,+100772.23
187353,+8.194,+4.134,+1.942,-0.481,-0.256,+0.701,+100776.30
187363,+8.418,+4.040,+1.878,-0.395,-0.248,+0.804,+100775.03
187372,+8.334,+3.977,+1.875,-0.279,-0.260,+0.914,+100774.31
187382,+8.340,+3.855,+2.067,-0.184,-0.265,+1.006,+100772.39
187393,+8.348,+3.814,+2.362,-0.137,-0.273,+1.091,+100772.39
187403,+8.325,+3.700,+2.554,-0.132,-0.281,+1.143,+100772.83
187412,+8.492,+3.198,+2.589,-0.157,-0.286,+1.177,+100773.14
187422,+8.561,+2.767,+2.485,-0.207,-0.296,+1.193,+100770.50
187432,+8.531,+2.632,+2.438,-0.270,-0.298,+1.184,+100770.64
187443,+8.568,+2.634,+2.189,-0.314,-0.300,+1.183,+100770.64
187453,+8.781,+2.742,+2.116,-0.304,-0.309,+1.222,+100774.16
187462,+8.625,+3.060,+2.299,-0.221,-0.339,+1.291,+100773.05
187472,+8.671,+3.052,+2.210,-0.178,-0.335,+1.378,+100772.98
187483,+8.749,+2.471,+1.886,-0.124,-0.324,+1.443,+100771.83
187493,+9.064,+1.882,+1.769,-0.105,-0.342,+1.458,+100771.83
187502,+9.188,+1.711,+2.208,-0.157,-0.354,+1.435,+100776.33
187512,+9.330,+1.674,+2.433,-0.247,-0.357,+1.394,+100773.27
187523,+9.416,+1.867,+2.329,-0.356,-0.367,+1.376,+100774.34
187533,+9.411,+2.371,+2.268,-0.437,-0.364,+1.427,+100772.56
187542,+9.532,+2.747,+2.151,-0.476,-0.384,+1.516,+100772.56
187552,+9.886,+2.889,+1.727,-0.470,-0.415,+1.634,+100775.14
187563,+10.256,+3.044,+1.776,-0.448,-0.444,+1.770,+100772.84
187573,+10.647,+3.212,+1.546,-0.416,-0.477,+1.892,+100773.16
187583,+11.438,+3.374,+0.718,-0.398,-0.518,+2.011,+100771.53
187593,+11.476,+3.206,-0.234,-0.352,-0.566,+2.131,+100771.53
187602,+11.597,+3.157,-0.507,-0.315,-0.539,+2.270,+100776.55
187613,+12.123,+3.543,-0.466,-0.268,-0.526,+2.385,+100773.35
187623,+13.022,+4.157,+0.172,-0.181,-0.545,+2.470,+100773.51
187633,+14.176,+5.191,+1.722,-0.092,-0.553,+2.519,+100773.85
187642,+14.969,+5.918,+2.670,-0.076,-0.528,+2.552,+100773.85
187653,+15.670,+6.563,+2.568,-0.205,-0.498,+2.590,+100774.61
187663,+16.735,+8.878,+3.664,-0.336,-0.494,+2.543,+100770.75
187673,+17.561,+11.627,+4.391,-0.454,-0.480,+2.520,+100772.17
187682,+17.571,+13.717,+4.113,-0.595,-0.457,+2.588,+100771.91
187693,+18.058,+15.851,+5.081,-0.513,-0.384,+2.632,+100771.91
187703,+18.620,+14.882,+2.890,-0.583,-0.533,+2.911,+100774.41
187713,+15.162,+8.985,+0.771,-1.024,-1.149,+3.570,+100774.70
187723,+10.506,+3.356,+5.577,-1.313,-1.413,+3.916,+100770.28
187732,+12.252,+0.275,+6.142,-1.032,-0.991,+4.200,+100768.39
187743,+13.559,-1.622,+5.138,+0.066,-0.299,+4.237,+100768.39
187753,+15.844,-1.563,+8.074,+1.110,+0.302,+3.885,+100772.84
187763,+10.468,+0.437,+6.920,+1.509,+0.129,+3.237,+100772.32
187773,-1.429,-1.195,+1.087,+1.033,-0.214,+2.534,+100772.48
187783,+2.543,-2.823,+1.465,+0.171,-0.191,+2.199,+100769.16
187793,+4.090,+1.699,+3.990,-0.299,-0.231,+1.731,+100769.16
187803,-1.049,+5.987,+2.728,-0.401,-0.281,+0.665,+100774.12
187813,-1.790,+7.442,+2.293,-0.269,-0.106,-0.036,+100770.76
187823,-1.166,+6.030,+1.702,+0.020,-0.030,-0.288,+100768.87
187833,-0.701,+3.167,+1.401,+0.306,+0.052,-0.391,+100767.40
187843,-0.161,+1.243,+1.733,+0.523,+0.143,-0.611,+100767.40
187853,+0.341,+0.974,+2.275,+0.660,+0.215,-0.998,+100771.62
187863,+0.920,+1.672,+2.325,+0.820,+0.258,-1.483,+100769.63
187873,+1.280,+2.452,+2.155,+1.043,+0.274,-1.970,+100768.51
187883,+1.614,+2.747,+1.910,+1.264,+0.300,-2.408,+100768.15
187893,+1.945,+2.532,+1.808,+1.437,+0.341,-2.800,+100768.15
187904,+2.292,+2.058,+2.004,+1.533,+0.383,-3.166,+100771.16
187913,+2.778,+1.619,+2.234,+1.527,+0.400,-3.496,+100770.65
187923,+3.209,+1.448,+2.354,+1.451,+0.402,-3.800,+100765.62
187933,+3.670,+1.511,+2.415,+1.362,+0.407,-4.112,+100766.43
187943,+4.315,+1.796,+2.599,+1.258,+0.415,-4.435,+100766.43
187954,+5.333,+1.983,+2.490,+1.155,+0.409,-4.733,+100769.05
187963,+6.308,+2.007,+2.614,+1.032,+0.392,-4.996,+100769.01
187973,+7.236,+2.435,+2.620,+0.870,+0.383,-5.276,+100765.04
187983,+8.087,+2.874,+2.413,+0.737,+0.384,-5.521,+100766.76
187994,+8.729,+3.314,+2.578,+0.642,+0.393,-5.725,+100766.76
188003,+9.871,+3.836,+2.528,+0.566,+0.420,-5.943,+100771.42
188013,+11.376,+4.533,+2.401,+0.498,+0.471,-6.164,+100769.13
188023,+12.994,+5.235,+2.115,+0.512,+0.547,-6.371,+100766.73
188034,+15.002,+5.457,+2.275,+0.577,+0.599,-6.577,+100767.25
188043,+17.545,+5.194,+2.971,+0.585,+0.626,-6.756,+100767.25
188053,+20.360,+4.528,+3.618,+0.491,+0.650,-6.851,+100771.69
188063,+22.243,+3.295,+4.287,+0.206,+0.610,-6.778,+100771.53
188073,+23.473,+1.365,+5.470,-0.269,+0.510,-6.515,+100771.33
188084,+24.610,-1.459,+6.932,-0.750,+0.349,-6.004,+100773.52
188093,+25.585,-5.146,+6.962,-1.045,+0.196,-5.240,+100773.52
188103,+25.464,-9.774,+5.227,-1.131,+0.044,-4.275,+100774.98
188113,+23.060,-14.158,+2.876,-1.119,-0.104,-3.366,+100777.33
188124,+19.832,-16.796,+0.759,-1.092,-0.140,-2.653,+100775.55
188133,+19.255,-19.578,-0.541,-1.278,-0.054,-1.731,+100775.19
188143,+18.778,-21.112,-1.018,-1.178,-0.003,-0.606,+100775.19
188153,+18.266,-17.907,-1.742,-1.067,-0.081,+0.579,+100775.63
188164,+18.881,-10.411,-1.701,-0.867,-0.135,+1.603,+100775.34
188174,+15.520,-2.157,-4.554,-0.120,-0.145,+2.139,+100777.48
188183,+8.489,+9.288,-4.150,+1.052,+0.095,+2.232,+100774.41
188193,+1.709,+30.072,-0.192,+2.752,+0.868,+0.492,+100774.41
188204,+2.716,+39.411,-2.165,+1.474,+0.244,+0.002,+100775.55
188214,+19.412,+13.081,-5.588,-0.928,-0.316,+2.445,+100775.15
188224,+17.636,-8.866,-3.998,-0.354,-0.563,+4.718,+100775.35
188233,+14.648,-10.529,+1.937,+1.355,+0.263,+4.028,+100772.24
188243,+14.532,-2.635,+4.997,+1.324,+0.838,+2.585,+100772.24
188254,+9.949,+1.265,+2.599,+0.697,+0.773,+2.131,+100773.42
188264,+8.318,+3.338,+4.382,+0.892,+0.696,+2.105,+100772.00
188273,+6.962,+1.911,+5.033,+1.110,+0.477,+2.048,+100771.59
188283,+9.264,-1.035,+4.245,+0.860,+0.262,+1.928,+100774.08
188294,+10.008,-1.438,+3.396,+0.209,-0.082,+1.723,+100774.08
188304,+8.657,+0.033,+1.772,-0.407,-0.286,+1.359,+100774.30
188314,+9.531,+0.938,+1.097,-0.764,-0.302,+1.031,+100773.39
188323,+8.942,+1.708,+1.650,-0.857,-0.290,+0.800,+100773.73
188334,+8.276,+2.753,+2.276,-0.818,-0.241,+0.599,+100769.06
188344,+7.966,+3.527,+2.423,-0.703,-0.230,+0.472,+100769.06
188354,+7.856,+4.165,+1.921,-0.534,-0.203,+0.420,+100774.55
188363,+8.093,+4.576,+1.746,-0.336,-0.143,+0.437,+100774.09
188374,+8.248,+5.048,+1.655,-0.153,-0.065,+0.514,+100775.72
188384,+8.136,+5.352,+1.951,-0.007,+0.020,+0.646,+100774.09
188394,+7.934,+4.803,+2.921,+0.098,+0.049,+0.780,+100774.09
188404,+7.807,+4.119,+3.607,+0.128,+0.000,+0.843,+100774.41
188413,+7.768,+3.635,+4.012,+0.039,-0.064,+0.839,+100771.80
188424,+7.866,+3.186,+4.286,-0.144,-0.162,+0.802,+100773.65
188434,+7.833,+2.978,+3.605,-0.347,-0.255,+0.732,+100770.84
188444,+7.957,+3.097,+2.716,-0.516,-0.291,+0.686,+100770.84
188453,+8.190,+3.428,+2.131,-0.545,-0.287,+0.697,+100774.23
188464,+8.394,+3.640,+1.613,-0.483,-0.265,+0.758,+100774.28
188474,+8.561,+3.548,+1.386,-0.389,-0.235,+0.860,+100769.55
188484,+8.452,+3.890,+1.568,-0.284,-0.193,+0.967,+100772.91
188493,+8.476,+4.263,+2.408,-0.184,-0.162,+1.075,+100772.91
188504,+8.579,+4.050,+2.878,-0.144,-0.174,+1.178,+100774.91
188514,+8.537,+3.407,+3.006,-0.153,-0.191,+1.233,+100772.01
188524,+8.652,+2.431,+2.994,-0.227,-0.212,+1.249,+100770.79
188534,+8.601,+1.984,+2.610,-0.340,-0.236,+1.253,+100772.48
188544,+8.689,+2.178,+2.437,-0.454,-0.251,+1.258,+100772.48
188554,+8.673,+2.751,+2.214,-0.511,-0.276,+1.309,+100775.47
188564,+8.781,+3.103,+1.922,-0.497,-0.287,+1.390,+100772.86
188574,+8.989,+3.085,+1.928,-0.445,-0.284,+1.491,+100773.06
188584,+9.205,+2.633,+2.255,-0.375,-0.276,+1.565,+100771.19
188594,+9.433,+2.055,+2.660,-0.354,-0.280,+1.594,+100771.19
188604,+9.415,+1.700,+3.155,-0.422,-0.305,+1.597,+100772.76
188614,+9.649,+2.000,+3.091,-0.534,-0.333,+1.577,+100776.02
188624,+9.725,+2.434,+2.611,-0.604,-0.373,+1.609,+100773.01
188634,+9.819,+2.736,+2.202,-0.606,-0.411,+1.718,+100772.96
188644,+10.283,+2.963,+2.404,-0.582,-0.439,+1.853,+100772.96
188654,+11.087,+3.358,+2.060,-0.558,-0.495,+1.968,+100777.52
188664,+11.537,+3.616,+0.709,-0.555,-0.567,+2.065,+100772.54
188675,+11.506,+3.436,+0.155,-0.528,-0.546,+2.217,+100772.70
188684,+11.751,+3.479,-0.573,-0.498,-0.498,+2.376,+100773.55
188694,+12.188,+3.623,-0.507,-0.417,-0.482,+2.510,+100773.55
188704,+12.841,+4.247,+0.721,-0.314,-0.469,+2.619,+100773.41
188715,+13.904,+4.881,+2.128,-0.265,-0.444,+2.674,+100771.52
188724,+14.852,+5.698,+2.949,-0.316,-0.428,+2.693,+100768.73
188734,+15.728,+6.711,+3.459,-0.480,-0.413,+2.704,+100770.26
188744,+17.006,+9.101,+3.882,-0.722,-0.396,+2.682,+100770.26
188754,+17.912,+12.647,+4.405,-0.870,-0.388,+2.638,+100771.88
188765,+18.346,+15.551,+3.898,-0.986,-0.341,+2.635,+100771.47
188774,+19.903,+15.651,+2.535,-1.227,-0.464,+2.717,+100771.73
188784,+19.634,+14.353,+3.482,-1.554,-0.728,+3.047,+100770.70
188794,+16.509,+10.202,+0.949,-1.721,-1.091,+3.517,+100770.70
188805,+12.497,+3.662,+4.216,-1.849,-1.526,+4.076,+100775.01
188814,+13.469,+1.353,+6.067,-1.217,-0.962,+4.412,+100771.74
188824,+13.418,+0.005,+6.811,-0.055,-0.242,+4.315,+100770.63
188834,+10.758,+0.453,+8.732,+0.899,+0.257,+3.818,+100768.18
188845,+6.745,-0.495,+6.899,+1.173,+0.183,+3.066,+100768.18
188855,+1.760,-1.262,+3.388,+0.875,-0.041,+2.244,+100773.56
188864,+4.337,-0.651,+2.810,-0.153,-0.194,+1.614,+100770.86
188874,+0.934,+3.679,+3.151,-0.874,-0.366,+0.859,+100770.20
188884,-2.930,+7.267,+1.449,-1.062,-0.323,-0.045,+100768.16
188895,-2.660,+6.656,+1.427,-0.904,-0.177,-0.521,+100768.16
188904,-1.854,+4.393,+0.963,-0.588,-0.066,-0.733,+100774.63
188914,-1.095,+1.941,+0.727,-0.277,+0.048,-0.953,+100770.71
188924,-0.883,+0.771,+1.175,-0.008,+0.179,-1.293,+100769.79
188935,-0.476,+1.243,+1.526,+0.247,+0.312,-1.756,+100769.95
188945,-0.026,+2.334,+1.475,+0.505,+0.393,-2.254,+100769.95
188954,+0.432,+2.907,+1.370,+0.780,+0.453,-2.692,+100771.32
188964,+0.944,+2.981,+1.382,+1.031,+0.522,-3.063,+100768.41
188975,+1.559,+2.783,+1.699,+1.210,+0.582,-3.420,+100765.66
188985,+2.331,+2.526,+2.092,+1.304,+0.617,-3.771,+100766.23
188994,+3.113,+2.318,+2.256,+1.333,+0.636,-4.098,+100766.23
189004,+3.799,+2.305,+2.389,+1.334,+0.646,-4.402,+100767.65
189015,+4.564,+2.445,+2.516,+1.316,+0.651,-4.709,+100768.01
189025,+5.535,+2.686,+2.591,+1.286,+0.646,-5.005,+100764.18
189035,+6.487,+2.860,+2.634,+1.233,+0.635,-5.290,+100767.13
189044,+7.750,+3.275,+2.570,+1.152,+0.640,-5.576,+100767.13
189054,+8.695,+3.813,+2.613,+1.089,+0.632,-5.817,+100767.94
189065,+9.874,+4.069,+2.627,+1.038,+0.610,-6.038,+100768.55
189075,+11.485,+4.091,+2.616,+0.956,+0.603,-6.292,+100769.72
189084,+13.280,+4.044,+2.936,+0.839,+0.609,-6.582,+100769.41
189094,+15.568,+3.958,+3.290,+0.680,+0.642,-6.850,+100769.41
189105,+18.386,+3.691,+3.716,+0.457,+0.721,-7.018,+100770.48
189115,+21.088,+3.115,+3.961,+0.183,+0.779,-7.016,+100773.99
189125,+22.889,+2.143,+5.792,-0.080,+0.762,-6.857,+100771.85
189134,+25.100,-0.254,+7.962,-0.364,+0.656,-6.478,+100772.82
189145,+26.531,-3.751,+9.490,-0.580,+0.471,-5.840,+100772.82
189155,+26.642,-8.116,+7.608,-0.570,+0.306,-5.087,+100774.96
189165,+24.487,-12.849,+3.577,-0.716,+0.138,-4.141,+100773.93
189174,+21.697,-15.662,+0.574,-1.102,+0.047,-3.234,+100772.87
189185,+19.632,-16.035,-0.808,-1.192,+0.118,-2.480,+100775.91
189195,+18.796,-17.191,-0.997,-0.914,+0.234,-1.508,+100775.91
189205,+19.662,-19.109,-1.832,-0.802,+0.259,-0.305,+100777.09
189215,+19.363,-18.312,-3.545,-0.272,+0.124,+0.866,+100778.24
189224,+17.393,-13.304,-5.390,+0.231,+0.079,+1.779,+100774.34
189235,+13.881,-2.146,-4.633,+0.620,+0.172,+2.159,+100774.43
189245,+9.394,+8.913,-5.140,+1.440,+0.409,+1.955,+100774.43
189255,+2.630,+28.575,+0.736,+2.914,+0.859,+0.363,+100772.66
189264,+3.345,+38.753,+0.919,+1.500,+0.202,-0.303,+100775.66
189275,+19.779,+13.876,-3.865,-1.993,-0.682,+2.130,+100775.62
189285,+16.062,-7.675,-5.098,-1.783,-1.005,+4.398,+100775.05
189295,+14.121,-7.850,+4.922,+0.777,+0.234,+3.654,+100775.05
189305,+16.527,-1.256,+6.896,+1.252,+0.831,+2.401,+100773.95
189315,+11.975,-0.053,+2.657,+0.713,+0.472,+2.190,+100771.97
189325,+9.205,+1.508,+2.663,+0.555,+0.276,+2.209,+100774.02
189335,+7.128,+1.738,+2.371,+0.490,+0.131,+2.095,+100771.16
189345,+8.701,+0.303,+2.173,+0.386,+0.110,+1.895,+100771.16
189356,+8.835,-0.199,+3.082,+0.131,-0.023,+1.720,+100773.50
189365,+8.731,+0.095,+2.552,-0.197,-0.152,+1.429,+100773.45
189375,+9.083,+0.403,+1.758,-0.470,-0.235,+1.111,+100774.17
189385,+8.777,+1.444,+1.559,-0.618,-0.237,+0.820,+100774.31
189395,+8.410,+2.482,+2.021,-0.607,-0.209,+0.600,+100774.31
189405,+8.060,+3.364,+2.479,-0.521,-0.181,+0.463,+100772.45
189415,+8.054,+3.943,+2.437,-0.387,-0.154,+0.403,+100773.77
189425,+8.127,+4.241,+2.208,-0.261,-0.134,+0.414,+100772.34
189435,+8.173,+4.529,+2.283,-0.164,-0.107,+0.458,+100770.71
189445,+8.111,+4.680,+2.550,-0.115,-0.081,+0.544,+100770.71
189455,+8.017,+4.469,+2.966,-0.068,-0.087,+0.635,+100774.38
189465,+8.000,+3.897,+3.320,-0.040,-0.119,+0.691,+100774.74
189475,+8.025,+3.471,+3.581,-0.099,-0.165,+0.702,+100772.96
189486,+7.939,+3.397,+3.611,-0.232,-0.212,+0.684,+100772.55
189495,+7.921,+3.252,+3.284,-0.380,-0.251,+0.671,+100772.55
189505,+7.905,+3.473,+2.745,-0.462,-0.273,+0.676,+100773.30
189515,+8.026,+3.890,+2.473,-0.467,-0.260,+0.711,+100773.05
189526,+8.311,+3.964,+2.312,-0.420,-0.260,+0.803,+100772.39
189536,+8.269,+4.023,+2.051,-0.344,-0.270,+0.909,+100770.80
189545,+8.431,+3.853,+2.258,-0.273,-0.253,+0.999,+100770.80
189555,+8.760,+3.498,+2.230,-0.246,-0.270,+1.077,+100772.94
189565,+8.716,+3.271,+2.042,-0.273,-0.279,+1.133,+100772.98
189576,+8.728,+3.083,+2.281,-0.319,-0.257,+1.179,+100773.91
189585,+8.655,+2.950,+2.517,-0.354,-0.267,+1.228,+100774.16
189595,+8.629,+2.918,+2.446,-0.384,-0.271,+1.276,+100774.16
189605,+8.778,+2.796,+2.338,-0.389,-0.271,+1.335,+100771.91
189616,+8.912,+2.758,+2.368,-0.343,-0.282,+1.388,+100771.55
189626,+8.986,+2.494,+2.330,-0.328,-0.277,+1.428,+100771.14
189635,+9.090,+1.886,+1.973,-0.366,-0.260,+1.442,+100771.39
189645,+9.028,+1.584,+2.009,-0.397,-0.258,+1.418,+100771.39
189656,+9.156,+1.691,+2.313,-0.420,-0.279,+1.396,+100775.30
189666,+9.527,+2.264,+2.822,-0.444,-0.305,+1.411,+100771.59
189675,+9.715,+2.593,+3.494,-0.467,-0.333,+1.438,+100771.43
189685,+9.928,+2.586,+2.560,-0.535,-0.368,+1.524,+100771.23
189696,+9.982,+2.437,+1.970,-0.565,-0.418,+1.619,+100771.23
189706,+10.495,+2.889,+1.639,-0.575,-0.468,+1.724,+100774.95
189716,+11.372,+3.587,+0.621,-0.523,-0.560,+1.804,+100773.52
189725,+11.562,+3.756,+1.011,-0.440,-0.572,+1.937,+100771.69
189735,+11.799,+3.941,+0.260,-0.410,-0.522,+2.092,+100771.94
189746,+11.902,+3.931,-0.551,-0.378,-0.483,+2.257,+100771.94
189756,+11.570,+4.001,-0.511,-0.301,-0.454,+2.443,+100773.26
189765,+11.748,+4.257,+0.451,-0.196,-0.424,+2.584,+100773.51
189775,+12.779,+4.910,+1.913,-0.084,-0.426,+2.639,+100771.68
189786,+14.061,+5.586,+3.455,-0.058,-0.448,+2.632,+100769.95
189796,+15.423,+6.369,+4.359,-0.181,-0.451,+2.624,+100769.95
189806,+16.436,+8.428,+4.364,-0.443,-0.471,+2.603,+100776.24
189815,+17.274,+11.372,+4.894,-0.672,-0.524,+2.548,+100771.66
189826,+18.660,+14.631,+4.789,-0.832,-0.512,+2.555,+100773.35
189836,+20.764,+16.416,+3.880,-1.126,-0.699,+2.685,+100772.63
189846,+19.780,+15.485,+4.126,-1.538,-0.948,+3.068,+100772.63
189855,+16.066,+10.584,+1.382,-1.783,-1.315,+3.566,+100773.82
189865,+12.451,+4.289,+3.921,-1.676,-1.626,+4.119,+100772.13
189876,+13.674,+2.326,+6.067,-0.877,-0.969,+4.521,+100771.84
189886,+14.122,+0.997,+6.109,+0.344,-0.133,+4.442,+100770.15
189895,+11.397,+0.780,+8.371,+1.289,+0.360,+4.033,+100770.15
189905,+8.304,-0.491,+7.200,+1.443,+0.249,+3.365,+100768.66
189916,+1.848,-1.210,+3.011,+1.143,-0.082,+2.501,+100773.50
189926,+3.912,-1.502,+2.076,+0.174,-0.250,+1.839,+100771.36
189936,+1.992,+2.796,+3.290,-0.540,-0.340,+1.190,+100770.64
189945,-1.812,+7.201,+1.553,-0.685,-0.328,+0.205,+100770.64
189956,-2.094,+7.045,+1.512,-0.564,-0.226,-0.311,+100771.80
189966,-1.681,+4.988,+0.871,-0.300,-0.157,-0.513,+100768.50
189976,-0.926,+2.723,+0.645,-0.006,-0.063,-0.706,+100766.50
189986,-0.554,+1.500,+1.080,+0.267,+0.040,-1.026,+100768.91
189996,-0.216,+1.678,+1.484,+0.493,+0.143,-1.472,+100768.91
190006,+0.287,+2.196,+1.468,+0.700,+0.202,-1.954,+100772.01
190016,+0.796,+2.368,+1.251,+0.912,+0.227,-2.385,+100767.99
190026,+1.206,+2.317,+1.242,+1.097,+0.259,-2.758,+100768.04
190035,+1.600,+2.250,+1.498,+1.222,+0.297,-3.132,+100766.26
190046,+2.100,+2.294,+1.919,+1.272,+0.329,-3.527,+100766.26
190056,+2.719,+2.309,+2.141,+1.255,+0.347,-3.919,+100768.55
190066,+3.268,+2.274,+2.136,+1.211,+0.353,-4.280,+100767.88
190076,+3.821,+2.400,+2.192,+1.139,+0.352,-4.609,+100768.76
190086,+4.583,+2.378,+2.204,+1.046,+0.347,-4.902,+100765.60
190096,+5.535,+2.170,+2.411,+0.879,+0.343,-5.197,+100765.60
190106,+6.288,+2.517,+2.450,+0.678,+0.361,-5.508,+100769.70
190116,+7.619,+3.261,+2.464,+0.510,+0.403,-5.788,+100766.66
190126,+8.869,+3.911,+2.465,+0.419,+0.431,-6.028,+100766.34
190136,+10.163,+4.277,+2.324,+0.376,+0.475,-6.269,+100766.95
190146,+11.922,+4.335,+2.307,+0.330,+0.539,-6.570,+100766.95
190156,+13.654,+4.505,+2.530,+0.290,+0.597,-6.831,+100768.91
190167,+16.399,+4.550,+3.234,+0.229,+0.708,-7.075,+100770.40
190176,+20.143,+4.441,+3.677,+0.175,+0.907,-7.185,+100770.15
190186,+22.580,+3.014,+3.891,+0.054,+0.947,-7.071,+100771.73
190196,+23.667,+1.023,+5.525,-0.131,+0.897,-6.833,+100771.73
190206,+26.208,-1.787,+6.541,-0.529,+0.739,-6.368,+100774.00
190217,+28.051,-5.560,+6.625,-0.829,+0.539,-5.629,+100774.09
190226,+28.107,-10.113,+4.439,-0.903,+0.334,-4.641,+100774.00
190236,+26.019,-14.611,+1.817,-0.813,+0.165,-3.593,+100771.81
190246,+22.507,-18.046,+0.896,-0.576,+0.147,-2.642,+100771.81
190257,+18.963,-19.692,+1.131,-0.309,+0.280,-1.745,+100776.02
190266,+20.483,-21.004,-0.197,-0.270,+0.398,-0.582,+100774.89
190276,+21.983,-18.340,-1.169,+0.214,+0.368,+0.460,+100775.75
190286,+19.130,-15.204,-5.469,+0.845,+0.217,+1.670,+100777.44
190297,+12.169,-4.562,-8.890,+1.313,+0.180,+2.698,+100777.44
190306,+8.876,+19.232,-4.441,+2.499,+0.710,+1.763,+100776.30
190316,+2.773,+45.330,-5.965,+3.537,+0.713,-0.952,+100775.04
190326,+16.496,+22.100,-2.968,-1.313,-0.207,+1.840,+100771.98
190337,+17.221,-10.236,-3.940,-2.217,-0.803,+5.207,+100772.74
190347,+12.264,-12.749,+4.775,+0.892,+0.100,+4.259,+100772.74
190356,+15.319,-2.050,+8.737,+1.472,+1.121,+2.392,+100777.25
190366,+11.637,+0.637,+3.601,+0.692,+0.809,+2.187,+100771.50
190376,+8.710,+3.263,+3.714,+0.833,+0.585,+2.206,+100773.02
190387,+6.811,+2.517,+3.818,+0.991,+0.216,+2.021,+100772.27
190396,+8.769,+0.174,+2.361,+0.642,+0.122,+1.928,+100772.27
190406,+9.446,-1.180,+2.580,+0.124,-0.144,+1.799,+100775.05
190416,+8.781,-0.377,+1.845,-0.396,-0.307,+1.492,+100773.02
190427,+9.259,+0.369,+1.273,-0.726,-0.347,+1.131,+100774.33
190437,+8.644,+2.139,+0.983,-0.884,-0.327,+0.842,+100770.27
190446,+7.969,+4.023,+0.995,-0.843,-0.206,+0.660,+100770.27
190456,+7.751,+4.954,+1.223,-0.568,-0.025,+0.619,+100773.48
190467,+8.176,+5.156,+2.490,-0.250,+0.074,+0.700,+100773.32
190477,+8.263,+4.809,+3.032,-0.057,+0.016,+0.803,+100771.29
190486,+8.251,+4.654,+2.700,+0.053,-0.037,+0.868,+100770.79
190496,+8.123,+4.476,+3.082,+0.182,-0.084,+0.913,+100770.79
190507,+8.000,+4.128,+3.349,+0.176,-0.131,+0.967,+100775.14
190517,+7.972,+3.296,+3.478,+0.096,-0.197,+0.987,+100773.41
190527,+8.129,+2.541,+3.247,-0.009,-0.260,+0.956,+100774.02
190536,+8.224,+2.620,+2.774,-0.178,-0.279,+0.878,+100771.22
190546,+8.251,+3.217,+2.123,-0.338,-0.277,+0.837,+100771.22
190557,+8.413,+3.696,+1.541,-0.384,-0.281,+0.862,+100775.93
190567,+8.657,+3.639,+1.267,-0.310,-0.259,+0.933,+100771.76
190576,+8.675,+3.326,+1.576,-0.224,-0.246,+1.019,+100771.82
190586,+8.526,+3.062,+2.082,-0.159,-0.248,+1.072,+100772.23
190597,+8.511,+2.771,+2.202,-0.133,-0.267,+1.106,+100772.23
190607,+8.583,+2.647,+2.083,-0.130,-0.280,+1.121,+100775.38
190617,+8.689,+2.429,+2.113,-0.150,-0.273,+1.121,+100774.77
190626,+8.759,+2.143,+2.160,-0.196,-0.264,+1.110,+100771.97
190637,+8.804,+1.872,+2.152,-0.265,-0.251,+1.078,+100772.27
190647,+8.807,+1.811,+1.933,-0.347,-0.246,+1.040,+100772.27
190657,+8.917,+2.004,+1.964,-0.404,-0.243,+1.019,+100772.38
190667,+9.042,+2.358,+1.995,-0.421,-0.248,+1.014,+100773.15
190676,+9.048,+2.471,+1.862,-0.415,-0.235,+1.035,+100771.57
190687,+9.077,+2.307,+1.478,-0.406,-0.228,+1.082,+100771.26
190697,+9.119,+2.315,+1.415,-0.385,-0.238,+1.147,+100771.26
190707,+9.287,+2.591,+1.894,-0.356,-0.251,+1.216,+100773.38
190716,+9.459,+2.707,+2.282,-0.340,-0.278,+1.301,+100774.14
190727,+9.562,+2.828,+2.500,-0.364,-0.303,+1.402,+100772.36
190737,+9.718,+2.694,+2.366,-0.397,-0.338,+1.509,+100772.66
190747,+10.035,+2.694,+2.362,-0.454,-0.376,+1.626,+100772.66
190757,+10.744,+3.084,+1.325,-0.506,-0.453,+1.707,+100775.90
190767,+11.113,+3.295,+1.040,-0.495,-0.508,+1.800,+100775.02
190777,+11.567,+3.931,+0.973,-0.468,-0.512,+1.924,+100773.40
190787,+11.789,+4.123,+0.103,-0.420,-0.491,+2.077,+100772.27
190797,+11.730,+4.206,-0.609,-0.341,-0.458,+2.270,+100772.27
190807,+11.555,+4.139,-0.608,-0.227,-0.415,+2.462,+100774.05
190817,+11.810,+4.256,-0.306,-0.110,-0.392,+2.619,+100774.41
190827,+12.597,+4.714,+0.825,-0.031,-0.396,+2.709,+100771.09
190837,+13.862,+5.445,+2.247,-0.019,-0.415,+2.718,+100769.56
190846,+15.630,+6.024,+3.712,-0.134,-0.411,+2.685,+100769.56
190857,+16.977,+7.941,+4.075,-0.381,-0.407,+2.623,+100772.86
190867,+17.993,+11.197,+4.796,-0.642,-0.444,+2.529,+100771.38
190877,+18.391,+14.827,+4.973,-0.821,-0.471,+2.497,+100770.72
190887,+19.713,+16.776,+3.536,-1.099,-0.597,+2.659,+100770.20
190897,+19.225,+15.759,+3.732,-1.486,-0.880,+3.101,+100770.20
190907,+16.569,+11.013,+1.690,-1.616,-1.156,+3.603,+100771.63
190917,+13.522,+3.791,+3.770,-1.623,-1.566,+4.182,+100771.32
190927,+14.147,+1.560,+6.945,-1.024,-1.109,+4.519,+100771.68
190938,+14.911,+0.475,+6.624,+0.115,-0.377,+4.394,+100772.04
190947,+12.009,+0.512,+8.375,+1.099,+0.100,+4.008,+100772.04
190957,+9.094,+0.008,+7.445,+1.436,+0.129,+3.320,+100771.53
190967,+0.220,-1.350,+2.833,+1.251,-0.188,+2.486,+100768.58
190978,+4.707,-3.368,+2.391,+0.420,-0.221,+2.054,+100768.83
190987,+3.750,+2.170,+3.783,-0.052,-0.331,+1.381,+100769.75
190997,-2.487,+6.609,+2.069,-0.237,-0.348,+0.293,+100769.75
191007,-2.840,+7.153,+1.740,-0.242,-0.146,-0.260,+100768.77
191017,-2.192,+5.274,+1.195,+0.008,-0.076,-0.469,+100768.92
191028,-1.499,+2.240,+0.970,+0.253,-0.007,-0.589,+100768.61
191037,-1.086,+0.633,+1.402,+0.426,+0.077,-0.852,+100767.69
191047,-0.617,+0.824,+1.945,+0.565,+0.177,-1.283,+100767.69
191057,-0.112,+1.714,+1.989,+0.746,+0.258,-1.779,+100773.41
191068,+0.280,+2.366,+1.649,+1.017,+0.312,-2.248,+100770.05
191077,+0.792,+2.427,+1.441,+1.291,+0.360,-2.657,+100769.53
191087,+1.440,+2.111,+1.534,+1.501,+0.412,-3.027,+100766.06
191097,+1.921,+1.952,+1.868,+1.614,+0.451,-3.399,+100766.06
191108,+2.524,+1.857,+2.241,+1.650,+0.473,-3.769,+100770.91
191118,+3.205,+1.897,+2.548,+1.632,+0.479,-4.122,+100767.90
191127,+3.713,+2.073,+2.683,+1.584,+0.470,-4.466,+100767.55
191137,+4.368,+2.451,+2.684,+1.507,+0.454,-4.809,+100766.63
191148,+5.240,+2.719,+2.677,+1.399,+0.431,-5.127,+100766.63
191158,+6.332,+2.762,+2.704,+1.245,+0.424,-5.427,+100767.92
191167,+7.728,+2.971,+2.711,+1.082,+0.433,-5.699,+100768.02
191177,+8.769,+3.398,+2.917,+0.934,+0.429,-5.934,+100767.11
191187,+10.054,+3.555,+2.918,+0.783,+0.405,-6.173,+100769.55
191198,+11.626,+3.798,+2.741,+0.634,+0.397,-6.444,+100769.55
191208,+13.397,+4.152,+2.726,+0.518,+0.408,-6.760,+100770.16
191217,+15.701,+4.545,+3.034,+0.409,+0.459,-7.073,+100767.84
191227,+18.998,+4.658,+3.922,+0.263,+0.576,-7.286,+100770.57
191238,+22.585,+3.537,+3.970,+0.034,+0.706,-7.296,+100770.88
191248,+23.605,+1.946,+5.143,-0.324,+0.618,-7.108,+100770.88
191257,+25.036,+0.282,+6.801,-0.714,+0.525,-6.792,+100773.19
191267,+26.890,-2.679,+7.954,-1.110,+0.353,-6.177,+100773.30
191278,+27.510,-6.603,+6.945,-1.314,+0.187,-5.296,+100771.97
191288,+25.890,-11.955,+3.655,-1.378,-0.012,-4.171,+100773.03
191298,+22.503,-16.504,+0.761,-1.364,-0.096,-3.106,+100773.03
191307,+19.697,-18.799,-0.551,-1.241,+0.006,-2.255,+100777.48
191318,+19.507,-21.053,-1.201,-1.314,+0.122,-1.212,+100775.20
191328,+19.126,-21.578,-2.176,-1.015,+0.091,+0.091,+100774.48
191338,+18.622,-16.648,-3.180,-0.728,+0.038,+1.158,+100772.05
191347,+17.482,-10.724,-3.974,-0.370,-0.017,+2.171,+100772.05
191357,+12.933,+1.047,-3.628,+0.257,+0.081,+2.464,+100776.27
191368,+8.530,+14.557,-2.740,+1.603,+0.518,+1.716,+100772.95
191378,-1.060,+36.178,+0.217,+3.197,+0.981,-0.290,+100772.25
191388,+4.490,+35.210,-1.061,+0.664,+0.158,+0.149,+100772.25
191397,+18.917,+9.458,-5.542,-1.110,-0.451,+2.666,+100772.25
191408,+15.890,-7.356,-4.967,-0.436,-0.607,+4.407,+100776.29
191418,+13.875,-9.042,+1.285,+0.928,+0.162,+3.680,+100772.52
191428,+14.785,-3.270,+5.769,+0.967,+0.732,+2.404,+100769.62
191437,+12.012,-0.809,+4.320,+0.499,+0.645,+2.021,+100772.57
191448,+10.005,+1.964,+4.465,+0.522,+0.462,+1.955,+100772.57
191458,+8.064,+1.925,+3.447,+0.593,+0.201,+1.844,+100774.95
191468,+8.346,+0.501,+2.027,+0.348,+0.102,+1.726,+100773.89
191478,+8.802,+0.548,+2.866,+0.007,+0.005,+1.554,+100772.67
191488,+8.431,+1.061,+2.909,-0.274,-0.102,+1.334,+100769.81
191498,+9.233,+1.076,+2.149,-0.428,-0.168,+1.076,+100769.81
191508,+8.887,+1.463,+1.759,-0.558,-0.229,+0.843,+100773.37
191518,+8.371,+2.239,+1.769,-0.626,-0.211,+0.619,+100772.40
191528,+8.014,+3.229,+2.064,-0.597,-0.173,+0.461,+100772.51
191538,+7.964,+4.218,+2.064,-0.462,-0.115,+0.393,+100770.12
