90033,8.806,-1.403,2.596,0.004538,0.004499,0.015273,100758.00
90043,8.799,-1.347,2.646,0.002409,0.004499,0.016338,100755.64
90053,8.756,-1.311,2.681,0.002941,0.002371,0.018998,100756.84
90063,8.769,-1.349,2.713,0.006666,0.001839,0.019530,100756.84
90074,8.779,-1.415,2.664,0.008794,-0.000290,0.020594,100759.67
90083,8.764,-1.387,2.622,0.005070,-0.001886,0.021127,100758.78
90093,8.768,-1.359,2.594,0.002941,-0.000290,0.019530,100758.98
90103,8.806,-1.360,2.624,0.005602,0.002371,0.017402,100758.98
90114,8.841,-1.404,2.643,0.009327,0.001839,0.019530,100759.48
90123,8.826,-1.392,2.643,0.007198,0.002371,0.019530,100759.48
90133,8.790,-1.398,2.647,0.007198,0.002903,0.020062,100758.81
90143,8.797,-1.393,2.625,0.006134,0.002903,0.020062,100756.19
90153,8.816,-1.403,2.679,0.004005,0.002371,0.021127,100755.92
90163,8.805,-1.374,2.631,0.004005,0.002371,0.025916,100755.92
90173,8.770,-1.352,2.606,0.002941,0.003967,0.029108,100759.09
90183,8.774,-1.317,2.629,0.004538,0.006096,0.032301,100757.82
90193,8.814,-1.310,2.658,0.011987,0.007692,0.038154,100756.51
90204,8.864,-1.251,2.672,0.018905,0.006628,0.041347,100756.46
90213,8.848,-1.304,2.712,0.029015,0.007160,0.041347,100762.07
90223,8.835,-1.499,2.636,0.042317,0.003435,0.037622,100757.76
90233,8.832,-1.579,2.602,0.041785,0.002903,0.031769,100757.76
90243,8.788,-1.537,2.560,0.030079,0.006096,0.025383,100757.82
90253,8.756,-1.474,2.581,0.020501,0.008224,0.020594,100759.29
90263,8.761,-1.471,2.603,0.018905,0.010353,0.015273,100759.29
90273,8.717,-1.362,2.639,0.019969,0.012481,0.014209,100758.38
90283,8.737,-1.354,2.697,0.023161,0.013545,0.014209,100759.91
90293,8.890,-1.536,2.671,0.025822,0.014610,0.012081,100757.23
90303,8.912,-1.543,2.639,0.007198,0.014077,0.008888,100757.17
90313,8.883,-1.453,2.627,-0.013554,0.015142,0.001971,100757.17
90323,8.787,-1.449,2.578,-0.017811,0.020463,-0.000158,100758.66
90334,8.785,-1.365,2.575,-0.009297,0.022059,-0.000690,100757.53
90343,8.788,-1.362,2.710,0.001345,0.023123,-0.000690,100759.52
90353,8.770,-1.451,2.703,0.010391,0.023123,0.000374,100759.52
90363,8.736,-1.500,2.658,0.009327,0.020995,0.000906,100759.52
90373,8.705,-1.500,2.600,0.001877,0.021527,0.000374,100759.62
90383,8.726,-1.431,2.631,-0.002380,0.023655,-0.000690,100759.20
90393,8.695,-1.213,2.785,0.001877,0.026316,-0.001754,100758.20
90403,8.733,-1.302,2.858,0.023161,0.028444,-0.000690,100757.52
90414,8.984,-1.502,2.705,0.024226,0.026848,-0.001754,100757.52
90423,9.052,-1.458,2.569,0.009859,0.024187,-0.007075,100758.88
90433,8.911,-1.457,2.587,0.005070,0.026848,-0.004415,100758.99
90443,8.790,-1.532,2.628,-0.008765,0.027380,-0.005479,100753.96
90454,8.766,-1.496,2.666,-0.031646,0.032701,-0.008672,100753.96
90464,8.723,-1.373,2.734,-0.041224,0.033765,-0.009204,100758.41
90473,8.718,-1.302,2.749,-0.032178,0.034298,-0.000690,100758.41
90483,8.700,-1.164,2.830,-0.011426,0.031637,0.004631,100757.52
90493,8.712,-1.449,2.788,0.013051,0.030573,0.006760,100758.77
90503,8.745,-1.678,2.637,0.015180,0.026848,0.003035,100757.30
90513,8.736,-1.652,2.645,0.001345,0.028444,-0.004415,100757.30
90523,8.738,-1.538,2.670,-0.008765,0.030573,-0.012928,100756.72
90533,8.755,-1.480,2.645,-0.009829,0.032169,-0.017717,100758.77
90544,8.748,-1.381,2.678,-0.005573,0.033233,-0.018250,100758.03
90554,8.747,-1.427,2.681,0.001345,0.035362,-0.018250,100758.11
90563,8.800,-1.386,2.699,-0.002912,0.036426,-0.015057,100759.84
90573,8.881,-1.364,2.782,-0.008765,0.038554,-0.017185,100758.27
90584,8.905,-1.440,2.761,-0.007169,0.036958,-0.018250,100758.27
90593,8.809,-1.471,2.745,-0.009297,0.031637,-0.018250,100756.86
90603,8.735,-1.417,2.737,-0.014086,0.031637,-0.020378,100756.38
90613,8.729,-1.437,2.766,-0.016215,0.031105,-0.018250,100756.38
90624,8.685,-1.438,2.749,-0.014618,0.028976,-0.015589,100759.00
90633,8.633,-1.383,2.727,-0.012490,0.027912,-0.010268,100757.53
90643,8.617,-1.296,2.751,-0.006105,0.029509,-0.003883,100756.17
90653,8.660,-1.279,2.831,0.002941,0.028976,0.004631,100756.55
90663,8.755,-1.301,2.841,0.009859,0.025252,0.009952,100756.55
90674,8.823,-1.322,2.837,0.016244,0.023655,0.012081,100758.09
90683,8.836,-1.420,2.798,0.021033,0.020463,0.012081,100758.01
90693,8.806,-1.517,2.702,0.014648,0.018334,0.010484,100754.59
90703,8.742,-1.519,2.675,0.004005,0.020995,0.005695,100754.59
90714,8.744,-1.451,2.695,-0.002380,0.024187,0.002503,100754.59
90723,8.773,-1.390,2.705,-0.001848,0.027380,0.003567,100758.69
90733,8.794,-1.407,2.727,0.001345,0.028976,0.006760,100756.53
90743,8.766,-1.385,2.726,0.003473,0.030041,0.009420,100757.84
90754,8.747,-1.360,2.791,0.005070,0.030041,0.011549,100757.11
90764,8.738,-1.286,2.855,0.006134,0.027912,0.015805,100757.11
90773,8.743,-1.200,2.926,0.013051,0.027380,0.020594,100758.48
90783,8.805,-1.369,2.918,0.029547,0.022591,0.023255,100758.23
90793,8.828,-1.516,2.835,0.034868,0.017270,0.022723,100756.28
90804,8.761,-1.539,2.743,0.022097,0.015142,0.019530,100756.28
90814,8.714,-1.501,2.725,0.011987,0.016206,0.014741,100760.76
90823,8.715,-1.470,2.725,0.009859,0.020463,0.013145,100760.76
90833,8.711,-1.415,2.697,0.012519,0.022591,0.015805,100758.13
90844,8.700,-1.359,2.751,0.021033,0.025252,0.020062,100755.88
90853,8.711,-1.366,2.809,0.028483,0.026848,0.026980,100757.46
90859,8.705,-1.317,2.821,0.033271,0.025784,0.032301,100757.46
90868,8.695,-1.171,2.873,0.039125,0.024187,0.038686,100757.24
90878,8.694,-1.281,2.962,0.056152,0.024187,0.045071,100758.93
90889,8.758,-1.419,2.861,0.065198,0.018866,0.045071,100760.18
90898,8.798,-1.356,2.921,0.064134,0.017802,0.043475,100756.66
90908,8.851,-1.232,3.073,0.072648,0.014077,0.040815,100756.66
90918,8.946,-1.304,2.980,0.088079,0.006628,0.034429,100757.27
90929,8.949,-1.584,2.757,0.100849,0.002903,0.037622,100757.02
90938,8.779,-1.785,2.627,0.078501,-0.001886,0.037090,100759.74
90948,8.663,-1.644,2.660,0.035400,0.007160,0.028576,100757.27
90958,8.665,-1.427,2.705,0.020501,0.017802,0.026980,100757.27
90969,8.663,-1.423,2.794,0.033271,0.021527,0.030705,100759.54
90979,8.676,-1.547,2.762,0.048703,0.026316,0.030705,100755.62
90988,8.627,-1.557,2.801,0.043382,0.028976,0.028576,100759.70
90998,8.612,-1.422,2.925,0.040721,0.032169,0.027512,100755.98
91009,8.723,-1.615,2.869,0.055088,0.030573,0.023787,100755.98
91019,8.764,-1.653,2.822,0.052960,0.025784,0.020594,100757.91
91028,8.684,-1.615,2.794,0.042317,0.026848,0.016338,100759.65
91038,8.697,-1.590,2.761,0.022629,0.028976,0.012613,100759.34
91048,8.705,-1.495,2.742,0.009859,0.032701,0.015273,100756.29
91059,8.677,-1.332,2.755,0.007730,0.037490,0.022723,100756.29
91069,8.697,-1.318,2.772,0.013051,0.044408,0.030172,100758.12
91078,8.804,-1.408,2.744,0.022097,0.050261,0.038154,100759.54
91088,8.812,-1.422,2.815,0.024758,0.053454,0.039750,100755.91
91095,8.812,-1.642,2.880,0.025822,0.054518,0.037622,100755.98
91104,8.828,-1.778,2.813,0.015712,0.055582,0.033897,100755.98
91113,8.732,-1.751,2.775,-0.011958,0.057178,0.025916,100755.98
91123,8.654,-1.562,2.809,-0.034306,0.063032,0.016870,100757.58
91133,8.683,-1.434,2.809,-0.031114,0.065692,0.017934,100756.84
91144,8.665,-1.410,2.842,-0.012490,0.068885,0.022723,100756.25
91154,8.669,-1.457,2.898,0.005070,0.071013,0.026448,100756.25
91163,8.624,-1.494,2.951,0.015712,0.068353,0.033897,100759.66
91173,8.542,-1.384,2.998,0.015180,0.069417,0.039218,100759.66
91184,8.599,-1.246,3.067,0.025290,0.070481,0.042411,100757.92
91194,8.673,-1.160,3.118,0.054024,0.065692,0.048796,100758.92
91203,8.718,-1.240,3.181,0.093932,0.058243,0.059438,100757.81
91213,8.811,-1.389,3.123,0.116813,0.051857,0.063163,100757.81
91224,8.847,-1.573,3.106,0.115749,0.045472,0.061035,100760.02
91234,8.827,-1.751,2.997,0.092336,0.042811,0.055182,100759.87
91244,8.709,-1.768,2.985,0.050299,0.042279,0.046136,100758.98
91253,8.652,-1.707,2.924,0.015180,0.047068,0.038686,100758.62
91264,8.665,-1.593,2.872,-0.005573,0.049729,0.034961,100759.65
91274,8.676,-1.356,2.998,0.004005,0.050261,0.038154,100755.82
91284,8.597,-1.415,3.071,0.029547,0.049197,0.044539,100757.71
91293,8.578,-1.610,2.957,0.040189,0.046536,0.049328,100757.71
91303,8.632,-1.537,3.064,0.035400,0.046536,0.052521,100758.18
91314,8.695,-1.262,3.122,0.041785,0.047600,0.057842,100758.18
91324,8.733,-1.302,3.220,0.068923,0.040151,0.066888,100759.22
91333,8.741,-1.508,3.077,0.082226,0.033233,0.074338,100758.38
91343,8.699,-1.707,3.021,0.059345,0.032701,0.075934,100755.91
91354,8.712,-1.814,2.752,0.014116,0.039087,0.068484,100755.13
91364,8.708,-1.784,2.660,-0.021004,0.047068,0.066356,100755.13
91374,8.673,-1.560,2.813,-0.031114,0.052921,0.065824,100759.44
91383,8.605,-1.337,3.015,-0.001316,0.059839,0.070613,100756.27
91394,8.586,-1.510,3.109,0.043382,0.058243,0.076998,100756.95
91404,8.508,-1.508,3.246,0.065730,0.049729,0.080723,100756.95
91413,8.454,-1.416,3.381,0.082758,0.044408,0.084980,100756.95
91423,8.460,-1.458,3.368,0.097125,0.034830,0.091897,100759.17
91433,8.477,-1.541,3.242,0.105638,0.028976,0.100943,100758.38
91444,8.463,-1.571,3.089,0.101914,0.028444,0.107860,100756.97
91454,8.575,-1.622,3.035,0.100849,0.033233,0.111053,100757.97
91463,8.630,-1.468,3.056,0.103510,0.034298,0.117971,100757.97
91473,8.623,-1.329,3.083,0.122666,0.036958,0.130209,100761.02
91484,8.697,-1.548,3.061,0.147143,0.039087,0.139787,100758.55
91494,8.714,-1.767,3.058,0.144482,0.040683,0.143512,100758.31
91504,8.683,-1.845,3.090,0.118941,0.041747,0.137126,100758.31
91513,8.706,-1.876,3.133,0.097125,0.041747,0.130209,100758.38
91524,8.616,-1.812,3.080,0.080097,0.041215,0.124356,100758.38
91534,8.633,-1.718,3.059,0.075308,0.046004,0.119567,100756.44
91544,8.685,-1.744,3.044,0.083290,0.048132,0.119567,100755.70
91553,8.611,-1.824,3.021,0.078501,0.048665,0.119035,100756.95
91565,8.570,-1.836,3.119,0.055620,0.054163,0.116019,100762.27
91574,8.577,-1.797,3.214,0.030611,0.059307,0.117438,100762.27
91584,8.627,-1.730,3.280,0.004005,0.058243,0.116374,100757.80
91594,8.635,-1.726,3.291,-0.011426,0.053454,0.120099,100754.66
91603,8.660,-1.875,3.259,-0.026325,0.048665,0.117971,100756.13
91614,8.731,-2.108,3.134,-0.064105,0.044940,0.114778,100758.32
91624,8.785,-2.085,3.018,-0.117848,0.043876,0.113182,100761.10
91634,8.833,-1.937,2.970,-0.166270,0.047068,0.117438,100757.84
91643,8.780,-1.863,2.992,-0.206178,0.053454,0.125420,100757.84
91654,8.842,-1.867,3.090,-0.257260,0.060371,0.137126,100757.16
91664,8.899,-1.648,3.114,-0.299829,0.059839,0.148301,100757.16
91674,8.796,-1.367,3.372,-0.295040,0.052921,0.172246,100757.05
91683,8.626,-1.391,3.510,-0.255664,0.039619,0.198851,100759.74
91694,8.560,-1.726,3.390,-0.220545,0.026848,0.220668,100755.49
91704,8.512,-1.878,3.368,-0.210967,0.017802,0.232374,100755.96
91714,8.515,-1.949,3.478,-0.219481,0.012481,0.243548,100755.96
91724,8.606,-2.024,3.389,-0.241297,0.006628,0.249402,100757.09
91734,8.660,-1.986,3.314,-0.254068,-0.003482,0.255787,100757.06
91744,8.606,-1.842,3.329,-0.249811,-0.013592,0.265365,100755.44
91754,8.648,-1.853,3.311,-0.232783,-0.016785,0.279732,100755.44
91763,8.721,-2.036,3.277,-0.229059,-0.021574,0.290374,100755.44
91773,8.709,-2.160,3.290,-0.248215,-0.022638,0.299420,100759.65
91784,8.658,-2.192,3.286,-0.279609,-0.018381,0.302613,100758.23
91794,8.691,-2.331,3.267,-0.305150,-0.016785,0.302080,100758.34
91804,8.665,-2.507,3.224,-0.343994,-0.010400,0.294631,100756.98
91813,8.679,-2.518,3.208,-0.384435,-0.004014,0.285053,100756.98
91824,8.624,-2.444,3.133,-0.404655,-0.001886,0.277071,100760.23
91834,8.515,-2.422,3.146,-0.407847,-0.002950,0.276539,100756.71
91844,8.496,-2.381,3.042,-0.403058,-0.002418,0.277071,100756.60
91854,8.495,-2.485,3.038,-0.392416,-0.007739,0.288246,100756.60
91864,8.526,-2.282,3.104,-0.388159,-0.012528,0.303145,100756.11
91874,8.447,-2.235,3.283,-0.383370,-0.023170,0.321236,100756.11
91884,8.474,-2.330,3.280,-0.375921,-0.025299,0.339860,100757.95
91894,8.438,-2.417,3.355,-0.388159,-0.024234,0.356888,100756.42
91904,8.518,-2.418,3.056,-0.398802,-0.017317,0.365402,100755.64
91915,8.532,-2.443,2.942,-0.386740,-0.026008,0.387041,100759.73
91924,8.592,-2.501,2.870,-0.353572,-0.033280,0.404246,100759.73
91934,8.544,-2.661,2.988,-0.322178,-0.033812,0.420741,100760.20
91943,8.629,-2.828,2.919,-0.309407,-0.031152,0.427658,100759.09
91954,8.530,-3.056,2.944,-0.322178,-0.033280,0.430851,100756.26
91964,8.436,-3.127,2.991,-0.345059,-0.030620,0.427126,100758.94
91974,8.313,-3.007,3.062,-0.359425,-0.022106,0.423402,100755.05
91984,8.391,-2.968,2.874,-0.361554,-0.024234,0.422869,100755.11
91994,8.410,-2.942,2.878,-0.340270,-0.036473,0.437236,100755.11
92004,8.407,-2.865,3.004,-0.305150,-0.044987,0.454796,100755.73
92014,8.500,-2.782,2.944,-0.283334,-0.054033,0.474484,100755.73
92024,8.644,-2.873,2.819,-0.257793,-0.069996,0.503218,100758.30
92034,8.815,-3.061,2.780,-0.228527,-0.085427,0.532484,100756.41
92044,8.955,-3.169,2.921,-0.227994,-0.098198,0.558557,100754.74
92054,8.888,-3.239,2.948,-0.242361,-0.103519,0.581970,100756.16
92064,8.835,-3.276,2.841,-0.269499,-0.108840,0.604319,100756.16
92075,8.729,-3.397,2.815,-0.306215,-0.118418,0.629860,100757.89
92084,8.720,-3.318,2.829,-0.336013,-0.127996,0.652209,100755.98
92094,8.787,-3.280,2.858,-0.349848,-0.135978,0.680943,100755.56
92104,8.964,-3.304,2.849,-0.350380,-0.147152,0.716062,100755.56
92113,9.435,-3.237,2.782,-0.354104,-0.167372,0.752245,100755.56
92124,10.088,-3.182,2.787,-0.345059,-0.202491,0.791089,100759.76
92134,10.691,-3.065,2.863,-0.316857,-0.250913,0.835787,100756.98
92144,11.253,-3.183,3.027,-0.296637,-0.301996,0.877823,100756.15
92149,11.489,-3.455,2.979,-0.312600,-0.331794,0.901768,100757.20
92158,11.390,-3.780,2.687,-0.386563,-0.348289,0.914007,100757.20
92169,11.111,-4.031,2.214,-0.556306,-0.353078,0.923585,100757.34
92179,10.929,-3.900,1.884,-0.751058,-0.342436,0.934227,100757.19
92189,10.728,-3.547,1.688,-0.929847,-0.318491,0.950190,100758.97
92199,10.224,-3.347,1.290,-1.065003,-0.299867,0.980520,100756.56
92209,9.897,-3.366,0.802,-1.148544,-0.290821,1.022025,100756.56
92219,9.459,-3.224,0.498,-1.184728,-0.280711,1.075236,100757.65
92229,8.986,-3.346,0.171,-1.167700,-0.271666,1.125786,100756.18
92239,9.103,-3.339,0.478,-1.124599,-0.255170,1.176869,100757.91
92249,9.279,-2.970,0.922,-1.054361,-0.229629,1.238594,100755.20
92259,9.094,-2.772,1.521,-0.947939,-0.191849,1.321071,100755.20
92269,9.148,-2.830,2.063,-0.814379,-0.156198,1.417915,100757.09
92279,9.357,-3.317,2.803,-0.645168,-0.110968,1.508373,100754.98
92289,9.614,-3.698,3.066,-0.466912,-0.067335,1.591915,100754.73
92299,9.678,-3.982,2.880,-0.348251,-0.053501,1.645658,100754.78
92309,9.353,-4.181,3.006,-0.309407,-0.051372,1.669603,100754.78
92319,9.094,-4.562,3.029,-0.303022,-0.049776,1.684502,100759.63
92329,8.872,-5.000,3.070,-0.346655,-0.059354,1.690355,100757.69
92339,8.804,-5.211,3.267,-0.437646,-0.071060,1.676520,100756.00
92349,8.824,-4.988,3.463,-0.546728,-0.077978,1.624373,100754.38
92359,8.537,-4.901,3.641,-0.640379,-0.089152,1.546685,100754.38
92369,8.104,-4.786,3.827,-0.689866,-0.086491,1.456227,100757.05
92379,7.631,-4.289,4.012,-0.707957,-0.067867,1.345548,100754.42
92385,7.326,-3.694,4.001,-0.708490,-0.043390,1.238062,100754.53
92394,7.036,-3.242,3.892,-0.704233,-0.016253,1.103438,100754.53
92404,6.732,-2.693,3.435,-0.718600,0.016206,0.901768,100752.55
92414,6.526,-2.193,2.789,-0.785645,0.037490,0.661787,100752.55
92425,6.266,-1.768,2.317,-0.897389,0.047600,0.400521,100758.57
92434,6.343,-0.729,1.767,-1.027755,0.036958,0.125952,100753.34
92444,6.041,-0.365,1.604,-1.096398,0.001307,-0.135846,100753.65
92454,5.483,-0.102,1.590,-1.049572,-0.021574,-0.324745,100753.65
92464,5.028,0.473,1.512,-0.893132,-0.031152,-0.493956,100753.65
92474,4.851,0.684,1.556,-0.658471,-0.026895,-0.667956,100756.72
92484,5.148,0.565,1.470,-0.384435,-0.017317,-0.853662,100757.14
92494,5.444,0.089,1.339,-0.109334,-0.014657,-1.038836,100754.27
92504,5.689,-0.239,1.182,0.136501,-0.001354,-1.214432,100754.78
92514,5.970,-0.441,1.037,0.354134,0.023655,-1.384175,100754.78
92524,6.364,-0.737,0.825,0.540904,0.044940,-1.554983,100753.64
92534,6.891,-1.079,0.663,0.689895,0.046004,-1.723661,100755.16
92545,7.309,-1.555,0.805,0.810684,0.034830,-1.871056,100754.97
92554,7.673,-1.973,1.069,0.906996,0.030573,-1.995037,100754.97
92564,8.076,-2.387,1.238,0.968188,0.024187,-2.123808,100754.95
92574,8.454,-2.784,1.231,0.957014,0.005032,-2.271202,100754.12
92584,8.603,-2.986,1.219,0.883051,-0.030620,-2.409551,100754.12
92594,8.701,-2.820,1.373,0.806959,-0.063611,-2.539386,100753.54
92604,8.870,-2.494,1.711,0.788867,-0.074785,-2.650064,100755.95
92614,9.327,-2.328,1.926,0.861766,-0.065207,-2.735734,100755.95
92619,9.751,-2.411,2.093,0.960207,-0.056161,-2.790009,100758.16
92630,10.061,-2.721,2.205,1.077803,-0.044987,-2.830450,100754.80
92639,10.421,-3.072,2.309,1.235307,-0.015721,-2.871422,100753.18
92649,10.887,-3.430,2.077,1.351840,0.007160,-2.924101,100752.18
92659,11.171,-3.851,1.796,1.396005,0.006628,-2.976780,100752.18
92669,11.321,-4.101,1.634,1.369399,-0.011464,-3.012431,100756.45
92679,11.416,-4.134,1.560,1.303418,-0.030620,-3.030523,100755.39
92689,11.514,-4.185,1.675,1.243289,-0.044455,-3.033183,100755.03
92699,11.644,-4.180,1.958,1.207106,-0.037537,-3.013495,100752.20
92709,11.847,-4.335,2.195,1.181032,-0.019978,-2.989018,100752.20
92720,11.860,-4.580,2.264,1.142188,-0.002950,-2.957624,100755.99
92729,11.664,-4.928,2.336,1.077271,0.022059,-2.908670,100754.15
92739,11.468,-5.377,2.245,0.979895,0.053986,-2.845349,100753.62
92749,11.151,-5.978,2.062,0.822390,0.084848,-2.767128,100755.04
92760,11.128,-6.151,1.710,0.608482,0.132738,-2.687844,100755.04
92769,11.167,-6.139,1.130,0.348280,0.157747,-2.630376,100758.66
92779,10.977,-5.793,0.936,0.075308,0.162004,-2.576633,100755.46
92789,10.770,-5.267,0.655,-0.127958,0.169453,-2.534065,100755.88
92800,10.385,-4.865,0.440,-0.254068,0.186481,-2.489367,100759.18
92809,9.822,-4.486,0.456,-0.318453,0.210426,-2.419661,100759.18
92819,9.472,-4.105,0.481,-0.332288,0.246609,-2.321221,100761.27
92829,9.415,-3.998,0.568,-0.291848,0.277472,-2.210542,100758.80
92839,9.313,-4.365,0.823,-0.233315,0.290242,-2.079643,100756.91
92850,9.243,-4.928,1.110,-0.179040,0.292903,-1.922138,100756.98
92859,9.085,-5.562,1.116,-0.134343,0.281729,-1.771551,100756.98
92869,8.792,-6.069,0.994,-0.111994,0.264169,-1.610322,100761.74
92879,8.609,-5.850,0.771,-0.085921,0.235967,-1.433661,100759.43
92890,8.542,-5.270,0.558,0.018372,0.186481,-1.243166,100757.43
92899,8.413,-5.067,0.521,0.239730,0.118903,-1.007974,100759.95
92909,7.984,-5.431,0.680,0.550482,0.050793,-0.722231,100759.95
92919,7.669,-6.797,0.799,0.829308,0.000775,-0.398708,100759.60
92930,7.342,-8.343,1.205,0.971913,-0.021042,-0.031552,100761.40
92939,7.017,-9.256,2.280,0.963399,0.017270,0.347310,100758.40
92949,6.358,-7.817,4.947,0.805363,0.159875,0.653805,100755.88
92959,6.794,-3.621,9.827,0.414262,0.595673,0.695310,100755.88
92969,15.797,1.351,5.254,-0.507352,0.879288,0.395554,100757.99
92980,16.785,3.085,3.584,-1.399700,0.372719,0.115310,100758.26
92989,12.059,2.802,6.164,-1.681186,0.165197,0.322833,100757.10
92999,11.764,0.130,7.151,-0.926122,0.297160,0.891126,100757.48
93009,13.234,-0.619,5.223,0.068923,0.152958,1.470594,100757.48
93020,12.037,0.308,2.112,0.692555,-0.022638,1.677584,100757.80
93029,9.844,-1.203,-0.895,0.929344,-0.017849,1.531254,100758.84
93039,8.186,-3.359,-0.977,0.724482,0.084316,1.372685,100756.44
93049,8.373,-3.566,0.157,0.231216,0.233839,1.279566,100757.06
93060,9.411,-1.862,1.694,-0.320049,0.318444,1.191236,100757.06
93070,9.476,-0.245,2.810,-0.639847,0.283857,1.088539,100759.80
93079,8.940,0.658,3.055,-0.623884,0.210958,1.016704,100756.97
93089,8.639,0.478,2.883,-0.360844,0.165906,0.976264,100757.86
93100,8.980,-0.111,2.192,-0.169462,0.163600,0.937952,100758.69
93110,9.563,-0.921,1.178,-0.127426,0.170518,0.914007,100758.69
93119,9.745,-0.870,0.539,-0.217352,0.206169,0.892190,100759.77
93129,9.216,-0.238,0.976,-0.307811,0.270022,0.827273,100759.73
93139,8.800,0.245,2.153,-0.331224,0.305674,0.762355,100757.84
93150,9.015,-0.241,2.998,-0.279077,0.284921,0.738943,100758.05
93159,9.443,-0.868,3.246,-0.249279,0.235967,0.723511,100758.05
93169,9.318,-1.099,3.303,-0.317389,0.176371,0.674557,100757.56
93179,8.918,-0.836,3.232,-0.436049,0.135398,0.627732,100756.47
93190,8.648,-0.136,3.225,-0.497242,0.121564,0.592080,100758.25
93200,8.620,0.502,3.462,-0.469040,0.114114,0.573456,100756.98
93205,8.760,0.716,3.661,-0.408380,0.096022,0.570796,100756.98
93214,8.853,0.613,3.709,-0.332820,0.068885,0.575053,100756.98
93224,9.052,-0.057,3.495,-0.239169,0.028976,0.582502,100760.02
93235,9.079,-0.978,3.092,-0.205646,-0.009868,0.580374,100758.77
93245,8.891,-1.171,2.709,-0.239169,-0.032748,0.553236,100757.14
93254,8.660,-0.928,2.584,-0.261517,-0.024234,0.523970,100756.86
93264,8.669,-0.785,2.604,-0.248215,-0.009868,0.506411,100757.55
93275,8.730,-0.660,2.569,-0.216288,-0.003482,0.513328,100760.22
93285,8.664,-0.559,2.707,-0.191279,0.002903,0.517585,100760.22
93294,8.682,-0.564,2.922,-0.180637,0.011417,0.516521,100757.44
93304,8.727,-0.595,3.102,-0.174783,0.007160,0.518649,100758.06
93315,8.587,-0.552,3.207,-0.162545,0.001307,0.518649,100758.06
93325,8.401,-0.451,3.316,-0.131150,-0.000290,0.520245,100759.27
93334,8.179,-0.365,3.299,-0.071022,-0.001354,0.524502,100759.27
93344,8.059,-0.445,3.211,0.009859,-0.001886,0.538869,100755.95
93355,8.241,-0.808,2.989,0.087547,-0.005611,0.562282,100757.11
93365,8.466,-1.314,2.737,0.122666,-0.005611,0.574521,100757.11
93375,8.605,-1.731,2.496,0.092868,0.000775,0.579842,100760.17
93384,8.768,-1.775,2.308,0.030079,0.009288,0.576649,100758.39
93394,8.881,-1.347,2.381,-0.013554,0.024187,0.570264,100755.97
93405,8.749,-1.027,2.653,0.002409,0.032701,0.572392,100755.97
93414,8.544,-0.879,2.780,0.062538,0.036426,0.586227,100755.97
93424,8.399,-0.901,3.021,0.133308,0.040151,0.594209,100760.71
93434,8.192,-0.801,3.332,0.204079,0.042279,0.600062,100760.49
93440,8.077,-1.003,3.381,0.265271,0.043876,0.613365,100759.51
93450,8.305,-1.484,3.156,0.315822,0.023123,0.639438,100759.66
93459,8.551,-1.726,2.872,0.317950,-0.002418,0.655401,100759.66
93469,8.505,-1.987,2.903,0.250372,0.001839,0.650080,100757.91
93479,8.743,-2.213,2.548,0.179070,-0.004546,0.655933,100759.27
93490,9.054,-2.543,2.205,0.120537,-0.017317,0.664979,100758.65
93500,9.364,-2.774,2.023,0.056152,-0.026895,0.676154,100755.80
93509,9.458,-2.660,2.098,-0.024196,-0.026895,0.668172,100755.80
93519,9.313,-2.222,2.270,-0.080068,-0.008271,0.654337,100758.66
93530,9.240,-1.866,2.550,-0.072086,-0.000290,0.660190,100758.91
93540,9.201,-1.845,2.895,-0.025793,-0.001886,0.669768,100757.97
93549,9.112,-2.247,3.037,0.018905,-0.004014,0.673493,100758.48
93559,8.914,-2.601,2.987,0.023694,-0.012528,0.672961,100758.48
93570,8.640,-2.824,2.908,-0.027921,-0.009868,0.664979,100758.90
93580,8.770,-3.036,2.542,-0.117316,-0.002950,0.663383,100756.95
93590,9.104,-3.101,2.324,-0.216820,0.000775,0.676686,100755.96
93599,9.359,-2.995,2.305,-0.309939,0.008224,0.682539,100757.01
93609,9.432,-2.625,2.523,-0.376985,0.022059,0.696374,100757.01
93620,9.310,-2.265,2.840,-0.384967,0.020995,0.727236,100756.44
93630,9.292,-2.364,2.976,-0.359425,0.024187,0.765016,100758.75
93639,9.338,-2.680,2.936,-0.349315,0.014077,0.802796,100759.06
93649,9.309,-2.958,2.944,-0.371132,0.009288,0.827805,100758.22
93660,9.300,-3.080,2.795,-0.430728,0.008756,0.846429,100758.22
93670,9.556,-3.042,2.483,-0.498838,0.011417,0.864520,100758.55
93679,9.748,-2.963,2.508,-0.533425,-0.000822,0.900704,100760.65
93689,9.850,-2.881,2.254,-0.540343,-0.018381,0.944337,100759.91
93700,9.796,-2.925,1.930,-0.547260,-0.044987,0.999144,100755.82
93710,9.941,-2.793,1.746,-0.540343,-0.063079,1.060869,100755.82
93720,9.950,-2.680,1.886,-0.515866,-0.089684,1.136961,100761.45
93729,9.941,-2.559,1.946,-0.469572,-0.110968,1.217841,100758.35
93740,10.014,-2.805,2.056,-0.423279,-0.147152,1.306172,100759.73
93750,10.057,-2.722,2.292,-0.402526,-0.183867,1.391309,100755.21
93760,10.308,-2.597,2.544,-0.396673,-0.227500,1.474318,100755.21
93769,11.272,-2.406,2.914,-0.357829,-0.287629,1.559456,100759.19
93779,12.541,-2.362,3.345,-0.292380,-0.363721,1.632355,100758.61
93790,13.164,-2.510,3.608,-0.275884,-0.432895,1.698336,100755.72
93800,13.007,-2.792,3.358,-0.360490,-0.454711,1.753144,100755.16
93809,12.702,-2.982,2.782,-0.535554,-0.440344,1.785070,100755.16
93819,12.854,-2.934,2.317,-0.755315,-0.419592,1.816465,100757.83
93830,13.091,-2.036,2.330,-1.021902,-0.385005,1.841474,100758.14
93840,12.999,-0.710,2.618,-1.297003,-0.333922,1.906924,100756.89
93850,12.437,0.359,2.733,-1.424709,-0.292950,2.002703,100754.58
93859,11.415,0.767,2.903,-1.331590,-0.259959,2.121364,100754.58
93870,10.275,0.097,3.171,-1.077242,-0.206748,2.235767,100756.73
93880,9.355,-1.566,3.795,-0.723921,-0.114693,2.323565,100755.59
93890,9.515,-3.209,4.368,-0.374325,-0.013592,2.434244,100756.37
93899,10.160,-4.011,4.503,-0.155627,0.046004,2.462978,100757.05
93911,10.152,-4.804,4.057,-0.151548,0.096377,2.359040,100757.05
93920,9.577,-5.528,3.572,-0.358361,0.135398,2.215015,100758.28
93930,9.303,-5.978,3.241,-0.713811,0.144444,2.043144,100757.66
93939,9.460,-5.758,3.323,-1.086820,0.090169,1.876061,100753.72
93949,9.465,-4.872,3.794,-1.381608,0.017270,1.727070,100753.88
93960,9.024,-3.590,4.348,-1.521553,-0.002950,1.531254,100753.88
93970,7.982,-2.121,4.482,-1.509847,0.040151,1.282759,100755.46
93980,6.795,-1.319,3.868,-1.406085,0.093894,1.017236,100754.73
93989,6.139,-0.740,2.789,-1.264544,0.116242,0.741071,100757.55
94000,6.245,-0.164,1.248,-1.155994,0.089105,0.434044,100753.88
94010,6.082,-0.261,0.918,-1.149076,0.031637,0.127548,100753.88
94020,5.553,-0.014,0.973,-1.053297,0.011417,-0.099130,100754.40
94029,4.808,1.007,0.720,-0.813847,-0.002950,-0.321020,100755.02
94040,4.244,2.115,0.545,-0.441903,-0.010400,-0.572708,100754.91
94050,4.037,2.812,0.325,-0.005573,0.006628,-0.872286,100754.13
94060,4.140,2.455,0.363,0.428629,0.024187,-1.171331,100754.13
94070,4.579,1.787,0.535,0.805895,0.034298,-1.413973,100757.97
94080,5.159,1.018,0.685,1.097491,0.030041,-1.625221,100754.72
94090,5.609,0.072,0.809,1.311399,0.006096,-1.844982,100754.92
94100,5.876,-0.832,0.848,1.441234,-0.016253,-2.061551,100753.77
94110,6.212,-1.523,0.746,1.488060,-0.028491,-2.290358,100753.77
94119,6.593,-2.259,0.453,1.452408,-0.046051,-2.528211,100754.06
94130,6.656,-2.605,0.576,1.321509,-0.050840,-2.765532,100755.80
94140,6.846,-2.664,0.878,1.148041,-0.008271,-3.016688,100752.55
94145,7.206,-2.739,0.956,1.011289,0.027912,-3.207183,100751.59
94154,7.589,-2.842,1.002,0.885179,0.051325,-3.382247,100751.59
94164,8.086,-2.945,1.076,0.735124,0.071013,-3.589238,100751.59
94175,8.517,-3.097,1.330,0.628702,0.089637,-3.770155,100755.48
94185,8.945,-3.174,1.549,0.572299,0.107729,-3.917550,100752.95
94195,9.398,-3.086,1.829,0.572831,0.125288,-4.031421,100754.13
94205,9.806,-2.784,2.065,0.655308,0.152426,-4.107513,100754.13
94215,10.377,-2.607,2.342,0.833032,0.189142,-4.150614,100756.08
94225,11.140,-2.853,2.690,1.090042,0.220004,-4.186265,100756.08
94235,12.055,-3.424,2.848,1.374720,0.238628,-4.216063,100753.14
94244,12.893,-4.237,2.696,1.623748,0.256187,-4.223513,100755.59
94255,13.385,-5.301,2.448,1.764757,0.267894,-4.221385,100753.50
94265,13.505,-6.249,2.418,1.770078,0.270554,-4.205953,100753.50
94275,13.559,-7.084,2.543,1.664720,0.256719,-4.151146,100755.72
94285,13.725,-7.794,2.743,1.497638,0.220004,-4.057495,100757.19
94295,13.728,-8.541,3.103,1.261381,0.168389,-3.938834,100754.77
94305,13.394,-8.396,3.710,0.995858,0.156151,-3.805275,100756.34
94315,12.775,-8.388,4.079,0.775565,0.191270,-3.660009,100756.03
94325,11.985,-8.035,4.260,0.592519,0.278536,-3.442908,100756.41
94336,11.782,-7.337,3.419,0.463748,0.377508,-3.231660,100754.52
94345,11.293,-7.967,2.770,0.366372,0.420609,-3.058725,100754.52
94355,10.424,-8.926,2.587,0.254097,0.448811,-2.853863,100753.36
94365,10.092,-9.530,2.054,0.054024,0.475949,-2.570248,100753.36
94375,9.960,-9.815,1.792,-0.183829,0.454132,-2.241404,100759.96
94385,9.764,-9.407,1.511,-0.391884,0.373784,-1.879570,100758.87
94395,9.428,-9.099,1.500,-0.443499,0.284921,-1.444836,100757.55
94405,9.041,-9.657,1.626,-0.322710,0.214151,-0.934011,100757.45
94415,8.779,-10.374,1.523,-0.193939,0.156683,-0.386470,100757.45
94426,8.574,-10.203,1.552,-0.147646,0.106132,0.160539,100757.59
94435,8.304,-9.134,1.718,-0.096031,0.058243,0.637842,100758.76
94445,7.864,-7.665,2.149,0.066262,0.033765,0.976796,100756.20
94455,7.317,-5.175,4.021,0.273253,0.118903,1.166759,100756.20
94465,11.140,0.696,4.026,0.275914,0.386554,1.116741,100756.20
94475,16.528,4.936,1.146,-0.111994,0.340793,0.785768,100760.86
94485,14.523,3.949,2.830,-0.401462,0.102940,0.740539,100758.66
94495,12.462,-0.861,5.485,0.230152,0.237209,1.179175,100757.08
94504,13.908,-5.576,4.875,1.091638,0.292903,1.786667,100757.08
94515,13.629,-4.359,2.898,1.558830,0.134866,2.176171,100757.08
94525,10.626,-1.935,0.369,1.465711,0.066224,1.954281,100760.19
94535,7.104,-2.854,0.446,1.102812,0.143380,1.576483,100758.83
94545,6.616,-4.450,1.535,0.647326,0.230646,1.361511,100758.56
94555,8.745,-4.634,1.996,0.000813,0.287050,1.258282,100758.56
94565,10.438,-2.954,2.296,-0.690930,0.263105,1.184851,100760.88
94575,9.812,-0.353,2.709,-1.078838,0.185949,1.081089,100760.88
94585,8.586,1.522,2.631,-1.028287,0.164664,1.015108,100759.95
94595,7.936,2.454,2.321,-0.645701,0.200848,0.995952,100756.01
94605,8.229,2.161,2.167,-0.160416,0.250334,1.002337,100758.63
94615,9.089,1.227,2.272,0.243987,0.285985,1.018832,100758.63
94625,9.486,-0.148,2.653,0.469069,0.284389,1.015108,100761.13
94636,9.102,-1.301,3.083,0.476519,0.266297,0.972539,100757.04
94645,8.639,-1.948,3.376,0.281235,0.237564,0.902832,100759.82
94655,8.599,-1.681,3.510,-0.027921,0.193931,0.828337,100756.73
94665,8.952,-0.778,3.581,-0.299297,0.142316,0.783108,100758.84
94675,9.082,0.209,3.541,-0.387095,0.096022,0.769273,100755.16
94686,8.899,0.941,3.250,-0.286526,0.067820,0.779383,100758.30
94695,8.719,0.962,3.068,-0.088050,0.053454,0.810245,100758.30
94705,8.851,0.171,3.028,0.090207,0.046004,0.845365,100757.37
94715,8.979,-0.921,3.040,0.140226,0.032701,0.851750,100757.37
94726,8.944,-1.229,3.068,0.033271,0.010885,0.834190,100759.55
94735,8.753,-0.904,3.107,-0.102417,-0.002950,0.820887,100757.81
94745,8.696,-0.605,2.884,-0.134875,-0.007739,0.813438,100759.02
94755,8.662,-0.363,2.709,-0.079004,-0.004546,0.815566,100757.19
94766,8.608,-0.366,2.827,0.022629,0.010885,0.827805,100757.19
94775,8.656,-0.867,2.871,0.117345,0.021527,0.839511,100759.59
94785,8.677,-1.459,2.877,0.131712,0.026848,0.832594,100756.54
94795,8.669,-1.560,3.070,0.081161,0.026316,0.827273,100757.54
94806,8.612,-1.530,3.079,0.010391,0.020463,0.816099,100757.54
94815,8.672,-1.280,3.092,-0.040160,0.011417,0.810245,100757.54
94825,8.836,-1.361,2.948,-0.044949,0.003967,0.814502,100762.38
94835,8.942,-1.769,2.691,-0.047077,-0.007207,0.816631,100760.02
94845,9.025,-2.111,2.493,-0.087517,-0.010932,0.802264,100758.55
94855,8.939,-2.207,2.543,-0.149242,-0.001886,0.780979,100758.70
94865,8.893,-2.168,2.651,-0.220013,0.008756,0.759163,100758.70
94875,8.972,-1.942,2.651,-0.278545,0.010885,0.747988,100758.69
94885,8.911,-1.745,2.754,-0.301426,0.020463,0.753310,100757.80
94896,8.939,-1.826,2.858,-0.314196,0.024720,0.767676,100757.16
94905,9.149,-1.982,2.922,-0.338673,0.018334,0.782576,100757.16
94915,9.187,-2.033,2.920,-0.355169,0.016206,0.793218,100758.88
94925,9.025,-2.107,2.982,-0.374325,0.010885,0.807585,100758.88
94936,9.034,-2.167,2.932,-0.393481,0.006096,0.821952,100760.81
94945,9.046,-2.164,2.933,-0.416361,0.002903,0.840576,100757.56
94955,9.035,-2.209,2.942,-0.432857,-0.003482,0.867713,100756.56
94966,9.092,-2.332,2.850,-0.431792,-0.013238,0.902478,100758.63
94976,9.109,-2.546,2.823,-0.433389,-0.021574,0.932098,100758.63
94986,9.212,-2.593,2.824,-0.449884,-0.026895,0.965621,100760.25
94995,9.284,-2.561,2.925,-0.472765,-0.031152,1.001805,100759.67
95005,9.405,-2.535,2.965,-0.491921,-0.031684,1.042245,100757.06
95015,9.504,-2.604,3.226,-0.520123,-0.025831,1.077364,100758.77
95026,9.771,-2.751,3.143,-0.561095,-0.030620,1.115144,100757.25
95035,9.948,-2.623,3.114,-0.607921,-0.051372,1.162502,100757.67
95045,10.024,-2.492,3.041,-0.632398,-0.078510,1.220502,100757.67
95055,9.996,-2.477,3.033,-0.622288,-0.113097,1.292869,100757.34
95066,10.267,-2.529,3.006,-0.598875,-0.136510,1.365768,100757.34
95075,10.627,-2.781,2.855,-0.601003,-0.159922,1.442924,100757.59
95085,10.782,-3.007,2.685,-0.644636,-0.180143,1.515823,100755.65
95095,10.852,-2.980,2.478,-0.717003,-0.187592,1.590850,100758.01
95106,10.959,-2.990,2.387,-0.795756,-0.191849,1.679713,100758.59
95116,11.263,-2.848,2.180,-0.886214,-0.198766,1.772832,100758.59
95125,12.102,-2.761,2.025,-0.972416,-0.230161,1.878722,100758.35
95135,13.647,-2.729,2.032,-1.028287,-0.298803,1.973437,100758.35
95145,15.256,-3.270,2.056,-1.112893,-0.385537,2.048465,100756.52
95156,16.271,-3.754,1.805,-1.360856,-0.433427,2.071877,100756.52
95165,16.635,-2.635,1.963,-1.870617,-0.377023,2.069749,100756.52
95175,16.200,0.114,2.809,-2.382507,-0.271133,2.093694,100759.21
95185,15.120,3.160,3.730,-2.554378,-0.159390,2.160208,100757.74
95196,13.688,4.569,4.627,-2.245755,-0.091280,2.246410,100757.12
95201,12.140,3.414,5.596,-1.735461,-0.076381,2.336336,100759.88
95210,11.208,1.131,6.031,-1.112893,-0.051904,2.494905,100759.88
95220,11.039,-1.671,5.884,-0.432325,-0.016785,2.661987,100759.52
95230,11.010,-3.516,5.403,-0.166802,0.016206,2.657730,100756.78
95241,10.534,-4.482,4.667,-0.309407,0.077931,2.496501,100757.05
95250,9.946,-4.459,4.172,-0.690398,0.144976,2.259712,100754.22
95260,9.787,-3.989,3.823,-1.089480,0.151894,2.024520,100754.22
95270,9.510,-3.731,3.350,-1.395975,0.080059,1.798905,100755.07
95281,8.069,-3.322,3.681,-1.593388,0.018866,1.580740,100757.70
95290,6.406,-2.583,3.960,-1.665755,0.067288,1.328520,100755.87
95300,5.246,-2.587,3.092,-1.626911,0.154554,1.065126,100754.29
95310,5.377,-2.061,1.671,-1.571571,0.146573,0.780979,100754.29
95316,5.243,-2.689,1.892,-1.537516,0.119435,0.563346,100755.03
95326,5.184,-2.776,1.956,-1.450783,0.154022,0.405310,100755.03
95336,4.718,-1.475,1.406,-1.261351,0.199252,0.150429,100756.30
95345,4.140,0.570,0.769,-0.972948,0.199252,-0.129461,100754.03
95355,4.047,2.369,-0.017,-0.629737,0.180096,-0.422121,100756.03
95366,3.787,3.031,-0.034,-0.235976,0.161472,-0.736598,100757.87
95376,3.495,2.878,0.290,0.221106,0.174775,-0.982965,100755.13
95385,3.781,2.072,0.385,0.728207,0.174775,-1.153772,100755.55
95395,4.128,1.190,0.555,1.233179,0.131142,-1.284671,100755.55
95406,4.529,0.425,0.675,1.665252,0.083784,-1.438983,100755.55
95416,4.925,-0.385,0.871,1.968555,0.048132,-1.631606,100755.55
95425,5.295,-1.335,0.903,2.124995,0.017802,-1.854028,100756.03
95435,5.556,-2.157,0.965,2.119142,-0.009335,-2.105716,100754.67
95446,5.712,-2.812,0.941,1.976536,-0.020510,-2.387202,100754.88
95456,5.939,-3.250,0.726,1.715803,-0.029556,-2.666560,100754.09
95466,6.269,-3.278,0.608,1.377381,-0.040730,-2.924101,100754.09
95475,6.727,-2.938,0.702,1.041620,-0.048179,-3.163018,100753.74
95485,7.148,-2.648,0.909,0.789932,-0.051372,-3.392890,100752.59
95496,7.637,-2.593,0.996,0.636684,-0.035941,-3.603073,100752.54
95506,8.166,-2.668,1.261,0.577620,-0.005611,-3.780798,100752.54
95515,8.689,-2.625,1.464,0.618592,0.040151,-3.920743,100752.54
95525,9.219,-2.655,1.566,0.737785,0.098151,-4.023440,100755.31
95536,9.800,-3.024,1.652,0.907528,0.151362,-4.100063,100755.69
95546,10.407,-3.644,1.805,1.082060,0.188077,-4.146889,100755.63
95551,11.034,-3.816,1.904,1.208170,0.207765,-4.180944,100753.11
95560,11.714,-3.711,1.867,1.333748,0.214151,-4.232027,100753.11
95570,12.358,-4.144,1.869,1.501894,0.209362,-4.287898,100754.88
95581,12.988,-4.978,1.967,1.638115,0.205637,-4.288962,100757.23
95591,13.606,-5.762,2.154,1.698775,0.200848,-4.266082,100754.77
95600,13.941,-6.607,2.519,1.662592,0.184353,-4.233091,100756.50
95610,14.287,-7.409,2.888,1.540738,0.159875,-4.183073,100756.50
95621,14.590,-8.067,3.049,1.353968,0.133802,-4.119219,100759.55
95631,14.235,-8.616,3.413,1.098023,0.105068,-4.019715,100757.04
95640,13.566,-8.144,3.928,0.821326,0.108261,-3.886155,100759.76
95650,12.745,-7.908,4.458,0.594115,0.142316,-3.716412,100755.26
95661,12.177,-7.671,5.030,0.449381,0.246077,-3.463660,100755.26
95671,12.068,-8.268,4.592,0.416923,0.360481,-3.217825,100758.83
95680,11.313,-9.786,4.208,0.422776,0.431251,-3.007110,100760.09
95690,10.759,-11.535,3.195,0.234409,0.485527,-2.724028,100757.27
95700,9.911,-13.218,2.860,-0.166270,0.506811,-2.406358,100758.58
95711,9.168,-14.217,2.628,-0.692526,0.521178,-2.033349,100758.58
95721,8.914,-14.309,1.871,-1.144819,0.517453,-1.548065,100762.30
95730,8.889,-13.509,1.011,-1.355535,0.454664,-0.923368,100762.21
95740,8.810,-11.530,0.668,-1.280507,0.347710,-0.237479,100758.63
95751,8.682,-8.865,0.904,-0.935168,0.217875,0.431915,100757.43
95761,8.192,-6.075,1.316,-0.309407,0.078995,1.011383,100757.43
95770,7.370,-2.072,3.155,0.478647,0.051325,1.394502,100760.84
95780,11.140,7.582,4.406,1.016610,0.338132,1.316282,100759.33
95787,16.388,11.753,0.489,1.057051,0.429123,0.909218,100760.48
95796,15.357,7.580,0.924,0.878794,0.209894,0.746392,100760.48
95806,10.985,-0.917,5.758,1.192207,0.194463,1.249768,100761.64
95816,12.855,-8.689,6.466,2.049435,0.381765,2.078795,100761.64
95825,15.909,-8.662,3.460,2.460756,0.270022,2.606648,100759.38
95836,13.608,-6.105,-0.389,2.079233,0.050793,2.459786,100759.20
95846,9.204,-8.121,-1.556,1.259252,0.057710,2.030373,100762.42
95856,7.927,-8.598,-0.931,0.250904,0.181160,1.761658,100762.42
95865,8.584,-4.713,1.155,-0.828746,0.330151,1.662153,100762.42
95876,8.993,-0.302,3.447,-1.537516,0.353563,1.527529,100762.42
95886,8.672,2.397,4.773,-1.540177,0.244481,1.399291,100759.59
95896,8.375,3.621,4.905,-0.945278,0.113050,1.360447,100758.23
95905,8.436,2.845,4.102,-0.174783,0.034298,1.354061,100756.55
95916,8.623,1.049,2.948,0.363180,0.003435,1.350869,100756.55
95926,8.742,-0.450,2.216,0.560060,0.014077,1.318410,100758.20
95936,8.925,-1.736,2.105,0.541436,0.062499,1.235933,100758.72
95946,8.973,-2.395,2.481,0.364776,0.104536,1.100245,100758.02
95955,8.885,-2.160,2.943,0.143950,0.111453,0.957640,100758.02
95966,8.895,-0.990,3.428,0.005602,0.088041,0.871970,100760.98
95976,8.968,-0.275,3.465,0.026354,0.049197,0.828337,100759.83
95985,8.945,-0.293,2.937,0.147143,0.009288,0.811842,100759.83
95995,8.774,-0.595,2.511,0.280703,-0.000290,0.801732,100758.83
96006,8.708,-1.014,2.205,0.384464,0.024720,0.775126,100758.16
96016,8.796,-1.605,2.172,0.400427,0.063032,0.742135,100758.16
96021,8.994,-2.035,2.337,0.329125,0.085380,0.720851,100760.12
96030,9.100,-2.121,2.517,0.195565,0.090701,0.700631,100759.34
96040,8.996,-1.923,2.620,-0.001316,0.083252,0.679878,100759.49
96051,8.806,-1.384,2.702,-0.175848,0.078995,0.677218,100759.70
96061,8.590,-0.687,2.872,-0.254600,0.080059,0.688392,100759.70
96071,8.616,-0.364,3.013,-0.216820,0.081123,0.712337,100762.45
96080,8.665,-0.429,3.267,-0.125829,0.076334,0.743199,100762.02
96091,8.679,-0.883,3.325,-0.064637,0.062499,0.774062,100758.09
96101,8.645,-1.389,3.185,-0.079004,0.039087,0.798539,100757.82
96111,8.679,-1.652,2.962,-0.149242,0.024187,0.807053,100757.82
96120,8.780,-1.717,2.888,-0.217352,0.017802,0.810245,100759.88
96131,8.808,-1.694,2.818,-0.250343,0.012481,0.808117,100760.41
96141,8.889,-1.799,2.714,-0.251407,0.010885,0.803328,100760.50
96151,8.966,-1.915,2.580,-0.243426,0.008756,0.793218,100759.56
96160,9.067,-2.046,2.482,-0.248215,0.014077,0.786300,100759.56
96171,9.084,-1.986,2.482,-0.271627,0.020463,0.777787,100762.84
96181,9.091,-2.047,2.618,-0.283334,0.031105,0.775126,100759.80
96191,9.077,-2.209,2.682,-0.298765,0.035894,0.773530,100759.96
96201,9.121,-2.148,2.937,-0.345059,0.032169,0.786300,100759.23
96210,8.822,-1.805,3.146,-0.389224,0.029509,0.803860,100759.23
96221,8.832,-1.635,3.241,-0.390288,0.034830,0.842704,100760.23
96231,9.041,-1.846,3.303,-0.390820,0.010885,0.900704,100763.11
96241,9.090,-1.896,3.347,-0.392948,-0.011464,0.961364,100759.81
96250,9.073,-2.112,3.198,-0.409444,-0.033812,1.027878,100758.88
96257,9.138,-2.282,3.077,-0.423279,-0.050840,1.075236,100758.88
96266,9.300,-2.367,3.035,-0.437114,-0.058290,1.119933,100758.88
96276,9.557,-2.456,3.128,-0.456802,-0.062546,1.172612,100762.98
96286,9.753,-2.659,3.345,-0.475425,-0.060418,1.222630,100760.58
96296,9.957,-2.873,3.532,-0.515334,-0.050308,1.259878,100757.88
96306,10.482,-3.097,3.158,-0.598875,-0.043390,1.287016,100757.88
96316,10.844,-3.230,2.785,-0.697847,-0.057757,1.324795,100759.40
96326,10.870,-3.050,2.260,-0.777132,-0.081170,1.371089,100761.45
96335,10.671,-2.610,2.080,-0.796288,-0.104583,1.442924,100761.45
96346,10.924,-2.431,1.989,-0.741480,-0.131189,1.533383,100761.96
96356,11.140,-2.561,1.989,-0.675499,-0.172693,1.639804,100760.49
96366,11.281,-2.783,1.955,-0.649957,-0.209941,1.747823,100760.49
96376,11.537,-3.086,2.191,-0.697315,-0.237611,1.853713,100757.84
96386,12.193,-3.375,2.272,-0.805333,-0.257831,1.946832,100759.52
96396,13.334,-3.366,2.376,-0.969755,-0.288693,2.018135,100759.57
96406,14.756,-3.401,2.487,-1.143223,-0.341372,2.069217,100758.05
96416,16.057,-3.017,2.755,-1.376287,-0.389794,2.086777,100762.95
96427,16.729,-1.211,3.475,-1.758874,-0.346161,2.107529,100759.74
96436,16.603,1.003,4.204,-2.077608,-0.274326,2.177768,100759.74
96446,15.750,2.690,4.437,-2.173388,-0.192913,2.269822,100757.54
96456,14.484,2.908,4.645,-2.066966,-0.096069,2.349639,100757.54
96465,12.977,2.464,5.160,-1.750360,-0.025831,2.417749,100757.54
96476,11.321,0.074,5.593,-1.271994,0.035894,2.499694,100760.13
96486,10.756,-1.750,5.536,-0.848966,0.102940,2.611437,100757.92
96496,10.649,-2.313,5.175,-0.647297,0.173710,2.582171,100756.41
96506,10.274,-2.891,4.771,-0.713279,0.249270,2.390611,100757.09
96516,9.885,-3.402,4.067,-1.007535,0.275875,2.155419,100757.09
96526,9.531,-3.503,3.193,-1.424177,0.210426,1.937786,100759.55
96536,8.799,-3.231,2.791,-1.798250,0.123692,1.687694,100756.77
96546,7.371,-2.965,3.411,-2.013223,0.123692,1.395566,100754.14
96557,5.912,-2.938,3.971,-2.078140,0.218408,1.107163,100754.14
96566,4.983,-2.767,2.925,-2.063773,0.297160,0.857603,100754.14
96576,4.370,-2.761,2.578,-2.018012,0.290242,0.593144,100760.07
96586,4.848,-2.990,2.220,-1.890305,0.333343,0.321769,100758.38
96595,4.639,-1.395,1.281,-1.684911,0.354628,-0.046984,100757.45
96607,4.259,1.871,0.090,-1.383559,0.356047,-0.448372,100756.95
96616,4.225,3.932,-0.492,-1.065003,0.354628,-0.766928,100756.95
96626,3.919,4.717,-0.451,-0.584508,0.351435,-1.067038,100758.89
96636,3.731,4.688,-0.133,0.070519,0.353031,-1.257533,100756.17
96646,4.123,3.830,0.083,0.825051,0.322701,-1.360762,100756.53
96656,4.660,2.804,0.401,1.554041,0.272151,-1.450157,100755.45
96666,5.203,1.298,0.626,2.142555,0.232775,-1.601276,100756.03
96676,5.604,-0.437,0.683,2.509710,0.191802,-1.790707,100755.14
96686,5.893,-1.899,0.778,2.619857,0.147637,-2.018982,100755.14
96696,5.891,-2.996,0.973,2.503857,0.114114,-2.305257,100755.52
96706,5.875,-3.695,1.045,2.202683,0.104536,-2.613881,100755.56
96716,6.163,-3.830,0.939,1.787105,0.096554,-2.910798,100755.56
96727,6.623,-3.709,0.821,1.338537,0.069417,-3.185367,100753.63
96736,7.160,-3.344,0.917,0.929876,0.037490,-3.440247,100754.41
96746,7.772,-2.926,1.129,0.624445,0.023655,-3.670651,100754.47
96756,8.530,-2.634,1.281,0.462684,0.032701,-3.862742,100753.31
96766,9.071,-2.553,1.574,0.450446,0.042279,-4.010669,100753.31
96777,9.490,-2.672,1.815,0.548886,0.076334,-4.118687,100754.41
96786,10.112,-2.980,1.989,0.718629,0.131142,-4.192119,100753.68
96796,10.853,-3.212,2.308,0.936794,0.179564,-4.235219,100755.93
96806,11.743,-3.332,2.424,1.177307,0.221600,-4.280449,100755.93
96816,12.320,-3.889,2.552,1.427399,0.242885,-4.316632,100755.93
96826,12.812,-4.594,2.519,1.659931,0.259380,-4.321421,100758.10
96836,13.243,-5.302,2.412,1.831270,0.264169,-4.291623,100756.63
96846,13.612,-6.190,2.450,1.889270,0.249270,-4.223513,100758.57
96856,13.923,-7.155,2.874,1.797215,0.215215,-4.124009,100755.37
96866,14.143,-8.060,3.382,1.611509,0.172114,-4.013330,100755.37
96876,14.045,-8.650,3.847,1.374720,0.131142,-3.903183,100758.51
96886,13.361,-8.659,4.237,1.093234,0.116242,-3.776541,100757.93
96897,12.377,-7.903,4.471,0.804831,0.165197,-3.632339,100757.41
96906,11.500,-7.260,4.924,0.613803,0.277472,-3.450357,100757.41
96916,11.426,-7.037,4.376,0.550482,0.415288,-3.241238,100759.24
96926,11.430,-7.754,3.977,0.552078,0.484462,-3.076284,100759.24
96936,10.791,-8.985,3.796,0.460024,0.535013,-2.901752,100757.87
96946,10.251,-10.884,3.635,0.184923,0.592481,-2.649532,100760.45
96956,9.746,-12.826,3.680,-0.251407,0.615361,-2.343569,100758.91
96966,9.138,-13.957,3.436,-0.845774,0.619618,-1.974817,100758.91
96976,8.590,-14.159,3.088,-1.427370,0.647288,-1.538487,100758.98
96987,8.355,-13.026,2.749,-1.833902,0.666444,-1.011698,100758.16
96996,8.492,-10.348,2.766,-1.970122,0.641967,-0.425314,100760.92
97006,8.626,-7.806,2.989,-1.767920,0.558958,0.130209,100757.52
97016,8.779,-6.309,2.794,-1.249645,0.413692,0.661787,100762.19
97027,8.717,-4.973,1.700,-0.489260,0.239692,1.128447,100760.61
97036,8.424,-3.057,0.046,0.374886,0.116775,1.457823,100760.61
97046,9.764,4.107,-0.390,1.159748,0.089105,1.559988,100757.78
97056,15.438,17.359,-0.273,1.593417,0.241820,0.994355,100758.45
97067,17.532,14.200,-1.940,1.728573,0.156683,0.552172,100758.45
97077,11.620,1.679,4.663,2.589527,0.233307,1.461193,100760.41
97086,10.503,-6.123,4.517,3.683544,0.341325,2.359749,100760.41
97096,12.941,-10.019,3.016,4.152333,0.385490,2.895051,100758.52
97106,15.303,-14.121,-1.066,3.661196,0.351435,2.834391,100757.38
97117,14.116,-17.597,-2.467,1.995160,0.254591,2.304942,100757.38
97126,9.205,-15.261,0.030,-0.492453,0.329618,1.722814,100761.13
97136,7.454,-5.398,2.922,-2.639516,0.475949,1.443988,100758.22
97146,7.043,2.919,5.695,-3.471735,0.365802,1.339695,100757.06
97157,7.437,7.348,6.960,-2.919938,0.147105,1.255621,100757.06
97166,8.738,8.622,5.979,-1.513572,-0.019446,1.289144,100757.06
97176,9.102,6.796,4.568,0.060409,-0.082234,1.434942,100761.01
97186,8.909,2.280,2.889,1.119840,-0.089152,1.544557,100759.80
97197,8.732,-2.345,1.661,1.417821,-0.074785,1.524869,100757.76
97206,8.763,-5.401,1.584,1.087913,-0.029023,1.365768,100758.87
97216,8.907,-6.455,2.106,0.397235,0.038022,1.107695,100758.87
97226,9.029,-4.764,3.021,-0.354637,0.066224,0.857071,100759.63
97236,9.126,-1.251,3.912,-0.884086,0.035362,0.710741,100757.74
97247,9.064,1.930,4.149,-0.895260,-0.019446,0.688924,100757.95
97256,8.463,3.152,3.911,-0.386031,-0.058822,0.740007,100757.95
97266,7.931,2.239,3.770,0.305180,-0.065739,0.826209,100760.38
97276,7.932,0.012,3.531,0.784610,-0.064675,0.874098,100760.38
97287,8.398,-2.085,3.323,0.836225,-0.069464,0.858135,100759.91
97296,8.870,-3.292,3.049,0.546225,-0.080638,0.804392,100759.02
97306,9.128,-3.394,2.427,0.132244,-0.085427,0.734154,100758.91
97316,9.088,-2.194,2.057,-0.223738,-0.068400,0.680411,100758.91
97327,8.842,-0.638,2.014,-0.340802,-0.034877,0.670833,100759.46
97337,8.754,0.116,2.247,-0.232251,-0.004014,0.711273,100761.20
97346,8.769,-0.019,2.658,-0.057719,0.014077,0.779383,100758.20
97356,8.821,-0.806,3.016,0.053492,0.015674,0.836851,100759.72
97367,8.833,-1.375,3.186,0.040721,0.002371,0.875163,100758.77
97377,8.652,-1.565,3.211,-0.023664,-0.013060,0.887933,100763.80
97386,8.663,-1.431,3.174,-0.077407,-0.025831,0.899640,100763.80
97396,8.827,-1.544,3.018,-0.093903,-0.042326,0.915071,100758.81
97406,9.004,-1.917,2.654,-0.099756,-0.046051,0.921456,100759.23
97417,9.085,-2.345,2.360,-0.139132,-0.038069,0.913475,100759.23
97426,9.042,-2.309,2.406,-0.202985,-0.027959,0.899640,100758.09
97436,8.979,-2.096,2.588,-0.218416,-0.017317,0.887401,100760.40
97446,9.058,-2.306,2.545,-0.200325,-0.009868,0.876227,100757.30
97457,9.059,-2.500,2.581,-0.203517,-0.005611,0.865053,100758.73
97467,9.013,-2.634,2.628,-0.222141,0.004499,0.851750,100758.73
97476,9.078,-2.665,2.685,-0.258857,0.009821,0.843768,100760.66
97486,9.082,-2.594,2.890,-0.311536,0.010885,0.845365,100757.08
97497,9.046,-2.409,3.042,-0.366343,0.010885,0.854410,100760.39
97507,9.040,-2.284,3.060,-0.398802,0.008224,0.877823,100760.39
97516,9.085,-2.217,3.076,-0.410508,-0.005611,0.917199,100760.39
97526,9.121,-2.088,3.309,-0.407847,-0.016785,0.967750,100760.10
97537,9.206,-2.157,3.542,-0.401994,-0.026363,1.016172,100759.95
97547,9.473,-2.401,3.712,-0.421682,-0.027959,1.065126,100761.26
97556,9.804,-2.644,3.417,-0.481279,-0.038601,1.116208,100755.70
97566,9.873,-2.538,3.176,-0.560031,-0.053501,1.171548,100755.70
97576,9.922,-2.348,2.816,-0.607389,-0.073721,1.240190,100760.55
97587,10.036,-2.327,2.779,-0.590361,-0.090216,1.324795,100758.88
97597,10.299,-2.575,2.651,-0.554178,-0.107776,1.401419,100758.68
97606,10.443,-2.934,2.539,-0.545664,-0.128528,1.478575,100758.68
97616,10.597,-3.218,2.402,-0.577591,-0.144491,1.544557,100760.80
97627,10.698,-3.230,2.337,-0.640912,-0.152473,1.607878,100760.80
97637,10.766,-3.068,2.368,-0.703701,-0.148748,1.675988,100758.75
97646,11.011,-3.153,2.266,-0.752655,-0.156730,1.749419,100759.69
97656,11.758,-3.168,2.224,-0.826618,-0.189189,1.822850,100757.75
97667,13.197,-3.224,2.131,-0.923462,-0.251445,1.900538,100757.75
97677,14.939,-3.649,2.266,-1.062342,-0.336051,1.956410,100760.16
97687,16.346,-4.108,2.233,-1.354471,-0.377555,1.972373,100762.58
97696,16.797,-3.608,2.072,-1.922232,-0.323812,1.970245,100758.84
97707,16.192,-1.064,2.546,-2.572470,-0.205152,1.989933,100756.50
97717,15.369,2.738,3.606,-2.924195,-0.069464,2.036758,100759.86
97727,14.317,4.927,4.775,-2.694323,0.001307,2.092098,100758.13
97736,12.484,3.995,5.894,-1.936067,0.013013,2.218740,100758.13
97746,10.905,0.977,6.065,-1.027755,0.034298,2.397529,100759.53
97757,10.347,-1.823,5.442,-0.381242,0.096022,2.507675,100756.86
97767,10.184,-3.606,4.555,-0.200325,0.194995,2.456061,100756.86
97776,9.766,-4.817,4.055,-0.447756,0.299820,2.258648,100758.84
97782,9.519,-5.380,3.814,-0.811719,0.349307,2.077731,100756.64
97792,9.435,-5.454,3.700,-1.226764,0.330683,1.928740,100757.73
97802,9.272,-4.818,3.502,-1.709388,0.247674,1.745694,100756.80
97811,8.335,-3.832,3.744,-2.002048,0.179031,1.547750,100756.80
97821,6.620,-3.073,4.286,-2.059516,0.225857,1.307236,100756.73
97831,5.307,-2.613,3.566,-1.990342,0.340793,1.048098,100757.22
97842,5.034,-2.266,2.299,-1.904140,0.367398,0.762888,100756.84
97852,4.961,-2.811,2.223,-1.845608,0.368463,0.527163,100755.27
97861,4.945,-2.076,1.590,-1.752489,0.419545,0.278136,100755.27
97871,4.572,-0.192,1.024,-1.590727,0.416884,-0.029424,100758.41
97882,4.399,1.820,0.280,-1.343296,0.375912,-0.336451,100756.20
97892,4.352,3.279,-0.340,-1.008599,0.318976,-0.647735,100752.84
97897,4.053,3.517,-0.383,-0.680820,0.275875,-0.857387,100755.42
97906,3.868,3.541,-0.257,-0.259921,0.249802,-0.998928,100755.42
97916,4.072,2.996,-0.076,0.403620,0.210958,-1.119185,100755.42
97927,4.516,2.436,0.279,1.113454,0.167857,-1.225075,100756.35
97937,4.942,1.510,0.641,1.758371,0.136463,-1.379386,100755.09
97947,5.319,0.266,0.886,2.240995,0.113582,-1.563496,100754.15
97956,5.670,-0.818,1.025,2.518756,0.089637,-1.773148,100754.15
97967,5.817,-1.948,1.159,2.593784,0.056114,-2.023771,100753.01
97977,6.045,-2.905,1.147,2.469270,0.025784,-2.286101,100753.01
97987,6.465,-3.452,1.128,2.179270,-0.006143,-2.555881,100753.85
97996,6.921,-3.535,1.228,1.811050,-0.039666,-2.820339,100754.52
98007,7.371,-3.253,1.480,1.448684,-0.070528,-3.062449,100753.27
98017,7.670,-2.859,1.821,1.174115,-0.085959,-3.280614,100753.27
98027,7.988,-2.617,2.023,1.020335,-0.095005,-3.463660,100754.05
98037,8.264,-2.688,2.126,0.961271,-0.101390,-3.618504,100754.74
98046,8.670,-2.940,2.226,0.945840,-0.091280,-3.752064,100751.59
98057,9.387,-3.145,2.294,0.953289,-0.074785,-3.861678,100753.84
98067,9.932,-3.171,2.606,0.999051,-0.057225,-3.950009,100754.27
98077,10.458,-3.084,2.812,1.106537,-0.021574,-4.017055,100754.31
98086,10.959,-3.091,3.017,1.283729,0.019399,-4.079844,100755.11
98097,11.436,-3.300,3.073,1.489124,0.055050,-4.124540,100755.11
98107,11.909,-3.792,3.123,1.650353,0.082187,-4.141036,100754.05
98116,12.347,-4.439,3.224,1.718995,0.101876,-4.130926,100754.05
98126,12.619,-5.155,3.413,1.676959,0.111986,-4.097403,100758.84
98132,12.751,-5.693,3.601,1.591289,0.116242,-4.056430,100755.74
98142,12.964,-6.134,3.685,1.467307,0.122096,-4.008008,100756.48
98152,13.115,-6.657,3.806,1.260849,0.139123,-3.939366,100755.99
98161,12.995,-6.859,3.951,1.018207,0.171050,-3.852633,100755.99
98171,12.686,-6.636,4.125,0.779821,0.222664,-3.750467,100757.59
98182,12.410,-6.373,4.243,0.594115,0.297160,-3.627018,100757.34
98192,12.204,-6.260,4.160,0.486629,0.389215,-3.493458,100756.97
98202,11.757,-6.967,4.260,0.439271,0.461582,-3.377990,100755.55
98211,11.174,-8.525,3.945,0.302519,0.546187,-3.191752,100755.55
98222,10.425,-10.171,3.711,0.008262,0.637178,-2.950706,100758.28
98232,9.862,-11.171,3.666,-0.388159,0.728169,-2.688376,100757.13
98242,9.587,-11.861,3.346,-0.812783,0.765949,-2.354743,100756.30
98251,9.289,-12.935,2.726,-1.133645,0.719655,-1.880102,100757.13
98262,8.803,-13.287,1.815,-1.305517,0.619618,-1.248487,100757.13
98272,8.514,-11.712,1.039,-1.322544,0.515857,-0.503002,100759.45
98282,8.405,-8.823,0.995,-1.097994,0.399857,0.192466,100758.72
98292,8.513,-6.622,0.602,-0.575462,0.258316,0.737346,100758.14
98301,8.014,-6.090,-0.244,0.162574,0.090169,1.165695,100759.41
98312,6.847,-5.321,-0.360,0.935198,0.002371,1.474850,100759.41
98322,7.506,3.547,3.866,1.470500,0.215215,1.461016,100761.92
98332,17.630,14.757,0.436,1.424739,0.640903,0.751181,100759.98
98341,19.888,7.521,0.335,1.016078,0.301417,0.559089,100760.98
98352,13.940,-4.826,7.695,1.752518,0.272151,1.667474,100758.98
98362,17.524,-13.259,4.985,2.943380,0.383362,2.797675,100758.98
98367,19.364,-12.574,1.647,3.097159,0.265233,3.205803,100762.11
98376,16.275,-10.038,-2.316,2.462353,0.109325,3.028079,100762.11
98386,8.726,-11.873,-2.958,1.131014,0.169986,2.371455,100761.31
98397,5.738,-10.366,0.502,-0.345591,0.428591,1.835621,100759.95
98407,7.144,-3.177,4.019,-1.627975,0.524371,1.625437,100760.84
98417,8.689,1.666,6.310,-2.204782,0.350903,1.519548,100760.67
98427,9.350,3.650,6.953,-1.991406,0.042811,1.429089,100757.53
98437,8.954,5.241,5.538,-1.208673,-0.184400,1.445584,100757.06
98447,7.802,4.077,3.844,-0.177444,-0.218987,1.482300,100757.06
98457,7.719,0.950,2.465,0.572299,-0.149280,1.473254,100758.69
98466,8.658,-2.225,1.576,0.792060,-0.104051,1.412594,100758.69
98477,9.436,-4.310,1.177,0.567510,-0.056693,1.292337,100759.91
98487,9.660,-4.305,1.439,0.100317,0.024187,1.122594,100759.44
98497,9.369,-2.849,2.403,-0.367407,0.078463,0.956575,100760.08
98507,8.969,-0.934,3.274,-0.615902,0.069949,0.866117,100758.61
98516,8.719,0.596,3.662,-0.573866,0.036426,0.848557,100758.61
98527,8.430,1.119,3.651,-0.312068,0.009288,0.863456,100758.43
98537,8.028,0.383,3.498,0.024226,-0.002418,0.877291,100760.04
98547,7.840,-0.951,3.296,0.285492,-0.000290,0.858135,100758.88
98557,7.810,-1.724,3.376,0.349877,0.011417,0.790557,100758.88
98567,8.045,-2.203,3.620,0.258886,0.033765,0.707548,100758.88
98577,8.387,-2.535,3.262,0.121070,0.037490,0.613897,100758.00
98587,8.708,-2.042,3.003,-0.031646,0.028444,0.557493,100760.83
98596,8.854,-1.186,2.806,-0.094435,0.020463,0.542062,100760.63
98607,9.217,-1.085,2.106,-0.050802,0.014077,0.560154,100760.16
98617,9.647,-1.396,1.712,0.010923,0.015142,0.605915,100760.16
98627,9.561,-1.687,1.918,0.040721,0.043876,0.625603,100758.70
98637,9.019,-1.670,2.521,0.016776,0.073674,0.616025,100759.13
98648,8.580,-1.475,3.084,-0.005573,0.080591,0.611768,100759.13
98657,8.359,-1.454,3.413,0.004005,0.070481,0.612833,100759.13
98667,8.326,-1.592,3.420,0.009327,0.056646,0.618686,100760.19
98677,8.381,-1.782,3.286,-0.013022,0.048132,0.627732,100760.19
98686,8.492,-1.896,3.173,-0.062508,0.046004,0.634117,100758.52
98697,8.717,-1.797,3.053,-0.123169,0.051325,0.644227,100758.94
98707,8.860,-1.756,3.100,-0.156692,0.056114,0.652741,100759.03
98717,8.895,-1.918,3.024,-0.173187,0.060903,0.660722,100759.03
98727,8.912,-2.082,2.988,-0.212031,0.063564,0.666576,100759.99
98737,8.888,-2.009,3.042,-0.253004,0.062499,0.673493,100759.57
98747,8.903,-1.864,3.176,-0.263114,0.057710,0.687328,100757.99
98757,8.778,-1.913,3.314,-0.267903,0.055582,0.707548,100756.37
98767,8.751,-2.116,3.386,-0.288123,0.048665,0.731493,100762.65
98777,8.871,-2.126,3.290,-0.331224,0.038554,0.758631,100758.82
98787,8.814,-2.106,3.259,-0.370600,0.032701,0.798007,100758.35
98797,8.832,-2.272,3.333,-0.407315,0.025784,0.844832,100758.35
98807,9.127,-2.497,3.119,-0.464251,0.012481,0.893786,100759.55
98817,9.231,-2.479,3.085,-0.524912,0.003967,0.935823,100759.55
98827,9.096,-2.308,3.442,-0.557902,0.000243,0.977860,100760.74
98837,9.144,-2.461,3.630,-0.564820,0.003435,1.016704,100760.16
98847,9.353,-2.697,3.740,-0.580783,0.009821,1.051291,100755.66
98857,9.695,-3.031,3.407,-0.633994,0.010353,1.080025,100758.34
98867,10.075,-3.108,2.885,-0.696783,-0.009335,1.118337,100758.34
98877,10.330,-2.857,2.540,-0.724453,-0.031684,1.165163,100760.27
98887,10.541,-2.513,2.365,-0.709554,-0.048179,1.231676,100759.60
98897,10.716,-2.569,1.984,-0.661664,-0.081702,1.315750,100757.09
98907,10.619,-2.549,1.954,-0.593554,-0.120014,1.419511,100757.09
98917,10.632,-2.752,1.932,-0.534490,-0.138106,1.513162,100757.09
98927,10.688,-2.868,2.071,-0.508416,-0.170565,1.613199,100763.28
98937,10.820,-2.954,2.221,-0.504691,-0.205684,1.714300,100757.83
98947,11.004,-3.141,2.448,-0.540343,-0.231225,1.797309,100759.77
98953,11.228,-3.213,2.675,-0.598875,-0.245592,1.869144,100760.08
98962,11.572,-3.300,2.821,-0.682948,-0.257831,1.927144,100760.08
98972,12.458,-3.590,2.951,-0.817040,-0.279115,1.993657,100760.80
98982,13.884,-3.871,3.107,-0.991040,-0.317427,2.035694,100760.86
98992,15.364,-3.419,3.630,-1.302324,-0.328069,2.048997,100757.77
99002,16.155,-2.060,3.972,-1.738654,-0.280179,2.089437,100757.77
99012,16.176,-0.272,3.850,-2.140397,-0.220051,2.174043,100757.77
99022,15.954,1.732,3.796,-2.384103,-0.169500,2.270355,100758.84
99033,15.240,3.382,3.975,-2.362287,-0.134913,2.334740,100757.46
99042,13.688,3.632,4.455,-2.044617,-0.086491,2.356024,100758.77
99052,11.652,1.799,5.335,-1.479517,-0.017317,2.427327,100759.26
99062,10.846,-0.559,5.658,-0.845774,0.050793,2.547052,100759.26
99073,10.976,-1.992,5.416,-0.374857,0.099215,2.602923,100759.03
99082,10.901,-2.983,4.706,-0.217352,0.143912,2.505015,100758.56
99092,10.299,-3.990,3.758,-0.414233,0.183288,2.285786,100756.30
99102,9.842,-4.580,2.985,-0.871847,0.159343,2.011217,100755.56
99112,9.495,-4.586,2.940,-1.380012,0.053986,1.727070,100755.56
99122,8.590,-4.007,3.888,-1.768452,-0.031684,1.496667,100758.13
99132,7.239,-3.327,4.658,-1.890837,-0.005079,1.269988,100758.40
99142,6.102,-2.749,3.621,-1.799847,0.057710,1.039585,100756.66
99152,5.343,-2.786,3.246,-1.615737,0.051325,0.785768,100753.05
99162,5.653,-2.003,2.766,-1.403425,0.111453,0.502686,100753.05
99172,5.237,-0.277,1.805,-1.186324,0.160940,0.058906,100759.76
99182,4.280,1.608,0.996,-0.949535,0.171050,-0.340708,100754.82
99188,4.103,3.110,0.412,-0.762765,0.181160,-0.580690,100758.65
99197,4.125,4.178,-0.037,-0.537682,0.176371,-0.807900,100758.65
99208,4.139,4.117,-0.277,-0.146582,0.145509,-1.082469,100755.02
99217,4.391,3.214,-0.153,0.338702,0.096554,-1.277753,100755.02
99227,4.771,2.517,0.157,0.864427,0.050261,-1.442175,100755.99
99237,5.159,1.574,0.446,1.355032,0.016738,-1.634799,100755.74
99248,5.358,0.478,0.593,1.762628,0.000243,-1.839129,100752.96
99257,5.590,-0.511,0.568,2.039857,-0.013060,-2.045056,100752.96
99267,5.775,-1.241,0.588,2.158518,-0.034345,-2.292487,100752.96
99277,5.763,-1.909,0.845,2.118078,-0.043390,-2.591532,100753.36
99288,6.010,-2.478,0.965,1.951527,-0.047115,-2.890046,100754.63
99297,6.581,-2.720,0.684,1.687069,-0.071592,-3.168339,100752.95
99307,7.194,-2.860,0.601,1.373124,-0.114693,-3.431734,100751.16
99317,7.782,-2.761,0.748,1.078867,-0.156730,-3.671183,100751.16
99328,8.187,-2.698,0.969,0.874537,-0.168968,-3.884027,100754.56
99338,8.697,-2.808,1.126,0.760133,-0.137574,-4.085165,100753.83
99347,9.309,-2.945,1.445,0.706922,-0.096069,-4.282045,100752.72
99357,9.863,-3.292,1.780,0.694152,-0.059886,-4.461898,100752.72
99367,10.342,-3.779,1.966,0.721289,-0.016253,-4.593329,100754.42
99378,10.826,-4.334,1.993,0.798977,0.040683,-4.668889,100755.89
99387,11.361,-4.794,2.009,0.938922,0.098683,-4.693898,100755.89
99397,12.065,-5.128,2.008,1.148574,0.143380,-4.680063,100754.11
99407,12.886,-5.681,2.053,1.402390,0.164132,-4.620467,100753.27
99418,13.662,-6.657,2.186,1.624812,0.157215,-4.517770,100753.27
99423,14.187,-7.578,2.275,1.729637,0.138591,-4.428907,100757.89
99432,14.554,-8.474,2.427,1.748793,0.110389,-4.342706,100756.16
99442,14.716,-9.632,2.630,1.663656,0.076334,-4.240008,100754.69
99452,14.463,-10.506,2.775,1.446555,0.046536,-4.121348,100754.22
99463,13.786,-10.427,3.164,1.107069,0.023655,-3.971825,100754.22
99472,12.786,-10.071,3.831,0.775565,0.026316,-3.733440,100756.86
99482,12.339,-9.014,4.171,0.527601,0.092830,-3.435458,100759.02
99492,12.097,-8.431,4.055,0.464813,0.182756,-3.162486,100756.39
99503,11.707,-8.999,3.807,0.573895,0.262573,-2.931018,100757.08
99512,10.956,-10.599,3.674,0.702666,0.318444,-2.678266,100757.08
99522,10.470,-12.378,3.617,0.640409,0.361013,-2.327606,100760.87
99532,9.842,-14.199,3.999,0.326464,0.372719,-1.950872,100759.98
99543,9.182,-15.638,4.254,-0.238104,0.400389,-1.538487,100756.51
99553,8.561,-16.269,3.893,-0.861737,0.436573,-1.048946,100756.26
99562,8.170,-14.970,3.071,-1.361388,0.451472,-0.501405,100756.26
99572,8.034,-11.552,2.793,-1.551351,0.437105,0.092429,100761.87
99582,8.460,-7.347,2.739,-1.264012,0.354628,0.694245,100762.60
99593,8.602,-4.098,2.356,-0.553113,0.186481,1.209328,100760.20
99602,8.306,1.549,3.255,0.258354,0.093362,1.517419,100755.99
99612,12.097,13.892,3.399,0.627106,0.341857,1.122062,100755.99
99622,15.710,12.128,-1.785,0.545161,0.310995,0.485658,100759.29
99633,13.030,3.379,0.326,0.667014,0.126353,0.925181,100761.29
99642,9.562,-3.223,5.624,1.376317,0.238628,1.691419,100759.71
99652,11.888,-6.492,5.827,2.111692,0.572793,2.260777,100756.77
99662,14.187,-5.120,3.182,2.435215,0.520646,2.435841,100756.77
99673,12.459,-6.353,0.637,2.313894,0.301417,2.221932,100759.57
99683,10.287,-9.491,-0.552,1.572133,0.228518,1.962795,100759.99
99692,9.113,-9.031,-0.079,0.341363,0.297160,1.812208,100759.20
99702,9.043,-4.444,1.710,-0.928251,0.370059,1.684502,100757.79
99713,8.834,-0.445,3.053,-1.665223,0.336004,1.511034,100757.79
99723,8.189,2.506,3.896,-1.637021,0.260444,1.420043,100763.66
99732,7.843,4.470,4.580,-1.016581,0.211490,1.393438,100759.88
99742,8.214,4.219,4.622,-0.168398,0.170518,1.408337,100760.15
99752,8.881,1.845,3.595,0.541436,0.114114,1.442392,100760.77
99763,9.428,-1.153,2.600,0.853785,0.069949,1.421107,100760.77
99773,9.467,-3.511,2.069,0.738317,0.061435,1.301383,100760.70
99782,9.086,-4.098,1.925,0.331253,0.092830,1.123658,100759.56
99792,8.793,-3.035,2.308,-0.139664,0.125288,0.962961,100761.44
99803,8.731,-1.073,3.033,-0.445627,0.137527,0.865053,100759.56
99813,8.834,0.545,3.516,-0.471701,0.125288,0.837383,100759.56
99822,8.961,0.761,3.426,-0.249279,0.085912,0.857603,100755.73
99832,9.199,-0.233,2.845,0.027418,0.047600,0.888997,100763.28
99843,9.149,-1.541,2.336,0.154593,0.035362,0.881016,100760.61
99853,8.897,-2.213,2.113,0.066794,0.055050,0.838447,100757.94
99862,8.669,-2.223,2.303,-0.146049,0.084316,0.788961,100757.94
99872,8.525,-1.683,2.675,-0.346123,0.104004,0.735750,100760.91
99883,8.554,-1.036,3.031,-0.432325,0.108793,0.709144,100763.06
99893,8.679,-0.612,3.164,-0.378581,0.105600,0.695310,100759.50
99902,8.709,-0.597,3.230,-0.245022,0.099215,0.699034,100760.39
99912,8.668,-1.040,3.182,-0.124233,0.086976,0.711273,100760.39
99922,8.599,-1.469,3.161,-0.088050,0.072609,0.718190,100762.33
99933,8.606,-1.560,3.194,-0.134343,0.064628,0.718722,100760.03
99943,8.560,-1.396,3.320,-0.213095,0.057178,0.719787,100757.09
99952,8.609,-1.255,3.374,-0.248747,0.046004,0.733089,100757.30
99962,8.818,-1.369,3.121,-0.214160,0.025784,0.757034,100757.30
99973,8.980,-1.805,2.731,-0.161481,0.003967,0.782576,100759.65
99983,9.073,-2.109,2.453,-0.157756,-0.000290,0.801199,100759.45
99992,9.061,-2.443,2.379,-0.210967,0.003435,0.808117,100758.96
100002,9.215,-2.296,2.366,-0.288123,0.019931,0.809713,100756.20
100008,9.224,-2.109,2.598,-0.345591,0.033233,0.816631,100756.20
100018,9.055,-1.943,2.780,-0.371664,0.043343,0.818759,100756.20
100028,9.035,-2.084,2.860,-0.368471,0.056646,0.826209,100759.09
100038,9.162,-2.188,2.918,-0.396141,0.052389,0.848557,100763.09
100047,9.124,-2.191,3.079,-0.439774,0.043876,0.876227,100759.67
100058,9.059,-2.172,3.137,-0.476490,0.032701,0.909218,100759.23
100068,8.918,-2.264,3.189,-0.503095,0.021527,0.951786,100759.88
100078,8.937,-2.345,3.317,-0.523847,0.015674,0.995952,100758.45
100087,9.130,-2.401,3.589,-0.544068,0.015674,1.038520,100758.45
100098,9.407,-2.771,3.430,-0.580251,0.010885,1.073108,100759.97
100108,9.595,-3.049,3.180,-0.646765,-0.005079,1.105566,100758.14
100118,9.865,-3.006,2.697,-0.717535,-0.024767,1.135897,100758.14
100127,10.072,-2.641,2.517,-0.753187,-0.046051,1.180594,100762.37
100137,10.418,-2.552,2.204,-0.729242,-0.067867,1.239126,100757.90
100148,10.705,-2.581,1.929,-0.674434,-0.117354,1.318410,100757.12
100158,10.849,-2.478,2.037,-0.605260,-0.155133,1.405144,100756.07
100168,11.069,-2.655,2.028,-0.557370,-0.183335,1.492410,100762.57
100177,11.222,-2.855,2.095,-0.549921,-0.218987,1.583933,100760.43
100188,11.308,-2.846,2.153,-0.575462,-0.250381,1.673859,100757.38
100198,11.429,-2.658,2.208,-0.626013,-0.276987,1.765914,100757.54
100207,11.627,-2.650,2.215,-0.688801,-0.311574,1.868080,100757.54
100217,12.005,-2.594,2.318,-0.775535,-0.344565,1.973437,100757.54
100228,13.076,-2.682,2.417,-0.888343,-0.383409,2.067621,100759.38
100238,14.739,-3.029,2.624,-1.046379,-0.442473,2.134134,100759.80
100243,16.076,-3.017,2.993,-1.256562,-0.463757,2.155419,100758.71
100252,17.077,-2.412,3.304,-1.616269,-0.434491,2.175639,100760.85
100262,17.303,-0.527,3.687,-2.161149,-0.364785,2.233107,100760.85
100273,16.468,2.400,4.124,-2.541608,-0.271666,2.334208,100758.84
100283,15.517,4.712,4.419,-2.489461,-0.188656,2.419345,100757.90
100293,13.616,5.058,5.250,-1.948305,-0.134381,2.465107,100754.85
100302,11.410,2.412,6.479,-1.169297,-0.062546,2.571529,100756.52
100313,11.110,-1.210,6.746,-0.467976,0.015142,2.742868,100756.52
100323,11.659,-3.503,6.655,-0.125297,0.053986,2.795015,100757.83
100333,12.126,-4.567,5.792,-0.207774,0.104004,2.678483,100756.58
100342,11.757,-3.961,4.969,-0.580251,0.122096,2.430520,100757.41
100353,11.011,-2.812,3.918,-1.034141,0.080591,2.088373,100755.69
100363,9.420,-2.198,3.434,-1.399168,-0.001886,1.762190,100755.69
100373,7.502,-1.986,3.843,-1.637553,-0.004546,1.483896,100759.66
100382,5.709,-2.249,3.432,-1.702471,0.084848,1.207731,100757.98
100392,5.371,-2.576,1.602,-1.673737,0.095490,0.925713,100756.16
100403,4.345,-3.528,2.685,-1.615204,0.111453,0.641034,100756.31
100413,4.333,-2.614,2.592,-1.517828,0.306206,0.254191,100756.31
100423,3.929,-0.265,1.864,-1.457168,0.426995,-0.232158,100753.54
100432,3.563,2.772,0.453,-1.378416,0.461050,-0.697754,100757.77
100443,3.084,4.535,-0.169,-1.193774,0.457325,-1.108010,100756.63
100453,2.846,4.994,-0.450,-0.770746,0.439765,-1.402799,100754.63
100463,3.117,4.859,-0.407,-0.112527,0.387086,-1.547533,100754.63
100472,3.755,4.380,0.124,0.698941,0.323233,-1.616175,100756.74
100478,4.464,3.800,0.410,1.318849,0.288646,-1.688542,100757.63
100488,5.081,2.820,0.684,1.873839,0.261508,-1.812524,100757.63
100498,5.703,0.911,0.958,2.470866,0.218940,-1.998230,100754.96
100508,6.203,-0.856,0.910,2.842811,0.171582,-2.193514,100752.34
100517,6.437,-2.248,0.878,2.964664,0.125288,-2.439881,100752.34
100528,6.491,-3.138,0.898,2.838554,0.085912,-2.742119,100752.49
100538,6.595,-3.515,0.935,2.507582,0.060903,-3.055000,100751.99
100548,7.038,-3.440,0.826,2.055289,0.025252,-3.341275,100751.21
100557,7.543,-3.160,0.999,1.591821,-0.046583,-3.595623,100751.21
100568,8.195,-2.898,1.281,1.217216,-0.121611,-3.811128,100751.21
100578,8.854,-3.029,1.510,0.971913,-0.184400,-3.990449,100754.79
100588,9.374,-3.254,1.729,0.858574,-0.198766,-4.146357,100754.59
100598,9.868,-3.689,1.794,0.851656,-0.172161,-4.287898,100753.52
100608,10.310,-4.150,2.095,0.922427,-0.130124,-4.368247,100751.74
100618,11.254,-3.825,2.159,1.053326,-0.078510,-4.423586,100751.74
100628,12.016,-3.954,2.236,1.231583,-0.044987,-4.485311,100757.04
100638,12.660,-4.770,2.189,1.424739,-0.022106,-4.483715,100755.35
100648,13.160,-5.503,2.155,1.580115,-0.001886,-4.446999,100755.88
100658,13.483,-6.361,1.995,1.681215,0.032701,-4.399109,100755.88
100668,13.734,-7.184,1.901,1.678023,0.066756,-4.305458,100758.80
100678,13.867,-7.891,2.166,1.554573,0.080059,-4.180412,100758.80
100687,13.950,-8.393,2.485,1.344922,0.071013,-4.064944,100758.27
100698,13.716,-8.568,2.986,1.074610,0.048665,-3.960651,100756.60
100708,13.385,-8.376,3.448,0.756409,0.061967,-3.841990,100758.85
100713,12.981,-8.387,3.857,0.545161,0.098151,-3.709495,100758.85
100723,12.608,-8.094,3.996,0.399363,0.159343,-3.545073,100756.80
100732,12.361,-8.071,3.264,0.297198,0.237031,-3.336486,100759.00
100743,11.442,-8.763,3.364,0.273785,0.280132,-3.151844,100757.16
100753,10.868,-9.895,3.207,0.241859,0.365802,-2.878340,100757.89
100763,10.760,-11.149,2.979,0.126923,0.429123,-2.562266,100757.89
100773,10.297,-12.415,2.891,-0.154563,0.444022,-2.232890,100760.16
100783,9.641,-13.509,2.864,-0.574930,0.439765,-1.825294,100757.76
100793,9.261,-13.795,2.230,-0.965499,0.401453,-1.323515,100756.91
100803,9.029,-12.848,1.833,-1.202287,0.342921,-0.713185,100758.07
100813,8.942,-10.414,1.934,-1.183663,0.293435,-0.037938,100758.07
100823,8.894,-7.840,2.155,-0.865994,0.211490,0.599530,100760.23
100833,8.615,-4.778,2.369,-0.346655,0.111453,1.090135,100759.17
100843,8.981,-1.092,3.510,0.137033,0.167325,1.287548,100757.70
100853,15.115,2.495,0.965,0.380739,0.297160,1.301383,100756.50
100862,16.645,3.620,-0.349,0.237602,0.071013,1.229016,100756.50
100873,12.556,0.783,3.651,0.315822,0.125288,1.349272,100759.17
100883,11.755,-5.616,6.375,0.967124,0.462646,1.814336,100759.17
100893,15.017,-8.079,4.565,1.646096,0.504683,2.433712,100758.91
100903,13.995,-5.432,1.961,1.784977,0.284389,2.564611,100757.34
100913,10.087,-4.130,0.229,1.323106,0.196591,2.203841,100757.34
100923,6.491,-5.029,1.560,0.578684,0.227453,1.839878,100761.19
100933,6.883,-4.306,2.348,-0.187022,0.263105,1.709511,100760.72
100943,8.962,-2.162,2.653,-0.864398,0.239160,1.637676,100759.83
100948,9.559,-0.591,3.094,-1.151205,0.196059,1.554135,100757.27
100958,9.464,1.056,3.540,-1.129920,0.160408,1.482300,100757.27
100968,8.907,2.909,3.545,-0.739884,0.110389,1.432814,100757.27
100978,8.239,2.915,3.144,-0.128490,0.080059,1.426961,100759.24
100988,8.277,0.899,2.532,0.419051,0.091765,1.426961,100759.46
100998,9.110,-1.784,1.998,0.662225,0.099747,1.374814,100758.49
101008,9.656,-3.514,1.772,0.514299,0.103472,1.266796,100758.49
101018,9.462,-3.666,2.014,0.118941,0.130077,1.127915,100760.27
101028,9.013,-2.534,2.597,-0.280673,0.151894,0.991163,100760.27
101038,8.806,-0.684,3.234,-0.506820,0.141252,0.908686,100759.00
101048,8.724,0.848,3.754,-0.491921,0.114114,0.888997,100757.55
101058,8.712,1.152,3.784,-0.275884,0.086444,0.903364,100757.22
101068,8.683,0.160,3.398,-0.023664,0.057710,0.915603,100757.22
101079,8.656,-1.138,3.017,0.103510,0.044408,0.897511,100759.51
101088,8.527,-1.822,2.842,0.081161,0.053986,0.842172,100758.30
101098,8.366,-1.897,3.000,-0.040160,0.077398,0.771933,100759.20
101108,8.353,-1.468,3.349,-0.151371,0.093362,0.711273,100757.34
101118,8.433,-0.941,3.371,-0.182233,0.087509,0.677218,100759.66
101128,8.896,-1.219,2.942,-0.138600,0.056114,0.699034,100760.44
101138,9.394,-1.762,2.330,-0.120508,0.023655,0.722979,100757.23
101148,9.394,-1.751,2.198,-0.196068,0.035894,0.720851,100757.23
101158,9.143,-1.524,2.533,-0.271095,0.063564,0.722447,100758.23
101168,9.006,-1.517,2.877,-0.302490,0.068353,0.733089,100758.23
101178,8.878,-1.443,3.270,-0.324306,0.059307,0.737346,100762.68
101188,8.689,-1.237,3.511,-0.325370,0.043876,0.741071,100761.84
101198,8.577,-1.296,3.558,-0.296104,0.025784,0.758631,100759.99
101209,8.556,-1.738,3.295,-0.273756,0.010885,0.772998,100758.68
101218,8.675,-2.106,2.964,-0.282270,0.006628,0.776722,100758.68
101228,8.727,-2.198,2.852,-0.313132,0.008756,0.777787,100760.53
101238,8.776,-2.249,2.760,-0.342398,0.013013,0.777254,100759.80
101249,8.932,-2.379,2.653,-0.371664,0.017270,0.780979,100760.17
101258,9.070,-2.231,2.616,-0.412104,0.022591,0.791089,100760.17
101268,9.276,-2.107,2.734,-0.446159,0.023655,0.811842,100760.17
101278,9.351,-2.191,2.858,-0.464783,0.019399,0.837383,100758.72
101288,9.236,-2.237,2.958,-0.491389,0.023123,0.858667,100761.14
101298,9.083,-2.327,3.103,-0.520123,0.033233,0.883144,100761.66
101308,9.023,-2.534,3.021,-0.549921,0.034830,0.909218,100758.45
101318,9.120,-2.722,3.049,-0.595682,0.024187,0.945401,100758.45
101328,9.256,-2.647,3.009,-0.640379,0.003967,0.979988,100760.51
101339,9.374,-2.488,2.952,-0.659535,-0.011464,1.023089,100759.13
101348,9.479,-2.568,2.854,-0.656343,-0.042858,1.068851,100756.76
101358,9.628,-2.503,2.693,-0.642508,-0.073189,1.120997,100756.76
101368,9.750,-2.491,2.616,-0.624948,-0.108308,1.181658,100761.31
101379,9.950,-2.549,2.472,-0.595682,-0.145023,1.247108,100761.31
101388,10.202,-2.739,2.454,-0.556838,-0.186528,1.323199,100756.17
101398,10.559,-2.829,2.483,-0.528104,-0.219519,1.388649,100760.58
101408,10.881,-3.106,2.363,-0.525976,-0.254106,1.452502,100757.33
101419,11.069,-3.279,2.111,-0.565352,-0.283372,1.513162,100757.33
101429,11.154,-3.357,1.807,-0.629205,-0.305721,1.566373,100759.30
101438,11.181,-3.020,1.639,-0.697847,-0.327005,1.634483,100761.08
101448,11.276,-2.744,1.612,-0.749994,-0.350950,1.730263,100757.98
101458,11.468,-2.871,1.650,-0.806398,-0.375427,1.813804,100756.90
101469,12.097,-3.182,1.641,-0.917077,-0.399372,1.908520,100759.41
101478,13.577,-3.311,1.644,-1.122471,-0.441409,1.968648,100760.99
101488,15.642,-2.624,2.307,-1.457168,-0.487170,2.003767,100757.68
101498,17.040,-1.459,3.167,-1.828048,-0.524418,2.055382,100757.68
101509,16.912,0.704,4.030,-2.151571,-0.506858,2.138391,100757.48
101518,15.638,3.463,4.526,-2.224470,-0.455776,2.265566,100757.48
101528,14.098,4.969,4.570,-1.875406,-0.412143,2.370923,100761.53
101533,12.820,4.731,4.985,-1.405553,-0.367977,2.428923,100759.28
101543,11.828,2.958,5.755,-0.875040,-0.305721,2.527364,100758.55
101554,11.225,0.032,6.656,-0.237040,-0.234950,2.680611,100756.70
101563,11.776,-2.567,6.496,0.240794,-0.211537,2.805125,100756.70
101573,12.145,-3.879,6.145,0.381271,-0.209409,2.779583,100755.80
101583,11.469,-4.621,5.181,0.184391,-0.190253,2.600795,100754.95
101594,10.358,-4.287,4.187,-0.220545,-0.191317,2.359749,100758.16
101603,9.343,-4.067,3.393,-0.621224,-0.249317,2.096355,100756.95
101613,8.204,-3.645,3.706,-0.950067,-0.307849,1.843070,100756.95
101623,6.826,-3.250,4.098,-1.141627,-0.266344,1.573823,100758.91
101634,6.459,-2.801,2.823,-1.198030,-0.219519,1.252429,100758.40
101644,5.915,-3.194,3.182,-1.208140,-0.251977,0.940612,100757.55
101653,5.474,-1.858,3.443,-1.178874,-0.153005,0.637842,100753.88
101663,4.924,0.085,2.782,-1.130453,-0.023702,0.174906,100753.88
101673,4.072,1.889,2.441,-1.025627,0.029509,-0.245460,100757.06
101684,3.818,3.780,1.701,-0.852691,0.047600,-0.604102,100758.69
101693,3.739,4.562,1.105,-0.595682,0.036958,-0.942524,100757.53
101703,3.852,3.723,0.590,-0.218416,0.006628,-1.200065,100755.48
101713,4.154,2.455,0.481,0.247712,-0.025299,-1.368744,100755.48
101724,4.645,1.711,0.553,0.720757,-0.023170,-1.538487,100758.30
101733,5.143,0.955,0.535,1.135803,0.000775,-1.766762,100756.10
101743,5.476,0.181,0.450,1.461986,0.022059,-2.017386,100754.95
101753,5.750,-0.346,0.389,1.688665,0.036958,-2.276523,100751.90
101764,5.856,-0.900,0.600,1.816903,0.045472,-2.543643,100751.90
101774,6.010,-1.549,0.991,1.862665,0.059839,-2.796927,100753.91
101783,6.610,-1.851,1.038,1.834463,0.058243,-3.040101,100753.45
101793,7.308,-2.033,1.176,1.737619,0.017270,-3.292321,100753.02
101804,7.876,-2.217,1.512,1.616298,-0.026363,-3.523789,100753.13
101814,8.577,-2.294,1.651,1.494445,-0.052436,-3.728119,100753.13
101823,9.016,-2.618,1.850,1.363014,-0.065739,-3.944687,100754.57
101833,9.507,-3.139,2.051,1.239564,-0.051904,-4.167642,100752.63
101843,10.117,-3.636,2.295,1.125693,-0.025831,-4.359201,100751.80
101854,10.615,-4.490,2.562,1.029381,-0.001354,-4.486375,100754.21
101863,11.235,-4.774,2.773,0.976702,0.031105,-4.565127,100754.21
101873,11.879,-4.602,2.660,0.988941,0.061967,-4.652925,100754.27
101883,12.209,-4.885,2.709,1.084188,0.099747,-4.686449,100754.31
101894,12.680,-5.140,2.888,1.230518,0.143912,-4.646008,100753.42
101904,13.194,-5.553,3.158,1.388023,0.189674,-4.593862,100750.70
101913,13.597,-6.262,3.392,1.474225,0.230646,-4.542247,100750.70
101923,13.868,-7.174,3.661,1.473161,0.263637,-4.467752,100756.10
101934,14.068,-8.120,3.759,1.403986,0.293967,-4.361862,100753.54
101944,14.044,-9.142,3.924,1.260317,0.310463,-4.228834,100756.05
101953,13.746,-9.737,4.018,1.042152,0.327490,-4.046853,100754.12
101963,13.207,-10.297,3.966,0.776097,0.347710,-3.803678,100754.12
101974,12.496,-9.906,3.778,0.494079,0.384426,-3.513679,100757.91
101984,11.796,-8.904,3.332,0.281767,0.450940,-3.261458,100758.86
101993,11.110,-9.117,3.291,0.210464,0.528095,-3.103422,100761.69
102004,10.705,-10.027,3.049,0.127632,0.595851,-2.826547,100757.02
102013,10.302,-10.858,3.187,0.015712,0.610572,-2.505331,100757.02
102024,9.848,-11.651,3.113,-0.155627,0.588756,-2.113698,100757.32
102034,9.564,-12.390,2.651,-0.388692,0.541398,-1.655019,100757.37
102043,9.036,-13.301,2.473,-0.599407,0.484462,-1.123974,100759.37
102053,8.665,-13.396,2.399,-0.736159,0.447215,-0.543974,100758.37
102064,8.498,-11.821,2.453,-0.778728,0.418481,0.037090,100758.37
102074,8.487,-9.051,2.478,-0.603664,0.358885,0.583034,100758.69
102083,8.319,-6.833,2.264,-0.146582,0.263637,1.023621,100758.80
102093,8.098,-5.877,1.440,0.448317,0.166261,1.352465,100759.17
102104,9.229,-1.138,0.472,0.903803,0.099215,1.504116,100759.58
102114,14.817,11.662,-0.591,0.867087,0.146041,1.036924,100759.58
102119,18.882,13.173,-4.680,0.579216,0.059839,0.454796,100761.63
102128,17.303,6.568,-3.474,0.421180,-0.078510,0.610172,100761.63
102138,12.394,-1.401,0.145,1.045876,-0.032748,1.398759,100760.52
102149,9.586,-4.973,3.949,1.714206,0.268426,1.996850,100759.09
102159,12.671,-7.349,3.341,2.124463,0.699435,2.243217,100755.91
102169,14.265,-8.236,3.274,2.218646,0.713270,2.205437,100756.98
102178,11.949,-7.590,2.834,1.789234,0.553637,1.968648,100759.91
102189,8.924,-5.889,2.824,0.794188,0.436573,1.712171,100759.07
102199,7.415,-3.948,3.371,-0.250875,0.343985,1.556263,100759.07
102209,7.959,-1.920,3.726,-1.040526,0.240756,1.447181,100759.18
102218,9.122,-0.085,3.587,-1.447590,0.141252,1.346080,100759.18
102228,9.138,1.599,3.094,-1.374159,0.078995,1.294465,100760.88
102239,8.416,3.327,2.877,-0.871847,0.099215,1.279566,100760.14
102249,8.168,3.218,2.784,-0.197132,0.146041,1.289676,100761.88
102259,8.725,1.593,2.585,0.321675,0.172646,1.343951,100758.30
102268,9.376,-0.716,2.475,0.555803,0.186481,1.347144,100758.30
102279,9.526,-2.716,2.479,0.485033,0.173710,1.254557,100760.33
102289,9.197,-3.184,2.776,0.120537,0.143380,1.124722,100757.97
102299,8.799,-2.382,3.086,-0.342398,0.106665,0.998612,100756.77
102308,8.642,-0.755,3.346,-0.656875,0.072077,0.912942,100756.77
102319,8.656,0.942,3.413,-0.679756,0.055582,0.887933,100756.77
102329,8.684,1.556,3.140,-0.428068,0.047600,0.907089,100760.89
102338,8.727,0.826,2.879,-0.078472,0.042811,0.943805,100758.02
102348,8.839,-0.468,2.916,0.145015,0.046004,0.965089,100758.22
102359,8.865,-1.413,3.056,0.134904,0.043876,0.945401,100755.91
102369,8.864,-2.040,3.171,-0.067297,0.032169,0.895383,100755.91
102379,8.914,-1.739,3.241,-0.320049,0.018866,0.838979,100758.21
102389,8.860,-1.170,3.031,-0.446691,0.009821,0.797475,100759.41
102398,8.866,-0.763,2.675,-0.411040,0.006096,0.785768,100757.68
102409,8.879,-0.725,2.485,-0.281737,0.013545,0.804392,100757.68
102419,8.922,-1.171,2.538,-0.162545,0.027912,0.821952,100760.95
102429,8.939,-1.597,2.740,-0.118380,0.030041,0.831530,100761.16
102438,8.727,-1.618,3.147,-0.154563,0.031637,0.842172,100761.16
102449,8.556,-1.539,3.413,-0.234912,0.026316,0.846429,100755.81
102459,8.687,-1.454,3.416,-0.310471,0.016738,0.851218,100758.44
102469,8.846,-1.393,3.278,-0.336013,0.009821,0.862924,100758.44
102478,8.872,-1.489,3.059,-0.315793,0.010885,0.870374,100760.16
102489,8.944,-1.917,2.762,-0.276948,0.013013,0.873034,100756.70
102499,8.956,-2.286,2.608,-0.255132,0.018334,0.866649,100759.79
102509,8.873,-2.570,2.562,-0.265242,0.028444,0.850154,100754.34
102519,8.889,-2.631,2.637,-0.309407,0.038022,0.836851,100760.05
102529,8.972,-2.480,2.730,-0.362618,0.039619,0.830998,100759.67
102539,9.030,-2.240,2.840,-0.394013,0.040151,0.841108,100757.69
102549,9.198,-2.246,2.898,-0.423811,0.035362,0.872502,100757.69
102558,9.319,-2.151,2.969,-0.459462,0.030041,0.914007,100757.00
102568,9.345,-2.065,3.210,-0.492453,0.027380,0.959236,100757.00
102579,9.319,-2.081,3.400,-0.514802,0.020995,1.002337,100761.34
102589,9.451,-2.199,3.319,-0.531829,0.017625,1.056435,100759.23
102598,9.623,-2.501,3.017,-0.562159,-0.000290,1.098649,100759.23
102608,9.780,-2.586,2.891,-0.598343,-0.015721,1.150263,100758.55
102619,9.974,-2.562,2.643,-0.620691,-0.035941,1.199750,100758.55
102629,10.093,-2.526,2.478,-0.622288,-0.068932,1.266796,100762.38
102639,10.178,-2.535,2.473,-0.598875,-0.104051,1.338630,100758.44
102649,10.165,-2.494,2.539,-0.569077,-0.125867,1.408337,100760.38
102659,10.346,-2.740,2.412,-0.544600,-0.150877,1.483364,100760.38
102669,10.442,-2.925,2.409,-0.552581,-0.175886,1.554667,100760.38
102679,10.501,-2.996,2.417,-0.591425,-0.191317,1.624905,100758.10
102688,10.711,-3.036,2.327,-0.645168,-0.207812,1.695676,100759.26
102699,10.998,-2.978,2.257,-0.712214,-0.231225,1.769107,100761.73
102709,11.306,-2.944,2.503,-0.795756,-0.242932,1.843603,100757.90
102719,11.694,-2.983,2.635,-0.901645,-0.253042,1.936190,100757.90
102729,12.341,-3.361,2.620,-1.075645,-0.250381,2.012813,100757.13
102738,13.928,-3.308,2.712,-1.371498,-0.245060,2.062832,100759.73
102749,16.147,-2.069,3.341,-1.781223,-0.250913,2.112850,100756.86
102759,17.598,-0.597,4.151,-2.160085,-0.262620,2.177235,100756.86
102769,17.390,1.429,4.497,-2.420287,-0.226436,2.258116,100761.99
102779,15.801,3.499,4.617,-2.466048,-0.170565,2.358153,100758.74
102789,13.856,4.186,4.746,-2.189883,-0.100858,2.415621,100758.74
102799,12.228,3.098,5.623,-1.660966,-0.008271,2.461914,100759.90
102809,12.012,0.170,6.413,-1.050104,0.078463,2.587492,100757.32
102818,12.953,-2.000,6.254,-0.592490,0.106132,2.722648,100757.32
102829,13.096,-2.987,5.888,-0.446691,0.111453,2.676886,100756.93
102839,12.074,-3.086,5.058,-0.608453,0.108793,2.478410,100755.35
102849,10.789,-2.375,4.215,-0.944746,0.073142,2.197988,100756.09
102859,9.896,-1.742,3.587,-1.239535,-0.000290,1.872869,100756.35
102870,8.778,-1.449,3.542,-1.441205,-0.042858,1.537107,100758.03
102879,7.250,-1.943,3.697,-1.582214,-0.030620,1.252429,100757.09
102889,5.766,-2.756,3.163,-1.608819,0.023655,1.042245,100755.31
102899,4.936,-3.348,1.829,-1.552948,-0.009868,0.834190,100755.31
102908,4.419,-4.871,2.039,-1.410342,-0.027427,0.600594,100754.47
102919,4.613,-4.213,2.047,-1.230489,0.125288,0.227053,100754.47
102929,4.687,-1.786,1.838,-1.148012,0.251398,-0.241736,100759.50
102939,4.584,0.693,0.420,-1.173021,0.242885,-0.680194,100756.83
102948,3.876,2.793,-0.610,-1.153865,0.183288,-1.027130,100754.56
102959,3.249,4.300,-0.832,-0.868655,0.183288,-1.283074,100755.56
102969,3.137,4.951,-0.786,-0.260453,0.220004,-1.492726,100755.56
102979,3.573,5.035,-0.080,0.551546,0.257784,-1.654487,100756.76
102989,4.389,4.173,0.630,1.399197,0.266830,-1.792836,100755.37
103000,5.160,2.415,1.006,2.140426,0.241288,-1.916285,100749.73
103009,5.779,0.339,0.990,2.679453,0.193398,-2.063147,100749.73
103019,6.008,-1.586,0.875,2.950829,0.145509,-2.277588,100749.73
103029,6.164,-3.053,0.759,2.921031,0.118903,-2.552688,100753.88
103038,6.096,-4.029,0.849,2.631563,0.108261,-2.861312,100756.70
103049,6.198,-4.421,0.680,2.170224,0.096554,-3.173661,100752.88
103060,6.654,-4.064,0.487,1.596965,0.060548,-3.498425,100752.30
103069,7.232,-3.360,0.671,1.157087,0.014077,-3.744082,100752.30
103079,8.057,-2.703,0.968,0.820262,-0.032216,-3.976614,100753.50
103089,8.905,-2.454,1.303,0.648390,-0.055097,-4.173495,100753.61
103099,9.544,-2.941,1.622,0.613271,-0.051372,-4.331531,100752.95
103109,9.981,-3.431,1.990,0.675528,-0.023702,-4.444870,100752.95
103119,10.613,-3.203,2.076,0.785675,0.021527,-4.557146,100758.34
103130,11.003,-3.206,2.330,0.910720,0.067288,-4.668357,100757.38
103139,11.647,-3.711,2.568,1.058115,0.113050,-4.724761,100757.38
103149,12.636,-4.262,2.914,1.247014,0.155087,-4.733806,100755.71
103159,13.635,-4.786,3.017,1.464647,0.193931,-4.728485,100757.02
103169,14.281,-5.569,3.040,1.665784,0.229050,-4.679531,100757.02
103179,14.751,-6.778,3.219,1.789766,0.257784,-4.575237,100756.97
103189,15.194,-8.395,3.645,1.805729,0.262041,-4.422522,100753.30
103199,15.418,-10.185,4.043,1.655674,0.218408,-4.242669,100755.50
103209,15.030,-11.126,4.469,1.279473,0.173178,-4.069733,100757.59
103219,14.078,-10.821,4.696,0.814409,0.194995,-3.872853,100758.08
103229,12.960,-9.610,4.705,0.413730,0.298756,-3.625422,100759.28
103239,12.314,-8.419,4.219,0.215253,0.446683,-3.397679,100760.23
103249,11.851,-9.311,4.214,0.212592,0.528628,-3.233257,100754.14
103259,11.178,-11.426,4.000,0.130648,0.571196,-2.942725,100754.14
103269,10.073,-13.955,4.164,-0.132747,0.607380,-2.544175,100754.14
103279,9.204,-16.121,3.855,-0.616435,0.632921,-2.098799,100757.63
103289,8.913,-16.394,3.061,-1.268269,0.629196,-1.559772,100758.74
103299,8.756,-14.590,2.380,-1.742379,0.577582,-0.921240,100758.27
103309,8.572,-11.120,2.434,-1.826984,0.495637,-0.290158,100759.05
103319,8.653,-7.977,2.599,-1.477388,0.400389,0.308998,100759.05
103329,8.489,-6.147,1.811,-0.760636,0.238628,0.879420,100758.68
103340,7.814,-5.511,0.618,0.121602,0.051325,1.382795,100758.52
103349,8.094,-1.896,-0.596,0.954886,-0.054033,1.668538,100756.90
103359,12.602,12.340,-0.001,1.241161,0.085912,1.258282,100756.90
103369,18.429,14.393,-4.048,1.018207,0.129013,0.357420,100756.90
103379,15.497,4.264,-0.430,1.061308,0.030041,0.796410,100760.52
103389,10.798,-4.769,5.968,2.010591,0.237031,1.799437,100758.25
103399,13.635,-9.626,4.968,2.809288,0.610040,2.541730,100762.03
103409,14.774,-6.820,2.655,2.802371,0.524903,2.627932,100754.53
103419,10.173,-6.342,1.665,2.259619,0.328022,2.193731,100754.53
103430,7.462,-8.055,1.711,1.367803,0.307270,1.832960,100761.16
103439,8.521,-6.727,1.992,0.337638,0.324829,1.676520,100759.78
103449,9.978,-3.906,3.256,-0.668581,0.274811,1.597236,100759.05
103459,10.091,-1.155,3.735,-1.352874,0.163600,1.472722,100756.78
103470,8.905,1.161,3.392,-1.480581,0.039619,1.372153,100759.72
103479,7.722,3.274,3.097,-1.064471,0.012481,1.352465,100759.25
103489,7.739,3.524,3.001,-0.370600,0.065692,1.354594,100759.25
103499,8.744,1.791,2.889,0.233345,0.090169,1.381731,100758.41
103510,9.703,-0.232,2.712,0.541436,0.081123,1.417915,100758.52
103519,9.593,-1.744,2.788,0.554739,0.068885,1.375878,100758.52
103529,8.881,-2.446,3.058,0.337638,0.053454,1.262007,100763.23
103539,8.502,-2.271,3.254,-0.018343,0.011417,1.147071,100757.47
103549,8.632,-1.171,3.383,-0.353040,-0.041794,1.072043,100759.56
103560,8.707,0.256,3.471,-0.487664,-0.076913,1.038520,100758.98
103569,8.597,1.208,3.109,-0.323242,-0.087023,1.045438,100758.98
103579,8.447,0.925,2.533,0.043382,-0.075317,1.068319,100759.81
103589,8.511,-0.271,2.124,0.364244,-0.040198,1.081621,100757.98
103600,8.739,-1.499,2.197,0.456299,-0.002950,1.073640,100757.67
103609,8.805,-2.302,2.277,0.322207,0.022059,1.031603,100757.67
103619,8.895,-2.526,2.398,0.047638,0.034298,0.976796,100757.67
103629,8.956,-2.266,2.594,-0.220545,0.038554,0.923053,100761.33
103640,8.888,-1.599,2.580,-0.367407,0.047068,0.875163,100760.44
103649,8.911,-1.166,2.521,-0.369536,0.062499,0.842172,100760.50
103659,8.900,-1.077,2.569,-0.280673,0.070481,0.827273,100758.77
103669,8.855,-1.283,2.837,-0.181701,0.078463,0.826741,100758.77
103680,8.748,-1.692,3.090,-0.150306,0.072077,0.828337,100759.95
103690,8.738,-1.969,3.104,-0.214160,0.056114,0.829401,100758.21
103699,8.836,-1.748,3.164,-0.307279,0.047600,0.831530,100757.01
103709,8.861,-1.609,3.118,-0.358361,0.043876,0.835787,100757.01
103719,9.004,-1.593,2.858,-0.363682,0.038554,0.846961,100757.52
103730,9.115,-1.632,2.781,-0.310471,0.038022,0.854943,100757.52
103739,9.158,-2.209,2.677,-0.228527,0.039619,0.855475,100759.83
103749,9.143,-2.802,2.505,-0.221609,0.036958,0.846961,100758.94
103759,9.079,-2.863,2.597,-0.283866,0.039619,0.823016,100759.88
103770,9.081,-2.717,2.854,-0.341866,0.048132,0.802796,100759.88
103780,9.207,-2.616,2.888,-0.381242,0.045472,0.799603,100761.27
103789,9.243,-2.455,2.761,-0.415297,0.034298,0.810777,100757.13
103799,9.229,-2.235,2.720,-0.434453,0.026848,0.838447,100757.76
103810,9.340,-2.022,2.758,-0.439774,0.015674,0.894851,100757.20
103820,9.401,-2.033,2.908,-0.430196,-0.002418,0.966686,100760.41
103829,9.450,-1.939,3.031,-0.408912,-0.011464,1.034796,100760.61
103839,9.520,-2.216,3.322,-0.403058,-0.008271,1.095988,100760.61
103849,9.851,-2.625,3.285,-0.433921,-0.007739,1.148667,100760.97
103860,10.158,-2.908,2.993,-0.506288,-0.029556,1.200814,100758.25
103869,10.235,-2.765,2.776,-0.582380,-0.059886,1.254557,100758.25
103880,10.216,-2.655,2.643,-0.615193,-0.089861,1.323199,100761.58
103889,10.275,-2.498,2.590,-0.612178,-0.113629,1.393438,100761.58
103900,10.491,-2.405,2.536,-0.591425,-0.134381,1.476979,100757.88
103910,10.596,-2.467,2.558,-0.556306,-0.158858,1.566905,100759.88
103919,10.524,-2.571,2.556,-0.538214,-0.178014,1.653639,100759.88
103929,10.583,-2.780,2.482,-0.553646,-0.194510,1.744098,100758.71
103940,10.721,-2.903,2.564,-0.596214,-0.209941,1.816997,100756.48
103950,11.056,-3.105,2.789,-0.674434,-0.218455,1.907988,100758.16
103959,11.404,-3.243,3.056,-0.814379,-0.222179,1.992061,100758.16
103969,12.089,-4.049,2.971,-1.035737,-0.206748,2.051657,100758.16
103980,13.980,-4.196,2.648,-1.409278,-0.198766,2.083584,100759.97
103990,16.318,-3.329,2.781,-1.950434,-0.213666,2.112850,100761.28
103999,17.724,-2.002,2.959,-2.499571,-0.221115,2.150630,100759.75
104009,17.528,0.438,3.186,-2.949204,-0.156198,2.201180,100758.70
104019,16.254,3.821,3.735,-3.062011,-0.079042,2.265033,100758.70
104030,14.459,5.476,4.711,-2.618232,-0.033280,2.329419,100756.86
104040,12.650,3.778,5.953,-1.738654,0.001307,2.449676,100757.98
104049,12.225,0.395,6.279,-0.813847,0.025252,2.642831,100755.77
104059,12.775,-1.756,6.079,-0.222141,0.034298,2.761492,100755.77
104070,12.807,-2.896,5.542,-0.074747,0.070481,2.661455,100759.29
104080,11.821,-3.148,4.962,-0.265242,0.101343,2.430520,100759.29
104089,10.688,-2.285,4.386,-0.618563,0.063032,2.165529,100756.24
104099,9.798,-1.385,3.657,-0.942618,-0.051372,1.863291,100755.30
104110,8.513,-1.423,3.304,-1.155462,-0.162051,1.566373,100754.73
104115,7.299,-1.827,3.307,-1.272526,-0.194510,1.354061,100754.73
104125,5.779,-2.643,3.194,-1.333186,-0.165244,1.160906,100757.38
104134,4.928,-3.294,1.586,-1.344893,-0.137042,0.924117,100757.33
104144,4.170,-4.738,1.871,-1.293278,-0.192381,0.676686,100756.59
104155,4.407,-4.725,2.339,-1.142159,-0.072124,0.387750,100755.91
104165,4.297,-2.616,2.216,-1.022434,0.048132,-0.058690,100755.91
104174,3.895,-0.037,1.026,-0.955921,0.064096,-0.498745,100757.12
104184,3.509,2.616,0.031,-0.850563,0.044408,-0.864304,100756.71
104195,3.178,4.235,-0.208,-0.546196,0.051325,-1.175588,100756.80
104205,3.184,4.561,-0.242,0.036464,0.063564,-1.403863,100754.40
104214,3.619,4.289,0.335,0.783014,0.055582,-1.540083,100754.40
104224,4.327,3.492,0.878,1.537014,0.030573,-1.648102,100753.81
104235,4.973,2.069,1.100,2.159050,-0.004546,-1.775276,100756.00
104245,5.489,0.288,0.932,2.572499,-0.049776,-1.919478,100752.59
104254,5.725,-1.378,0.805,2.742242,-0.106179,-2.108377,100752.13
104264,5.749,-2.686,0.972,2.675729,-0.137574,-2.363789,100752.13
104274,5.784,-3.718,1.118,2.420316,-0.133317,-2.662835,100754.59
104285,6.128,-4.148,1.069,2.039857,-0.122143,-2.963477,100753.77
104295,6.707,-3.944,0.853,1.599803,-0.142363,-3.259330,100754.70
104304,7.213,-3.372,0.968,1.182096,-0.182271,-3.539752,100753.55
104314,7.705,-2.869,1.252,0.867087,-0.211537,-3.793036,100753.55
104325,8.302,-2.656,1.560,0.674464,-0.212601,-4.012266,100752.40
104335,8.781,-2.745,1.896,0.609014,-0.191317,-4.201164,100753.87
104344,9.335,-2.874,2.201,0.645730,-0.146088,-4.360265,100756.01
104354,10.055,-3.162,2.324,0.767583,-0.084363,-4.464026,100753.80
104365,10.786,-3.596,2.653,0.967124,-0.021042,-4.484247,100753.80
104375,11.629,-4.168,2.845,1.233711,0.034830,-4.459238,100756.96
104385,12.301,-4.906,2.830,1.499234,0.066756,-4.430504,100755.60
104394,12.740,-5.716,2.760,1.706757,0.084848,-4.394852,100754.18
104404,13.073,-6.768,2.879,1.814775,0.093894,-4.339513,100754.82
104415,13.394,-8.110,2.994,1.792958,0.088041,-4.270339,100754.82
104425,13.539,-9.284,3.156,1.601399,0.071545,-4.196375,100758.65
104434,13.579,-9.941,3.375,1.263509,0.066756,-4.125072,100757.34
104444,13.348,-9.859,3.641,0.855913,0.086444,-4.042596,100756.87
104455,12.771,-8.705,4.228,0.443528,0.150830,-3.925531,100759.01
104465,12.443,-7.454,4.489,0.126391,0.262573,-3.787183,100759.01
104474,12.480,-7.069,4.410,-0.015683,0.384958,-3.579660,100759.59
104484,12.607,-7.396,3.856,0.001877,0.465839,-3.347660,100759.97
104495,11.641,-9.014,4.012,0.067327,0.504683,-3.175257,100757.81
104505,11.029,-11.012,3.562,-0.043884,0.554701,-2.887385,100757.14
104514,10.466,-12.623,3.466,-0.354637,0.569600,-2.557477,100757.14
104524,9.920,-13.260,3.404,-0.817040,0.581839,-2.217991,100759.89
104535,9.581,-13.467,3.089,-1.284764,0.588224,-1.804542,100759.11
104545,9.149,-13.556,2.539,-1.587003,0.554169,-1.267111,100757.53
104555,8.881,-12.777,1.911,-1.665223,0.500426,-0.604635,100757.17
104564,9.036,-10.062,1.755,-1.533260,0.428591,0.094558,100757.17
104574,9.150,-6.389,1.633,-1.069260,0.294499,0.713401,100759.90
104585,8.776,-3.134,1.096,-0.311536,0.131142,1.178465,100761.41
104595,9.272,2.771,1.810,0.477051,0.078995,1.372685,100758.59
104604,14.335,10.921,-0.014,0.960739,0.200848,1.089071,100757.43
104614,15.407,8.662,-0.266,1.028849,0.101876,0.855475,100757.43
104625,12.097,-0.140,4.516,1.563619,0.224793,1.334906,100759.41
104635,13.195,-7.840,4.650,2.412866,0.412628,2.110722,100758.25
104645,14.649,-8.152,3.218,2.732664,0.370059,2.610905,100757.42
104654,12.587,-6.226,0.595,2.356463,0.259380,2.475217,100759.52
104665,8.911,-7.913,0.163,1.543399,0.231178,2.038887,100759.52
104675,8.313,-8.888,0.509,0.560592,0.279068,1.757401,100761.18
104685,9.290,-5.942,1.841,-0.538747,0.336004,1.633951,100758.82
104694,9.765,-1.828,3.499,-1.405021,0.328022,1.505181,100760.24
104700,9.406,0.776,4.236,-1.686507,0.250334,1.408337,100757.55
104710,8.645,2.819,4.447,-1.539645,0.139655,1.356190,100757.55
104720,7.990,4.008,4.179,-0.924526,0.039087,1.340227,100757.55
104730,8.159,2.863,3.442,-0.178508,0.010885,1.335970,100760.80
104740,8.747,0.927,2.653,0.342427,0.017802,1.325860,100761.65
104750,9.301,-0.688,2.227,0.568574,0.049197,1.295529,100758.85
104760,9.325,-2.060,2.372,0.523345,0.083252,1.207731,100758.85
104770,8.936,-2.567,2.804,0.268996,0.096554,1.081621,100759.03
104779,8.665,-1.777,3.272,-0.060912,0.073674,0.974135,100759.03
104790,8.678,-0.381,3.718,-0.295572,0.031637,0.917731,100760.34
104800,8.766,0.579,3.795,-0.333352,-0.011996,0.901768,100759.70
104810,8.782,0.675,3.310,-0.180637,-0.046583,0.920924,100757.88
104819,8.715,0.095,2.742,0.050831,-0.059354,0.943805,100757.88
104829,8.555,-0.801,2.324,0.212592,-0.039666,0.938484,100759.88
104840,8.615,-1.597,2.268,0.221638,0.004499,0.909218,100757.88
104850,8.827,-1.847,2.590,0.100317,0.034830,0.881548,100761.46
104860,8.872,-1.520,2.781,-0.060380,0.034298,0.860796,100758.68
104870,8.829,-1.056,2.864,-0.191811,0.031637,0.860264,100762.07
104880,8.793,-0.667,2.895,-0.235444,0.027912,0.870906,100758.55
104890,8.706,-0.636,2.877,-0.183829,0.030573,0.882612,100759.29
104900,8.697,-1.082,2.855,-0.109866,0.036426,0.887401,100759.29
104909,8.725,-1.597,2.932,-0.079536,0.037490,0.885805,100757.66
104920,8.718,-1.899,3.067,-0.116783,0.033233,0.877823,100757.66
104930,8.739,-1.972,3.067,-0.200325,0.020463,0.866117,100761.41
104940,8.808,-1.784,2.866,-0.270031,0.011417,0.863456,100760.46
104950,8.899,-1.380,2.878,-0.290251,0.006628,0.867181,100759.99
104960,9.034,-1.228,2.824,-0.251939,0.002371,0.890062,100757.85
104970,9.041,-1.530,2.825,-0.203517,-0.002418,0.914007,100757.85
104980,9.091,-2.075,2.724,-0.194471,-0.003482,0.927842,100760.07
104990,9.127,-2.400,2.707,-0.220013,0.000775,0.918796,100758.32
105000,9.052,-2.528,2.732,-0.264710,0.010353,0.904429,100759.01
105010,9.036,-2.589,2.758,-0.320049,0.013013,0.894319,100759.01
105020,9.082,-2.411,2.797,-0.369536,0.013013,0.895915,100759.01
105030,9.197,-2.277,2.836,-0.392948,0.008224,0.914539,100760.04
105039,9.219,-2.167,2.846,-0.407847,-0.001886,0.949658,100759.30
105050,9.218,-2.168,2.837,-0.406251,-0.015189,0.997016,100759.35
105060,9.273,-2.176,2.959,-0.392416,-0.030620,1.057144,100758.26
105070,9.337,-2.441,3.086,-0.379114,-0.045519,1.108227,100758.26
105080,9.541,-2.705,3.144,-0.388159,-0.049244,1.153456,100760.89
105090,9.715,-2.871,3.413,-0.442435,-0.046583,1.182722,100760.94
105100,10.129,-3.014,3.255,-0.521187,-0.042858,1.209860,100758.98
105110,10.406,-3.020,3.080,-0.596747,-0.062014,1.245511,100758.98
105120,10.551,-2.823,2.701,-0.652086,-0.083831,1.287016,100760.75
105129,10.456,-2.625,2.543,-0.668581,-0.113629,1.353529,100760.75
105140,10.536,-2.509,2.495,-0.645701,-0.132253,1.421639,100756.14
105150,10.785,-2.703,2.441,-0.610049,-0.152473,1.502520,100760.44
105160,10.863,-2.859,2.192,-0.597811,-0.173757,1.578612,100759.03
105169,10.870,-2.794,2.040,-0.618563,-0.199831,1.659492,100759.03
105180,10.966,-2.829,2.265,-0.644104,-0.221115,1.739309,100760.59
105190,11.185,-2.968,2.527,-0.688801,-0.231757,1.830832,100761.70
105200,11.530,-3.233,2.672,-0.799480,-0.231757,1.923419,100757.18
105210,12.346,-3.540,2.738,-0.999021,-0.242399,2.003235,100757.80
105221,14.221,-3.528,2.625,-1.271994,-0.281776,2.056978,100760.30
105230,16.213,-3.308,2.764,-1.677993,-0.317959,2.092630,100760.95
105240,17.409,-2.338,2.949,-2.230856,-0.297207,2.120832,100757.63
105250,17.357,-0.178,2.892,-2.817773,-0.199299,2.149034,100757.63
105260,16.391,2.963,2.933,-3.163644,-0.132253,2.175107,100757.52
105270,14.378,5.557,3.625,-2.958250,-0.141831,2.186281,100757.52
105280,11.422,5.394,4.965,-2.194140,-0.155666,2.220868,100757.84
105290,9.763,1.602,5.745,-1.144287,-0.139170,2.385290,100759.09
105299,10.519,-1.924,5.967,-0.285994,-0.114693,2.618354,100756.84
105310,11.446,-4.380,5.967,0.171620,-0.097134,2.658262,100755.73
105320,11.885,-5.218,5.105,0.150336,-0.038069,2.514593,100755.73
105330,11.090,-4.566,4.625,-0.169462,-0.022638,2.281529,100758.30
105340,9.782,-3.758,4.430,-0.537682,-0.043923,2.009089,100756.35
105350,8.311,-3.892,4.234,-0.854820,-0.067335,1.752612,100759.23
105360,6.832,-4.274,3.667,-1.105443,-0.060418,1.498795,100759.23
105370,6.484,-3.661,1.118,-1.353939,-0.067335,1.168887,100759.23
105380,6.138,-3.085,-0.159,-1.617333,-0.196106,0.779915,100759.68
105390,4.385,-2.066,1.579,-1.759406,-0.188124,0.441493,100758.32
105400,3.846,-0.001,2.019,-1.688636,-0.007207,0.099347,100757.54
105406,3.935,2.207,2.002,-1.503461,0.080059,-0.155002,100755.18
105415,3.950,3.966,1.740,-1.211865,0.089105,-0.402433,100755.18
105425,3.643,4.896,1.548,-0.733499,0.070481,-0.711589,100758.77
105435,3.173,4.424,1.758,-0.171059,0.085380,-0.955827,100757.46
105445,3.446,3.881,1.910,0.429161,0.143380,-1.121313,100756.35
105455,4.358,2.958,1.732,1.006500,0.187013,-1.293185,100752.05
105465,5.168,1.307,1.373,1.462518,0.185949,-1.496983,100752.05
105475,5.466,-0.204,1.233,1.728573,0.169986,-1.722065,100754.84
105485,5.593,-1.317,1.033,1.812114,0.187013,-1.987588,100753.95
105495,5.747,-2.140,0.602,1.730702,0.214151,-2.288230,100755.16
105505,5.951,-2.644,0.217,1.518390,0.223197,-2.593129,100752.48
105515,6.203,-2.828,-0.072,1.234243,0.218408,-2.879404,100752.48
105525,6.598,-2.794,-0.032,0.930941,0.216279,-3.142798,100753.70
105535,7.099,-2.406,0.235,0.671803,0.220536,-3.377990,100754.23
105545,7.588,-1.933,0.691,0.503124,0.230646,-3.594559,100753.59
105555,8.138,-1.681,1.183,0.434482,0.249802,-3.783990,100750.30
105565,8.853,-1.678,1.418,0.441932,0.276940,-3.956926,100750.30
105575,9.545,-1.992,1.673,0.483968,0.313655,-4.139440,100754.59
105585,10.146,-2.472,1.820,0.537179,0.365802,-4.321953,100753.12
105595,10.699,-3.231,1.907,0.597840,0.429123,-4.460834,100752.70
105605,11.264,-3.906,1.954,0.698409,0.486059,-4.519898,100753.96
105615,11.982,-3.832,1.884,0.852188,0.531288,-4.565660,100753.96
105625,12.364,-4.332,1.844,1.047473,0.547783,-4.594925,100756.74
105635,12.802,-5.260,1.881,1.214555,0.536609,-4.538522,100755.45
105646,13.190,-6.197,2.294,1.305014,0.502554,-4.452320,100756.43
105655,13.645,-7.076,2.710,1.319381,0.470095,-4.373036,100755.91
105665,14.034,-7.744,2.888,1.269895,0.444554,-4.277788,100755.91
105675,14.260,-8.223,2.710,1.176243,0.436573,-4.172963,100757.84
105686,14.077,-8.570,2.594,1.033638,0.446151,-4.064412,100756.58
105695,13.729,-8.666,2.956,0.846867,0.470095,-3.934045,100757.00
105705,13.252,-8.993,3.540,0.669675,0.486591,-3.739293,100757.20
105715,12.940,-9.097,3.661,0.523877,0.505747,-3.445036,100757.20
105725,12.509,-8.501,3.422,0.440868,0.510004,-3.157697,100758.31
105735,11.973,-8.665,3.123,0.471198,0.513728,-2.952835,100759.05
105745,11.226,-9.868,2.563,0.532923,0.504151,-2.700615,100756.38
105755,10.342,-11.492,2.341,0.480244,0.503618,-2.345165,100757.20
105765,9.618,-13.004,2.350,0.240262,0.522242,-1.978542,100757.20
105776,8.979,-14.133,2.733,-0.183297,0.544059,-1.574671,100762.83
105785,8.751,-14.140,2.605,-0.566416,0.551508,-1.091515,100757.84
105795,8.639,-12.962,2.065,-0.760104,0.502554,-0.566855,100758.64
105805,8.508,-10.470,1.618,-0.705297,0.409967,0.021659,100759.47
105816,8.305,-7.896,1.540,-0.339737,0.285453,0.634649,100759.47
105825,8.080,-6.449,1.352,0.289748,0.141784,1.181658,100757.53
105835,8.189,-4.040,0.812,0.944243,0.043876,1.546153,100759.09
105845,11.543,7.275,1.832,1.207638,0.150830,1.391841,100758.94
105856,18.145,13.228,-2.219,1.010757,0.258848,0.704888,100758.27
105865,16.143,4.884,-1.046,0.769711,0.092830,0.800667,100758.27
105875,9.910,-2.822,4.208,1.290647,0.117839,1.494538,100760.57
105885,11.396,-7.871,5.192,2.084023,0.414756,2.204373,100759.37
105895,15.888,-8.529,3.234,2.546426,0.523306,2.674226,100760.79
105906,14.369,-7.442,0.300,2.416591,0.338664,2.489052,100760.57
105915,9.776,-8.899,-0.522,1.527968,0.235967,2.018667,100760.57
105925,7.230,-8.234,0.631,0.188115,0.338132,1.728667,100760.62
105935,7.533,-4.158,3.030,-1.009131,0.433912,1.617456,100759.55
105946,8.812,0.160,4.504,-1.698214,0.373784,1.492410,100757.99
105955,8.772,3.120,5.369,-1.673737,0.215215,1.373750,100757.99
105965,8.213,4.667,5.550,-1.035205,0.082187,1.348740,100757.99
105975,7.961,4.108,4.856,-0.168930,0.008756,1.357254,100758.77
105986,8.338,1.550,3.231,0.532923,-0.024767,1.363107,100761.70
105991,8.796,-0.579,2.258,0.819730,-0.023170,1.352997,100759.70
106000,9.337,-2.136,1.865,0.856445,0.009288,1.301383,100759.70
106010,9.503,-3.118,1.931,0.624445,0.062499,1.174208,100758.97
106020,8.837,-2.275,2.665,0.192904,0.108261,1.034796,100758.97
106031,8.189,-0.383,3.716,-0.154031,0.122628,0.943805,100761.56
106041,8.409,0.624,3.838,-0.210967,0.087509,0.927309,100760.30
106050,9.288,0.103,3.037,-0.059316,0.003967,1.004465,100759.45
106060,9.549,-0.845,2.023,0.105638,-0.057757,1.057144,100759.45
106071,8.999,-1.920,1.592,0.119473,-0.014124,1.023089,100759.45
106081,8.573,-2.294,1.694,-0.009297,0.059839,0.965621,100760.21
106090,8.563,-2.020,2.199,-0.183297,0.104004,0.912410,100761.68
106100,8.731,-1.397,2.971,-0.343994,0.125820,0.862924,100758.80
106110,8.798,-0.729,3.560,-0.423811,0.118371,0.834190,100758.54
106121,8.748,-0.497,3.691,-0.391884,0.089637,0.828869,100758.54
106131,8.589,-0.690,3.468,-0.299829,0.068885,0.834722,100761.60
106140,8.664,-1.056,3.134,-0.205114,0.063032,0.824612,100759.60
106150,8.672,-1.323,3.070,-0.139132,0.060903,0.814502,100760.77
106161,8.687,-1.555,3.019,-0.108270,0.059307,0.811842,100760.77
106171,8.800,-1.939,2.812,-0.125297,0.050261,0.812374,100760.54
106180,8.917,-2.212,2.665,-0.187554,0.040151,0.809713,100758.60
106190,8.899,-2.053,2.676,-0.269499,0.044940,0.795346,100758.60
106201,8.837,-1.708,2.847,-0.322710,0.055050,0.790025,100758.24
106211,8.909,-1.542,2.981,-0.320049,0.055582,0.795346,100759.23
106220,9.002,-1.574,3.018,-0.284398,0.051325,0.807585,100759.23
106226,8.877,-1.583,3.175,-0.255132,0.048132,0.814502,100760.46
106235,8.781,-1.703,3.278,-0.235976,0.049729,0.824612,100759.88
106246,8.794,-2.219,3.230,-0.234380,0.049729,0.830998,100758.41
106256,8.869,-2.552,3.139,-0.300893,0.050261,0.826741,100758.46
106265,8.975,-2.551,3.377,-0.419022,0.052921,0.837915,100758.46
106275,8.914,-2.413,3.258,-0.529169,0.053454,0.841640,100761.45
106286,8.939,-2.199,3.112,-0.602068,0.060903,0.873034,100759.09
106296,9.034,-2.233,3.115,-0.671242,0.056646,0.923585,100758.09
106305,9.131,-2.003,3.351,-0.717535,0.052389,0.984245,100757.20
106315,9.217,-1.863,3.577,-0.724985,0.048665,1.048630,100757.20
106326,9.383,-2.198,3.559,-0.720728,0.037490,1.117805,100759.99
106336,9.698,-2.582,3.380,-0.728178,0.007160,1.179530,100755.90
106345,10.061,-2.778,3.169,-0.761168,-0.011996,1.234869,100758.95
106355,10.443,-2.891,2.860,-0.796820,-0.038069,1.287016,100757.05
106365,10.691,-2.863,2.532,-0.814911,-0.064675,1.339695,100757.05
106376,10.987,-2.919,2.118,-0.809058,-0.097134,1.401951,100758.68
106386,11.034,-2.875,1.859,-0.790967,-0.138638,1.478575,100759.41
106395,11.032,-2.634,1.876,-0.761168,-0.167372,1.558392,100756.90
106405,11.217,-2.738,1.894,-0.727113,-0.201427,1.653107,100758.63
106416,11.361,-2.695,1.993,-0.710618,-0.243464,1.743566,100758.63
106426,11.518,-2.549,2.215,-0.708490,-0.285500,1.844135,100763.54
106435,11.884,-2.460,2.448,-0.727645,-0.319555,1.948960,100760.09
106445,12.650,-2.741,2.597,-0.784049,-0.358399,2.049529,100760.24
106456,14.094,-2.613,2.904,-0.905370,-0.404161,2.131474,100759.55
106461,15.394,-2.042,3.570,-1.063939,-0.441409,2.185217,100759.55
106470,16.621,-1.081,4.374,-1.276783,-0.466418,2.255988,100759.55
106481,17.499,0.248,5.114,-1.579553,-0.455243,2.373584,100762.10
106490,17.516,1.432,5.053,-1.867424,-0.375959,2.488519,100756.80
106501,17.129,2.652,4.725,-2.087718,-0.281776,2.558758,100757.27
106511,15.514,3.639,4.558,-2.112727,-0.190785,2.526831,100757.27
106521,12.908,3.443,5.263,-1.827516,-0.081702,2.514061,100760.04
106530,10.853,0.882,6.192,-1.241663,0.026316,2.594409,100753.54
106541,10.974,-1.772,6.161,-0.641444,0.108793,2.727969,100753.54
106551,11.746,-3.145,6.078,-0.379114,0.153490,2.710941,100757.63
106561,12.016,-3.196,5.212,-0.478086,0.183820,2.515125,100756.37
106570,11.614,-2.350,4.197,-0.821297,0.150298,2.222997,100756.37
106580,10.306,-1.908,3.920,-1.192177,0.046004,1.925015,100757.34
106591,8.664,-2.176,4.086,-1.471535,0.000243,1.654171,100756.96
106601,6.868,-2.720,4.064,-1.598709,0.057178,1.396630,100754.87
106611,5.889,-3.363,2.313,-1.631700,0.132738,1.142282,100755.91
106620,5.383,-3.514,1.726,-1.657773,0.078995,0.829933,100756.70
106631,4.979,-3.393,2.459,-1.588599,0.148701,0.446282,100755.23
106641,4.643,-1.811,2.015,-1.497608,0.253527,-0.012928,100757.75
106651,4.360,1.352,0.678,-1.420452,0.269490,-0.452983,100754.55
106660,3.741,4.258,0.143,-1.248049,0.248206,-0.846744,100754.55
106671,2.996,5.505,0.262,-0.834600,0.259912,-1.164414,100754.55
106681,3.012,5.632,0.294,-0.160416,0.294499,-1.371937,100757.73
106691,3.437,5.157,0.616,0.669675,0.273215,-1.507625,100757.62
106700,4.085,3.831,0.996,1.479546,0.221600,-1.637460,100752.48
106711,4.700,1.919,1.160,2.128720,0.174775,-1.807203,100751.74
106721,5.255,-0.065,0.948,2.561325,0.129013,-2.010468,100751.74
106731,5.681,-1.642,0.582,2.753949,0.074738,-2.261624,100754.06
106741,5.838,-2.680,0.414,2.695416,0.023123,-2.569184,100751.75
106750,5.925,-3.221,0.448,2.441600,0.000775,-2.900688,100751.38
106761,6.070,-3.207,0.678,2.089344,-0.005079,-3.213037,100751.38
106771,6.483,-2.840,0.939,1.726445,-0.015721,-3.495055,100751.38
106780,6.995,-2.661,1.292,1.409307,-0.058822,-3.758981,100754.32
106790,7.637,-2.683,1.703,1.167197,-0.124271,-3.992577,100754.38
106801,8.457,-2.981,1.962,0.990537,-0.176950,-4.192651,100752.70
106811,9.192,-3.566,2.161,0.838354,-0.182803,-4.394320,100753.43
106820,9.841,-4.104,2.475,0.680849,-0.146088,-4.587476,100753.43
106831,10.395,-4.207,2.719,0.562189,-0.079042,-4.744980,100757.13
106841,10.977,-4.199,2.863,0.575491,0.000243,-4.841292,100754.92
106851,11.744,-4.419,2.804,0.748959,0.077931,-4.860981,100752.56
106861,12.611,-5.075,2.891,1.015014,0.135931,-4.816283,100755.87
106871,13.482,-6.182,3.037,1.292243,0.164664,-4.731146,100755.09
106881,14.118,-7.389,3.121,1.504023,0.172114,-4.608760,100756.71
106891,14.584,-8.525,3.255,1.610445,0.177967,-4.470944,100756.71
106901,14.728,-9.511,3.282,1.632261,0.192866,-4.329403,100753.82
106910,14.586,-10.336,3.307,1.569472,0.213086,-4.168705,100754.29
106920,14.004,-10.719,3.545,1.399729,0.226921,-3.980339,100754.29
106931,13.234,-10.624,3.940,1.148574,0.260444,-3.761110,100759.48
106941,12.570,-10.357,4.136,0.928812,0.322169,-3.464192,100759.64
106951,12.314,-9.324,3.765,0.809620,0.373784,-3.144394,100758.08
106960,11.676,-9.385,3.383,0.812812,0.415288,-2.925697,100758.28
106971,10.656,-10.793,3.302,0.834629,0.462114,-2.674009,100759.72
106981,10.214,-12.175,2.809,0.726610,0.495105,-2.286633,100759.20
106991,9.290,-13.746,3.000,0.480776,0.481270,-1.865735,100759.72
107001,8.957,-15.358,2.503,0.150868,0.458921,-1.358102,100757.89
107011,8.866,-15.824,1.584,-0.137004,0.400389,-0.778634,100757.89
107021,8.426,-14.633,1.108,-0.315793,0.340261,-0.190121,100757.89
107031,8.495,-11.122,1.600,-0.340270,0.316316,0.398924,100758.63
107040,9.468,-5.000,2.533,-0.129554,0.276940,0.878887,100757.94
107046,11.379,-0.287,2.780,0.125859,0.242885,1.070979,100759.20
107056,16.119,4.571,1.449,0.325400,0.198187,1.138557,100756.20
107066,17.682,6.388,-1.806,0.306244,-0.056693,1.119401,100756.20
107076,12.554,1.380,-0.798,0.347748,-0.140234,1.231676,100760.40
107085,8.602,-3.564,3.228,0.599436,0.107197,1.538704,100757.51
107096,10.959,-7.875,5.616,1.174647,0.610572,1.977694,100760.65
107106,15.833,-8.217,4.437,1.751986,0.728169,2.315584,100758.24
107116,14.540,-5.836,2.251,1.790830,0.452536,2.230978,100758.24
107126,9.762,-4.343,1.506,1.154427,0.257784,1.932997,100761.09
107136,6.383,-4.222,1.955,0.279638,0.229050,1.686098,100759.62
107146,6.749,-3.421,2.472,-0.532893,0.247674,1.600960,100758.20
107156,8.757,-1.477,2.897,-1.141095,0.229582,1.498795,100758.04
107166,9.341,0.482,3.301,-1.300728,0.194463,1.351933,100758.04
107175,9.199,2.296,3.586,-0.994765,0.166261,1.265731,100759.18
107186,8.646,3.517,3.614,-0.430196,0.136995,1.244447,100760.90
107196,8.204,2.805,2.985,0.176941,0.131142,1.261474,100758.29
107206,8.505,0.666,2.439,0.627106,0.147637,1.274777,100758.18
107215,9.316,-1.779,2.349,0.748959,0.149233,1.234869,100758.18
107226,9.692,-3.245,2.440,0.496739,0.126885,1.143878,100760.71
107236,9.345,-3.074,2.640,0.059345,0.110921,1.033199,100759.51
107246,8.811,-1.774,2.901,-0.330692,0.099747,0.941676,100759.24
107256,8.577,0.035,3.151,-0.519591,0.083784,0.902832,100758.29
107266,8.427,1.372,3.566,-0.442967,0.071545,0.907089,100758.29
107276,8.466,1.460,3.667,-0.162013,0.064628,0.932631,100760.29
107282,8.446,0.821,3.632,0.067327,0.057710,0.954979,100756.66
107291,8.481,0.057,3.406,0.214189,0.053454,0.962429,100756.66
107301,8.545,-1.153,3.199,0.255693,0.055050,0.949658,100756.20
107311,8.547,-1.683,3.123,0.156721,0.051325,0.912942,100759.29
107321,8.532,-1.621,3.052,0.007198,0.043876,0.881548,100759.29
107331,8.715,-1.683,2.663,-0.109334,0.032169,0.863988,100759.30
107341,9.291,-2.006,1.906,-0.163077,0.013545,0.878355,100761.45
107352,9.502,-2.058,1.691,-0.199793,0.016206,0.882612,100757.77
107361,9.197,-1.760,2.089,-0.252471,0.057710,0.853346,100757.77
107371,8.847,-1.347,2.664,-0.267903,0.086444,0.833126,100757.77
107381,8.739,-1.112,3.177,-0.223738,0.081655,0.825144,100762.17
107390,8.665,-1.274,3.572,-0.169462,0.067288,0.815034,100760.48
107401,8.702,-1.751,3.487,-0.146049,0.046004,0.802264,100759.75
107411,8.697,-2.170,3.131,-0.177976,0.030573,0.782576,100758.44
107421,8.803,-2.314,2.817,-0.241297,0.033233,0.756502,100758.44
107431,9.002,-2.271,2.683,-0.303554,0.044408,0.734154,100760.10
107441,9.183,-2.227,2.557,-0.361554,0.047600,0.732557,100757.88
107451,9.210,-1.956,2.540,-0.399334,0.050261,0.748521,100759.37
107461,9.082,-1.759,2.734,-0.412104,0.056646,0.776190,100759.37
107471,9.139,-1.737,2.951,-0.409976,0.055582,0.813970,100759.59
107481,9.152,-1.913,3.038,-0.417425,0.044940,0.860264,100759.59
107491,9.127,-2.109,3.076,-0.446159,0.032169,0.902300,100756.85
107501,9.182,-2.314,3.137,-0.490857,0.019399,0.936355,100758.38
107511,9.280,-2.337,3.145,-0.542471,0.007692,0.968814,100754.29
107516,9.337,-2.363,3.278,-0.579719,-0.000822,1.000741,100754.29
107526,9.218,-2.369,3.273,-0.597811,-0.004546,1.023089,100759.33
107536,9.359,-2.552,3.113,-0.623884,0.005032,1.048630,100758.39
107546,9.716,-2.874,2.782,-0.671774,-0.002418,1.083218,100757.61
107556,9.868,-2.927,2.523,-0.717535,-0.019978,1.124722,100758.13
107566,9.911,-2.831,2.252,-0.743609,-0.046583,1.167823,100758.13
107576,9.999,-2.540,2.287,-0.728178,-0.079042,1.222098,100759.79
107586,10.177,-2.508,2.384,-0.673370,-0.118950,1.278502,100758.79
107596,10.357,-2.665,2.562,-0.610581,-0.162583,1.340759,100758.74
107606,10.563,-2.921,2.604,-0.581315,-0.196106,1.399291,100758.59
107616,10.721,-3.057,2.560,-0.603132,-0.221647,1.454098,100758.59
107626,10.809,-3.053,2.388,-0.652618,-0.250913,1.514227,100758.59
107632,10.867,-2.892,2.284,-0.695719,-0.273262,1.564777,100757.03
107641,10.992,-2.682,2.313,-0.730838,-0.290821,1.629694,100757.03
107652,11.189,-2.474,2.226,-0.767022,-0.320620,1.730795,100757.08
107661,11.549,-2.340,2.217,-0.811719,-0.363721,1.830300,100760.64
107671,12.136,-2.332,2.354,-0.870251,-0.408950,1.940979,100760.64
107681,13.434,-2.565,2.424,-0.956453,-0.455243,2.035162,100758.26
107692,15.321,-2.156,2.983,-1.139498,-0.509519,2.101144,100760.18
107701,16.881,-1.126,4.147,-1.431627,-0.529207,2.168190,100754.82
107711,17.288,0.385,4.826,-1.733865,-0.487170,2.246410,100754.82
107721,16.603,2.375,5.070,-1.975975,-0.398840,2.349639,100754.82
107731,15.266,3.961,5.041,-2.045681,-0.307849,2.442226,100757.50
107741,13.838,4.100,5.154,-1.801975,-0.220051,2.526299,100757.77
107751,12.244,2.477,6.101,-1.260819,-0.143427,2.648152,100756.77
107761,12.013,-0.488,6.498,-0.637719,-0.075849,2.807253,100756.98
107771,12.750,-2.448,6.547,-0.265242,-0.042326,2.881749,100756.98
107782,13.017,-3.326,6.121,-0.256196,0.001839,2.784373,100756.88
107791,12.515,-2.972,5.095,-0.514269,0.050793,2.566740,100756.65
107801,11.524,-2.237,3.885,-0.896324,0.028976,2.287382,100756.10
107811,9.975,-2.081,3.345,-1.230489,-0.050308,2.010153,100756.10
107822,8.168,-2.332,3.633,-1.488030,-0.087023,1.759529,100758.61
107831,6.778,-2.905,2.564,-1.567315,-0.029556,1.492410,100758.61
107841,6.246,-3.735,1.483,-1.562526,-0.059886,1.204007,100757.05
107851,5.739,-4.016,2.454,-1.552948,-0.016785,0.918796,100755.25
107862,5.427,-2.695,2.459,-1.509315,0.128481,0.498429,100753.11
107867,5.022,-0.771,2.129,-1.458764,0.183288,0.139787,100753.11
107876,4.687,1.465,1.160,-1.387994,0.175307,-0.195442,100756.34
107886,3.953,3.442,0.391,-1.227296,0.134866,-0.601442,100755.92
107896,3.254,4.153,0.204,-0.886746,0.123692,-0.929754,100754.34
107907,3.135,4.161,0.028,-0.318985,0.142316,-1.158029,100755.92
107916,3.307,3.873,0.285,0.399363,0.154022,-1.321918,100755.92
107926,3.763,3.117,0.619,1.135271,0.166261,-1.493258,100753.55
107936,4.435,2.052,0.808,1.764225,0.178499,-1.723129,100752.66
107947,5.030,0.707,0.778,2.225564,0.172646,-1.996634,100750.71
107956,5.361,-0.658,0.663,2.491086,0.146573,-2.268010,100753.65
107966,5.511,-1.806,0.590,2.550151,0.123160,-2.549496,100753.65
107976,5.590,-2.540,0.880,2.433086,0.115178,-2.838963,100750.28
107986,5.975,-2.624,1.005,2.194701,0.109857,-3.131092,100752.70
107996,6.401,-2.535,1.045,1.911619,0.078995,-3.425880,100752.91
108006,6.826,-2.424,1.199,1.630665,0.027912,-3.692467,100750.66
108016,7.458,-2.116,1.408,1.389087,-0.032748,-3.929788,100750.66
108026,8.068,-2.084,1.813,1.203913,-0.084895,-4.151678,100753.88
108037,8.884,-2.310,2.166,1.079399,-0.113629,-4.343238,100750.78
108046,9.613,-2.822,2.629,1.005968,-0.106179,-4.531604,100751.56
108056,10.208,-3.761,3.096,0.991069,-0.047647,-4.720503,100751.14
108066,10.894,-4.963,3.517,1.012886,0.010885,-4.846613,100751.14
108077,11.960,-4.832,3.534,1.045876,0.068885,-4.952503,100758.09
108086,12.562,-4.458,3.347,1.117711,0.121031,-5.074889,100756.29
108096,12.777,-5.385,3.322,1.261381,0.197655,-5.088192,100753.57
108102,13.134,-6.074,3.489,1.393344,0.264169,-5.003586,100753.99
108111,13.468,-6.796,3.958,1.511472,0.316316,-4.896100,100753.99
108122,14.189,-7.796,4.334,1.599803,0.339729,-4.749238,100753.99
108132,14.934,-8.790,4.536,1.526371,0.321105,-4.606100,100757.80
108141,15.307,-9.768,4.807,1.337473,0.302481,-4.468815,100755.23
108151,14.793,-10.591,5.192,1.116647,0.313655,-4.320357,100752.98
108162,13.819,-10.901,5.288,0.861234,0.384958,-4.149549,100752.98
108172,12.740,-11.189,5.318,0.569638,0.496169,-3.872320,100758.19
108181,12.638,-11.473,4.220,0.342959,0.590352,-3.535495,100758.19
108191,11.563,-12.395,4.157,0.214189,0.635582,-3.264119,100756.36
108201,10.704,-14.072,3.546,-0.034839,0.721783,-2.888450,100758.50
108212,9.831,-15.376,3.554,-0.425939,0.779251,-2.451055,100757.45
108221,9.179,-15.981,3.232,-0.906966,0.789893,-1.968432,100757.45
108231,9.083,-15.847,2.716,-1.327333,0.772866,-1.373533,100756.62
108241,9.213,-14.542,2.220,-1.535920,0.679215,-0.706800,100756.87
108252,9.086,-12.073,2.216,-1.493351,0.551508,-0.039534,100757.91
108262,9.047,-8.922,2.143,-1.159186,0.423270,0.576649,100759.13
108271,8.685,-6.309,1.414,-0.517994,0.271619,1.101841,100761.91
108281,9.110,-2.229,-0.384,0.284959,0.130077,1.484961,100761.02
108292,14.370,12.286,-3.089,0.866023,-0.001886,1.322135,100759.70
108301,19.428,17.541,-6.510,0.966592,-0.160455,0.546851,100759.70
108311,16.790,6.020,-3.324,1.344922,-0.136510,1.004997,100761.27
108321,12.493,-4.494,1.615,2.414463,0.063564,2.090501,100761.27
108332,11.791,-9.743,3.290,2.968921,0.457857,2.663052,100758.72
108337,13.507,-10.908,1.961,2.886444,0.736682,2.731162,100760.34
108346,12.425,-10.089,2.679,2.465013,0.736150,2.471492,100757.61
108356,9.634,-8.449,4.390,1.586500,0.622811,2.044208,100757.98
108366,8.300,-5.623,5.391,0.491418,0.489251,1.761658,100757.98
108377,7.928,-3.248,5.737,-0.475425,0.290242,1.616924,100760.29
108387,8.962,-1.815,4.919,-1.186856,0.061435,1.540300,100759.23
108396,9.579,-0.611,3.601,-1.552948,-0.136510,1.467933,100757.93
108406,9.098,1.095,2.235,-1.481113,-0.203555,1.434942,100758.76
108417,8.247,2.836,1.583,-1.006471,-0.108840,1.410465,100758.76
108427,7.976,3.627,2.078,-0.337609,0.033233,1.418447,100762.39
108436,8.550,2.381,2.681,0.259950,0.108793,1.474850,100758.56
108446,9.249,-0.024,3.056,0.644133,0.113582,1.495603,100759.19
108456,9.358,-2.357,3.350,0.672867,0.063032,1.423236,100758.39
108467,9.067,-3.336,3.526,0.345088,0.004499,1.297658,100758.39
108477,8.688,-2.732,3.527,-0.140196,-0.041794,1.159309,100759.96
108486,8.286,-0.787,3.746,-0.533958,-0.066803,1.054484,100760.23
108496,8.195,1.013,3.718,-0.589829,-0.072656,1.012979,100759.45
108507,8.389,1.547,3.034,-0.270563,-0.076913,1.034263,100756.62
108517,8.676,0.723,2.354,0.187051,-0.081170,1.096520,100756.62
108526,8.899,-0.887,2.143,0.513234,-0.067335,1.132172,100759.69
108536,8.816,-2.446,2.196,0.553675,-0.025831,1.086942,100758.53
108547,8.784,-3.328,2.524,0.319014,0.021527,1.009254,100759.53
108557,8.820,-3.282,2.678,-0.008765,0.040683,0.919328,100759.42
108566,8.798,-2.492,2.709,-0.290783,0.041215,0.846961,100759.42
108576,8.790,-1.373,2.756,-0.428068,0.049729,0.811310,100760.72
108587,8.792,-0.559,2.745,-0.378581,0.065160,0.805456,100757.78
108597,8.832,-0.691,2.806,-0.220013,0.076334,0.815034,100759.52
