80000,9.419,-1.998,2.177,0.008931,0.007984,0.017945,100043.57,-81,-199,-15
80010,9.413,-2.003,2.209,0.007334,0.008516,0.017945,100044.22,-80,-199,-15
80019,9.464,-2.002,2.242,0.007866,0.006388,0.020073,100044.02,-80,-199,-15
80029,9.439,-1.968,2.207,0.006802,0.007452,0.020073,100040.55,-80,-198,-13
80039,9.423,-1.950,2.233,0.004142,0.009580,0.022734,100040.55,-80,-198,-15
80050,9.469,-1.982,2.239,0.003077,0.010644,0.025394,100045.68,-80,-198,-14
80059,9.499,-1.989,2.238,0.005206,0.009048,0.025926,100045.68,-80,-198,-14
80069,9.471,-2.002,2.221,0.008931,0.009580,0.026991,100043.95,-79,-198,-13
80079,9.485,-2.007,2.205,0.014252,0.007452,0.026991,100044.32,-80,-199,-14
80090,9.444,-2.030,2.176,0.017444,0.005855,0.027523,100043.43,-79,-198,-14
80099,9.451,-2.055,2.199,0.019041,0.006388,0.025926,100043.43,-79,-198,-14
80109,9.463,-2.007,2.191,0.015848,0.007452,0.025926,100044.54,-79,-198,-13
80119,9.440,-2.032,2.208,0.011591,0.009048,0.024330,100042.29,-79,-200,-13
80130,9.456,-2.012,2.250,0.010527,0.011177,0.024862,100042.38,-79,-199,-13
80140,9.474,-2.014,2.211,0.006802,0.011177,0.026458,100043.47,-79,-199,-13
80149,9.455,-1.992,2.199,0.004674,0.012773,0.024862,100043.63,-79,-199,-14
80159,9.427,-2.004,2.208,0.004142,0.011177,0.029119,100039.53,-79,-199,-15
80169,9.416,-1.982,2.201,0.010527,0.014901,0.027523,100039.53,-79,-200,-13
80179,9.433,-2.039,2.172,0.013720,0.014369,0.031247,100041.42,-79,-200,-13
80189,9.450,-2.032,2.244,0.014252,0.016498,0.032312,100043.00,-79,-200,-13
80199,9.428,-2.028,2.276,0.012123,0.016498,0.031247,100043.00,-79,-200,-14
80209,9.428,-2.015,2.262,0.011059,0.012773,0.033908,100045.13,-79,-199,-14
80219,9.433,-1.945,2.264,0.012655,0.011709,0.034440,100043.15,-79,-199,-14
80229,9.425,-1.973,2.262,0.019573,0.010644,0.037633,100043.24,-79,-200,-13
80239,9.475,-2.019,2.220,0.025958,0.011177,0.038697,100039.84,-79,-200,-13
80249,9.470,-2.057,2.188,0.027022,0.013837,0.038697,100039.84,-79,-199,-13
80260,9.468,-2.083,2.178,0.025426,0.017030,0.040293,100044.06,-79,-199,-13
80270,9.446,-2.056,2.202,0.024894,0.020222,0.039229,100041.00,-78,-200,-13
80279,9.439,-2.099,2.217,0.024894,0.021287,0.039229,100042.89,-78,-200,-13
80289,9.452,-2.107,2.164,0.024362,0.019690,0.038165,100042.89,-79,-200,-13
80300,9.440,-2.057,2.220,0.014252,0.022351,0.038165,100042.89,-79,-200,-13
80310,9.377,-1.998,2.256,0.009463,0.023415,0.040293,100044.46,-78,-199,-12
80319,9.422,-1.972,2.294,0.013187,0.019158,0.045614,100045.77,-78,-200,-13
80330,9.429,-2.010,2.276,0.029151,0.013305,0.049694,100043.05,-77,-200,-13
80339,9.422,-2.025,2.281,0.042986,0.013837,0.051468,100043.05,-77,-200,-12
80350,9.426,-2.086,2.252,0.051499,0.013837,0.051468,100043.05,-77,-200,-12
80359,9.425,-2.113,2.248,0.049903,0.015433,0.050936,100042.56,-77,-200,-12
80369,9.428,-2.237,2.160,0.044582,0.013837,0.048275,100043.30,-77,-200,-12
80379,9.445,-2.190,2.096,0.030215,0.015433,0.045082,100043.72,-77,-200,-11
80390,9.457,-2.308,2.178,0.029151,0.013837,0.044018,100043.72,-77,-200,-11
80400,9.506,-2.295,2.115,0.017976,0.010112,0.039761,100045.17,-77,-201,-12
80409,9.511,-2.136,2.103,-0.012886,0.017030,0.032844,100045.17,-77,-200,-11
80419,9.434,-2.001,2.165,-0.015546,0.024479,0.030715,100046.70,-77,-200,-12
80430,9.401,-1.988,2.145,0.008931,0.029268,0.029651,100043.55,-77,-200,-12
80439,9.421,-2.136,2.104,0.033940,0.037782,0.026991,100040.86,-76,-200,-12
80449,9.340,-2.273,2.185,0.039793,0.052681,0.019009,100040.86,-77,-201,-11
80459,9.270,-2.383,2.148,0.026490,0.057470,0.006238,100042.28,-76,-201,-12
80470,9.412,-2.360,2.254,-0.004372,0.063855,-0.005468,100043.38,-76,-201,-12
80480,9.341,-2.323,2.287,-0.028849,0.073433,-0.021431,100040.02,-77,-200,-11
80490,9.265,-2.277,2.341,-0.044280,0.085140,-0.037395,100040.99,-76,-200,-11
80499,9.344,-2.258,2.504,-0.055987,0.087268,-0.043780,100043.57,-77,-200,-11
80509,9.072,-2.257,2.360,-0.065033,0.102699,-0.060275,100043.84,-77,-200,-11
80520,8.830,-2.417,2.276,-0.093234,0.122920,-0.073046,100043.57,-77,-200,-11
80529,9.101,-2.350,2.262,-0.147510,0.126112,-0.075707,100043.57,-77,-200,-11
80539,9.395,-2.006,2.249,-0.178372,0.133562,-0.089009,100042.30,-78,-200,-12
80549,9.406,-1.897,2.233,-0.149106,0.138351,-0.094330,100042.30,-78,-200,-12
80560,9.459,-2.076,2.694,-0.106537,0.153250,-0.082092,100046.60,-79,-200,-13
80569,9.766,-2.117,2.512,-0.096427,0.125580,-0.091670,100042.35,-79,-199,-12
80579,9.688,-2.280,2.732,-0.092702,0.117066,-0.099119,100045.34,-79,-199,-13
80589,9.621,-2.184,2.869,-0.127822,0.098443,-0.106569,100043.55,-79,-199,-13
80600,9.608,-1.979,2.913,-0.153363,0.073965,-0.111358,100043.55,-80,-200,-13
80610,9.647,-1.796,2.904,-0.147510,0.044167,-0.104441,100044.84,-79,-198,-13
80619,9.694,-1.763,2.938,-0.119308,0.013305,-0.086349,100040.09,-80,-199,-13
80629,9.663,-1.819,2.837,-0.110262,-0.012236,-0.068789,100038.89,-80,-199,-13
80640,9.593,-1.834,2.719,-0.126757,-0.033521,-0.048569,100038.89,-81,-198,-14
80650,9.583,-1.852,2.627,-0.152831,-0.050016,-0.029413,100038.89,-80,-198,-15
80659,9.489,-1.827,2.613,-0.165601,-0.061190,-0.015578,100045.95,-81,-198,-15
80669,9.435,-1.939,2.620,-0.164537,-0.073429,-0.003340,100044.21,-81,-198,-15
80679,9.428,-2.062,2.472,-0.164537,-0.085135,0.000917,100043.10,-81,-198,-15
80690,9.396,-2.149,2.413,-0.162409,-0.081943,-0.007064,100043.43,-81,-198,-16
80700,9.400,-2.271,2.302,-0.165601,-0.076622,-0.016110,100043.43,-81,-198,-17
80709,9.461,-2.280,2.154,-0.172519,-0.071833,-0.031541,100042.22,-81,-198,-17
80719,9.470,-2.268,2.096,-0.187950,-0.062255,-0.043248,100041.59,-81,-198,-17
80730,9.461,-2.208,2.076,-0.207106,-0.059062,-0.052294,100043.27,-80,-196,-18
80740,9.446,-2.016,2.217,-0.215620,-0.048952,-0.060275,100043.27,-81,-197,-19
80750,9.356,-1.950,2.264,-0.202849,-0.043631,-0.057083,100044.38,-81,-197,-19
80759,9.342,-1.940,2.278,-0.191675,-0.039906,-0.051762,100044.38,-81,-197,-18
80770,9.445,-1.898,2.365,-0.189014,-0.039906,-0.043248,100046.38,-81,-196,-20
80780,9.408,-2.046,2.740,-0.182629,-0.030328,-0.030477,100043.70,-81,-196,-21
80789,9.364,-2.148,2.640,-0.203381,-0.026071,-0.027285,100041.23,-81,-196,-22
80799,9.481,-2.140,2.394,-0.244886,-0.028200,-0.034202,100041.23,-81,-196,-22
80809,9.616,-2.012,2.333,-0.277877,-0.035117,-0.030477,100044.24,-81,-196,-22
80820,9.549,-1.858,2.226,-0.284794,-0.034585,-0.027285,100043.55,-81,-196,-23
80830,9.461,-1.772,2.127,-0.268299,-0.034053,-0.014514,100043.71,-81,-196,-24
80839,9.518,-1.783,2.139,-0.248078,-0.048952,0.003578,100041.44,-81,-196,-24
80849,9.526,-1.779,2.323,-0.224666,-0.066512,0.023798,100041.86,-81,-196,-25
80860,9.388,-1.739,2.600,-0.200189,-0.083007,0.045614,100043.39,-81,-196,-25
80870,9.243,-1.904,2.614,-0.172519,-0.108016,0.065835,100042.34,-80,-196,-27
80879,9.262,-2.028,2.434,-0.146978,-0.131961,0.077541,100042.34,-80,-196,-27
80889,9.261,-2.118,2.331,-0.135271,-0.143135,0.087651,100042.55,-79,-195,-27
80900,9.225,-2.115,2.187,-0.142189,-0.148456,0.094036,100042.55,-79,-195,-27
80910,9.354,-1.933,2.044,-0.143785,-0.160695,0.106807,100046.41,-79,-195,-28
80919,9.511,-1.827,2.050,-0.116647,-0.169741,0.124367,100046.88,-79,-195,-28
80929,9.542,-1.863,1.995,-0.075143,-0.173998,0.141394,100042.25,-79,-196,-29
80940,9.570,-1.924,1.900,-0.039491,-0.186236,0.156825,100042.05,-77,-196,-29
80950,9.524,-1.985,1.909,-0.016079,-0.203264,0.173853,100042.05,-77,-196,-29
80960,9.359,-2.004,1.912,-0.011822,-0.212310,0.193541,100044.91,-77,-196,-29
80969,9.178,-2.031,1.881,-0.029381,-0.221355,0.222807,100041.25,-76,-196,-30
80979,9.251,-1.909,2.068,-0.059179,-0.229337,0.259523,100044.72,-75,-196,-30
80990,9.517,-1.858,2.357,-0.060244,-0.254346,0.298367,100044.72,-74,-196,-31
81000,9.700,-1.942,2.476,-0.027785,-0.269777,0.329229,100044.72,-74,-196,-31
81009,9.645,-2.240,2.415,0.004142,-0.282016,0.345724,100044.38,-72,-197,-31
81019,9.538,-2.425,2.188,0.006270,-0.298511,0.357431,100043.22,-71,-198,-31
81030,9.483,-2.287,1.939,-0.004904,-0.311282,0.367009,100043.42,-69,-198,-32
81040,9.230,-2.116,1.805,0.000417,-0.321392,0.385100,100040.48,-69,-198,-32
81049,9.128,-1.891,1.856,0.016912,-0.341612,0.418091,100040.48,-68,-199,-32
81059,9.761,-1.644,1.900,0.065866,-0.396420,0.478752,100045.20,-65,-200,-33
81070,10.391,-1.181,2.098,0.163242,-0.486878,0.544733,100045.05,-64,-200,-33
81080,10.791,-1.335,2.428,0.302123,-0.623630,0.646366,100041.38,-64,-200,-33
81090,11.323,-1.318,2.728,0.389921,-0.786456,0.790568,100041.38,-61,-202,-32
81099,11.520,0.255,3.646,0.310637,-0.890750,0.960843,100043.29,-57,-203,-32
81110,12.423,0.004,4.963,0.205279,-0.990254,1.202421,100043.29,-52,-205,-33
81120,15.170,-1.449,4.365,0.128655,-1.065282,1.439742,100043.45,-52,-205,-33
81130,18.126,-1.482,3.648,-0.103877,-1.063685,1.557338,100044.34,-46,-207,-34
81139,19.713,-1.909,2.317,-0.375253,-1.070603,1.608953,100042.20,-39,-208,-35
81150,21.507,-0.487,1.084,-0.584194,-1.086034,1.639993,100045.19,-32,-210,-39
81160,21.865,2.211,0.966,-0.741344,-1.063153,1.616935,100045.19,-32,-210,-39
81170,19.235,2.709,0.153,-0.706757,-1.068474,1.645669,100041.72,-26,-210,-42
81180,16.836,0.112,-1.025,-0.306610,-1.158933,1.791999,100045.19,-19,-212,-45
81189,14.931,-3.377,-0.842,0.226031,-1.210548,1.904806,100042.99,-11,-212,-44
81200,12.962,-4.997,0.634,0.741646,-1.187667,1.954824,100044.66,-11,-212,-44
81210,11.925,-5.556,1.345,1.108801,-1.147759,1.929283,100043.99,-3,-215,-42
81220,10.909,-7.967,2.469,1.292379,-1.043465,1.859577,100041.73,+5,-217,-39
81229,9.544,-12.007,1.707,1.152966,-0.961520,1.790934,100041.73,+12,-218,-35
81240,9.118,-14.894,-0.582,0.689499,-0.947153,1.751026,100042.26,+12,-218,-35
81250,8.371,-14.339,-0.712,-0.013418,-0.929594,1.596714,100042.26,+19,-219,-34
81260,8.213,-11.236,-0.910,-0.666317,-0.926933,1.373228,100044.33,+26,-219,-37
81269,6.201,-8.979,0.040,-0.954188,-0.831685,1.204017,100043.70,+30,-219,-40
81280,4.244,-8.021,0.600,-0.957381,-0.697062,1.188586,100043.55,+36,-218,-43
81290,3.182,-7.142,0.070,-0.756775,-0.626823,1.183265,100039.13,+36,-218,-43
81300,2.394,-6.734,-0.022,-0.539675,-0.502841,1.118348,100039.13,+41,-216,-45
81310,2.322,-5.797,-0.187,-0.450812,-0.409722,1.023632,100041.73,+45,-216,-46
81319,1.885,-4.539,-0.362,-0.402390,-0.343209,0.915082,100043.01,+49,-215,-47
81330,1.128,-3.383,-0.609,-0.349711,-0.291594,0.804935,100039.65,+49,-215,-47
81340,0.683,-2.523,-0.867,-0.264574,-0.253282,0.708091,100039.65,+51,-216,-48
81350,0.784,-2.196,-1.120,-0.157088,-0.247961,0.629871,100039.65,+54,-214,-49
81359,0.716,-2.246,-1.409,-0.036299,-0.277227,0.543137,100045.52,+56,-214,-49
81370,0.027,-2.219,-1.605,0.105242,-0.295319,0.426073,100042.58,+56,-214,-49
81380,-0.712,-2.074,-1.688,0.266472,-0.295851,0.323908,100040.95,+58,-214,-48
81385,-1.013,-2.123,-1.650,0.383536,-0.288933,0.264312,100041.27,+58,-214,-48
81394,-1.044,-2.144,-1.523,0.463884,-0.289466,0.203119,100041.27,+59,-215,-47
81404,-0.953,-2.089,-1.442,0.489958,-0.288933,0.094036,100040.21,+60,-215,-45
81415,-0.809,-1.935,-1.317,0.437811,-0.271906,-0.034202,100043.57,+59,-216,-44
81425,-0.726,-1.891,-1.188,0.368637,-0.247961,-0.136899,100041.99,+59,-216,-44
81435,-0.638,-2.213,-1.141,0.325004,-0.220823,-0.226826,100038.95,+60,-216,-42
81444,-0.602,-2.642,-1.085,0.297334,-0.175594,-0.329523,100038.95,+59,-217,-42
81455,-0.408,-2.945,-0.951,0.256362,-0.111209,-0.451376,100046.02,+58,-217,-42
81465,0.031,-2.930,-0.732,0.172820,-0.048420,-0.597706,100039.77,+58,-217,-42
81475,0.624,-2.885,-0.509,0.091940,0.009048,-0.741376,100041.97,+54,-216,-40
81484,1.231,-3.082,-0.360,0.059481,0.065984,-0.868550,100040.03,+52,-218,-40
81495,1.717,-3.452,-0.269,0.079701,0.123984,-0.990935,100040.03,+48,-218,-40
81505,2.233,-3.890,-0.101,0.130252,0.191562,-1.114917,100042.81,+43,-218,-40
81515,2.908,-4.207,0.275,0.146215,0.275103,-1.265504,100043.39,+43,-218,-40
81525,3.658,-4.205,0.647,0.077573,0.359176,-1.441632,100043.08,+38,-219,-39
81534,4.406,-3.994,0.869,-0.055455,0.437396,-1.617761,100041.50,+32,-218,-39
81545,5.295,-3.339,0.676,-0.238500,0.477305,-1.776861,100041.50,+25,-218,-40
81555,5.996,-3.066,0.743,-0.250207,0.522534,-1.852421,100042.73,+25,-218,-40
81565,6.668,-3.163,0.884,-0.053858,0.600222,-1.924788,100042.79,+18,-217,-40
81574,7.373,-3.330,1.046,0.200490,0.690681,-2.033339,100043.63,+9,-216,-40
81585,8.175,-3.433,1.301,0.406417,0.795506,-2.147742,100040.26,+0,-216,-38
81595,9.080,-3.483,1.598,0.529334,0.899800,-2.237669,100040.26,+0,-216,-38
81605,9.999,-3.670,1.857,0.571371,1.010479,-2.315357,100042.76,-7,-216,-35
81614,10.895,-4.120,2.072,0.535187,1.136057,-2.380806,100041.66,-17,-216,-32
81620,11.614,-4.433,2.358,0.451646,1.229708,-2.436678,100045.27,-17,-216,-32
81630,12.501,-4.242,2.723,0.301059,1.306332,-2.508512,100045.27,-28,-214,-30
81640,13.544,-3.976,3.266,0.100453,1.390937,-2.574494,100040.76,-38,-211,-29
81650,14.243,-4.152,3.541,0.002013,1.484588,-2.580879,100040.76,-38,-211,-29
81660,15.228,-4.755,3.938,-0.106005,1.606974,-2.552678,100042.68,-49,-208,-27
81670,16.412,-5.137,4.826,-0.329491,1.730955,-2.521283,100042.91,-58,-204,-26
81680,16.984,-5.350,12.000,-0.415161,2.163560,-2.403155,100039.98,-68,-201,-25
81690,44.704,-11.691,-5.001,-0.032042,1.430845,-1.070752,100039.98,-68,-201,-25
81699,61.221,-13.801,-15.030,-0.352904,-0.823704,0.188220,100039.98,-70,-201,-24
81710,15.753,9.002,-7.747,-1.665087,0.191030,-2.544696,100046.23,-74,-197,-27
81720,-0.377,10.639,3.938,-2.738352,1.567065,-2.223834,100045.14,-83,-190,-34
81730,-7.136,10.196,3.762,-1.906132,0.783268,0.052532,100042.14,-81,-191,-37
81740,2.739,2.728,1.635,-0.219877,0.528919,0.450550,100040.47,-81,-191,-37
81750,9.538,-2.148,-0.895,1.117847,0.507635,0.047743,100040.47,-81,-191,-34
81760,13.512,-5.780,1.589,1.585040,0.534773,0.302091,100046.98,-82,-193,-28
81770,11.278,-9.574,5.482,1.339205,0.395360,0.610183,100045.89,-80,-196,-25
81780,5.955,-7.030,6.326,0.324472,0.364497,0.078073,100041.80,-80,-196,-25
81790,4.288,-3.023,5.839,-0.590757,0.390039,-0.325266,100041.80,-81,-194,-25
81800,6.619,-2.045,3.096,-0.976005,0.240516,-0.255028,100043.61,-81,-193,-27
81810,10.131,-1.429,0.545,-0.809986,0.231470,-0.167762,100041.45,-83,-193,-30
81820,12.220,0.110,-0.551,-0.442299,0.266057,-0.128385,100041.45,-83,-193,-30
81830,11.869,1.022,-0.198,0.049903,0.296387,-0.062936,100045.92,-84,-192,-29
81840,11.134,0.857,0.594,0.516563,0.344809,0.025394,100044.77,-84,-193,-27
81850,11.239,-0.607,1.972,0.818270,0.356516,0.126495,100044.77,-83,-194,-24
81855,10.977,-2.161,2.918,0.879462,0.319800,0.178110,100045.93,-83,-194,-24
81865,10.137,-3.172,3.462,0.720361,0.262864,0.180238,100042.73,-83,-194,-22
81874,8.869,-3.465,3.463,0.346820,0.184112,0.138202,100044.26,-83,-194,-22
81885,8.528,-2.721,3.125,0.058949,0.119727,0.119578,100043.46,-83,-195,-21
81895,9.119,-1.939,2.537,-0.028317,0.084076,0.133945,100043.46,-82,-195,-21
81905,9.791,-1.950,1.848,-0.045877,0.079819,0.145119,100043.21,-82,-195,-21
81915,9.948,-2.191,1.474,-0.173583,0.105360,0.155761,100044.21,-82,-195,-21
81925,9.825,-1.991,1.465,-0.339601,0.115470,0.164807,100043.52,-82,-196,-22
81935,9.831,-1.486,1.832,-0.382170,0.116534,0.186091,100044.21,-81,-196,-23
81945,9.621,-1.178,2.499,-0.246482,0.114938,0.209504,100044.21,-81,-196,-23
81955,9.221,-1.413,2.828,-0.019271,0.090993,0.232385,100044.76,-80,-196,-23
81965,9.182,-1.770,3.041,0.171756,0.055342,0.261651,100044.43,-80,-196,-23
81975,9.197,-1.992,2.910,0.209536,0.015966,0.273890,100042.23,-79,-197,-22
81985,9.153,-2.219,2.613,0.139830,-0.025007,0.277614,100041.55,-78,-197,-22
81995,9.201,-2.109,2.385,0.046710,-0.061723,0.282403,100041.55,-77,-198,-22
82006,9.390,-1.826,2.120,-0.001180,-0.089924,0.295706,100043.11,-77,-198,-22
82015,9.611,-1.881,1.948,0.010527,-0.093117,0.305284,100044.58,-77,-198,-22
82025,9.841,-2.135,1.944,0.033408,-0.091521,0.313266,100045.78,-74,-199,-22
82035,9.759,-2.399,1.915,0.031279,-0.084071,0.309009,100041.48,-73,-200,-22
82045,9.711,-2.779,1.940,-0.029381,-0.080346,0.299963,100041.48,-73,-200,-22
82055,9.926,-2.895,1.969,-0.152831,-0.094713,0.289321,100044.90,-73,-200,-23
82065,9.779,-2.262,2.097,-0.260849,-0.106420,0.273890,100043.90,-72,-201,-23
82075,9.519,-1.688,2.239,-0.259253,-0.126108,0.294642,100045.63,-71,-200,-24
82085,9.352,-1.559,2.299,-0.119308,-0.160163,0.357963,100044.57,-71,-200,-24
82095,9.232,-1.540,2.500,0.064270,-0.205924,0.422880,100044.57,-69,-200,-25
82105,9.383,-1.910,2.545,0.179738,-0.261796,0.480348,100043.38,-68,-201,-25
82115,9.485,-2.326,2.323,0.215389,-0.293722,0.504293,100042.54,-66,-203,-24
82125,9.394,-2.346,2.436,0.224435,-0.350658,0.503229,100042.76,-66,-203,-24
82136,8.994,-2.128,2.723,0.246252,-0.450163,0.490990,100041.87,-64,-204,-23
82145,8.406,-2.346,2.567,0.296802,-0.462401,0.476623,100041.87,-62,-204,-23
82155,8.386,-2.981,2.231,0.362251,-0.454952,0.504825,100045.02,-60,-205,-23
82165,8.523,-2.893,2.365,0.305316,-0.476236,0.535155,100042.39,-60,-205,-23
82176,8.246,-1.883,2.825,0.179738,-0.492731,0.585706,100041.81,-58,-206,-22
82185,8.352,-0.640,3.526,0.213261,-0.499117,0.704898,100044.48,-54,-208,-22
82195,8.845,-0.222,3.403,0.424508,-0.539557,0.822495,100044.48,-51,-208,-22
82205,9.310,-0.265,2.657,0.700673,-0.536897,0.918274,100044.13,-51,-208,-22
82215,10.132,-2.161,1.394,0.951297,-0.540621,0.993302,100042.23,-48,-210,-20
82225,10.388,-3.707,0.371,1.035370,-0.535300,1.022036,100044.17,-45,-212,-17
82235,9.773,-4.060,0.178,0.885847,-0.512419,1.011926,100042.91,-41,-214,-15
82245,9.095,-3.692,0.440,0.663958,-0.482621,0.984788,100042.91,-41,-214,-15
82255,9.274,-3.940,0.575,0.545829,-0.467190,0.984256,100045.97,-37,-215,-13
82266,9.517,-3.941,0.720,0.486233,-0.443245,0.969357,100046.17,-33,-216,-12
82275,9.451,-4.065,0.900,0.446325,-0.400676,0.927852,100042.55,-30,-218,-10
82285,9.395,-4.415,0.870,0.388857,-0.374603,0.884219,100043.30,-30,-218,-10
82295,9.367,-4.227,0.866,0.304784,-0.335759,0.842715,100043.30,-26,-218,-11
82306,9.301,-4.327,0.814,0.254233,-0.312878,0.804935,100044.39,-23,-220,-10
82315,9.495,-4.335,0.834,0.202619,-0.296915,0.767687,100045.64,-20,-220,-9
82325,9.532,-4.170,0.999,0.135041,-0.268181,0.734164,100040.50,-20,-220,-9
82335,9.451,-4.096,0.950,0.118545,-0.252750,0.708623,100041.55,-18,-220,-9
82345,9.601,-4.219,0.925,0.087151,-0.244236,0.686275,100041.55,-15,-222,-9
82355,9.690,-4.577,1.161,0.024362,-0.230933,0.674568,100043.72,-12,-223,-10
82365,9.427,-4.482,1.459,-0.086849,-0.217631,0.667651,100042.94,-12,-223,-10
82375,9.540,-4.369,1.503,-0.183693,-0.219227,0.678825,100040.73,-9,-223,-10
82385,9.898,-4.358,1.613,-0.247014,-0.221355,0.707559,100042.88,-7,-223,-11
82395,9.985,-4.654,1.796,-0.316721,-0.211777,0.754917,100042.88,-4,-223,-12
82405,9.863,-4.382,1.871,-0.429528,-0.210181,0.793229,100045.93,-4,-223,-12
82415,10.009,-5.129,2.705,-0.510941,-0.199007,0.864531,100044.62,-1,-224,-12
82425,11.116,-4.292,2.518,-0.728041,-0.209649,0.951797,100044.62,+1,-224,-16
82436,11.851,-4.390,1.977,-0.884482,-0.255410,0.978935,100044.30,+5,-224,-18
82441,12.481,-4.026,1.426,-0.946739,-0.307025,1.037999,100044.30,+5,-224,-18
82450,12.815,-3.308,1.429,-1.016445,-0.355979,1.107706,100044.30,+9,-224,-22
82460,13.046,-2.871,1.215,-1.074445,-0.423025,1.190715,100045.14,+15,-223,-26
82470,13.094,-2.296,0.960,-1.013252,-0.494328,1.316825,100046.45,+15,-223,-26
82481,13.356,-2.585,0.729,-0.861601,-0.580530,1.461026,100045.14,+20,-222,-29
82491,13.375,-2.870,0.703,-0.783913,-0.656089,1.591925,100042.62,+26,-222,-32
82500,13.309,-3.219,0.755,-0.815307,-0.713557,1.706329,100043.98,+34,-220,-35
82510,13.375,-3.624,0.655,-0.914812,-0.759851,1.798384,100043.93,+34,-220,-35
82521,13.606,-3.180,0.863,-1.076573,-0.810401,1.859577,100043.93,+41,-220,-38
82530,14.037,-2.723,1.142,-1.202151,-0.900860,1.895760,100043.40,+49,-220,-42
82540,14.834,-2.314,1.832,-1.169160,-1.015795,1.938861,100043.57,+57,-217,-46
82550,15.701,-2.138,2.291,-1.072849,-1.104126,1.943118,100043.57,+57,-217,-46
82561,16.105,-1.895,2.545,-1.077105,-1.107318,1.903742,100045.53,+65,-216,-49
82570,16.519,-1.396,2.366,-1.231949,-1.098272,1.872879,100043.64,+73,-213,-52
82580,16.879,-0.537,2.306,-1.500665,-1.089759,1.896292,100044.58,+83,-210,-57
82590,17.333,0.088,2.092,-1.607619,-1.121153,2.036237,100041.06,+83,-210,-57
82600,18.053,0.276,2.349,-1.404885,-1.170639,2.254402,100044.33,+90,-208,-61
82611,18.180,-0.332,2.770,-1.034005,-1.233428,2.417760,100045.02,+101,-204,-64
82621,17.270,-1.201,3.339,-0.657271,-1.266419,2.433191,100042.02,+111,-200,-65
82630,15.647,-2.100,3.648,-0.548188,-1.280254,2.291117,100040.66,+111,-200,-65
82640,13.713,-2.154,3.337,-0.568941,-1.291960,2.103283,100040.66,+120,-198,-66
82651,12.245,-1.728,3.803,-0.342794,-1.281850,2.005375,100040.66,+128,-195,-66
82660,11.182,-0.947,4.961,0.033940,-1.239281,1.855320,100042.91,+136,-192,-65
82670,9.098,-0.844,4.763,0.499536,-1.182878,1.555742,100043.07,+141,-192,-62
82676,7.297,-0.332,2.298,0.651719,-1.207355,1.204017,100045.85,+141,-192,-62
82685,3.771,-4.790,1.974,0.787939,-1.061025,1.051302,100042.80,+147,-191,-58
82696,4.502,-9.450,4.137,0.726747,-0.796566,1.221577,100042.80,+147,-191,-58
82705,7.664,-2.553,3.314,-0.382170,-0.670456,0.511211,100041.97,+151,-190,-57
82715,8.184,1.786,2.709,-0.969619,-0.562970,-0.298128,100039.88,+151,-189,-59
82725,6.567,2.300,2.335,-0.765289,-0.532108,-0.574293,100041.77,+149,-189,-61
82736,5.358,1.976,1.402,-0.491253,-0.572548,-0.710513,100038.72,+149,-189,-61
82745,4.974,1.300,1.292,-0.099088,-0.481557,-0.979229,100038.72,+147,-189,-61
82755,5.167,0.924,1.355,0.302123,-0.425153,-1.289981,100040.66,+144,-192,-60
82765,5.278,1.245,1.320,0.531462,-0.421429,-1.606586,100042.51,+139,-194,-57
82776,5.292,1.102,1.185,0.813481,-0.420897,-1.892329,100038.15,+139,-194,-57
82786,5.260,0.798,1.618,1.256196,-0.343209,-2.198825,100039.35,+132,-197,-54
82795,5.273,0.211,2.261,1.732966,-0.246897,-2.460090,100039.35,+125,-202,-49
82805,5.437,-0.592,2.705,2.115553,-0.170273,-2.719228,100038.98,+115,-206,-42
82816,5.690,-1.320,2.904,2.345424,-0.104823,-3.004971,100036.05,+115,-206,-42
82826,6.013,-1.652,2.936,2.438544,-0.053209,-3.271558,100033.80,+103,-211,-34
82835,6.453,-1.617,3.044,2.455039,0.006388,-3.513136,100036.63,+90,-216,-27
82845,6.940,-1.599,3.252,2.468874,0.069176,-3.748328,100036.63,+77,-220,-18
82855,7.396,-1.953,3.433,2.461957,0.127176,-3.964365,100037.16,+77,-220,-18
82866,7.901,-2.773,3.412,2.382672,0.186241,-4.160713,100036.90,+60,-224,-10
82875,8.346,-3.720,3.501,2.128856,0.262864,-4.348548,100034.60,+45,-226,-3
82885,8.874,-4.470,3.521,1.736159,0.354919,-4.517227,100033.85,+28,-226,+3
82895,9.344,-4.670,3.778,1.391352,0.502846,-4.672071,100033.85,+28,-226,+3
82906,9.955,-4.397,3.949,1.170526,0.677910,-4.818401,100038.40,+9,-225,+6
82911,10.551,-4.500,3.962,1.115719,0.813598,-4.898217,100039.04,-9,-223,+10
82920,11.151,-5.085,3.904,1.096031,0.940772,-4.949832,100039.04,-9,-223,+10
82930,11.785,-5.908,3.780,1.011425,1.102534,-4.996658,100040.93,-28,-218,+13
82940,12.247,-6.091,3.655,0.848068,1.264827,-5.047740,100035.77,-45,-214,+18
82951,12.569,-5.676,3.426,0.695352,1.426588,-5.093502,100035.77,-63,-206,+22
82961,13.009,-5.153,2.937,0.651719,1.587818,-5.089245,100038.03,-63,-206,+22
82970,13.740,-4.862,2.506,0.774637,1.739469,-5.029117,100038.58,-80,-198,+27
82980,14.441,-5.378,1.916,1.025792,1.844295,-4.912584,100038.38,-96,-189,+31
82991,14.868,-6.511,1.110,1.271627,1.897506,-4.814676,100038.38,-111,-180,+39
83001,15.087,-6.722,0.149,1.225866,1.861854,-4.767850,100038.38,-111,-180,+39
83010,15.490,-6.187,-0.283,1.097627,1.776185,-4.629502,100039.53,-124,-169,+44
83020,15.757,-6.160,-0.324,1.051334,1.619212,-4.417722,100041.89,-137,-158,+50
83031,15.647,-6.745,-0.305,1.101884,1.446277,-4.220842,100039.38,-147,-147,+55
83041,15.124,-8.065,0.004,1.230655,1.320166,-4.006933,100040.80,-147,-147,+55
83051,14.303,-9.976,0.302,1.395609,1.260570,-3.695649,100040.80,-156,-135,+61
83060,13.412,-12.265,0.715,1.449884,1.286111,-3.321576,100043.25,-163,-125,+67
83070,12.619,-14.114,0.820,1.177444,1.311653,-2.898549,100043.05,-168,-116,+73
83081,11.566,-14.950,0.811,0.551150,1.317506,-2.459026,100040.84,-168,-116,+73
83091,10.616,-14.895,1.041,-0.259253,1.269084,-2.000880,100040.84,-171,-109,+77
83101,10.360,-14.629,1.078,-1.086151,1.112112,-1.479412,100043.55,-175,-105,+77
83110,10.212,-13.874,0.901,-1.752885,0.897139,-0.949963,100043.55,-175,-103,+76
83121,9.871,-12.430,0.840,-2.139729,0.674185,-0.423174,100042.08,-175,-103,+76
83131,9.699,-10.855,0.719,-2.197196,0.435268,0.119578,100046.53,-175,-104,+74
83140,9.763,-8.867,-0.114,-1.918371,0.197415,0.666054,100044.55,-174,-107,+71
83146,9.771,-7.371,-0.657,-1.476720,0.047360,1.046513,100044.55,-174,-107,+71
83155,9.730,-6.187,-1.200,-0.858940,-0.086732,1.361522,100045.86,-171,-111,+69
83166,9.309,-6.021,-2.116,0.114288,-0.275099,1.716971,100044.70,-168,-117,+68
83176,8.703,-6.347,-1.766,1.098159,-0.421429,2.032512,100045.55,-164,-121,+69
83185,10.026,0.180,4.663,1.647829,-0.482621,2.172457,100041.66,-164,-121,+69
83195,12.585,17.384,19.671,1.620691,0.038846,1.770714,100041.66,-160,-125,+73
83206,21.713,33.318,6.733,0.120674,0.114406,0.194605,100041.09,-158,-127,+74
83216,26.254,5.375,-14.355,0.267004,-0.268713,1.032146,100048.61,-156,-129,+75
83225,27.722,-17.497,0.185,4.263680,-0.233594,3.392053,100044.98,-156,-129,+75
83235,15.962,-15.365,-4.408,2.596048,-0.752401,2.941356,100044.72,-148,-135,+84
83246,8.854,-5.739,-6.913,-0.202849,-0.423025,1.595118,100044.72,-143,-139,+83
83256,7.517,1.073,0.250,-1.114353,-0.190493,2.034108,100043.75,-139,-145,+80
83266,5.149,1.052,7.316,-0.797748,-0.030328,2.631136,100041.86,-139,-145,+80
83275,6.713,-1.467,9.920,-0.187418,0.245305,2.451815,100041.75,-132,-152,+79
83286,10.877,-6.450,7.365,0.174949,-0.263924,2.560365,100042.75,-126,-157,+79
83296,11.067,-8.112,4.286,0.258490,-0.634273,2.271961,100042.75,-120,-163,+79
83306,10.619,-5.128,2.114,-0.160812,-0.648640,1.640347,100043.80,-120,-163,+79
83315,10.927,-1.729,-0.106,-0.462519,-0.648640,1.351412,100045.84,-117,-166,+77
83325,10.513,-0.302,-0.584,-0.482207,-0.560309,1.441338,100043.42,-113,-170,+74
83336,9.699,-0.389,-0.548,-0.377381,-0.407062,1.459430,100042.22,-109,-174,+73
83346,10.244,-0.711,-0.621,-0.226794,-0.281484,1.392384,100042.22,-109,-174,+73
83355,10.631,-1.449,0.068,-0.058647,-0.177722,1.337577,100046.43,-105,-176,+72
83365,10.284,-2.448,0.377,-0.040024,-0.116530,1.217320,100043.48,-102,-177,+71
83376,9.932,-2.909,0.626,-0.175179,-0.065447,1.086953,100043.74,-98,-181,+71
83381,9.811,-2.738,0.912,-0.367803,-0.036713,0.995430,100041.01,-98,-181,+71
83391,9.904,-2.027,0.942,-0.619491,-0.018090,0.889541,100041.01,-96,-182,+69
83401,10.135,-1.342,0.815,-0.866922,0.030332,0.757577,100041.01,-93,-184,+67
83410,10.376,-0.653,0.879,-0.906830,0.086204,0.692128,100043.51,-93,-184,+67
83421,10.269,-0.169,1.686,-0.747197,0.127176,0.674568,100043.62,-90,-186,+65
83431,9.769,-0.706,2.437,-0.507748,0.138883,0.678825,100041.70,-89,-187,+63
83441,9.192,-1.655,2.728,-0.358757,0.121323,0.666587,100041.70,-86,-190,+63
83450,8.685,-2.170,3.108,-0.396005,0.109617,0.620825,100044.51,-86,-190,+63
83461,8.582,-2.026,3.409,-0.536482,0.095782,0.592091,100044.51,-85,-191,+62
83471,8.600,-1.606,3.561,-0.646097,0.067580,0.587834,100043.57,-83,-192,+59
83481,8.673,-1.223,3.533,-0.661528,0.011177,0.592091,100041.99,-80,-193,+57
83490,8.720,-0.877,3.695,-0.566812,-0.023943,0.591027,100040.90,-80,-193,+57
83501,8.572,-0.789,3.724,-0.402922,-0.059062,0.590495,100040.90,-79,-193,+57
83511,8.441,-0.775,3.541,-0.227858,-0.087264,0.593688,100044.24,-78,-195,+56
83521,8.453,-0.994,3.509,-0.092702,-0.109080,0.606990,100043.40,-75,-196,+56
83531,8.686,-1.575,3.290,0.015316,-0.139411,0.628807,100044.13,-75,-196,+56
83540,9.307,-2.189,2.667,0.020105,-0.177190,0.642110,100043.10,-73,-197,+55
83551,10.244,-2.350,1.795,-0.142189,-0.198475,0.632532,100044.16,-71,-198,+55
83561,10.842,-2.202,1.167,-0.348647,-0.209649,0.626678,100043.59,-69,-198,+52
83571,10.783,-1.497,0.804,-0.487528,-0.222952,0.639449,100045.99,-69,-198,+52
83580,10.303,-0.858,0.730,-0.481675,-0.239447,0.691596,100045.99,-68,-200,+52
83591,9.804,-0.696,0.966,-0.339069,-0.270310,0.791632,100043.59,-64,-201,+49
83601,9.497,-1.075,1.563,-0.160280,-0.330970,0.911357,100043.59,-62,-202,+49
83611,9.012,-1.384,2.306,-0.046409,-0.400144,1.016183,100044.15,-59,-204,+49
83616,8.626,-0.995,2.930,-0.020868,-0.451759,1.079504,100044.41,-59,-204,+49
83625,8.508,-0.005,4.098,-0.017675,-0.490603,1.146550,100043.52,-55,-206,+49
83636,8.991,-0.060,4.866,0.066931,-0.535300,1.244458,100039.16,-55,-206,+49
83646,9.599,-1.257,3.890,0.287224,-0.561374,1.310971,100039.16,-50,-207,+48
83656,9.687,-2.982,2.461,0.460160,-0.589043,1.322678,100042.31,-47,-209,+49
83665,9.579,-4.194,1.443,0.429829,-0.627887,1.324274,100041.27,-43,-210,+49
83676,10.005,-4.954,0.434,0.213261,-0.682695,1.327467,100043.27,-43,-210,+49
83686,10.873,-4.291,0.306,-0.181033,-0.660878,1.298201,100043.00,-37,-211,+49
83696,11.152,-3.677,0.715,-0.506152,-0.634805,1.265210,100043.00,-34,-212,+47
83705,10.628,-3.045,1.283,-0.631730,-0.643318,1.247650,100044.09,-29,-214,+45
83716,10.109,-2.817,1.770,-0.599803,-0.643318,1.250843,100043.77,-29,-214,+45
83726,10.068,-3.225,2.067,-0.508812,-0.652364,1.275320,100044.93,-24,-215,+41
83736,10.567,-3.838,1.978,-0.481675,-0.670456,1.298733,100042.66,-20,-216,+40
83745,11.140,-4.164,1.693,-0.597142,-0.684291,1.295540,100042.66,-15,-218,+37
83756,11.593,-4.048,1.024,-0.796151,-0.718346,1.281705,100043.77,-15,-218,+37
83766,12.069,-3.450,0.300,-0.947803,-0.773153,1.283834,100044.35,-11,-218,+35
83776,12.481,-2.680,-0.144,-1.003142,-0.844988,1.309375,100044.98,-6,-220,+30
83786,12.646,-2.028,-0.114,-0.954188,-0.938639,1.378017,100043.88,-1,-220,+27
83795,12.875,-1.851,0.153,-0.826482,-1.038676,1.481779,100043.88,-1,-220,+27
83806,12.918,-2.033,0.475,-0.695051,-1.133924,1.581815,100042.87,+3,-221,+23
83816,12.973,-2.313,0.992,-0.629601,-1.217465,1.675999,100041.98,+9,-221,+22
83826,13.175,-2.703,1.386,-0.606720,-1.293557,1.767522,100044.80,+15,-222,+18
83835,13.585,-2.816,1.638,-0.661528,-1.361135,1.847870,100043.87,+23,-222,+17
83846,14.069,-2.780,1.798,-0.780188,-1.427116,1.918109,100043.87,+23,-223,+17
83856,14.967,-2.234,1.854,-0.976005,-1.500015,1.986219,100042.35,+31,-223,+13
83866,16.654,-0.880,2.454,-1.201087,-1.581960,2.063375,100041.73,+39,-222,+8
83876,18.288,0.549,2.981,-1.359656,-1.644217,2.160218,100043.13,+49,-221,+3
83886,18.882,1.449,3.144,-1.392647,-1.663373,2.245888,100041.24,+49,-221,+3
83896,18.936,2.594,3.390,-1.422977,-1.689978,2.292182,100041.24,+56,-220,+0
83906,18.796,2.956,3.452,-1.317087,-1.782033,2.379448,100043.23,+66,-218,-5
83916,18.575,1.246,3.089,-0.807326,-1.922510,2.616769,100043.92,+77,-218,-5
83926,17.783,-0.878,3.719,-0.173583,-2.041171,2.816310,100042.77,+77,-218,-5
83936,16.121,-2.517,4.165,0.144086,-2.106088,2.755117,100041.50,+88,-216,-4
83946,14.006,-3.507,4.519,0.312233,-2.076290,2.592824,100041.50,+99,-214,-3
83956,12.628,-3.383,5.252,0.476655,-1.990620,2.462457,100042.04,+108,-212,+0
83965,11.376,-2.580,6.245,0.784214,-1.909208,2.315595,100041.10,+108,-212,+0
83976,9.801,-1.042,7.175,1.387627,-1.801189,2.005375,100037.68,+117,-210,+5
83986,7.971,2.013,5.656,1.952195,-1.807043,1.443999,100042.62,+123,-208,+12
83996,4.330,-4.668,2.513,2.247516,-1.546841,0.923596,100042.62,+127,-208,+20
84006,3.724,-9.686,3.800,1.600471,-1.231300,0.922531,100043.01,+127,-208,+20
84016,5.493,-0.757,2.565,-0.324702,-1.328144,0.146715,100039.49,+129,-207,+23
84026,5.985,1.834,2.482,-1.288885,-1.100401,-0.605688,100041.96,+127,-207,+20
84036,5.706,3.428,2.088,-1.424573,-1.078052,-0.926018,100038.91,+124,-208,+17
84046,5.645,5.412,1.076,-1.128720,-1.081245,-1.134073,100038.91,+124,-208,+17
84056,6.163,5.252,0.755,-0.342794,-0.940236,-1.390018,100041.42,+120,-208,+15
84066,6.886,3.460,0.737,0.579884,-0.891282,-1.582641,100038.69,+115,-210,+17
84076,6.831,0.830,1.276,1.387627,-0.838071,-1.778990,100038.84,+109,-212,+22
84086,6.471,-0.569,2.048,1.938361,-0.729165,-2.099320,100041.11,+109,-212,+22
84096,6.281,-0.601,2.800,2.244856,-0.606071,-2.362715,100041.11,+102,-212,+29
84106,6.421,-0.294,3.276,2.579021,-0.489007,-2.591522,100042.68,+92,-214,+37
84116,6.580,-0.470,3.551,3.020140,-0.379392,-2.790531,100038.85,+83,-217,+47
84126,6.992,-1.475,3.725,3.422947,-0.278291,-2.987411,100037.85,+83,-217,+47
84136,7.646,-3.154,3.861,3.583112,-0.206988,-3.177374,100035.27,+73,-215,+57
84146,7.959,-4.955,4.095,3.391552,-0.171337,-3.356695,100035.27,+61,-214,+69
84156,7.744,-5.939,4.399,2.877002,-0.120787,-3.545062,100040.14,+50,-214,+78
84166,7.793,-5.672,4.766,2.208140,-0.027667,-3.758438,100037.89,+50,-214,+78
84176,8.556,-4.701,5.008,1.604728,0.087268,-3.957447,100037.11,+37,-213,+83
84186,9.313,-4.309,5.245,1.234911,0.224020,-4.097392,100033.84,+22,-210,+87
84196,9.847,-4.754,5.297,1.058783,0.364497,-4.192108,100033.84,+9,-209,+91
84206,10.188,-5.349,5.015,0.999719,0.506571,-4.278841,100036.66,+9,-209,+91
84216,10.411,-5.622,4.751,1.066765,0.651837,-4.332053,100039.29,-3,-208,+94
84226,10.685,-5.590,4.645,1.245022,0.793378,-4.327264,100037.09,-17,-203,+98
84236,11.083,-5.693,4.608,1.498306,0.921084,-4.289484,100039.18,-29,-199,+103
84246,11.521,-5.996,4.669,1.739884,1.036552,-4.265539,100039.18,-29,-199,+103
84256,11.833,-6.077,4.635,1.897920,1.133396,-4.257025,100041.44,-40,-194,+110
84267,11.989,-6.052,4.620,1.937296,1.221194,-4.229887,100040.91,-52,-188,+115
84276,11.935,-6.327,4.610,1.832471,1.311121,-4.205410,100038.13,-62,-182,+122
84286,11.825,-6.653,4.183,1.576526,1.401047,-4.212328,100036.03,-62,-182,+122
84296,11.760,-6.671,3.798,1.288122,1.529286,-4.234144,100036.03,-72,-176,+129
84306,11.842,-6.772,3.303,1.090710,1.634111,-4.186255,100040.87,-81,-170,+134
84316,11.945,-7.518,2.755,1.023132,1.721909,-4.080897,100038.98,-89,-164,+140
84322,12.380,-8.460,2.439,0.958214,1.778845,-3.996824,100038.46,-89,-164,+140
84331,13.035,-8.435,1.933,0.734728,1.771396,-3.972878,100038.46,-96,-157,+145
84341,13.688,-7.105,1.847,0.340967,1.766074,-3.976071,100038.66,-104,-152,+149
84352,13.763,-5.718,1.588,0.071720,1.752240,-3.952658,100038.66,-104,-152,+149
84362,13.214,-5.234,1.351,0.009995,1.726698,-3.841980,100040.16,-111,-145,+154
84371,12.714,-5.841,1.442,0.014784,1.729891,-3.648824,100039.59,-117,-140,+159
84381,12.489,-6.825,1.065,-0.082060,1.744258,-3.426402,100037.90,-122,-135,+165
84391,12.385,-7.133,0.069,-0.286922,1.736808,-3.197062,100037.90,-122,-135,+165
84401,12.131,-7.518,-1.156,-0.412500,1.702221,-2.903870,100037.90,-126,-131,+168
84411,12.119,-8.335,-2.164,-0.381106,1.619744,-2.510109,100041.03,-128,-127,+173
84421,12.470,-10.092,-2.490,-0.231051,1.447341,-1.983320,100042.77,-129,-124,+177
84431,12.346,-11.815,-2.628,-0.123565,1.179157,-1.414495,100039.92,-129,-124,+177
84441,11.424,-12.137,-2.342,-0.104941,0.884369,-0.862697,100043.66,-129,-123,+181
84451,10.345,-11.169,-2.067,-0.072482,0.584791,-0.270991,100043.66,-128,-122,+184
84461,9.350,-10.304,-1.949,0.106839,0.291598,0.370733,100045.39,-126,-124,+187
84471,8.708,-9.938,-1.660,0.411206,0.024479,0.997559,100043.08,-126,-124,+187
84482,8.714,-9.327,-0.962,0.768251,-0.183576,1.512641,100042.63,-123,-126,+189
84491,9.811,-8.724,-0.051,1.090710,-0.380988,1.918641,100042.63,-120,-127,+191
84501,10.315,-5.132,10.301,1.500434,-0.289466,2.312402,100044.99,-115,-129,+194
84511,19.938,14.447,11.998,0.759205,-0.358640,2.126163,100042.21,-111,-129,+194
84521,33.229,18.817,-12.401,-0.506152,-1.286639,1.371100,100042.21,-111,-133,+195
84531,29.785,-8.785,-5.802,1.946342,-0.831153,3.446860,100048.26,-107,-136,+196
84541,19.380,-14.822,0.337,3.072819,-0.850841,3.882126,100043.90,-100,-136,+202
84551,10.637,-10.243,-1.438,1.001847,-0.895539,2.887613,100043.90,-96,-136,+202
84556,4.551,-3.708,-0.293,-0.212427,-0.740162,2.356567,100045.69,-96,-139,+202
84567,0.172,1.227,2.505,-0.326299,-0.705575,2.507154,100044.22,-92,-145,+201
84576,0.288,1.465,4.751,0.364380,-0.581594,2.731172,100044.48,-92,-145,+201
84586,5.598,-3.041,5.066,1.348251,-0.285209,2.647631,100042.70,-85,-147,+202
84596,13.243,-7.476,2.136,1.483407,-0.434731,2.783319,100042.70,-79,-147,+207
84606,16.966,-9.569,-0.227,0.793260,-0.808272,2.701374,100046.20,-74,-150,+208
84616,13.915,-8.163,-0.303,-0.093234,-0.767300,2.029852,100044.73,-74,-150,+208
84626,10.458,-4.490,-0.218,-0.713674,-0.663539,1.434953,100044.53,-71,-154,+206
84636,8.193,-1.585,-0.645,-0.699840,-0.585319,1.297137,100044.84,-69,-158,+203
84646,7.669,-0.162,-0.412,-0.229455,-0.419300,1.352476,100044.84,-67,-160,+203
84657,8.411,-0.306,0.050,0.269664,-0.228273,1.405155,100045.79,-67,-160,+203
84666,9.790,-1.521,0.070,0.391517,-0.095245,1.398237,100045.26,-63,-161,+204
84676,10.510,-2.884,0.867,0.340435,-0.002658,1.289155,100042.48,-60,-162,+205
84686,10.325,-3.106,1.157,0.115885,0.026608,1.123669,100042.95,-56,-163,+205
84697,9.711,-2.771,1.406,-0.133143,0.032993,0.979999,100042.95,-56,-163,+205
84706,9.394,-3.083,1.210,-0.332684,0.012241,0.887944,100043.42,-54,-165,+204
84716,9.678,-2.787,0.718,-0.648225,0.030865,0.798018,100045.73,-51,-167,+204
84726,10.188,-1.990,0.424,-0.991436,0.099507,0.720862,100041.80,-49,-170,+201
84737,10.303,-1.389,0.526,-1.180335,0.189433,0.685210,100042.89,-49,-170,+201
84746,10.258,-0.691,0.984,-1.190445,0.253286,0.679357,100042.89,-46,-175,+199
84756,10.070,-0.601,1.770,-1.050500,0.283085,0.676697,100044.27,-43,-179,+195
84766,9.467,-0.892,2.381,-0.863729,0.264461,0.691064,100045.85,-41,-181,+194
84776,9.191,-1.251,2.849,-0.728041,0.222956,0.716073,100041.45,-39,-181,+194
84787,9.459,-1.399,2.753,-0.672170,0.146332,0.735761,100042.96,-39,-184,+193
84796,9.802,-1.417,2.323,-0.650886,0.083543,0.750128,100042.96,-36,-188,+191
84806,10.179,-1.134,1.884,-0.653014,0.019158,0.776733,100044.81,-33,-190,+189
84816,10.278,-1.014,2.009,-0.615234,-0.018090,0.819834,100044.50,-31,-192,+188
84827,10.030,-0.788,2.041,-0.516794,-0.067044,0.867192,100043.66,-31,-192,+188
84836,9.526,-0.861,2.245,-0.377913,-0.100567,0.930513,100042.34,-28,-194,+187
84846,9.149,-1.555,2.309,-0.310867,-0.135686,1.008201,100042.34,-26,-195,+187
84856,9.066,-1.986,2.403,-0.374188,-0.180915,1.081100,100043.51,-22,-196,+185
84867,9.275,-2.081,2.674,-0.514665,-0.236255,1.142825,100042.82,-22,-196,+185
84877,9.530,-2.062,2.762,-0.615766,-0.292126,1.205082,100042.51,-18,-200,+183
84886,9.840,-2.000,2.519,-0.646629,-0.349062,1.263082,100042.98,-15,-202,+181
84896,10.135,-2.089,2.321,-0.650353,-0.391098,1.317889,100042.98,-11,-204,+178
84907,10.173,-2.429,2.152,-0.646097,-0.424089,1.365779,100045.59,-11,-204,+178
84917,10.008,-2.733,1.754,-0.643968,-0.462401,1.393448,100042.23,-8,-206,+177
84926,9.567,-2.945,1.528,-0.631197,-0.532108,1.405155,100044.86,-4,-209,+175
84936,9.052,-3.267,1.511,-0.584904,-0.580530,1.399834,100043.59,-1,-210,+173
84946,8.736,-3.272,1.564,-0.514133,-0.615117,1.392916,100043.59,-1,-210,+173
84957,8.606,-3.224,1.879,-0.465179,-0.644383,1.390788,100043.70,+1,-212,+172
84966,8.779,-3.155,2.076,-0.429528,-0.661410,1.396641,100046.43,+5,-213,+169
84976,9.078,-3.014,2.111,-0.377381,-0.676841,1.422182,100043.76,+8,-214,+168
84986,9.476,-3.115,1.874,-0.284794,-0.691208,1.454109,100042.76,+8,-214,+168
84997,9.863,-2.942,1.686,-0.174647,-0.709832,1.484439,100042.76,+11,-215,+168
85007,10.021,-3.752,1.132,-0.040556,-0.741227,1.524347,100045.12,+15,-216,+167
85016,10.357,-5.011,-0.041,0.091408,-0.793905,1.552017,100045.07,+20,-216,+167
85026,10.963,-4.928,-1.000,-0.026543,-0.808627,1.539601,100045.59,+20,-216,+167
85037,11.512,-4.749,-1.481,-0.237968,-0.812529,1.534990,100044.18,+23,-216,+166
85047,11.988,-4.156,-2.027,-0.406115,-0.833282,1.551485,100044.18,+26,-217,+165
85056,12.322,-3.466,-2.147,-0.454537,-0.879043,1.578091,100047.53,+30,-218,+163
85066,12.675,-2.948,-1.627,-0.393876,-0.946621,1.619063,100044.64,+30,-218,+163
85076,12.834,-3.058,-0.628,-0.262978,-1.021649,1.697283,100045.33,+34,-218,+163
85087,13.055,-3.831,0.087,-0.121968,-1.098804,1.785613,100041.55,+37,-219,+163
85096,13.393,-3.990,0.918,-0.115583,-1.153612,1.839356,100041.55,+41,-220,+163
85106,13.777,-4.352,1.669,-0.212427,-1.198309,1.887778,100045.98,+41,-220,+163
85116,14.159,-4.443,1.988,-0.372592,-1.219593,1.943650,100045.63,+44,-220,+162
85127,14.712,-4.114,2.078,-0.638115,-1.208951,1.984090,100043.78,+48,-221,+161
85137,15.500,-3.443,2.091,-1.032940,-1.186603,2.017081,100043.31,+52,-223,+158
85142,16.010,-3.009,1.807,-1.351142,-1.188199,2.049008,100043.31,+52,-223,+158
85151,16.844,-1.815,1.629,-1.626775,-1.216933,2.062310,100043.31,+56,-227,+153
85161,18.611,0.457,1.725,-1.785876,-1.295685,2.083063,100043.62,+60,-229,+148
85172,20.652,2.958,1.333,-1.624646,-1.440419,2.107008,100046.40,+60,-229,+148
85182,21.074,1.576,1.370,-1.060610,-1.705942,2.288989,100042.88,+63,-229,+145
85191,20.754,-1.146,2.590,-0.110794,-1.977850,2.609851,100043.51,+67,-229,+145
85201,19.863,-2.483,4.813,0.738453,-2.110345,2.823227,100044.45,+70,-225,+149
85212,17.268,-3.678,6.198,1.129554,-2.086932,2.777466,100044.24,+70,-225,+149
85222,14.103,-4.288,6.800,1.070490,-1.960822,2.549191,100044.24,+73,-220,+153
85231,11.190,-3.126,8.255,0.930545,-1.709134,2.262916,100042.93,+74,-217,+154
85241,9.312,-0.035,8.901,0.896490,-1.430309,1.848934,100041.73,+73,-212,+156
85252,8.161,4.078,5.752,0.851792,-1.272804,1.217852,100041.73,+73,-212,+156
85262,5.202,-4.158,-0.696,0.482863,-1.166205,0.786134,100042.20,+70,-208,+156
85271,1.191,-6.731,4.492,0.145151,-0.772089,0.879430,100042.20,+68,-205,+153
85281,3.472,1.391,3.663,-1.084023,-0.540621,-0.032074,100041.70,+64,-206,+145
85292,5.905,2.165,3.714,-1.639545,-0.233594,-0.817468,100042.59,+64,-206,+145
85302,5.074,3.535,2.541,-1.369766,-0.171337,-1.002642,100042.24,+60,-206,+135
85312,4.487,3.703,1.332,-0.762096,-0.030328,-1.155889,100039.52,+54,-206,+127
85321,4.652,2.581,1.080,-0.003308,0.139415,-1.421944,100036.88,+51,-204,+124
85331,4.924,2.205,0.997,0.658637,0.212314,-1.663522,100036.37,+51,-204,+124
85342,5.404,1.562,0.843,1.108801,0.306497,-1.956715,100036.37,+46,-201,+121
85351,5.963,0.598,0.749,1.497242,0.409727,-2.239265,100036.37,+41,-198,+122
85361,6.367,-0.466,0.399,1.840452,0.462938,-2.468604,100039.09,+34,-196,+123
85371,6.695,-1.819,0.092,2.053828,0.495928,-2.684109,100036.40,+34,-196,+123
85382,7.305,-2.568,0.034,2.074049,0.516149,-2.910787,100038.20,+28,-192,+125
85392,8.145,-2.899,-0.157,1.848434,0.478369,-3.178439,100038.71,+22,-190,+127
85402,8.261,-4.104,0.790,1.636122,0.465066,-3.375851,100038.71,+13,-188,+128
85411,8.578,-4.311,1.557,1.280141,0.468259,-3.565814,100039.43,+13,-188,+128
85422,8.529,-4.669,2.103,0.910325,0.526791,-3.741411,100037.82,+5,-186,+129
85432,8.625,-4.875,2.357,0.653848,0.625231,-3.886677,100035.74,-3,-185,+131
85442,8.805,-4.704,2.407,0.462820,0.752405,-4.038328,100035.74,-14,-184,+131
85451,9.244,-4.490,2.302,0.342563,0.892350,-4.161777,100039.20,-24,-184,+131
85462,9.974,-4.001,2.384,0.355866,1.019524,-4.218181,100039.20,-24,-183,+131
85472,11.052,-3.886,2.537,0.593187,1.112112,-4.201154,100037.73,-35,-180,+132
85482,12.128,-4.418,2.624,0.981627,1.156277,-4.167099,100038.00,-45,-176,+135
85491,12.659,-5.110,2.752,1.393480,1.174901,-4.155924,100037.00,-55,-171,+141
85501,12.639,-5.800,2.809,1.714342,1.193524,-4.159649,100037.00,-55,-171,+141
85512,12.094,-6.301,2.984,1.877700,1.224387,-4.152200,100040.54,-65,-164,+147
85522,11.415,-6.302,3.167,1.899517,1.260570,-4.124530,100041.85,-75,-156,+153
85532,11.037,-6.031,3.331,1.861737,1.320166,-4.076640,100039.38,-83,-147,+160
85541,11.138,-5.697,3.538,1.816507,1.386148,-4.021300,100039.20,-83,-147,+160
85552,11.480,-5.375,3.574,1.765425,1.444680,-3.979264,100041.30,-91,-138,+166
85562,11.822,-5.351,3.195,1.687205,1.506937,-3.953722,100041.30,-98,-128,+173
85571,12.282,-5.906,2.494,1.542471,1.563341,-3.927117,100041.30,-103,-119,+178
85581,12.842,-6.346,1.709,1.207242,1.557487,-3.926053,100041.14,-103,-119,+178
85592,13.222,-6.053,1.430,0.819334,1.517579,-3.907961,100039.94,-107,-109,+184
85602,13.270,-5.460,1.191,0.545297,1.445212,-3.839319,100039.94,-113,-100,+187
85612,13.088,-5.229,1.124,0.506453,1.382955,-3.700438,100042.18,-117,-92,+192
85621,12.950,-5.523,0.931,0.686838,1.318570,-3.490255,100040.93,-117,-92,+192
85632,12.645,-6.460,0.695,0.994398,1.269084,-3.218347,100040.09,-120,-82,+196
85642,12.225,-7.545,0.389,1.287590,1.230240,-2.894824,100041.93,-122,-72,+200
85652,11.887,-8.538,-0.038,1.422746,1.187139,-2.521815,100041.93,-123,-62,+205
85662,11.831,-9.614,-0.338,1.347187,1.126479,-2.123797,100044.53,-123,-62,+205
85671,11.664,-10.369,-0.771,1.015682,1.017928,-1.758770,100041.83,-123,-54,+210
85682,11.371,-10.566,-1.166,0.580416,0.865745,-1.402788,100043.52,-122,-50,+211
85692,10.817,-10.268,-1.364,0.286160,0.673121,-1.038825,100043.52,-122,-46,+214
85701,10.199,-9.525,-1.534,0.215921,0.467727,-0.645064,100043.52,-122,-46,+214
85711,9.947,-9.010,-1.597,0.364380,0.267121,-0.195431,100046.05,-122,-44,+216
85722,9.674,-9.056,-1.904,0.658104,0.074498,0.256330,100047.43,-122,-44,+216
85732,9.131,-9.146,-2.250,1.009829,-0.090989,0.632532,100043.54,-122,-42,+218
85742,8.553,-9.192,-2.446,1.301957,-0.224016,0.956586,100044.32,-122,-42,+218
85751,8.082,-9.133,-2.050,1.500434,-0.337887,1.235944,100044.32,-122,-40,+219
85762,8.267,-9.599,-1.925,1.706361,-0.424621,1.468476,100046.02,-121,-38,+220
85772,8.314,-10.845,4.060,1.975076,-0.327245,1.762733,100044.95,-120,-38,+221
85782,11.017,-0.769,17.767,1.607388,0.171342,1.927155,100041.51,-120,-38,+221
85792,25.686,19.864,8.374,-0.356629,-0.063319,0.987981,100041.51,-117,-38,+223
85801,34.248,9.092,-12.472,-1.411802,-0.655557,1.083761,100048.65,-119,-43,+221
85812,25.155,-13.750,-2.845,1.611645,-0.458676,3.319686,100048.65,-117,-46,+222
85822,15.482,-12.280,-0.351,1.735095,-0.560841,2.855154,100042.77,-117,-46,+222
85832,6.437,-7.226,-2.168,-0.052794,-0.576805,2.010696,100043.02,-115,-49,+222
85841,0.785,1.059,0.038,-0.866390,-0.462933,1.785613,100044.13,-115,-55,+220
85852,1.876,2.857,3.306,-0.263510,-0.354915,2.241631,100044.13,-112,-61,+219
85862,6.386,1.142,3.525,0.860838,-0.144732,2.154365,100045.48,-112,-61,+219
85872,11.201,-2.743,2.999,1.374324,-0.076089,2.149576,100044.80,-110,-61,+221
85882,14.158,-6.653,2.582,1.123168,-0.185704,2.229393,100044.44,-107,-62,+223
85892,14.463,-7.627,1.321,0.429829,-0.319796,1.954292,100043.04,-105,-66,+223
85902,12.198,-5.320,0.020,-0.136868,-0.362897,1.430164,100043.57,-105,-66,+223
85912,8.999,-2.276,0.389,-0.305014,-0.300640,1.100256,100044.15,-104,-68,+222
85922,7.299,-0.725,0.964,-0.091106,-0.266585,1.103449,100043.46,-102,-72,+221
85932,8.553,-0.271,1.094,0.307976,-0.245300,1.218384,100043.46,-102,-73,+222
85942,10.598,-0.785,1.397,0.645334,-0.257539,1.270531,100043.99,-101,-73,+222
85952,11.079,-1.382,1.618,0.732600,-0.254878,1.194972,100043.99,-101,-74,+222
85962,10.205,-1.692,1.736,0.679389,-0.205392,1.073118,100045.55,-99,-74,+223
85971,9.212,-1.626,2.064,0.554875,-0.178255,1.011394,100044.91,-99,-75,+224
85982,8.514,-1.588,1.812,0.362251,-0.148989,0.953926,100043.44,-98,-75,+223
85992,8.657,-1.505,1.367,0.122802,-0.091521,0.876238,100042.86,-98,-75,+223
86002,9.619,-1.096,0.948,-0.058115,-0.064383,0.838458,100042.86,-96,-77,+223
86012,10.186,-0.249,0.796,-0.078335,-0.040438,0.837926,100044.15,-95,-79,+223
86022,9.953,0.172,0.657,0.074380,0.001066,0.839522,100043.49,-94,-80,+223
86032,9.786,-0.261,0.373,0.279242,0.021819,0.860807,100041.71,-94,-80,+223
86042,9.746,-0.793,0.401,0.348417,0.025011,0.904972,100041.71,-92,-81,+224
86051,9.552,-1.273,0.901,0.265407,0.047892,0.929449,100041.71,-90,-82,+224
86062,9.511,-1.741,0.993,0.090343,0.045764,0.944348,100045.53,-89,-83,+224
86072,9.653,-2.032,1.169,-0.095895,0.032461,0.968825,100045.16,-89,-83,+224
86082,9.792,-1.687,1.578,-0.265993,0.016852,0.987626,100043.19,-86,-86,+225
86091,9.653,-1.690,1.476,-0.350244,0.003195,0.998623,100043.19,-85,-89,+224
86102,9.681,-1.526,1.301,-0.399730,-0.005851,1.032678,100043.19,-85,-91,+223
86112,9.735,-1.011,1.539,-0.449748,-0.019686,1.066733,100046.04,-85,-91,+223
86122,9.771,-1.239,1.217,-0.488592,-0.030860,1.084825,100044.88,-82,-95,+224
86132,9.993,-1.077,1.186,-0.459326,-0.035117,1.139100,100043.46,-79,-98,+222
86142,9.963,-1.127,1.618,-0.413032,-0.067044,1.199761,100043.46,-77,-101,+221
86152,9.785,-1.696,1.644,-0.323106,-0.102695,1.237540,100044.73,-77,-101,+221
86162,9.959,-2.423,1.630,-0.218812,-0.125576,1.281173,100044.73,-75,-104,+221
86172,9.902,-3.014,1.393,-0.227326,-0.160163,1.294476,100043.52,-73,-107,+221
86181,9.526,-2.684,1.678,-0.335877,-0.193154,1.276384,100044.10,-71,-110,+219
86192,9.239,-2.395,1.696,-0.405051,-0.226677,1.280109,100040.99,-71,-110,+219
86202,9.236,-2.082,1.872,-0.340133,-0.255410,1.302458,100040.99,-69,-113,+219
86212,9.451,-1.988,2.051,-0.212427,-0.278823,1.320017,100044.91,-68,-115,+218
86222,9.877,-2.414,1.922,-0.073546,-0.304365,1.346623,100045.34,-66,-118,+218
86232,10.236,-3.166,1.611,-0.016611,-0.324585,1.374292,100042.40,-66,-118,+218
86242,10.342,-3.836,1.191,-0.080996,-0.341612,1.382806,100043.27,-64,-120,+217
86252,10.288,-4.087,0.984,-0.237968,-0.351722,1.391852,100043.43,-61,-123,+216
86262,10.022,-4.153,1.353,-0.442299,-0.333099,1.407815,100043.32,-59,-125,+214
86273,9.822,-4.150,1.454,-0.622152,-0.332034,1.430696,100041.85,-59,-125,+214
86282,10.088,-3.933,1.516,-0.765821,-0.346933,1.474861,100041.85,-56,-129,+214
86292,10.491,-3.908,1.899,-0.859473,-0.371943,1.523815,100039.91,-54,-134,+211
86302,10.673,-4.339,2.176,-0.867986,-0.396420,1.573302,100039.91,-52,-139,+209
86312,11.399,-3.960,1.059,-0.889271,-0.440053,1.604696,100046.68,-52,-139,+209
86318,11.957,-3.962,0.565,-0.900977,-0.482621,1.614806,100045.63,-48,-143,+206
86327,12.555,-3.922,0.158,-0.950995,-0.529979,1.639815,100042.27,-46,-147,+204
86337,13.400,-3.872,-0.402,-1.020170,-0.605539,1.697283,100044.70,-46,-147,+204
86347,14.025,-3.144,-0.691,-1.069124,-0.691208,1.739320,100044.70,-43,-152,+200
86356,14.291,-2.824,-0.332,-1.090940,-0.792309,1.817540,100043.77,-41,-158,+197
86367,14.442,-2.737,0.208,-1.048372,-0.891814,1.937797,100046.87,-37,-161,+194
86377,14.340,-3.011,0.744,-1.015913,-0.973226,2.052732,100043.51,-37,-161,+194
86387,14.486,-3.373,1.210,-1.081894,-1.025905,2.144787,100042.93,-34,-166,+191
86396,14.897,-3.466,1.630,-1.271325,-1.074327,2.229925,100042.93,-30,-171,+187
86407,15.721,-3.394,2.072,-1.480445,-1.129667,2.298035,100043.11,-26,-177,+182
86417,17.256,-2.585,2.444,-1.679454,-1.184474,2.323576,100042.89,-26,-177,+182
86427,19.461,-0.360,2.749,-1.899215,-1.232364,2.284200,100043.05,-22,-183,+175
86437,20.382,1.829,2.869,-2.035967,-1.298346,2.190549,100041.73,-17,-189,+169
86447,19.039,2.558,1.904,-1.864628,-1.383483,2.085723,100041.73,-13,-195,+163
86457,17.791,1.131,0.966,-1.360720,-1.472345,2.133613,100046.63,-13,-195,+163
86467,17.827,-0.813,1.481,-0.668445,-1.600584,2.342200,100045.25,-9,-198,+159
86477,17.176,-1.663,3.177,-0.124629,-1.691575,2.457136,100044.31,-5,-200,+157
86487,15.908,-1.964,4.247,0.028087,-1.731483,2.367209,100044.16,+0,-202,+157
86497,13.926,-1.587,5.115,-0.070886,-1.702749,2.140530,100044.16,+0,-202,+157
86507,12.323,-0.454,5.840,-0.006501,-1.611758,1.969723,100043.80,+1,-202,+155
86517,11.231,0.185,6.270,0.287756,-1.498419,1.779760,100044.79,+5,-203,+156
86528,9.826,0.747,5.813,0.649591,-1.400511,1.478054,100040.43,+7,-202,+158
86537,7.392,4.580,3.693,0.837958,-1.372841,0.942752,100041.34,+7,-202,+158
86547,3.838,0.788,1.771,1.316324,-1.270676,0.519724,100041.34,+5,-200,+159
86553,3.651,-10.852,2.516,2.059682,-1.001961,0.818770,100042.98,+6,-197,+165
86562,6.239,-12.521,2.559,1.640911,-0.819979,0.877834,100042.98,+6,-197,+165
86573,7.433,-5.717,3.307,-0.058647,-0.633208,0.283468,100042.76,+6,-196,+167
86582,6.540,0.522,3.870,-0.841913,-0.576273,-0.483303,100042.60,+3,-197,+165
86592,4.283,3.493,3.434,-0.605656,-0.474640,-1.056385,100040.63,-1,-198,+163
86602,3.573,3.027,2.230,-0.135803,-0.377264,-1.234642,100041.52,-1,-198,+163
86612,3.750,1.349,1.369,0.338307,-0.247961,-1.378843,100039.48,-5,-196,+164
86623,4.409,-0.793,1.665,0.756013,-0.099502,-1.556568,100037.48,-11,-194,+165
86632,4.512,-2.152,2.410,1.094967,0.007984,-1.803467,100037.48,-17,-190,+170
86642,4.617,-2.022,2.549,1.268966,0.076094,-2.117944,100038.70,-17,-190,+170
86652,5.255,-1.285,2.243,1.405187,0.139947,-2.459558,100038.70,-26,-186,+173
86662,6.110,-0.933,1.997,1.588764,0.208057,-2.765522,100041.33,-33,-179,+177
86672,6.748,-0.496,1.776,1.685076,0.246369,-3.019870,100039.86,-42,-172,+182
86682,6.990,-0.190,1.411,1.691994,0.295855,-3.243888,100038.86,-42,-172,+182
86692,7.215,-0.046,1.523,1.663260,0.379929,-3.434383,100036.23,-51,-164,+188
86703,7.575,-0.094,1.643,1.536618,0.410259,-3.612640,100036.23,-59,-155,+192
86712,7.810,-0.739,1.716,1.425939,0.427286,-3.756310,100038.88,-69,-146,+195
86722,7.926,-1.864,2.221,1.394544,0.496993,-3.887209,100036.15,-69,-146,+195
86732,8.316,-2.745,2.576,1.409976,0.564571,-4.012787,100035.41,-77,-137,+199
86743,9.037,-3.203,2.973,1.528104,0.654497,-4.152200,100035.41,-85,-125,+203
86752,9.911,-3.213,3.363,1.735627,0.747084,-4.314493,100035.41,-93,-113,+208
86762,10.809,-3.343,3.496,1.993168,0.805084,-4.451777,100038.30,-93,-113,+208
86772,11.778,-3.683,3.361,2.268269,0.843928,-4.544364,100040.61,-100,-99,+212
86782,12.614,-4.182,2.987,2.491755,0.858295,-4.619924,100039.72,-105,-83,+218
86792,12.629,-4.844,3.448,2.679590,0.890754,-4.631630,100040.61,-111,-66,+223
86802,12.566,-5.300,3.886,2.733333,0.902992,-4.598107,100040.61,-111,-66,+223
86812,12.620,-5.939,4.232,2.694489,0.930662,-4.567245,100039.27,-115,-47,+228
86822,12.996,-6.672,4.256,2.576360,0.955139,-4.561392,100040.73,-117,-28,+233
86833,13.245,-7.179,3.926,2.300727,0.999304,-4.599172,100038.50,-119,-12,+236
86842,13.466,-7.369,3.556,1.921865,1.086570,-4.612474,100038.50,-119,-12,+236
86852,13.854,-7.403,3.086,1.450416,1.187671,-4.575759,100035.85,-118,+4,+238
86862,14.132,-7.306,2.722,0.927352,1.277066,-4.524676,100038.37,-117,+18,+241
86873,14.262,-6.800,2.117,0.449517,1.348368,-4.464016,100038.37,-114,+31,+243
86882,14.737,-6.479,2.005,0.236141,1.435102,-4.363979,100035.74,-109,+31,+243
86892,15.129,-6.720,1.341,0.217518,1.453194,-4.217649,100041.10,-109,+42,+246
86902,14.611,-7.262,0.731,0.365976,1.456919,-4.011190,100041.10,-105,+52,+248
86913,14.212,-7.525,0.277,0.602233,1.445744,-3.675429,100041.05,-100,+62,+250
86923,13.539,-7.723,0.202,0.766123,1.405304,-3.291246,100041.26,-93,+72,+252
86932,12.720,-8.372,0.354,0.820930,1.344111,-2.928347,100040.10,-93,+72,+252
86942,12.218,-9.983,0.302,0.729407,1.257910,-2.542035,100039.63,-88,+81,+253
86952,11.858,-12.144,-0.131,0.385132,1.159469,-2.143485,100045.89,-83,+87,+255
86963,10.864,-13.024,-0.327,-0.241693,1.059433,-1.756109,100043.31,-79,+90,+257
86972,10.170,-12.426,-0.451,-0.894592,0.906185,-1.286788,100045.89,-79,+90,+257
86982,9.992,-11.282,-0.579,-1.240995,0.697066,-0.722220,100045.89,-74,+87,+258
86992,9.997,-9.624,-0.562,-1.230353,0.465066,-0.159248,100045.36,-73,+84,+260
87003,9.506,-8.132,-0.202,-0.987179,0.260736,0.310605,100045.36,-73,+81,+261
87012,8.659,-7.425,-0.056,-0.663656,0.084608,0.725119,100044.84,-73,+81,+261
87023,8.172,-7.775,-0.553,-0.260672,-0.046291,1.141583,100047.30,-73,+77,+260
87032,8.217,-7.451,-0.637,0.118545,-0.120787,1.404623,100047.30,-74,+75,+260
87043,9.388,-6.816,-0.038,0.562325,-0.241044,1.683980,100045.41,-75,+75,+260
87053,9.470,-6.292,8.418,1.314196,-0.134622,2.077741,100045.41,-75,+75,+260
87062,17.178,9.490,14.215,1.075811,-0.000530,2.129356,100045.00,-76,+76,+260
87072,31.889,22.412,-5.689,-0.381106,-0.933850,1.228494,100044.70,-80,+74,+258
87083,29.364,-1.522,-7.851,1.110930,-0.629484,2.555576,100044.42,-82,+73,+257
87093,21.064,-13.850,-0.971,3.222341,-0.560841,3.591062,100044.42,-82,+73,+257
87102,12.629,-12.315,-0.488,1.771810,-0.658218,3.028622,100044.42,-85,+77,+255
87112,4.426,-5.622,-0.269,-0.263510,-0.670456,2.415631,100046.38,-89,+74,+253
87122,0.122,-2.255,4.368,-0.621087,-0.514016,2.520989,100046.69,-92,+66,+253
87133,4.543,-3.382,6.755,0.289885,-0.271906,2.838658,100042.91,-92,+66,+253
87142,11.694,-3.438,2.998,0.771976,-0.668328,2.762035,100042.33,-93,+63,+252
87152,12.921,-7.648,-0.661,0.934269,-0.801355,2.506622,100042.33,-96,+61,+252
87162,14.060,-7.419,0.697,0.444196,-0.765172,2.351246,100048.12,-99,+58,+250
87173,11.934,-6.470,-0.927,-0.509876,-0.792841,1.926090,100044.07,-99,+58,+250
87183,8.903,-2.854,-1.345,-1.050500,-0.525190,1.376953,100045.54,-102,+51,+248
87192,7.922,0.579,-1.168,-1.035069,-0.391631,1.288091,100045.54,-104,+45,+248
87202,7.909,1.466,-0.250,-0.373124,-0.219227,1.343962,100046.99,-105,+41,+247
87213,9.311,0.901,0.740,0.401095,-0.085135,1.437081,100043.37,-105,+41,+247
87222,10.269,-1.397,1.153,0.783682,-0.019686,1.425375,100043.37,-104,+40,+248
87232,10.343,-3.616,1.641,0.687371,0.013837,1.259889,100045.15,-104,+40,+248
87242,9.744,-4.545,1.669,0.269664,0.023415,1.066201,100045.35,-104,+39,+248
87252,9.311,-4.213,1.374,-0.283730,0.028204,0.876238,100045.35,-104,+39,+248
87258,9.435,-3.272,1.228,-0.675363,0.040975,0.748531,100047.24,-104,+35,+248
87267,9.754,-2.033,1.058,-0.913748,0.060663,0.660733,100045.04,-104,+30,+249
87277,9.908,-0.568,1.118,-0.936628,0.100571,0.608587,100046.15,-104,+30,+249
87287,9.839,0.231,1.074,-0.720060,0.142608,0.613376,100045.46,-103,+26,+248
87298,9.632,0.093,1.501,-0.396005,0.167085,0.651688,100045.46,-103,+24,+248
87308,9.358,-1.022,2.128,-0.176776,0.168681,0.693724,100048.05,-102,+22,+249
87317,9.463,-1.933,2.261,-0.246482,0.148993,0.716605,100047.54,-102,+22,+249
87327,9.641,-2.033,2.348,-0.490720,0.098443,0.707559,100044.80,-101,+19,+250
87337,9.637,-1.650,2.397,-0.656207,0.058002,0.686807,100045.34,-101,+16,+249
87348,9.549,-0.904,2.285,-0.695583,0.042571,0.704366,100045.34,-101,+11,+249
87357,9.530,-0.750,1.951,-0.664720,0.022883,0.741614,100047.17,-101,+11,+249
87367,10.034,-0.911,1.936,-0.621619,-0.003723,0.793761,100043.44,-100,+8,+249
87377,10.454,-0.956,2.275,-0.623216,-0.045227,0.845375,100043.08,-100,+4,+249
87388,10.447,-0.880,2.448,-0.603528,-0.108016,0.882091,100044.02,-100,+1,+248
87398,10.144,-0.840,2.545,-0.496042,-0.171337,0.932641,100044.02,-100,+1,+248
87407,9.504,-1.318,2.652,-0.334280,-0.245832,0.999155,100044.28,-100,-2,+248
87417,9.038,-1.836,2.462,-0.210831,-0.317135,1.058751,100045.86,-100,-5,+247
87428,9.097,-2.288,2.189,-0.153363,-0.380988,1.126329,100044.23,-101,-8,+246
87438,9.423,-2.457,2.211,-0.199124,-0.424089,1.185926,100043.70,-101,-8,+246
87447,9.948,-2.543,2.129,-0.326831,-0.449098,1.219981,100043.70,-101,-10,+245
87457,10.331,-2.573,1.927,-0.424207,-0.471447,1.252439,100046.28,-102,-14,+245
87468,10.348,-2.543,1.675,-0.467308,-0.491135,1.283834,100044.28,-103,-20,+243
87478,9.996,-2.484,1.628,-0.500298,-0.500181,1.312568,100045.64,-103,-20,+243
87487,9.649,-2.371,1.987,-0.501895,-0.543814,1.352476,100043.97,-103,-23,+242
87493,9.445,-2.188,2.147,-0.446555,-0.589043,1.387063,100043.97,-104,-27,+241
87502,9.445,-2.401,2.097,-0.297565,-0.606071,1.431228,100043.97,-104,-27,+241
87513,9.717,-3.169,1.630,-0.106537,-0.623098,1.473797,100044.95,-105,-30,+240
87523,10.017,-3.925,1.137,-0.093234,-0.646511,1.491357,100043.22,-105,-34,+238
87533,10.586,-3.883,0.612,-0.258189,-0.692273,1.509448,100044.38,-105,-38,+237
87542,11.092,-3.433,0.344,-0.436445,-0.735906,1.534458,100044.38,-105,-38,+237
87553,11.603,-3.458,-0.035,-0.555638,-0.768364,1.586604,100045.80,-106,-43,+235
87563,12.155,-3.152,-0.546,-0.633858,-0.806676,1.649393,100046.18,-106,-47,+233
87572,12.426,-3.042,-0.612,-0.667381,-0.864676,1.699412,100046.18,-107,-54,+230
87582,12.668,-2.957,-0.739,-0.664720,-0.943428,1.744109,100046.27,-107,-54,+230
87592,12.856,-2.611,-0.404,-0.656739,-1.025905,1.815944,100045.38,-107,-59,+228
87603,13.084,-2.780,-0.149,-0.563087,-1.117960,1.903742,100045.38,-108,-65,+225
87613,13.113,-2.931,0.075,-0.473693,-1.177557,1.986219,100045.30,-109,-70,+222
87623,12.944,-3.313,0.287,-0.474757,-1.223318,2.049008,100044.61,-109,-70,+222
87632,13.008,-3.671,0.499,-0.548720,-1.273869,2.117650,100044.83,-109,-76,+219
87643,13.565,-3.574,0.766,-0.674830,-1.322291,2.184695,100045.41,-109,-83,+216
87653,14.508,-3.207,1.188,-0.872243,-1.365924,2.240567,100044.17,-109,-89,+212
87663,16.061,-2.695,1.808,-1.121803,-1.431373,2.310273,100042.13,-109,-89,+212
87672,18.762,-1.833,2.555,-1.365509,-1.534070,2.390090,100043.44,-109,-97,+207
87683,22.191,0.402,3.372,-1.646995,-1.629850,2.428402,100044.95,-108,-107,+202
87693,24.859,3.020,4.347,-1.915178,-1.758088,2.440640,100044.95,-107,-117,+195
87702,23.912,3.979,4.248,-1.882720,-1.964015,2.450218,100044.95,-107,-117,+195
87712,20.365,2.777,3.362,-1.281436,-2.128969,2.466714,100046.61,-107,-125,+188
87723,17.249,-0.791,3.064,-0.270959,-2.205593,2.538548,100045.45,-106,-132,+183
87728,16.094,-3.325,2.817,0.329261,-2.263061,2.559833,100044.98,-106,-132,+183
87738,15.295,-4.737,3.506,0.518692,-2.262528,2.486934,100042.14,-106,-135,+179
87747,14.340,-3.889,5.067,0.618728,-2.221024,2.401264,100042.14,-104,-139,+177
87757,13.202,-1.396,7.386,0.899150,-2.097574,2.274622,100044.65,-105,-140,+175
87768,12.136,2.220,7.449,1.356233,-1.985299,1.862237,100043.34,-105,-140,+175
87778,9.997,3.699,3.280,1.949535,-2.012969,1.198164,100044.96,-105,-139,+176
87788,3.485,-6.662,2.835,2.519424,-1.704877,0.951265,100042.34,-107,-135,+177
87797,3.432,-9.825,3.276,2.010727,-1.461171,1.007669,100042.34,-107,-132,+178
87808,8.231,-3.559,1.486,0.352673,-1.373373,0.315394,100043.23,-107,-132,+178
87818,7.193,-2.765,1.940,-0.643968,-1.202566,-0.487027,100043.12,-111,-133,+175
87828,5.177,-0.261,2.228,-1.076573,-1.157337,-0.849394,100042.60,-115,-132,+170
87837,4.257,0.826,1.854,-1.126060,-1.048786,-1.031376,100040.65,-119,-132,+165
87847,4.396,0.884,1.778,-0.741344,-0.883300,-1.250073,100040.65,-119,-132,+165
87858,4.315,0.106,1.765,-0.151234,-0.798162,-1.470898,100045.77,-124,-129,+162
87868,3.726,-0.836,1.448,0.376086,-0.716218,-1.723118,100042.72,-130,-125,+161
87878,3.460,-1.511,1.261,0.799114,-0.592236,-1.985981,100040.25,-136,-118,+161
87887,3.694,-1.620,1.264,1.031646,-0.474108,-2.261081,100039.41,-136,-118,+161
87898,4.039,-1.059,1.404,1.149242,-0.362897,-2.534054,100039.41,-141,-109,+162
87908,4.612,-0.502,1.728,1.312600,-0.242640,-2.780953,100039.79,-147,-100,+163
87918,5.315,-0.716,2.047,1.593553,-0.136750,-2.966127,100038.79,-153,-89,+165
87927,5.849,-1.569,2.290,1.888874,-0.056401,-3.117778,100038.59,-153,-89,+165
87938,6.307,-2.747,2.396,2.086287,0.004791,-3.259319,100037.01,-158,-75,+167
87948,6.501,-3.570,2.576,2.225700,0.072901,-3.409374,100037.01,-162,-60,+169
87958,6.707,-3.709,3.003,2.309241,0.155378,-3.545594,100038.40,-166,-45,+172
87967,7.124,-3.531,3.623,2.374158,0.236259,-3.620622,100040.02,-166,-45,+172
87977,7.848,-3.512,4.192,2.447057,0.310754,-3.689264,100038.82,-169,-29,+175
87988,8.738,-3.801,4.784,2.461957,0.391103,-3.807392,100037.87,-170,-13,+177
87998,9.384,-4.361,5.002,2.394379,0.453892,-3.957979,100037.87,-171,+4,+180
88008,9.570,-5.037,4.908,2.287425,0.534240,-4.083557,100040.55,-171,+4,+180
88017,9.858,-5.452,4.782,2.071920,0.625231,-4.163374,100040.02,-171,+22,+182
88028,10.218,-5.715,4.909,1.802673,0.745488,-4.236805,100039.29,-169,+40,+182
88038,10.479,-5.999,4.874,1.601535,0.868937,-4.295869,100042.13,-168,+56,+183
88048,10.689,-6.335,4.814,1.515865,0.991323,-4.299594,100042.13,-168,+56,+183
88057,11.168,-6.468,4.815,1.537150,1.120625,-4.271924,100043.09,-164,+71,+185
88068,11.752,-6.280,4.553,1.595682,1.242478,-4.282034,100041.26,-158,+87,+187
88078,11.896,-5.968,4.095,1.638251,1.362735,-4.323539,100042.15,-151,+104,+189
88088,11.711,-5.630,3.598,1.611645,1.474478,-4.345356,100039.30,-143,+119,+191
88097,11.461,-5.420,3.187,1.512673,1.578240,-4.323007,100039.30,-143,+119,+191
88108,11.214,-5.314,2.930,1.356765,1.683065,-4.273520,100042.85,-134,+134,+192
88118,11.190,-5.288,2.822,1.162012,1.790552,-4.209135,100042.95,-123,+147,+194
88128,11.517,-5.141,2.734,0.978967,1.891120,-4.130383,100042.27,-112,+160,+197
88138,12.117,-5.137,2.334,0.809756,1.966680,-4.053227,100040.59,-112,+160,+197
88147,12.883,-5.231,1.562,0.628306,2.008184,-3.968090,100040.59,-101,+170,+200
88158,13.890,-5.307,0.578,0.478783,2.020955,-3.838787,100044.55,-88,+179,+202
88168,14.804,-5.705,-0.296,0.424508,1.995414,-3.687668,100044.66,-76,+186,+204
88178,15.150,-6.132,-1.196,0.480912,1.913469,-3.509943,100044.08,-76,+186,+204
88187,15.167,-6.634,-1.633,0.636288,1.800662,-3.295503,100045.77,-64,+194,+206
88198,15.001,-7.854,-2.145,0.842924,1.601475,-2.963466,100045.77,-53,+200,+206
88208,14.051,-9.307,-2.555,1.024196,1.411689,-2.598439,100044.85,-44,+207,+206
88218,12.820,-11.098,-2.702,1.157223,1.202570,-2.124861,100045.34,-44,+207,+206
88227,11.456,-13.210,-2.631,1.144453,0.968974,-1.572531,100044.65,-37,+214,+205
88238,10.337,-15.105,-2.196,1.022600,0.705580,-0.990403,100043.60,-32,+217,+203
88248,9.215,-16.154,-1.992,0.817205,0.407066,-0.386991,100043.60,-30,+220,+202
88258,8.972,-15.265,-1.405,0.525077,0.109085,0.296770,100048.30,-30,+220,+202
88268,9.198,-14.961,-0.612,0.356930,-0.142071,0.882091,100047.15,-32,+220,+201
88278,8.630,-14.427,0.508,0.232949,-0.331502,1.334384,100044.74,-35,+219,+200
88288,9.511,-14.254,1.861,0.049903,-0.449631,1.751026,100045.99,-41,+217,+199
88298,11.851,-6.734,13.280,-0.334280,-0.245300,2.070292,100045.99,-41,+217,+199
88308,23.719,19.370,9.423,-2.138664,-0.465062,1.320017,100043.94,-46,+211,+202
88317,32.372,21.577,-11.494,-3.517893,-1.089226,0.576128,100047.20,-50,+201,+208
88328,26.115,-4.024,-0.181,-0.128354,-0.730052,3.367576,100047.98,-60,+196,+207
88338,17.467,-11.429,6.284,2.666287,-0.829025,3.785282,100042.78,-60,+196,+207
88348,8.589,-9.346,-1.115,2.284764,-1.062621,2.845044,100042.78,-69,+198,+199
88358,2.332,-2.510,-3.482,1.336544,-0.883300,2.215558,100048.23,-76,+198,+196
88368,2.508,-0.404,0.721,0.922031,-0.669924,2.679025,100045.96,-84,+196,+193
88378,4.564,-2.682,2.777,0.916178,-0.452291,2.810457,100046.54,-84,+196,+193
88388,9.113,-7.229,1.496,0.848068,-0.218695,2.628475,100045.38,-89,+193,+190
88397,15.565,-9.763,0.618,0.222307,-0.383117,2.784915,100045.38,-95,+188,+190
88408,16.134,-7.943,1.437,-0.606188,-0.647575,2.553448,100049.67,-102,+182,+190
88418,11.371,-4.445,0.458,-1.074445,-0.658218,1.742512,100047.42,-102,+182,+190
88428,8.504,-1.225,0.116,-0.876500,-0.542750,1.336513,100044.53,-106,+176,+191
88433,7.374,0.101,0.483,-0.441234,-0.465594,1.330660,100043.33,-109,+172,+191
88442,7.366,0.067,0.638,0.078637,-0.387906,1.376421,100043.33,-109,+172,+191
88453,8.575,-1.147,0.505,0.692160,-0.324053,1.438678,100043.33,-113,+170,+190
88463,9.859,-2.865,0.527,0.903407,-0.254878,1.470072,100046.45,-117,+168,+188
88473,10.826,-3.331,0.876,0.653848,-0.158566,1.381742,100045.68,-119,+167,+187
88483,10.725,-3.003,0.984,0.281903,-0.105356,1.211467,100046.40,-119,+167,+187
88493,9.767,-2.863,0.797,0.022233,-0.075025,1.049173,100046.40,-121,+163,+187
88503,9.060,-2.350,0.829,-0.099620,-0.044695,0.931577,100045.82,-122,+161,+187
88513,9.099,-2.283,0.456,-0.190611,-0.016493,0.844843,100045.82,-124,+158,+187
88523,9.772,-2.565,-0.086,-0.345455,0.000002,0.788972,100046.82,-124,+158,+187
88532,10.160,-2.419,-0.230,-0.614170,0.056406,0.727247,100045.71,-125,+156,+188
88543,10.457,-1.140,-0.188,-0.798280,0.147397,0.691596,100044.40,-126,+154,+190
88553,10.376,-0.773,0.399,-0.787638,0.240516,0.710220,100044.40,-126,+149,+191
88563,9.959,-1.381,0.893,-0.713674,0.284149,0.733100,100047.37,-126,+149,+191
88573,9.667,-2.216,1.161,-0.660996,0.319268,0.730972,100046.10,-127,+145,+192
88583,9.532,-2.487,1.480,-0.678023,0.328314,0.735761,100046.79,-127,+141,+194
88593,9.392,-2.501,1.631,-0.747197,0.310222,0.721926,100044.68,-127,+138,+196
88603,9.416,-2.004,1.945,-0.792959,0.284149,0.692128,100048.24,-127,+138,+196
88613,9.506,-1.765,2.154,-0.750390,0.247433,0.684678,100043.99,-127,+134,+197
88624,9.598,-1.579,2.185,-0.615234,0.212314,0.686275,100044.26,-128,+130,+198
88633,9.661,-1.545,1.964,-0.485399,0.174534,0.689999,100044.26,-128,+127,+200
88643,9.783,-1.632,1.690,-0.409840,0.140479,0.699045,100045.05,-128,+127,+200
88653,9.853,-2.025,1.781,-0.359821,0.094186,0.731504,100045.05,-129,+125,+200
88663,9.518,-2.046,2.149,-0.309803,0.001066,0.766623,100045.56,-130,+122,+200
88669,9.031,-1.852,2.458,-0.265638,-0.067576,0.778330,100044.98,-130,+122,+200
88678,8.626,-1.856,2.404,-0.196996,-0.119722,0.796421,100043.14,-131,+119,+201
88688,8.538,-2.035,2.193,-0.080464,-0.154310,0.834733,100043.45,-132,+118,+200
88698,9.022,-2.440,1.837,-0.018207,-0.171337,0.876770,100043.45,-133,+115,+200
88708,9.571,-2.830,1.435,-0.040556,-0.188365,0.900715,100045.41,-133,+115,+200
88718,9.677,-2.821,1.277,-0.099620,-0.199007,0.894330,100046.72,-134,+112,+201
88728,9.334,-2.526,1.549,-0.113455,-0.219227,0.879963,100046.52,-136,+110,+200
88738,8.934,-2.275,1.781,-0.038959,-0.248493,0.893797,100045.36,-137,+108,+198
88748,8.993,-2.520,1.912,0.094600,-0.263392,0.925192,100045.36,-137,+108,+198
88758,9.361,-3.115,1.799,0.179738,-0.278291,0.960843,100045.22,-139,+105,+199
88768,9.704,-3.350,1.730,0.115353,-0.292126,0.992770,100048.64,-141,+104,+199
88778,10.119,-3.302,1.811,-0.076207,-0.307025,1.041192,100041.75,-142,+101,+197
88788,10.671,-3.150,1.939,-0.268831,-0.333631,1.119412,100044.91,-142,+101,+197
88798,11.086,-2.980,2.451,-0.457730,-0.352254,1.199761,100044.91,-144,+97,+197
88808,11.091,-3.446,2.736,-0.564684,-0.381520,1.279577,100047.33,-145,+92,+197
88818,11.077,-3.484,2.677,-0.662592,-0.401209,1.338641,100046.48,-147,+86,+195
88828,11.077,-3.636,2.439,-0.798280,-0.410787,1.392384,100043.22,-147,+86,+195
88838,11.515,-3.787,1.698,-0.916940,-0.463998,1.464219,100044.13,-150,+81,+195
88848,12.341,-3.419,0.794,-0.992500,-0.558181,1.532329,100044.13,-152,+73,+195
88858,13.020,-3.055,0.319,-1.020170,-0.645979,1.602036,100047.13,-154,+66,+194
88868,13.367,-2.836,-0.202,-0.987179,-0.723135,1.686109,100044.28,-154,+66,+194
88879,13.689,-2.833,-0.434,-0.930243,-0.823704,1.768586,100048.23,-156,+59,+193
88888,14.351,-2.782,-0.284,-0.875436,-0.942896,1.857448,100045.81,-160,+52,+190
88898,15.161,-2.632,0.302,-0.855216,-1.049850,1.945246,100045.81,-162,+44,+188
88908,15.697,-2.519,0.964,-0.879161,-1.134988,2.033044,100046.39,-162,+44,+188
88919,15.850,-2.599,1.483,-0.955784,-1.206291,2.133081,100043.41,-166,+36,+185
88928,16.382,-2.198,1.808,-1.094665,-1.287703,2.237906,100042.92,-168,+27,+182
88938,17.864,-0.874,2.740,-1.334114,-1.377630,2.332622,100042.56,-170,+17,+177
88948,19.632,0.514,3.934,-1.590591,-1.472878,2.443833,100042.56,-170,+17,+177
88958,19.963,1.042,4.129,-1.723087,-1.523960,2.525778,100046.77,-172,+6,+175
88968,18.781,1.598,3.750,-1.808756,-1.530878,2.471503,100044.35,-174,-5,+169
88978,17.510,1.825,2.767,-1.807160,-1.565465,2.379448,100044.88,-175,-16,+164
88988,17.484,0.901,1.962,-1.491087,-1.652199,2.465117,100044.15,-175,-16,+164
88998,18.204,-0.440,2.861,-0.860005,-1.760749,2.659870,100044.15,-177,-26,+160
89009,18.338,-1.730,3.651,-0.428464,-1.882602,2.690200,100045.80,-177,-34,+153
89018,16.624,-2.201,5.121,-0.317253,-1.926235,2.543338,100044.59,-179,-42,+148
89028,14.706,-1.129,6.901,-0.036831,-1.900694,2.444365,100043.33,-179,-50,+145
89038,13.331,0.817,8.293,0.485701,-1.799593,2.296439,100042.17,-179,-50,+145
89049,11.766,3.927,8.214,1.112526,-1.658052,1.875540,100042.17,-179,-55,+140
89058,9.139,4.769,5.459,1.828746,-1.603245,1.276384,100046.09,-180,-55,+138
89068,2.580,-4.333,4.598,2.534323,-1.311116,1.070458,100043.26,-181,-54,+139
89078,3.908,-10.439,2.918,2.079370,-1.134456,1.100788,100042.95,-181,-54,+139
89089,8.723,-4.457,1.326,0.361719,-1.077520,0.469706,100043.95,-181,-54,+137
89098,8.297,-0.519,1.408,-0.717399,-0.997704,-0.406147,100043.95,-183,-55,+133
89108,5.274,2.355,1.465,-0.942482,-0.872126,-0.979229,100043.12,-185,-53,+131
89118,3.826,3.198,0.896,-0.781252,-0.745484,-1.180366,100041.80,-185,-53,+131
89128,3.726,2.367,1.085,-0.121968,-0.528915,-1.372990,100042.02,-187,-49,+127
89139,4.091,1.532,1.322,0.759560,-0.370524,-1.628580,100040.76,-190,-42,+128
89148,4.142,1.102,1.600,1.377517,-0.270310,-1.890733,100040.76,-193,-34,+129
89158,4.198,0.852,1.836,1.825021,-0.153777,-2.221705,100042.17,-193,-34,+129
89168,4.709,0.601,2.135,2.074581,-0.012768,-2.532457,100041.59,-195,-24,+130
89179,5.214,0.244,2.228,2.241131,0.121323,-2.776164,100037.08,-197,-10,+132
89188,5.526,-0.067,2.493,2.274654,0.250626,-3.035301,100037.50,-198,+3,+134
89198,6.157,-0.576,2.218,2.203351,0.302773,-3.266237,100037.50,-198,+3,+134
89208,7.045,-1.153,1.815,2.125663,0.351195,-3.490255,100037.71,-199,+17,+136
89219,8.123,-1.535,1.345,2.029351,0.371947,-3.705760,100035.99,-198,+33,+137
89228,8.613,-2.113,1.049,1.991039,0.382057,-3.902108,100037.20,-198,+50,+139
89238,8.821,-2.495,1.365,1.975076,0.402809,-4.072915,100035.73,-198,+50,+139
89248,9.197,-2.896,1.813,1.901113,0.435268,-4.240530,100035.73,-196,+68,+138
89259,9.638,-3.507,2.292,1.764361,0.482626,-4.418787,100036.99,-194,+86,+139
89268,10.103,-4.153,2.746,1.574397,0.547543,-4.600236,100038.99,-188,+105,+140
89278,10.601,-4.531,2.774,1.374856,0.643323,-4.766786,100036.73,-188,+105,+140
89288,10.886,-4.700,2.744,1.218416,0.785928,-4.897686,100037.26,-183,+123,+139
89298,11.116,-4.480,2.270,1.150838,0.932259,-4.992933,100037.26,-175,+140,+141
89309,11.396,-4.118,2.209,1.272159,1.074332,-5.003043,100041.12,-165,+158,+142
89318,12.010,-4.213,2.200,1.571737,1.205763,-4.962070,100040.01,-165,+158,+142
89328,12.852,-5.214,2.000,1.946874,1.298350,-4.900346,100042.48,-154,+176,+142
89338,13.749,-7.197,1.903,2.285828,1.372845,-4.813612,100038.34,-143,+194,+141
89349,14.687,-8.897,1.491,2.305516,1.387212,-4.798713,100038.34,-130,+210,+140
89358,15.186,-9.393,0.946,1.949535,1.363267,-4.837025,100044.42,-130,+210,+140
89368,15.004,-9.370,0.766,1.422746,1.337194,-4.835960,100045.78,-115,+226,+139
89378,14.728,-9.464,0.865,0.923095,1.277598,-4.764658,100041.42,-100,+239,+138
89389,14.488,-9.687,0.900,0.493150,1.213212,-4.630566,100042.38,-85,+250,+140
89398,13.969,-10.380,1.358,0.218050,1.221726,-4.456566,100042.38,-85,+250,+140
89408,13.339,-11.355,1.693,0.166435,1.315910,-4.234144,100044.68,-70,+258,+141
89418,13.009,-12.246,1.697,0.102582,1.419139,-3.932970,100044.73,-55,+266,+142
89428,12.549,-12.851,1.277,-0.028849,1.459047,-3.538677,100044.84,-42,+271,+144
89439,12.429,-13.471,0.858,-0.140060,1.455322,-3.032641,100042.79,-42,+271,+144
89448,12.307,-14.281,0.318,-0.361950,1.343579,-2.488292,100042.79,-30,+274,+146
89458,11.493,-15.526,-0.484,-0.577986,1.148295,-1.919467,100046.71,-20,+275,+149
89468,10.721,-16.037,-1.320,-0.845638,0.897671,-1.288917,100046.29,-16,+276,+152
89479,10.512,-14.962,-2.360,-1.107968,0.564039,-0.566844,100045.09,-13,+273,+156
89488,10.540,-12.665,-3.022,-1.078702,0.180920,0.164275,100044.71,-13,+273,+156
89498,9.831,-10.966,-3.084,-0.612041,-0.171869,0.830476,100044.71,-15,+272,+157
89508,8.705,-9.897,-1.766,0.077041,-0.413447,1.390256,100047.37,-20,+271,+158
89519,8.656,-8.612,1.454,0.720893,-0.511355,1.802109,100047.26,-27,+270,+154
89529,8.718,-5.719,14.489,1.306214,-0.133557,2.142127,100047.10,-27,+270,+154
89538,16.406,13.399,18.508,0.231352,0.252222,1.693558,100041.70,-33,+270,+151
89548,27.761,20.483,-5.147,-1.970518,-0.486346,0.558036,100041.70,-36,+265,+158
89559,26.847,-2.514,-6.192,0.037132,-0.501777,2.292182,100050.63,-45,+263,+154
89569,21.319,-11.760,1.691,2.722158,-0.601282,3.337245,100045.42,-45,+263,+154
89578,11.924,-10.867,-1.184,1.717535,-0.791777,2.611448,100045.58,-54,+265,+147
89588,4.952,-5.671,-2.531,0.339371,-0.694401,1.806366,100046.53,-61,+262,+145
89598,4.845,-0.779,1.247,-0.001180,-0.568291,2.258659,100046.53,-68,+259,+143
89609,7.940,-1.926,4.311,0.434973,-0.333985,2.643552,100045.38,-68,+259,+143
89618,10.815,-2.562,2.753,0.778361,-0.229337,2.373062,100046.48,-76,+255,+143
89628,12.645,-4.679,1.691,0.697481,-0.380456,2.316659,100046.06,-83,+252,+139
89638,12.098,-5.308,2.103,0.285096,-0.528915,2.226200,100044.17,-90,+248,+139
89649,10.874,-4.268,1.073,-0.124629,-0.617777,1.869155,100044.17,-90,+248,+139
89659,9.186,-3.082,-0.452,-0.190078,-0.631080,1.528072,100046.20,-96,+245,+139
89668,8.536,-1.819,-0.309,-0.100152,-0.532640,1.414201,100047.40,-100,+241,+137
89678,9.026,-1.354,-0.035,-0.019271,-0.411851,1.386531,100046.66,-105,+239,+136
89689,9.851,-1.615,-0.047,0.049371,-0.294254,1.337045,100044.93,-105,+239,+136
89699,10.537,-1.954,0.197,0.058949,-0.206988,1.292348,100044.93,-108,+235,+136
89708,10.636,-1.375,0.432,-0.049601,-0.163888,1.224770,100049.44,-113,+233,+136
89718,9.841,-1.737,0.550,-0.100152,-0.100567,1.094935,100045.45,-115,+230,+136
89729,9.514,-2.280,0.478,-0.183161,-0.060126,0.992770,100044.61,-115,+230,+136
89739,9.683,-2.526,0.464,-0.390684,-0.023943,0.902311,100044.14,-118,+227,+137
89748,9.926,-2.510,0.532,-0.673234,0.054277,0.783651,100044.14,-119,+223,+139
89758,10.148,-1.500,0.465,-0.883950,0.106424,0.696917,100047.88,-122,+221,+140
89768,10.038,-0.764,0.736,-0.839252,0.129837,0.663394,100046.36,-122,+221,+140
89779,9.573,-0.655,1.558,-0.529032,0.114406,0.673504,100042.63,-122,+218,+142
89789,9.051,-0.947,2.195,-0.174115,0.056406,0.695320,100044.73,-124,+216,+143
89798,8.814,-1.441,2.324,0.030215,0.019690,0.692660,100044.73,-126,+214,+143
89808,8.954,-1.994,2.254,0.052031,0.010644,0.671908,100048.33,-126,+214,+143
89819,9.323,-2.393,1.969,-0.050134,-0.004255,0.648495,100046.23,-127,+213,+143
89829,9.504,-2.271,1.855,-0.173583,-0.042567,0.620825,100045.17,-129,+210,+144
89838,9.364,-2.052,1.703,-0.243822,-0.063851,0.589431,100046.44,-130,+208,+144
89848,9.159,-1.679,1.754,-0.235840,-0.080878,0.584110,100046.44,-130,+208,+144
89859,8.811,-1.238,2.232,-0.198060,-0.110677,0.602201,100046.57,-132,+206,+144
89869,8.770,-0.861,2.768,-0.136868,-0.148989,0.659137,100045.95,-133,+205,+144
89878,8.921,-0.547,3.038,-0.065033,-0.217631,0.750660,100041.85,-135,+202,+144
89888,9.329,1.003,3.123,-0.002776,-0.236787,0.853889,100044.21,-135,+202,+144
89899,10.186,1.617,3.038,0.143554,-0.257007,0.984788,100044.21,-137,+201,+145
89909,10.821,-0.555,1.434,0.420251,-0.297979,1.109302,100046.42,-141,+199,+143
89919,10.791,-2.189,0.679,0.552215,-0.321924,1.163577,100048.05,-143,+196,+142
89928,9.937,-2.741,0.726,0.456967,-0.340016,1.150274,100046.58,-147,+196,+140
89938,9.344,-2.694,0.991,0.285628,-0.370346,1.160917,100045.73,-147,+195,+140
89949,9.324,-3.008,1.104,0.180802,-0.404933,1.192311,100045.73,-150,+192,+138
89959,9.637,-3.107,1.228,0.133976,-0.434731,1.182733,100047.27,-153,+189,+137
89968,9.848,-3.138,1.371,0.073848,-0.452291,1.164641,100047.23,-156,+186,+136
89978,9.836,-3.009,1.393,-0.020335,-0.459741,1.156128,100045.91,-156,+186,+136
89989,9.894,-2.891,1.013,-0.098556,-0.482621,1.158788,100042.40,-159,+183,+135
89999,10.155,-2.794,1.077,-0.166134,-0.485282,1.176880,100042.40,-162,+178,+134
90009,10.384,-3.302,1.036,-0.230519,-0.489539,1.206146,100046.66,-165,+175,+134
90018,10.526,-3.273,1.102,-0.344390,-0.477300,1.219981,100045.86,-165,+175,+134
90029,10.637,-3.638,1.357,-0.483803,-0.473575,1.247650,100044.19,-168,+170,+132
90039,10.676,-3.526,1.793,-0.635986,-0.491667,1.288091,100042.56,-170,+166,+132
90049,11.010,-3.298,2.123,-0.737619,-0.534768,1.326403,100042.56,-175,+160,+132
90058,11.593,-3.393,2.232,-0.765821,-0.580530,1.391320,100051.67,-175,+160,+132
90068,12.048,-4.021,2.571,-0.805729,-0.595961,1.472733,100045.84,-177,+154,+131
90079,13.017,-3.763,1.009,-0.969087,-0.660346,1.530733,100046.00,-181,+148,+131
90089,13.931,-2.850,0.316,-1.089876,-0.770493,1.589265,100045.00,-184,+141,+131
90098,14.543,-2.281,0.204,-1.218114,-0.885428,1.701008,100045.00,-184,+141,+131
90108,14.915,-1.819,0.488,-1.212793,-0.983337,1.830311,100048.86,-188,+133,+130
90119,14.857,-1.842,0.572,-1.126592,-1.083373,1.948971,100046.50,-191,+125,+128
90129,14.929,-2.178,0.693,-1.044647,-1.185006,2.048476,100046.97,-196,+116,+126
90138,15.250,-2.476,0.796,-1.063271,-1.275465,2.129356,100043.72,-196,+116,+126
90148,15.701,-2.031,1.474,-1.189381,-1.347300,2.195338,100043.72,-200,+107,+123
90159,16.435,-1.679,2.479,-1.346353,-1.422859,2.259191,100047.20,-204,+99,+120
90169,17.660,-1.038,3.521,-1.460225,-1.502144,2.318255,100043.95,-207,+89,+117
90179,18.993,0.410,4.874,-1.580481,-1.535667,2.324108,100046.82,-207,+89,+117
90188,19.067,2.180,5.890,-1.692224,-1.528749,2.278879,100044.57,-211,+77,+112
90194,18.409,3.245,5.870,-1.728940,-1.538327,2.274622,100044.57,-214,+68,+109
90204,18.092,3.328,4.975,-1.678922,-1.575575,2.316659,100044.57,-214,+68,+109
90214,18.215,0.229,3.445,-1.322408,-1.669226,2.524182,100046.45,-217,+58,+105
90224,18.328,-1.979,3.059,-0.902573,-1.781501,2.705631,100046.92,-219,+47,+99
90233,17.187,-2.533,3.848,-0.767418,-1.869299,2.590695,100044.34,-220,+37,+93
90244,14.877,-2.557,4.863,-0.570005,-1.874621,2.476824,100043.84,-220,+37,+93
90254,13.744,-2.002,6.197,-0.175712,-1.762345,2.443301,100045.89,-222,+28,+88
90264,12.941,-0.267,6.667,0.272325,-1.623997,2.316127,100043.38,-223,+20,+83
90273,11.230,2.529,6.013,0.672471,-1.482456,1.891503,100043.38,-224,+14,+79
90284,7.339,1.539,3.306,1.085921,-1.386676,1.317889,100041.80,-224,+14,+79
90294,2.798,-7.133,3.378,1.468508,-1.041337,1.293412,100043.16,-224,+11,+76
90304,5.472,-5.870,2.112,0.843811,-0.953538,1.109302,100043.16,-224,+8,+73
90314,7.564,-0.630,1.970,-0.299693,-0.786279,0.305461,100044.13,-225,+8,+71
90323,5.741,1.701,2.261,-0.450280,-0.603410,-0.262477,100044.13,-225,+8,+71
90334,4.010,2.871,1.659,-0.255528,-0.496988,-0.535449,100042.94,-226,+9,+69
90344,3.710,2.184,0.931,0.019573,-0.378860,-0.703596,100041.84,-225,+12,+68
90354,3.992,1.659,0.708,0.430362,-0.259135,-0.947302,100041.84,-226,+17,+68
90364,3.912,1.352,1.137,0.864563,-0.127704,-1.235706,100042.24,-226,+17,+68
90374,3.923,1.248,1.459,1.223205,0.015966,-1.543265,100040.93,-227,+22,+67
90384,4.375,0.738,1.414,1.590893,0.131965,-1.835394,100039.46,-226,+30,+68
90394,4.821,0.006,1.460,1.935700,0.236791,-2.117944,100039.46,-226,+39,+69
90403,5.513,-0.410,1.347,2.214525,0.319800,-2.404219,100039.46,-226,+39,+69
90414,6.171,-0.394,1.308,2.350746,0.377800,-2.695283,100041.64,-226,+51,+70
90424,6.871,-0.689,1.238,2.354470,0.394296,-2.961870,100039.66,-225,+64,+71
90429,7.348,-1.156,1.125,2.326801,0.396424,-3.151833,100038.92,-225,+64,+71
90439,7.642,-1.850,1.128,2.256030,0.395892,-3.316255,100038.23,-223,+78,+71
90448,7.740,-3.107,1.368,2.129388,0.412919,-3.518457,100038.23,-221,+93,+71
90459,7.719,-3.807,1.418,1.938361,0.446974,-3.723319,100040.80,-217,+109,+70
90469,7.818,-3.471,1.656,1.676030,0.522002,-3.918603,100038.91,-217,+109,+70
90479,8.295,-3.364,2.124,1.391884,0.620442,-4.060144,100037.29,-213,+125,+71
90488,9.018,-3.765,2.438,1.150838,0.719947,-4.187851,100038.13,-207,+140,+72
90499,9.823,-4.063,2.369,0.979499,0.826901,-4.327264,100038.13,-200,+156,+73
90509,10.594,-4.108,2.091,0.960875,0.939708,-4.452310,100041.67,-200,+156,+73
90519,11.214,-4.306,2.020,1.103480,1.044001,-4.509245,100040.05,-191,+173,+73
90529,11.740,-4.578,2.203,1.324838,1.135524,-4.521484,100040.05,-182,+189,+74
90539,12.437,-4.592,2.294,1.552581,1.197781,-4.533722,100039.47,-171,+205,+74
90549,12.922,-4.665,2.701,1.836550,1.265537,-4.525386,100039.47,-171,+205,+74
90559,13.264,-5.093,2.722,2.089480,1.310056,-4.479979,100042.41,-158,+221,+72
90569,13.243,-5.820,2.710,2.336379,1.357414,-4.417722,100040.73,-147,+235,+70
90578,13.012,-6.662,2.722,2.490690,1.391469,-4.345356,100038.16,-134,+249,+67
90589,12.956,-7.342,2.700,2.496544,1.409029,-4.287355,100037.99,-134,+249,+67
90599,13.275,-7.539,2.574,2.323076,1.412221,-4.261282,100037.99,-120,+263,+64
90609,13.862,-7.478,2.588,1.967095,1.401579,-4.261282,100043.95,-105,+274,+61
90618,14.306,-7.409,2.475,1.529700,1.382423,-4.232548,100041.48,-91,+283,+60
90629,14.248,-7.567,2.276,1.114123,1.377102,-4.170824,100041.64,-91,+283,+60
90639,13.999,-7.539,1.903,0.743774,1.387212,-4.061741,100040.64,-76,+293,+59
90649,13.629,-7.393,1.594,0.517095,1.406368,-3.856347,100040.64,-62,+300,+59
90659,13.208,-7.303,1.054,0.476123,1.421267,-3.601466,100044.88,-48,+306,+59
90664,12.864,-7.591,0.562,0.557004,1.429781,-3.384897,100042.98,-48,+306,+59
90674,12.625,-8.307,0.059,0.658637,1.421267,-3.133741,100042.98,-35,+311,+58
90684,12.127,-9.632,-0.477,0.728875,1.376570,-2.757008,100043.09,-25,+316,+57
90694,11.599,-11.020,-0.628,0.653315,1.301543,-2.361650,100042.05,-25,+316,+57
90704,11.352,-12.390,-0.682,0.390453,1.171708,-1.908293,100042.05,-16,+318,+56
90714,10.992,-13.233,-0.830,0.017976,0.995580,-1.421944,100045.11,-10,+320,+57
90724,10.288,-13.501,-1.031,-0.307675,0.784332,-0.936660,100043.89,-6,+321,+59
90734,9.723,-13.511,-1.483,-0.475821,0.533708,-0.355064,100041.22,-6,+321,+59
90744,9.355,-13.096,-1.684,-0.494977,0.264993,0.306880,100041.22,-7,+320,+61
90754,9.099,-12.044,-1.690,-0.451876,-0.020218,0.919339,100041.22,-9,+319,+63
90764,9.287,-10.351,-1.166,-0.203913,-0.281484,1.434421,100045.12,-15,+318,+63
90774,10.477,-9.334,1.845,0.294141,-0.476236,1.917577,100042.49,-15,+318,+63
90784,13.230,-3.161,13.581,0.869884,-0.233239,2.390622,100040.18,-24,+316,+61
90793,26.304,12.999,4.351,-0.353436,-0.636401,2.063375,100040.18,-32,+314,+61
90804,31.449,12.175,-10.306,-1.043050,-1.195116,1.749430,100040.18,-39,+310,+61
90814,22.469,-4.267,-0.522,1.598875,-0.813594,3.292548,100046.84,-39,+310,+61
90824,14.956,-9.668,1.613,2.617333,-0.868933,3.411741,100042.59,-52,+306,+52
90834,6.097,-8.624,-0.955,1.848434,-0.899263,2.619429,100042.55,-63,+303,+45
90844,0.907,-2.480,0.177,1.123700,-0.724731,2.145319,100042.55,-69,+300,+40
90854,1.907,-1.966,4.177,1.169462,-0.531575,2.569943,100042.89,-69,+300,+40
90864,7.200,-5.137,3.859,1.454141,-0.251686,2.733301,100042.89,-79,+295,+36
90874,14.848,-6.291,-0.749,1.029517,-0.427814,2.669980,100041.52,-88,+290,+32
90884,17.005,-8.588,-1.150,0.276582,-0.636933,2.627943,100040.73,-97,+285,+32
90894,13.899,-8.889,-0.167,-0.518390,-0.661942,2.192677,100042.05,-97,+285,+32
90904,10.816,-5.823,-2.164,-1.004206,-0.723667,1.586604,100042.05,-103,+281,+33
90914,7.706,-1.606,-1.767,-0.918005,-0.491135,1.273724,100043.62,-108,+277,+34
90925,7.144,0.785,0.055,-0.588097,-0.267649,1.345559,100043.20,-112,+275,+35
90934,8.192,-0.053,0.842,-0.210831,-0.203264,1.464219,100042.04,-112,+275,+35
90944,9.819,-1.684,0.559,0.069591,-0.144200,1.432292,100040.94,-117,+271,+35
90954,10.753,-3.297,0.839,0.094068,-0.056934,1.301394,100042.19,-121,+268,+35
90964,10.446,-3.270,1.186,-0.120904,-0.018622,1.130054,100043.77,-124,+265,+35
90974,9.980,-2.727,1.513,-0.367803,0.009580,0.969889,100044.14,-124,+265,+35
90984,9.631,-2.527,1.455,-0.525308,0.005323,0.852293,100044.14,-127,+263,+37
90994,9.434,-2.141,1.249,-0.616298,-0.014897,0.747467,100043.08,-129,+261,+38
91004,9.553,-1.305,1.085,-0.603528,0.004259,0.664458,100043.08,-131,+258,+40
91014,9.568,-0.696,1.127,-0.451876,0.045764,0.625614,100044.02,-131,+258,+40
91024,9.468,-1.041,1.161,-0.257656,0.077690,0.627210,100043.20,-132,+257,+42
91034,9.577,-1.674,1.266,-0.177308,0.102167,0.624550,100041.88,-134,+255,+42
91044,9.756,-2.249,1.509,-0.260849,0.118663,0.613908,100041.24,-137,+253,+42
91055,9.965,-2.001,1.302,-0.485399,0.121323,0.595284,100041.24,-138,+253,+42
91064,10.167,-1.371,0.942,-0.670041,0.108553,0.572935,100043.84,-138,+252,+45
91074,10.176,-0.881,1.332,-0.674298,0.093121,0.590495,100043.60,-140,+250,+46
91084,10.004,-0.828,1.701,-0.529564,0.065452,0.633596,100045.27,-141,+248,+48
91095,9.548,-1.184,1.667,-0.347583,0.034589,0.652220,100045.27,-143,+246,+49
91104,9.157,-1.915,1.550,-0.220941,0.004791,0.660733,100045.27,-143,+246,+49
91114,9.037,-2.331,1.393,-0.190611,-0.022346,0.667651,100045.80,-145,+244,+49
91124,9.129,-2.396,1.402,-0.218280,-0.051612,0.666054,100043.75,-148,+243,+50
91134,9.130,-2.271,1.498,-0.215974,-0.085313,0.666232,100043.63,-149,+241,+51
91144,9.141,-2.064,1.503,-0.181033,-0.111741,0.670311,100043.63,-149,+241,+51
91154,9.356,-2.065,1.616,-0.108134,-0.147392,0.685742,100043.63,-151,+239,+50
91164,9.590,-2.208,1.689,-0.030978,-0.194750,0.703834,100042.38,-153,+236,+50
91174,9.706,-2.322,1.877,-0.015014,-0.227209,0.718201,100041.96,-155,+235,+49
91185,9.933,-2.165,1.535,-0.074079,-0.261796,0.737357,100043.09,-155,+235,+49
91194,10.053,-1.833,1.556,-0.156023,-0.293190,0.779926,100043.09,-158,+232,+49
91204,9.831,-1.775,1.759,-0.211363,-0.340016,0.858678,100043.45,-159,+229,+49
91214,9.639,-1.555,2.063,-0.227858,-0.398016,0.943284,100043.45,-162,+227,+48
91225,9.613,-1.302,2.340,-0.195932,-0.466658,1.033742,100042.56,-162,+227,+48
91234,9.736,-1.389,2.621,-0.132611,-0.542218,1.140164,100044.61,-166,+223,+48
91244,10.009,-1.827,2.698,-0.093767,-0.611924,1.244458,100041.36,-168,+220,+46
91254,10.419,-2.149,2.652,-0.095363,-0.675245,1.325871,100041.36,-171,+216,+45
91265,10.684,-2.444,2.531,-0.131546,-0.714621,1.393981,100042.96,-171,+216,+45
91275,10.850,-3.009,2.770,-0.181033,-0.726328,1.470072,100044.27,-175,+211,+44
91284,11.054,-3.813,2.571,-0.288519,-0.738566,1.530733,100042.74,-179,+206,+42
91294,11.479,-4.152,1.991,-0.458262,-0.758254,1.558403,100042.96,-183,+202,+40
91304,11.819,-3.923,1.497,-0.690262,-0.781667,1.563724,100045.79,-183,+202,+40
91315,12.244,-3.597,0.785,-0.869583,-0.830089,1.586604,100043.59,-186,+196,+40
91324,12.651,-2.857,-0.236,-0.987711,-0.884364,1.626513,100042.01,-189,+190,+39
91334,13.269,-2.405,-1.065,-1.005803,-0.959392,1.706329,100042.01,-194,+184,+39
91344,14.366,-1.831,-1.132,-0.994096,-1.080181,1.818604,100042.59,-194,+184,+39
91355,15.178,-1.658,-0.396,-0.953124,-1.241942,1.940989,100042.59,-198,+179,+37
91364,15.616,-1.971,0.381,-0.826482,-1.391465,2.067631,100042.90,-202,+171,+34
91370,15.852,-2.183,0.948,-0.736023,-1.470217,2.141595,100042.12,-202,+171,+34
91379,16.156,-2.471,1.385,-0.734959,-1.526621,2.198530,100040.18,-205,+164,+31
91389,16.733,-2.249,1.995,-0.861601,-1.604841,2.273026,100040.38,-209,+156,+27
91399,17.735,-1.618,2.779,-1.082427,-1.709666,2.360292,100040.38,-213,+147,+24
91409,19.545,-0.181,3.743,-1.341032,-1.812364,2.453943,100043.27,-213,+147,+24
91419,21.205,1.486,4.789,-1.594848,-1.893776,2.513007,100044.21,-216,+139,+20
91429,21.679,3.210,5.140,-1.797582,-1.966676,2.490659,100043.01,-219,+129,+16
91440,20.747,3.855,4.448,-1.792793,-2.051281,2.449154,100041.74,-221,+121,+11
91449,20.118,0.640,3.956,-1.471931,-2.233795,2.559301,100041.74,-221,+121,+11
91459,18.986,-2.431,4.392,-1.315491,-2.418437,2.602934,100043.66,-224,+113,+5
91469,17.826,-1.475,5.267,-0.667381,-2.490803,2.667851,100041.93,-224,+103,-1
91480,16.893,-0.720,5.604,0.274985,-2.508363,2.691264,100042.77,-226,+93,-10
91489,14.757,0.407,6.518,1.073150,-2.428015,2.515668,100041.68,-226,+93,-10
91499,11.866,2.080,6.593,1.845241,-2.270510,2.116053,100041.68,-225,+84,-18
91509,9.318,2.542,3.472,2.482177,-2.224749,1.571173,100042.83,-224,+76,-27
91520,4.281,-5.366,1.300,3.025461,-2.113006,1.331192,100042.41,-223,+69,-34
91530,4.247,-12.380,3.319,2.815809,-1.807043,1.657907,100042.94,-223,+69,-34
91539,6.432,-4.986,2.510,1.819700,-1.937942,1.028953,100040.78,-222,+61,-40
91549,5.582,-0.753,2.924,1.286526,-1.633575,-0.024092,100040.78,-221,+60,-45
91559,4.250,0.399,3.265,1.375388,-1.421263,-0.406147,100041.54,-220,+61,-49
91570,2.752,0.184,2.539,1.352508,-1.337722,-0.504587,100042.38,-220,+61,-49
91579,2.849,-0.719,1.824,1.347719,-1.177557,-0.763192,100041.27,-217,+62,-54
91589,3.341,-1.354,1.655,1.312600,-1.037612,-1.129816,100040.76,-216,+63,-57
91599,3.439,-1.456,1.675,1.150306,-0.927465,-1.494843,100040.76,-214,+68,-61
91604,3.481,-1.120,1.529,1.001847,-0.846584,-1.770476,100042.01,-214,+68,-61
91614,3.709,-0.498,1.194,0.909260,-0.769428,-2.033339,100042.01,-211,+75,-64
91624,4.128,0.074,0.802,0.936398,-0.669392,-2.323338,100041.37,-209,+83,-67
91634,4.500,-0.032,0.684,1.110930,-0.555520,-2.551613,100042.48,-209,+83,-67
91644,4.831,-0.494,0.820,1.283333,-0.462933,-2.761265,100039.54,-207,+91,-69
91655,5.054,-0.838,0.993,1.407847,-0.391098,-2.971448,100041.91,-205,+99,-71
91665,5.351,-0.893,1.361,1.507352,-0.319264,-3.183228,100037.91,-202,+108,-74
91674,5.571,-1.127,2.041,1.680287,-0.259135,-3.378512,100040.29,-202,+108,-74
91684,6.147,-1.244,1.795,1.931975,-0.211245,-3.544530,100040.29,-198,+118,-76
91695,6.718,-1.851,2.173,2.223571,-0.148989,-3.687668,100036.24,-194,+127,-79
91704,6.974,-2.794,2.955,2.620525,-0.067576,-3.799411,100036.24,-188,+135,-83
91714,7.615,-3.228,3.218,2.866360,0.010644,-3.935099,100036.74,-188,+135,-83
91724,8.465,-3.956,3.402,2.909993,0.088332,-4.051631,100033.63,-183,+144,-85
91735,9.374,-5.202,3.529,2.692892,0.148993,-4.135172,100037.79,-177,+154,-90
91745,9.975,-6.446,3.756,2.164507,0.223488,-4.246383,100033.48,-171,+164,-91
91754,10.081,-7.179,4.097,1.510544,0.328314,-4.398034,100033.48,-171,+164,-91
91764,9.883,-7.257,4.376,0.945444,0.478901,-4.540108,100037.55,-163,+175,-93
91774,9.756,-7.009,4.532,0.563389,0.659286,-4.599704,100038.13,-155,+187,-93
91785,10.032,-6.477,4.395,0.339371,0.859360,-4.617795,100037.30,-147,+200,-91
91795,10.605,-5.848,4.071,0.236141,1.079121,-4.638016,100037.30,-147,+200,-91
91804,11.067,-5.456,3.552,0.226563,1.291965,-4.633227,100037.30,-138,+213,-90
91814,11.247,-5.391,3.049,0.294674,1.487781,-4.571502,100039.70,-130,+225,-88
91825,11.271,-5.288,2.795,0.403756,1.664974,-4.492750,100039.32,-120,+235,-85
91835,11.465,-5.122,2.709,0.494747,1.813432,-4.433154,100039.23,-120,+235,-85
91840,11.626,-5.082,2.688,0.545297,1.905487,-4.398034,100039.01,-112,+244,-82
91849,11.805,-4.937,2.640,0.576692,1.976258,-4.361319,100039.01,-102,+253,-79
91859,12.207,-4.557,2.488,0.642141,2.055542,-4.290548,100039.03,-102,+253,-79
91870,12.929,-4.177,2.327,0.762930,2.131634,-4.198493,100040.92,-93,+261,-78
91879,13.887,-4.358,1.885,0.925224,2.201872,-4.079833,100040.41,-84,+267,-77
91889,14.764,-6.042,1.264,1.123700,2.247634,-3.921796,100039.03,-75,+274,-76
91899,15.352,-7.393,0.165,0.947040,2.136423,-3.849961,100039.03,-75,+274,-76
91910,15.354,-7.960,-0.239,0.587866,1.998074,-3.729704,100039.58,-66,+280,-75
91920,15.149,-8.679,-0.525,0.267536,1.821414,-3.492916,100039.63,-57,+284,-74
91929,14.678,-9.690,-0.649,0.038729,1.642625,-3.161411,100041.63,-49,+290,-71
91939,13.152,-11.998,0.386,0.009995,1.550570,-2.769246,100042.78,-49,+290,-71
91950,11.441,-14.060,0.610,-0.031510,1.482992,-2.295136,100042.78,-43,+293,-69
91960,11.017,-14.428,-0.080,-0.262978,1.403176,-1.682146,100043.83,-39,+296,-67
91969,10.975,-14.059,-0.902,-0.624812,1.191396,-1.060110,100041.25,-37,+298,-63
91979,9.905,-13.749,-1.625,-0.878096,0.831158,-0.480110,100044.14,-37,+298,-63
91990,9.113,-13.073,-2.123,-0.878628,0.426754,0.195137,100041.83,-37,+300,-61
92000,9.231,-12.107,-1.309,-0.579051,0.130901,0.874641,100041.83,-40,+300,-58
92010,10.396,-9.210,-2.558,-0.097491,-0.162291,1.418458,100043.89,-45,+298,-59
92019,10.552,-4.782,6.658,0.955022,-0.244768,1.922366,100041.64,-45,+298,-59
92029,18.991,17.610,11.695,1.090710,-0.307025,1.853191,100037.75,-52,+292,-63
92040,35.061,25.979,-12.987,-0.101748,-0.979612,0.887944,100041.89,-54,+291,-64
92049,29.653,-8.325,-3.805,2.774837,-0.230933,3.065337,100041.89,-64,+283,-74
92059,20.873,-17.407,-0.616,3.923130,-0.426218,3.734731,100041.78,-64,+283,-74
92069,12.791,-13.358,-6.507,1.096563,-0.662474,2.730640,100042.47,-74,+273,-81
92076,6.306,-6.392,-3.520,-0.889271,-0.461337,2.023466,100043.36,-79,+269,-81
92085,1.205,-0.662,1.794,-1.767784,-0.434199,2.130952,100043.36,-79,+269,-81
92095,1.053,1.905,6.859,-1.700738,-0.310750,2.412971,100041.16,-86,+268,-76
92104,6.054,-0.304,8.259,-0.852555,-0.055869,2.386897,100041.16,-93,+264,-73
92114,13.198,-5.530,5.567,-0.135271,-0.318732,2.672640,100041.02,-101,+259,-73
92125,15.893,-7.620,2.440,0.067995,-0.772089,2.601337,100042.48,-101,+259,-73
92135,12.853,-5.652,0.991,-0.185822,-0.721007,1.878733,100040.08,-105,+254,-74
92144,10.731,-1.725,-0.746,-0.417821,-0.584254,1.333320,100040.08,-109,+251,-75
92154,9.355,0.838,-0.631,-0.277877,-0.493796,1.416861,100040.08,-111,+248,-75
92165,7.701,0.148,-0.056,0.016912,-0.415576,1.631834,100041.84,-111,+248,-75
92175,8.540,-1.254,-0.033,0.195169,-0.317135,1.621724,100043.52,-116,+245,-76
92184,10.368,-2.921,0.724,0.150472,-0.228805,1.519558,100039.38,-120,+241,-78
92194,10.698,-3.644,1.265,-0.046409,-0.190493,1.341834,100040.95,-124,+238,-77
92205,9.850,-2.984,1.529,-0.272023,-0.144200,1.105577,100040.95,-124,+238,-77
92215,9.008,-1.998,1.783,-0.406647,-0.103227,0.935834,100042.98,-126,+236,-76
92225,8.791,-1.505,1.839,-0.423143,-0.081411,0.851761,100041.76,-128,+234,-76
92234,9.228,-1.357,1.570,-0.385895,-0.073961,0.802275,100040.90,-130,+233,-75
92244,9.773,-1.054,1.552,-0.333748,-0.060658,0.746403,100040.90,-130,+233,-75
92255,9.850,-0.842,1.924,-0.238500,-0.043099,0.716073,100044.01,-131,+232,-74
92265,9.402,-0.956,2.279,-0.108134,-0.045759,0.709687,100041.27,-134,+229,-73
92274,8.984,-0.934,2.669,-0.060244,-0.052145,0.697981,100041.27,-134,+228,-73
92284,8.739,-0.483,3.208,-0.101216,-0.066512,0.696385,100043.23,-134,+228,-73
92295,8.653,0.306,3.725,-0.099620,-0.104291,0.726183,100040.76,-137,+227,-74
92305,8.688,0.330,3.633,0.007866,-0.161227,0.791632,100040.76,-139,+225,-74
92310,9.012,0.097,3.112,0.161114,-0.216566,0.844311,100039.61,-139,+225,-74
92319,9.434,-0.290,2.566,0.307444,-0.282548,0.898054,100043.50,-139,+222,-75
92329,9.783,-1.213,1.690,0.423444,-0.329906,0.956586,100040.98,-143,+219,-76
92340,10.227,-2.365,0.705,0.429829,-0.351722,1.007137,100040.41,-143,+215,-78
92350,10.562,-2.554,0.043,0.229224,-0.356511,1.035339,100040.41,-143,+215,-78
92359,10.241,-2.313,0.320,-0.067693,-0.300640,1.046513,100042.27,-145,+212,-79
92369,9.887,-1.630,0.800,-0.313528,-0.261264,1.076843,100043.27,-148,+209,-80
92380,9.935,-1.002,1.418,-0.436977,-0.255943,1.134843,100042.73,-151,+207,-78
92390,10.051,-0.837,1.936,-0.407179,-0.263924,1.205082,100040.64,-151,+207,-78
92399,9.848,-1.194,2.214,-0.287455,-0.284144,1.262550,100040.64,-153,+205,-78
92409,9.556,-2.079,2.090,-0.188482,-0.310750,1.281705,100044.15,-155,+201,-80
92420,9.530,-2.755,1.838,-0.173583,-0.345337,1.280641,100041.73,-157,+198,-78
92430,9.403,-3.091,1.616,-0.213491,-0.382053,1.260953,100040.21,-157,+198,-78
92440,9.190,-3.113,1.614,-0.233711,-0.410787,1.229559,100038.90,-159,+195,-79
92449,9.092,-3.030,1.660,-0.202849,-0.442181,1.197632,100038.90,-160,+192,-80
92460,9.056,-3.102,1.440,-0.133675,-0.466126,1.178476,100041.76,-162,+188,-81
92470,9.209,-3.344,1.387,-0.081528,-0.466126,1.164109,100041.71,-162,+188,-81
92480,9.329,-3.625,1.284,-0.084189,-0.463998,1.148678,100041.60,-164,+186,-82
92489,9.536,-3.678,1.143,-0.136868,-0.453355,1.138568,100040.93,-166,+182,-83
92499,9.990,-3.777,0.829,-0.197528,-0.443777,1.144421,100040.93,-167,+179,-83
92510,10.463,-3.903,0.592,-0.280005,-0.427814,1.158256,100044.09,-167,+179,-83
92520,10.658,-4.065,0.688,-0.430592,-0.414511,1.175283,100045.56,-168,+176,-84
92530,10.526,-3.768,1.295,-0.626408,-0.406530,1.196036,100042.42,-170,+173,-84
92539,10.288,-3.513,2.200,-0.763693,-0.410787,1.232219,100040.53,-171,+171,-84
92550,10.405,-3.252,2.355,-0.783913,-0.446438,1.291816,100040.53,-171,+171,-84
92560,10.813,-3.430,2.169,-0.745069,-0.484218,1.357265,100044.27,-173,+168,-85
92570,11.406,-3.856,1.426,-0.739748,-0.542218,1.416329,100042.13,-175,+165,-84
92579,11.982,-4.075,0.663,-0.795619,-0.610860,1.467412,100041.02,-176,+160,-85
92590,12.695,-3.582,0.108,-0.905766,-0.694933,1.519026,100040.75,-176,+160,-85
92600,13.406,-2.798,-0.054,-0.965894,-0.796566,1.595118,100040.75,-177,+158,-85
92610,13.831,-2.341,0.226,-0.925986,-0.890750,1.703668,100044.47,-179,+154,-86
92619,13.978,-2.464,0.503,-0.835528,-0.972162,1.819136,100041.64,-180,+150,-88
92630,14.043,-3.003,0.865,-0.776463,-1.050382,1.939925,100041.80,-180,+150,-88
92640,14.226,-3.492,1.200,-0.825418,-1.113703,2.047411,100040.69,-181,+145,-89
92650,14.675,-3.644,1.695,-1.011124,-1.147226,2.129888,100040.69,-181,+140,-92
92660,15.380,-3.253,2.292,-1.281436,-1.176492,2.207576,100042.53,-182,+135,-93
92669,16.139,-2.602,2.701,-1.545894,-1.215869,2.294842,100045.09,-182,+135,-93
92680,17.396,-1.415,3.286,-1.807160,-1.254713,2.365613,100042.89,-184,+131,-94
92690,19.628,0.763,3.945,-2.057784,-1.315373,2.407650,100042.69,-184,+126,-96
92700,21.612,3.027,4.513,-2.164206,-1.396786,2.407117,100042.69,-183,+123,-98
92709,21.653,3.927,3.786,-1.955619,-1.492566,2.402328,100041.66,-183,+119,-100
92720,20.507,1.798,2.517,-1.372958,-1.606437,2.512475,100042.45,-183,+119,-100
92730,19.571,-0.650,2.212,-0.754115,-1.784162,2.708824,100041.51,-183,+112,-104
92740,18.199,-1.494,3.731,-0.512005,-1.949116,2.692328,100040.51,-181,+104,-109
92749,17.097,-0.753,4.857,-0.141124,-2.047556,2.658273,100040.51,-179,+97,-114
92760,16.034,-0.901,5.795,0.403756,-2.028932,2.663594,100039.87,-179,+97,-114
92770,14.135,-0.711,6.606,0.858710,-1.910804,2.534292,100041.93,-177,+87,-119
92780,11.738,2.180,6.491,1.289187,-1.743367,2.015307,100041.93,-174,+78,-124
92790,8.951,3.695,3.315,1.626544,-1.718180,1.330660,100037.82,-170,+71,-129
92800,2.707,-5.355,1.118,1.950067,-1.437758,1.011926,100037.82,-170,+71,-129
92810,2.654,-9.734,1.547,1.555242,-1.374969,1.246586,100043.61,-168,+63,-132
92820,4.770,-2.845,1.302,0.376618,-1.228107,0.437247,100041.98,-165,+60,-135
92830,4.798,-0.131,2.620,-0.201785,-0.933318,-0.365706,100041.88,-163,+62,-137
92839,3.298,2.516,2.506,-0.239033,-0.819447,-0.823853,100037.27,-163,+62,-137
92850,2.604,2.685,1.256,-0.099620,-0.747080,-1.027119,100037.27,-161,+66,-139
92860,3.103,1.479,0.809,0.282967,-0.597025,-1.329889,100039.42,-158,+68,-140
92870,3.515,0.501,0.667,0.641609,-0.491135,-1.633192,100039.00,-157,+72,-141
92879,3.914,0.109,0.585,0.826783,-0.395887,-1.929577,100039.20,-157,+72,-141
92890,4.582,0.031,0.217,1.004508,-0.301172,-2.253100,100038.38,-154,+75,-143
92900,5.571,0.233,0.195,1.177976,-0.220823,-2.561191,100038.38,-153,+80,-144
92910,6.384,0.083,0.234,1.382306,-0.186236,-2.808622,100038.66,-151,+84,-146
92920,6.901,-0.285,0.407,1.593021,-0.145796,-3.036897,100035.73,-151,+84,-146
92930,7.308,-1.025,0.756,1.732434,-0.100567,-3.226329,100036.20,-149,+89,-146
92940,7.507,-1.819,1.490,1.813315,-0.034585,-3.395540,100033.15,-147,+93,-148
92950,7.501,-2.257,2.104,1.848966,0.048424,-3.578585,100033.15,-144,+99,-148
92960,7.497,-2.707,2.547,1.870783,0.158039,-3.753117,100037.36,-144,+99,-148
92969,7.819,-3.375,2.965,1.925058,0.279360,-3.901044,100036.31,-142,+104,-149
92980,8.503,-4.031,3.019,1.968691,0.382589,-4.022365,100037.78,-139,+109,-150
92990,9.277,-4.405,3.323,1.906966,0.479433,-4.140493,100035.05,-136,+115,-151
93000,10.081,-4.780,3.580,1.713810,0.550736,-4.274053,100035.05,-136,+115,-151
93010,10.811,-5.117,3.653,1.423810,0.614057,-4.407612,100035.81,-133,+122,-150
93016,11.255,-5.307,3.620,1.197664,0.664607,-4.499135,100033.39,-130,+130,-149
93025,11.421,-5.354,3.514,1.005572,0.738571,-4.591190,100033.39,-130,+130,-149
93035,11.340,-5.179,3.416,0.832636,0.859892,-4.686438,100033.66,-126,+139,-149
93045,11.075,-5.148,3.435,0.818270,1.002497,-4.714640,100034.92,-122,+149,-148
93056,11.006,-5.209,3.469,0.932673,1.149891,-4.698144,100034.92,-117,+158,-147
93065,11.303,-4.990,3.573,1.093370,1.295689,-4.669410,100036.98,-117,+158,-147
93075,11.843,-4.814,3.509,1.260985,1.438295,-4.643337,100035.27,-113,+166,-145
93085,12.461,-5.031,3.252,1.425939,1.569194,-4.598107,100035.27,-109,+174,-144
93094,12.982,-5.580,2.790,1.511076,1.687854,-4.538511,100035.27,-105,+179,-143
93105,13.495,-6.118,2.513,1.469572,1.789487,-4.486897,100035.27,-105,+179,-143
93115,13.701,-6.863,2.292,1.336544,1.861322,-4.454970,100041.12,-101,+186,-142
93125,13.646,-7.068,1.857,0.995994,1.875157,-4.482108,100036.29,-96,+193,-140
93135,13.495,-6.868,1.495,0.508582,1.860790,-4.476254,100036.82,-91,+201,-137
93145,13.769,-6.877,1.142,0.056820,1.828863,-4.353869,100038.87,-91,+201,-137
93155,14.360,-7.743,0.969,-0.266702,1.786295,-4.138365,100038.87,-86,+210,-134
93165,14.387,-9.102,0.706,-0.474757,1.755964,-3.926585,100039.62,-81,+219,-131
93175,13.488,-10.736,0.608,-0.670574,1.790552,-3.754181,100038.59,-75,+228,-126
93186,12.571,-11.478,0.061,-0.868518,1.818753,-3.459393,100039.40,-75,+228,-126
93195,12.326,-11.155,-0.767,-0.998885,1.836313,-2.996457,100039.40,-72,+236,-121
93205,12.360,-11.056,-1.044,-1.060610,1.765542,-2.468072,100040.55,-68,+243,-116
93215,12.338,-11.464,-1.163,-1.031344,1.550038,-1.938623,100040.55,-66,+249,-112
93225,11.699,-12.097,-1.459,-0.984518,1.243543,-1.410238,100039.29,-66,+249,-112
93235,11.041,-12.414,-1.569,-1.003142,0.913103,-0.807890,100038.51,-64,+252,-108
93245,10.477,-11.434,-2.076,-1.005803,0.573084,-0.197560,100042.45,-66,+255,-105
93250,10.295,-10.170,-2.500,-0.813711,0.345341,0.269633,100042.45,-66,+255,-105
93260,10.235,-8.961,-2.938,-0.417289,0.136754,0.729908,100042.99,-67,+256,-103
93271,9.826,-7.949,-3.264,0.348417,-0.122915,1.274788,100044.62,-71,+254,-103
93280,10.096,-6.103,-2.971,1.240233,-0.371943,1.679724,100041.95,-75,+248,-109
93290,10.831,-5.598,-0.527,2.145351,-0.545410,2.020274,100040.52,-75,+248,-109
93300,12.089,1.494,10.559,2.690232,-0.423557,2.245356,100040.52,-79,+240,-115
93310,21.515,22.327,7.935,1.708489,-0.665135,1.522219,100040.09,-83,+232,-120
93320,28.061,13.553,-10.282,0.782618,-0.680566,1.036935,100043.45,-85,+229,-122
93330,25.206,-12.285,-4.669,3.154763,-0.319264,3.165906,100043.65,-85,+229,-122
93340,17.111,-15.340,-2.463,3.309608,-0.606603,3.144622,100041.76,-92,+213,-131
93350,8.649,-11.698,-3.161,0.945444,-0.590108,2.353374,100041.76,-97,+205,-134
93360,5.174,-5.259,0.486,-0.508280,-0.389502,2.056989,100042.16,-100,+202,-134
93370,5.991,-5.265,6.021,-0.416225,-0.061723,2.511943,100039.38,-100,+202,-134
93380,11.222,-2.720,6.415,-0.145381,-0.080346,2.584310,100038.27,-106,+198,-132
93390,13.642,-2.128,3.236,-0.248078,-0.476236,2.404457,100039.32,-110,+193,-134
93400,10.828,-3.052,3.145,-0.191675,-0.590640,2.190549,100039.32,-113,+188,-134
93410,9.319,-3.593,3.005,-0.380574,-0.684291,1.940457,100039.35,-113,+188,-134
93420,9.409,-3.538,0.057,-0.518390,-0.858823,1.665889,100040.29,-115,+185,-134
93430,9.491,-1.394,-1.016,-0.365143,-0.829557,1.444531,100042.55,-115,+183,-136
93441,9.334,0.179,-0.385,0.032343,-0.660346,1.412604,100039.62,-117,+178,-137
93450,9.750,0.603,0.084,0.470802,-0.475704,1.453045,100039.62,-117,+178,-137
93460,9.633,0.044,0.371,0.758673,-0.300108,1.441338,100043.09,-118,+174,-139
93470,9.669,-0.531,0.841,0.738453,-0.189961,1.434421,100040.73,-120,+169,-140
93480,9.385,-1.427,2.048,0.674600,-0.178787,1.411540,100041.77,-122,+164,-141
93486,9.158,-2.322,2.375,0.597444,-0.228273,1.324274,100041.41,-122,+164,-141
93495,9.279,-2.919,1.883,0.447389,-0.283612,1.199761,100041.41,-124,+160,-143
93505,9.802,-3.303,1.411,0.116949,-0.311814,1.051302,100041.41,-126,+158,-144
93515,10.009,-2.976,0.986,-0.301289,-0.299043,0.922531,100040.77,-126,+158,-144
93526,10.109,-1.754,0.573,-0.643968,-0.234658,0.817174,100039.62,-125,+156,-143
93536,9.868,-0.586,0.398,-0.764225,-0.147924,0.770880,100042.23,-126,+156,-142
93545,9.617,0.006,0.701,-0.643968,-0.089924,0.800678,100042.23,-127,+156,-142
93555,9.435,-0.211,1.309,-0.374188,-0.094713,0.867192,100044.98,-127,+156,-142
93565,9.163,-0.952,1.894,-0.117712,-0.110677,0.909229,100044.98,-128,+154,-141
93575,9.124,-1.691,2.035,-0.036831,-0.133025,0.919339,100040.42,-130,+152,-141
93585,9.435,-2.235,2.049,-0.138464,-0.168677,0.915082,100039.16,-130,+150,-142
93595,9.723,-2.215,2.100,-0.315656,-0.206456,0.892733,100044.30,-130,+150,-142
93605,9.719,-1.658,2.098,-0.462519,-0.238915,0.866660,100044.30,-131,+149,-141
93616,9.373,-0.801,1.997,-0.477950,-0.254346,0.866128,100042.80,-132,+148,-141
93626,9.408,-0.121,1.877,-0.326831,-0.258603,0.899651,100041.65,-132,+147,-141
93635,9.823,-0.631,1.211,-0.121436,-0.268713,0.951265,100038.87,-132,+147,-141
93645,10.106,-1.660,1.121,0.039261,-0.261796,0.987981,100041.57,-132,+145,-142
93656,9.908,-2.518,1.357,0.043518,-0.272970,1.003412,100042.73,-135,+142,-143
93666,9.611,-2.493,1.485,-0.088446,-0.308621,0.995430,100043.15,-135,+140,-143
93675,9.616,-2.348,1.680,-0.176244,-0.341612,1.014586,100040.52,-135,+140,-143
93685,9.663,-1.967,2.184,-0.159748,-0.378860,1.058751,100040.52,-136,+137,-144
93696,9.543,-1.743,2.231,-0.060776,-0.435796,1.089082,100040.26,-135,+135,-144
93705,9.820,-1.643,1.819,0.058949,-0.491667,1.108770,100040.26,-136,+132,-146
93715,10.209,-1.785,1.601,0.114820,-0.553924,1.149742,100045.38,-136,+132,-146
93721,10.254,-1.900,1.522,0.121738,-0.591172,1.186990,100039.71,-135,+129,-147
93730,10.163,-2.035,1.410,0.133444,-0.616181,1.214660,100039.88,-135,+125,-149
93741,9.965,-2.369,1.310,0.155793,-0.637465,1.247650,100041.24,-135,+125,-149
93750,9.938,-2.741,1.210,0.127591,-0.652896,1.283302,100041.24,-136,+121,-149
93760,9.989,-3.246,1.507,0.033940,-0.653961,1.322678,100040.92,-134,+119,-151
93770,10.287,-3.550,1.399,-0.099088,-0.663539,1.350880,100041.14,-134,+115,-153
93780,10.700,-3.537,1.321,-0.277344,-0.666731,1.372696,100043.50,-134,+115,-153
93791,10.989,-3.521,1.229,-0.489124,-0.673649,1.415797,100041.30,-134,+113,-154
93800,11.085,-3.306,0.823,-0.664720,-0.695465,1.470604,100041.30,-134,+111,-155
93810,11.281,-3.189,0.919,-0.752518,-0.707172,1.535522,100042.98,-133,+110,-156
93820,11.863,-3.660,0.588,-0.801473,-0.734309,1.621192,100040.66,-133,+110,-156
93831,12.814,-3.247,-0.220,-0.888739,-0.772621,1.679191,100042.13,-133,+107,-156
93840,13.504,-3.055,-0.827,-0.932904,-0.829025,1.739852,100040.93,-132,+106,-158
93850,14.018,-2.883,-1.193,-0.923326,-0.906713,1.802641,100040.93,-132,+103,-159
93860,14.292,-2.338,-1.277,-0.927050,-1.007814,1.867026,100043.97,-132,+103,-159
93871,14.345,-1.827,-0.528,-0.878628,-1.128603,1.951100,100042.61,-131,+102,-161
93880,14.394,-1.892,0.432,-0.745601,-1.230236,2.061246,100043.97,-128,+99,-163
93890,14.614,-2.386,1.261,-0.685473,-1.297281,2.169264,100043.19,-126,+97,-165
93900,14.730,-2.998,1.981,-0.811583,-1.332401,2.256530,100043.19,-126,+97,-165
93911,14.955,-3.010,2.495,-1.071252,-1.346236,2.318255,100044.05,-124,+93,-168
93921,15.804,-2.396,3.137,-1.426169,-1.361667,2.346989,100040.22,-120,+91,-170
93930,17.795,-1.096,3.928,-1.805032,-1.417538,2.362952,100038.13,-119,+91,-171
93940,20.469,1.072,4.574,-2.123765,-1.461703,2.370402,100038.53,-119,+91,-171
93950,22.181,3.447,4.890,-2.263710,-1.522896,2.340604,100038.53,-115,+91,-174
93956,22.134,3.767,4.625,-2.150371,-1.636235,2.348053,100044.65,-113,+93,-175
93965,21.093,2.455,3.873,-1.747564,-1.791079,2.451815,100044.65,-113,+93,-175
93975,19.100,0.123,3.421,-1.043583,-1.970932,2.624218,100042.98,-109,+93,-178
93985,16.374,-1.772,3.396,-0.620023,-2.077354,2.555044,100041.82,-104,+89,-182
93996,14.405,-2.799,4.496,-0.171455,-2.032657,2.438512,100040.00,-99,+83,-185
94006,13.555,-2.603,5.392,0.223903,-1.931024,2.351246,100042.72,-99,+83,-185
94016,13.077,0.688,5.887,0.413866,-1.827795,2.078274,100040.67,-95,+79,-189
94025,11.296,4.896,5.474,0.752820,-1.728822,1.573834,100041.63,-90,+73,-192
94035,6.432,3.823,4.295,1.472764,-1.563868,1.075247,100041.63,-86,+66,-194
94046,3.315,-5.855,4.086,2.160782,-1.288236,1.103981,100039.94,-86,+66,-194
94055,7.318,-7.993,2.082,1.580783,-1.217465,0.959247,100039.94,-82,+58,-196
94065,9.283,-4.208,2.652,0.371829,-1.023777,0.311137,100044.92,-79,+55,-198
94075,6.639,-1.044,3.671,-0.077271,-0.779006,-0.466275,100043.39,-76,+56,-200
94086,4.780,0.782,2.873,-0.310335,-0.640658,-0.837688,100039.25,-76,+56,-200
94096,4.254,0.832,1.883,-0.438042,-0.515080,-1.030311,100038.30,-73,+60,-201
94105,4.634,0.665,1.605,-0.347051,-0.380988,-1.244220,100038.30,-71,+63,-200
94115,4.678,0.217,1.881,-0.127290,-0.233594,-1.478880,100041.38,-71,+66,-201
94126,4.475,0.027,1.995,0.125463,-0.075025,-1.715137,100040.88,-71,+66,-201
94136,4.687,-0.269,1.814,0.468673,0.071305,-1.947137,100037.94,-70,+68,-202
94146,5.349,-0.528,1.721,0.861370,0.204332,-2.192971,100037.94,-69,+70,-201
94155,6.178,-0.586,1.466,1.210434,0.312351,-2.444127,100037.94,-70,+70,-201
94166,6.590,-0.695,1.165,1.471168,0.405470,-2.715503,100038.01,-70,+70,-201
94176,6.628,-0.739,1.127,1.624416,0.504442,-2.978365,100040.74,-70,+70,-201
94185,6.661,-0.828,1.064,1.746269,0.583195,-3.211962,100039.38,-71,+70,-200
94191,6.658,-0.806,1.127,1.844709,0.649708,-3.373191,100036.07,-71,+70,-200
94200,6.919,-0.767,1.368,1.937296,0.717818,-3.522714,100036.07,-72,+69,-200
94211,7.405,-1.140,1.492,2.092140,0.781139,-3.697778,100037.23,-73,+69,-200
94221,7.879,-1.821,1.739,2.256030,0.844993,-3.842512,100033.98,-75,+69,-199
94230,8.359,-2.443,1.982,2.351278,0.913103,-3.970750,100036.25,-75,+69,-199
94240,9.063,-2.888,2.280,2.376819,0.996644,-4.105906,100034.98,-76,+69,-198
94251,9.910,-3.254,2.410,2.380012,1.087102,-4.259153,100034.98,-78,+69,-196
94261,10.813,-3.680,2.572,2.365645,1.178625,-4.392181,100034.24,-80,+70,-195
94271,11.612,-4.202,2.755,2.324672,1.255249,-4.481043,100032.55,-80,+70,-195
94280,12.194,-4.822,3.125,2.235278,1.334533,-4.557135,100034.76,-82,+72,-193
94290,12.599,-5.580,3.259,2.110232,1.400515,-4.655575,100034.98,-84,+73,-192
94301,12.775,-5.985,3.233,1.948471,1.482992,-4.766786,100034.98,-86,+77,-191
94311,12.993,-6.239,3.167,1.746269,1.581964,-4.838621,100034.10,-86,+77,-191
94320,13.344,-6.446,2.922,1.573865,1.685726,-4.857777,100038.55,-88,+81,-189
94330,13.538,-6.612,2.438,1.446159,1.785763,-4.837025,100037.93,-91,+86,-187
94341,13.779,-6.760,2.009,1.394544,1.873561,-4.758805,100036.73,-93,+91,-184
94351,14.195,-7.148,1.620,1.404122,1.913469,-4.614071,100036.73,-93,+91,-184
94360,14.493,-7.809,1.157,1.365278,1.900698,-4.452310,100036.27,-94,+96,-183
94370,14.781,-8.736,0.822,1.226398,1.869304,-4.277246,100036.33,-96,+101,-180
94381,15.070,-9.862,0.950,1.021535,1.820882,-4.061741,100034.02,-97,+105,-178
94391,14.324,-10.536,1.376,0.779958,1.769267,-3.861668,100039.78,-97,+105,-178
94400,13.127,-10.420,1.684,0.593187,1.727230,-3.637117,100039.78,-97,+110,-176
94410,12.141,-9.991,0.690,0.494215,1.725634,-3.313595,100042.05,-98,+115,-173
94420,11.891,-11.143,0.948,0.551150,1.799597,-2.968787,100040.27,-100,+119,-172
94427,12.239,-12.111,0.028,0.399499,1.706478,-2.779356,100040.96,-100,+119,-172
94436,11.363,-12.492,-0.700,0.040857,1.605909,-2.628237,100040.96,-100,+124,-170
94446,10.780,-11.652,-1.093,-0.443895,1.489910,-2.335045,100038.91,-102,+129,-166
94455,11.002,-11.301,-1.002,-0.833399,1.343579,-1.843907,100038.91,-102,+129,-166
94466,10.064,-11.206,-1.272,-1.086683,1.160001,-1.366605,100042.41,-102,+135,-163
94476,9.757,-10.370,-1.760,-1.102647,0.967378,-0.885578,100041.60,-103,+139,-161
94486,9.786,-10.035,-2.816,-0.918537,0.708772,-0.350807,100039.41,-103,+141,-160
94495,9.692,-10.390,-3.801,-0.550317,0.407598,0.228128,100039.41,-103,+141,-160
94505,9.352,-10.213,-3.917,-0.108134,0.111745,0.807596,100039.41,-104,+141,-158
94516,9.338,-8.209,-2.405,0.452710,-0.146328,1.290219,100043.59,-105,+136,-160
94526,9.271,-7.102,4.145,1.259389,-0.263392,1.673870,100041.80,-106,+128,-163
94535,11.954,-1.390,17.023,2.005939,0.160167,2.022402,100044.54,-106,+128,-163
94545,32.755,17.557,-4.275,0.201554,-0.803483,1.595650,100035.71,-107,+119,-165
94556,38.016,3.736,-10.925,0.512306,-1.105190,2.278347,100035.71,-105,+117,-167
94566,25.187,-12.623,-0.261,2.531131,-0.846052,3.686309,100044.34,-107,+100,-170
94576,15.271,-12.017,-1.494,1.466379,-0.810401,2.956255,100041.98,-107,+100,-170
94585,4.590,-6.154,-1.055,-0.263510,-0.794970,2.303356,100041.88,-106,+92,-172
94596,-2.795,-1.196,4.217,-0.669509,-0.726328,2.475760,100041.88,-105,+89,-173
94606,2.152,-2.695,7.395,0.100986,-0.476768,2.943484,100041.41,-105,+81,-173
94616,11.674,-3.741,4.309,0.668747,-0.610860,3.009998,100040.77,-105,+81,-173
94625,15.589,-5.961,0.223,0.674600,-0.984933,2.823227,100040.77,-104,+72,-175
94636,13.665,-7.592,0.839,0.355866,-0.940236,2.434255,100041.61,-102,+65,-177
94646,11.688,-5.793,0.080,-0.166134,-0.961520,1.964934,100042.92,-100,+61,-180
94656,9.396,-2.828,-1.000,-0.335344,-0.890750,1.540843,100042.92,-100,+61,-180
94661,8.095,-0.737,-0.458,-0.247546,-0.745484,1.418990,100044.51,-98,+60,-180
94670,7.707,-0.067,-0.725,-0.032042,-0.650236,1.475393,100043.02,-96,+57,-182
94681,8.345,-1.017,-0.825,0.373958,-0.508163,1.552017,100044.87,-96,+57,-182
94691,9.912,-2.511,-0.255,0.535719,-0.361300,1.537650,100039.26,-95,+52,-182
94701,10.903,-3.407,0.059,0.353738,-0.253814,1.408880,100039.26,-95,+47,-182
94710,10.427,-3.385,0.681,0.041389,-0.176126,1.186458,100042.95,-94,+46,-183
94721,9.355,-3.085,1.063,-0.226794,-0.146328,1.011394,100040.95,-94,+46,-183
94731,8.874,-2.846,1.048,-0.420482,-0.112273,0.895926,100041.64,-94,+44,-183
94741,9.186,-2.499,0.901,-0.596610,-0.066512,0.786843,100041.44,-93,+44,-182
94750,9.767,-1.767,0.906,-0.720592,-0.016493,0.709155,100041.44,-93,+44,-183
94760,9.925,-1.069,1.100,-0.733895,0.038314,0.672440,100042.50,-93,+44,-183
94771,9.793,-0.667,1.335,-0.688665,0.083011,0.660733,100041.56,-94,+47,-182
94781,9.628,-0.605,1.588,-0.643968,0.116002,0.661798,100043.61,-94,+47,-183
94791,9.541,-0.959,1.920,-0.596078,0.138883,0.686807,100040.94,-94,+48,-182
94800,9.702,-1.023,2.153,-0.598739,0.133030,0.719265,100040.94,-94,+48,-182
94811,9.933,-1.065,2.011,-0.672170,0.090993,0.737357,100042.24,-94,+48,-182
94821,10.002,-1.209,2.135,-0.695583,0.061727,0.751724,100042.98,-94,+48,-182
94831,9.829,-1.432,2.323,-0.637051,0.025543,0.777797,100038.93,-95,+48,-182
94840,9.516,-1.479,2.212,-0.518922,-0.025007,0.783651,100041.66,-95,+48,-182
94851,9.176,-1.736,1.962,-0.392812,-0.069172,0.783651,100041.66,-94,+49,-182
94861,9.158,-2.069,1.487,-0.344390,-0.109080,0.805999,100043.95,-94,+48,-183
94871,9.700,-2.149,1.071,-0.424207,-0.160695,0.830476,100042.38,-94,+48,-182
94880,10.032,-1.684,1.550,-0.549253,-0.195814,0.844843,100041.64,-94,+48,-182
94891,10.060,-1.043,2.020,-0.621619,-0.238383,0.907632,100040.17,-93,+48,-183
94901,9.979,-0.953,2.616,-0.506684,-0.300640,0.992238,100040.17,-92,+48,-183
94911,9.718,-1.564,2.808,-0.277344,-0.363429,1.045981,100041.90,-91,+47,-183
94921,9.402,-2.202,2.467,-0.084189,-0.412383,1.080568,100041.32,-91,+47,-183
94930,9.401,-2.925,2.066,-0.014482,-0.457080,1.106109,100039.02,-90,+44,-185
94941,9.774,-3.397,1.673,-0.108134,-0.486346,1.113559,100038.96,-89,+42,-186
94951,10.130,-3.512,1.302,-0.292244,-0.494328,1.113559,100038.96,-86,+42,-187
94961,10.136,-3.289,1.126,-0.429528,-0.495392,1.103449,100045.20,-86,+42,-187
94970,9.908,-3.084,1.284,-0.479546,-0.495924,1.105045,100044.35,-85,+40,-187
94981,9.701,-2.878,1.277,-0.461454,-0.516144,1.131650,100042.95,-83,+38,-189
94991,9.667,-2.906,1.313,-0.402390,-0.544878,1.160917,100041.52,-81,+39,-189
95001,9.895,-3.012,1.322,-0.354500,-0.581594,1.194972,100041.52,-81,+39,-189
95011,10.103,-3.172,1.357,-0.345987,-0.619906,1.229027,100043.10,-80,+38,-190
95021,10.360,-3.392,1.073,-0.346519,-0.664603,1.265210,100042.52,-77,+36,-191
95031,10.611,-3.290,1.173,-0.401858,-0.697062,1.295540,100041.79,-75,+36,-193
95041,10.783,-3.333,1.149,-0.472629,-0.731117,1.333852,100042.10,-72,+34,-193
95051,10.999,-3.381,0.857,-0.518922,-0.758254,1.376421,100042.10,-72,+34,-193
95060,11.433,-3.546,0.453,-0.546592,-0.798162,1.418990,100044.18,-70,+34,-195
95071,11.838,-3.425,0.148,-0.583840,-0.846584,1.456770,100042.09,-67,+33,-195
95081,12.168,-3.483,-0.258,-0.611509,-0.897667,1.503595,100040.46,-64,+33,-197
95091,12.473,-3.371,-0.757,-0.646629,-0.953538,1.541375,100041.98,-64,+33,-197
95100,12.792,-3.063,-0.871,-0.716335,-1.022181,1.588201,100041.98,-59,+32,-199
95111,13.106,-2.920,-0.923,-0.726977,-1.130731,1.655246,100047.32,-55,+33,-200
95121,13.454,-2.517,-0.549,-0.691326,-1.233428,1.725485,100045.32,-51,+30,-202
95131,13.972,-2.667,0.375,-0.678555,-1.331514,1.811687,100042.07,-51,+30,-202
95140,14.463,-2.569,1.113,-0.715803,-1.395722,1.894164,100042.02,-46,+32,-204
95151,15.082,-2.451,2.001,-0.819564,-1.427116,1.981962,100042.02,-41,+30,-206
95161,15.966,-1.854,2.792,-1.028151,-1.448401,2.063375,100042.95,-35,+30,-206
95171,16.892,-0.841,3.755,-1.308041,-1.493098,2.142659,100044.01,-35,+30,-206
95181,17.622,-0.680,4.355,-1.528867,-1.540988,2.201723,100041.05,-28,+32,-209
95191,17.962,-0.064,4.073,-1.726279,-1.513850,2.174586,100040.80,-23,+35,-210
95201,17.847,0.897,3.555,-1.908261,-1.520235,2.059118,100040.80,-16,+39,-212
95211,18.398,0.706,2.750,-1.784279,-1.644217,2.049008,100041.12,-16,+39,-212
95221,19.845,-0.570,2.591,-1.177142,-1.844822,2.276218,100043.74,-9,+41,-213
95230,19.947,-2.099,3.289,-0.388555,-2.063519,2.449686,100041.16,-1,+40,-216
95241,18.116,-2.604,3.889,0.041389,-2.243905,2.352310,100040.85,+6,+36,-218
