110026,9.378,-1.182,2.640,-0.013427,0.005365,0.030425,99947.14,-90,-21,-80
110036,9.452,-1.176,2.616,-0.009703,0.006961,0.020847,99946.83,-90,-21,-80
110047,9.574,-1.143,2.661,0.004132,0.007493,0.012865,99946.09,-92,-21,-76
110057,9.627,-1.114,2.730,0.026481,0.008557,0.006480,99943.78,-88,-25,-82
110066,9.529,-1.098,2.769,0.044041,0.006961,0.001691,99943.78,-91,-21,-79
110076,9.517,-1.143,2.817,0.045105,0.006429,-0.007887,99947.48,-91,-21,-79
110087,9.481,-1.218,2.832,0.033930,0.002704,-0.024383,99947.85,-90,-21,-76
110097,9.457,-1.160,2.832,0.012646,-0.001553,-0.033428,99948.59,-88,-25,-82
110107,9.480,-1.002,2.846,-0.003849,-0.004746,-0.042474,99943.34,-90,-21,-79
110116,9.492,-0.970,2.831,-0.005978,-0.010599,-0.046199,99943.34,-90,-21,-79
110127,9.462,-0.946,2.746,-0.002253,-0.013259,-0.040878,99947.02,-91,-21,-76
110137,9.425,-0.931,2.698,0.000940,-0.012727,-0.037153,99947.40,-88,-25,-82
110147,9.466,-0.913,2.692,0.002004,-0.011663,-0.032364,99949.02,-91,-21,-80
110156,9.524,-0.913,2.710,0.000408,-0.010599,-0.031300,99945.66,-91,-21,-80
110167,9.529,-0.955,2.761,0.001472,-0.007938,-0.027043,99945.66,-91,-19,-76
110177,9.477,-0.981,2.724,0.002536,-0.006342,-0.020658,99948.61,-88,-24,-82
110187,9.457,-0.980,2.728,0.001472,-0.004213,-0.016401,99951.59,-92,-21,-79
110196,9.474,-0.988,2.728,0.000940,-0.002617,-0.013740,99945.41,-92,-21,-79
110206,9.466,-0.964,2.757,0.000408,-0.001553,-0.011080,99943.98,-91,-21,-76
110217,9.513,-0.907,2.727,0.002004,-0.001553,-0.008951,99943.98,-88,-25,-82
110227,9.495,-0.994,2.769,0.007325,-0.000489,-0.006823,99947.13,-92,-20,-79
110236,9.483,-1.058,2.765,0.006261,-0.002617,-0.005227,99947.60,-91,-20,-76
110246,9.466,-1.058,2.751,0.001472,-0.003149,-0.008419,99947.09,-91,-21,-76
110257,9.432,-1.019,2.730,-0.003317,-0.002617,-0.011080,99946.82,-87,-24,-83
110267,9.474,-1.000,2.737,-0.005446,-0.002085,-0.011612,99946.82,-92,-21,-79
110277,9.525,-1.023,2.742,-0.003849,-0.003149,-0.013208,99945.35,-91,-21,-76
110286,9.501,-0.939,2.736,0.002536,-0.004746,-0.010548,99944.35,-91,-21,-76
110297,9.468,-0.853,2.770,0.019563,-0.007406,-0.005227,99944.71,-88,-24,-82
110307,9.484,-0.935,2.824,0.024885,-0.007406,0.000627,99941.88,-92,-21,-78
110317,9.422,-1.053,2.749,0.008921,-0.007938,0.005416,99941.88,-91,-21,-76
110326,9.419,-1.032,2.685,-0.006510,-0.005278,0.002223,99949.45,-91,-21,-76
110337,9.480,-0.872,2.686,-0.007574,-0.005278,0.000094,99946.66,-88,-24,-82
110347,9.545,-0.890,2.738,0.006793,-0.003681,0.004883,99944.93,-91,-21,-78
110357,9.519,-0.998,2.737,0.024885,-0.003681,0.010737,99944.24,-91,-21,-76
110366,9.464,-1.050,2.747,0.026481,-0.005278,0.011801,99944.24,-91,-21,-76
110376,9.470,-1.110,2.759,0.018499,-0.005810,0.004883,99948.93,-88,-24,-82
110387,9.474,-1.099,2.761,0.005196,-0.007406,-0.003098,99948.09,-92,-20,-78
110397,9.442,-1.031,2.781,-0.005978,-0.009535,-0.008419,99945.51,-90,-22,-76
110407,9.507,-0.993,2.779,-0.004381,-0.012195,-0.011080,99943.52,-90,-22,-76
110416,9.505,-0.993,2.740,0.000408,-0.012727,-0.011080,99943.52,-88,-24,-82
110427,9.489,-1.024,2.752,0.003600,-0.014324,-0.009484,99947.07,-92,-19,-77
110437,9.482,-1.035,2.716,0.000940,-0.014856,-0.012144,99945.12,-90,-23,-77
110447,9.470,-1.011,2.755,-0.005978,-0.016452,-0.014273,99948.16,-90,-23,-77
110456,9.481,-0.964,2.715,-0.010235,-0.015920,-0.013740,99944.45,-89,-25,-82
110467,9.441,-0.951,2.736,-0.006510,-0.015920,-0.012144,99944.45,-93,-19,-77
110477,9.490,-0.955,2.773,-0.002253,-0.017516,-0.010548,99946.63,-90,-23,-77
110487,9.520,-0.999,2.725,0.002004,-0.016984,-0.010016,99945.94,-90,-23,-77
110496,9.487,-1.034,2.739,0.002004,-0.016452,-0.007887,99945.41,-88,-24,-83
110507,9.484,-1.010,2.745,-0.003317,-0.017516,-0.010016,99945.05,-92,-19,-77
110513,9.536,-1.018,2.765,-0.005446,-0.018580,-0.011612,99945.05,-92,-19,-77
110522,9.489,-0.998,2.739,-0.007042,-0.018580,-0.011080,99945.05,-90,-21,-77
110532,9.432,-0.979,2.710,-0.009170,-0.018048,-0.010016,99947.80,-88,-24,-82
110542,9.481,-1.014,2.698,-0.010767,-0.018580,-0.009484,99946.71,-92,-19,-77
110552,9.533,-1.007,2.721,-0.013427,-0.016984,-0.010016,99947.18,-92,-19,-77
110562,9.496,-0.986,2.701,-0.012895,-0.016452,-0.007887,99943.04,-90,-22,-78
110572,9.447,-0.939,2.703,-0.009170,-0.016452,-0.006291,99949.12,-89,-23,-82
110582,9.457,-0.945,2.713,-0.007042,-0.014856,-0.004162,99945.02,-92,-19,-76
110592,9.520,-0.980,2.716,-0.004914,-0.013791,-0.005759,99945.02,-92,-19,-76
110602,9.517,-1.022,2.736,-0.005978,-0.013791,-0.005227,99945.13,-89,-23,-79
110612,9.478,-1.012,2.716,-0.008638,-0.013791,-0.004162,99945.40,-88,-23,-82
110622,9.453,-0.998,2.671,-0.009703,-0.011663,-0.005227,99945.40,-92,-19,-76
110631,9.477,-0.963,2.730,-0.008106,-0.012195,-0.005227,99948.32,-92,-19,-76
110642,9.498,-0.967,2.736,-0.008106,-0.013259,-0.003098,99947.05,-89,-22,-79
110652,9.477,-0.971,2.719,-0.007574,-0.012195,-0.002566,99944.43,-89,-23,-82
110662,9.513,-0.992,2.720,-0.010767,-0.012727,-0.004162,99942.38,-92,-19,-76
110672,9.500,-1.031,2.689,-0.012363,-0.011131,-0.001502,99947.88,-92,-19,-76
110682,9.426,-1.004,2.658,-0.014492,-0.009535,0.000627,99946.83,-88,-23,-79
110692,9.451,-0.998,2.652,-0.014492,-0.006874,-0.001502,99946.77,-88,-23,-83
110702,9.520,-1.067,2.678,-0.013427,-0.004213,-0.002566,99944.94,-92,-19,-76
110712,9.548,-1.041,2.709,-0.014492,-0.004746,-0.005227,99944.94,-92,-19,-76
110722,9.499,-0.975,2.721,-0.020877,-0.005810,-0.007355,99944.94,-88,-23,-79
110732,9.504,-1.001,2.706,-0.036840,-0.004213,-0.006823,99946.69,-89,-22,-82
110742,9.481,-1.183,2.603,-0.075684,-0.003681,-0.006823,99946.53,-92,-19,-76
110752,9.563,-1.274,2.580,-0.116125,-0.005810,-0.014273,99944.95,-92,-19,-76
110763,9.565,-1.168,2.551,-0.135280,0.003768,-0.022786,99945.38,-89,-23,-79
110772,9.457,-1.211,2.538,-0.165611,0.010154,-0.027575,99945.38,-89,-21,-82
110782,9.541,-1.156,2.616,-0.172528,0.005365,-0.030768,99946.22,-92,-18,-77
110792,9.617,-0.921,2.816,-0.146987,0.001640,-0.033961,99947.17,-92,-18,-77
110802,9.547,-1.043,2.786,-0.142198,-0.004213,-0.031832,99943.33,-89,-21,-81
110812,9.466,-1.189,2.818,-0.171464,-0.013791,-0.034493,99943.33,-89,-21,-82
110822,9.451,-1.038,2.761,-0.199134,-0.018048,-0.040878,99943.33,-92,-17,-77
110832,9.336,-0.934,2.671,-0.214033,-0.014324,-0.041410,99948.75,-92,-17,-77
110842,9.387,-0.757,2.736,-0.207647,-0.019645,-0.033961,99945.48,-88,-21,-81
110852,9.645,-0.721,2.829,-0.162418,-0.028158,-0.024383,99946.86,-90,-19,-83
110862,9.600,-0.889,2.903,-0.124638,-0.034544,-0.006823,99946.59,-92,-17,-77
110872,9.439,-0.926,2.965,-0.119849,-0.043057,0.003819,99946.59,-92,-17,-77
110882,9.425,-0.971,2.940,-0.134216,-0.053700,0.003287,99946.18,-88,-21,-82
110893,9.398,-0.990,2.849,-0.154436,-0.061681,0.002223,99944.91,-90,-19,-84
110902,9.436,-0.852,2.783,-0.155501,-0.069663,0.004883,99945.49,-90,-16,-77
110912,9.469,-0.824,2.709,-0.131556,-0.076580,0.015526,99946.41,-88,-16,-82
110922,9.508,-0.800,2.716,-0.095372,-0.081901,0.033617,99946.98,-88,-19,-82
110932,9.505,-0.803,2.719,-0.069299,-0.085094,0.051709,99945.20,-88,-18,-84
110942,9.489,-0.927,2.691,-0.058125,-0.087223,0.062351,99945.20,-91,-15,-79
110952,9.459,-0.901,2.647,-0.056528,-0.087755,0.074058,99946.45,-86,-19,-84
110962,9.440,-0.858,2.621,-0.055996,-0.084562,0.087360,99943.47,-86,-19,-84
110972,9.556,-0.895,2.630,-0.047482,-0.084030,0.101195,99943.47,-88,-17,-84
110983,9.593,-0.966,2.540,-0.035599,-0.084917,0.119642,99945.80,-90,-15,-80
110992,9.560,-0.985,2.537,-0.035776,-0.082434,0.137911,99945.80,-86,-20,-84
111002,9.532,-0.973,2.536,-0.042161,-0.082434,0.157599,99944.49,-86,-20,-84
111012,9.523,-0.914,2.563,-0.044290,-0.080837,0.175159,99945.60,-87,-17,-85
111023,9.533,-0.866,2.542,-0.043758,-0.077112,0.196975,99945.60,-89,-17,-80
111032,9.569,-0.756,2.566,-0.034180,-0.074452,0.220920,99947.67,-85,-21,-86
111042,9.648,-0.815,2.601,-0.011299,-0.073388,0.248590,99945.66,-85,-21,-86
111052,9.678,-0.913,2.578,0.004132,-0.070195,0.278388,99943.55,-86,-19,-85
111062,9.646,-1.064,2.534,0.003068,-0.070727,0.303929,99943.55,-88,-19,-81
111072,9.617,-1.062,2.473,0.002004,-0.068067,0.328406,99943.55,-83,-24,-86
111082,9.675,-1.105,2.508,-0.006510,-0.065938,0.355012,99949.05,-83,-24,-86
111092,9.669,-1.210,2.461,-0.030455,-0.063278,0.384278,99944.59,-86,-21,-84
111102,9.731,-1.151,2.460,-0.054932,-0.056360,0.414076,99944.74,-87,-21,-81
111112,9.787,-1.138,2.430,-0.077281,-0.046250,0.448663,99945.43,-82,-25,-87
111122,9.791,-1.171,2.413,-0.107611,-0.029755,0.491764,99945.43,-82,-25,-87
111132,9.851,-1.296,2.261,-0.159225,-0.007406,0.539122,99945.68,-85,-23,-85
111142,9.967,-1.259,2.188,-0.232657,0.022924,0.592333,99946.34,-85,-23,-81
111153,10.188,-1.181,2.100,-0.303427,0.055915,0.657250,99944.95,-81,-27,-88
111162,10.308,-1.278,1.987,-0.375794,0.103273,0.737066,99944.95,-81,-27,-88
111172,10.417,-1.243,1.932,-0.460932,0.166594,0.830718,99944.62,-84,-25,-86
111182,10.729,-0.916,2.006,-0.555647,0.233640,0.929158,99944.62,-83,-25,-82
111193,11.248,-0.813,2.336,-0.647702,0.299621,1.019085,99947.18,-79,-29,-88
111202,12.037,-0.762,2.461,-0.679097,0.354961,1.038241,99948.80,-79,-29,-88
111212,12.827,-1.149,1.965,-0.731243,0.419878,1.053140,99944.62,-82,-25,-85
111217,13.637,-1.332,1.808,-0.780198,0.470961,1.068571,99944.62,-82,-27,-81
111227,14.428,-1.158,1.787,-0.798289,0.505016,1.056864,99949.70,-82,-27,-81
111238,15.025,-1.101,1.724,-0.719005,0.534282,1.084002,99948.19,-79,-29,-88
111247,15.101,-1.031,1.950,-0.523721,0.588557,1.147855,99946.08,-82,-29,-84
111257,15.022,-1.448,2.995,-0.320455,0.636979,1.192552,99942.20,-82,-31,-80
111267,14.013,-2.767,4.676,-0.257666,0.732759,1.272369,99942.20,-82,-31,-80
111278,12.972,-4.649,6.293,-0.313005,0.860465,1.342075,99947.25,-79,-35,-86
111287,13.303,-6.600,7.177,-0.351849,0.937621,1.396350,99945.09,-83,-33,-80
111297,13.746,-6.916,8.166,-0.406656,1.037657,1.471378,99945.16,-82,-36,-77
111307,13.997,-5.681,7.059,-0.493922,1.111621,1.453818,99945.67,-82,-36,-77
111318,13.519,-5.271,5.836,-0.586510,1.165364,1.377727,99945.67,-80,-39,-82
111327,12.440,-5.844,5.644,-0.675904,1.200483,1.362295,99944.90,-84,-39,-76
111333,11.698,-6.381,5.720,-0.774876,1.213786,1.358039,99948.16,-84,-39,-76
111342,11.051,-6.868,5.868,-0.913757,1.214850,1.350589,99948.16,-83,-41,-72
111352,10.235,-6.650,5.689,-1.060087,1.224960,1.326644,99942.34,-81,-43,-79
111363,9.498,-6.036,5.180,-1.115427,1.231345,1.281947,99944.63,-81,-43,-79
111373,9.037,-5.743,4.529,-1.046252,1.204208,1.247360,99944.63,-86,-41,-72
111382,8.478,-5.726,3.813,-0.891941,1.150997,1.254277,99946.52,-84,-43,-70
111392,7.552,-5.725,3.224,-0.702509,1.090868,1.294185,99942.84,-82,-45,-77
111403,6.535,-5.510,2.842,-0.482216,1.028080,1.320259,99943.42,-85,-45,-69
111412,5.648,-5.055,2.531,-0.243299,0.953052,1.319195,99943.42,-85,-45,-69
111422,4.835,-4.633,2.261,-0.023005,0.867914,1.306424,99943.42,-84,-49,-66
111432,3.942,-4.170,1.977,0.189306,0.787034,1.292057,99948.23,-84,-51,-72
111442,3.056,-3.727,1.684,0.380866,0.708282,1.262259,99946.13,-85,-54,-64
111453,2.175,-3.489,1.386,0.524536,0.624918,1.200534,99943.92,-85,-54,-64
111462,1.510,-3.279,1.160,0.577214,0.544924,1.127635,99943.92,-82,-58,-62
111472,0.888,-3.045,0.910,0.573490,0.456594,1.033984,99943.92,-81,-60,-67
111482,0.391,-2.827,0.814,0.541563,0.375713,0.925433,99945.08,-83,-62,-59
111493,0.070,-2.755,0.694,0.485692,0.295896,0.799323,99943.88,-83,-62,-59
111503,-0.142,-2.765,0.594,0.396297,0.206502,0.663635,99942.72,-81,-65,-59
111512,-0.267,-2.767,0.589,0.279233,0.112851,0.519434,99942.72,-81,-65,-64
111522,-0.370,-2.717,0.554,0.157912,0.018667,0.377892,99948.52,-82,-65,-58
111533,-0.454,-2.557,0.477,0.060004,-0.068067,0.226773,99948.52,-82,-65,-58
111542,-0.479,-2.343,0.430,-0.012895,-0.151076,0.067672,99946.01,-79,-67,-58
111552,-0.371,-2.238,0.412,-0.067703,-0.235149,-0.094089,99945.54,-79,-67,-64
111562,-0.194,-2.155,0.455,-0.102822,-0.324544,-0.239355,99943.96,-81,-66,-58
111567,0.007,-2.112,0.548,-0.111868,-0.391057,-0.342584,99943.96,-81,-66,-58
111578,0.265,-1.971,0.527,-0.103886,-0.461828,-0.438896,99946.31,-80,-65,-61
111587,0.762,-1.943,0.449,-0.049079,-0.550158,-0.554896,99946.09,-80,-65,-61
111597,1.284,-2.197,0.674,0.023820,-0.634231,-0.654401,99942.47,-79,-64,-67
111607,1.794,-2.389,0.948,0.083949,-0.728415,-0.724639,99942.27,-82,-62,-61
111618,2.371,-2.699,1.238,0.152591,-0.828451,-0.803923,99942.27,-79,-62,-64
111628,2.894,-3.156,1.622,0.257417,-0.910928,-0.892786,99945.64,-78,-62,-71
111637,3.359,-3.759,2.085,0.388848,-0.960947,-0.980052,99946.84,-78,-61,-71
111647,3.701,-4.405,2.527,0.486224,-0.995534,-1.068382,99943.55,-82,-58,-64
111657,4.093,-4.561,2.913,0.548481,-1.041295,-1.176400,99942.59,-79,-58,-67
111668,5.113,-4.582,3.372,0.589453,-1.095571,-1.301978,99942.59,-79,-57,-73
111677,6.506,-4.828,3.720,0.587857,-1.147717,-1.420107,99945.48,-79,-57,-73
111688,8.180,-5.211,4.375,0.566395,-1.189931,-1.516418,99942.39,-81,-54,-66
111697,9.645,-5.601,4.953,0.510169,-1.207846,-1.560583,99944.23,-79,-53,-72
111708,10.696,-5.794,5.320,0.404279,-1.205717,-1.597831,99944.33,-78,-51,-76
111717,11.138,-5.544,5.332,0.260609,-1.182837,-1.647317,99944.33,-78,-51,-76
111727,11.215,-5.065,5.229,0.112151,-1.133882,-1.699996,99944.34,-82,-46,-71
111737,11.115,-4.626,5.052,-0.050143,-1.064708,-1.759060,99944.25,-78,-45,-77
111748,11.027,-4.464,4.941,-0.204455,-0.974249,-1.825574,99944.34,-80,-41,-82
111758,11.086,-4.002,4.868,-0.346528,-0.875809,-1.913904,99940.98,-80,-41,-82
111767,11.626,-3.558,4.857,-0.473170,-0.777369,-2.033097,99940.98,-83,-36,-76
111777,12.229,-3.307,4.767,-0.588638,-0.687974,-2.127280,99946.45,-81,-33,-82
111788,12.681,-2.969,4.297,-0.673243,-0.593259,-2.164528,99944.98,-82,-28,-87
111798,12.967,-2.276,3.569,-0.691335,-0.493754,-2.190069,99946.14,-82,-28,-87
111807,13.169,-1.784,3.043,-0.648234,-0.408617,-2.213482,99946.88,-86,-21,-82
111817,10.863,-7.555,10.505,-0.599280,-0.102122,-2.095354,99946.88,-84,-19,-87
111827,16.291,-2.577,6.806,0.485159,-0.252709,-1.953280,99944.58,-86,-17,-89
111838,18.408,-6.926,2.698,0.922022,-0.132452,-1.822914,99945.58,-86,-17,-89
111847,24.185,-1.816,-4.758,0.749086,-0.543241,-1.382327,99946.52,-90,-11,-82
111857,28.274,4.951,-4.518,0.586260,-0.363387,-1.139153,99948.09,-86,-13,-87
111867,18.813,5.646,0.997,0.592114,0.157016,-1.038052,99948.09,-88,-13,-89
111878,8.634,-2.250,3.188,0.591581,0.324630,-0.576713,99942.43,-88,-13,-89
111888,5.142,-5.459,4.490,0.394701,0.229383,-0.294162,99947.68,-91,-10,-81
111897,4.447,-3.361,4.452,0.125985,0.095823,-0.530419,99946.74,-88,-12,-86
111907,6.140,-0.628,4.407,0.087141,0.016007,-0.799667,99941.49,-90,-11,-87
111918,8.340,-0.769,4.134,0.161637,-0.056360,-0.825208,99941.49,-90,-11,-87
111923,9.033,-1.387,3.826,0.169086,-0.079241,-0.812969,99947.55,-93,-7,-81
111932,8.998,-1.158,3.652,0.089802,-0.079773,-0.818823,99947.55,-90,-9,-87
111942,9.050,-0.497,3.043,-0.070895,-0.093076,-0.828400,99947.39,-90,-9,-87
111952,9.871,0.137,1.842,-0.078345,-0.081369,-0.794878,99942.30,-91,-6,-88
111963,10.699,-0.331,1.072,0.164297,-0.021773,-0.719318,99945.55,-93,-2,-81
111973,11.224,-1.113,1.473,0.424499,0.057511,-0.625667,99945.39,-91,-6,-87
111983,10.832,-0.750,2.337,0.481435,0.107530,-0.564474,99946.23,-91,-6,-87
111992,10.092,-0.391,2.831,0.409600,0.119768,-0.513391,99945.03,-92,-4,-86
112003,9.604,-0.683,3.344,0.341490,0.110722,-0.488382,99945.03,-95,-1,-81
112013,9.608,-0.674,3.308,0.285618,0.091566,-0.516584,99942.92,-92,-5,-86
112022,9.647,-0.621,3.275,0.180261,0.077731,-0.518713,99942.92,-92,-5,-86
112032,9.565,-0.595,3.198,0.091398,0.053254,-0.492107,99945.87,-95,-1,-86
112038,9.720,-0.518,3.089,0.070114,0.030374,-0.480933,99947.60,-97,+0,-80
112048,9.949,-0.302,3.116,0.086609,0.012814,-0.471355,99946.91,-97,+0,-80
112058,9.972,-0.516,3.139,0.153123,-0.007938,-0.471355,99942.98,-94,-3,-85
112067,9.799,-0.877,2.931,0.210059,-0.011663,-0.474547,99942.98,-95,+0,-84
112077,9.635,-0.877,2.854,0.171215,-0.007406,-0.485190,99947.16,-97,+0,-79
112088,9.433,-0.740,2.913,0.068518,-0.015920,-0.500089,99945.00,-97,+1,-79
112098,9.445,-0.488,2.850,-0.064510,-0.031883,-0.487850,99944.95,-94,+0,-86
112108,9.355,-0.026,2.742,-0.144858,-0.044122,-0.461777,99943.73,-96,+2,-84
112117,9.265,0.098,2.785,-0.176785,-0.052635,-0.424529,99943.73,-97,+4,-79
112128,9.343,0.122,2.664,-0.181042,-0.057424,-0.378768,99949.61,-97,+4,-79
112138,9.253,0.281,2.645,-0.195941,-0.044654,-0.328217,99948.67,-95,+3,-87
112148,9.192,0.450,2.686,-0.233189,-0.029755,-0.276603,99947.31,-97,+5,-85
112157,9.196,0.579,2.787,-0.265115,-0.016452,-0.224456,99944.05,-97,+7,-80
112167,9.342,0.493,2.878,-0.269904,-0.014324,-0.177098,99944.05,-97,+7,-80
112178,9.384,0.444,2.846,-0.259794,-0.014856,-0.138254,99947.21,-95,+4,-87
112188,9.396,0.383,2.731,-0.230528,-0.008470,-0.102071,99946.54,-97,+8,-84
112197,9.410,0.254,2.768,-0.190620,-0.002085,-0.075997,99945.59,-97,+8,-81
112207,9.565,0.046,2.739,-0.161354,0.002172,-0.064291,99943.70,-97,+8,-81
112218,9.596,0.022,2.822,-0.125703,0.006961,-0.044603,99943.70,-95,+5,-88
112228,9.453,0.140,2.927,-0.094308,0.005897,-0.027043,99948.52,-97,+9,-84
112238,9.451,0.102,2.901,-0.061849,0.001108,-0.014273,99944.16,-97,+9,-81
112247,9.475,0.095,2.895,-0.035776,0.000576,0.001159,99945.52,-97,+9,-81
112258,9.398,0.371,2.835,-0.025666,-0.000489,0.012865,99946.41,-95,+6,-87
112268,9.374,0.235,2.867,-0.014492,0.004832,0.020847,99946.41,-97,+10,-84
112273,9.378,-0.020,2.828,-0.002253,0.004832,0.027764,99947.12,-97,+10,-84
112282,9.432,-0.032,2.751,0.000940,0.005365,0.027764,99947.12,-97,+9,-81
112292,9.445,-0.042,2.688,-0.006510,0.011750,0.028828,99946.54,-95,+6,-87
112303,9.470,-0.108,2.658,0.006261,0.020796,0.032021,99948.65,-97,+9,-84
112313,9.556,-0.143,2.805,0.021160,0.025053,0.033085,99946.02,-97,+9,-84
112323,9.596,-0.033,2.896,0.038187,0.025585,0.037874,99948.13,-97,+8,-81
112332,9.532,-0.009,2.920,0.060536,0.022924,0.046388,99945.46,-95,+5,-88
112343,9.428,-0.123,2.866,0.060004,0.019199,0.055434,99947.66,-97,+9,-83
112353,9.416,-0.203,2.777,0.040316,0.020264,0.056498,99947.66,-97,+9,-83
112363,9.451,-0.068,2.876,0.016371,0.020796,0.059159,99946.35,-97,+7,-81
112372,9.330,0.239,2.917,0.004664,0.018135,0.071929,99946.35,-95,+5,-88
112382,9.466,0.385,2.817,0.030738,0.012814,0.093746,99946.92,-99,+9,-82
112393,9.705,0.058,2.710,0.066921,0.014943,0.129929,99945.09,-99,+9,-82
112403,9.589,-0.186,2.759,0.073839,0.022924,0.162388,99946.08,-97,+7,-81
112413,9.433,-0.228,2.815,0.050958,0.025585,0.180480,99944.88,-95,+4,-88
112422,9.475,-0.266,2.858,0.022224,0.020264,0.194847,99944.88,-98,+9,-82
112433,9.519,-0.326,2.737,-0.020877,0.014410,0.215067,99946.15,-98,+9,-82
112443,9.484,-0.309,2.745,-0.080473,0.009089,0.237948,99947.04,-97,+6,-81
112453,9.650,-0.291,2.684,-0.155501,-0.018048,0.253379,99943.74,-94,+3,-87
112462,9.768,-0.582,2.621,-0.378987,-0.105314,0.287966,99943.74,-97,+7,-83
112473,9.498,0.231,3.111,-0.524785,-0.208011,0.360865,99943.74,-97,+7,-83
112483,9.414,1.188,3.041,-0.339079,-0.188856,0.368847,99947.31,-95,+5,-82
112493,9.423,0.575,2.826,-0.122510,-0.107975,0.398645,99947.83,-93,+3,-89
112502,9.421,0.397,2.622,-0.009703,-0.030819,0.477929,99944.20,-96,+5,-82
112513,9.602,0.790,3.649,0.065857,0.002704,0.551892,99947.56,-96,+5,-82
112523,11.542,2.450,5.549,0.220169,-0.086158,0.666296,99947.56,-94,+2,-84
112533,12.330,2.547,3.879,0.376077,-0.194709,0.927562,99945.34,-92,-1,-89
112543,9.706,-0.678,1.402,0.259545,-0.158525,1.237250,99944.76,-94,+0,-83
112552,9.295,-1.682,1.297,-0.175721,-0.051039,1.447433,99944.71,-94,+0,-83
112563,10.505,-0.319,1.616,-0.652491,0.065493,1.586314,99944.71,-90,-4,-84
112573,11.037,0.544,1.568,-0.962179,0.159676,1.756057,99947.61,-88,-7,-90
112583,11.123,1.329,1.755,-1.024968,0.252796,1.979011,99947.61,-92,-5,-82
112592,11.329,1.549,2.034,-0.839794,0.369328,2.142368,99947.88,-92,-5,-82
112603,11.711,0.650,2.333,-0.537555,0.496502,2.222717,99945.50,-89,-11,-84
112613,12.481,0.061,2.386,-0.268308,0.590153,2.213671,99943.83,-87,-15,-88
112623,14.239,-1.309,1.865,-0.032051,0.629529,2.077983,99943.83,-90,-16,-80
112632,14.843,-2.389,2.551,0.168022,0.632190,2.012534,99946.67,-90,-16,-80
112643,14.164,-2.474,4.021,0.173875,0.682208,1.996038,99946.89,-87,-22,-82
112653,13.339,-3.018,4.234,0.097784,0.701364,2.050846,99945.42,-86,-26,-84
112663,12.551,-2.894,3.909,0.025949,0.698704,2.160992,99944.16,-88,-27,-76
112673,12.113,-2.074,3.058,-0.041629,0.683272,2.225378,99946.67,-88,-27,-76
112683,12.090,-0.551,2.003,-0.112932,0.642300,2.171634,99943.63,-84,-33,-77
112693,11.870,1.119,1.303,-0.186895,0.578979,2.055634,99946.03,-84,-37,-81
112703,11.415,2.485,0.994,-0.217757,0.495970,1.891212,99946.03,-85,-39,-72
112713,10.819,3.389,0.791,-0.201262,0.414557,1.685286,99943.83,-85,-39,-72
112722,10.012,3.987,0.572,-0.159225,0.343254,1.421892,99943.83,-81,-42,-76
112733,9.403,4.349,0.281,-0.144858,0.254924,1.089323,99945.15,-80,-45,-80
112743,8.951,4.862,-0.168,-0.140956,0.135377,0.670198,99946.90,-82,-43,-72
112753,8.569,4.809,-0.513,-0.127299,0.021860,0.302333,99946.90,-79,-45,-77
112763,8.162,4.368,-0.771,-0.105482,-0.112232,-0.082915,99943.41,-79,-45,-77
112773,7.934,3.973,-0.885,-0.093244,-0.255369,-0.455391,99943.41,-80,-44,-80
112783,7.775,3.750,-0.732,-0.064510,-0.399571,-0.805520,99943.41,-82,-41,-74
112793,7.934,3.545,-0.583,0.002004,-0.548030,-1.122125,99944.68,-80,-40,-80
112803,8.491,3.189,-0.633,0.106829,-0.707130,-1.399886,99943.88,-80,-40,-80
112813,9.153,2.869,-0.770,0.222297,-0.863571,-1.641464,99943.88,-81,-37,-84
112823,9.751,2.425,-0.693,0.324994,-0.997130,-1.845262,99943.88,-83,-32,-77
112833,10.212,2.057,-0.364,0.418646,-1.096103,-2.020326,99942.65,-80,-31,-84
112843,10.723,1.661,0.056,0.487288,-1.166341,-2.186344,99944.45,-80,-31,-84
112852,11.072,1.183,0.502,0.516022,-1.208378,-2.327886,99941.29,-81,-27,-89
112863,11.457,0.748,0.902,0.499526,-1.236580,-2.459849,99942.13,-83,-22,-84
112873,11.853,0.413,1.237,0.444187,-1.242433,-2.579574,99942.13,-79,-20,-91
112883,12.135,0.184,1.474,0.395765,-1.225405,-2.670564,99945.43,-79,-20,-91
112893,12.387,-0.175,1.479,0.373949,-1.192947,-2.740803,99946.16,-78,-15,-94
112903,12.572,-0.685,1.372,0.339894,-1.169002,-2.787096,99945.29,-79,-9,-89
112913,12.485,-0.878,1.224,0.301050,-1.153038,-2.796142,99945.29,-75,-7,-96
112923,12.138,-0.908,1.159,0.303710,-1.132818,-2.791353,99947.86,-75,-7,-96
112933,11.843,-1.134,1.202,0.316481,-1.124837,-2.775922,99945.39,-74,-3,-99
112943,11.577,-1.520,1.294,0.313820,-1.126965,-2.748785,99945.39,-74,+1,-94
112953,11.354,-1.685,1.394,0.268059,-1.135479,-2.717390,99944.34,-70,+0,-100
112963,10.990,-1.314,1.598,0.234004,-1.137607,-2.661519,99944.41,-70,+0,-100
112973,10.426,-0.900,1.731,0.272316,-1.127497,-2.599794,99944.41,-70,+5,-102
112978,10.125,-0.994,1.825,0.307435,-1.122176,-2.560418,99946.14,-68,+9,-97
112988,9.927,-1.352,1.924,0.319141,-1.116855,-2.523702,99946.08,-68,+9,-97
112998,9.683,-1.746,2.048,0.302114,-1.094506,-2.465702,99941.63,-64,+7,-102
113008,9.439,-1.887,2.216,0.271251,-1.047149,-2.388014,99943.30,-65,+12,-104
113018,9.259,-2.007,2.354,0.256352,-0.984892,-2.297555,99943.30,-64,+14,-99
113028,9.275,-2.255,2.487,0.236132,-0.923699,-2.192198,99944.65,-64,+14,-99
113038,9.215,-2.496,2.662,0.215380,-0.857185,-2.061831,99944.34,-62,+12,-105
113048,9.027,-2.839,2.825,0.186114,-0.787479,-1.911244,99945.80,-63,+16,-106
113058,8.760,-3.251,3.025,0.142481,-0.712984,-1.747886,99942.13,-62,+18,-99
113068,8.415,-3.544,3.272,0.086609,-0.632103,-1.568565,99942.13,-62,+18,-99
113078,8.038,-3.676,3.395,0.048297,-0.547498,-1.388180,99943.98,-62,+15,-106
113088,7.741,-3.838,3.636,0.037123,-0.465553,-1.200345,99944.25,-62,+19,-105
113098,7.723,-3.849,3.948,0.069050,-0.387865,-1.011446,99946.30,-63,+20,-99
113107,7.778,-4.019,4.198,0.129710,-0.304855,-0.817226,99943.14,-63,+20,-99
113118,7.723,-4.443,4.462,0.201013,-0.213865,-0.605446,99943.14,-62,+16,-106
113128,7.662,-4.674,4.874,0.278169,-0.123406,-0.381428,99949.39,-64,+17,-103
113138,7.564,-4.824,5.382,0.380866,-0.024434,-0.143575,99945.03,-65,+16,-98
113148,7.589,-5.284,5.945,0.484095,0.092098,0.101195,99943.41,-65,+16,-98
113158,7.458,-5.973,6.456,0.519215,0.216080,0.352883,99946.23,-63,+11,-102
113168,7.102,-6.124,7.326,0.544224,0.351236,0.601911,99946.23,-66,+11,-100
113178,6.821,-6.235,8.161,0.599563,0.507144,0.833378,99944.02,-66,+7,-94
113188,8.312,-4.917,7.059,0.632022,0.641768,0.992479,99947.11,-66,+7,-94
113198,11.225,0.045,2.967,0.532517,0.733823,0.866369,99943.44,-66,+1,-99
113208,16.965,12.635,-7.823,0.373416,0.368263,0.707268,99946.48,-68,+1,-96
113214,17.300,13.991,-8.008,-0.046950,0.362410,0.395984,99946.48,-68,+1,-96
113223,12.521,4.971,-3.740,0.263270,0.436906,0.297012,99946.48,-68,+0,-91
113233,10.160,-5.150,2.783,1.163599,0.723713,0.804112,99950.91,-69,-7,-95
113244,13.701,-6.029,2.172,1.049728,0.774263,1.406993,99946.77,-70,-7,-90
113253,15.400,-3.791,-0.932,0.067453,0.828538,1.267580,99947.97,-70,-7,-90
113263,14.607,-5.238,-0.754,-0.443904,0.996685,1.029727,99947.46,-71,-11,-85
113273,14.901,-4.587,2.017,-0.538088,1.120134,1.240442,99949.40,-71,-15,-89
113284,13.238,-0.662,5.301,-0.643977,1.235602,1.238314,99945.46,-73,-12,-86
113293,11.173,3.039,6.832,-0.424216,1.324465,1.215965,99945.46,-73,-12,-86
113303,10.101,3.922,6.596,0.132371,1.305841,1.385176,99948.35,-75,-15,-80
113313,8.888,1.126,6.876,0.574022,1.254758,1.553855,99943.84,-75,-22,-83
113324,9.332,-0.990,6.334,0.746957,1.197290,1.592699,99943.84,-79,-23,-77
113333,10.092,-1.963,4.209,0.524004,1.064795,1.551194,99948.14,-79,-23,-77
113343,9.247,-2.664,3.503,0.099912,0.955180,1.451158,99945.83,-77,-27,-72
113353,9.482,-2.287,3.002,-0.159758,0.851951,1.316534,99945.73,-77,-32,-77
113363,10.765,-2.407,2.106,-0.311941,0.763621,1.212240,99945.78,-79,-30,-72
113374,11.106,-2.111,1.711,-0.378455,0.739144,1.134552,99947.48,-79,-30,-72
113383,10.593,-1.143,1.832,-0.338546,0.749254,1.056864,99949.06,-77,-32,-69
113393,9.753,-0.736,2.093,-0.200730,0.767346,0.968534,99946.02,-77,-36,-75
113403,9.375,-0.710,2.090,-0.026198,0.782245,0.880736,99945.86,-80,-34,-69
113413,9.964,-1.308,2.232,0.062132,0.791291,0.796663,99945.86,-80,-34,-69
113423,10.227,-1.433,2.318,0.047233,0.775327,0.757287,99945.86,-78,-38,-65
113433,10.063,-1.241,2.627,-0.057060,0.768942,0.736002,99947.83,-79,-40,-71
113443,9.480,-1.119,3.150,-0.228400,0.745529,0.671085,99946.31,-79,-38,-65
113454,9.159,-0.412,3.356,-0.390693,0.686997,0.614149,99947.20,-79,-38,-65
113464,9.208,0.164,3.746,-0.481152,0.633786,0.543378,99945.16,-79,-40,-64
113473,9.265,0.021,3.767,-0.484344,0.588025,0.500278,99945.16,-80,-42,-69
113483,9.360,-0.075,3.430,-0.433262,0.561951,0.497085,99946.83,-81,-39,-63
113494,9.425,0.257,3.008,-0.356638,0.551841,0.506131,99948.11,-81,-39,-63
113504,9.425,0.415,3.007,-0.247556,0.559823,0.512516,99947.30,-80,-42,-62
113513,9.414,-0.088,3.071,-0.152308,0.567805,0.538057,99947.30,-81,-43,-67
113523,9.237,-0.466,3.375,-0.129427,0.565676,0.560938,99947.30,-81,-41,-60
113533,9.020,-0.527,3.791,-0.164547,0.546520,0.569984,99951.77,-81,-41,-60
113544,9.050,-0.272,3.861,-0.223611,0.511933,0.577966,99946.47,-81,-44,-59
113553,9.204,0.104,3.904,-0.251280,0.489584,0.591268,99948.61,-81,-45,-65
113563,9.238,-0.125,3.642,-0.223611,0.477878,0.616810,99944.83,-81,-43,-59
113573,9.375,-0.756,3.235,-0.163482,0.472557,0.651397,99944.83,-81,-43,-59
113584,9.531,-1.311,3.175,-0.104950,0.475217,0.683855,99949.03,-80,-47,-59
113594,9.615,-1.656,3.134,-0.090583,0.478410,0.709929,99948.36,-81,-49,-62
113603,9.604,-1.352,3.279,-0.117189,0.503951,0.723232,99946.31,-81,-47,-56
113613,9.407,-1.085,3.437,-0.170932,0.528961,0.722167,99945.02,-81,-47,-56
113624,9.326,-1.043,3.570,-0.195409,0.546520,0.733874,99947.02,-80,-52,-56
113634,9.398,-1.014,3.539,-0.194345,0.570465,0.759947,99946.34,-82,-53,-61
113643,9.284,-1.079,3.475,-0.195409,0.599199,0.798259,99946.34,-81,-51,-53
113653,9.269,-0.996,3.427,-0.173060,0.620483,0.854663,99947.65,-81,-51,-53
113664,9.301,-0.846,3.575,-0.128363,0.649749,0.914791,99944.87,-79,-55,-54
113673,9.136,-0.894,3.641,-0.104418,0.692850,0.986094,99944.87,-81,-57,-57
113684,9.181,-1.091,3.744,-0.107611,0.735242,1.061121,99948.25,-80,-56,-51
113693,9.210,-1.216,3.818,-0.111336,0.768942,1.131360,99948.25,-78,-60,-52
113703,9.403,-1.395,4.020,-0.149115,0.806722,1.194149,99946.44,-78,-60,-52
113714,9.899,-1.760,4.046,-0.220418,0.831199,1.248424,99946.66,-79,-62,-54
113724,10.225,-2.370,4.094,-0.302363,0.856740,1.293653,99945.67,-78,-63,-47
113733,10.240,-2.784,4.012,-0.405592,0.881217,1.331433,99947.83,-76,-67,-49
113743,10.624,-3.029,3.799,-0.517335,0.883878,1.362828,99946.73,-76,-67,-49
113754,11.250,-2.841,3.698,-0.591299,0.896116,1.409121,99945.36,-77,-68,-52
113763,11.649,-2.309,3.460,-0.633335,0.918465,1.489470,99945.36,-75,-68,-45
113773,12.052,-1.945,3.576,-0.631207,0.943474,1.611323,99945.36,-73,-73,-48
113783,12.301,-2.183,3.393,-0.618968,0.970080,1.754992,99950.46,-73,-73,-48
113794,12.265,-2.287,3.396,-0.649298,1.025951,1.899194,99948.99,-74,-75,-50
113804,12.635,-2.232,3.493,-0.705702,1.065859,2.029029,99946.57,-71,-76,-43
113813,13.295,-2.358,3.485,-0.781262,1.110024,2.128534,99946.05,-69,-81,-46
113823,13.610,-2.372,3.296,-0.872252,1.164832,2.223781,99946.05,-69,-81,-46
113833,13.605,-1.842,3.168,-0.990913,1.213786,2.319561,99948.66,-69,-83,-47
113844,13.928,-1.164,3.017,-1.099995,1.253694,2.411084,99944.77,-66,-84,-41
113854,15.233,-0.872,2.886,-1.211206,1.248905,2.489304,99946.55,-64,-89,-46
113863,17.704,0.418,3.140,-1.313372,1.168556,2.578166,99946.55,-64,-89,-46
113873,19.764,2.615,3.117,-1.531537,1.180263,2.663836,99948.43,-63,-91,-47
113884,20.128,2.765,2.024,-2.022142,1.333511,2.650001,99948.43,-60,-93,-43
113893,20.858,2.810,0.253,-2.795829,1.413859,2.499946,99943.91,-57,-95,-50
113903,21.872,6.646,0.046,-3.511517,1.431419,2.354680,99947.96,-57,-95,-50
113913,20.180,10.152,2.172,-3.674342,1.473455,2.402570,99944.76,-58,-94,-56
113924,17.737,4.266,6.643,-2.938967,1.412795,2.798460,99944.76,-55,-94,-52
113934,19.983,-5.475,8.318,-1.587940,1.172281,3.461468,99944.24,-52,-98,-59
113943,21.599,-8.828,7.821,-0.841390,1.049896,3.899927,99945.55,-52,-98,-59
113953,20.335,-6.116,7.935,-0.803610,1.140887,3.820642,99947.91,-49,-103,-59
113964,18.175,-0.380,6.441,-0.536491,1.306905,3.492331,99945.41,-43,-108,-53
113974,14.063,4.547,4.359,-0.159225,1.318079,3.083671,99949.50,-41,-112,-58
113984,10.167,6.434,3.528,0.199417,0.956777,2.644148,99945.88,-41,-112,-58
113993,5.719,-1.455,6.348,0.726737,0.550777,2.096075,99945.88,-40,-115,-55
114003,6.877,-1.345,4.737,0.725673,0.192135,1.565561,99947.09,-35,-118,-48
114014,8.328,1.781,0.672,0.247306,-0.040929,0.742920,99947.14,-36,-121,-53
114023,6.827,4.062,0.047,-0.075152,-0.250048,-0.052052,99947.14,-36,-121,-53
114034,5.289,3.419,0.360,-0.275757,-0.593614,-0.481997,99946.47,-38,-120,-53
114043,3.924,1.890,0.497,-0.160822,-0.860910,-0.737942,99946.47,-38,-118,-49
114054,3.195,0.265,0.517,0.114811,-1.105149,-1.057208,99948.63,-40,-118,-56
114064,3.259,-0.701,0.569,0.443123,-1.311607,-1.423299,99942.91,-40,-118,-56
114073,3.689,-1.289,0.649,0.651178,-1.520194,-1.808547,99942.91,-42,-115,-54
114083,4.255,-1.611,0.720,0.721948,-1.751662,-2.179427,99943.39,-42,-113,-51
114094,4.721,-1.600,0.738,0.757600,-1.965038,-2.553500,99941.11,-45,-112,-58
114104,5.188,-1.348,1.081,0.816664,-2.137442,-2.904693,99939.73,-48,-112,-58
114113,5.573,-0.878,1.458,0.934792,-2.265148,-3.204270,99939.73,-48,-107,-57
114123,6.056,-0.391,1.833,1.220535,-2.351882,-3.441591,99939.73,-49,-106,-54
114134,6.644,-0.549,2.561,1.629195,-2.422652,-3.657096,99941.88,-53,-104,-59
114144,7.324,-2.043,3.126,1.846296,-2.524285,-3.840674,99940.41,-57,-100,-55
114153,7.735,-3.077,3.471,1.767544,-2.650928,-4.031169,99938.30,-57,-100,-55
114163,8.159,-2.706,4.147,1.647819,-2.744579,-4.232839,99939.62,-60,-100,-51
114173,8.898,-2.707,4.808,1.558425,-2.809496,-4.414820,99939.62,-68,-99,-58
114184,9.681,-3.142,5.067,1.491379,-2.853129,-4.596802,99941.98,-75,-93,-54
114194,10.553,-3.774,4.868,1.363673,-2.885588,-4.793150,99941.08,-75,-93,-54
114204,11.638,-4.419,4.559,1.173177,-2.901019,-4.968214,99941.36,-84,-90,-53
114213,12.696,-5.115,4.431,0.986407,-2.896230,-5.092196,99941.36,-94,-84,-62
114224,13.475,-5.829,4.714,0.758664,-2.889313,-5.195957,99942.62,-103,-72,-64
114234,13.868,-6.173,5.747,0.402682,-2.864304,-5.294930,99942.62,-103,-72,-64
114243,14.093,-5.859,7.343,0.132903,-2.801515,-5.402948,99940.21,-110,-61,-68
114253,14.255,-6.122,8.204,0.039252,-2.734469,-5.486489,99940.15,-117,-48,-80
114264,14.480,-6.948,8.227,-0.032583,-2.657313,-5.491278,99945.35,-119,-30,-84
114274,14.741,-7.100,7.933,-0.145391,-2.541845,-5.441792,99945.35,-119,-30,-84
114284,14.898,-6.847,7.684,-0.273097,-2.381680,-5.374746,99943.95,-122,-15,-89
114293,14.799,-6.848,7.561,-0.415170,-2.194909,-5.282159,99945.52,-121,+0,-101
114304,14.607,-7.032,7.609,-0.580124,-1.993772,-5.158177,99944.11,-119,+17,-102
114314,14.078,-7.126,7.732,-0.712620,-1.769754,-5.002801,99943.55,-119,+17,-102
114324,13.278,-7.369,7.777,-0.780730,-1.522855,-4.814435,99944.91,-116,+30,-106
114333,12.580,-8.366,7.757,-0.806803,-1.271699,-4.605315,99945.65,-114,+44,-114
114343,11.626,-9.732,7.578,-0.907904,-1.039699,-4.314251,99943.98,-108,+59,-112
114354,10.163,-10.256,7.432,-0.964840,-0.798653,-3.889628,99943.98,-108,+59,-112
114364,9.000,-10.589,7.276,-0.882895,-0.564525,-3.370821,99945.02,-106,+69,-114
114373,8.461,-11.287,7.197,-0.681225,-0.349021,-2.738142,99945.02,-101,+81,-119
114383,8.199,-12.543,7.280,-0.420491,-0.152672,-2.013941,99947.97,-99,+87,-115
114394,7.630,-13.382,7.717,-0.123042,0.038887,-1.200345,99947.55,-99,+87,-115
114404,7.207,-13.857,8.210,0.193563,0.235768,-0.340988,99947.55,-97,+90,-116
114414,7.023,-13.534,8.662,0.489416,0.459254,0.475801,99947.70,-99,+91,-119
114423,7.199,-12.972,9.043,0.769838,0.692850,1.223947,99947.70,-100,+89,-114
114434,8.555,-11.782,8.613,1.020994,0.923786,1.845451,99949.14,-100,+89,-114
114444,11.771,-4.136,5.411,1.223196,1.051492,2.077983,99948.41,-104,+83,-115
114454,18.495,13.261,-6.422,1.392407,0.862061,1.871524,99950.72,-108,+79,-117
114463,18.599,18.142,-8.534,0.564976,0.873768,1.267048,99950.72,-109,+76,-111
114473,8.047,-5.846,-0.594,1.721783,1.127052,1.184571,99950.72,-109,+76,-111
114484,14.828,-13.334,3.714,2.617323,1.145676,2.366387,99951.02,-113,+67,-111
114494,24.629,-5.301,-0.153,1.051856,1.049364,2.636698,99950.82,-116,+59,-114
114504,19.493,-7.631,0.356,-0.088810,1.381932,2.207995,99949.59,-119,+57,-105
114513,15.671,-7.195,3.251,0.176004,1.483033,2.582955,99949.59,-119,+57,-105
114524,12.958,-1.821,7.411,0.288811,1.634685,2.559010,99949.59,-122,+48,-104
114534,10.461,-0.102,8.134,0.398958,1.635217,2.166846,99950.50,-124,+44,-104
114544,9.703,-1.338,7.375,0.416517,1.497400,2.003488,99948.05,-127,+39,-95
114553,7.892,-1.035,9.001,0.471857,1.435676,1.917818,99946.91,-128,+39,-95
114564,8.205,-0.386,8.388,0.616058,1.348942,1.747011,99946.91,-128,+33,-94
114574,10.143,-2.880,4.567,0.336169,1.103107,1.597488,99947.55,-132,+30,-94
114584,10.423,-4.752,3.708,-0.203923,0.966355,1.535763,99947.55,-132,+27,-87
114593,10.715,-2.704,3.226,-0.642381,0.876428,1.476699,99948.98,-134,+23,-88
114604,10.849,-1.769,2.673,-0.987188,0.766281,1.364956,99948.76,-134,+23,-88
114614,10.426,-0.764,2.457,-1.095206,0.689126,1.264387,99948.02,-135,+24,-89
114624,10.022,0.682,2.362,-0.860546,0.655071,1.111672,99948.02,-134,+22,-82
114634,10.173,1.122,2.173,-0.347060,0.660392,1.003653,99951.25,-136,+18,-84
114643,10.302,0.238,2.071,0.031802,0.683272,1.012167,99950.36,-136,+18,-84
114654,10.235,-0.327,2.461,0.104701,0.687529,1.068039,99949.11,-138,+18,-84
114664,9.877,-0.170,2.661,0.025949,0.680612,1.077085,99948.35,-137,+15,-77
114674,9.264,-0.682,2.858,-0.053336,0.678483,1.022277,99948.35,-138,+11,-79
114683,8.905,-1.042,3.229,-0.153904,0.666245,0.948846,99947.35,-138,+11,-79
114694,8.930,-0.519,4.159,-0.427941,0.643896,0.844020,99948.40,-139,+10,-80
114704,8.759,0.155,4.614,-0.813188,0.577915,0.764736,99948.40,-139,+10,-73
114714,8.707,0.529,4.054,-0.953665,0.505016,0.709929,99946.98,-139,+9,-77
114723,9.082,0.956,2.920,-0.806271,0.478410,0.670553,99946.98,-139,+9,-77
114734,9.469,0.263,2.244,-0.527977,0.500227,0.704608,99952.81,-141,+9,-76
114744,9.713,-0.947,2.484,-0.311409,0.537474,0.784956,99948.34,-140,+7,-71
114754,9.517,-1.292,2.998,-0.252877,0.560887,0.828589,99951.34,-141,+5,-74
114764,9.064,-0.993,3.724,-0.285335,0.575786,0.807305,99947.77,-141,+5,-74
114774,8.804,-0.792,4.051,-0.368345,0.565144,0.793470,99947.77,-141,+5,-72
114784,8.934,-0.867,3.815,-0.435390,0.542263,0.803580,99949.85,-141,+3,-66
114794,9.140,-1.042,3.437,-0.422620,0.527896,0.814222,99945.63,-142,+1,-71
114804,9.305,-1.098,3.380,-0.374198,0.527896,0.824332,99945.10,-142,+1,-71
114813,9.435,-1.244,3.285,-0.351849,0.529493,0.842956,99945.10,-143,+1,-70
114824,9.519,-1.257,3.126,-0.322583,0.542263,0.862112,99945.10,-143,+0,-64
114834,9.585,-1.432,3.224,-0.300234,0.566208,0.882332,99948.73,-143,-3,-67
114844,9.585,-1.517,3.451,-0.312473,0.586428,0.906809,99949.57,-143,-3,-67
114853,9.566,-1.271,3.522,-0.330565,0.607181,0.926498,99946.90,-143,-3,-66
114864,9.432,-1.188,3.667,-0.339079,0.631126,0.957892,99950.15,-142,-5,-60
114874,9.417,-1.157,3.682,-0.354510,0.657199,0.994075,99950.15,-143,-9,-64
114884,9.464,-1.150,3.703,-0.378455,0.690722,1.026534,99948.89,-143,-9,-64
114894,9.318,-1.013,3.864,-0.408785,0.724777,1.079745,99949.38,-144,-9,-61
114904,9.590,-1.054,4.015,-0.436455,0.755107,1.137213,99948.03,-143,-11,-56
114914,9.875,-1.146,4.122,-0.464656,0.784373,1.190956,99948.03,-143,-15,-59
114924,10.180,-1.567,4.125,-0.509886,0.808318,1.258534,99949.05,-143,-15,-59
114934,10.180,-1.783,4.142,-0.569482,0.834924,1.338883,99949.05,-143,-15,-56
114944,10.799,-1.751,4.031,-0.632803,0.850355,1.415506,99949.16,-142,-19,-51
114954,11.604,-1.958,3.884,-0.667922,0.864722,1.475103,99951.41,-143,-23,-54
114964,11.870,-2.524,3.468,-0.698253,0.899309,1.565561,99950.48,-143,-23,-54
114974,11.765,-2.648,2.935,-0.724149,0.953762,1.685463,99949.52,-141,-24,-51
114983,11.778,-2.370,2.909,-0.721133,0.972740,1.801818,99949.52,-141,-28,-46
114994,12.106,-2.483,3.119,-0.655152,0.982318,1.935910,99947.58,-139,-33,-49
115004,12.289,-2.350,3.334,-0.619500,1.011052,2.073726,99946.89,-138,-33,-49
115014,12.434,-2.176,3.589,-0.630143,1.047768,2.204625,99947.31,-138,-35,-46
115024,12.740,-2.194,3.761,-0.674308,1.081823,2.298277,99948.16,-134,-41,-40
115034,12.989,-2.019,3.802,-0.772216,1.123327,2.371708,99948.43,-133,-45,-44
115044,13.514,-1.299,3.811,-0.914821,1.163235,2.462166,99949.10,-130,-47,-41
115054,15.123,-0.240,4.004,-1.045188,1.152061,2.552625,99949.10,-130,-47,-41
115064,17.394,1.188,4.113,-1.157463,1.133437,2.657983,99946.85,-125,-53,-36
115074,18.971,2.375,3.421,-1.393188,1.207400,2.743652,99946.85,-123,-57,-40
115084,19.927,2.400,1.841,-1.866766,1.304245,2.699487,99949.02,-119,-59,-37
115094,21.671,4.253,0.192,-2.465921,1.322868,2.580295,99947.65,-119,-59,-37
115104,23.045,7.710,-0.541,-2.999627,1.311162,2.505267,99950.16,-113,-61,-35
115115,21.911,8.911,0.581,-3.288031,1.315419,2.613818,99948.07,-111,-61,-43
115124,18.558,3.381,4.866,-3.125205,1.260611,2.898496,99948.07,-106,-61,-41
115134,17.547,-6.012,6.995,-2.403132,1.125988,3.280019,99947.77,-106,-61,-41
115144,18.132,-9.952,7.437,-1.841224,0.933364,3.560973,99946.22,-99,-65,-38
115154,18.515,-6.813,10.502,-1.252711,0.969547,3.376863,99947.53,-94,-67,-43
115164,17.430,-3.447,10.347,-0.461464,1.265933,3.123579,99947.53,-89,-70,-38
115174,13.539,1.145,7.137,-0.015024,1.149400,2.999597,99947.53,-89,-70,-38
115184,10.626,5.043,4.401,0.384591,0.756704,2.581359,99951.19,-83,-73,-34
115194,5.444,-1.025,5.326,0.843801,0.470961,2.066277,99949.61,-82,-76,-36
115204,7.045,0.464,1.933,0.920957,0.167126,1.595892,99946.47,-79,-78,-31
115214,8.054,3.691,-1.319,0.596903,-0.046782,0.736534,99949.81,-79,-78,-31
115224,6.984,5.287,-1.113,0.460150,-0.255901,0.027764,99949.81,-77,-78,-30
115234,5.943,3.954,-0.202,0.484095,-0.558672,-0.315447,99948.69,-80,-76,-36
115245,4.411,1.842,0.000,0.650646,-0.833240,-0.590015,99946.73,-79,-74,-34
115254,3.668,-0.259,0.455,0.812939,-1.037571,-0.922584,99944.22,-79,-74,-34
115264,3.713,-0.956,1.039,0.943838,-1.229662,-1.313152,99944.22,-78,-73,-35
115274,4.011,-0.987,1.629,0.985343,-1.399937,-1.723409,99944.44,-82,-71,-42
115283,4.455,-0.911,1.675,1.025783,-1.581387,-2.105996,99944.44,-82,-69,-40
115294,5.047,-1.029,1.531,1.076333,-1.742616,-2.466766,99945.28,-82,-69,-40
115304,5.545,-1.218,1.479,1.094425,-1.884689,-2.762619,99945.70,-83,-67,-43
115314,5.921,-1.040,1.380,1.038021,-2.004946,-3.008986,99945.81,-88,-63,-51
115324,6.331,-0.781,1.542,0.972040,-2.108176,-3.238858,99945.81,-90,-59,-50
115334,6.725,-0.630,2.087,0.990664,-2.201827,-3.466069,99943.94,-90,-59,-50
115344,7.031,-0.909,2.835,1.016737,-2.296010,-3.689554,99942.47,-92,-58,-55
115354,7.546,-1.703,3.560,1.040682,-2.400304,-3.908784,99942.05,-98,-52,-64
115364,8.051,-2.435,3.917,1.084315,-2.478524,-4.121628,99940.42,-101,-48,-65
115375,8.701,-2.998,4.038,1.096554,-2.529074,-4.312655,99944.58,-101,-48,-65
115384,9.550,-3.375,3.967,1.057177,-2.578028,-4.493040,99942.16,-105,-43,-71
115394,10.406,-3.533,3.852,0.973104,-2.622194,-4.672894,99941.53,-110,-34,-81
115404,11.203,-3.509,3.936,0.843801,-2.666891,-4.844765,99941.53,-113,-24,-84
115415,11.828,-3.403,4.176,0.709178,-2.711056,-5.010251,99945.42,-113,-24,-84
115424,12.580,-3.468,4.372,0.654370,-2.732340,-5.152856,99945.42,-114,-14,-92
115434,13.347,-3.921,4.694,0.670866,-2.728616,-5.270985,99946.67,-114,-1,-104
115444,14.000,-4.497,5.236,0.676719,-2.712120,-5.363572,99942.42,-112,+11,-108
115454,14.486,-5.156,5.872,0.605416,-2.704139,-5.423168,99944.73,-107,+11,-108
115465,14.871,-5.680,6.447,0.458554,-2.710524,-5.463076,99943.53,-107,+22,-116
115474,15.361,-5.999,6.810,0.280297,-2.702542,-5.503517,99943.53,-102,+35,-127
115484,15.912,-6.306,6.995,0.027545,-2.671148,-5.514159,99946.98,-95,+49,-129
115494,16.234,-6.066,7.195,-0.248620,-2.599313,-5.497663,99946.02,-86,+60,-135
115505,16.083,-5.115,7.410,-0.419959,-2.465221,-5.468930,99944.00,-86,+60,-135
115514,15.433,-4.306,7.842,-0.441776,-2.269937,-5.425296,99944.00,-77,+74,-141
115524,14.949,-4.819,8.120,-0.434326,-2.017717,-5.361976,99944.00,-68,+84,-139
115534,14.527,-6.702,8.002,-0.527445,-1.720267,-5.278434,99946.01,-61,+91,-143
115545,13.991,-9.261,7.583,-0.844583,-1.409515,-5.135297,99945.85,-61,+91,-143
115554,12.877,-10.869,7.091,-1.152674,-1.072690,-4.779315,99945.54,-55,+100,-144
115564,11.382,-11.977,6.730,-1.241005,-0.743314,-4.248802,99946.65,-52,+110,-140
115574,9.603,-14.010,6.645,-1.215463,-0.472470,-3.490013,99946.65,-50,+116,-142
115585,7.594,-16.076,7.299,-1.119151,-0.234617,-2.488583,99947.84,-50,+116,-142
115595,6.009,-16.494,8.491,-0.872785,-0.010067,-1.295061,99947.84,-50,+122,-142
115604,5.571,-14.821,9.278,-0.333225,0.228319,-0.081850,99945.92,-53,+122,-138
115614,6.634,-12.629,9.989,0.410664,0.498630,0.987690,99945.92,-57,+118,-141
115624,7.466,-11.831,10.102,1.134333,0.760960,1.888552,99950.08,-57,+118,-141
115635,7.768,-12.034,9.600,1.649948,1.006263,2.594130,99949.56,-62,+111,-142
115644,11.840,-4.469,5.429,1.916003,1.147804,2.854331,99949.56,-69,+101,-139
115654,18.047,14.544,-4.854,1.745727,1.053621,2.399377,99947.94,-73,+91,-142
115664,21.285,26.032,-10.508,0.671398,0.976997,1.556515,99950.08,-73,+91,-142
115674,9.726,-3.120,-1.676,1.638773,1.339364,1.270773,99950.08,-79,+87,-141
115684,13.715,-15.582,5.016,3.224993,1.317015,2.882533,99951.94,-84,+77,-138
115694,22.836,-7.964,1.603,1.670168,1.174410,3.512551,99949.52,-90,+63,-139
115704,19.766,-5.805,1.530,0.353196,1.468134,2.845818,99950.20,-90,+63,-139
115715,14.772,-4.871,4.261,0.887967,1.603822,3.208716,99950.47,-95,+58,-137
115725,12.896,-2.488,6.189,1.188609,1.661290,3.337487,99950.00,-100,+49,-130
115734,8.861,-2.212,7.071,1.190205,1.735253,2.906478,99948.16,-104,+38,-130
115744,8.788,-3.048,5.591,1.049196,1.644795,2.574441,99950.00,-104,+38,-130
115755,8.719,-4.268,6.516,0.670334,1.525602,2.347763,99950.00,-109,+31,-128
115764,8.514,-3.989,9.808,0.433545,1.578813,2.129598,99949.09,-112,+27,-122
115774,11.523,-3.982,4.177,0.162169,1.411731,1.980075,99949.09,-115,+19,-122
115784,12.423,-8.208,2.841,-0.612051,1.293070,1.970497,99950.23,-115,+19,-122
115794,10.584,-4.947,3.807,-1.020711,1.278171,1.955598,99948.81,-117,+19,-119
115805,9.843,-1.663,3.380,-1.363390,1.132905,1.779469,99946.61,-119,+17,-114
115814,9.620,-2.270,3.140,-1.337317,0.979125,1.577800,99947.45,-120,+14,-116
115824,10.139,-2.002,2.987,-0.940363,0.878557,1.354846,99947.45,-120,+14,-116
115834,10.729,-1.217,3.144,-0.517335,0.827474,1.126039,99953.39,-123,+13,-115
115845,10.418,-1.296,3.414,-0.228400,0.790226,1.030791,99948.91,-123,+14,-110
115855,9.743,-1.520,3.855,-0.095904,0.737015,0.990351,99947.31,-125,+9,-112
115864,9.611,-1.850,3.856,-0.098033,0.649217,0.904149,99947.31,-125,+9,-112
115874,9.635,-1.830,3.698,-0.124638,0.570997,0.771121,99947.31,-126,+9,-110
115885,9.466,-1.223,3.602,-0.109739,0.503951,0.656186,99953.82,-125,+9,-107
115894,9.164,-0.977,3.429,-0.113996,0.455529,0.585947,99950.35,-127,+5,-110
115904,9.100,-1.297,3.485,-0.217225,0.419346,0.517305,99949.82,-128,+5,-110
115914,9.310,-0.995,3.899,-0.392289,0.381566,0.434296,99948.77,-128,+6,-106
115924,9.199,-0.012,3.918,-0.544473,0.349107,0.380553,99948.77,-128,+7,-104
115935,8.904,0.333,3.510,-0.569482,0.335273,0.363525,99951.45,-128,+4,-107
115944,9.012,0.043,3.085,-0.459867,0.341658,0.378424,99948.55,-129,+6,-106
115954,9.207,-0.103,2.686,-0.280546,0.370924,0.410351,99950.60,-129,+6,-106
115964,9.045,-0.068,2.657,-0.070895,0.415089,0.454516,99950.60,-130,+5,-102
115975,8.798,-0.211,2.809,0.120132,0.459254,0.522626,99950.25,-130,+1,-105
115985,8.717,-0.894,3.025,0.183985,0.492245,0.595525,99950.94,-131,+2,-102
115994,8.856,-1.386,3.615,0.068518,0.522575,0.629580,99950.94,-131,+2,-102
116004,8.973,-0.995,3.890,-0.140602,0.536942,0.634901,99948.63,-130,+0,-99
116015,9.128,-0.484,3.749,-0.249152,0.541199,0.647672,99948.83,-133,-1,-102
116024,9.426,-0.637,3.168,-0.237978,0.559291,0.690241,99948.83,-134,-1,-99
116030,9.629,-1.188,2.713,-0.217225,0.591217,0.735470,99950.16,-134,-1,-99
116039,9.615,-1.496,2.664,-0.203923,0.626869,0.785488,99947.27,-133,-3,-96
116049,9.739,-1.474,3.174,-0.226271,0.675823,0.834442,99946.00,-133,-3,-96
116060,9.737,-1.474,3.486,-0.305556,0.723181,0.872222,99949.47,-136,-6,-99
116069,9.840,-1.439,3.642,-0.419959,0.754575,0.909470,99949.47,-136,-7,-96
116079,9.735,-0.987,3.814,-0.465721,0.787566,0.962149,99951.41,-136,-7,-92
116089,9.519,-0.635,4.119,-0.470510,0.817896,1.032919,99949.10,-136,-7,-92
116100,9.590,-0.649,4.409,-0.479023,0.828006,1.101562,99948.15,-138,-11,-95
116110,9.852,-1.360,4.276,-0.512014,0.825878,1.162222,99948.57,-138,-11,-91
116119,9.987,-1.748,4.350,-0.568418,0.866318,1.218626,99948.57,-138,-14,-87
116129,10.349,-1.966,4.547,-0.698785,0.917401,1.222883,99948.95,-138,-14,-87
116140,10.486,-2.156,4.416,-0.791904,0.951456,1.256938,99949.22,-139,-17,-89
116150,10.782,-2.298,4.264,-0.871188,0.980190,1.305892,99948.38,-140,-17,-85
116159,11.414,-2.270,3.545,-0.920675,0.967419,1.394222,99947.17,-140,-20,-82
116169,12.312,-2.482,3.184,-0.876509,0.967419,1.507029,99947.17,-141,-20,-84
116179,12.386,-2.895,2.689,-0.800418,1.000410,1.662937,99949.24,-141,-23,-84
116190,12.389,-2.852,2.366,-0.756785,1.033401,1.817249,99948.73,-141,-25,-79
116199,12.646,-2.893,2.465,-0.691335,1.032869,1.973157,99945.63,-141,-30,-77
116209,13.091,-2.687,2.941,-0.638124,1.036061,2.130662,99947.99,-141,-35,-77
116219,13.600,-2.300,3.253,-0.626950,1.053621,2.276992,99947.99,-141,-35,-77
116230,14.076,-1.752,3.453,-0.679629,1.081290,2.412680,99948.56,-139,-38,-73
116240,14.851,-1.102,3.510,-0.795097,1.126520,2.524423,99947.25,-138,-44,-69
116249,15.915,-0.697,3.144,-0.987188,1.193034,2.637230,99947.31,-138,-49,-71
116259,17.318,0.350,3.311,-1.246326,1.204208,2.748441,99947.83,-138,-49,-71
116264,18.751,1.754,3.438,-1.441078,1.170153,2.821341,99947.83,-136,-53,-65
116275,20.136,2.980,2.836,-1.711390,1.186648,2.862845,99947.83,-136,-53,-65
116285,21.232,3.762,1.461,-2.315866,1.296795,2.809634,99948.60,-134,-59,-65
116294,21.944,5.500,-0.116,-3.107646,1.370758,2.646276,99950.54,-134,-63,-67
116304,21.605,8.769,-0.263,-3.769058,1.336171,2.529212,99947.76,-131,-62,-64
116315,19.129,9.613,2.203,-3.803113,1.286153,2.582955,99949.80,-131,-62,-64
116325,16.880,2.705,6.646,-2.858618,1.199951,2.958625,99947.81,-128,-63,-67
116335,18.937,-5.463,7.659,-1.552821,0.988703,3.594496,99945.77,-127,-69,-69
116344,20.406,-6.301,7.935,-0.992509,0.800337,3.802551,99945.77,-122,-77,-64
116355,20.411,-3.931,8.891,-0.923335,0.750318,3.530111,99945.50,-122,-77,-64
116365,17.643,0.699,8.115,-0.573207,0.890263,3.218294,99946.91,-117,-84,-62
116374,12.587,4.377,5.874,0.039784,1.006263,2.946918,99946.91,-117,-92,-62
116384,9.174,6.708,5.837,0.626701,0.707749,2.529744,99946.67,-112,-98,-56
116395,5.231,-1.406,7.883,1.283856,0.332080,2.071066,99947.89,-108,-103,-54
116405,8.758,-1.778,4.276,1.266297,0.033034,1.400075,99946.47,-108,-103,-54
116415,8.754,1.286,1.209,0.852315,-0.138305,0.451324,99944.11,-109,-108,-54
116424,6.246,4.276,0.529,0.800168,-0.364984,-0.247869,99950.04,-108,-107,-49
116434,5.208,3.198,0.395,0.808150,-0.699149,-0.628327,99946.26,-107,-107,-51
116445,4.814,0.848,-0.106,0.951820,-1.003516,-0.979520,99944.85,-107,-107,-51
116455,4.534,-0.911,-0.202,0.953948,-1.257332,-1.347740,99942.74,-109,-106,-54
116464,4.598,-1.518,0.259,0.860829,-1.498910,-1.750015,99942.74,-108,-103,-52
116474,4.458,-1.609,1.158,0.741636,-1.713350,-2.197519,99942.74,-108,-100,-56
116485,4.170,-1.198,1.512,0.690022,-1.907570,-2.622142,99946.43,-108,-100,-56
116495,4.269,-0.698,1.568,0.733123,-2.052836,-3.038784,99947.12,-111,-96,-61
116500,4.776,-0.465,1.406,0.798040,-2.124671,-3.309628,99946.43,-111,-96,-61
116509,5.430,-0.181,1.039,0.939581,-2.172561,-3.519279,99945.59,-112,-90,-60
116519,6.174,-0.378,1.376,1.158278,-2.213533,-3.754472,99945.59,-114,-85,-64
116530,6.842,-1.271,2.038,1.287049,-2.303992,-3.953481,99943.59,-118,-81,-70
116540,7.337,-2.317,2.645,1.273214,-2.402964,-4.150894,99941.38,-118,-81,-70
116549,7.698,-3.362,3.202,1.124223,-2.456707,-4.387682,99941.12,-120,-73,-71
116559,8.151,-3.328,3.467,0.920957,-2.505129,-4.629261,99938.60,-122,-66,-76
116570,8.672,-2.905,3.441,0.853912,-2.537588,-4.867114,99938.60,-127,-57,-84
116580,9.319,-3.093,3.346,0.870407,-2.571643,-5.095921,99941.45,-127,-57,-84
116589,10.224,-3.779,3.189,0.850187,-2.622726,-5.292269,99941.49,-128,-45,-87
116599,11.618,-4.387,3.062,0.701196,-2.687111,-5.462544,99944.76,-128,-33,-95
116610,13.168,-4.628,3.289,0.512297,-2.729148,-5.597168,99943.38,-129,-20,-105
116620,14.100,-4.900,3.700,0.421838,-2.735001,-5.700929,99943.38,-129,-20,-105
116630,14.323,-5.617,4.817,0.282426,-2.717973,-5.750947,99943.53,-125,-6,-107
116639,14.709,-5.908,6.502,0.136628,-2.667423,-5.804691,99946.31,-119,+7,-117
116649,15.331,-6.369,7.698,0.065857,-2.623258,-5.852581,99939.59,-114,+21,-125
116660,15.951,-6.944,8.097,0.046701,-2.558340,-5.838214,99944.84,-105,+34,-128
116670,16.499,-7.165,8.088,0.082885,-2.466817,-5.789792,99944.84,-105,+34,-128
116679,17.124,-7.832,7.828,0.045105,-2.366249,-5.729131,99941.66,-97,+45,-136
116689,17.136,-8.465,7.542,-0.110271,-2.267276,-5.600361,99943.44,-91,+56,-141
116700,16.158,-8.396,7.587,-0.252345,-2.145955,-5.383260,99945.23,-82,+66,-142
116710,15.034,-8.178,7.918,-0.266712,-1.951203,-5.126783,99942.70,-82,+66,-142
116719,13.890,-9.079,8.392,-0.256069,-1.678231,-4.841572,99942.70,-75,+73,-147
116729,12.511,-10.312,8.661,-0.372601,-1.365350,-4.517517,99944.36,-70,+82,-151
116736,11.434,-10.880,8.646,-0.508822,-1.117919,-4.224857,99947.05,-70,+82,-151
116745,10.274,-11.530,8.597,-0.593427,-0.857717,-3.847591,99947.05,-64,+89,-150
116755,8.909,-12.811,8.181,-0.643445,-0.531534,-3.204270,99947.05,-60,+94,-152
116765,7.840,-13.971,7.812,-0.618968,-0.231424,-2.365133,99946.63,-60,+94,-152
116774,6.857,-14.228,7.797,-0.422620,0.028777,-1.396694,99946.63,-59,+100,-154
116785,6.525,-14.009,7.872,-0.117189,0.244282,-0.389410,99948.86,-58,+100,-151
116795,6.723,-12.963,7.960,0.288279,0.458722,0.556149,99948.52,-58,+97,-154
116805,7.118,-12.583,7.863,0.812939,0.663052,1.389433,99948.56,-58,+97,-154
116814,7.474,-12.976,7.574,1.359416,0.835988,2.099800,99948.56,-62,+93,-155
116825,8.607,-12.465,6.931,1.700498,1.000942,2.696827,99948.56,-64,+84,-153
116835,12.584,-0.497,3.992,1.636113,1.090868,2.759084,99948.66,-66,+73,-157
116845,20.147,25.785,-6.397,1.009820,0.907291,1.900790,99950.30,-69,+73,-157
116854,16.802,21.592,-7.552,-0.707298,1.051492,0.560406,99953.29,-69,+69,-157
116865,8.569,-12.995,1.123,0.726737,1.284556,0.509856,99950.98,-71,+69,-154
116875,18.509,-17.204,3.150,1.328553,0.822685,2.610625,99950.98,-72,+59,-157
116885,26.215,-3.459,-0.019,-0.625886,0.880685,2.599451,99951.47,-76,+58,-155
116895,20.350,-2.051,2.947,-1.077115,1.231878,2.123744,99950.39,-76,+58,-155
116904,13.805,-1.729,6.214,0.007325,1.409070,2.883597,99946.38,-77,+56,-151
116915,11.100,-2.204,6.366,0.600095,1.454299,2.950643,99946.38,-80,+48,-153
116925,10.334,-3.593,4.828,0.667141,1.403217,2.586148,99951.28,-85,+41,-150
116934,9.402,-2.943,6.541,0.568169,1.364373,2.391396,99951.28,-85,+41,-150
116944,7.859,-0.883,10.551,0.709710,1.373419,2.129598,99947.72,-86,+37,-145
116955,9.391,-0.812,7.366,0.886902,1.248905,1.881102,99948.08,-90,+29,-147
116965,11.852,-4.526,2.738,0.568169,1.049896,1.849176,99948.45,-93,+24,-144
116970,11.727,-6.163,2.844,0.293600,1.011584,1.861414,99948.45,-93,+24,-144
116980,10.212,-4.042,3.745,0.085013,0.979658,1.802882,99951.69,-93,+21,-140
116989,9.829,-2.806,3.395,-0.302363,0.858337,1.665066,99951.31,-93,+21,-140
117000,9.999,-3.437,2.831,-0.624289,0.751382,1.482552,99950.73,-95,+18,-142
117010,10.166,-2.356,2.623,-0.830748,0.701896,1.293121,99949.48,-97,+19,-141
117020,10.345,-0.688,2.230,-0.812124,0.676887,1.070167,99949.48,-96,+18,-137
117029,10.343,-0.684,1.900,-0.581188,0.692850,0.897231,99950.73,-96,+18,-137
117040,10.324,-1.066,2.090,-0.377923,0.719988,0.801452,99950.99,-99,+17,-140
117050,10.115,-0.678,2.557,-0.353445,0.721584,0.750901,99947.73,-101,+17,-136
117060,9.876,-0.439,3.011,-0.328968,0.702960,0.703011,99952.09,-100,+17,-134
117069,9.563,-0.198,3.369,-0.265647,0.685933,0.654589,99952.09,-100,+17,-134
117080,9.159,-0.138,3.545,-0.298106,0.656135,0.604039,99950.64,-103,+15,-135
117086,8.849,-0.202,3.596,-0.373666,0.632722,0.557745,99948.55,-104,+16,-134
117095,8.646,-0.132,4.125,-0.508289,0.601327,0.488571,99948.55,-104,+16,-134
117105,8.777,0.374,4.583,-0.719537,0.529493,0.398113,99950.39,-103,+17,-130
117115,8.919,1.210,4.432,-0.835537,0.463511,0.330535,99949.59,-106,+17,-134
117125,8.921,1.496,4.032,-0.758913,0.428392,0.315636,99949.59,-106,+19,-131
117135,9.032,1.067,3.524,-0.544473,0.408704,0.360865,99949.37,-106,+19,-131
117145,9.276,0.488,3.074,-0.306620,0.401254,0.444406,99947.93,-106,+19,-129
117155,9.361,-0.112,3.091,-0.129959,0.407107,0.539122,99948.82,-107,+17,-132
117165,9.342,-0.583,3.357,-0.110803,0.414557,0.602443,99948.82,-109,+17,-129
117175,9.079,-0.496,3.636,-0.181574,0.417750,0.630645,99948.82,-109,+17,-129
117185,9.047,-0.180,3.800,-0.269372,0.420410,0.617874,99950.12,-108,+17,-128
117195,9.213,-0.139,3.668,-0.341207,0.420942,0.618406,99952.84,-110,+14,-131
117204,9.429,-0.662,3.301,-0.349189,0.427860,0.648204,99947.70,-111,+15,-127
117215,9.561,-1.263,2.968,-0.327904,0.439566,0.707268,99948.32,-111,+15,-127
117225,9.671,-1.031,2.819,-0.298638,0.454465,0.780699,99948.32,-110,+13,-126
117235,9.560,-0.668,2.946,-0.266179,0.494373,0.822204,99949.72,-112,+11,-129
117245,9.548,-0.718,2.888,-0.234253,0.534814,0.876479,99951.66,-114,+11,-125
117255,9.472,-0.494,2.995,-0.167207,0.576318,0.954167,99949.36,-114,+11,-125
117265,9.293,-0.066,3.153,-0.104418,0.621016,1.060589,99949.36,-114,+9,-123
117275,9.256,0.196,3.378,-0.058657,0.662520,1.163818,99949.40,-115,+5,-125
117284,9.401,-0.372,3.612,-0.036840,0.715199,1.279818,99949.40,-116,+3,-120
117295,9.664,-0.896,3.872,-0.071959,0.755639,1.384644,99951.54,-116,+3,-120
117305,9.804,-1.119,4.045,-0.139005,0.783841,1.474038,99949.49,-115,+1,-120
117315,9.961,-1.216,4.088,-0.196473,0.800869,1.561304,99949.09,-118,-2,-122
117325,10.392,-1.652,4.003,-0.236913,0.813639,1.651763,99949.09,-118,-4,-117
117336,10.938,-2.071,3.991,-0.297574,0.818428,1.725726,99952.70,-117,-7,-116
117345,11.407,-2.159,3.851,-0.384840,0.845566,1.789047,99948.81,-117,-7,-116
117355,11.694,-2.374,3.454,-0.479023,0.880685,1.853965,99949.70,-119,-12,-116
117365,11.397,-2.109,3.237,-0.513611,0.909419,1.945488,99947.27,-119,-14,-112
117376,11.847,-2.062,3.390,-0.523188,0.912080,2.048717,99949.12,-119,-19,-112
117385,13.022,-3.254,2.965,-0.550326,0.939749,2.138644,99947.85,-119,-19,-112
117395,13.277,-3.564,2.762,-0.655684,1.001474,2.221653,99947.60,-120,-22,-111
117405,12.828,-2.659,2.884,-0.790308,1.042446,2.329671,99947.60,-119,-25,-107
117415,12.465,-1.946,3.049,-0.889812,1.065327,2.434497,99949.12,-118,-29,-106
117425,12.839,-1.656,3.095,-0.965372,1.081290,2.549432,99949.12,-118,-29,-106
117435,13.634,-1.262,3.081,-1.093610,1.103107,2.666497,99948.94,-119,-34,-105
117445,14.712,-1.079,2.649,-1.314968,1.131841,2.762276,99950.41,-117,-36,-100
117455,16.696,-0.184,2.597,-1.567720,1.078098,2.834643,99948.09,-114,-39,-100
117466,19.460,1.863,2.489,-1.869426,0.998814,2.874552,99947.09,-114,-39,-100
117475,21.949,4.564,1.528,-2.301499,1.087676,2.863377,99947.09,-114,-43,-101
117485,23.083,6.684,0.329,-2.909701,1.231878,2.841561,99945.90,-112,-43,-97
117495,23.298,10.906,0.631,-3.476398,1.296795,2.864441,99947.10,-108,-41,-99
117506,22.220,12.771,3.123,-3.550361,1.293070,2.926166,99944.63,-108,-41,-99
117515,20.372,6.359,7.933,-2.545738,1.264336,3.133689,99944.63,-107,-42,-100
117525,20.124,-5.337,8.808,-1.027097,1.058410,3.745615,99944.63,-103,-46,-96
117535,20.488,-10.697,8.729,-0.484344,0.827474,4.250055,99945.65,-97,-53,-95
117545,20.530,-7.038,9.153,-0.529574,0.826410,4.075523,99945.85,-97,-53,-95
117556,19.934,0.964,7.939,0.323753,1.094948,3.758563,99946.98,-93,-63,-94
117565,15.828,4.453,5.848,1.011416,1.148868,3.491799,99946.98,-88,-70,-86
117575,10.727,4.363,5.672,1.221599,0.631126,2.955432,99946.98,-83,-77,-84
117585,5.251,-1.487,5.938,1.494572,0.208630,2.269011,99950.52,-83,-77,-84
117596,6.482,-0.848,4.628,1.286517,-0.074984,1.471910,99945.85,-79,-85,-82
117605,7.988,1.867,0.747,0.743765,-0.327204,0.559874,99946.96,-75,-87,-78
117615,6.420,4.724,-0.741,0.513361,-0.529406,-0.284584,99946.96,-73,-86,-79
117625,5.196,4.204,-0.845,0.286150,-0.800782,-0.791685,99952.04,-73,-86,-79
117635,4.052,2.079,-0.533,0.267527,-1.095571,-1.093391,99952.04,-71,-87,-83
117645,3.212,0.015,0.052,0.286683,-1.353644,-1.398290,99947.48,-68,-82,-82
117655,2.794,-1.338,0.852,0.288811,-1.587772,-1.731391,99948.05,-65,-79,-85
117665,2.729,-1.400,1.574,0.285618,-1.783056,-2.138455,99943.38,-65,-79,-85
117676,2.763,-0.613,1.858,0.251741,-1.976035,-2.635268,99942.81,-65,-78,-88
117685,3.310,0.099,1.859,0.316481,-2.134781,-3.028142,99942.81,-62,-71,-89
117695,4.357,0.325,1.889,0.488352,-2.286432,-3.412858,99942.39,-59,-67,-93
117705,4.987,-0.196,1.991,0.634150,-2.418928,-3.725738,99941.08,-59,-67,-93
117715,5.201,-0.752,1.978,0.707581,-2.532267,-3.984875,99940.00,-61,-63,-97
117726,5.591,-1.121,2.305,0.733123,-2.615276,-4.240288,99944.77,-57,-55,-96
117735,6.200,-1.335,2.834,0.800168,-2.681790,-4.478673,99944.61,-53,-49,-101
117745,6.712,-1.625,3.280,0.959269,-2.744047,-4.698967,99940.98,-53,-49,-101
117755,7.468,-1.456,3.746,1.093361,-2.791404,-4.941077,99940.98,-53,-45,-102
117765,8.746,-0.929,4.022,1.130076,-2.839294,-5.197554,99940.83,-46,-37,-102
117775,10.486,-0.654,4.143,1.080590,-2.858450,-5.451902,99940.83,-42,-34,-106
117785,12.499,-1.960,4.054,1.026847,-2.808964,-5.662086,99942.66,-40,-31,-107
117795,13.183,-3.992,4.076,1.038554,-2.766395,-5.738177,99941.03,-40,-31,-107
117806,13.819,-5.044,5.176,0.917765,-2.707863,-5.704122,99941.92,-35,-26,-104
117815,15.172,-5.276,7.378,0.676719,-2.639753,-5.736049,99941.97,-33,-27,-106
117825,16.410,-6.047,8.929,0.641600,-2.568983,-5.818526,99941.97,-37,-26,-105
117835,17.610,-7.121,9.265,0.803893,-2.518432,-5.798838,99944.67,-37,-26,-105
117846,18.390,-7.849,9.083,0.936389,-2.488102,-5.740305,99943.30,-38,-23,-101
117856,18.305,-8.469,8.952,0.846462,-2.448726,-5.700397,99942.94,-44,-21,-104
117865,16.973,-7.888,8.999,0.609673,-2.383276,-5.584929,99942.94,-51,-14,-106
117875,15.157,-6.502,9.305,0.458022,-2.244395,-5.460416,99942.94,-51,-14,-106
117885,14.627,-5.841,9.699,0.367563,-2.047515,-5.365168,99947.09,-52,-7,-106
117895,14.531,-6.519,9.627,0.173343,-1.811258,-5.243315,99943.99,-53,+0,-110
117905,14.015,-8.095,9.213,-0.185831,-1.515405,-5.073040,99947.71,-58,+10,-112
117915,13.086,-9.745,8.638,-0.616308,-1.165277,-4.821352,99943.51,-58,+10,-112
117925,11.885,-11.432,7.919,-0.994106,-0.782158,-4.408435,99943.51,-55,+20,-111
117936,9.911,-13.266,7.308,-1.237812,-0.426709,-3.776820,99945.72,-55,+28,-115
117945,7.666,-14.624,6.995,-1.229830,-0.133516,-2.905225,99948.55,-57,+36,-115
117955,5.966,-15.441,7.075,-0.956326,0.105401,-1.775556,99946.73,-57,+36,-115
117965,5.006,-14.758,7.264,-0.419959,0.306539,-0.508603,99946.73,-54,+38,-111
117976,5.770,-12.922,7.396,0.354793,0.500227,0.633305,99950.27,-55,+37,-113
117985,6.978,-12.335,7.508,1.162003,0.690190,1.574075,99950.27,-58,+33,-111
117995,7.575,-12.337,7.514,1.753709,0.871107,2.324350,99945.96,-58,+33,-111
118005,9.367,-9.476,6.346,2.117140,1.024355,2.814955,99947.60,-55,+25,-107
118016,12.254,1.429,4.353,2.190571,1.210593,2.720240,99948.23,-56,+15,-106
118026,20.676,25.346,-8.405,1.802663,0.901615,1.973512,99950.58,-58,+9,-103
118035,15.902,13.997,-5.457,0.770902,1.128648,1.293121,99950.58,-58,+9,-103
118045,10.213,-12.017,2.494,2.508773,1.475584,1.817249,99952.16,-56,+5,-98
118055,19.808,-13.189,3.376,2.530057,1.198355,3.357707,99946.55,-55,-5,-97
118066,25.558,-6.014,0.819,0.690022,1.256355,3.199138,99948.59,-57,-10,-92
118076,17.995,-6.326,3.584,0.428224,1.567107,3.068772,99947.59,-57,-10,-92
118085,12.729,-2.611,5.977,1.066223,1.700134,3.565230,99949.48,-53,-17,-87
118095,9.360,-1.466,6.619,1.260443,1.827308,3.335891,99945.34,-54,-26,-86
118106,7.508,-4.079,7.010,1.143911,1.826776,2.802185,99945.34,-57,-30,-80
118115,6.980,-4.385,9.770,0.826242,1.782079,2.445671,99948.70,-57,-30,-80
118125,7.805,-4.338,10.074,0.584664,1.721419,2.116295,99948.70,-53,-35,-76
118135,12.178,-4.964,3.656,0.287747,1.480373,1.902919,99948.67,-55,-41,-76
118146,12.926,-7.434,3.049,-0.204455,1.397896,1.873653,99947.25,-55,-41,-72
118156,10.860,-5.793,3.556,-0.481684,1.307969,1.857690,99946.31,-55,-41,-72
118165,10.252,-3.589,3.544,-0.884491,1.172813,1.700185,99945.95,-53,-44,-69
118175,9.572,-2.294,3.644,-1.182473,1.066923,1.475103,99945.95,-53,-45,-72
118185,9.259,-1.913,3.396,-1.181408,0.937089,1.250020,99949.07,-54,-43,-70
118196,10.243,-1.328,2.992,-0.890876,0.858869,1.047819,99948.65,-54,-43,-70
118206,10.884,-1.047,2.811,-0.492326,0.841309,0.870094,99944.09,-51,-45,-69
118215,10.388,-1.533,3.195,-0.180510,0.834924,0.784424,99944.09,-53,-47,-71
118225,9.879,-1.686,3.692,-0.105482,0.789162,0.731745,99944.09,-55,-45,-67
118236,9.824,-1.870,3.673,-0.160822,0.699236,0.648736,99950.25,-52,-47,-66
118245,9.756,-1.751,3.394,-0.206583,0.626869,0.558278,99951.50,-52,-47,-66
118255,9.306,-1.283,3.445,-0.243831,0.584832,0.493360,99950.52,-55,-48,-69
118261,9.100,-1.128,3.635,-0.290657,0.549713,0.461966,99948.14,-55,-48,-69
118270,9.098,-0.925,3.809,-0.390693,0.519383,0.428975,99948.14,-55,-47,-66
118281,9.251,-0.533,4.051,-0.577464,0.494906,0.374700,99950.92,-53,-47,-66
118290,9.231,-0.300,3.977,-0.747739,0.481071,0.339048,99945.36,-55,-47,-69
118300,9.092,-0.328,3.293,-0.806271,0.472557,0.325746,99945.72,-55,-47,-69
118310,9.134,-0.582,2.799,-0.723262,0.489584,0.300204,99948.56,-55,-45,-66
118321,9.361,-0.330,2.667,-0.511482,0.508208,0.311911,99948.56,-53,-46,-66
118331,9.275,-0.317,2.903,-0.262987,0.527364,0.370443,99947.62,-55,-46,-68
118340,9.093,-0.909,3.389,-0.119317,0.549713,0.432168,99948.55,-55,-46,-68
118350,9.001,-1.275,3.927,-0.156565,0.564080,0.458241,99948.45,-57,-45,-64
118361,8.660,-1.067,4.186,-0.282143,0.568869,0.471012,99946.24,-53,-47,-66
118371,8.643,-0.888,4.112,-0.395482,0.559291,0.477397,99946.24,-56,-47,-67
118380,9.132,-0.657,3.642,-0.399207,0.540667,0.489635,99948.92,-56,-47,-67
118390,9.422,-0.964,3.345,-0.331629,0.550245,0.527947,99948.03,-57,-47,-63
118401,9.483,-1.569,3.163,-0.266179,0.582704,0.587011,99944.67,-55,-48,-64
118411,9.630,-1.621,3.321,-0.253409,0.616227,0.620002,99947.61,-56,-49,-65
118420,9.687,-1.441,3.532,-0.258198,0.644428,0.663103,99947.61,-56,-49,-65
118430,9.668,-1.401,3.652,-0.285868,0.682208,0.701947,99948.02,-56,-49,-61
118440,9.822,-1.298,3.799,-0.340675,0.726905,0.718975,99947.23,-54,-49,-62
118451,9.599,-1.198,3.867,-0.396546,0.763089,0.758351,99945.87,-57,-51,-63
118460,9.629,-1.409,3.896,-0.455078,0.785970,0.795066,99947.07,-56,-50,-59
118470,9.648,-1.083,4.135,-0.472638,0.817896,0.838167,99947.07,-56,-50,-59
118480,9.521,-0.610,4.583,-0.494455,0.839181,0.910002,99947.80,-54,-51,-61
118491,9.840,-0.935,4.441,-0.515207,0.851419,0.993543,99945.13,-57,-53,-61
118496,10.256,-1.822,4.063,-0.538620,0.853015,1.071764,99944.66,-57,-53,-61
118505,10.508,-1.939,4.168,-0.592895,0.874832,1.129763,99944.66,-57,-52,-58
118515,10.769,-1.449,3.984,-0.662069,0.903034,1.227672,99946.40,-53,-54,-59
118525,11.351,-1.612,3.658,-0.686014,0.944538,1.328240,99946.40,-53,-54,-59
118536,11.887,-1.799,3.454,-0.682289,0.982318,1.447433,99946.24,-55,-57,-59
118546,11.978,-1.578,3.242,-0.675904,1.018502,1.597488,99948.68,-54,-56,-56
118555,12.142,-1.571,2.952,-0.637592,1.058942,1.757121,99947.55,-51,-59,-58
118565,12.150,-1.641,3.005,-0.602473,1.098318,1.942827,99947.55,-51,-59,-58
118576,12.385,-1.344,3.381,-0.596088,1.144612,2.133855,99947.55,-53,-63,-57
118586,12.983,-1.262,3.682,-0.638656,1.197290,2.303066,99947.71,-50,-64,-53
118595,13.566,-1.483,3.637,-0.737097,1.266997,2.433964,99947.02,-47,-67,-54
118605,14.061,-1.479,3.459,-0.877041,1.338300,2.536662,99948.45,-47,-67,-54
118616,14.711,-1.043,3.128,-1.035610,1.384061,2.620203,99946.87,-48,-71,-54
118626,15.828,-0.489,2.810,-1.215995,1.388850,2.680331,99946.87,-44,-73,-51
118636,17.464,0.498,2.360,-1.479390,1.389914,2.710129,99948.87,-40,-76,-53
118645,18.981,1.412,1.408,-1.974784,1.481969,2.669157,99948.34,-41,-76,-53
118656,19.844,1.483,-0.317,-2.706435,1.601162,2.501010,99944.51,-41,-78,-54
118666,21.258,1.866,-2.047,-3.635498,1.598501,2.250919,99944.51,-38,-75,-55
118676,21.973,5.541,-1.557,-4.489003,1.567107,1.987524,99948.88,-35,-75,-61
118685,19.357,6.584,2.791,-4.564030,1.541565,1.861414,99946.10,-36,-73,-66
118695,17.330,0.302,8.793,-3.195444,1.425565,2.377029,99946.10,-36,-73,-66
118706,20.620,-4.833,10.111,-1.383610,1.112153,3.209249,99943.26,-31,-73,-64
118716,21.909,-4.241,8.850,-0.682289,0.866318,3.560973,99942.68,-27,-78,-66
118725,20.245,-1.053,7.191,-0.588106,0.822153,3.458808,99942.68,-23,-84,-65
118735,17.989,3.458,6.241,-0.131556,0.960502,3.204459,99948.50,-23,-84,-65
118746,14.012,5.501,3.953,0.248371,0.929639,2.907010,99946.56,-18,-88,-60
118756,9.985,6.745,4.208,0.388316,0.434777,2.449396,99945.36,-15,-94,-60
118766,4.463,-0.996,8.083,0.918829,0.053254,1.971561,99943.58,-13,-100,-57
118775,5.735,-3.919,7.194,1.224792,-0.143626,1.355910,99944.89,-13,-100,-57
118786,8.564,0.610,2.392,0.597967,-0.342635,0.409287,99947.63,-12,-102,-52
118796,6.578,3.216,1.192,0.292004,-0.422984,-0.471355,99944.89,-14,-106,-53
118806,5.140,3.802,0.802,0.205270,-0.636892,-0.867244,99943.69,-19,-108,-52
118815,4.600,2.073,0.157,0.247839,-0.951369,-1.084345,99943.69,-19,-108,-52
118825,4.212,-0.214,-0.242,0.367563,-1.257864,-1.333373,99943.69,-23,-106,-49
118836,4.048,-1.676,0.031,0.427692,-1.547864,-1.638804,99945.85,-27,-107,-52
118846,4.145,-1.882,0.796,0.443123,-1.785717,-2.013941,99944.34,-33,-107,-51
118855,4.404,-1.181,1.316,0.431949,-1.996964,-2.444418,99941.45,-33,-107,-51
118865,4.688,-0.652,1.444,0.433545,-2.194909,-2.857335,99945.38,-39,-102,-51
118876,5.251,-0.366,1.374,0.537306,-2.366249,-3.222894,99945.38,-46,-100,-56
118886,6.125,-0.384,1.379,0.711838,-2.499276,-3.528325,99944.79,-52,-96,-58
118896,6.640,-0.661,1.672,0.905526,-2.568983,-3.773096,99940.88,-52,-96,-58
118905,6.714,-1.171,2.266,1.031636,-2.591863,-3.980618,99938.82,-58,-88,-59
118916,6.992,-1.427,2.747,1.151893,-2.633368,-4.198783,99938.82,-65,-83,-64
118926,7.770,-1.560,3.332,1.271086,-2.677533,-4.456857,99938.82,-69,-77,-66
118936,8.699,-1.784,3.899,1.328553,-2.738194,-4.675554,99942.47,-69,-77,-66
118945,9.585,-1.991,4.374,1.355159,-2.786083,-4.884673,99940.73,-75,-66,-69
118956,10.580,-2.287,4.360,1.336535,-2.830781,-5.119333,99940.05,-81,-60,-76
118966,11.999,-3.194,4.000,1.223018,-2.871398,-5.340159,99935.76,-85,-49,-81
118976,13.131,-4.395,3.705,1.060902,-2.887184,-5.483296,99935.76,-85,-49,-81
118986,14.090,-5.639,3.763,0.859233,-2.869092,-5.594507,99941.16,-87,-34,-86
118995,14.873,-5.972,4.560,0.633618,-2.839294,-5.705719,99941.52,-84,-24,-97
119006,15.535,-6.139,6.046,0.405875,-2.810560,-5.807883,99942.05,-82,-14,-102
119016,15.943,-6.545,7.393,0.235600,-2.785551,-5.832892,99940.21,-82,-14,-102
119026,16.194,-7.005,8.137,0.086077,-2.762138,-5.792984,99943.95,-77,-1,-109
119035,16.699,-6.925,8.356,-0.078877,-2.707863,-5.746159,99943.05,-74,+1,-117
119046,17.030,-6.528,8.614,-0.229464,-2.605698,-5.685498,99943.05,-72,+9,-121
119056,16.817,-6.162,9.134,-0.315134,-2.451386,-5.581737,99942.59,-72,+9,-121
119066,16.168,-6.264,9.814,-0.259794,-2.224708,-5.415719,99943.73,-68,+20,-127
119075,15.239,-7.746,10.221,-0.176785,-1.911295,-5.160306,99943.73,-68,+25,-135
119081,14.504,-9.616,10.135,-0.190620,-1.636194,-4.917664,99943.87,-68,+25,-135
119091,13.729,-11.547,9.478,-0.341207,-1.362690,-4.639370,99945.96,-68,+32,-138
119101,12.260,-13.000,8.582,-0.612051,-1.041295,-4.239224,99944.02,-63,+45,-142
119111,10.494,-13.616,8.356,-0.802014,-0.764066,-3.726270,99943.98,-64,+49,-147
119120,8.735,-14.458,8.752,-0.844583,-0.488433,-3.035059,99943.98,-64,+49,-147
119131,7.294,-15.422,9.288,-0.782326,-0.194177,-2.183152,99947.14,-65,+55,-146
119141,6.015,-15.638,9.382,-0.553519,0.102741,-1.208859,99945.78,-62,+63,-149
119151,5.724,-14.142,9.000,-0.126235,0.360814,-0.206896,99943.73,-66,+60,-151
119160,6.561,-12.298,8.506,0.477178,0.572594,0.717910,99945.58,-66,+60,-151
119171,7.373,-11.883,8.231,1.115177,0.768942,1.513947,99945.58,-69,+56,-148
119181,8.683,-11.241,7.262,1.636113,0.945070,2.149818,99947.13,-69,+53,-149
119191,10.420,-5.478,5.738,2.000076,1.095657,2.392992,99949.07,-75,+39,-150
119200,18.097,12.358,-6.510,2.136296,0.810447,2.176955,99946.60,-75,+39,-150
119211,19.826,21.382,-8.449,0.981618,0.896648,1.430938,99950.45,-79,+31,-145
119221,8.273,-3.270,-0.495,1.835122,1.290410,1.207451,99950.45,-79,+29,-146
119231,12.948,-14.108,3.952,2.833892,1.241456,2.499946,99948.12,-84,+13,-145
119241,23.106,-7.877,0.364,1.283856,1.044575,2.996937,99947.74,-84,+13,-145
119250,20.631,-7.376,0.314,-0.270436,1.400556,2.379157,99947.01,-86,+7,-139
119261,15.348,-6.330,3.736,-0.092180,1.566042,2.690974,99945.49,-86,+5,-140
119271,13.350,-0.647,6.427,0.187710,1.690556,2.822937,99945.49,-92,-5,-138
119281,9.633,0.299,8.716,0.489416,1.781015,2.463231,99947.58,-92,-5,-138
119290,8.135,-1.788,11.181,0.735783,1.782611,2.198772,99947.58,-94,-9,-130
119301,8.862,-2.968,8.952,0.810279,1.646923,1.990185,99946.58,-95,-11,-130
119311,11.094,-4.080,4.465,0.645325,1.413859,1.851836,99947.16,-100,-22,-127
119321,12.128,-5.623,3.198,0.371288,1.301052,1.855029,99947.16,-100,-22,-127
119331,10.695,-5.244,2.873,0.113215,1.187712,1.757121,99948.26,-101,-25,-121
119341,9.968,-4.608,3.093,-0.353445,1.058942,1.585781,99948.16,-101,-25,-123
119351,10.441,-3.507,2.946,-0.777005,0.944006,1.397415,99948.26,-103,-31,-122
119361,10.259,-2.255,2.965,-1.037739,0.838648,1.203195,99946.01,-103,-31,-117
119371,10.035,-1.532,2.938,-1.129794,0.757236,1.036112,99946.01,-103,-29,-117
119380,10.155,-0.215,2.804,-1.040399,0.694447,0.894039,99947.52,-102,-26,-122
119391,10.142,0.385,2.478,-0.745610,0.668373,0.787617,99950.77,-104,-31,-120
119401,10.315,0.099,2.413,-0.342271,0.683272,0.712057,99946.09,-104,-29,-116
119411,10.139,-0.226,2.782,-0.062381,0.686997,0.698755,99947.67,-104,-29,-116
119420,9.696,-0.428,3.146,-0.004381,0.663584,0.707800,99947.67,-104,-28,-119
119431,9.355,-0.665,3.165,-0.058657,0.626869,0.685452,99948.41,-106,-35,-116
119441,8.977,-0.926,3.181,-0.148051,0.582704,0.632241,99947.88,-106,-33,-112
119451,8.832,-0.963,3.220,-0.294913,0.536410,0.554553,99947.88,-106,-33,-112
119461,8.944,-0.465,3.321,-0.524785,0.501291,0.468883,99946.73,-106,-30,-116
119471,8.960,0.083,3.547,-0.746675,0.481071,0.409819,99946.73,-108,-35,-114
119481,9.178,0.506,3.323,-0.848308,0.472557,0.370975,99948.41,-108,-31,-112
119491,9.357,0.729,2.968,-0.784986,0.500227,0.364058,99950.55,-108,-31,-112
119501,9.067,0.488,2.533,-0.602473,0.549713,0.405030,99948.04,-109,-29,-116
119511,8.936,0.037,2.343,-0.338546,0.588557,0.485379,99948.04,-109,-34,-114
119521,9.047,-0.418,2.725,-0.084198,0.619419,0.564663,99948.04,-110,-31,-110
119531,9.050,-0.905,3.408,-0.002785,0.644428,0.629580,99949.57,-110,-31,-110
119541,8.942,-1.184,3.976,-0.116125,0.649749,0.663103,99948.01,-111,-31,-112
119552,8.959,-0.981,4.019,-0.287109,0.628110,0.658492,99945.43,-112,-37,-109
119561,9.186,-0.440,3.867,-0.350785,0.617823,0.641819,99945.80,-111,-34,-106
119571,9.577,-0.202,3.423,-0.320987,0.616227,0.647140,99945.80,-111,-34,-106
119581,9.832,-0.570,3.158,-0.240106,0.631126,0.689177,99946.32,-113,-34,-109
119591,9.872,-1.200,2.991,-0.157097,0.661456,0.754626,99945.32,-114,-40,-106
119601,9.628,-1.323,3.212,-0.120914,0.700300,0.805176,99943.02,-114,-37,-103
119611,9.519,-0.982,3.520,-0.156565,0.732759,0.842956,99948.21,-114,-37,-103
119621,9.502,-0.601,3.730,-0.223079,0.766814,0.886057,99948.21,-114,-39,-106
119631,9.319,-0.017,3.864,-0.270436,0.801933,0.948846,99949.09,-115,-45,-101
119641,9.142,0.195,4.156,-0.263519,0.830667,1.022809,99949.82,-115,-43,-100
119651,9.366,-0.222,4.098,-0.228932,0.850355,1.112204,99948.98,-115,-43,-100
119661,9.796,-0.876,4.366,-0.235849,0.876428,1.202662,99946.77,-115,-43,-101
119671,10.186,-1.715,4.455,-0.347060,0.893456,1.271837,99946.77,-115,-51,-98
119681,10.452,-1.929,4.398,-0.500308,0.917933,1.315470,99950.77,-115,-49,-94
119691,10.403,-1.499,4.548,-0.622693,0.938685,1.371341,99947.14,-115,-49,-94
119701,10.612,-1.497,4.632,-0.701445,0.957841,1.440516,99946.94,-117,-51,-97
119711,11.014,-2.131,3.867,-0.753592,0.964226,1.520864,99948.25,-116,-58,-94
119720,11.880,-2.614,3.492,-0.782326,0.965823,1.616644,99948.25,-115,-55,-92
119731,12.450,-2.525,2.955,-0.780198,0.995621,1.700185,99950.61,-115,-55,-92
119741,12.653,-2.452,2.759,-0.709959,1.025419,1.842258,99947.73,-115,-59,-94
119751,12.883,-2.326,2.824,-0.617904,1.036593,2.009873,99944.73,-114,-66,-90
119761,12.842,-2.253,3.144,-0.587574,1.065327,2.172167,99946.36,-114,-65,-87
119771,13.098,-1.936,3.484,-0.621097,1.105767,2.320625,99946.36,-114,-65,-87
119781,13.757,-1.800,3.788,-0.718473,1.131309,2.440350,99949.14,-113,-70,-89
119791,14.622,-1.624,3.627,-0.857353,1.181859,2.539322,99947.25,-110,-78,-84
119801,15.378,-1.269,3.229,-1.060619,1.249969,2.605836,99946.94,-109,-77,-83
119811,16.656,-0.234,2.923,-1.289959,1.240923,2.664368,99945.89,-108,-77,-83
119821,18.605,1.392,2.512,-1.541115,1.236134,2.727157,99945.89,-108,-82,-86
119831,20.012,2.339,1.901,-1.926894,1.299988,2.711726,99946.40,-103,-88,-82
119841,21.180,3.381,0.150,-2.639921,1.382465,2.605304,99947.13,-103,-85,-84
119852,22.758,5.755,-1.096,-3.586012,1.438868,2.423855,99948.66,-103,-85,-90
119861,22.344,8.673,-0.871,-4.418232,1.459620,2.254644,99945.26,-103,-85,-90
119871,18.550,8.547,3.338,-4.529443,1.511767,2.260497,99945.26,-100,-85,-92
119881,16.236,1.895,9.905,-3.360930,1.403217,2.693102,99943.66,-100,-81,-94
119891,19.528,-5.500,10.547,-1.629445,1.042979,3.514679,99945.71,-98,-87,-96
119901,21.178,-6.951,9.160,-0.703574,0.942942,3.951010,99943.20,-98,-87,-96
119911,20.678,-3.935,7.751,-0.362491,1.113749,3.853101,99942.40,-91,-100,-92
119921,17.687,2.965,7.000,0.334040,1.371822,3.511487,99942.40,-91,-104,-87
119931,13.285,5.585,4.888,0.633618,1.143547,3.135285,99946.24,-89,-115,-84
119941,8.494,3.986,5.241,0.950223,0.571529,2.552093,99944.99,-89,-115,-84
119951,5.168,-1.876,6.426,1.248205,0.278337,2.004552,99943.05,-84,-125,-77
119961,8.837,-0.042,2.821,0.980022,0.022924,1.313873,99945.99,-86,-127,-71
119971,8.528,2.583,0.061,0.636279,-0.165443,0.380021,99945.99,-89,-133,-70
119982,7.145,4.141,-0.099,0.409600,-0.360727,-0.308529,99947.72,-89,-133,-70
119991,6.095,2.930,-0.017,0.339894,-0.661369,-0.687391,99944.94,-88,-136,-62
120001,4.412,1.185,-0.064,0.464939,-0.952433,-0.998143,99945.67,-95,-132,-61
120011,3.514,-0.633,-0.001,0.560187,-1.233387,-1.358382,99945.05,-103,-134,-61
120022,3.564,-1.605,0.663,0.611447,-1.504940,-1.830008,99945.05,-103,-134,-61
120031,3.911,-1.649,1.206,0.600095,-1.700579,-2.227317,99945.51,-106,-130,-55
120041,4.272,-1.049,1.540,0.611802,-1.891075,-2.614693,99942.41,-118,-121,-56
120051,4.707,-0.226,1.635,0.740040,-2.071460,-2.987170,99944.26,-126,-114,-59
120061,5.397,0.002,1.613,0.939049,-2.237478,-3.309628,99940.90,-126,-114,-59
120071,5.915,-0.730,1.661,1.063031,-2.351882,-3.540564,99940.90,-131,-103,-58
120081,6.237,-1.649,1.650,1.023654,-2.462029,-3.752876,99941.59,-138,-86,-64
120091,6.553,-1.412,2.063,0.957141,-2.576432,-3.964123,99939.75,-140,-74,-71
120101,7.081,-1.272,2.779,0.980554,-2.656781,-4.171114,99939.44,-140,-74,-71
120112,7.721,-1.749,3.303,1.069948,-2.715313,-4.371719,99938.39,-139,-59,-71
120121,8.439,-2.273,3.635,1.130609,-2.747239,-4.588820,99938.39,-137,-43,-79
120131,9.353,-2.583,3.587,1.136462,-2.795129,-4.824544,99942.34,-135,-33,-86
120141,10.245,-3.121,3.457,1.094425,-2.834505,-5.050159,99939.47,-135,-33,-86
120152,11.191,-3.841,3.365,0.986407,-2.869092,-5.257150,99938.98,-131,-21,-85
120161,12.278,-4.303,3.238,0.800701,-2.903680,-5.429554,99942.03,-127,-9,-91
120171,13.408,-4.297,3.129,0.623508,-2.927092,-5.557792,99942.03,-125,+1,-96
120181,14.454,-4.370,3.256,0.600627,-2.934010,-5.649315,99941.30,-125,+1,-96
120192,15.321,-5.135,3.995,0.647985,-2.938799,-5.712636,99942.77,-125,+14,-97
120201,16.165,-6.460,5.612,0.559123,-2.960083,-5.723278,99942.20,-120,+28,-104
120211,16.850,-7.187,7.426,0.450040,-2.951570,-5.728599,99940.20,-117,+41,-111
120221,17.074,-7.608,8.713,0.389912,-2.911129,-5.703058,99940.20,-117,+41,-111
120231,16.905,-7.519,9.104,0.348407,-2.832377,-5.606214,99945.37,-112,+59,-114
120242,16.839,-7.207,9.248,0.347343,-2.690304,-5.447645,99946.79,-101,+74,-123
120251,16.541,-7.207,9.730,0.384591,-2.482781,-5.216710,99943.01,-92,+85,-129
120261,15.257,-8.274,10.372,0.395233,-2.193313,-4.923517,99941.01,-81,+85,-129
120271,13.768,-10.158,10.641,0.298389,-1.825093,-4.593077,99941.01,-81,+98,-128
120282,12.588,-12.568,10.630,0.055747,-1.431864,-4.244545,99943.37,-69,+104,-134
120291,11.274,-14.647,10.205,-0.302895,-1.096103,-3.851848,99943.37,-60,+110,-135
120301,9.948,-15.744,10.055,-0.663133,-0.821534,-3.356986,99942.99,-55,+118,-132
120311,8.373,-15.779,10.183,-0.837665,-0.546965,-2.610968,99941.52,-55,+118,-132
120322,7.111,-15.874,10.524,-0.808399,-0.226635,-1.707978,99941.52,-48,+120,-135
120332,6.326,-15.113,10.810,-0.529574,0.101144,-0.727832,99946.42,-47,+120,-134
120341,6.032,-13.904,11.173,-0.027262,0.391144,0.252847,99947.11,-47,+120,-130
120351,6.259,-12.847,11.587,0.607545,0.653474,1.148387,99946.80,-47,+120,-130
120361,7.853,-11.942,10.829,1.169453,0.891327,1.887488,99947.06,-49,+114,-133
120372,10.216,-6.187,8.145,1.520113,1.087144,2.226974,99947.06,-53,+105,-132
120381,18.178,10.199,-7.047,1.792553,0.750850,2.150350,99948.77,-55,+101,-128
120391,22.822,21.675,-11.555,0.856040,0.715199,1.590570,99953.27,-55,+101,-128
120401,9.808,-2.324,-1.234,1.793085,1.211657,1.438387,99949.40,-58,+94,-130
120412,11.711,-13.398,6.075,3.222332,1.488887,2.636166,99947.66,-64,+83,-129
120421,21.746,-7.211,1.571,2.080957,1.269657,3.217230,99947.66,-68,+75,-125
120431,19.638,-5.923,-1.502,0.509104,1.442593,2.574441,99949.80,-68,+75,-125
120441,13.782,-7.239,0.651,0.599031,1.588923,2.777708,99948.89,-71,+68,-126
120452,11.980,-2.105,4.608,0.727802,1.730996,2.963946,99948.58,-77,+61,-122
120462,8.630,0.863,8.891,0.790058,1.890629,2.538258,99947.53,-81,+57,-117
120471,7.984,0.505,12.675,0.984278,1.944373,2.204625,99947.53,-81,+57,-117
120481,8.770,-1.359,12.463,1.196058,1.957143,2.085433,99946.42,-85,+47,-116
120492,11.979,-4.208,4.862,1.073141,1.689492,2.095543,99946.78,-90,+43,-113
120502,12.447,-7.048,4.569,0.654370,1.521877,2.213671,99948.16,-92,+38,-109
120511,10.579,-6.410,3.872,0.100976,1.337235,2.180680,99946.11,-92,+38,-109
120521,10.321,-5.474,3.108,-0.603537,1.114281,2.030093,99946.11,-93,+33,-110
120531,9.814,-3.277,3.017,-1.071794,0.970612,1.748607,99950.68,-96,+32,-107
120542,10.215,-2.164,2.376,-0.971225,0.834924,1.409121,99946.07,-98,+33,-104
120551,11.088,-1.603,1.710,-0.417831,0.802997,1.126571,99948.01,-98,+33,-104
120561,10.851,-0.769,2.020,0.081288,0.865786,1.005782,99948.32,-98,+28,-106
120571,9.818,-1.644,3.127,0.230279,0.882814,1.028663,99948.32,-101,+26,-102
120582,9.521,-2.535,3.019,0.195692,0.813639,0.933415,99950.01,-103,+26,-99
120592,9.733,-1.992,3.111,0.132903,0.765217,0.750369,99949.85,-103,+26,-99
120601,9.470,-2.026,3.244,0.023820,0.716263,0.637030,99950.38,-103,+21,-101
120611,8.922,-2.900,3.171,-0.246491,0.667841,0.524755,99946.18,-104,+23,-97
120622,9.000,-1.910,3.605,-0.665794,0.620483,0.364058,99946.18,-105,+25,-96
120632,9.322,0.598,3.831,-0.941427,0.561951,0.266681,99948.96,-105,+25,-96
120641,9.360,1.341,3.407,-0.912161,0.512997,0.290626,99950.37,-106,+23,-98
120651,9.247,0.587,2.599,-0.647170,0.514062,0.340645,99948.74,-106,+25,-94
120662,8.995,-0.105,1.571,-0.319923,0.559823,0.413012,99947.12,-108,+25,-93
120672,9.173,-1.347,1.154,-0.076748,0.621548,0.485379,99947.12,-108,+25,-93
120682,9.622,-1.995,2.209,-0.081005,0.683805,0.516241,99951.39,-108,+21,-95
120691,9.253,-1.455,3.503,-0.270436,0.713603,0.491764,99948.08,-110,+23,-91
120701,8.638,-0.623,4.061,-0.456675,0.710942,0.467819,99948.08,-110,+24,-89
120712,8.593,0.245,4.188,-0.534363,0.690722,0.490168,99945.78,-111,+24,-89
120722,9.014,0.160,3.840,-0.487537,0.669970,0.542846,99945.78,-111,+20,-91
120731,9.517,-0.800,3.316,-0.372601,0.667841,0.606700,99946.38,-113,+22,-87
120741,9.533,-1.200,3.323,-0.307152,0.685933,0.676938,99948.00,-113,+22,-86
120752,9.466,-0.867,3.527,-0.319390,0.709346,0.739195,99946.33,-114,+19,-88
120762,9.578,-0.787,3.582,-0.353978,0.742337,0.771654,99946.17,-114,+19,-88
120771,9.871,-0.785,3.696,-0.351849,0.784373,0.811562,99946.17,-115,+19,-83
120781,10.120,-0.914,3.848,-0.398675,0.817364,0.862644,99947.92,-117,+17,-81
120792,9.855,-1.273,3.916,-0.439647,0.856208,0.904681,99948.08,-117,+14,-83
120802,9.550,-1.696,3.834,-0.516803,0.885474,0.938736,99947.03,-117,+14,-83
120811,9.429,-1.305,3.903,-0.583317,0.912080,0.960553,99946.36,-119,+14,-78
120821,9.684,-1.044,4.038,-0.614179,0.936557,0.993011,99946.36,-119,+15,-77
120832,9.791,-1.086,3.960,-0.612051,0.969547,1.058993,99947.58,-120,+9,-78
120842,9.776,-1.031,4.004,-0.613647,1.006795,1.152112,99948.47,-120,+9,-78
120851,9.853,-0.806,4.505,-0.656748,1.053089,1.250020,99948.52,-121,+10,-72
120861,11.051,-1.782,4.232,-0.720601,1.056813,1.340479,99944.00,-123,+9,-72
120871,12.411,-2.937,3.632,-0.783390,1.054153,1.423488,99944.00,-124,+4,-72
120882,12.311,-2.562,3.393,-0.849372,1.084483,1.544809,99948.06,-124,+4,-72
120892,12.174,-2.473,2.791,-0.863739,1.115345,1.675708,99947.06,-124,+3,-66
120901,12.545,-2.801,2.427,-0.814785,1.128648,1.805543,99947.64,-125,+0,-66
120911,12.644,-2.622,2.745,-0.738161,1.131841,1.968901,99943.61,-125,-4,-67
120922,12.709,-1.954,3.155,-0.673243,1.138226,2.126937,99943.61,-125,-4,-67
120932,12.913,-1.685,3.508,-0.625886,1.163767,2.277524,99946.97,-125,-7,-61
120941,13.163,-1.715,3.663,-0.638656,1.193034,2.424387,99946.19,-125,-11,-59
120951,13.485,-1.213,3.783,-0.713684,1.228153,2.563799,99945.66,-124,-19,-61
120962,14.442,-0.131,4.347,-0.774344,1.214318,2.709065,99942.41,-124,-19,-61
120972,16.621,1.169,4.259,-0.820106,1.192501,2.860184,99942.41,-123,-22,-54
120982,18.815,2.104,3.424,-1.041996,1.319144,2.946386,99948.10,-123,-27,-54
120991,20.605,3.609,2.653,-1.530472,1.467602,2.943726,99946.37,-120,-34,-56
121001,22.729,6.120,1.276,-2.111536,1.506446,2.880937,99944.48,-120,-34,-56
121012,24.466,8.367,0.016,-2.738894,1.553272,2.838368,99945.27,-117,-36,-49
121022,24.067,9.222,0.564,-3.200765,1.619253,2.887322,99945.27,-117,-39,-52
121031,20.597,4.021,4.062,-3.269407,1.654373,3.130496,99944.91,-113,-43,-55
121041,19.636,-4.608,7.482,-2.692068,1.501125,3.437524,99944.45,-113,-43,-55
121052,20.548,-9.792,8.418,-2.301499,1.183456,3.722734,99947.27,-108,-45,-53
121062,20.815,-7.701,9.801,-2.088123,1.076501,3.793505,99943.65,-106,-51,-54
121071,20.089,-0.707,7.996,-1.326674,1.243052,3.524790,99943.65,-101,-58,-57
121081,16.666,5.359,5.586,-0.367280,1.342556,3.226808,99949.97,-101,-58,-57
121092,11.086,6.628,3.698,0.310095,1.044575,2.903817,99947.39,-95,-62,-51
121102,5.930,-1.779,5.704,0.890627,0.716263,2.363726,99945.34,-92,-69,-52
121112,6.015,-4.458,4.572,1.004499,0.457126,1.778405,99944.98,-86,-74,-53
121121,8.436,-0.391,-0.017,0.288811,0.179364,0.968534,99944.98,-86,-74,-53
121132,6.313,3.307,-0.721,0.014774,0.059640,-0.024915,99947.45,-82,-74,-51
121142,5.589,4.641,-0.486,-0.031519,-0.180342,-0.679942,99947.65,-81,-74,-53
121152,4.940,2.470,-0.474,0.112151,-0.487369,-1.100841,99946.40,-78,-73,-57
121161,3.686,-0.402,-0.376,0.316481,-0.755020,-1.402015,99946.29,-77,-73,-57
121171,2.882,-1.435,0.259,0.426095,-0.993938,-1.735648,99946.29,-77,-71,-55
121182,2.878,-0.865,0.841,0.512297,-1.209974,-2.165592,99942.91,-77,-70,-59
121192,3.343,0.191,0.734,0.618187,-1.427075,-2.634913,99943.55,-73,-68,-62
121201,4.192,0.538,0.317,0.791123,-1.643111,-3.047298,99943.49,-73,-65,-59
121211,4.993,0.147,0.364,1.059306,-1.832543,-3.383059,99941.87,-73,-65,-59
121222,5.200,-0.461,0.746,1.248737,-1.999625,-3.632619,99941.87,-75,-63,-62
121232,5.182,-1.315,0.842,1.247673,-2.110304,-3.843334,99941.56,-73,-63,-66
121242,5.621,-1.366,1.171,1.214682,-2.244928,-4.093426,99940.41,-75,-59,-63
121251,6.434,-1.219,1.793,1.283856,-2.371038,-4.335004,99938.78,-75,-59,-63
121262,7.531,-1.723,2.342,1.356755,-2.502469,-4.561682,99938.47,-78,-57,-66
121272,8.332,-2.142,2.793,1.339728,-2.633900,-4.753774,99938.47,-79,-55,-69
121282,9.006,-2.489,2.951,1.276407,-2.747239,-4.929370,99943.70,-82,-50,-67
121291,9.688,-2.880,2.929,1.186480,-2.848340,-5.105499,99934.88,-82,-50,-67
121302,10.584,-3.480,2.806,1.016205,-2.947845,-5.289076,99938.49,-86,-45,-73
121312,11.868,-4.036,2.767,0.725673,-3.053202,-5.489682,99937.66,-88,-41,-77
121322,13.425,-4.315,3.061,0.435141,-3.097900,-5.676452,99937.66,-92,-31,-79
121332,14.615,-4.265,3.854,0.266995,-3.079276,-5.823847,99941.73,-92,-31,-79
121341,15.454,-3.993,5.069,0.207930,-3.055331,-5.948360,99941.68,-94,-23,-86
121352,16.426,-4.543,6.487,0.178132,-3.017019,-6.080324,99940.63,-95,-15,-94
121362,17.050,-5.591,7.803,0.216444,-2.943588,-6.148434,99938.48,-97,-3,-97
121372,17.307,-6.342,8.643,0.269655,-2.865900,-6.111718,99938.48,-97,-3,-97
121381,17.579,-6.255,8.741,0.281894,-2.792469,-6.030305,99943.63,-95,+5,-107
121392,18.063,-5.774,8.683,0.266462,-2.681258,-5.965920,99945.27,-95,+13,-114
121402,18.184,-5.946,8.952,0.222829,-2.530671,-5.864819,99943.07,-93,+25,-117
121412,17.548,-6.734,9.553,0.192499,-2.315166,-5.673260,99944.79,-93,+25,-117
121421,16.510,-8.311,10.141,0.124921,-1.991643,-5.409865,99944.79,-90,+33,-127
121432,15.187,-10.677,9.794,-0.090051,-1.605332,-5.067719,99945.22,-89,+39,-132
121442,13.398,-13.003,9.073,-0.434326,-1.209974,-4.718655,99945.84,-88,+50,-134
121452,11.529,-14.446,8.682,-0.669519,-0.852396,-4.235499,99943.38,-88,+50,-134
121461,9.538,-16.461,8.942,-0.689207,-0.530470,-3.467665,99942.91,-86,+55,-140
121472,7.188,-18.753,9.361,-0.522124,-0.209076,-2.348106,99942.91,-88,+59,-143
121482,5.205,-18.939,9.420,-0.143262,0.120300,-1.014639,99944.98,-90,+61,-141
121492,5.089,-16.503,9.191,0.463343,0.395401,0.291691,99944.93,-90,+61,-141
121502,6.437,-14.708,8.897,1.176370,0.606116,1.409121,99944.87,-92,+55,-145
121511,7.073,-14.804,8.605,1.738278,0.802465,2.318497,99943.04,-98,+44,-145
121522,9.116,-11.414,6.818,2.091599,0.954116,2.908074,99943.04,-101,+33,-141
121532,13.334,1.049,3.267,1.952186,1.136630,2.742588,99949.31,-101,+33,-141
121542,22.924,26.874,-11.376,1.036425,0.779052,1.884295,99951.30,-103,+18,-144
121547,16.989,14.240,-8.456,-0.422620,1.032869,1.165415,99948.31,-109,+12,-142
121556,8.877,-8.415,0.314,0.746425,1.398960,1.170736,99948.31,-109,+12,-142
121567,15.799,-15.453,6.104,1.844168,1.294667,2.830919,99946.27,-114,+5,-136
121577,26.750,-4.913,3.404,0.408536,1.225492,3.297047,99946.27,-115,-8,-139
121587,21.289,-2.942,2.712,-0.481684,1.562850,2.746313,99948.05,-119,-15,-135
121597,12.524,-3.157,5.509,0.344683,1.682042,3.298111,99947.44,-119,-15,-135
121607,9.507,-0.715,7.566,0.849655,1.802299,3.418368,99946.31,-121,-23,-130
121617,7.872,-3.093,7.112,0.907123,1.817730,2.781964,99946.31,-124,-35,-129
121627,8.863,-5.318,7.255,0.648517,1.710244,2.332332,99946.31,-128,-42,-124
121637,8.658,-4.728,10.883,0.414921,1.698006,2.093946,99947.45,-128,-42,-124
121647,11.063,-2.999,5.710,0.371820,1.551143,1.883763,99945.09,-130,-47,-119
121657,13.236,-6.309,2.242,-0.097501,1.402685,1.845983,99944.04,-130,-55,-119
121667,11.331,-6.995,3.432,-0.542344,1.388850,1.883231,99945.09,-132,-58,-115
121676,9.664,-3.044,3.800,-1.010601,1.278171,1.799158,99945.09,-132,-58,-115
121688,9.520,-2.022,3.511,-1.385738,1.117474,1.591635,99950.61,-132,-58,-112
121697,9.359,-1.704,3.535,-1.334656,0.992960,1.372406,99944.16,-132,-61,-116
121707,10.374,-1.176,2.920,-1.016454,0.889731,1.136681,99945.02,-134,-61,-114
121717,10.977,-0.652,2.743,-0.655684,0.857272,0.954699,99945.02,-134,-61,-114
121728,10.391,-0.646,3.296,-0.441244,0.849823,0.880736,99946.49,-133,-61,-111
121737,9.866,-0.998,3.637,-0.333225,0.783309,0.859984,99946.76,-133,-65,-114
121747,9.851,-1.427,3.660,-0.257134,0.700832,0.786021,99946.76,-134,-65,-110
121757,9.885,-1.305,3.633,-0.221482,0.640171,0.688112,99945.23,-134,-65,-110
121767,9.457,-0.837,3.614,-0.231592,0.590685,0.638626,99947.01,-134,-65,-107
121777,8.971,-1.017,3.759,-0.286932,0.533750,0.619470,99947.01,-134,-68,-110
121783,8.976,-1.408,4.032,-0.387500,0.489052,0.580094,99948.20,-134,-68,-110
121792,9.135,-1.085,4.191,-0.542344,0.460318,0.510388,99945.88,-136,-67,-109
121802,9.152,-0.386,4.150,-0.752528,0.432117,0.432168,99948.35,-136,-66,-107
121811,8.909,-0.204,3.698,-0.817445,0.411364,0.382681,99946.99,-134,-67,-111
121822,8.880,-0.270,3.055,-0.720601,0.408172,0.360865,99946.99,-134,-67,-111
121832,9.080,-0.157,2.780,-0.534895,0.429456,0.382149,99948.26,-137,-67,-107
121842,9.095,-0.107,3.068,-0.334822,0.457658,0.441213,99946.05,-136,-65,-107
121852,9.070,-0.732,3.424,-0.233189,0.477878,0.506131,99946.16,-136,-69,-110
121862,9.062,-1.332,3.660,-0.278950,0.499162,0.543911,99947.48,-136,-69,-110
121872,8.868,-1.341,3.937,-0.399207,0.516190,0.556149,99947.48,-138,-69,-106
121882,8.770,-0.932,4.112,-0.526913,0.524704,0.571580,99946.10,-138,-67,-106
121892,8.839,-0.698,3.907,-0.592895,0.525768,0.594461,99945.99,-137,-71,-109
121902,9.051,-0.835,3.484,-0.555115,0.525768,0.628516,99947.20,-137,-71,-109
121912,9.253,-0.965,3.192,-0.457207,0.526300,0.697690,99946.88,-138,-71,-104
121922,9.509,-1.073,3.396,-0.387500,0.537474,0.770589,99946.88,-138,-71,-104
121932,9.723,-1.166,3.643,-0.372601,0.565144,0.838167,99947.88,-138,-75,-107
121942,9.859,-1.158,3.568,-0.405060,0.608777,0.889782,99946.19,-138,-75,-107
121952,9.736,-1.080,3.480,-0.427941,0.664116,0.936608,99945.77,-139,-75,-102
121962,9.507,-1.014,3.484,-0.421023,0.702428,1.006846,99945.19,-138,-75,-102
121972,9.433,-1.072,3.371,-0.393886,0.733823,1.072828,99945.19,-138,-80,-104
121982,9.380,-1.140,3.402,-0.345464,0.764153,1.148919,99947.85,-138,-80,-104
121992,9.556,-1.250,3.629,-0.293317,0.785970,1.251084,99946.02,-139,-82,-99
122002,10.137,-1.497,3.641,-0.269904,0.789162,1.375066,99945.65,-138,-83,-98
122012,10.576,-1.718,3.967,-0.267244,0.810447,1.482020,99946.80,-137,-89,-100
122017,10.774,-1.866,4.116,-0.302363,0.833859,1.548534,99946.80,-137,-89,-100
122027,11.269,-2.012,3.946,-0.345996,0.855144,1.619837,99946.80,-137,-91,-95
122037,11.758,-2.088,3.856,-0.413042,0.898777,1.723598,99948.34,-136,-94,-94
122047,12.062,-2.232,3.685,-0.470510,0.940281,1.826827,99947.66,-136,-94,-94
122057,12.156,-2.360,3.651,-0.550858,0.983382,1.931653,99947.97,-134,-99,-96
122067,12.161,-2.014,3.486,-0.575335,1.020098,2.054570,99946.23,-134,-102,-91
122078,12.262,-1.876,3.447,-0.545005,1.053621,2.196644,99949.79,-131,-106,-90
122087,12.501,-2.289,3.401,-0.537555,1.096722,2.322222,99947.90,-131,-106,-90
122097,12.690,-2.371,3.329,-0.582785,1.141419,2.451524,99947.90,-129,-111,-91
122107,13.001,-2.100,3.450,-0.688143,1.183456,2.581891,99947.70,-127,-116,-86
122117,13.553,-1.821,3.437,-0.831812,1.211657,2.673946,99948.12,-125,-120,-86
122127,14.676,-1.502,3.386,-0.982931,1.196226,2.742588,99948.12,-125,-120,-86
122137,16.526,-0.451,3.803,-1.125537,1.107364,2.783029,99946.70,-120,-126,-89
122147,18.829,0.604,3.502,-1.408619,1.082887,2.777708,99945.96,-118,-128,-84
122158,20.960,0.685,1.750,-2.016820,1.174942,2.673946,99945.02,-114,-130,-89
122167,23.167,3.472,-0.223,-2.941095,1.207933,2.530808,99944.49,-114,-130,-89
122177,24.097,8.858,-0.615,-3.735535,1.176538,2.457910,99947.26,-112,-130,-95
122187,21.508,12.109,0.800,-3.936672,1.141419,2.535598,99945.21,-110,-128,-97
122198,16.700,6.772,5.441,-3.176820,1.078630,2.768130,99945.12,-108,-125,-104
122208,16.139,-4.177,8.725,-1.594326,0.898777,3.358771,99943.80,-108,-125,-104
122217,19.101,-10.426,8.480,-0.664730,0.581639,3.929193,99943.80,-103,-132,-107
122227,19.674,-7.383,9.020,-0.550858,0.498098,3.842459,99943.80,-97,-139,-103
122237,19.527,-1.984,8.105,-0.174657,0.661988,3.526386,99947.80,-92,-144,-104
122247,17.012,2.765,6.979,0.568169,0.840245,3.284276,99945.86,-92,-144,-104
122253,12.871,4.367,5.318,0.897012,0.717860,3.053340,99944.34,-88,-153,-103
122262,9.330,5.164,5.009,1.064095,0.345383,2.667029,99944.03,-84,-160,-96
122272,4.220,-2.438,7.047,1.458388,0.021860,2.156203,99944.03,-84,-160,-96
122283,4.859,-4.836,6.030,1.574920,-0.151076,1.692203,99947.18,-80,-166,-93
122292,8.164,-0.756,1.188,0.906590,-0.387332,0.951507,99948.23,-77,-171,-94
122302,6.458,1.994,0.350,0.476646,-0.491094,0.061819,99947.27,-80,-170,-89
122312,5.631,3.253,0.468,0.251031,-0.736396,-0.371850,99946.38,-80,-170,-89
122322,4.611,2.044,0.396,0.291472,-1.042360,-0.636309,99946.38,-82,-170,-93
122333,3.518,0.140,0.466,0.470793,-1.295112,-0.920988,99944.86,-82,-170,-97
122342,3.281,-1.266,0.655,0.567104,-1.534561,-1.292400,99944.13,-86,-167,-94
122352,3.451,-1.544,1.216,0.579875,-1.729845,-1.736712,99945.17,-86,-167,-94
122362,3.792,-0.951,1.482,0.530389,-1.901717,-2.185280,99943.86,-91,-164,-101
122373,4.273,-0.206,1.503,0.518682,-2.061882,-2.612032,99943.86,-95,-159,-105
122382,4.934,0.025,1.270,0.587857,-2.208212,-3.003133,99943.93,-103,-152,-105
122392,5.461,-0.284,1.172,0.660756,-2.315698,-3.333573,99941.62,-103,-152,-105
122402,6.057,-0.552,1.364,0.748022,-2.384873,-3.613463,99942.62,-106,-144,-114
122413,6.597,-0.969,1.929,0.889563,-2.430634,-3.861426,99938.15,-112,-134,-119
122422,6.767,-1.767,2.391,1.026315,-2.466817,-4.044472,99938.15,-116,-122,-122
122432,7.118,-2.044,2.780,1.074737,-2.528542,-4.235499,99941.84,-116,-122,-122
122442,7.769,-1.946,3.113,1.092829,-2.598781,-4.456857,99942.80,-117,-110,-130
122452,8.608,-2.086,3.445,1.122095,-2.652524,-4.669168,99939.64,-117,-98,-137
122462,9.397,-2.173,3.534,1.108792,-2.709992,-4.865517,99940.02,-117,-83,-140
122472,10.303,-2.469,3.322,1.068884,-2.771716,-5.061334,99940.02,-117,-83,-140
122482,11.467,-3.066,3.183,1.013544,-2.813753,-5.271517,99943.71,-112,-71,-149
122488,12.440,-3.553,3.158,0.969379,-2.840891,-5.396563,99944.18,-106,-58,-155
122498,13.300,-4.028,3.267,0.923618,-2.870689,-5.465737,99944.18,-106,-58,-155
122508,14.294,-4.937,3.782,0.836884,-2.897294,-5.514691,99941.98,-100,-44,-158
122517,14.978,-5.571,5.229,0.740572,-2.899955,-5.570030,99939.57,-88,-37,-167
122527,15.609,-5.714,6.824,0.693214,-2.904212,-5.614195,99939.57,-79,-30,-171
122537,16.297,-6.197,7.777,0.644260,-2.935074,-5.594507,99943.70,-79,-30,-171
122548,16.873,-6.781,8.006,0.561251,-2.956891,-5.512563,99941.71,-73,-23,-172
122557,17.407,-7.103,8.222,0.516554,-2.927624,-5.454031,99941.60,-65,-24,-177
122567,17.696,-7.397,8.767,0.470260,-2.849936,-5.375810,99941.60,-61,-20,-182
122577,17.125,-7.821,9.705,0.378738,-2.723826,-5.193829,99941.60,-61,-20,-182
122588,15.894,-8.694,10.604,0.182389,-2.504065,-4.954912,99945.02,-58,-13,-184
122597,14.169,-9.982,11.349,-0.127831,-2.123075,-4.744728,99942.81,-53,-10,-192
122607,12.075,-11.690,11.060,-0.538088,-1.665460,-4.493040,99945.44,-47,-3,-195
122617,10.613,-13.056,10.187,-1.009537,-1.217956,-4.189206,99946.11,-47,-3,-195
122628,9.677,-13.798,9.777,-1.371904,-0.807167,-3.773628,99946.11,-46,+5,-195
122638,8.873,-14.793,9.310,-1.548564,-0.483112,-3.143610,99947.28,-42,+8,-200
122647,7.571,-15.979,9.194,-1.462362,-0.212800,-2.294895,99944.81,-40,+15,-200
122657,6.490,-15.965,9.420,-1.187262,0.049530,-1.326455,99947.95,-40,+15,-200
122668,6.196,-14.483,9.518,-0.709959,0.304942,-0.353226,99947.95,-40,+20,-198
122678,6.319,-13.151,9.512,-0.034180,0.550245,0.551360,99946.38,-40,+13,-202
122687,8.323,-11.077,8.665,0.684169,0.732226,1.314406,99946.38,-39,+9,-200
122697,8.948,-8.263,8.656,1.293434,0.998281,1.736901,99946.38,-39,+9,-200
122707,16.036,2.240,-3.349,1.661654,0.790226,1.971561,99945.80,-42,+3,-195
122718,21.637,14.847,-9.666,0.696939,0.756171,1.620369,99947.34,-43,-9,-199
122723,15.009,2.619,-5.930,0.590517,0.889199,1.467653,99947.34,-43,-9,-199
122732,10.737,-8.569,1.530,1.632388,1.234006,1.827891,99948.50,-43,-13,-194
122742,19.032,-9.740,2.708,1.507342,1.170153,2.756423,99947.45,-47,-23,-190
122753,23.641,-7.570,0.302,-0.157629,1.259547,2.678203,99949.81,-46,-31,-192
122763,16.741,-6.358,3.393,-0.589170,1.534648,2.608497,99947.72,-46,-31,-192
122772,12.618,-0.319,5.848,-0.128363,1.637877,2.911267,99947.72,-47,-31,-188
122782,9.956,3.093,7.089,0.414389,1.694281,2.719175,99947.94,-51,-35,-184
122792,7.747,0.344,7.987,0.851783,1.657565,2.419065,99947.58,-51,-47,-184
122803,6.626,-2.036,10.908,1.044939,1.621382,2.228570,99944.58,-51,-47,-184
122812,8.178,-2.352,7.836,1.038021,1.503253,1.985928,99944.80,-54,-51,-179
122822,11.734,-4.220,3.478,0.767178,1.292538,1.838001,99944.80,-58,-55,-174
122832,12.537,-6.472,2.931,0.383527,1.208465,1.851304,99948.18,-56,-64,-175
122843,10.890,-4.848,3.163,0.033398,1.114813,1.810864,99944.60,-56,-64,-175
122853,10.334,-3.054,3.087,-0.377923,0.988703,1.671451,99945.60,-57,-63,-172
122862,10.233,-2.439,2.934,-0.670051,0.861529,1.524589,99947.65,-59,-63,-172
122872,10.047,-2.100,3.092,-0.797225,0.765217,1.381983,99947.65,-57,-68,-174
122883,9.766,-1.353,3.066,-0.770620,0.685933,1.202130,99949.64,-57,-68,-174
122893,10.079,-0.744,2.643,-0.547666,0.623676,1.027066,99948.50,-58,-64,-172
122902,10.200,-0.434,2.448,-0.193280,0.623676,0.895635,99946.92,-60,-64,-171
122912,10.053,-0.528,2.702,0.092462,0.642832,0.852534,99942.41,-58,-69,-173
122923,9.866,-1.250,3.012,0.171747,0.627933,0.846149,99942.41,-58,-69,-173
122933,9.553,-1.345,2.883,0.112151,0.598135,0.792406,99947.50,-59,-67,-170
122942,9.281,-1.253,2.867,0.019031,0.572594,0.723232,99948.66,-61,-68,-168
122952,9.098,-1.342,2.902,-0.108143,0.542263,0.657782,99946.56,-60,-72,-171
122962,9.143,-1.327,2.941,-0.319390,0.513529,0.584351,99946.61,-60,-72,-171
122973,9.180,-0.880,3.146,-0.551390,0.491181,0.523158,99946.61,-62,-69,-167
122983,9.227,-0.175,3.208,-0.687078,0.476814,0.481654,99948.70,-63,-68,-167
122992,9.252,0.216,2.894,-0.697188,0.492245,0.473140,99944.82,-61,-69,-170
123002,9.155,-0.126,2.446,-0.595023,0.532685,0.503470,99946.24,-63,-69,-168
123013,9.137,-0.551,2.240,-0.407189,0.573658,0.549764,99947.96,-63,-66,-168
123023,9.274,-0.604,2.372,-0.197005,0.607713,0.597654,99947.96,-65,-66,-167
123032,9.252,-0.672,2.739,-0.042161,0.639639,0.660443,99949.97,-63,-70,-170
123042,9.119,-1.132,3.255,-0.016620,0.664116,0.706204,99946.30,-65,-68,-166
123053,9.120,-0.944,3.901,-0.095372,0.670502,0.713654,99945.66,-65,-68,-166
123063,9.185,-0.716,4.093,-0.212968,0.660924,0.703011,99944.92,-67,-69,-164
123072,9.264,-0.915,3.961,-0.249152,0.652942,0.698222,99944.92,-66,-73,-167
123082,9.374,-1.245,3.614,-0.248620,0.644960,0.710993,99946.52,-68,-69,-164
123092,9.678,-1.301,3.398,-0.222014,0.643896,0.735470,99946.37,-68,-69,-164
123103,9.878,-1.362,3.449,-0.228932,0.656135,0.762608,99947.57,-69,-71,-163
123113,9.830,-1.679,3.454,-0.276290,0.693915,0.793470,99946.99,-67,-74,-165
123122,9.676,-1.506,3.569,-0.348656,0.737015,0.824332,99946.99,-69,-71,-162
123132,9.568,-1.122,3.899,-0.402932,0.764153,0.859984,99945.16,-69,-71,-162
123143,9.663,-1.113,4.100,-0.442308,0.770006,0.904149,99946.14,-70,-73,-162
123153,9.818,-1.273,4.016,-0.487537,0.783841,0.951507,99947.98,-69,-75,-165
123162,9.830,-1.576,3.939,-0.547666,0.814703,0.996204,99944.78,-71,-71,-160
123172,9.713,-1.802,3.960,-0.637592,0.846098,1.038241,99944.78,-71,-71,-160
123183,10.189,-1.755,4.001,-0.718473,0.870575,1.090919,99948.24,-73,-73,-159
123193,10.306,-1.433,4.171,-0.779665,0.905694,1.143066,99948.09,-71,-75,-163
123202,10.356,-1.262,4.313,-0.810528,0.925914,1.250552,99944.99,-73,-71,-158
123212,10.768,-1.623,3.776,-0.829684,0.930703,1.370809,99943.37,-73,-71,-158
123223,11.752,-1.852,3.485,-0.819574,0.940813,1.502240,99943.37,-73,-74,-159
123233,11.971,-2.013,3.228,-0.781794,0.964758,1.654424,99946.86,-71,-75,-162
123243,11.862,-2.349,2.906,-0.730179,0.998814,1.817249,99947.80,-74,-74,-157
123252,12.254,-2.627,2.995,-0.673776,1.017437,1.964112,99945.08,-74,-74,-157
123262,12.708,-2.519,3.291,-0.630143,1.023291,2.117891,99947.06,-72,-77,-156
123273,13.027,-2.257,3.453,-0.614179,1.044043,2.254112,99947.06,-69,-81,-159
123283,13.079,-1.922,3.682,-0.647170,1.085547,2.385543,99949.84,-69,-79,-153
123292,13.358,-1.364,3.840,-0.731776,1.114813,2.514313,99946.52,-69,-79,-153
123302,14.263,-0.487,4.200,-0.791372,1.110556,2.646808,99945.63,-67,-83,-153
123313,15.896,1.012,4.568,-0.832876,1.100978,2.792074,99946.95,-62,-87,-155
123323,17.752,1.656,4.504,-0.989317,1.172813,2.917652,99946.95,-62,-87,-148
123333,19.779,1.476,4.026,-1.364986,1.261144,2.966074,99946.27,-62,-87,-148
123342,22.542,3.226,2.855,-2.018949,1.278703,2.913928,99943.34,-60,-90,-150
123353,25.249,7.487,1.513,-2.806471,1.357455,2.795799,99945.05,-54,-88,-154
123363,24.259,10.348,1.321,-3.452985,1.469198,2.761744,99943.65,-53,-81,-151
123373,21.087,6.883,2.967,-3.803645,1.474520,2.900625,99943.65,-53,-81,-151
123382,18.878,-1.627,6.936,-3.599315,1.399492,3.155505,99945.20,-49,-79,-156
123393,19.237,-7.694,7.800,-2.969297,1.160043,3.554588,99947.30,-44,-76,-161
123403,19.631,-6.142,8.717,-2.315866,1.121731,3.767964,99943.52,-40,-77,-155
123413,19.605,0.582,9.214,-1.237812,1.345217,3.524257,99941.27,-40,-77,-155
123422,15.951,5.491,8.658,0.036591,1.686299,3.011304,99941.27,-36,-83,-155
123432,12.023,5.683,3.855,0.331380,1.359052,2.612753,99946.73,-33,-90,-154
123443,8.485,1.385,4.686,0.687893,0.909419,2.133855,99945.42,-31,-100,-144
123453,5.743,-5.678,4.168,0.939581,0.583236,1.648038,99945.69,-28,-100,-144
123463,9.768,-1.909,-0.152,0.391508,0.236300,1.107947,99943.28,-28,-108,-142
123472,7.819,2.669,-1.744,-0.011831,0.037823,0.144828,99943.28,-25,-114,-142
123483,6.003,4.520,-0.862,-0.169335,-0.187259,-0.557557,99946.66,-28,-120,-134
123493,5.486,3.475,-0.318,-0.099097,-0.456507,-1.026345,99945.29,-29,-124,-137
123503,4.702,1.397,-0.088,0.162701,-0.660837,-1.392969,99943.82,-29,-124,-137
123512,3.850,-0.071,0.219,0.516022,-0.842286,-1.705317,99944.51,-33,-129,-137
123523,3.398,-0.733,0.406,0.787930,-1.062048,-2.054913,99944.51,-39,-134,-129
123533,3.616,-0.858,0.307,0.970444,-1.303625,-2.451335,99943.88,-46,-142,-129
123543,4.368,-0.588,0.183,1.144976,-1.539350,-2.833922,99939.94,-46,-142,-129
123552,5.259,-0.289,0.165,1.309930,-1.759644,-3.156913,99938.20,-54,-146,-129
123563,6.058,-0.846,0.262,1.406241,-1.935772,-3.425628,99939.47,-67,-150,-121
123573,6.341,-1.649,0.471,1.397728,-2.070928,-3.667738,99939.47,-78,-152,-125
123583,6.561,-1.660,0.971,1.345049,-2.191717,-3.890692,99940.92,-78,-152,-125
123593,7.040,-1.477,1.504,1.426994,-2.315698,-4.132802,99935.58,-92,-150,-127
123602,7.849,-2.128,2.178,1.517452,-2.447129,-4.372252,99938.72,-109,-146,-124
123613,8.658,-2.876,2.552,1.563746,-2.582817,-4.560086,99939.36,-121,-140,-132
123623,9.120,-3.569,2.683,1.540333,-2.707331,-4.733554,99939.36,-121,-140,-132
123633,9.657,-4.026,2.725,1.422205,-2.824927,-4.915535,99939.65,-134,-131,-142
123642,10.355,-4.318,2.606,1.223196,-2.916450,-5.108159,99941.48,-146,-118,-145
123653,11.156,-4.289,2.573,0.975233,-2.985092,-5.317811,99942.10,-149,-102,-161
123663,12.316,-3.793,2.915,0.685233,-3.029790,-5.508838,99939.32,-149,-102,-161
123673,13.471,-3.618,3.532,0.541563,-3.029258,-5.647186,99939.32,-154,-83,-175
123683,14.291,-4.012,4.434,0.513893,-3.001056,-5.761590,99943.15,-154,-61,-182
123693,15.378,-4.697,5.642,0.346811,-2.961148,-5.881315,99939.79,-143,-43,-197
123703,16.338,-5.548,7.228,0.156316,-2.878670,-5.987737,99939.63,-143,-43,-197
123713,16.861,-6.661,8.642,0.190903,-2.757882,-6.019663,99940.63,-136,-23,-208
123723,17.397,-7.961,9.218,0.349472,-2.643478,-5.924416,99940.63,-126,-7,-208
123732,18.247,-9.160,8.768,0.367031,-2.520561,-5.794581,99942.41,-110,+1,-218
123743,18.445,-9.248,8.265,0.206866,-2.367845,-5.635480,99942.30,-110,+1,-218
123753,17.064,-8.668,8.294,0.078096,-2.178946,-5.394434,99939.94,-101,+10,-223
123763,15.045,-8.695,8.887,0.096719,-1.945882,-5.078361,99943.25,-92,+17,-219
123772,13.502,-9.760,9.595,0.185050,-1.679295,-4.690453,99943.25,-79,+16,-225
123783,12.468,-11.618,10.119,0.200481,-1.383974,-4.247206,99943.44,-79,+16,-225
123793,11.068,-12.997,10.317,0.089802,-1.073222,-3.731059,99942.66,-80,+19,-227
123803,9.602,-13.843,10.045,0.007325,-0.740121,-3.079757,99943.34,-78,+21,-221
123812,8.196,-15.492,9.529,0.021692,-0.402232,-2.257115,99945.23,-73,+17,-227
123823,6.930,-17.087,9.174,0.065325,-0.096268,-1.287611,99945.23,-73,+17,-227
123833,6.216,-16.488,9.531,0.177600,0.174043,-0.277135,99945.41,-79,+17,-228
123843,6.292,-14.363,10.159,0.419710,0.428924,0.646608,99943.79,-82,+14,-223
123853,6.675,-12.800,10.653,0.767178,0.693915,1.429873,99945.30,-81,+2,-227
123863,7.278,-11.877,10.337,1.108260,0.939217,2.060424,99942.90,-81,+2,-227
123873,10.419,-6.035,7.097,1.355159,1.064795,2.367451,99942.90,-90,-5,-227
123883,16.232,8.333,-3.961,1.537673,0.907291,2.173763,99946.52,-93,-17,-219
123893,21.928,24.276,-12.923,0.862425,0.684869,1.567158,99950.19,-91,-30,-225
123902,10.770,1.115,-3.550,1.373783,1.021694,1.245231,99946.56,-91,-30,-225
123913,9.927,-14.366,6.284,3.060039,1.330318,2.261029,99945.52,-101,-40,-222
123923,20.977,-8.979,3.480,2.281030,1.160043,3.192753,99945.52,-101,-59,-213
123933,24.018,-4.152,-0.413,0.508572,1.392575,2.588809,99947.57,-99,-72,-217
123943,16.692,-8.295,1.532,0.445783,1.609676,2.735139,99945.52,-106,-79,-213
123953,12.884,-3.842,2.753,0.577747,1.742171,3.126771,99946.30,-106,-79,-213
123963,8.470,0.492,5.127,0.505380,1.869345,2.705341,99942.12,-105,-86,-204
123973,6.893,0.392,7.246,0.564976,1.791125,2.291359,99942.12,-103,-97,-208
123983,6.489,-0.354,11.115,0.582536,1.705987,2.079047,99948.79,-111,-104,-202
123993,7.696,-0.413,11.432,0.782609,1.697474,1.853433,99946.27,-111,-104,-202
124003,12.168,-2.591,4.307,0.754939,1.421309,1.774148,99944.80,-111,-110,-195
124013,12.870,-7.871,3.757,0.237551,1.263449,1.923849,99945.02,-109,-120,-198
124023,10.918,-5.701,3.012,-0.034712,1.171217,1.977414,99945.02,-115,-123,-193
124033,10.523,-4.433,2.989,-0.604601,1.033401,1.838534,99945.81,-115,-123,-193
124043,10.227,-3.398,2.994,-0.987188,0.916869,1.648038,99947.48,-110,-122,-190
124053,9.676,-2.670,2.764,-1.123940,0.798208,1.396883,99945.23,-106,-125,-200
124063,10.249,-2.076,2.449,-0.873317,0.713071,1.113268,99943.92,-114,-123,-196
124072,10.996,-1.330,2.147,-0.504565,0.687529,0.891378,99943.92,-114,-123,-196
124083,10.596,-0.878,2.555,-0.212968,0.706153,0.826993,99948.13,-110,-123,-192
124093,10.110,-0.855,3.093,-0.067703,0.691786,0.834975,99946.15,-107,-128,-198
124103,10.077,-1.206,3.275,-0.007042,0.647089,0.796663,99944.52,-114,-127,-192
124113,9.736,-1.135,3.081,0.031802,0.603988,0.726956,99947.55,-114,-127,-192
124123,9.039,-1.071,3.090,0.082352,0.567805,0.666296,99947.55,-110,-128,-188
124133,8.615,-1.364,3.382,0.040316,0.523639,0.605635,99947.50,-109,-132,-194
124143,8.827,-1.499,3.615,-0.174657,0.476814,0.512516,99946.88,-115,-131,-188
124153,8.998,-1.302,3.571,-0.475299,0.451273,0.416204,99948.34,-115,-131,-188
124163,8.983,-0.546,3.213,-0.698253,0.440098,0.358736,99945.66,-112,-130,-188
124173,9.131,0.124,2.746,-0.697720,0.450208,0.340113,99945.66,-111,-130,-195
124183,9.245,0.165,2.174,-0.492326,0.482135,0.353947,99949.19,-117,-128,-190
124193,9.332,0.045,1.799,-0.188491,0.531621,0.409287,99946.61,-117,-128,-190
124204,9.397,-0.546,2.004,0.089270,0.583768,0.500278,99945.83,-112,-128,-188
124213,9.367,-1.293,2.838,0.187710,0.632722,0.575837,99943.56,-113,-132,-193
124223,9.138,-1.530,3.760,0.052554,0.658263,0.602443,99943.56,-118,-132,-187
124233,8.893,-1.298,4.204,-0.182106,0.651346,0.597654,99945.07,-118,-132,-187
124243,9.095,-0.891,4.087,-0.371005,0.639107,0.587544,99944.60,-114,-132,-186
124249,9.474,-0.724,3.623,-0.461996,0.639107,0.586479,99944.18,-115,-134,-192
124258,9.781,-0.819,3.158,-0.466785,0.658263,0.601378,99944.18,-115,-134,-192
124268,9.739,-0.993,2.963,-0.450822,0.699236,0.660975,99945.49,-121,-133,-186
124278,9.729,-1.013,3.171,-0.448161,0.739144,0.724296,99945.49,-117,-132,-185
124289,9.894,-0.695,3.404,-0.450289,0.774795,0.790277,99947.61,-117,-136,-192
124298,10.007,-0.739,3.510,-0.458803,0.812575,0.870094,99946.31,-117,-136,-192
124308,9.799,-0.573,3.538,-0.477959,0.856740,0.936076,99945.45,-122,-135,-183
124318,9.688,-0.798,3.732,-0.479555,0.892392,1.007378,99945.45,-117,-136,-183
124328,9.982,-1.243,3.876,-0.493390,0.929639,1.044094,99945.45,-119,-138,-190
124338,10.151,-1.723,4.093,-0.552455,0.956245,1.104754,99946.09,-119,-138,-190
124348,10.013,-1.672,4.276,-0.668987,0.976465,1.154773,99948.80,-124,-138,-182
124358,9.784,-0.904,4.543,-0.769023,0.993492,1.221286,99944.51,-119,-138,-182
124368,10.363,-1.030,4.383,-0.816381,1.016905,1.288332,99946.71,-121,-140,-188
124378,11.555,-2.110,3.492,-0.825427,0.999346,1.398479,99946.71,-121,-140,-188
124388,12.280,-2.379,3.287,-0.805207,0.988171,1.523525,99947.54,-123,-140,-179
124398,12.108,-2.395,2.977,-0.761042,1.016373,1.682625,99947.43,-118,-141,-181
124408,12.494,-2.762,2.713,-0.729647,1.038722,1.797561,99946.70,-119,-146,-185
124419,13.013,-3.253,2.653,-0.674308,1.037657,1.921543,99946.70,-119,-146,-185
124429,13.010,-2.967,2.591,-0.638124,1.053089,2.067873,99946.88,-119,-147,-177
124438,12.824,-2.194,2.763,-0.628014,1.078098,2.213671,99944.26,-114,-148,-178
124448,12.760,-1.635,3.005,-0.611519,1.097786,2.367983,99944.26,-112,-154,-180
124459,13.189,-1.190,3.269,-0.618436,1.118538,2.522295,99944.99,-112,-154,-180
124468,14.033,-0.500,3.717,-0.681757,1.120667,2.662240,99943.79,-111,-156,-169
124478,15.271,0.482,3.991,-0.764766,1.121731,2.789946,99943.79,-103,-156,-172
124488,16.824,1.051,4.049,-0.936106,1.165364,2.888386,99946.22,-101,-162,-174
124498,18.646,0.967,3.371,-1.409683,1.273914,2.918185,99947.75,-101,-162,-174
124509,22.113,2.694,2.096,-2.257866,1.349474,2.809634,99945.64,-99,-163,-165
124518,25.673,8.239,1.335,-3.206618,1.386189,2.626588,99944.02,-93,-157,-172
124528,24.565,11.707,1.111,-3.934544,1.491015,2.627652,99945.64,-93,-153,-180
124538,20.423,8.608,3.475,-4.164948,1.487290,2.761744,99945.38,-93,-153,-180
124549,18.776,-0.765,8.642,-3.631774,1.304777,3.079946,99941.44,-91,-147,-177
124558,20.356,-8.197,9.943,-2.302563,1.127584,3.630679,99941.44,-85,-141,-182
124568,21.745,-9.361,10.210,-1.361261,1.168556,4.044129,99942.23,-84,-148,-181
124578,20.941,-2.586,8.673,-0.920675,1.444189,3.944624,99942.23,-84,-148,-181
124589,17.356,5.014,4.135,-0.609390,1.566042,3.476367,99942.46,-81,-154,-168
124598,12.343,8.297,2.482,-0.066638,1.335639,2.979377,99945.29,-78,-152,-167
124608,7.352,0.548,4.823,0.494205,0.981786,2.486111,99945.20,-80,-162,-162
124618,6.705,-4.615,4.790,0.716627,0.623144,1.970497,99944.62,-77,-166,-149
124628,8.733,-0.909,0.846,0.168554,0.343254,1.147323,99944.62,-77,-166,-149
124639,7.162,3.117,-0.279,-0.126235,0.182557,0.128333,99948.88,-80,-161,-150
124648,5.880,4.887,-0.274,-0.216693,-0.024434,-0.644823,99944.45,-86,-162,-150
124658,4.830,3.527,-0.604,-0.174657,-0.297938,-1.175868,99941.96,-90,-156,-140
124668,3.845,0.872,-0.645,-0.041097,-0.532066,-1.547281,99941.96,-90,-156,-140
124679,3.471,-1.040,-0.474,0.075967,-0.763002,-1.865482,99941.96,-94,-147,-144
124688,3.456,-1.366,0.068,0.191435,-0.969461,-2.214014,99944.81,-101,-145,-145
124698,3.358,-0.725,0.374,0.350536,-1.169534,-2.605115,99945.66,-105,-136,-137
124708,3.468,-0.038,0.323,0.579343,-1.391956,-3.002069,99943.97,-105,-136,-137
124719,4.333,0.192,0.304,0.911912,-1.618457,-3.388380,99941.13,-110,-126,-144
124728,5.265,-0.006,0.411,1.230645,-1.798488,-3.658160,99941.13,-116,-121,-145
124738,5.806,-0.295,0.807,1.597269,-1.971423,-3.882178,99941.28,-119,-112,-137
124748,6.045,-1.079,1.157,1.842571,-2.097533,-4.082252,99940.86,-119,-112,-137
124759,6.577,-2.038,1.262,1.845764,-2.234286,-4.280196,99937.14,-122,-102,-145
124769,7.327,-2.110,1.815,1.829269,-2.373698,-4.487187,99936.32,-125,-94,-149
124778,8.268,-2.085,2.494,1.923452,-2.495551,-4.685132,99938.59,-125,-84,-143
124788,9.117,-2.609,3.123,1.996351,-2.617937,-4.836251,99939.95,-125,-84,-143
124798,9.876,-3.339,3.187,1.989966,-2.750432,-4.984178,99939.95,-123,-74,-153
124809,10.568,-3.787,3.091,1.845232,-2.868560,-5.150728,99938.26,-121,-67,-156
124818,11.257,-3.934,2.832,1.573856,-2.981900,-5.317811,99938.05,-117,-56,-154
124828,12.453,-3.909,2.738,1.227453,-3.098964,-5.467333,99938.05,-117,-56,-154
124834,13.707,-4.245,3.058,1.022590,-3.144193,-5.573223,99941.68,-111,-46,-163
124844,14.574,-4.874,3.571,0.918829,-3.152707,-5.656232,99941.16,-108,-39,-167
124854,15.116,-5.483,5.047,0.711306,-3.151111,-5.745094,99939.85,-108,-39,-167
124863,15.851,-5.593,7.274,0.394701,-3.145257,-5.857369,99940.38,-104,-23,-164
124873,16.620,-5.613,8.920,0.241985,-3.097900,-5.980287,99940.38,-97,-15,-174
124883,17.453,-6.010,9.770,0.320205,-2.991478,-6.025517,99942.95,-94,-5,-177
124894,18.251,-6.652,9.831,0.398426,-2.848340,-5.947296,99938.77,-94,-5,-177
124903,18.733,-7.103,9.463,0.295196,-2.663698,-5.807883,99941.39,-88,+9,-175
124913,17.908,-7.029,9.402,0.118536,-2.419460,-5.655168,99942.64,-81,+15,-184
124923,16.623,-7.499,9.662,-0.012895,-2.119350,-5.464673,99942.64,-78,+27,-185
124934,15.598,-9.313,10.305,-0.165611,-1.761240,-5.192233,99942.60,-78,+27,-185
124944,13.650,-11.556,10.252,-0.446565,-1.371735,-4.764416,99942.18,-69,+39,-182
124954,10.841,-12.960,9.828,-0.709604,-0.919620,-4.196833,99940.40,-64,+45,-190
124963,9.131,-14.576,8.981,-0.886087,-0.581020,-3.593775,99941.87,-61,+54,-188
124974,7.660,-16.137,8.143,-0.947812,-0.271333,-2.711537,99941.87,-61,+54,-188
124984,6.528,-16.317,7.966,-0.682821,0.001108,-1.614327,99944.71,-57,+63,-182
124993,5.864,-15.659,8.204,-0.094308,0.237364,-0.411759,99945.40,-55,+60,-187
125003,6.064,-14.554,8.197,0.593178,0.465640,0.712057,99946.02,-58,+56,-184
125014,6.927,-13.729,7.908,1.198719,0.697639,1.632607,99944.46,-58,+56,-184
125024,8.462,-12.106,7.300,1.620682,0.878557,2.313176,99944.46,-58,+51,-176
125033,10.686,-5.222,7.189,1.813305,1.073841,2.488772,99946.15,-59,+36,-182
125043,17.402,10.131,-1.872,1.748920,0.965823,2.243469,99946.20,-63,+29,-176
125053,20.004,18.283,-6.343,0.289343,1.036061,1.539488,99949.82,-63,+29,-176
125064,10.003,-5.472,-0.366,1.007159,1.335639,1.400075,99946.46,-64,+28,-168
125069,12.320,-13.693,3.682,2.193232,1.318079,2.392460,99946.46,-66,+12,-170
125078,22.921,-10.744,2.212,1.462113,1.071712,3.293854,99946.46,-66,+12,-170
125088,26.288,-8.630,0.910,-0.222014,1.246777,3.028331,99948.59,-69,+7,-165
125099,15.853,-5.129,4.644,-0.032583,1.560721,3.072496,99948.27,-70,+3,-158
125109,11.205,1.403,6.286,0.775159,1.649052,3.397083,99945.75,-72,-11,-161
125119,8.560,0.125,6.005,1.292902,1.646923,3.088992,99945.45,-72,-11,-161
125128,7.391,-3.987,5.647,1.332278,1.563382,2.697359,99949.97,-76,-17,-154
125138,6.869,-3.533,8.409,1.074205,1.513896,2.372240,99946.88,-76,-23,-147
125149,8.008,-2.417,9.600,1.069948,1.500061,2.000827,99946.88,-79,-35,-149
125159,12.834,-4.371,3.345,0.940113,1.266465,1.776277,99946.03,-79,-35,-149
125168,14.139,-9.092,2.588,0.433545,1.203676,1.848112,99947.34,-81,-37,-141
125178,10.909,-6.352,3.469,-0.037372,1.190373,1.843855,99947.34,-81,-38,-137
125189,9.392,-3.623,3.025,-0.720069,1.065859,1.657084,99950.38,-82,-45,-142
125199,9.387,-3.044,2.855,-1.161188,0.965823,1.455947,99946.61,-82,-45,-142
125209,9.496,-2.708,3.053,-1.378821,0.875364,1.224479,99946.13,-84,-40,-137
125218,10.400,-1.451,2.697,-1.254307,0.794483,0.989819,99946.61,-82,-37,-136
125229,11.074,-0.543,2.611,-0.865867,0.761492,0.789213,99950.57,-84,-42,-142
125239,10.547,-0.424,2.907,-0.473170,0.757768,0.717378,99947.88,-84,-42,-142
125249,9.918,-0.609,3.332,-0.295978,0.729566,0.732277,99946.16,-86,-39,-135
125258,9.764,-1.099,3.332,-0.259262,0.675823,0.693966,99946.48,-85,-38,-134
125268,9.685,-1.290,3.152,-0.248620,0.625272,0.615745,99946.48,-88,-44,-139
125279,9.446,-1.151,3.133,-0.267244,0.579511,0.547635,99946.48,-88,-44,-139
125289,9.111,-1.108,3.241,-0.310345,0.538539,0.498681,99947.53,-89,-41,-134
125298,9.019,-0.941,3.565,-0.425812,0.505016,0.441213,99946.70,-88,-40,-132
125308,9.056,-0.493,3.904,-0.598748,0.469896,0.389599,99945.08,-89,-44,-139
125319,8.983,0.189,3.991,-0.741886,0.439034,0.369379,99946.59,-89,-44,-139
125329,9.033,0.587,3.488,-0.777537,0.424667,0.381617,99946.59,-90,-39,-134
125339,9.083,0.092,2.698,-0.686014,0.443291,0.417268,99947.41,-90,-37,-132
125348,9.124,-0.439,2.333,-0.496051,0.472557,0.474204,99947.30,-92,-42,-138
125359,9.186,-0.506,2.434,-0.247024,0.505016,0.541782,99945.74,-92,-42,-138
125369,9.022,-0.992,2.888,-0.086858,0.542795,0.599782,99945.74,-92,-38,-131
125378,8.907,-1.344,3.589,-0.093244,0.566208,0.622131,99945.74,-92,-39,-131
125388,8.873,-1.052,4.003,-0.170400,0.559823,0.620002,99946.86,-93,-45,-136
125399,8.879,-0.579,4.107,-0.217225,0.552906,0.620534,99947.28,-93,-45,-136
125409,9.180,-0.752,3.872,-0.257666,0.550777,0.632773,99944.56,-93,-42,-129
125419,9.694,-1.433,3.266,-0.296510,0.551309,0.657782,99943.88,-93,-43,-128
125428,9.960,-1.467,2.973,-0.295446,0.582704,0.686516,99943.88,-95,-47,-133
125438,9.985,-1.723,3.135,-0.285868,0.625805,0.716314,99946.45,-95,-47,-133
125449,9.919,-2.048,3.212,-0.316730,0.665713,0.738131,99946.87,-95,-44,-125
125459,9.705,-1.710,3.375,-0.357702,0.709878,0.766332,99945.20,-94,-45,-127
125469,9.483,-1.145,3.680,-0.393354,0.750850,0.799323,99948.59,-97,-49,-130
125478,9.483,-0.979,3.794,-0.462528,0.782777,0.834442,99946.28,-97,-49,-130
125489,9.622,-1.123,3.620,-0.525849,0.808318,0.882332,99946.64,-96,-45,-121
125499,9.737,-1.029,3.407,-0.557244,0.826410,0.980241,99946.64,-96,-47,-124
125509,9.727,-0.695,3.486,-0.547666,0.850355,1.112736,99944.75,-99,-52,-127
125518,9.854,-0.324,3.925,-0.543941,0.861529,1.266516,99946.70,-97,-52,-127
125529,10.568,-0.338,4.161,-0.537555,0.856208,1.441048,99946.70,-97,-50,-119
125539,11.541,-0.933,3.836,-0.553519,0.877492,1.632962,99946.27,-97,-53,-120
125548,12.276,-1.256,3.690,-0.592895,0.921125,1.774148,99946.27,-98,-59,-124
125559,12.639,-1.878,3.313,-0.629610,0.991896,1.912497,99944.37,-97,-58,-116
