150010,9.499,-1.070,2.659,0.013178,0.000043,-0.014273,99943.94,+104,+140,+181
150020,9.504,-1.107,2.631,0.015307,0.000043,-0.012144,99940.53,+104,+138,+182
150030,9.502,-1.113,2.674,0.014242,0.000576,-0.012676,99940.53,+104,+138,+182
150040,9.490,-1.127,2.674,0.012646,0.000043,-0.013208,99940.53,+101,+136,+174
150049,9.489,-1.084,2.714,0.012646,-0.001021,-0.014273,99945.47,+104,+141,+182
150060,9.492,-1.087,2.676,0.010518,-0.002085,-0.014805,99947.09,+104,+139,+181
150070,9.499,-1.064,2.680,0.009985,-0.002617,-0.015869,99944.11,+104,+139,+181
150080,9.495,-1.064,2.689,0.008389,-0.002617,-0.016401,99944.69,+102,+136,+173
150089,9.517,-1.081,2.685,0.006793,-0.004213,-0.015337,99944.69,+104,+141,+182
150100,9.509,-1.060,2.665,0.006793,-0.004213,-0.013740,99943.55,+104,+138,+180
150110,9.495,-1.080,2.630,0.006261,-0.005810,-0.014273,99946.07,+104,+138,+180
150120,9.499,-1.090,2.641,0.004664,-0.005810,-0.014805,99942.40,+102,+136,+174
150130,9.466,-1.061,2.673,0.002004,-0.006342,-0.015337,99942.40,+104,+141,+182
150140,9.482,-1.086,2.666,0.003068,-0.006342,-0.014273,99945.20,+104,+138,+180
150150,9.513,-1.072,2.661,0.001472,-0.007938,-0.014805,99945.20,+104,+138,+180
150160,9.514,-1.046,2.655,0.003068,-0.006874,-0.015869,99944.22,+102,+137,+172
150170,9.515,-1.070,2.673,0.002536,-0.006342,-0.015869,99946.67,+104,+140,+182
150180,9.526,-1.077,2.649,0.000940,-0.007406,-0.015337,99943.16,+103,+138,+180
150190,9.481,-1.064,2.662,0.002004,-0.006342,-0.017465,99943.16,+103,+138,+180
150200,9.487,-1.059,2.674,0.000940,-0.007938,-0.016401,99942.88,+102,+136,+174
150210,9.500,-1.037,2.622,-0.002785,-0.008470,-0.016401,99942.67,+105,+140,+183
150220,9.489,-1.068,2.648,-0.003317,-0.009002,-0.015869,99944.50,+104,+138,+179
150231,9.498,-1.074,2.657,-0.003317,-0.009002,-0.015869,99943.23,+101,+136,+174
150240,9.508,-1.028,2.643,-0.003317,-0.009002,-0.013208,99946.22,+101,+136,+174
150250,9.495,-1.016,2.648,-0.003849,-0.008470,-0.012144,99944.95,+104,+141,+183
150260,9.504,-1.030,2.652,-0.002253,-0.008470,-0.010548,99944.13,+103,+138,+179
150269,9.450,-1.040,2.633,-0.002785,-0.009002,-0.008419,99944.13,+102,+137,+174
150280,9.474,-1.031,2.639,-0.001721,-0.007938,-0.005227,99943.55,+102,+137,+174
150290,9.486,-1.054,2.657,0.000408,-0.007406,-0.003630,99943.55,+105,+140,+183
150300,9.474,-1.081,2.636,0.002004,-0.006342,-0.003098,99946.24,+102,+138,+177
150305,9.462,-1.080,2.658,0.004132,-0.006874,-0.004162,99942.95,+102,+138,+177
150315,9.480,-1.080,2.642,0.005729,-0.005810,-0.005227,99943.88,+102,+138,+175
150325,9.514,-1.117,2.645,0.007325,-0.004746,-0.006291,99944.20,+104,+140,+183
150335,9.490,-1.109,2.642,0.006261,-0.004213,-0.008951,99944.20,+104,+140,+183
150345,9.509,-1.101,2.605,0.008389,-0.002085,-0.012144,99948.09,+103,+138,+177
150354,9.490,-1.137,2.642,0.009453,-0.001021,-0.014273,99945.40,+102,+137,+174
150365,9.481,-1.133,2.615,0.010518,0.000043,-0.017997,99943.46,+105,+141,+184
150375,9.495,-1.137,2.672,0.011582,0.000576,-0.022254,99944.51,+105,+141,+184
150385,9.488,-1.091,2.643,0.012646,0.001108,-0.024915,99944.51,+103,+137,+178
150395,9.476,-1.066,2.639,0.013710,0.000576,-0.026511,99944.70,+102,+138,+174
150405,9.487,-1.061,2.636,0.014774,0.001108,-0.027575,99945.92,+106,+141,+184
150415,9.521,-1.024,2.666,0.017435,0.002704,-0.028107,99942.19,+106,+141,+184
150425,9.460,-1.070,2.670,0.016371,0.003768,-0.027575,99943.03,+103,+138,+177
150435,9.468,-1.055,2.643,0.016371,0.005365,-0.030768,99943.03,+101,+138,+175
150445,9.504,-1.061,2.659,0.016371,0.005365,-0.033428,99945.11,+106,+141,+183
150455,9.506,-1.049,2.637,0.017435,0.006961,-0.034493,99944.86,+103,+141,+183
150465,9.515,-1.037,2.624,0.017967,0.006961,-0.035025,99944.17,+103,+137,+177
150475,9.501,-1.035,2.634,0.019031,0.008557,-0.034493,99944.28,+103,+138,+175
150484,9.506,-1.037,2.631,0.018499,0.010154,-0.034493,99944.28,+105,+141,+183
150495,9.486,-1.032,2.655,0.017967,0.010154,-0.034493,99946.33,+103,+136,+176
150505,9.521,-1.013,2.672,0.016371,0.011218,-0.035025,99946.39,+103,+136,+176
150515,9.519,-1.008,2.661,0.014774,0.012282,-0.034493,99945.02,+103,+138,+175
150525,9.466,-1.032,2.671,0.013710,0.013346,-0.033961,99940.72,+106,+140,+183
150535,9.478,-1.099,2.684,0.011582,0.014943,-0.036621,99940.72,+103,+137,+175
150545,9.496,-1.058,2.695,0.012646,0.016007,-0.038750,99945.16,+103,+137,+175
150555,9.505,-1.037,2.642,0.016903,0.017071,-0.043006,99944.20,+103,+138,+176
150565,9.480,-1.037,2.640,0.020628,0.017603,-0.043006,99944.63,+105,+141,+184
150575,9.482,-1.020,2.646,0.020096,0.018135,-0.045135,99943.31,+103,+138,+175
150585,9.482,-0.990,2.628,0.018499,0.019732,-0.046199,99943.31,+103,+138,+175
150595,9.472,-0.963,2.686,0.019031,0.021328,-0.046731,99946.27,+104,+138,+176
150605,9.486,-0.963,2.674,0.017967,0.022924,-0.046731,99945.84,+106,+141,+183
150615,9.495,-0.973,2.684,0.019563,0.024520,-0.046731,99943.11,+103,+137,+174
150625,9.486,-0.958,2.658,0.020096,0.025053,-0.046199,99943.11,+103,+137,+174
150635,9.501,-0.953,2.677,0.022224,0.025585,-0.045667,99943.11,+104,+140,+177
150645,9.511,-0.952,2.686,0.023820,0.027181,-0.043006,99946.72,+106,+141,+183
150656,9.523,-0.963,2.713,0.023820,0.028245,-0.041942,99944.41,+103,+137,+174
150665,9.504,-0.967,2.670,0.021692,0.029309,-0.042474,99946.08,+103,+137,+174
150675,9.481,-0.965,2.677,0.019031,0.030906,-0.043006,99943.78,+104,+139,+177
150685,9.481,-0.971,2.670,0.017435,0.033034,-0.044071,99943.78,+106,+140,+184
150695,9.456,-0.979,2.682,0.017435,0.034631,-0.044071,99945.54,+103,+137,+174
150705,9.469,-0.953,2.707,0.018499,0.034098,-0.045135,99943.87,+103,+137,+174
150715,9.472,-0.931,2.682,0.020096,0.034631,-0.044071,99944.38,+105,+139,+178
150725,9.475,-0.904,2.721,0.020628,0.035695,-0.046199,99943.07,+107,+140,+183
150735,9.515,-0.915,2.719,0.019563,0.036227,-0.046731,99943.07,+104,+136,+174
150746,9.484,-0.922,2.707,0.019031,0.037291,-0.046199,99946.07,+104,+136,+174
150755,9.466,-0.907,2.695,0.017435,0.038355,-0.046199,99944.23,+106,+140,+178
150765,9.504,-0.925,2.716,0.017967,0.039952,-0.047263,99944.91,+108,+141,+183
150775,9.460,-0.955,2.725,0.017435,0.041548,-0.046731,99944.38,+104,+137,+173
150785,9.432,-0.913,2.742,0.014242,0.041016,-0.045135,99944.38,+104,+137,+173
150795,9.440,-0.891,2.768,0.012114,0.042080,-0.044603,99946.40,+106,+140,+178
150805,9.445,-0.895,2.767,0.008921,0.042080,-0.043006,99943.77,+108,+140,+182
150815,9.435,-0.902,2.728,0.005729,0.044209,-0.041942,99943.66,+105,+136,+174
150825,9.471,-0.842,2.698,0.005196,0.047401,-0.040346,99944.13,+105,+136,+174
150835,9.520,-0.828,2.680,0.010518,0.052190,-0.040346,99944.13,+108,+140,+179
150845,9.543,-0.919,2.698,0.015839,0.059108,-0.040878,99942.92,+109,+141,+182
150855,9.513,-0.979,2.661,0.017967,0.064961,-0.043539,99946.08,+105,+136,+172
150865,9.511,-0.900,2.732,0.024885,0.069218,-0.046731,99945.34,+105,+136,+172
150875,9.483,-0.873,2.763,0.033398,0.070814,-0.047263,99943.66,+108,+140,+179
150885,9.496,-0.897,2.798,0.040848,0.072410,-0.049392,99943.66,+109,+140,+182
150895,9.483,-0.877,2.781,0.042444,0.073475,-0.049924,99946.26,+106,+138,+173
150905,9.468,-0.860,2.751,0.042976,0.077731,-0.053649,99947.51,+108,+138,+173
150916,9.442,-0.872,2.689,0.049362,0.081456,-0.056309,99944.99,+108,+140,+180
150925,9.343,-0.897,2.616,0.062132,0.090502,-0.057906,99942.57,+110,+141,+182
150935,9.269,-0.953,2.458,0.079692,0.104337,-0.062162,99942.57,+106,+138,+172
150945,9.326,-1.020,2.476,0.116940,0.119236,-0.073337,99945.22,+110,+141,+179
150956,9.335,-0.931,2.539,0.165362,0.127750,-0.078658,99944.22,+110,+141,+179
150965,9.174,-0.987,2.546,0.217508,0.139988,-0.085043,99945.06,+110,+141,+180
150975,9.002,-1.255,2.411,0.240389,0.152227,-0.091961,99946.27,+108,+138,+172
150985,8.953,-1.243,2.398,0.240389,0.164997,-0.103667,99946.27,+111,+144,+179
150995,8.966,-0.961,2.564,0.243050,0.187346,-0.120162,99945.20,+111,+144,+179
151006,8.810,-1.035,2.628,0.230811,0.213952,-0.134529,99944.55,+112,+142,+179
151015,9.077,-0.995,2.920,0.231343,0.227254,-0.165392,99942.73,+110,+141,+171
151025,9.597,-0.940,3.441,0.255288,0.216612,-0.196254,99941.57,+114,+144,+178
151035,9.833,-0.951,3.815,0.266462,0.193731,-0.231905,99941.57,+114,+144,+178
151046,9.596,-1.131,3.805,0.224426,0.167658,-0.273942,99943.75,+115,+144,+178
151055,9.300,-1.184,3.678,0.139820,0.138924,-0.322896,99941.28,+113,+143,+170
151065,9.386,-0.885,3.700,0.060536,0.110190,-0.378768,99942.70,+117,+146,+178
151075,9.768,-0.506,3.860,0.013710,0.072410,-0.422401,99943.66,+117,+146,+178
151086,10.100,-0.229,3.856,-0.007574,0.026117,-0.435171,99943.66,+116,+144,+178
151095,9.997,-0.356,3.548,-0.027794,-0.010599,-0.425593,99947.01,+114,+141,+170
151105,9.836,-0.241,3.413,-0.065574,-0.038801,-0.409630,99947.70,+118,+146,+178
151115,9.705,0.260,3.259,-0.104418,-0.060085,-0.383557,99946.12,+118,+146,+178
151126,9.675,0.518,3.263,-0.116125,-0.072323,-0.342052,99942.91,+117,+142,+177
151135,9.623,0.393,3.199,-0.114528,-0.083498,-0.285116,99942.91,+115,+141,+171
151145,9.569,0.196,3.144,-0.129959,-0.090415,-0.236162,99944.78,+119,+144,+181
151155,9.575,0.283,3.162,-0.146455,-0.094672,-0.196254,99944.42,+119,+144,+181
151165,9.441,0.344,3.023,-0.146987,-0.094672,-0.159006,99945.36,+117,+141,+177
151176,9.278,0.114,2.846,-0.125170,-0.085094,-0.124951,99943.84,+114,+138,+172
151185,9.387,-0.065,2.937,-0.091647,-0.078177,-0.105795,99943.84,+118,+143,+182
151195,9.569,-0.054,3.048,-0.063446,-0.078177,-0.091961,99946.63,+118,+143,+182
151205,9.462,-0.199,3.065,-0.056528,-0.079773,-0.075465,99945.69,+117,+140,+177
151216,9.280,-0.326,3.067,-0.070895,-0.081901,-0.069612,99944.22,+114,+138,+172
151225,9.207,-0.246,3.075,-0.092180,-0.086158,-0.073869,99945.16,+119,+142,+181
151235,9.239,-0.017,3.060,-0.103886,-0.090947,-0.074401,99945.16,+119,+142,+181
151245,9.299,-0.006,2.980,-0.094840,-0.092012,-0.070676,99945.95,+115,+139,+177
151256,9.343,-0.215,2.965,-0.068235,-0.094672,-0.061630,99945.70,+114,+138,+173
151266,9.405,-0.278,2.908,-0.057592,-0.095204,-0.056841,99943.97,+117,+140,+183
151275,9.399,-0.356,2.816,-0.058657,-0.091479,-0.059502,99943.86,+117,+140,+183
151285,9.434,-0.308,2.883,-0.048547,-0.087755,-0.064823,99943.86,+115,+138,+177
151296,9.490,-0.263,2.809,-0.030987,-0.086690,-0.068548,99944.90,+114,+137,+174
151306,9.501,-0.249,2.847,-0.003317,-0.085094,-0.068548,99945.59,+117,+140,+183
151315,9.514,-0.198,2.902,0.021692,-0.088287,-0.065355,99942.27,+117,+140,+183
151325,9.468,-0.074,2.874,0.030738,-0.087755,-0.057373,99944.07,+115,+138,+178
151335,9.383,-0.091,2.828,0.032334,-0.085626,-0.047263,99944.07,+114,+138,+174
151346,9.354,0.010,2.733,0.027013,-0.078177,-0.033428,99943.77,+117,+140,+183
151355,9.426,0.062,2.737,0.022224,-0.067002,-0.015869,99943.13,+117,+140,+183
151361,9.562,0.038,2.761,0.025417,-0.061149,-0.004162,99943.81,+114,+138,+178
151370,9.594,0.044,2.818,0.034463,-0.054764,0.012333,99943.81,+113,+137,+174
151380,9.512,0.067,2.890,0.039252,-0.048911,0.038938,99945.08,+113,+137,+174
151391,9.390,0.013,2.755,0.042976,-0.044122,0.063416,99945.08,+115,+142,+183
151401,9.381,0.140,2.799,0.050958,-0.038801,0.088957,99945.67,+113,+138,+177
151410,9.474,0.178,2.819,0.058940,-0.034012,0.118755,99944.28,+112,+138,+174
151420,9.527,-0.006,2.867,0.058407,-0.029223,0.148553,99943.31,+112,+138,+174
151431,9.600,-0.167,2.871,0.047765,-0.025498,0.174626,99943.31,+115,+142,+183
151440,9.495,-0.151,2.849,0.019563,-0.017516,0.199104,99943.31,+113,+138,+175
151450,9.366,-0.024,2.884,-0.012363,-0.011663,0.223048,99946.70,+112,+139,+174
151460,9.367,0.107,2.900,-0.034712,-0.009002,0.248058,99946.86,+112,+139,+174
151471,9.286,0.253,2.726,-0.042161,-0.001553,0.282645,99945.44,+115,+142,+182
151481,9.298,0.037,2.597,-0.021409,0.012282,0.325214,99942.61,+112,+140,+175
151490,9.524,-0.026,2.592,0.000940,0.029309,0.361397,99942.61,+111,+140,+174
151500,9.654,-0.113,2.646,0.023288,0.041548,0.395984,99945.07,+111,+140,+174
151511,9.720,-0.065,2.788,0.042444,0.049530,0.434828,99939.24,+114,+142,+182
151521,9.638,0.041,2.964,0.055215,0.054319,0.469947,99943.76,+110,+139,+174
151531,9.608,-0.125,3.143,0.070114,0.046337,0.503470,99943.76,+111,+141,+174
151540,9.590,-0.265,3.157,0.053618,0.032502,0.536993,99945.99,+111,+141,+174
151550,9.555,-0.471,3.139,0.004664,0.017071,0.567323,99943.37,+114,+144,+182
151561,9.562,-0.471,3.018,-0.055464,0.009621,0.596057,99943.37,+110,+140,+174
151571,9.498,-0.236,3.058,-0.127299,0.005365,0.630645,99945.26,+110,+142,+175
151580,9.618,0.094,3.019,-0.179446,0.004832,0.683323,99942.52,+111,+142,+183
151590,9.681,0.243,2.774,-0.239042,0.029842,0.764736,99942.52,+111,+144,+183
151596,9.782,0.289,2.732,-0.288528,0.060172,0.833378,99945.61,+108,+140,+174
151606,10.023,0.421,2.818,-0.328436,0.088906,0.911066,99943.14,+108,+140,+174
151616,10.383,0.890,3.044,-0.363556,0.119236,1.029727,99943.19,+108,+142,+176
151625,10.810,1.400,3.114,-0.370473,0.142117,1.184039,99944.83,+109,+144,+183
151635,11.087,1.158,2.732,-0.360363,0.178300,1.358571,99944.83,+104,+140,+174
151646,11.511,0.615,2.080,-0.339611,0.233640,1.533635,99945.37,+104,+140,+174
151656,12.307,0.108,1.840,-0.286932,0.296961,1.688479,99943.57,+104,+143,+175
151665,13.745,-0.866,2.234,-0.257134,0.344318,1.807139,99944.10,+105,+144,+183
151675,16.495,-1.257,2.125,-0.311409,0.366135,1.865139,99944.84,+101,+140,+174
151686,20.476,-1.307,2.109,-0.497115,0.410832,1.844919,99944.84,+101,+140,+174
151696,24.741,-1.260,1.488,-0.736565,0.493841,1.742754,99948.08,+101,+142,+177
151705,24.601,-1.182,-0.293,-1.015390,0.668905,1.679965,99946.81,+101,+140,+185
151715,20.869,-0.714,-1.372,-1.438417,0.804061,1.656552,99944.39,+97,+131,+177
151726,17.791,-0.427,-0.811,-1.734802,0.764685,1.502240,99942.14,+97,+131,+177
151736,14.944,-0.842,0.401,-1.709793,0.610373,1.269176,99942.14,+96,+128,+182
151746,10.452,-2.200,3.187,-1.412876,0.505548,1.079213,99944.14,+97,+122,+190
151755,7.052,-5.618,7.292,-0.873849,0.484795,1.059525,99943.72,+92,+114,+182
151766,7.551,-8.496,9.032,-0.604069,0.405511,1.080277,99943.25,+92,+114,+182
151776,7.528,-9.231,8.684,-0.718473,0.386355,1.066442,99941.72,+91,+112,+188
151786,7.163,-9.496,9.029,-0.840326,0.415621,1.067507,99941.72,+91,+108,+194
151795,7.146,-10.061,10.934,-0.845647,0.519915,1.115396,99942.05,+85,+100,+185
151805,8.774,-8.025,8.881,-0.892473,0.549181,1.095708,99945.41,+85,+100,+185
151816,9.239,-7.055,7.364,-0.877574,0.592282,1.062186,99942.84,+86,+97,+192
151826,9.415,-7.989,7.028,-0.668454,0.601327,1.191488,99944.37,+85,+93,+196
151831,9.098,-9.022,6.747,-0.529042,0.594410,1.325048,99944.37,+85,+93,+196
151840,8.281,-8.933,6.430,-0.400803,0.593878,1.445305,99944.37,+79,+87,+187
151851,7.158,-7.618,5.725,-0.215629,0.595474,1.551726,99945.84,+79,+87,+193
151861,6.294,-6.509,4.905,-0.017684,0.599199,1.589506,99941.90,+78,+84,+197
151871,5.436,-5.817,4.178,0.172811,0.601327,1.620901,99940.80,+78,+84,+197
151881,4.424,-5.320,3.589,0.353196,0.602392,1.640589,99941.67,+73,+79,+188
151890,3.341,-4.850,3.140,0.501655,0.593346,1.632075,99942.98,+74,+81,+193
151901,2.219,-4.357,2.689,0.607013,0.568337,1.593231,99942.25,+72,+81,+197
151911,1.277,-3.695,2.216,0.722480,0.529493,1.526185,99942.25,+72,+81,+197
151920,0.810,-3.168,1.774,0.849655,0.492245,1.456479,99943.19,+68,+77,+188
151930,0.677,-2.985,1.328,0.927875,0.447548,1.391029,99943.14,+69,+82,+195
151941,0.499,-2.881,0.952,0.940645,0.395933,1.318662,99943.14,+68,+83,+197
151951,0.175,-2.719,0.694,0.901801,0.350704,1.237250,99942.55,+68,+83,+197
151961,-0.037,-2.547,0.417,0.801765,0.301218,1.147323,99945.59,+64,+81,+188
151971,-0.090,-2.632,0.171,0.664481,0.257052,1.049415,99943.59,+66,+85,+194
151981,-0.183,-2.700,0.096,0.500059,0.219805,0.946186,99943.91,+66,+86,+196
151991,-0.279,-2.550,0.119,0.329783,0.187878,0.842424,99942.79,+66,+86,+196
152001,-0.368,-2.298,0.157,0.189839,0.156484,0.738131,99944.26,+63,+83,+188
152011,-0.379,-2.207,0.048,0.118536,0.124557,0.629580,99945.52,+64,+87,+194
152020,-0.306,-2.338,-0.020,0.081288,0.088906,0.514645,99941.95,+64,+88,+195
152031,-0.159,-2.453,0.059,0.029674,0.049530,0.394388,99941.95,+64,+88,+195
152041,0.048,-2.584,0.201,-0.036308,0.004300,0.264021,99941.95,+62,+85,+187
152051,0.172,-2.401,0.351,-0.085262,-0.039333,0.144828,99943.22,+66,+89,+194
152060,0.277,-2.216,0.564,-0.055464,-0.070195,0.048516,99945.53,+64,+89,+194
152071,0.341,-2.305,0.887,0.057875,-0.102654,-0.044603,99942.33,+62,+87,+185
152081,0.554,-2.736,0.982,0.165894,-0.142562,-0.136126,99942.44,+62,+87,+185
152091,1.021,-3.227,1.049,0.220169,-0.195241,-0.247869,99942.44,+66,+93,+192
152101,1.490,-3.454,1.346,0.234536,-0.248984,-0.371318,99944.01,+66,+93,+192
152111,1.903,-3.375,1.760,0.251563,-0.313369,-0.494768,99943.04,+63,+94,+183
152121,2.624,-3.203,1.787,0.271783,-0.393186,-0.617153,99941.45,+63,+94,+183
152131,3.298,-3.350,1.919,0.348939,-0.456507,-0.734217,99941.45,+68,+101,+190
152140,3.908,-3.788,2.384,0.397893,-0.529938,-0.832657,99941.45,+68,+102,+187
152151,4.346,-4.253,2.973,0.377141,-0.619332,-0.931098,99944.89,+67,+102,+179
152161,4.849,-4.322,3.608,0.332976,-0.709791,-1.056676,99943.53,+67,+102,+179
152171,6.006,-4.474,4.079,0.243582,-0.797589,-1.235996,99942.95,+71,+111,+187
152181,7.272,-4.613,4.452,0.078096,-0.871020,-1.453097,99943.47,+71,+112,+184
152190,8.212,-4.394,4.785,-0.135813,-0.926892,-1.641464,99943.47,+71,+112,+177
152201,8.751,-3.950,4.765,-0.324712,-0.951369,-1.795776,99944.77,+71,+112,+177
152211,8.919,-3.725,4.617,-0.478491,-0.955626,-1.960730,99942.25,+75,+118,+185
152221,8.906,-3.652,4.221,-0.647170,-0.948176,-2.133133,99943.41,+77,+116,+182
152231,8.818,-3.443,3.923,-0.800418,-0.937002,-2.315115,99943.54,+77,+116,+176
152241,9.053,-3.157,3.700,-0.899390,-0.930084,-2.514124,99942.54,+77,+116,+176
152251,9.958,-2.888,3.766,-0.922271,-0.939130,-2.726968,99945.23,+83,+120,+187
152261,11.527,-2.589,4.014,-0.894601,-0.977974,-2.932362,99945.23,+85,+117,+182
152270,13.237,-2.226,4.288,-0.802014,-1.034378,-3.087738,99943.80,+87,+117,+178
152281,14.404,-1.917,4.468,-0.582785,-1.068965,-3.156913,99941.76,+87,+117,+178
152291,15.236,-1.775,4.434,-0.232124,-1.058323,-3.152124,99941.76,+93,+120,+188
152301,15.936,-2.030,4.372,0.237551,-0.983827,-3.096784,99947.30,+95,+120,+182
152310,16.193,-2.544,5.051,0.569765,-0.892305,-2.991426,99947.30,+97,+122,+179
152321,12.957,-11.111,16.938,0.866682,-0.312837,-2.618418,99941.95,+97,+122,+179
152331,18.914,-8.264,12.535,2.249635,-0.238342,-2.361941,99941.52,+106,+129,+185
152341,21.223,-14.927,2.780,1.629727,-0.342635,-1.652638,99945.41,+107,+130,+177
152351,39.326,-3.394,-12.714,0.832627,-0.925828,-0.527758,99946.67,+104,+132,+173
152361,35.768,13.450,-5.827,0.111618,0.150098,-0.709208,99947.30,+104,+132,+173
152371,8.855,4.718,0.034,-0.206583,0.844502,-0.589483,99944.63,+109,+134,+182
152381,0.297,-4.643,2.601,0.212719,0.674759,0.206021,99944.63,+109,+132,+176
152391,3.241,-4.979,1.987,0.007857,0.398594,0.201232,99944.63,+108,+132,+173
152400,6.411,-2.511,3.139,0.041912,0.378906,-0.329814,99948.26,+108,+132,+173
152411,9.059,-0.970,6.402,0.297325,0.341658,-0.291502,99944.38,+113,+135,+182
152417,9.143,-0.082,7.635,0.332976,0.326227,-0.133997,99947.05,+111,+132,+175
152426,7.726,0.240,6.394,0.330848,0.303346,-0.099410,99943.07,+111,+132,+175
152436,6.168,-0.531,5.115,0.259013,0.182557,-0.109520,99943.07,+111,+134,+173
152445,7.237,-0.402,4.713,0.341490,0.069218,-0.145704,99944.86,+115,+137,+181
152456,9.399,-1.383,3.839,0.555930,0.037291,-0.158474,99945.64,+113,+136,+173
152466,10.122,-4.447,1.925,0.514958,0.065493,-0.202639,99943.17,+113,+136,+173
152476,11.343,-5.006,0.110,0.205802,0.132539,-0.306401,99944.23,+114,+136,+172
152485,12.277,-2.191,0.505,0.127050,0.232043,-0.396327,99944.23,+117,+140,+180
152496,11.371,-0.759,2.087,0.301050,0.328355,-0.375043,99946.49,+115,+137,+172
152506,9.911,-1.508,3.518,0.360114,0.389016,-0.312786,99946.70,+115,+137,+172
152516,8.895,-0.928,4.798,0.220169,0.371988,-0.270217,99945.38,+117,+138,+171
152526,8.473,-0.249,5.135,0.135031,0.280465,-0.252658,99941.55,+121,+140,+179
152536,9.008,-0.882,4.769,0.132903,0.193199,-0.261171,99941.55,+118,+138,+171
152546,9.678,-1.528,4.204,0.074371,0.126686,-0.266493,99944.54,+118,+138,+171
152556,9.921,-1.779,3.438,-0.008106,0.095291,-0.269685,99945.43,+119,+138,+171
152566,9.828,-1.901,2.923,-0.061849,0.108062,-0.278731,99945.70,+122,+140,+179
152576,9.679,-1.436,2.910,-0.123042,0.133603,-0.273410,99943.85,+119,+136,+171
152586,9.434,-0.533,3.307,-0.156565,0.145309,-0.237759,99943.85,+119,+136,+171
152596,9.067,0.231,3.645,-0.135280,0.144777,-0.158474,99945.48,+120,+138,+172
152606,8.628,0.586,3.827,-0.081537,0.140520,-0.045135,99944.80,+123,+140,+179
152616,8.468,0.554,3.714,-0.067703,0.133071,0.068204,99943.23,+119,+136,+171
152626,8.802,0.502,3.627,-0.079409,0.140520,0.171434,99943.12,+119,+136,+171
152636,9.096,-0.011,3.332,-0.111336,0.157548,0.262425,99943.12,+121,+136,+173
152646,9.323,-0.622,3.102,-0.115592,0.186814,0.327342,99943.28,+125,+139,+179
152651,9.380,-0.884,3.134,-0.109739,0.205970,0.360865,99943.61,+125,+139,+179
152660,9.237,-0.885,3.319,-0.090051,0.219273,0.392259,99943.61,+120,+136,+170
152671,9.031,-0.900,3.471,-0.051207,0.230447,0.433232,99944.77,+122,+138,+173
152681,8.991,-1.314,3.552,-0.026198,0.235236,0.466755,99942.88,+124,+139,+179
152691,9.019,-1.545,3.579,-0.033115,0.240025,0.497617,99942.88,+124,+139,+179
152701,8.772,-1.386,3.630,-0.071959,0.245878,0.532204,99945.28,+121,+136,+170
152711,8.847,-0.733,3.564,-0.090583,0.256520,0.565727,99944.70,+123,+139,+173
152721,9.231,-0.968,3.693,-0.073024,0.268759,0.589140,99943.81,+125,+140,+178
152731,9.240,-1.309,3.389,-0.028859,0.282062,0.626920,99943.81,+125,+140,+178
152741,9.369,-1.277,3.720,-0.008638,0.299621,0.640755,99943.81,+121,+138,+169
152751,9.403,-2.119,3.530,0.044041,0.303878,0.641287,99947.52,+123,+141,+172
152761,9.022,-2.366,3.584,0.036059,0.317181,0.642351,99946.52,+126,+143,+177
152771,8.954,-2.109,3.746,0.009985,0.320374,0.625856,99944.52,+126,+143,+177
152781,9.062,-1.855,3.891,-0.005446,0.321438,0.620002,99942.84,+122,+140,+167
152792,8.891,-1.547,3.884,-0.018748,0.323034,0.640222,99942.84,+124,+143,+172
152801,8.788,-1.242,3.875,-0.012895,0.328355,0.673213,99946.23,+126,+144,+175
152811,9.021,-1.260,3.976,-0.011299,0.343786,0.703544,99943.80,+126,+144,+175
152821,9.203,-1.785,3.894,-0.035776,0.360282,0.732810,99942.30,+122,+142,+166
152832,9.140,-1.984,3.946,-0.053868,0.375713,0.762608,99942.30,+125,+144,+171
152842,9.023,-2.013,3.979,-0.078877,0.387419,0.794002,99943.56,+127,+146,+174
152851,9.120,-2.210,3.909,-0.110803,0.403915,0.821140,99943.56,+127,+146,+174
152861,9.128,-2.143,4.001,-0.159758,0.421474,0.851470,99946.61,+123,+143,+165
152871,9.075,-2.014,4.118,-0.212968,0.436906,0.890314,99944.50,+125,+147,+170
152881,9.170,-2.232,4.221,-0.244363,0.450740,0.929158,99942.30,+127,+148,+173
152887,9.241,-2.524,4.152,-0.277886,0.460318,0.960020,99942.30,+127,+148,+173
152896,9.366,-2.848,4.128,-0.318858,0.471493,0.985030,99944.60,+123,+144,+164
152906,9.334,-3.103,4.127,-0.400803,0.487456,1.016956,99943.07,+127,+148,+170
152916,9.341,-3.117,4.197,-0.463060,0.499162,1.048351,99943.02,+127,+148,+170
152926,9.463,-3.242,4.366,-0.484877,0.502355,1.084002,99942.45,+127,+148,+173
152936,9.439,-3.343,4.338,-0.497647,0.504484,1.129231,99942.45,+123,+144,+164
152946,9.541,-3.176,4.470,-0.508289,0.512465,1.157965,99945.95,+126,+148,+172
152956,9.842,-3.667,4.443,-0.550326,0.515126,1.162754,99943.54,+126,+148,+172
152966,10.635,-4.047,4.498,-0.626950,0.499695,1.131892,99944.10,+126,+147,+173
152976,11.416,-4.153,4.829,-0.740289,0.481603,1.094644,99940.54,+122,+142,+165
152986,11.803,-4.271,4.569,-0.836069,0.503419,1.072828,99940.54,+126,+145,+174
152996,11.676,-3.970,4.135,-0.916950,0.526300,1.097837,99946.03,+126,+145,+174
153007,11.515,-3.351,4.080,-0.960051,0.523639,1.145195,99943.63,+125,+142,+175
153016,11.577,-3.391,3.913,-0.952601,0.514594,1.193617,99944.25,+121,+137,+168
153026,11.789,-3.551,3.581,-0.935574,0.498098,1.263855,99943.67,+125,+139,+177
153036,11.898,-2.993,3.401,-0.912693,0.490117,1.359103,99943.67,+125,+139,+177
153047,11.659,-2.251,3.347,-0.850968,0.497566,1.476167,99946.86,+123,+136,+177
153056,12.098,-1.988,3.496,-0.774344,0.489052,1.609726,99944.70,+119,+132,+171
153066,13.091,-1.439,3.697,-0.679097,0.464043,1.742222,99941.66,+123,+132,+180
153076,13.839,-0.647,3.827,-0.585445,0.453401,1.888020,99943.59,+123,+132,+180
153086,14.067,-0.004,3.863,-0.595023,0.494373,2.031690,99943.59,+121,+130,+180
153097,14.455,0.010,3.572,-0.776473,0.568337,2.123213,99944.08,+117,+126,+174
153106,15.827,0.757,3.171,-1.048913,0.609309,2.140240,99943.08,+121,+127,+183
153116,17.034,1.365,2.469,-1.331995,0.625272,2.131726,99941.77,+121,+127,+183
153122,17.319,1.666,1.882,-1.575170,0.656135,2.133855,99944.19,+120,+121,+183
153132,16.775,2.341,1.902,-1.839096,0.705089,2.128534,99944.19,+118,+112,+177
153142,15.874,2.874,2.797,-2.105683,0.770006,2.147157,99944.19,+118,+112,+177
153151,15.412,0.890,5.126,-2.220086,0.809382,2.246130,99946.67,+123,+110,+188
153161,16.351,-3.380,7.782,-1.942325,0.819492,2.517506,99942.95,+125,+101,+187
153171,18.979,-5.822,7.058,-1.315500,0.811511,2.935744,99942.61,+124,+94,+181
153182,20.028,-6.332,6.973,-1.110106,0.772135,3.274166,99942.61,+124,+94,+181
153192,19.983,-2.901,8.472,-0.923867,0.765217,3.473707,99941.75,+128,+92,+190
153201,18.629,1.890,7.933,-0.502968,0.864722,3.478496,99941.75,+129,+87,+187
153211,15.687,3.994,4.939,-0.150180,0.915272,3.352918,99940.50,+130,+81,+181
153222,12.439,3.060,3.648,0.303178,0.791291,3.183175,99943.59,+130,+81,+181
153231,8.214,-3.290,6.089,0.733123,0.648685,2.804845,99941.86,+136,+83,+190
153241,9.269,-2.543,4.880,0.973636,0.415621,2.496753,99941.86,+136,+79,+186
153251,11.315,1.509,1.710,0.655967,0.206502,1.743818,99942.77,+137,+73,+182
153262,10.337,2.645,0.564,0.286150,0.106465,0.928094,99941.08,+137,+73,+182
153272,8.564,2.329,-0.194,-0.107611,-0.060617,0.401837,99941.50,+141,+73,+192
153281,7.004,0.982,-0.807,-0.474766,-0.243131,-0.015337,99943.39,+141,+62,+190
153291,6.006,-0.539,-0.747,-0.741886,-0.407553,-0.392603,99944.66,+139,+51,+187
153302,5.341,-1.114,-0.163,-0.811592,-0.558140,-0.768272,99944.39,+139,+51,+187
153312,4.980,-0.676,0.690,-0.741354,-0.712984,-1.172143,99943.50,+143,+47,+199
153321,4.889,-0.026,1.257,-0.570546,-0.882727,-1.590914,99943.50,+138,+33,+198
153331,4.897,0.256,1.534,-0.294913,-1.035974,-1.995849,99940.66,+133,+24,+198
153341,5.020,-0.014,1.528,0.008921,-1.182304,-2.343849,99940.66,+133,+24,+198
153352,5.259,-0.410,1.188,0.324462,-1.318524,-2.634381,99942.35,+132,+19,+210
153361,5.582,-0.776,0.672,0.647453,-1.443038,-2.905225,99940.10,+123,+9,+210
153371,6.049,-1.182,0.236,0.936389,-1.578726,-3.161170,99942.04,+112,+3,+211
153381,6.432,-1.401,0.244,1.197122,-1.710157,-3.405408,99936.43,+112,+3,+211
153392,6.914,-1.362,0.588,1.441893,-1.838928,-3.667738,99936.43,+104,+4,+227
153402,7.393,-1.432,1.251,1.668039,-1.969827,-3.937518,99937.67,+89,+0,+225
153411,7.746,-1.881,1.856,1.854810,-2.089552,-4.203573,99935.31,+74,+1,+228
153421,8.205,-2.184,2.303,2.015507,-2.189588,-4.464306,99935.41,+64,+1,+241
153432,8.819,-2.425,2.507,2.100645,-2.284836,-4.717590,99935.41,+64,+9,+241
153442,9.654,-2.514,2.283,2.135764,-2.390194,-4.933627,99935.41,+44,+13,+240
153451,10.752,-2.692,1.875,2.202810,-2.479056,-5.101774,99940.98,+27,+23,+240
153461,11.894,-3.252,1.778,2.301782,-2.559405,-5.235866,99939.93,+14,+39,+250
153472,13.247,-3.933,1.861,2.349317,-2.685160,-5.315327,99938.65,+14,+39,+250
153482,14.279,-4.581,2.176,2.326792,-2.807900,-5.369957,99938.65,-4,+52,+242
153491,15.179,-5.686,3.020,2.171947,-2.953166,-5.419975,99938.65,-16,+71,+235
153501,15.464,-7.132,4.291,1.879287,-3.127166,-5.464140,99940.41,-21,+94,+237
153511,15.227,-7.937,5.619,1.603122,-3.265514,-5.537040,99939.34,-21,+94,+237
153522,15.271,-7.339,6.825,1.399324,-3.352780,-5.656232,99938.75,-29,+109,+223
153532,15.751,-6.655,7.587,1.201379,-3.436854,-5.731792,99938.75,-29,+128,+214
153541,16.595,-7.041,8.026,0.920425,-3.482083,-5.738177,99942.91,-23,+144,+215
153551,17.049,-7.932,8.838,0.629361,-3.421954,-5.705719,99942.91,-23,+144,+215
153562,17.306,-8.500,9.842,0.407471,-3.255404,-5.591847,99944.80,-23,+152,+202
153572,17.147,-8.930,10.457,0.316481,-2.978175,-5.362508,99944.44,-16,+163,+195
153581,16.013,-9.589,11.059,0.369692,-2.571643,-5.040049,99943.38,-7,+172,+198
153591,14.543,-11.066,11.373,0.406939,-2.097533,-4.674489,99943.38,-7,+172,+198
153602,13.537,-14.982,11.343,0.052022,-1.650561,-4.224325,99946.46,-3,+173,+188
153612,11.765,-17.430,10.985,-0.485941,-1.245093,-3.577811,99943.90,+6,+175,+188
153622,8.834,-18.554,11.110,-0.733904,-0.797589,-2.704619,99944.05,+13,+174,+197
153631,6.115,-19.856,11.658,-0.721133,-0.389461,-1.579207,99942.87,+13,+174,+197
153641,5.442,-18.320,12.266,-0.535959,-0.039333,-0.345777,99947.54,+14,+170,+190
153652,6.051,-15.662,12.535,-0.095372,0.305474,0.801984,99945.18,+18,+170,+191
153662,6.557,-14.599,12.282,0.400022,0.623144,1.806607,99944.82,+20,+170,+199
153671,8.103,-13.068,11.040,0.714499,0.908355,2.606900,99944.82,+20,+170,+199
153681,13.380,0.612,6.189,0.563912,1.049364,2.648405,99942.98,+18,+167,+191
153692,20.748,26.823,-8.309,-0.344400,0.974869,1.720937,99942.98,+22,+165,+192
153702,14.094,17.225,-5.575,-1.595922,1.161639,0.687048,99951.49,+27,+161,+203
153707,5.758,-10.042,0.249,-0.567354,1.444721,0.499213,99947.65,+27,+161,+203
153716,9.725,-20.254,4.870,0.765581,1.402685,1.642185,99944.55,+28,+158,+194
153726,19.732,-6.977,3.700,-0.065042,1.044575,2.818680,99944.51,+31,+156,+198
153737,22.321,6.386,3.584,-0.890344,1.299988,2.157268,99944.51,+31,+156,+198
153747,18.167,-3.099,5.173,0.393105,1.513364,2.117359,99947.00,+34,+154,+206
153756,16.060,-7.770,3.477,1.034297,1.545822,2.919781,99944.69,+31,+154,+197
153766,11.699,-7.157,3.583,0.710774,1.664483,2.701616,99944.89,+36,+155,+200
153777,9.988,-4.285,4.295,0.468132,1.658630,2.216332,99943.53,+36,+155,+200
153787,9.299,-1.278,5.647,0.318077,1.591584,1.926864,99943.53,+37,+155,+206
153796,8.098,-1.395,6.814,0.307435,1.491547,1.666130,99949.42,+36,+153,+198
153806,9.180,-1.498,6.730,0.308499,1.359584,1.485213,99948.27,+42,+154,+200
153817,10.909,-1.862,5.230,0.306371,1.248905,1.389965,99946.33,+42,+154,+200
153827,11.523,-2.997,3.737,0.181325,1.098850,1.380919,99945.75,+43,+156,+207
153836,10.361,-2.908,4.061,-0.046950,0.967951,1.381451,99945.75,+40,+152,+198
153846,9.758,-1.972,3.418,-0.236913,0.824281,1.281947,99947.84,+45,+152,+202
153857,10.063,-2.173,2.698,-0.432730,0.700300,1.149984,99946.95,+45,+152,+202
153867,10.229,-1.975,2.424,-0.567886,0.632190,1.041965,99944.63,+46,+151,+209
153877,10.203,-1.125,2.194,-0.647170,0.600263,0.932883,99946.90,+41,+148,+200
153886,10.017,-0.715,1.889,-0.588106,0.596538,0.817947,99946.90,+46,+148,+206
153896,9.821,-0.664,1.793,-0.432730,0.621016,0.718443,99950.44,+46,+148,+206
153907,9.750,-0.393,1.860,-0.276290,0.647621,0.649268,99948.44,+46,+147,+211
153917,9.666,-0.222,2.068,-0.156033,0.667309,0.605635,99946.97,+44,+143,+203
153926,9.505,-0.154,2.295,-0.096436,0.677419,0.593397,99947.23,+50,+145,+208
153936,9.322,-0.124,2.546,-0.083666,0.676355,0.589140,99947.23,+50,+145,+208
153947,9.122,-0.340,2.868,-0.127831,0.672098,0.565195,99949.41,+50,+145,+212
153957,9.037,-0.628,2.969,-0.244363,0.652942,0.532204,99947.72,+47,+142,+203
153966,8.964,-0.520,3.017,-0.397611,0.630061,0.507727,99947.20,+54,+143,+208
153976,9.065,-0.351,2.880,-0.511482,0.609841,0.494957,99948.77,+54,+143,+208
153987,9.225,-0.024,2.770,-0.510950,0.610373,0.499746,99948.77,+53,+141,+213
153997,9.313,0.399,2.640,-0.406124,0.634318,0.526883,99948.74,+52,+137,+205
154007,9.360,0.269,2.578,-0.226271,0.663584,0.577966,99946.32,+58,+139,+211
154016,9.340,-0.139,2.708,-0.033648,0.697107,0.654057,99946.85,+58,+139,+211
154027,9.386,-0.433,2.762,0.096719,0.724245,0.729085,99943.80,+58,+139,+214
154037,9.294,-0.877,3.204,0.123325,0.749786,0.769525,99943.80,+55,+137,+205
154047,9.276,-1.731,3.615,0.060004,0.746061,0.792406,99948.51,+62,+140,+211
154056,9.395,-1.740,3.773,-0.086858,0.738612,0.795066,99946.04,+62,+140,+211
154066,9.441,-1.378,3.688,-0.276822,0.749254,0.783360,99948.29,+62,+139,+214
154077,9.462,-1.364,3.302,-0.447097,0.752979,0.788149,99944.62,+60,+135,+206
154087,9.630,-1.018,2.964,-0.518932,0.760960,0.820608,99944.62,+66,+137,+213
154097,9.730,-0.837,2.946,-0.481684,0.777456,0.853598,99949.23,+66,+137,+213
154106,9.955,-1.138,3.010,-0.391757,0.801933,0.895103,99944.60,+65,+134,+216
154117,9.881,-1.429,3.187,-0.311409,0.837052,0.943525,99945.07,+63,+132,+207
154127,9.658,-1.297,3.727,-0.285868,0.876428,0.985030,99947.54,+70,+134,+214
154137,9.591,-1.289,4.164,-0.325776,0.895584,1.021213,99947.54,+70,+134,+214
154146,9.587,-1.266,4.192,-0.374198,0.896116,1.071231,99949.22,+69,+132,+217
154157,9.820,-1.618,4.210,-0.416767,0.894520,1.116461,99945.22,+68,+129,+208
154167,9.820,-1.789,4.282,-0.453482,0.925914,1.161690,99946.11,+75,+130,+216
154177,9.944,-1.838,4.319,-0.516271,0.956954,1.206919,99944.44,+74,+127,+217
154186,10.128,-1.890,4.425,-0.556711,0.976997,1.236717,99944.44,+74,+127,+217
154196,10.128,-2.111,4.386,-0.600877,0.991896,1.306956,99944.38,+73,+125,+210
154207,10.407,-2.468,4.271,-0.683886,1.024355,1.350057,99946.38,+80,+126,+218
154217,11.300,-2.956,3.952,-0.788711,1.025419,1.402736,99943.12,+78,+120,+219
154227,11.964,-3.381,3.475,-0.851500,1.044575,1.458075,99945.43,+78,+120,+219
154236,12.512,-3.473,3.086,-0.900986,1.040850,1.553323,99945.43,+78,+117,+213
154247,12.859,-2.748,2.870,-0.922271,1.033401,1.669323,99946.82,+84,+117,+221
154257,13.203,-2.221,3.075,-0.857886,1.037125,1.840130,99944.98,+81,+112,+222
154267,13.446,-2.006,3.193,-0.789775,1.055217,2.010405,99948.34,+81,+112,+222
154276,13.560,-1.915,3.299,-0.773812,1.088740,2.175891,99947.98,+80,+109,+216
154287,13.704,-1.793,3.408,-0.835005,1.120134,2.316368,99947.98,+87,+110,+225
154297,14.115,-1.615,3.442,-0.953133,1.142483,2.424387,99947.19,+84,+103,+225
154307,14.798,-1.582,2.921,-1.118087,1.157382,2.518570,99947.45,+84,+103,+225
154316,16.034,-0.864,2.732,-1.300069,1.120667,2.581891,99944.30,+83,+99,+221
154327,17.803,1.261,2.805,-1.479390,1.050960,2.616478,99944.88,+89,+96,+230
154337,18.962,2.912,1.951,-1.794931,1.104703,2.611689,99944.88,+86,+87,+230
154347,19.703,3.471,0.601,-2.313738,1.199951,2.522295,99948.02,+86,+87,+230
154357,21.076,6.110,0.202,-2.876710,1.208997,2.421194,99948.02,+86,+77,+227
154366,21.099,9.568,1.698,-3.135847,1.253694,2.405231,99944.70,+93,+68,+238
154377,20.066,6.721,4.997,-2.660141,1.308501,2.700552,99942.92,+92,+53,+237
154387,20.778,-0.905,7.818,-1.499610,1.188245,3.311946,99942.92,+92,+53,+237
154397,22.482,-6.048,7.666,-0.711555,0.957309,3.833945,99945.70,+92,+48,+233
154406,21.488,-4.931,8.716,-0.612051,0.909951,3.831285,99944.77,+97,+47,+243
154413,21.009,-2.878,8.306,-0.535427,0.959437,3.713156,99946.28,+97,+47,+243
154422,19.478,0.828,6.880,-0.169335,1.096189,3.572147,99946.28,+92,+39,+241
154432,15.233,5.324,4.293,0.329783,1.172281,3.400276,99942.61,+91,+39,+239
154442,11.286,6.077,4.264,0.711838,0.871639,3.042166,99942.61,+94,+41,+250
154452,6.508,-1.641,6.454,1.349306,0.471493,2.469616,99948.55,+94,+41,+250
154462,7.480,-2.106,5.148,1.380168,0.159676,1.863011,99943.51,+87,+43,+248
154472,8.985,0.702,1.336,0.618719,-0.027626,0.931287,99945.09,+82,+43,+246
154482,6.958,4.006,0.338,0.207930,-0.176085,-0.023318,99945.09,+82,+44,+256
154491,5.912,4.153,0.056,0.013710,-0.460231,-0.563410,99945.09,+82,+44,+256
154502,4.694,2.287,-0.187,0.133435,-0.771516,-0.911410,99947.60,+71,+38,+255
154512,3.737,0.068,-0.020,0.235600,-1.035974,-1.229611,99946.65,+64,+38,+253
154522,3.558,-1.305,0.206,0.231343,-1.277552,-1.585593,99943.34,+59,+40,+263
154531,3.711,-1.487,0.833,0.147802,-1.497313,-2.021923,99943.34,+59,+40,+263
154542,3.828,-0.805,1.195,0.113215,-1.692066,-2.461445,99943.34,+46,+35,+261
154552,4.184,-0.024,1.321,0.204738,-1.863405,-2.850950,99945.09,+36,+35,+259
154562,4.925,0.232,1.130,0.411196,-2.017185,-3.187775,99944.47,+27,+39,+269
154572,5.779,-0.181,0.953,0.642132,-2.145423,-3.480435,99939.89,+27,+39,+269
154582,6.128,-0.956,1.107,0.835820,-2.232689,-3.704986,99939.89,+11,+38,+265
154592,6.519,-1.694,1.621,0.897012,-2.308249,-3.891756,99940.88,+0,+43,+263
154602,7.061,-2.125,2.282,0.917233,-2.404561,-4.090233,99936.98,-10,+49,+271
154612,7.732,-2.528,2.718,0.969911,-2.516304,-4.319040,99936.98,-10,+49,+271
154621,8.475,-2.810,2.988,1.016737,-2.615808,-4.558490,99937.78,-28,+52,+265
154632,9.193,-2.973,3.024,1.036957,-2.706267,-4.785701,99938.94,-40,+60,+261
154642,9.895,-3.149,3.011,1.028443,-2.779698,-5.021425,99938.94,-55,+71,+269
154647,10.410,-3.348,2.911,0.982150,-2.832377,-5.199682,99942.42,-55,+71,+269
154657,11.018,-3.606,2.830,0.880517,-2.883459,-5.354526,99942.75,-73,+79,+258
154667,12.330,-3.889,2.801,0.700664,-2.940395,-5.522141,99941.27,-88,+94,+252
154677,13.669,-4.341,3.091,0.590517,-2.955826,-5.643994,99939.38,-88,+94,+252
154687,14.547,-5.032,3.937,0.570829,-2.948909,-5.719021,99939.38,-101,+113,+253
154697,15.333,-5.712,5.096,0.559123,-2.943056,-5.797773,99942.31,-112,+130,+234
154706,16.217,-6.373,6.304,0.498994,-2.954762,-5.911645,99942.47,-114,+153,+223
154717,16.967,-6.990,7.184,0.407471,-2.972322,-5.985608,99944.47,-114,+153,+223
154727,17.591,-7.032,7.668,0.352132,-2.973386,-6.013810,99938.75,-111,+177,+216
154737,18.275,-6.984,7.958,0.330316,-2.938267,-6.014342,99938.75,-103,+193,+193
154747,18.798,-7.408,8.249,0.271251,-2.853129,-5.934525,99945.27,-88,+208,+184
154757,18.041,-7.573,8.728,0.293600,-2.679662,-5.748819,99942.75,-88,+208,+184
154767,16.988,-8.301,9.154,0.409600,-2.406157,-5.491278,99943.06,-73,+221,+182
154777,16.481,-10.195,9.433,0.452701,-2.046983,-5.159242,99943.84,-59,+224,+166
154787,15.104,-12.753,9.263,0.328187,-1.680891,-4.768141,99943.84,-46,+230,+164
154797,12.928,-14.205,9.029,0.074371,-1.369075,-4.270618,99946.13,-46,+230,+164
154807,10.391,-15.286,9.299,0.017967,-1.032782,-3.554931,99945.08,-34,+233,+168
154817,8.010,-18.080,9.479,-0.077281,-0.687974,-2.595005,99948.66,-27,+230,+158
154827,5.856,-19.508,9.852,-0.138473,-0.322415,-1.455226,99947.92,-22,+231,+162
154836,4.909,-18.046,10.507,0.051490,0.016007,-0.252126,99947.92,-22,+231,+162
154847,5.844,-15.620,10.843,0.451637,0.269291,0.862112,99949.25,-21,+230,+166
154857,6.964,-13.517,10.864,0.950756,0.514594,1.760314,99944.48,-24,+225,+155
154867,6.969,-12.554,10.642,1.399856,0.782777,2.444607,99945.47,-28,+227,+156
154877,8.284,-10.632,8.795,1.669636,0.999878,2.882533,99945.42,-28,+227,+156
154887,13.060,2.859,4.058,1.404645,1.092997,2.657451,99945.42,-32,+227,+157
154897,21.192,26.889,-10.138,0.460150,0.759896,1.641653,99950.66,-36,+221,+148
154907,15.014,13.417,-4.710,-0.592895,1.040318,0.726424,99950.15,-34,+221,+154
154917,8.589,-12.055,4.722,1.032168,1.478244,1.100497,99948.57,-34,+221,+154
154927,17.105,-13.639,5.133,1.135930,1.135034,2.690441,99944.88,-34,+221,+156
154937,22.395,1.125,1.833,-0.088987,1.171217,2.627652,99944.88,-41,+213,+148
154947,18.009,-0.892,3.728,0.138756,1.505382,2.327010,99948.63,-42,+213,+155
154957,15.125,-5.554,3.897,0.981086,1.607015,3.002258,99945.78,-42,+213,+155
154968,12.053,-5.445,3.642,0.940645,1.721419,3.045891,99945.27,-46,+211,+157
154977,9.255,-3.885,4.093,0.712902,1.754409,2.580295,99945.73,-49,+205,+150
154987,8.849,-2.070,5.146,0.557526,1.662887,2.289231,99945.73,-49,+205,+156
154997,8.053,-1.039,7.192,0.529502,1.553272,2.015017,99948.42,-49,+205,+156
155008,8.682,-1.389,8.646,0.596370,1.499529,1.761910,99946.13,-49,+203,+160
155017,10.836,-2.651,7.020,0.691618,1.401621,1.618240,99946.28,-53,+197,+152
155027,12.371,-4.913,3.424,0.446848,1.199951,1.612919,99945.59,-52,+201,+159
155037,11.242,-4.631,3.868,0.139288,1.089272,1.631543,99945.59,-52,+201,+159
155047,9.963,-2.463,3.590,-0.027262,0.959437,1.542148,99947.91,-53,+197,+162
155057,9.920,-3.351,2.690,-0.250216,0.818428,1.379323,99948.58,-55,+191,+157
155067,10.155,-3.840,2.235,-0.508289,0.727970,1.209580,99947.53,-55,+193,+164
155077,10.466,-2.410,2.169,-0.714216,0.675291,1.048351,99946.13,-56,+189,+167
155087,10.386,-0.684,2.173,-0.696656,0.681144,0.903617,99946.13,-56,+189,+167
155098,9.987,-0.927,2.113,-0.535959,0.710410,0.768993,99950.17,-58,+182,+162
155107,9.951,-1.055,2.009,-0.336418,0.733823,0.692901,99947.80,-55,+186,+170
155117,9.739,-0.554,2.370,-0.214033,0.740740,0.676406,99946.70,-55,+182,+172
155127,9.483,-0.312,2.570,-0.128895,0.727970,0.678534,99950.06,-55,+182,+172
155138,9.306,-0.441,2.645,-0.066106,0.715731,0.679066,99950.06,-56,+178,+165
155147,9.142,-0.651,2.832,-0.073556,0.706153,0.665232,99949.56,-55,+182,+174
155157,8.994,-0.985,3.103,-0.177317,0.691254,0.620002,99947.47,-54,+178,+175
155167,8.853,-1.269,3.108,-0.367812,0.674227,0.565195,99947.14,-54,+178,+175
155177,8.859,-0.783,2.985,-0.569482,0.663584,0.522094,99946.52,-55,+172,+169
155187,9.143,0.338,2.703,-0.624289,0.669970,0.513048,99946.52,-52,+176,+180
155197,9.398,0.685,2.593,-0.493390,0.694979,0.544443,99949.61,-52,+172,+180
155207,9.399,0.070,2.455,-0.235849,0.727437,0.648736,99948.34,-52,+172,+180
155217,9.271,-0.606,2.548,-0.002785,0.771603,0.764736,99945.30,-53,+168,+174
155228,9.113,-1.298,2.892,0.084481,0.815768,0.865837,99946.45,-51,+172,+182
155237,9.122,-1.839,3.508,0.003068,0.847694,0.907342,99946.45,-51,+168,+183
155247,9.107,-1.430,4.147,-0.163482,0.851419,0.898828,99946.53,-51,+168,+183
155257,9.249,-0.979,4.168,-0.303959,0.835988,0.882864,99946.91,-52,+164,+179
155268,9.401,-0.897,3.755,-0.356106,0.827474,0.895103,99943.59,-49,+166,+187
155277,9.559,-1.200,3.382,-0.328968,0.826942,0.941397,99946.02,-49,+162,+187
155287,9.730,-1.490,3.321,-0.287996,0.839181,0.994075,99946.02,-49,+162,+187
155297,9.866,-1.759,3.545,-0.283739,0.854612,1.022277,99944.84,-51,+156,+183
155308,10.005,-2.057,3.535,-0.295978,0.864722,1.059525,99947.15,-47,+160,+192
155317,9.917,-2.317,3.878,-0.363023,0.893988,1.071764,99946.73,-48,+154,+191
155327,9.682,-2.646,3.836,-0.474766,0.917933,1.088259,99947.24,-48,+154,+191
155337,9.912,-2.984,3.787,-0.610987,0.956245,1.049415,99947.24,-49,+149,+188
155347,10.040,-2.107,3.947,-0.721133,0.975401,1.043030,99947.43,-46,+151,+197
155357,10.142,-1.053,4.537,-0.751996,0.975401,1.089855,99946.59,-45,+143,+197
155367,10.327,-1.492,4.415,-0.724858,0.988171,1.153176,99947.23,-45,+143,+197
155377,10.478,-2.212,4.131,-0.737097,1.019566,1.258534,99945.70,-46,+138,+195
155387,11.171,-2.344,3.688,-0.804142,1.029144,1.362828,99945.70,-42,+139,+205
155398,11.738,-2.256,3.290,-0.821702,1.048832,1.453286,99946.46,-42,+132,+203
155407,12.001,-2.492,3.205,-0.756785,1.056813,1.624626,99948.66,-42,+132,+203
155417,12.802,-3.003,3.247,-0.721665,1.082887,1.748075,99944.37,-42,+126,+201
155427,13.326,-3.636,2.986,-0.736032,1.095125,1.859818,99948.77,-38,+126,+211
155438,13.046,-2.967,2.689,-0.764234,1.108428,2.012002,99948.77,-39,+118,+209
155448,12.881,-1.856,2.680,-0.767427,1.139290,2.179616,99947.41,-39,+118,+209
155457,13.446,-1.360,2.798,-0.724858,1.178134,2.353616,99946.94,-38,+113,+208
155467,14.378,-1.344,3.070,-0.706766,1.221767,2.515909,99948.47,-33,+112,+218
155478,14.967,-0.961,3.103,-0.732308,1.263272,2.662240,99947.16,-34,+103,+215
155487,15.584,-0.579,3.032,-0.833941,1.290410,2.789414,99947.16,-34,+103,+215
155497,17.184,0.804,3.152,-0.981867,1.268593,2.849542,99948.45,-33,+96,+215
155507,18.965,3.043,2.805,-1.305922,1.299988,2.865505,99945.94,-26,+94,+224
155517,19.782,3.859,1.732,-1.901353,1.434611,2.792074,99943.00,-25,+82,+221
155528,20.232,4.453,0.710,-2.723994,1.508575,2.618075,99945.94,-22,+82,+222
155537,20.585,5.421,-0.045,-3.548764,1.499529,2.389799,99945.94,-22,+69,+222
155547,19.416,5.249,1.729,-3.991480,1.472923,2.191323,99946.79,-14,+59,+232
155557,17.954,0.779,6.528,-3.498746,1.395767,2.322754,99946.30,-12,+43,+227
155568,19.934,-5.282,8.799,-2.174857,1.113749,2.976717,99944.52,-9,+35,+225
155577,22.177,-6.751,8.312,-1.289959,0.839181,3.474239,99944.68,-9,+35,+225
155587,22.074,-5.381,9.588,-1.193647,0.796080,3.547670,99944.68,-2,+31,+234
155597,20.500,-0.350,8.805,-0.577464,0.954116,3.405065,99944.18,+0,+22,+227
155608,15.138,4.425,5.938,0.005196,1.128116,3.187432,99944.96,+4,+21,+227
155618,10.886,7.615,4.811,0.402682,0.821089,2.882533,99948.32,+4,+21,+227
155627,5.776,-1.413,8.002,1.254590,0.427328,2.440882,99943.60,+9,+25,+235
155637,7.577,-3.799,5.604,1.506810,0.123493,2.016791,99943.60,+7,+25,+228
155648,10.192,-0.434,0.924,0.842205,-0.086158,1.176057,99948.74,+7,+29,+227
155658,7.810,2.646,0.076,0.520811,-0.198966,0.187929,99951.57,+7,+29,+227
155667,6.471,3.280,-0.047,0.342022,-0.490562,-0.333538,99947.90,+8,+33,+235
155677,5.384,1.306,-0.603,0.371288,-0.813020,-0.709740,99946.70,+3,+30,+227
155687,4.279,-0.946,-0.436,0.409600,-1.057259,-1.073703,99946.70,-1,+35,+226
155698,3.872,-1.704,0.122,0.362774,-1.300965,-1.439263,99947.87,-1,+35,+226
155703,3.699,-1.638,0.637,0.284022,-1.462726,-1.763317,99945.09,-3,+41,+233
155712,3.579,-1.398,1.081,0.250499,-1.602671,-2.113446,99945.09,-3,+41,+233
155722,3.477,-0.655,1.200,0.295196,-1.795295,-2.574785,99942.30,-12,+41,+225
155732,3.942,0.064,0.753,0.410664,-2.003350,-2.982381,99942.68,-19,+48,+222
155743,4.887,0.126,0.435,0.596370,-2.174157,-3.332509,99942.68,-25,+58,+227
155753,5.667,-0.053,0.551,0.830499,-2.311441,-3.634215,99941.91,-34,+64,+217
155762,5.985,-0.530,1.303,1.055049,-2.414671,-3.868343,99940.79,-34,+64,+217
155772,6.122,-1.200,2.185,1.282792,-2.482781,-4.064692,99939.79,-42,+79,+213
155783,6.506,-2.282,2.916,1.367930,-2.537056,-4.279132,99939.79,-46,+95,+215
155792,7.288,-2.789,3.134,1.323232,-2.643478,-4.510068,99939.79,-51,+106,+202
155802,8.087,-2.872,3.143,1.273214,-2.734469,-4.738343,99941.02,-51,+106,+202
155812,8.904,-3.042,3.096,1.198719,-2.803643,-4.962893,99939.23,-52,+127,+198
155823,9.738,-3.102,2.852,1.092297,-2.871753,-5.193297,99940.44,-48,+145,+198
155833,10.691,-3.314,2.439,0.941178,-2.928157,-5.409333,99940.33,-46,+156,+186
155842,11.783,-3.955,2.166,0.758664,-2.957423,-5.587058,99940.33,-46,+156,+186
155852,12.876,-4.837,2.513,0.554334,-2.960083,-5.724874,99939.81,-37,+176,+183
155863,14.068,-5.356,3.644,0.350004,-2.947845,-5.830764,99941.14,-26,+191,+185
155873,14.992,-5.188,5.009,0.234004,-2.914322,-5.963260,99943.59,-16,+199,+174
155883,15.690,-5.438,6.801,0.116407,-2.864304,-6.119700,99943.59,-16,+199,+174
155892,16.337,-6.485,8.474,0.026481,-2.818010,-6.252195,99940.77,+0,+213,+174
155902,16.973,-7.488,9.261,0.002004,-2.745643,-6.307003,99940.77,+18,+223,+179
155913,17.556,-8.166,9.096,-0.062381,-2.651992,-6.250067,99940.77,+35,+223,+172
155923,18.014,-8.781,9.026,-0.139537,-2.528542,-6.106397,99942.76,+35,+223,+172
155932,17.916,-9.424,9.348,-0.186895,-2.360395,-5.875994,99942.45,+57,+229,+178
155942,16.574,-9.892,10.165,-0.203923,-2.115093,-5.528526,99942.45,+74,+227,+183
155953,15.025,-10.522,10.962,-0.238510,-1.777203,-5.160306,99942.45,+88,+219,+180
155963,13.808,-12.395,11.564,-0.397078,-1.369607,-4.769205,99942.71,+88,+219,+180
155973,11.916,-15.044,11.297,-0.725922,-0.959350,-4.322765,99943.87,+106,+214,+187
155982,9.630,-17.072,10.753,-1.079243,-0.601241,-3.781610,99941.92,+118,+205,+197
155993,7.848,-18.060,9.889,-1.193647,-0.286232,-2.944601,99946.97,+125,+192,+194
156003,6.675,-18.734,9.174,-1.013262,0.023988,-1.857501,99946.50,+125,+192,+194
156012,5.907,-18.674,9.079,-0.598748,0.315052,-0.628859,99946.50,+137,+187,+202
156022,5.676,-17.245,9.482,-0.036840,0.576318,0.565727,99945.81,+141,+184,+207
156033,6.188,-15.672,9.921,0.603820,0.827474,1.600681,99944.28,+144,+184,+197
156043,8.539,-13.251,8.831,1.172645,1.031272,2.464295,99944.28,+144,+184,+197
156053,13.370,-0.739,3.360,1.598333,1.104703,2.677671,99948.87,+151,+191,+200
156062,21.703,27.709,-10.853,1.648883,0.806190,2.072662,99946.34,+154,+196,+200
156072,16.678,21.485,-8.199,0.616058,0.941878,1.181378,99950.12,+158,+193,+191
156083,5.860,-12.302,3.151,2.782809,1.430354,1.414974,99950.65,+158,+193,+191
156093,16.431,-19.112,4.684,3.173378,1.170153,3.409854,99950.65,+166,+206,+188
156103,26.701,-6.763,-0.549,0.760792,1.066923,3.380056,99948.14,+164,+214,+188
156112,19.548,-4.468,1.676,-0.084198,1.468666,2.744184,99946.72,+163,+212,+180
156123,13.656,-2.071,6.041,0.936389,1.610740,3.343872,99945.63,+163,+212,+180
156133,10.911,-0.308,7.305,1.385489,1.722483,3.369946,99945.63,+166,+223,+183
156142,8.348,-3.248,6.697,1.345049,1.769840,2.921909,99945.63,+162,+229,+180
156152,8.010,-3.990,7.684,1.074737,1.766648,2.646808,99948.98,+161,+231,+170
156163,7.436,-3.940,9.739,0.931067,1.774629,2.392992,99948.20,+161,+231,+170
156173,10.570,-3.966,5.222,0.743765,1.560189,2.145561,99949.14,+166,+240,+171
156183,12.301,-6.683,3.217,0.286683,1.400024,2.027965,99945.73,+163,+243,+169
156192,10.845,-6.240,4.213,-0.087923,1.292006,2.014130,99945.73,+161,+242,+162
156203,10.127,-3.457,3.710,-0.460400,1.106832,1.904515,99949.22,+163,+247,+168
156213,9.681,-2.651,3.836,-0.811060,0.966355,1.690607,99946.78,+163,+247,+168
156223,9.420,-2.812,3.174,-0.952601,0.823749,1.484681,99946.91,+159,+247,+170
156233,9.883,-2.198,2.956,-0.846711,0.737548,1.289396,99946.91,+157,+243,+165
156242,10.750,-1.291,2.617,-0.590766,0.717860,1.085598,99945.09,+160,+248,+170
156253,10.583,-1.442,2.727,-0.316198,0.736483,0.956296,99945.09,+160,+248,+170
156263,9.962,-1.834,3.037,-0.161354,0.724777,0.906277,99948.55,+157,+246,+171
156273,9.645,-2.263,3.137,-0.148583,0.677419,0.827525,99945.62,+156,+245,+165
156282,9.530,-2.037,3.099,-0.200198,0.627933,0.723764,99947.98,+159,+250,+170
156289,9.383,-1.741,3.007,-0.259794,0.603988,0.658846,99947.98,+159,+250,+170
156298,9.278,-1.711,3.010,-0.316198,0.585896,0.613085,99948.83,+156,+247,+170
156308,9.275,-1.493,3.092,-0.390693,0.567272,0.548700,99947.78,+156,+247,+170
156317,9.385,-1.189,3.457,-0.532766,0.554502,0.480057,99945.58,+155,+245,+165
156327,9.457,-0.676,3.679,-0.708895,0.549181,0.442278,99944.27,+159,+249,+173
156338,9.262,-0.205,3.516,-0.815317,0.548117,0.437489,99944.27,+155,+245,+174
156348,9.096,-0.083,3.060,-0.761042,0.557162,0.443342,99949.19,+155,+245,+174
156358,9.162,-0.367,2.739,-0.570014,0.576318,0.473672,99948.34,+156,+241,+170
156367,9.082,-0.562,2.623,-0.320987,0.601327,0.533268,99949.70,+161,+247,+177
156378,9.010,-0.932,2.903,-0.139005,0.624740,0.593397,99947.61,+156,+243,+174
156388,9.128,-1.567,3.558,-0.152840,0.641768,0.614149,99947.61,+156,+243,+174
156398,9.071,-1.602,3.882,-0.284271,0.650814,0.616278,99947.92,+156,+243,+169
156407,8.792,-1.316,4.027,-0.394418,0.644960,0.631177,99945.36,+160,+248,+176
156418,8.851,-1.156,4.155,-0.448161,0.631658,0.640755,99947.56,+156,+243,+176
156428,9.154,-0.922,3.785,-0.452950,0.615162,0.663103,99947.50,+156,+243,+176
156438,9.489,-1.035,3.523,-0.386436,0.615162,0.701947,99947.50,+157,+243,+170
156448,9.767,-1.830,3.500,-0.333757,0.632722,0.750901,99950.34,+160,+248,+177
156457,9.877,-2.307,3.365,-0.358234,0.657199,0.791874,99949.02,+156,+244,+175
156468,9.932,-2.171,3.510,-0.409317,0.686997,0.814754,99947.71,+157,+244,+170
156478,9.760,-1.946,3.861,-0.452950,0.723713,0.825929,99947.02,+157,+244,+170
156487,9.816,-1.986,3.986,-0.503500,0.749254,0.847745,99947.02,+160,+249,+178
156497,9.875,-2.027,4.216,-0.565225,0.777456,0.863176,99947.73,+156,+243,+175
156508,9.928,-2.141,4.070,-0.663665,0.814171,0.876479,99949.73,+157,+243,+172
156518,10.118,-2.141,3.818,-0.770620,0.848226,0.922773,99950.05,+157,+243,+172
156523,10.194,-1.758,3.790,-0.838730,0.876428,0.944057,99945.84,+160,+246,+181
156532,10.242,-1.542,3.364,-0.851500,0.882814,1.038773,99945.84,+160,+246,+181
156542,11.015,-1.825,2.694,-0.800950,0.884410,1.176057,99945.84,+154,+240,+179
156553,11.627,-1.631,2.783,-0.661005,0.892924,1.367084,99948.18,+155,+240,+177
156563,11.934,-1.676,2.940,-0.540216,0.928043,1.580460,99947.04,+156,+245,+183
156573,11.985,-1.963,3.220,-0.509886,0.972740,1.760314,99945.07,+156,+245,+183
156582,12.087,-2.135,3.424,-0.513611,1.009456,1.939102,99945.07,+149,+239,+180
156593,12.286,-1.994,3.619,-0.550326,1.039786,2.100864,99948.98,+149,+241,+179
156603,12.859,-1.731,3.755,-0.605666,1.075437,2.258368,99948.98,+148,+244,+186
156613,13.186,-1.597,3.830,-0.665794,1.119602,2.415341,99948.13,+148,+244,+186
156622,13.581,-1.375,3.769,-0.765298,1.165364,2.572845,99947.34,+140,+239,+184
156633,14.770,-0.842,4.001,-0.885555,1.173345,2.729285,99945.93,+139,+239,+183
156643,16.801,0.146,4.425,-1.004216,1.158446,2.884661,99945.93,+136,+240,+192
156653,19.043,1.374,4.437,-1.187262,1.191969,3.030460,99947.28,+128,+232,+191
156663,21.123,2.439,3.601,-1.546968,1.284556,3.095377,99944.50,+128,+232,+191
156673,23.616,3.483,2.166,-2.195077,1.337235,3.036845,99944.81,+127,+229,+193
156683,26.472,6.423,0.151,-3.043260,1.349474,2.936808,99946.99,+127,+222,+208
156693,27.018,8.871,-0.041,-3.931884,1.417052,2.930423,99944.79,+123,+205,+212
156703,22.754,7.966,2.933,-4.412379,1.472923,3.024606,99947.46,+123,+205,+212
156713,17.471,0.943,7.583,-3.733939,1.292538,3.305028,99943.26,+124,+193,+219
156723,16.800,-5.660,9.478,-2.366417,0.959969,3.736569,99943.26,+123,+185,+231
156733,18.284,-8.118,9.079,-1.229298,0.910483,4.077652,99945.68,+118,+176,+225
156743,19.378,-3.233,9.527,-0.103886,1.191437,3.799358,99945.68,+118,+176,+225
156753,16.407,3.475,7.560,0.679380,1.518153,3.216698,99946.63,+121,+178,+222
156759,13.252,5.746,3.429,0.673526,1.254226,2.902221,99942.95,+121,+178,+222
156768,9.810,5.476,3.545,0.873067,0.886006,2.476533,99946.52,+125,+177,+228
156778,4.406,-3.528,4.619,1.317379,0.584832,1.862479,99944.95,+124,+174,+220
156788,6.496,-4.613,2.548,1.171049,0.287915,1.459671,99944.95,+127,+178,+217
156797,7.583,-0.617,-0.817,0.524536,0.023988,0.601911,99948.64,+127,+178,+217
156808,5.266,3.052,-0.717,0.211655,-0.120213,-0.375043,99945.97,+131,+176,+225
156818,4.910,4.185,-0.375,0.086609,-0.372433,-0.964088,99945.91,+131,+168,+219
156828,4.135,2.455,-0.169,0.240389,-0.627846,-1.337630,99945.44,+138,+167,+221
156837,3.154,0.147,0.349,0.502187,-0.841754,-1.606877,99945.44,+138,+167,+221
156848,2.621,-1.119,0.886,0.721416,-1.034378,-1.896877,99945.69,+142,+165,+230
156858,2.330,-1.243,1.081,0.833159,-1.206249,-2.292766,99946.16,+141,+156,+223
156868,2.773,-0.503,0.734,0.873067,-1.395680,-2.740271,99945.53,+148,+158,+227
156878,4.024,0.129,0.284,0.958737,-1.578194,-3.141481,99943.27,+148,+158,+227
156888,5.192,0.041,0.121,1.133269,-1.717607,-3.450105,99943.27,+150,+154,+237
156898,5.982,-0.969,0.138,1.204572,-1.822432,-3.676784,99943.59,+149,+146,+232
156908,6.397,-1.711,0.310,1.171049,-1.938964,-3.856637,99946.38,+153,+144,+238
156918,6.800,-1.807,0.988,1.179563,-2.058689,-4.026912,99939.08,+152,+140,+249
156928,7.501,-2.268,1.832,1.243948,-2.186396,-4.223260,99938.61,+152,+140,+249
156938,8.257,-3.200,2.358,1.283856,-2.336451,-4.411095,99938.61,+147,+132,+246
156948,8.780,-3.932,2.507,1.274810,-2.473203,-4.588820,99939.97,+147,+131,+255
156958,9.335,-4.247,2.598,1.208829,-2.582817,-4.767609,99941.70,+140,+129,+266
156968,10.096,-3.994,2.361,1.096554,-2.698285,-4.930434,99939.30,+140,+129,+266
156978,10.964,-3.785,2.010,1.001838,-2.799386,-5.091132,99939.19,+132,+122,+263
156988,11.833,-4.132,2.193,0.962994,-2.871753,-5.253425,99939.19,+129,+124,+271
156998,12.635,-4.551,2.911,0.926278,-2.946780,-5.361976,99941.28,+121,+126,+281
157008,13.516,-4.909,3.736,0.889563,-3.030322,-5.452434,99943.86,+121,+126,+281
157018,14.491,-5.355,4.648,0.860829,-3.098432,-5.540764,99942.28,+115,+120,+277
157028,15.116,-5.763,5.419,0.821453,-3.144193,-5.634948,99941.44,+112,+124,+288
157038,15.517,-5.848,6.071,0.782077,-3.186230,-5.703590,99941.44,+105,+124,+296
157048,16.533,-6.381,6.590,0.705985,-3.224010,-5.728599,99941.41,+105,+124,+296
157058,17.772,-6.962,7.144,0.561251,-3.235716,-5.685498,99944.37,+97,+118,+293
157068,18.469,-6.822,7.961,0.423435,-3.169202,-5.601425,99942.88,+91,+118,+304
157078,18.573,-6.284,9.065,0.405875,-3.010102,-5.481700,99943.37,+81,+118,+311
157088,17.856,-6.279,9.948,0.428224,-2.753625,-5.311957,99943.37,+81,+118,+311
157099,16.365,-7.269,10.359,0.331912,-2.382212,-5.119865,99943.70,+69,+111,+307
157108,14.692,-9.595,10.332,-0.068235,-1.942157,-4.911279,99944.19,+63,+112,+317
157118,12.780,-11.568,9.587,-0.655152,-1.476029,-4.603187,99943.61,+57,+111,+322
157128,10.835,-12.956,8.711,-1.069133,-1.006708,-4.173242,99943.13,+57,+111,+322
157138,9.041,-15.414,7.735,-1.286234,-0.637956,-3.504912,99943.13,+51,+100,+318
157148,7.337,-17.052,7.499,-1.298473,-0.373498,-2.518381,99947.00,+49,+98,+329
157158,5.737,-16.055,8.122,-1.007408,-0.140966,-1.348272,99947.67,+45,+96,+333
157168,5.370,-13.578,8.799,-0.337482,0.079860,-0.155282,99945.52,+45,+96,+333
157178,6.511,-11.466,9.106,0.605948,0.298557,0.917452,99947.98,+42,+93,+328
157188,7.331,-11.536,8.958,1.507342,0.509273,1.821506,99947.98,+44,+102,+338
157198,7.528,-12.134,8.968,2.091067,0.721052,2.547304,99947.45,+44,+114,+340
157208,10.541,-5.897,7.374,2.329452,0.862593,2.886258,99946.91,+44,+114,+340
157218,16.013,9.042,-0.060,1.867581,0.965291,2.446203,99944.34,+45,+119,+334
157229,19.650,25.078,-7.522,0.356921,0.853015,1.440516,99950.43,+49,+129,+344
157238,8.572,-1.399,-1.436,0.042444,1.194098,0.803580,99950.43,+52,+130,+346
157248,11.466,-15.572,3.603,1.618553,1.170685,1.972625,99950.75,+52,+130,+346
157258,23.111,-7.371,1.833,0.820389,0.918465,3.060790,99948.06,+53,+134,+341
157268,24.210,-1.649,0.431,-0.526913,1.243584,2.441414,99945.34,+57,+139,+353
157278,15.434,-5.462,4.311,-0.069831,1.467602,2.695230,99949.17,+57,+139,+353
157288,12.928,-2.189,6.272,0.502187,1.552208,3.161891,99949.17,+57,+139,+353
157298,10.307,0.074,6.260,0.796976,1.633088,2.803781,99946.30,+60,+137,+348
157308,9.187,-1.777,5.774,0.990132,1.635217,2.445139,99946.41,+66,+149,+354
157318,8.406,-3.156,6.855,0.993856,1.601694,2.233891,99946.88,+69,+154,+352
157328,8.146,-3.494,8.160,1.029508,1.570831,1.972093,99943.10,+69,+154,+352
157338,11.248,-3.192,4.389,0.948095,1.391510,1.760314,99943.10,+74,+154,+347
157348,12.458,-5.341,2.641,0.554334,1.268061,1.676772,99948.88,+80,+166,+353
157359,10.792,-4.795,3.419,0.248371,1.183456,1.628882,99948.47,+81,+166,+349
157368,10.217,-3.348,3.143,-0.123042,1.016373,1.535763,99946.20,+84,+161,+346
157378,10.171,-3.514,2.821,-0.486473,0.894520,1.359103,99948.72,+84,+161,+346
157388,10.234,-2.815,2.662,-0.734968,0.805126,1.203727,99948.72,+88,+166,+354
157399,10.031,-1.815,2.661,-0.869592,0.733291,1.051011,99949.26,+86,+159,+352
157408,9.948,-0.713,2.587,-0.841922,0.684869,0.923305,99947.52,+89,+152,+349
157418,9.918,-0.082,2.270,-0.647170,0.666777,0.826461,99945.41,+89,+152,+349
157428,9.932,0.081,2.236,-0.355042,0.685933,0.756755,99947.05,+93,+157,+358
157438,9.946,-0.010,2.162,-0.107079,0.717327,0.724828,99947.05,+93,+154,+354
157449,9.639,-0.357,2.251,0.043508,0.745529,0.707800,99945.52,+96,+150,+350
157458,9.459,-0.821,2.453,0.077563,0.749254,0.692901,99947.56,+96,+150,+350
157468,9.342,-1.175,2.556,-0.021409,0.742337,0.666828,99946.36,+100,+158,+357
157478,9.086,-1.174,2.816,-0.203391,0.729034,0.609892,99947.83,+99,+154,+353
157489,8.973,-0.758,3.113,-0.415702,0.704557,0.527947,99947.83,+103,+149,+351
157498,9.161,-0.022,3.155,-0.612583,0.660924,0.470479,99946.14,+103,+149,+351
157508,9.305,0.447,3.211,-0.696656,0.636447,0.456113,99949.03,+108,+153,+359
157518,9.435,0.454,3.036,-0.639188,0.641236,0.477929,99945.41,+107,+146,+355
157529,9.428,-0.012,2.544,-0.512546,0.655071,0.532204,99945.83,+110,+142,+353
157538,9.417,-0.769,2.265,-0.336950,0.685933,0.608828,99945.83,+110,+142,+353
157548,9.478,-1.473,2.530,-0.187427,0.727437,0.675874,99946.74,+114,+148,+360
157558,9.306,-1.472,3.494,-0.194345,0.758832,0.707800,99948.37,+114,+143,+356
157569,8.980,-1.188,4.123,-0.303427,0.761492,0.717910,99946.68,+119,+140,+354
157579,8.937,-0.844,4.379,-0.394241,0.737015,0.704253,99947.32,+119,+140,+354
157588,9.147,-0.935,4.188,-0.433794,0.711474,0.705672,99947.32,+123,+146,+361
157598,9.483,-1.334,3.647,-0.458803,0.698704,0.727488,99947.09,+123,+139,+356
157608,9.701,-1.454,3.336,-0.471042,0.704557,0.744516,99946.52,+126,+136,+354
157619,9.818,-1.493,3.589,-0.474234,0.718924,0.754094,99947.67,+126,+136,+354
157628,9.986,-1.758,3.753,-0.525317,0.732759,0.762608,99945.83,+130,+142,+362
157638,10.197,-1.860,3.702,-0.609922,0.758832,0.753562,99945.83,+130,+134,+356
157648,10.082,-1.483,3.884,-0.684418,0.790759,0.783360,99949.88,+134,+130,+355
157659,9.812,-1.104,3.811,-0.750931,0.827474,0.799323,99948.51,+134,+130,+355
157668,9.701,-0.925,3.675,-0.793500,0.853548,0.841892,99947.51,+138,+133,+362
157678,9.866,-0.798,3.353,-0.783922,0.865786,0.925433,99944.57,+138,+125,+356
157688,10.035,-0.396,3.417,-0.746675,0.903034,1.032919,99944.57,+143,+122,+356
157699,10.070,-0.457,3.632,-0.698785,0.920593,1.207984,99947.45,+143,+122,+356
157708,10.509,-0.876,3.485,-0.675372,0.944006,1.374002,99948.70,+148,+126,+363
157718,11.452,-1.514,3.553,-0.681225,0.949327,1.540552,99945.45,+146,+119,+355
157728,12.317,-1.812,3.553,-0.688675,0.979658,1.685818,99944.02,+152,+118,+354
157739,12.649,-2.335,3.265,-0.711023,1.019566,1.831084,99944.02,+152,+118,+354
157749,12.694,-2.495,3.017,-0.729647,1.042979,1.981671,99948.94,+155,+121,+361
157758,12.677,-2.173,3.042,-0.733372,1.046703,2.148222,99947.06,+154,+116,+353
157768,12.812,-1.875,3.038,-0.707298,1.062667,2.307855,99946.00,+158,+116,+353
157778,13.238,-1.884,3.207,-0.705170,1.074373,2.463763,99946.42,+158,+116,+353
157789,13.891,-1.720,3.193,-0.747207,1.099382,2.611157,99946.42,+160,+119,+359
157798,14.807,-1.439,3.123,-0.831280,1.114281,2.747377,99949.66,+158,+112,+350
157808,16.055,-0.865,3.338,-0.960051,1.073841,2.883065,99947.09,+162,+112,+350
157814,17.329,0.201,3.479,-1.084564,1.066923,2.983102,99945.93,+162,+112,+350
157824,18.733,0.937,3.218,-1.327739,1.129712,3.045359,99945.93,+161,+112,+356
157834,20.838,1.119,1.809,-1.905610,1.232410,3.041634,99945.09,+160,+100,+349
157844,23.795,4.508,0.842,-2.638857,1.215382,2.926698,99945.09,+160,+100,+349
157853,25.092,10.500,0.751,-3.245462,1.204208,2.906478,99947.05,+163,+90,+350
157863,22.928,11.785,1.079,-3.555682,1.303180,2.991083,99945.27,+162,+78,+357
157874,19.723,6.967,3.692,-3.386471,1.344685,3.095377,99945.73,+162,+58,+349
157884,19.527,-1.006,8.009,-2.304160,1.253162,3.455083,99945.73,+162,+58,+349
157893,21.430,-4.724,9.364,-1.131390,0.967419,3.845120,99945.73,+166,+55,+349
157903,21.619,-3.795,8.603,-0.577996,0.773731,4.099468,99946.20,+163,+57,+354
157914,20.757,-0.422,6.670,-0.201262,0.869511,4.013266,99945.82,+161,+55,+344
157924,17.688,5.214,4.914,0.707581,1.060538,3.626423,99945.66,+161,+55,+344
157933,12.454,5.544,3.488,1.111985,0.996153,3.144331,99944.73,+165,+65,+344
157943,7.757,-0.382,5.427,1.395067,0.510337,2.561671,99944.73,+160,+77,+349
157954,5.320,-4.990,6.214,1.618553,0.194796,1.975818,99945.03,+154,+80,+338
157964,9.108,-0.472,1.754,0.987471,-0.065938,1.160626,99946.14,+154,+80,+338
157974,7.344,3.271,-0.353,0.571893,-0.191516,0.040003,99946.75,+149,+89,+341
157983,5.594,5.197,-0.786,0.378205,-0.417131,-0.693245,99946.75,+141,+93,+347
157993,4.986,3.732,-1.008,0.289343,-0.756085,-1.103501,99945.55,+131,+89,+338
158004,4.089,1.316,-0.267,0.351068,-1.045552,-1.404675,99943.60,+131,+89,+338
158013,3.390,-0.309,0.563,0.393105,-1.302029,-1.686694,99943.60,+124,+95,+342
158023,3.173,-0.546,1.143,0.521875,-1.503167,-2.068216,99943.98,+112,+100,+345
158033,3.206,-0.449,1.525,0.606481,-1.697387,-2.541794,99943.45,+101,+99,+335
158044,4.040,-0.045,1.439,0.624040,-1.901717,-2.961628,99943.45,+95,+99,+337
158049,4.874,0.114,1.125,0.662884,-2.040598,-3.256417,99944.34,+95,+110,+337
158058,5.555,-0.094,0.880,0.714499,-2.150212,-3.528857,99941.67,+86,+118,+337
158068,6.302,-0.600,0.708,0.769838,-2.286432,-3.819921,99943.08,+86,+118,+337
158078,6.766,-1.376,0.839,0.814535,-2.398707,-4.050325,99941.14,+80,+118,+324
158089,7.280,-2.042,1.438,0.849123,-2.517368,-4.237628,99941.14,+77,+127,+325
158099,7.806,-2.603,1.996,0.915636,-2.633368,-4.422802,99941.43,+73,+133,+324
158108,8.487,-3.180,2.498,0.960334,-2.742450,-4.622343,99939.76,+73,+133,+324
158118,9.056,-3.349,2.646,1.001306,-2.842487,-4.822948,99937.76,+68,+130,+313
158129,9.754,-3.225,2.701,1.089636,-2.911661,-5.005462,99936.71,+66,+138,+316
158139,10.531,-3.327,2.847,1.212554,-2.976047,-5.165095,99936.71,+61,+142,+315
158148,11.504,-3.751,3.108,1.264700,-3.055863,-5.293865,99941.83,+61,+142,+315
158158,12.472,-4.466,3.423,1.212021,-3.146322,-5.418379,99941.36,+55,+140,+308
158169,13.447,-4.727,3.946,1.151361,-3.231991,-5.562581,99940.72,+53,+150,+314
158179,14.418,-4.964,4.626,1.165728,-3.286267,-5.705186,99938.89,+47,+156,+314
158188,15.355,-5.840,5.316,1.192333,-3.327771,-5.808415,99938.89,+47,+156,+314
158198,16.289,-6.915,6.109,1.136462,-3.382046,-5.862159,99941.84,+41,+156,+309
158209,17.425,-7.897,7.103,0.982682,-3.437918,-5.830232,99941.02,+38,+168,+316
158219,18.281,-8.635,8.345,0.820389,-3.428872,-5.696140,99941.64,+33,+171,+316
158229,18.436,-9.186,9.697,0.685765,-3.308083,-5.493939,99943.64,+33,+171,+316
158238,18.119,-9.443,11.246,0.591581,-3.056395,-5.227352,99943.64,+24,+169,+310
158248,16.711,-10.183,12.815,0.560187,-2.660506,-4.880416,99945.77,+20,+177,+316
158259,14.318,-11.532,14.034,0.442059,-2.179478,-4.509536,99942.63,+17,+177,+314
158269,12.035,-13.517,14.442,0.132903,-1.697387,-4.161536,99944.93,+11,+177,+307
158278,9.853,-16.331,13.960,-0.357170,-1.256268,-3.758729,99942.21,+11,+173,+307
158288,8.061,-18.174,12.995,-0.812656,-0.826855,-3.196289,99942.21,+13,+176,+315
158299,7.039,-19.692,12.201,-1.154271,-0.408617,-2.410363,99943.68,+12,+170,+316
158309,5.838,-19.815,11.893,-1.272399,-0.032415,-1.395097,99943.10,+8,+161,+312
158318,5.078,-17.147,12.369,-1.115427,0.315052,-0.343648,99942.21,+8,+161,+312
158328,5.455,-14.531,12.954,-0.665262,0.628465,0.637562,99944.73,+12,+162,+323
158339,8.133,-10.826,11.285,0.002536,0.859401,1.444772,99944.73,+11,+156,+325
158349,10.282,-4.383,8.387,0.749086,1.091933,1.785855,99950.39,+10,+158,+321
158359,19.600,13.043,-9.723,1.377507,0.634850,1.861414,99946.55,+10,+158,+321
158368,22.047,16.531,-9.334,0.652774,0.755639,1.562901,99949.59,+14,+167,+330
158379,9.808,-6.664,1.967,1.976663,1.304245,1.732644,99947.44,+14,+170,+326
158389,14.932,-12.574,5.910,2.737048,1.400556,2.896900,99947.44,+12,+178,+320
158399,23.445,-6.939,1.844,1.207232,1.347878,3.092716,99949.61,+12,+178,+320
158408,18.282,-6.285,2.495,0.225490,1.655969,2.695763,99947.94,+17,+184,+329
158418,13.218,-4.645,3.656,0.628297,1.739510,3.015028,99947.72,+16,+181,+328
158429,11.042,-1.603,3.964,0.790058,1.802831,2.935744,99944.36,+16,+181,+323
158439,8.118,-1.623,5.725,0.838480,1.835290,2.506331,99944.36,+16,+181,+323
158449,7.051,-1.339,8.557,0.838480,1.788464,2.211543,99948.23,+24,+190,+331
158458,7.242,-2.061,11.203,0.836884,1.790593,1.941231,99947.27,+25,+188,+327
158469,10.944,-3.233,5.118,0.778352,1.589455,1.719873,99946.80,+29,+191,+324
158479,13.605,-7.614,2.688,0.368095,1.428226,1.705506,99944.91,+29,+191,+324
158489,12.063,-7.039,3.377,0.026481,1.362777,1.752864,99944.91,+36,+196,+331
158498,10.405,-3.722,2.896,-0.314601,1.216978,1.655488,99948.61,+34,+190,+329
158509,9.584,-2.795,3.388,-0.663665,1.112685,1.469249,99949.25,+36,+185,+328
158519,9.571,-2.640,2.860,-0.920675,0.984269,1.265097,99946.78,+36,+185,+328
158529,9.838,-2.340,2.919,-1.049977,0.900373,1.112736,99946.89,+42,+187,+337
158538,10.291,-1.068,2.745,-0.986124,0.841309,0.954699,99946.89,+39,+176,+336
158548,10.515,-0.651,2.400,-0.651427,0.830667,0.799323,99947.02,+42,+173,+334
158559,10.513,-0.642,2.467,-0.240106,0.845566,0.720039,99946.93,+42,+173,+334
158569,10.264,-0.713,2.947,0.002536,0.831199,0.721635,99947.40,+48,+179,+341
158578,10.013,-1.065,3.132,0.073839,0.779584,0.715250,99947.60,+47,+172,+337
158588,9.711,-1.164,3.291,0.072242,0.723713,0.678002,99947.60,+49,+174,+336
158599,9.154,-1.342,3.247,0.017435,0.677951,0.624791,99947.88,+49,+174,+336
158609,8.925,-1.843,3.062,-0.109739,0.648153,0.546571,99945.63,+53,+179,+341
158619,9.043,-1.963,3.014,-0.313537,0.628997,0.444938,99947.52,+52,+171,+338
158628,9.177,-1.295,3.438,-0.541812,0.611438,0.364058,99947.26,+55,+169,+337
158639,9.136,-0.052,3.664,-0.638124,0.595474,0.335324,99947.26,+55,+169,+337
158649,9.074,0.489,3.334,-0.594491,0.606116,0.357140,99949.41,+60,+172,+344
158659,9.111,-0.125,2.879,-0.465721,0.627401,0.408223,99948.92,+58,+163,+340
158668,9.347,-0.597,2.404,-0.269372,0.643364,0.466755,99946.30,+62,+163,+340
158679,9.366,-0.815,2.603,-0.069299,0.677951,0.518901,99944.94,+62,+163,+340
158689,9.243,-1.527,3.239,-0.046418,0.708282,0.569452,99944.94,+67,+167,+346
158699,9.173,-1.809,3.959,-0.231060,0.721052,0.581690,99946.24,+65,+160,+341
158709,9.023,-0.915,4.405,-0.444968,0.715731,0.550828,99947.13,+69,+160,+341
158718,8.982,-0.376,4.176,-0.519996,0.700300,0.565727,99946.98,+73,+160,+341
158729,9.298,-0.801,3.803,-0.509886,0.697107,0.606700,99944.73,+73,+162,+349
158739,9.662,-1.559,3.248,-0.506693,0.702960,0.652461,99944.73,+72,+154,+343
158749,9.679,-1.875,3.007,-0.495519,0.737015,0.704076,99948.08,+75,+154,+344
158758,9.629,-1.931,3.086,-0.525317,0.788098,0.745048,99946.50,+81,+156,+349
158769,9.512,-1.184,3.353,-0.568418,0.838116,0.774314,99947.81,+81,+156,+349
158779,9.508,-0.423,3.747,-0.570546,0.866318,0.842956,99946.92,+79,+147,+345
158789,9.372,-0.124,4.143,-0.507225,0.887603,0.920644,99946.92,+85,+148,+346
158798,9.513,-1.114,4.081,-0.454014,0.896116,1.017488,99950.20,+90,+148,+351
158809,9.849,-1.957,3.939,-0.468913,0.920593,1.089855,99947.94,+90,+148,+351
158819,10.337,-2.190,4.116,-0.566289,0.939749,1.153708,99948.20,+88,+141,+346
158829,10.539,-2.119,4.129,-0.688143,0.981786,1.197873,99945.16,+93,+140,+347
158838,10.990,-1.967,3.858,-0.767427,0.996153,1.271837,99945.16,+99,+140,+353
158849,11.577,-1.809,3.794,-0.764766,0.988703,1.391561,99946.05,+99,+140,+353
158859,12.003,-1.658,3.675,-0.736565,1.009988,1.520864,99949.62,+97,+132,+347
158869,12.244,-1.968,3.284,-0.704283,1.036061,1.680852,99947.79,+101,+131,+348
158879,12.369,-2.366,2.921,-0.653023,1.048300,1.816185,99948.73,+105,+132,+353
158888,12.288,-2.508,2.791,-0.582253,1.057878,1.987524,99948.73,+105,+132,+353
158899,12.423,-1.845,3.182,-0.519996,1.056281,2.171634,99948.30,+103,+123,+347
158909,13.377,-1.627,3.946,-0.493922,1.065327,2.330735,99948.72,+108,+126,+347
158919,14.371,-1.735,4.221,-0.546601,1.110556,2.452056,99945.67,+110,+125,+351
158928,14.869,-1.508,4.062,-0.722198,1.165364,2.554754,99944.27,+110,+125,+351
158939,15.592,-0.445,3.849,-0.892473,1.149933,2.651597,99944.27,+108,+116,+344
158949,17.136,1.227,3.855,-1.013262,1.111089,2.768661,99948.62,+111,+116,+345
158959,18.779,1.747,3.099,-1.256436,1.197823,2.854331,99948.82,+114,+112,+349
158969,20.267,2.272,1.910,-1.773646,1.285621,2.831450,99948.66,+114,+112,+349
158979,22.139,5.173,0.831,-2.541481,1.278171,2.755359,99947.30,+112,+96,+343
158989,23.557,7.668,0.343,-3.367315,1.301052,2.631377,99947.30,+116,+85,+345
158999,22.170,8.093,0.730,-3.990948,1.388850,2.540386,99947.04,+120,+65,+349
159009,19.180,5.579,4.745,-3.893039,1.456960,2.664900,99945.62,+120,+65,+349
159019,19.109,0.095,8.504,-2.560637,1.331914,3.193817,99944.63,+119,+41,+341
159029,21.301,-3.998,8.009,-1.129262,1.078630,3.768496,99944.88,+125,+39,+341
159039,20.947,-4.356,6.789,-0.755720,0.962630,3.919083,99944.88,+127,+34,+343
159049,19.972,-1.647,6.966,-0.711023,1.014245,3.690808,99947.41,+127,+34,+343
159058,16.539,3.470,5.301,-0.170400,1.153657,3.211909,99943.53,+127,+26,+331
159069,11.716,5.298,3.942,0.223361,1.036061,2.803781,99946.52,+131,+29,+333
159079,8.075,0.705,5.764,0.799636,0.528961,2.387139,99944.16,+130,+28,+334
159089,5.441,-6.184,7.162,1.291306,0.289511,1.927928,99944.16,+130,+28,+334
159099,9.523,-1.564,1.597,0.778884,0.013878,1.207984,99947.54,+124,+27,+325
159105,8.051,1.156,-0.112,0.410664,-0.041993,0.358736,99946.65,+121,+27,+328
159114,5.937,3.344,-0.064,0.311692,-0.156929,-0.271814,99946.65,+121,+27,+328
159124,5.134,3.220,-0.358,0.188774,-0.464488,-0.719850,99947.02,+114,+23,+331
159134,4.597,0.960,-0.451,0.292536,-0.760873,-1.030070,99943.60,+102,+13,+323
159144,3.816,-0.834,-0.133,0.412793,-0.999791,-1.324859,99943.60,+92,+16,+326
159154,3.340,-1.162,0.404,0.440994,-1.249350,-1.688290,99941.41,+92,+16,+326
159164,3.202,-0.465,0.918,0.508572,-1.461662,-2.163464,99942.35,+79,+12,+329
159174,3.476,-0.045,0.999,0.579875,-1.656414,-2.624803,99941.15,+61,+7,+320
159184,4.192,0.160,0.916,0.668737,-1.833607,-2.987702,99941.15,+46,+13,+324
159194,5.000,-0.101,0.716,0.811343,-1.987919,-3.307500,99941.15,+46,+13,+324
159204,5.530,-0.646,0.772,0.968847,-2.115625,-3.577811,99943.09,+29,+15,+326
159214,5.879,-0.812,1.172,1.124755,-2.233221,-3.799701,99944.46,+9,+17,+314
159224,6.320,-1.171,1.592,1.232774,-2.339111,-4.008288,99943.30,-4,+30,+318
159234,7.115,-1.741,1.744,1.278003,-2.465221,-4.227518,99939.37,-4,+30,+318
159244,8.008,-2.015,2.010,1.303544,-2.595588,-4.431315,99939.37,-23,+38,+315
159254,8.749,-2.589,2.348,1.307801,-2.711056,-4.600526,99941.23,-41,+47,+303
159264,9.298,-3.264,2.637,1.292902,-2.813221,-4.763884,99938.72,-53,+66,+301
159275,9.924,-3.958,2.870,1.224792,-2.899955,-4.960765,99935.83,-53,+66,+301
159284,10.771,-4.336,3.025,1.099214,-2.974982,-5.173077,99935.83,-68,+79,+296
159294,11.786,-4.419,3.284,0.932132,-3.043092,-5.371553,99940.77,-80,+91,+280
159304,12.738,-4.211,3.576,0.775691,-3.109074,-5.560985,99940.77,-86,+111,+277
159314,13.614,-4.077,3.754,0.687361,-3.164946,-5.722746,99941.44,-86,+111,+277
159324,14.650,-3.959,3.739,0.691618,-3.215496,-5.828636,99942.48,-95,+126,+267
159334,15.788,-4.291,4.040,0.806554,-3.231459,-5.912177,99940.50,-98,+140,+249
159344,17.009,-5.180,4.939,0.879985,-3.269239,-5.963260,99940.50,-97,+162,+243
159354,18.418,-6.534,6.515,0.829435,-3.347991,-5.926012,99941.94,-97,+162,+243
159365,19.416,-7.666,8.488,0.741104,-3.379918,-5.803627,99940.58,-95,+178,+231
159374,19.396,-7.638,10.342,0.722480,-3.292120,-5.653039,99940.47,-88,+189,+212
159384,19.115,-7.571,11.637,0.782609,-3.041496,-5.515223,99939.10,-76,+205,+210
159394,18.188,-8.952,12.327,0.743765,-2.637093,-5.298122,99942.15,-76,+205,+210
159405,16.098,-11.737,12.329,0.417582,-2.126799,-4.991095,99941.79,-67,+213,+203
159414,13.521,-15.182,12.001,-0.276290,-1.586708,-4.623407,99943.04,-54,+213,+193
159424,10.756,-17.621,11.448,-1.116491,-1.085460,-4.163664,99943.04,-42,+217,+200
159434,7.917,-19.294,11.383,-1.723628,-0.661901,-3.527261,99943.84,-35,+217,+200
159444,6.104,-20.488,11.391,-2.081206,-0.370837,-2.570528,99943.84,-35,+212,+201
159455,5.083,-19.192,11.729,-2.056197,-0.045186,-1.292578,99945.98,-31,+204,+199
159464,4.939,-16.473,12.062,-1.552289,0.274080,-0.204236,99945.98,-25,+201,+210
159474,5.500,-13.864,12.191,-0.567886,0.583768,0.882864,99942.04,-28,+196,+207
159484,6.360,-13.278,11.890,0.439930,0.826410,1.849176,99943.62,-28,+196,+207
159495,10.011,-8.427,8.909,1.176370,0.979658,2.474405,99943.62,-31,+194,+201
159504,16.507,6.102,-2.201,1.535544,0.931768,2.420662,99946.98,-31,+199,+207
159514,24.773,28.051,-13.855,0.790591,0.721584,1.749139,99950.11,-34,+197,+203
159524,12.080,0.866,-4.008,0.723545,1.177070,1.331965,99946.33,-34,+197,+203
159535,11.029,-12.903,6.368,2.691819,1.514428,2.422258,99946.33,-33,+195,+197
159544,22.465,-9.510,3.699,1.857471,1.242520,3.417303,99946.33,-36,+201,+202
159554,23.178,-7.451,1.124,0.096187,1.414923,2.813359,99948.08,-40,+195,+199
159564,15.379,-5.964,4.139,0.122261,1.610208,3.002790,99946.92,-40,+195,+199
159575,11.339,-0.318,6.700,0.696407,1.745363,3.224680,99945.92,-41,+188,+196
159584,7.857,0.816,9.071,1.188609,1.850721,2.797395,99946.28,-40,+192,+203
159594,6.949,-2.016,10.770,1.372186,1.819859,2.388203,99946.28,-42,+188,+199
159604,7.862,-4.134,9.089,1.190737,1.699070,2.122148,99945.41,-42,+188,+199
159614,10.333,-4.400,4.469,0.849123,1.475052,1.932717,99945.63,-40,+187,+197
159625,12.272,-5.930,3.127,0.519747,1.328189,1.811928,99947.98,-39,+191,+204
159634,11.977,-6.977,2.847,0.237196,1.179731,1.774680,99947.98,-43,+186,+201
159644,11.111,-5.210,3.013,-0.218822,1.068520,1.661873,99946.18,-43,+186,+201
159654,10.358,-3.424,2.973,-0.693464,0.973804,1.447433,99946.18,-41,+180,+201
159665,10.033,-2.567,2.800,-1.009537,0.851419,1.296846,99946.01,-40,+182,+210
159674,9.869,-1.502,2.913,-1.081904,0.758832,1.131892,99947.85,-43,+173,+208
159684,10.177,-0.581,2.640,-0.922271,0.702428,0.929158,99947.01,-43,+173,+208
159694,10.444,-0.283,2.406,-0.576932,0.695511,0.770589,99947.01,-41,+169,+208
159705,10.325,-0.230,2.548,-0.244363,0.715199,0.727488,99947.16,-40,+172,+217
159715,10.180,-0.685,2.818,-0.085794,0.713603,0.748241,99946.00,-41,+166,+212
159724,10.096,-1.066,2.882,-0.036308,0.688061,0.740259,99948.00,-41,+166,+212
159734,9.703,-0.874,3.023,-0.024070,0.657199,0.687048,99946.11,-38,+165,+211
159745,9.031,-0.818,3.181,-0.048547,0.624740,0.627452,99946.95,-36,+169,+218
159755,8.711,-1.196,3.354,-0.162950,0.580575,0.565195,99947.63,-39,+163,+213
159764,8.826,-1.154,3.419,-0.375794,0.535878,0.500278,99947.00,-39,+163,+213
159774,8.935,-0.567,3.508,-0.577464,0.502355,0.449727,99947.00,-36,+161,+214
159784,9.039,0.016,3.438,-0.659941,0.487456,0.421525,99946.80,-34,+163,+223
159795,8.994,0.407,3.103,-0.602473,0.486924,0.426846,99946.80,-37,+155,+218
159804,9.004,0.124,2.570,-0.422088,0.515126,0.462498,99949.03,-37,+155,+218
159814,9.106,-0.548,2.385,-0.201262,0.555566,0.514112,99945.98,-34,+154,+219
159824,9.222,-0.880,2.519,-0.028859,0.588025,0.573709,99945.36,-33,+158,+226
159835,9.259,-0.970,2.884,0.035527,0.624740,0.625323,99947.83,-34,+152,+220
159845,9.155,-1.170,3.437,-0.041097,0.657731,0.660975,99947.83,-34,+152,+220
159854,9.041,-0.998,3.827,-0.220418,0.677419,0.682791,99946.48,-31,+152,+222
159864,9.100,-0.358,3.831,-0.363556,0.692318,0.689177,99946.10,-29,+154,+228
159875,9.403,-0.352,3.478,-0.407189,0.703493,0.706736,99945.48,-31,+147,+223
159884,9.751,-1.195,3.062,-0.382711,0.721584,0.753562,99945.48,-31,+147,+223
159894,9.895,-1.702,2.518,-0.348124,0.764153,0.820608,99945.48,-27,+147,+225
159904,9.766,-1.612,2.822,-0.331097,0.813107,0.881268,99947.37,-25,+148,+232
159915,9.726,-1.305,3.234,-0.349189,0.850887,0.936076,99947.99,-27,+140,+227
159925,9.660,-0.757,3.571,-0.372069,0.897713,0.983965,99948.21,-23,+140,+228
159934,9.684,-0.825,4.022,-0.394950,0.916336,1.043030,99945.27,-23,+140,+228
159944,9.952,-1.409,4.124,-0.413042,0.919529,1.102626,99945.27,-21,+142,+235
159954,9.986,-1.819,4.081,-0.489666,0.953584,1.132424,99946.56,-23,+133,+230
159965,9.998,-1.614,4.161,-0.584381,0.976997,1.175525,99946.77,-18,+132,+233
159975,10.224,-1.348,4.249,-0.644509,0.990300,1.246295,99945.48,-18,+132,+233
159984,10.537,-1.002,4.548,-0.681757,1.006795,1.339415,99945.48,-16,+132,+240
159994,10.954,-1.092,4.677,-0.721133,1.014777,1.457543,99949.26,-17,+122,+235
160005,12.082,-2.004,3.867,-0.770087,1.002006,1.600148,99949.26,-12,+122,+239
160015,12.659,-2.299,3.303,-0.789775,1.027547,1.735836,99948.74,-12,+122,+239
160024,12.506,-2.383,2.897,-0.746675,1.064795,1.903983,99946.32,-11,+119,+245
160034,12.802,-2.517,2.836,-0.664730,1.062135,2.062020,99945.95,-11,+110,+240
160045,13.443,-2.549,3.156,-0.582785,1.059474,2.221121,99945.95,-6,+109,+242
160055,13.782,-2.411,3.623,-0.579060,1.087676,2.360533,99949.02,-6,+109,+242
160065,13.874,-1.830,3.960,-0.668987,1.126520,2.469084,99947.04,-5,+108,+248
160074,14.386,-1.101,4.028,-0.788711,1.168024,2.565396,99944.57,-3,+98,+241
160084,15.429,-0.769,3.710,-0.925463,1.203144,2.655854,99943.69,+1,+96,+245
160095,17.098,0.086,3.772,-1.066473,1.188245,2.759616,99949.09,+1,+96,+245
160105,19.211,1.229,3.680,-1.318693,1.202079,2.862845,99947.83,+4,+93,+250
160114,21.452,2.068,2.320,-1.869426,1.362777,2.854863,99942.27,+6,+80,+243
160124,23.291,5.386,0.621,-2.731976,1.505382,2.756955,99942.27,+15,+73,+248
160135,23.383,8.207,-0.460,-3.662104,1.555400,2.715451,99945.53,+15,+73,+248
160144,21.804,8.807,-0.025,-4.254342,1.547419,2.771854,99945.53,+20,+60,+253
160154,19.255,4.989,3.545,-4.228801,1.528795,2.952772,99947.25,+25,+43,+244
160160,18.885,-1.083,6.994,-3.596122,1.420244,3.262992,99944.27,+25,+43,+244
160169,20.912,-3.767,9.081,-2.760178,1.126520,3.626955,99945.42,+36,+35,+248
160180,21.380,-3.495,9.176,-1.979573,0.832795,3.944092,99945.63,+39,+29,+250
160189,21.056,-1.793,9.275,-0.933977,1.014245,4.023376,99945.63,+46,+25,+241
160199,18.783,3.654,6.377,0.196756,1.262208,3.698789,99946.82,+46,+25,+241
160209,13.553,5.971,3.805,0.924682,1.238263,3.302900,99946.45,+57,+33,+244
160220,9.408,2.272,4.305,1.180627,0.792887,2.826662,99945.62,+61,+39,+246
160230,5.545,-5.589,5.797,1.562682,0.420410,2.279121,99945.29,+64,+43,+238
160239,8.746,-2.884,2.255,1.241820,0.086777,1.666130,99945.29,+64,+43,+238
160249,8.789,1.064,-0.466,0.693747,-0.133516,0.663103,99947.73,+69,+52,+242
160260,6.292,3.691,-0.284,0.550077,-0.332525,-0.226584,99946.26,+69,+54,+243
160270,5.348,3.292,-0.172,0.414389,-0.644874,-0.769868,99948.30,+69,+53,+235
160279,4.255,1.368,0.242,0.455893,-0.913057,-1.133832,99943.99,+69,+53,+235
160289,3.394,-0.135,0.702,0.628297,-1.141332,-1.396162,99943.99,+71,+61,+239
160300,3.086,-0.902,1.368,0.832627,-1.342469,-1.697336,99946.07,+68,+62,+240
160310,2.679,-1.224,1.767,0.952884,-1.555313,-2.078326,99944.55,+66,+63,+232
160320,2.447,-0.579,1.449,1.031636,-1.801148,-2.506142,99942.51,+66,+63,+232
160329,3.513,-0.186,1.058,1.117306,-2.031020,-2.939812,99941.71,+67,+71,+238
160339,4.981,-0.386,0.795,1.224792,-2.219386,-3.289940,99941.71,+61,+72,+237
160350,5.861,-0.872,0.881,1.282260,-2.371038,-3.561316,99941.61,+59,+71,+232
160360,6.008,-1.126,1.109,1.279067,-2.484377,-3.799701,99940.19,+59,+71,+232
160369,6.302,-1.055,1.526,1.283324,-2.569515,-4.020527,99941.08,+60,+79,+237
160379,6.956,-1.403,2.400,1.351966,-2.647203,-4.257316,99939.36,+55,+78,+238
160390,7.733,-1.961,2.806,1.429122,-2.760010,-4.465903,99939.36,+50,+74,+235
160395,8.401,-2.457,3.041,1.429122,-2.843019,-4.600526,99939.98,+50,+74,+235
160404,9.069,-2.772,3.158,1.378572,-2.920707,-4.740471,99939.98,+47,+79,+244
160414,9.992,-2.935,3.241,1.263104,-3.030322,-4.950122,99940.03,+34,+77,+246
160424,10.842,-3.135,3.304,1.093361,-3.132487,-5.176269,99939.14,+34,+77,+246
160435,11.686,-3.394,3.529,0.900737,-3.214964,-5.403480,99938.25,+22,+75,+245
160445,12.578,-3.558,3.884,0.712902,-3.262321,-5.627498,99940.94,+12,+85,+253
160455,13.562,-3.923,4.365,0.539435,-3.284138,-5.836617,99940.84,-2,+89,+251
160464,14.665,-3.981,4.893,0.495270,-3.292652,-6.031370,99939.00,-2,+89,+251
160475,15.883,-4.749,5.692,0.526132,-3.301698,-6.204837,99939.00,-12,+95,+247
160485,17.197,-6.585,6.743,0.397893,-3.332560,-6.282526,99940.63,-18,+107,+252
160494,18.147,-7.917,7.799,0.096187,-3.342670,-6.268691,99940.63,-28,+113,+249
160504,19.047,-8.404,8.767,-0.226803,-3.282010,-6.236232,99941.56,-28,+113,+249
160515,19.806,-8.685,9.944,-0.468913,-3.122909,-6.163865,99940.77,-34,+118,+245
160525,19.782,-8.666,11.069,-0.617904,-2.841423,-5.974966,99943.03,-35,+126,+250
160535,18.028,-9.057,11.980,-0.741886,-2.423717,-5.690819,99940.45,-43,+130,+247
160544,15.619,-10.412,12.317,-0.957390,-1.914487,-5.424232,99940.45,-43,+130,+247
160555,13.715,-13.792,12.027,-1.475665,-1.395148,-5.126251,99941.27,-44,+131,+245
160565,11.041,-16.334,11.371,-1.952967,-0.879002,-4.683003,99944.26,-40,+132,+255
160575,8.656,-17.753,10.521,-2.180710,-0.446929,-4.058307,99943.95,-43,+132,+254
160585,6.891,-19.960,10.079,-2.106747,-0.164378,-3.031335,99943.95,-43,+132,+254
160594,5.464,-19.929,10.029,-1.769922,0.083585,-1.762785,99943.95,-42,+128,+255
160605,5.008,-17.504,10.272,-1.167041,0.373052,-0.504346,99945.29,-37,+126,+266
160615,5.697,-15.393,10.246,-0.350253,0.651346,0.651397,99945.07,-41,+127,+266
160624,6.471,-14.385,9.898,0.562315,0.904630,1.646442,99944.49,-41,+127,+266
160634,6.966,-15.055,9.717,1.309397,1.116942,2.508992,99943.66,-39,+127,+266
160645,11.929,-6.747,4.112,1.707416,1.133437,3.012368,99943.66,-34,+132,+276
160655,20.706,21.681,-9.201,1.591416,0.864722,2.306258,99950.09,-39,+136,+273
160665,23.597,39.620,-14.361,0.879985,0.755107,1.052608,99949.82,-39,+136,+273
160675,7.857,-1.737,-2.371,2.022425,1.057346,0.455580,99948.23,-34,+138,+273
160685,10.544,-24.870,7.469,3.953983,1.020630,2.377561,99948.23,-29,+154,+278
160695,21.874,-13.627,0.764,2.052755,0.673162,3.550863,99948.93,-37,+160,+273
160705,23.669,-2.786,-0.698,-0.210308,1.181859,2.464827,99948.93,-37,+160,+273
160714,17.529,-7.522,3.329,0.232939,1.428226,2.637763,99946.51,-34,+154,+276
160724,14.134,-4.715,5.221,0.644792,1.586795,3.056533,99946.99,-29,+157,+283
160735,10.086,-1.403,6.057,0.559655,1.715033,2.569653,99942.84,-34,+155,+281
160745,9.374,-2.111,5.762,0.551141,1.632024,2.253579,99942.84,-34,+155,+281
160755,7.757,-3.180,8.288,0.462279,1.541033,2.051910,99944.38,-28,+156,+282
160764,7.854,-2.141,10.548,0.639471,1.505914,1.810332,99943.80,-22,+158,+288
160775,12.061,-3.267,4.422,0.545820,1.227621,1.594827,99946.16,-26,+156,+285
160785,12.888,-7.491,3.145,0.008389,1.083419,1.545873,99944.54,-20,+156,+285
160795,10.751,-4.069,4.201,-0.332693,1.048300,1.518736,99946.70,-20,+154,+285
160805,9.776,-1.884,3.247,-0.781794,0.912080,1.345800,99944.80,-16,+154,+293
160815,9.917,-2.238,2.771,-1.031353,0.796612,1.176057,99945.34,-23,+146,+290
160825,10.297,-1.371,2.634,-1.049445,0.726905,0.990883,99945.34,-16,+141,+293
160835,10.528,0.044,2.652,-0.866931,0.681144,0.821140,99945.02,-16,+141,+293
160844,10.619,0.266,2.525,-0.551390,0.660392,0.722167,99945.02,-11,+140,+298
160855,10.351,-0.296,2.722,-0.309812,0.647621,0.696626,99949.16,-18,+135,+295
160865,10.177,-0.400,3.074,-0.223079,0.632190,0.681195,99950.27,-11,+134,+296
160875,9.919,-0.228,3.117,-0.217225,0.602392,0.650333,99945.70,-11,+134,+296
160885,9.517,-0.254,3.284,-0.226271,0.577383,0.606700,99943.71,-8,+135,+301
160894,9.141,-0.483,3.393,-0.292253,0.540667,0.559874,99943.71,-14,+130,+297
160905,8.770,-0.160,3.563,-0.469978,0.506612,0.502938,99947.82,-7,+129,+298
160915,8.778,0.736,4.057,-0.693996,0.475217,0.439085,99945.87,-7,+129,+298
160925,9.071,1.332,4.007,-0.807867,0.443291,0.411415,99944.93,-5,+128,+304
160934,9.064,1.242,3.247,-0.747739,0.437438,0.422057,99944.93,-10,+121,+301
160945,8.924,1.045,2.514,-0.552987,0.457658,0.450259,99944.93,-3,+119,+302
160955,8.974,0.593,2.283,-0.305556,0.489584,0.503470,99945.85,-3,+119,+302
160965,9.130,-0.137,2.758,-0.162950,0.535878,0.559342,99948.48,-1,+120,+309
160974,9.052,-0.657,3.426,-0.229996,0.564080,0.580094,99947.12,-5,+116,+303
160985,8.810,-0.437,3.690,-0.361959,0.576318,0.588076,99946.01,+1,+116,+304
160995,8.889,-0.030,4.010,-0.446033,0.582172,0.604571,99946.01,+1,+116,+304
161005,9.094,0.264,3.949,-0.492326,0.586428,0.654057,99945.12,+4,+116,+310
161015,9.317,0.132,3.451,-0.452950,0.612502,0.723232,99946.12,+0,+110,+305
161025,9.415,-0.585,2.951,-0.378987,0.649217,0.807305,99945.20,+9,+109,+308
161035,9.626,-0.804,2.622,-0.333225,0.694447,0.888186,99945.20,+9,+109,+308
161045,9.677,-0.688,2.588,-0.318326,0.748722,0.966406,99945.67,+10,+109,+312
161055,9.608,-0.385,2.852,-0.291189,0.808318,1.058461,99948.25,+7,+104,+308
161064,9.653,-0.306,3.183,-0.249684,0.859933,1.158497,99948.25,+16,+104,+310
161075,9.717,-0.544,3.431,-0.232657,0.904630,1.262259,99945.58,+16,+104,+310
161085,9.682,-0.473,3.820,-0.227335,0.941346,1.358571,99944.63,+18,+103,+314
161095,9.863,-0.916,4.074,-0.255005,0.962098,1.426681,99944.63,+15,+99,+311
161104,10.085,-1.680,4.044,-0.334290,0.971144,1.475103,99949.73,+25,+100,+313
161115,10.334,-1.680,4.037,-0.439115,0.973272,1.538956,99946.52,+25,+100,+313
161125,10.902,-1.421,3.860,-0.543941,0.963162,1.609726,99948.68,+26,+98,+316
161135,11.513,-1.308,3.937,-0.580656,0.957309,1.714020,99944.59,+24,+91,+313
161145,12.046,-1.562,3.691,-0.583849,0.971676,1.851304,99947.61,+34,+91,+315
161155,12.529,-1.855,3.468,-0.583849,0.994025,1.986460,99946.61,+34,+91,+315
161165,12.671,-1.912,3.463,-0.598748,1.015841,2.122148,99946.23,+35,+89,+319
161175,12.711,-1.919,3.532,-0.626950,1.037657,2.238680,99946.23,+32,+81,+314
161185,12.790,-2.137,3.558,-0.659409,1.057878,2.331800,99944.56,+42,+82,+317
161195,12.786,-2.195,3.541,-0.720069,1.074905,2.422790,99944.56,+42,+82,+317
161205,13.219,-2.033,3.572,-0.828087,1.077566,2.508460,99945.92,+42,+77,+319
161215,14.055,-1.606,3.508,-0.951005,1.096722,2.593597,99942.77,+41,+69,+314
161225,14.832,-1.350,3.038,-1.123940,1.122795,2.698955,99944.55,+50,+68,+317
161235,16.187,-0.861,2.744,-1.317628,1.069584,2.813359,99944.30,+49,+68,+317
161245,18.595,0.183,2.666,-1.626252,0.981786,2.905414,99944.30,+49,+59,+319
161255,21.628,1.426,0.724,-2.278619,1.065859,2.911267,99946.60,+49,+47,+314
161265,24.288,5.748,-0.079,-3.197572,1.260079,2.793671,99944.57,+58,+37,+317
161275,24.739,10.939,-0.673,-4.073957,1.304245,2.743120,99945.23,+59,+16,+318
161285,22.766,12.269,-0.169,-4.444838,1.299988,2.888386,99945.23,+59,+16,+318
161295,19.797,9.030,4.629,-3.824929,1.338300,3.010772,99945.23,+59,-4,+311
161305,19.975,-1.681,9.096,-2.423884,1.172813,3.513615,99946.02,+71,-11,+314
161315,22.504,-5.670,10.234,-1.311775,0.698171,4.138844,99946.28,+71,-18,+314
161325,24.537,-3.160,10.843,-0.338014,0.618887,4.478330,99942.45,+71,-18,+314
161335,23.247,1.285,8.082,0.796444,0.844502,4.480459,99944.03,+73,-17,+309
161345,18.454,5.391,5.506,1.832461,1.135566,4.194184,99944.03,+84,-1,+312
161355,12.620,5.974,4.677,2.042113,0.965823,3.683890,99946.97,+83,+5,+314
161366,6.545,-1.092,5.953,2.216645,0.448612,2.937872,99945.59,+83,+5,+314
161375,5.502,-4.352,6.281,2.248571,0.068154,2.193983,99945.63,+81,+16,+311
161385,8.463,-1.694,2.544,1.436040,-0.201626,1.267580,99945.63,+83,+32,+314
161395,7.611,1.341,0.395,0.869875,-0.397443,0.264553,99949.13,+75,+33,+315
161405,5.849,3.323,-0.200,0.467068,-0.617736,-0.508603,99946.30,+75,+33,+315
161415,4.314,2.943,-0.729,0.177068,-0.937002,-0.983777,99946.30,+66,+35,+312
161425,2.846,1.557,-0.249,0.103637,-1.233387,-1.274308,99943.78,+64,+45,+315
161435,2.060,0.158,0.453,0.129710,-1.499442,-1.517483,99945.09,+51,+43,+317
161445,2.171,-0.431,1.119,0.269655,-1.721332,-1.868675,99945.09,+51,+43,+317
161451,2.609,-0.573,1.532,0.370224,-1.862873,-2.211354,99944.15,+40,+47,+314
161460,2.931,-0.744,1.740,0.380334,-2.004414,-2.563610,99942.73,+40,+47,+314
161470,3.089,-0.469,1.732,0.368627,-2.223111,-2.980252,99942.30,+34,+59,+316
161480,3.836,0.057,1.470,0.379802,-2.437019,-3.387848,99942.52,+17,+59,+314
161490,4.841,-0.273,1.449,0.396829,-2.611019,-3.778417,99942.52,+5,+66,+306
161500,5.327,-0.775,1.333,0.381398,-2.740322,-4.076398,99940.63,+1,+79,+304
161510,5.822,-1.441,1.127,0.264866,-2.819074,-4.340325,99940.43,+1,+79,+304
161520,6.501,-1.735,1.373,0.192499,-2.860579,-4.608508,99939.59,-12,+81,+297
161530,7.349,-1.579,1.893,0.222297,-2.877074,-4.833591,99937.02,-16,+89,+284
161540,8.122,-1.583,2.485,0.332444,-2.871221,-5.031535,99937.02,-10,+97,+278
161550,8.877,-1.831,3.012,0.517618,-2.867496,-5.224159,99943.02,-10,+97,+278
161560,9.812,-2.298,3.310,0.671930,-2.878670,-5.440196,99939.50,-15,+94,+271
161570,10.932,-2.820,3.406,0.744297,-2.894102,-5.672728,99939.66,-13,+93,+262
161580,12.295,-3.089,3.509,0.767710,-2.895166,-5.907388,99938.92,-11,+91,+267
161590,13.820,-3.603,3.878,0.809746,-2.878670,-6.126085,99938.92,-11,+91,+267
161600,14.901,-4.588,4.292,0.825710,-2.876010,-6.297956,99942.32,-29,+83,+268
161610,15.962,-5.622,4.815,0.759196,-2.903147,-6.438966,99941.79,-42,+84,+270
161620,17.397,-6.286,5.429,0.663416,-2.933478,-6.563479,99940.59,-57,+94,+277
161630,18.816,-6.986,6.047,0.570297,-2.969129,-6.591681,99940.48,-57,+94,+277
161640,20.000,-8.114,6.907,0.462279,-2.986689,-6.494837,99940.48,-84,+106,+272
161650,20.658,-9.173,8.290,0.294664,-2.945716,-6.301149,99942.81,-97,+126,+266
161660,20.186,-9.019,10.300,0.201013,-2.753625,-6.038287,99941.34,-101,+150,+263
161670,18.308,-8.764,12.434,0.260077,-2.376359,-5.705719,99941.67,-101,+150,+263
161680,16.173,-9.915,13.404,0.296793,-1.867662,-5.252893,99940.83,-106,+172,+251
161686,15.112,-11.739,12.625,0.164829,-1.465919,-4.852746,99940.83,-97,+189,+240
161695,14.025,-14.554,10.927,-0.118785,-1.114726,-4.424398,99940.83,-97,+189,+240
161705,11.542,-18.311,8.837,-0.453482,-0.815681,-3.761389,99944.61,-85,+203,+241
161716,8.603,-19.766,8.911,-0.451354,-0.639020,-2.858399,99945.88,-82,+209,+233
161725,5.831,-20.755,10.906,-0.241702,-0.383076,-1.705849,99942.78,-74,+216,+228
161735,4.467,-21.405,11.886,-0.163482,-0.040397,-0.468694,99944.53,-74,+216,+228
161745,5.061,-17.995,11.916,0.054151,0.332080,0.618406,99945.94,-68,+220,+232
161756,6.244,-14.391,11.987,0.563912,0.616759,1.549598,99946.52,-74,+221,+226
161765,7.006,-12.818,12.196,1.126884,0.869511,2.352020,99946.52,-74,+224,+224
161775,11.142,-5.459,7.805,1.581306,1.038190,2.781432,99945.42,-74,+224,+224
161785,17.345,12.729,-3.852,1.375379,0.920593,2.327010,99945.00,-74,+230,+227
161796,23.517,32.733,-14.288,0.330848,0.644960,1.268112,99945.00,-81,+231,+221
161805,10.502,-0.150,-3.687,0.161637,1.154722,0.508791,99951.50,-72,+235,+220
161815,10.154,-19.501,6.219,2.161305,1.371822,1.798093,99948.72,-72,+235,+220
161825,20.392,-10.343,3.575,1.194994,1.033933,3.218294,99945.72,-72,+240,+219
161836,23.465,-1.201,-0.288,-0.659409,1.261144,2.286570,99946.94,-80,+233,+218
161846,16.141,-5.016,3.715,-0.366216,1.472923,2.314240,99945.34,-76,+230,+220
161855,13.385,-3.378,6.911,0.287215,1.577749,2.850606,99948.55,-76,+230,+220
161865,10.830,0.341,8.693,0.657031,1.698538,2.606368,99944.77,-75,+229,+223
161875,10.156,-0.688,9.262,1.043343,1.726740,2.291891,99943.97,-81,+225,+219
161885,10.545,-2.774,7.369,1.214682,1.652244,2.205689,99943.97,-76,+227,+218
161895,9.484,-3.507,5.553,1.093361,1.516024,2.138644,99943.97,-76,+227,+218
161905,9.251,-3.480,4.498,0.841141,1.394703,2.008277,99947.73,-74,+229,+222
161915,9.972,-5.024,2.756,0.442059,1.214318,1.806075,99948.00,-80,+225,+218
161921,10.458,-6.501,2.172,0.059472,1.095657,1.687947,99950.78,-80,+225,+218
161930,11.225,-5.882,2.471,-0.344400,1.020630,1.613983,99946.48,-76,+223,+222
161940,11.213,-3.508,2.659,-0.821702,0.936557,1.468185,99946.48,-75,+219,+226
161950,10.532,-1.984,2.572,-1.128729,0.849823,1.314406,99946.95,-81,+219,+227
161960,10.061,-0.890,2.606,-1.156931,0.773731,1.170204,99948.62,-81,+210,+227
161971,10.002,0.264,2.388,-0.905775,0.718392,1.016424,99946.63,-77,+209,+232
161980,10.308,0.665,2.168,-0.460932,0.717327,0.904149,99943.32,-76,+206,+234
161990,10.353,0.338,2.413,-0.113464,0.740208,0.890314,99943.32,-81,+201,+233
162000,10.065,-0.265,2.678,0.017435,0.739676,0.912131,99949.62,-81,+201,+233
162011,9.924,-0.792,2.831,0.039252,0.730098,0.872222,99947.37,-76,+202,+235
162020,9.620,-1.047,2.920,-0.000657,0.701896,0.808369,99948.15,-74,+201,+237
162030,8.907,-1.092,3.198,-0.075684,0.652410,0.742920,99949.57,-79,+195,+235
162040,8.638,-0.794,3.478,-0.199666,0.590685,0.664699,99949.57,-79,+195,+235
162051,8.828,-0.463,3.773,-0.389097,0.530025,0.599782,99947.55,-73,+198,+238
162060,9.014,-0.228,3.831,-0.563097,0.486392,0.557745,99947.34,-73,+195,+241
162070,9.146,-0.005,3.254,-0.646638,0.469364,0.541782,99944.81,-77,+187,+241
162080,9.168,0.290,2.615,-0.592895,0.482135,0.541782,99943.88,-77,+187,+241
162091,8.943,0.399,2.191,-0.383244,0.517786,0.557745,99943.88,-71,+189,+244
162101,8.882,0.269,2.206,-0.057592,0.567272,0.597654,99950.16,-71,+189,+245
162110,8.877,-0.211,2.813,0.207398,0.614098,0.666296,99946.01,-73,+185,+243
162120,8.930,-1.070,3.384,0.245178,0.638043,0.730149,99945.70,-73,+185,+243
162130,9.110,-1.703,3.624,0.102040,0.650282,0.765268,99944.45,-68,+189,+246
162141,9.144,-1.411,3.663,-0.054932,0.664649,0.788149,99944.45,-68,+186,+247
162150,9.165,-0.994,3.493,-0.192748,0.684337,0.804644,99947.29,-71,+181,+246
162160,9.280,-0.871,3.070,-0.258198,0.707749,0.830186,99945.18,-71,+181,+246
162170,9.699,-0.880,2.740,-0.232124,0.734355,0.880204,99946.80,-65,+184,+249
162181,10.053,-1.281,2.609,-0.174124,0.774263,0.959488,99945.60,-66,+181,+251
162190,10.085,-1.423,2.787,-0.163482,0.828006,1.044626,99945.60,-68,+175,+250
162200,9.797,-1.208,3.291,-0.203923,0.882281,1.122314,99946.31,-68,+175,+250
162210,9.739,-1.178,3.560,-0.251280,0.916869,1.182974,99947.63,-62,+178,+253
162221,9.934,-1.532,3.497,-0.327904,0.930703,1.240442,99945.16,-62,+173,+256
162231,9.917,-1.660,3.630,-0.381647,0.957309,1.294185,99941.64,-64,+167,+255
162240,10.413,-2.049,3.858,-0.459335,0.980190,1.322387,99941.64,-64,+167,+255
162250,10.958,-2.586,3.664,-0.538088,1.007859,1.321323,99948.00,-57,+168,+259
162260,10.587,-2.092,3.851,-0.605666,1.040318,1.366552,99946.22,-57,+162,+261
162271,10.612,-1.334,4.119,-0.651427,1.045639,1.458075,99945.64,-58,+155,+260
162280,11.565,-2.046,3.779,-0.694528,1.030208,1.552259,99946.27,-58,+155,+260
162290,12.725,-3.029,3.199,-0.724858,1.034997,1.658681,99946.27,-51,+156,+263
162300,13.155,-2.969,2.998,-0.757849,1.061602,1.786919,99944.67,-52,+148,+266
162311,13.153,-2.565,2.657,-0.730711,1.069584,1.932717,99945.61,-52,+140,+265
162321,13.255,-2.209,2.742,-0.650363,1.075437,2.105121,99944.61,-52,+140,+265
162330,13.423,-1.949,3.208,-0.622161,1.095657,2.266350,99947.30,-45,+141,+268
162340,13.619,-1.627,3.726,-0.672179,1.116942,2.402570,99947.30,-45,+132,+269
162351,14.266,-1.011,4.026,-0.786051,1.144079,2.522295,99945.86,-43,+124,+267
162361,15.397,-0.576,3.839,-0.982931,1.199419,2.620735,99948.13,-43,+124,+267
162370,16.898,-0.159,3.278,-1.231427,1.236134,2.704276,99944.34,-35,+124,+271
162380,19.208,1.636,2.958,-1.486307,1.191969,2.803781,99947.02,-33,+113,+270
162391,21.606,3.322,2.083,-1.906497,1.207046,2.882001,99947.02,-30,+102,+268
162401,22.615,5.159,0.556,-2.481884,1.332446,2.848478,99946.22,-30,+102,+268
162410,22.982,7.812,-0.953,-3.360930,1.440465,2.764405,99947.63,-20,+97,+271
162420,22.663,10.262,-0.817,-4.023939,1.469731,2.679267,99944.91,-15,+79,+271
162430,20.073,8.255,2.236,-4.034581,1.471327,2.741524,99942.02,-7,+64,+267
162441,18.646,-0.367,7.051,-3.002288,1.338832,3.218294,99942.02,+2,+61,+269
162451,20.485,-6.322,8.327,-1.928490,0.928043,3.826496,99944.58,+2,+61,+269
162460,21.826,-5.238,9.348,-1.198436,0.797676,4.116496,99942.38,+7,+53,+265
162470,22.545,-1.316,9.542,-0.201262,0.998281,3.945156,99943.63,+16,+51,+260
162481,18.676,3.324,7.257,0.825710,1.295731,3.640790,99943.38,+29,+65,+261
162491,13.238,6.482,3.733,1.041214,1.032336,3.321524,99943.38,+29,+65,+261
162500,7.339,3.044,4.282,1.367930,0.584300,2.684056,99944.20,+36,+68,+257
162510,5.262,-4.196,6.062,1.833526,0.238961,2.145561,99942.88,+42,+77,+252
162521,9.769,-1.834,2.014,1.364205,-0.106911,1.492662,99944.77,+48,+90,+253
162531,8.375,1.349,-0.049,0.902866,-0.313901,0.450259,99946.87,+48,+90,+253
162540,6.283,3.515,0.226,0.613398,-0.524617,-0.306933,99946.87,+53,+89,+250
162550,5.120,2.847,-0.037,0.503783,-0.832708,-0.785832,99946.73,+56,+91,+248
162561,3.863,0.836,0.025,0.574554,-1.106745,-1.152455,99944.38,+58,+100,+250
162571,3.109,-1.019,0.514,0.601692,-1.364818,-1.465868,99944.53,+58,+100,+250
162581,2.887,-1.727,1.149,0.626701,-1.612249,-1.807482,99944.27,+59,+96,+248
162590,2.949,-1.498,1.549,0.606481,-1.809130,-2.242216,99944.27,+59,+96,+248
162600,3.234,-0.914,1.599,0.550609,-2.005478,-2.689720,99942.23,+58,+102,+251
162611,3.724,-0.449,1.498,0.551141,-2.175221,-3.094124,99941.70,+58,+102,+251
162621,4.339,-0.470,1.586,0.600095,-2.307184,-3.442123,99940.45,+57,+97,+251
162630,4.832,-0.870,1.929,0.633086,-2.394451,-3.743830,99943.16,+53,+96,+252
162640,4.922,-1.217,2.154,0.652242,-2.417863,-4.009885,99943.16,+51,+100,+256
162651,5.190,-1.382,2.575,0.597435,-2.430102,-4.251462,99940.45,+51,+100,+256
162661,5.906,-1.583,2.991,0.525600,-2.462561,-4.537205,99936.83,+47,+94,+256
162670,6.761,-1.808,3.219,0.488884,-2.514175,-4.817627,99936.78,+40,+92,+260
162680,7.786,-2.231,3.623,0.444187,-2.543973,-5.056012,99939.66,+34,+95,+263
162691,8.770,-2.312,3.942,0.413325,-2.562597,-5.267792,99939.66,+34,+95,+263
162701,9.695,-2.330,4.101,0.387251,-2.579625,-5.466801,99940.24,+25,+89,+262
162711,10.619,-2.626,4.111,0.379802,-2.585478,-5.657296,99940.87,+17,+92,+262
162720,11.624,-2.923,4.208,0.380866,-2.586542,-5.850452,99938.13,+12,+98,+263
162731,12.664,-3.224,4.348,0.405875,-2.581221,-6.038287,99938.77,+12,+98,+263
162741,13.746,-3.762,4.620,0.518682,-2.560469,-6.189406,99938.77,+3,+97,+258
162751,14.928,-4.463,4.870,0.628829,-2.570047,-6.305938,99942.00,+0,+103,+260
162760,16.335,-5.319,5.259,0.608077,-2.607826,-6.395865,99939.80,-1,+108,+259
162770,17.793,-6.442,5.944,0.406939,-2.646671,-6.446947,99939.80,-1,+108,+259
162781,18.891,-7.166,6.737,0.123325,-2.662634,-6.425663,99938.06,-9,+105,+258
162791,19.484,-7.533,8.024,-0.143262,-2.622726,-6.355424,99938.06,-18,+109,+261
162801,19.587,-7.742,9.971,-0.293317,-2.500873,-6.217076,99938.48,-26,+112,+262
162810,18.779,-8.179,11.776,-0.264583,-2.241203,-5.938782,99941.41,-26,+112,+262
162821,17.040,-9.409,12.479,-0.158693,-1.833075,-5.552471,99940.52,-40,+114,+260
162831,15.766,-12.605,11.746,-0.280014,-1.332891,-5.121994,99938.48,-47,+123,+262
162841,13.639,-17.230,10.052,-0.764766,-0.850800,-4.625535,99938.48,-47,+132,+263
162850,10.359,-19.809,9.054,-1.171830,-0.473002,-3.944967,99943.37,-47,+132,+263
162861,7.083,-20.927,9.373,-1.074986,-0.154268,-2.921720,99942.43,-53,+134,+261
162871,4.662,-22.635,9.836,-0.864803,0.112851,-1.614859,99941.32,-51,+138,+265
162881,4.185,-20.848,9.907,-0.555115,0.399658,-0.207428,99942.74,-50,+139,+269
162890,5.713,-16.406,10.153,0.171747,0.689126,1.064846,99942.74,-50,+139,+269
162900,7.011,-14.300,10.034,1.187012,0.937089,2.134919,99944.96,-55,+140,+268
162911,7.601,-14.524,10.091,2.012315,1.164300,3.012900,99944.54,-52,+144,+273
162921,13.736,-1.878,2.501,2.500791,1.143015,3.335358,99946.85,-51,+150,+275
162931,22.227,28.154,-12.377,2.215580,0.832263,2.424919,99944.54,-55,+154,+273
162940,21.779,31.963,-13.907,1.193930,0.807786,1.160094,99944.54,-55,+154,+273
162951,9.451,-10.314,1.384,2.758332,1.380868,1.033984,99949.75,-49,+164,+275
162961,15.568,-19.932,9.429,4.038588,1.405877,3.346001,99947.64,-47,+176,+271
162971,26.019,-7.455,1.559,1.712737,1.222300,3.674845,99946.91,-53,+176,+270
162980,19.450,-6.194,0.793,0.408004,1.486226,2.921909,99949.06,-53,+176,+270
162991,12.582,-4.350,2.534,1.115710,1.626703,3.494991,99949.06,-50,+178,+274
163001,9.063,-2.641,6.545,1.340792,1.783675,3.494459,99946.96,-50,+179,+274
163011,6.398,-2.791,8.405,1.255122,1.884776,2.846350,99947.18,-51,+179,+273
163020,8.265,-2.575,6.328,0.952352,1.741107,2.472809,99946.12,-51,+179,+273
163031,8.144,-3.905,7.475,0.586792,1.613932,2.290827,99945.96,-47,+182,+276
163041,9.062,-3.079,9.282,0.580939,1.593712,2.110974,99945.96,-45,+181,+277
163051,11.800,-4.170,4.783,0.356921,1.451639,1.959855,99949.15,-47,+178,+278
163061,11.910,-6.350,3.087,-0.159758,1.298923,1.913029,99948.01,-47,+178,+278
163070,9.984,-3.234,4.212,-0.439647,1.199419,1.884827,99947.16,-42,+177,+281
163081,9.978,-0.792,3.782,-0.518932,1.048300,1.710295,99945.96,-41,+172,+284
163091,10.316,-3.063,2.424,-0.418895,0.940813,1.512350,99945.96,-42,+167,+284
163101,10.492,-2.737,2.724,-0.175189,0.951456,1.381451,99948.63,-42,+167,+284
163110,10.327,-1.826,3.008,-0.044290,0.950924,1.250020,99947.63,-37,+169,+286
163121,9.969,-2.341,3.242,0.078628,0.928575,1.146259,99946.98,-36,+166,+288
163131,9.676,-3.103,3.649,0.078096,0.878557,1.010571,99945.73,-37,+163,+287
163141,9.662,-2.719,3.848,-0.034712,0.783309,0.856259,99945.73,-37,+163,+287
163150,9.656,-2.063,3.887,-0.136877,0.677419,0.717378,99946.45,-33,+165,+290
163161,9.555,-1.708,3.896,-0.184235,0.590685,0.617342,99947.66,-32,+163,+290
163171,9.386,-1.553,3.930,-0.261390,0.522043,0.549232,99947.08,-34,+158,+291
163181,9.284,-1.303,3.844,-0.377390,0.472557,0.500278,99945.72,-34,+158,+291
163190,9.211,-0.691,3.609,-0.460932,0.441162,0.469415,99945.72,-29,+161,+293
163201,9.180,-0.175,3.180,-0.438583,0.441162,0.450259,99947.05,-29,+157,+293
163211,9.225,-0.853,2.500,-0.332516,0.468477,0.456999,99947.47,-30,+152,+293
163221,9.396,-1.423,2.185,-0.214565,0.500759,0.468883,99947.94,-30,+152,+293
163231,9.362,-0.998,2.562,-0.075684,0.543860,0.474736,99947.25,-25,+154,+295
163240,9.055,-1.213,3.190,-0.034180,0.578979,0.497617,99947.25,-25,+154,+296
163251,8.892,-1.739,3.709,-0.185299,0.619951,0.494957,99945.90,-26,+150,+296
163261,8.631,-1.496,3.807,-0.414638,0.657731,0.464626,99945.99,-26,+150,+296
163271,8.718,-0.582,3.881,-0.521060,0.662520,0.459305,99943.70,-20,+152,+298
163280,8.998,0.008,3.820,-0.466785,0.656135,0.506131,99947.26,-19,+147,+299
163291,9.324,-0.370,3.529,-0.338014,0.666777,0.581158,99947.26,-19,+143,+300
163301,9.691,-1.382,3.119,-0.264051,0.689658,0.670021,99949.24,-19,+143,+300
163311,9.875,-1.779,3.237,-0.274693,0.742869,0.733342,99946.57,-14,+146,+303
163321,9.697,-1.550,3.680,-0.351849,0.795015,0.782296,99946.41,-14,+142,+303
163331,9.617,-1.116,3.899,-0.448693,0.843970,0.809965,99944.74,-14,+138,+303
163341,9.735,-0.829,4.001,-0.457207,0.882281,0.845617,99944.74,-14,+138,+303
163351,9.820,-1.309,4.267,-0.448161,0.914740,0.913727,99949.57,-7,+139,+306
163361,9.828,-1.789,4.300,-0.525317,0.942410,0.976516,99948.57,-7,+134,+306
163371,10.013,-1.839,4.516,-0.643445,0.984979,0.984497,99943.70,-5,+128,+307
163381,10.109,-1.934,4.602,-0.744014,1.013180,1.027066,99943.43,+0,+128,+309
163391,10.471,-1.863,4.275,-0.829684,1.039786,1.071231,99943.43,+0,+130,+309
163401,11.263,-1.806,3.948,-0.872252,1.026483,1.156901,99944.59,+1,+122,+310
163410,11.779,-1.463,3.662,-0.810528,1.038190,1.286204,99946.80,+2,+117,+311
163421,11.949,-1.588,3.445,-0.749335,1.088208,1.447433,99946.02,+8,+118,+313
163431,12.314,-2.311,3.071,-0.714216,1.115345,1.599616,99945.70,+8,+118,+313
163441,12.372,-2.625,2.742,-0.677500,1.125988,1.772020,99945.70,+7,+109,+313
163451,12.117,-1.805,3.002,-0.667922,1.139290,1.954001,99944.84,+9,+104,+313
163461,12.652,-1.079,3.733,-0.626950,1.152593,2.113635,99947.63,+14,+104,+315
163471,13.963,-1.377,3.990,-0.580656,1.193566,2.241873,99945.58,+14,+104,+315
163481,14.281,-1.447,4.069,-0.665794,1.279767,2.362662,99946.53,+14,+97,+314
163491,14.172,-0.611,3.955,-0.850436,1.343089,2.489836,99946.53,+16,+91,+314
163501,15.293,0.515,4.123,-0.982931,1.334575,2.617543,99947.06,+22,+89,+316
163511,17.542,2.173,4.004,-1.094142,1.326593,2.777708,99946.06,+22,+89,+316
163521,19.874,3.554,3.545,-1.394252,1.418116,2.898496,99943.97,+22,+79,+314
163531,21.531,4.175,2.652,-1.992344,1.518685,2.890515,99944.08,+24,+68,+314
163540,23.715,5.227,0.752,-2.871921,1.596905,2.760148,99944.08,+29,+59,+315
163551,24.431,7.656,0.194,-3.748306,1.703327,2.613286,99942.02,+29,+59,+315
163561,21.758,8.213,2.473,-4.092581,1.792721,2.701616,99944.80,+32,+35,+314
163571,19.301,2.007,6.370,-3.508324,1.751217,3.027799,99943.33,+36,+19,+311
163581,20.292,-5.712,6.959,-2.756453,1.516556,3.408790,99941.75,+44,+10,+309
163591,20.489,-6.608,7.155,-2.673444,1.231878,3.522129,99941.75,+44,+10,+309
163601,20.471,-1.980,9.065,-1.934344,1.265933,3.232661,99945.06,+44,-3,+304
163611,18.182,1.653,8.291,-0.742950,1.582006,2.937872,99944.22,+51,-6,+299
163621,13.109,3.430,4.859,-0.313005,1.468666,2.735671,99947.42,+57,-5,+298
163631,8.880,4.092,4.164,0.087141,1.079694,2.207818,99942.11,+57,-5,+298
163641,4.864,-4.207,5.842,0.653306,0.752979,1.665598,99942.11,+58,-6,+294
163651,9.064,-0.694,1.163,0.451104,0.393273,1.086130,99947.16,+60,-1,+291
163661,8.144,3.403,-1.250,0.082885,0.175108,0.072993,99944.91,+59,+1,+290
163671,6.203,5.467,-0.997,0.118004,-0.098397,-0.672492,99945.38,+59,+1,+290
163681,6.059,3.525,-0.857,0.241985,-0.436819,-1.073171,99944.80,+55,+0,+285
163691,5.127,0.633,-0.966,0.470793,-0.705002,-1.383391,99944.80,+51,+3,+281
163701,4.221,-1.134,-0.455,0.668737,-0.922635,-1.671794,99943.06,+45,+9,+281
163712,3.947,-1.540,0.167,0.877856,-1.120048,-1.999574,99942.75,+45,+9,+281
163721,4.257,-1.420,0.429,1.063563,-1.319589,-2.394399,99941.80,+36,+9,+276
163731,4.828,-1.247,0.260,1.221067,-1.522855,-2.787628,99942.53,+31,+18,+272
163741,5.522,-1.177,-0.057,1.326957,-1.703772,-3.119665,99942.53,+24,+28,+271
163751,6.195,-1.545,-0.286,1.330682,-1.852763,-3.392637,99941.58,+24,+28,+271
163761,6.561,-2.142,-0.106,1.220003,-1.998561,-3.640068,99936.80,+14,+32,+263
163771,6.882,-2.490,0.739,1.029508,-2.156065,-3.844931,99937.06,+9,+41,+258
163781,7.221,-2.415,1.663,0.910315,-2.296542,-4.057242,99940.06,+3,+50,+253
163791,7.711,-2.568,2.326,0.874132,-2.427974,-4.296692,99940.06,+3,+50,+253
163801,8.373,-2.847,2.575,0.866150,-2.543973,-4.535077,99938.82,-3,+53,+245
163811,9.040,-3.200,2.574,0.810279,-2.647203,-4.755902,99939.88,-5,+61,+238
163821,9.768,-3.482,2.440,0.693214,-2.735533,-4.967682,99938.88,-10,+67,+233
163831,10.535,-3.779,2.293,0.532517,-2.803111,-5.181058,99938.62,-16,+67,+233
163842,11.260,-4.072,2.349,0.382462,-2.837698,-5.385921,99938.62,-16,+68,+225
163851,11.949,-4.148,2.622,0.262206,-2.853129,-5.552471,99939.37,-18,+72,+220
163861,12.695,-4.235,3.017,0.218040,-2.863239,-5.694012,99939.88,-23,+77,+215
163871,13.497,-4.570,3.453,0.234536,-2.871753,-5.825975,99939.57,-29,+79,+205
163881,14.307,-5.003,3.884,0.236132,-2.889845,-5.945168,99935.52,-29,+79,+205
163891,15.149,-5.211,4.650,0.234004,-2.905276,-6.046268,99935.52,-29,+85,+202
163901,16.134,-5.567,5.722,0.258481,-2.918579,-6.117571,99938.91,-33,+92,+197
163911,17.215,-6.363,6.821,0.268059,-2.935606,-6.122892,99940.80,-36,+96,+187
163921,17.949,-7.338,8.016,0.257949,-2.904744,-6.052654,99940.49,-36,+96,+187
163931,18.446,-8.022,9.053,0.258481,-2.804175,-5.883975,99939.96,-36,+100,+185
163941,18.173,-8.274,9.859,0.337233,-2.595056,-5.596636,99939.96,-35,+109,+182
163951,16.558,-8.602,10.697,0.531985,-2.245460,-5.220966,99939.95,-36,+113,+175
163961,14.618,-9.993,11.108,0.681508,-1.813387,-4.753774,99942.88,-36,+113,+175
163972,13.320,-13.072,10.930,0.558591,-1.378121,-4.230178,99941.05,-33,+118,+176
163981,11.316,-16.309,10.147,0.190903,-1.027460,-3.732655,99943.57,-30,+123,+174
163991,9.361,-18.702,10.089,-0.218822,-0.772580,-3.127115,99943.57,-28,+122,+170
164001,7.168,-19.658,10.749,-0.329501,-0.475131,-2.237427,99946.66,-28,+122,+170
164012,5.260,-20.811,11.379,-0.298638,-0.120745,-1.175868,99943.41,-25,+122,+175
164021,5.006,-19.684,11.556,-0.153904,0.221933,-0.036621,99942.67,-22,+122,+175
164032,5.917,-15.849,11.710,0.343618,0.559291,1.078503,99943.88,-22,+118,+172
164041,6.415,-14.099,11.912,0.897012,0.802465,1.907708,99943.88,-22,+118,+172
164051,9.617,-9.321,9.196,1.449342,0.979658,2.563799,99946.35,-19,+118,+175
164062,15.302,7.058,0.357,1.552572,1.024355,2.415873,99947.30,-16,+120,+174
164071,24.447,34.293,-12.780,0.599031,0.701364,1.559708,99948.09,-16,+116,+172
164081,11.150,3.609,-4.388,0.231343,1.147804,0.718443,99944.04,-16,+116,+172
164091,11.108,-18.886,5.474,2.451837,1.392043,1.832148,99944.04,-11,+118,+175
164102,25.414,-14.300,1.936,1.099746,0.945070,3.468386,99947.80,-9,+120,+175
164111,25.640,-5.264,2.612,-0.750399,1.368630,2.781432,99944.76,-9,+113,+174
164121,15.933,-3.474,5.372,-0.137409,1.660758,2.824001,99946.29,-9,+113,+174
164131,12.518,-0.855,5.020,0.630958,1.703327,3.302900,99944.02,-6,+112,+179
164142,8.183,-2.133,4.884,0.925746,1.739510,2.875616,99944.02,-3,+111,+178
164151,7.458,-4.013,4.974,0.922022,1.605419,2.450460,99947.44,-2,+109,+177
164161,7.388,-3.564,6.576,0.653306,1.450575,2.125341,99946.45,-2,+109,+177
164171,8.280,-2.809,9.220,0.591581,1.408538,1.775745,99945.19,+1,+110,+182
164182,11.883,-3.107,6.351,0.641068,1.340960,1.535763,99945.66,+3,+110,+180
164191,14.049,-6.383,2.302,0.212187,1.181859,1.527781,99945.66,+4,+108,+178
164201,11.291,-5.364,3.758,-0.211904,1.157914,1.560772,99949.33,+4,+108,+178
164211,9.257,-1.022,3.893,-0.409317,1.037657,1.442644,99946.38,+7,+108,+183
164221,9.671,-2.036,3.022,-0.612051,0.864722,1.287268,99946.13,+7,+106,+182
164232,9.957,-2.753,2.903,-0.708895,0.773199,1.150516,99944.23,+8,+102,+182
164241,10.376,-1.576,2.680,-0.782858,0.702428,0.998332,99944.23,+8,+102,+182
164251,10.516,-0.283,2.439,-0.678565,0.666777,0.880736,99947.79,+11,+101,+186
164261,10.027,-0.133,2.266,-0.443904,0.682740,0.795599,99945.16,+11,+100,+185
164267,9.718,-0.798,2.191,-0.302363,0.696575,0.745048,99947.52,+11,+100,+185
164276,9.884,-1.119,2.251,-0.252877,0.696043,0.713654,99947.52,+11,+96,+184
164287,9.988,-0.858,2.613,-0.265115,0.691786,0.679599,99944.52,+14,+98,+188
164296,9.772,-0.440,2.996,-0.287464,0.682208,0.644479,99944.52,+14,+96,+187
164306,9.379,-0.082,3.386,-0.283739,0.662520,0.622663,99947.44,+14,+96,+187
164317,8.900,0.130,3.613,-0.308216,0.630594,0.603507,99946.39,+15,+93,+186
164327,8.566,0.344,3.915,-0.398675,0.590685,0.564131,99946.23,+18,+94,+190
164336,8.673,0.460,3.864,-0.520528,0.533750,0.522094,99946.23,+17,+92,+188
164346,9.086,0.764,3.500,-0.562565,0.493309,0.502406,99946.23,+17,+92,+188
164357,9.180,0.808,3.050,-0.510418,0.500227,0.507195,99945.30,+18,+89,+188
164367,9.106,0.254,2.370,-0.353978,0.535878,0.541782,99948.87,+22,+89,+192
164376,9.028,0.265,2.503,-0.124638,0.580575,0.602443,99944.37,+22,+89,+190
164386,8.964,0.241,2.945,0.098848,0.616227,0.670021,99947.35,+22,+89,+190
164397,9.022,-0.321,3.472,0.201013,0.642300,0.750369,99947.35,+22,+87,+189
164407,9.013,-0.888,3.716,0.145141,0.661988,0.839764,99945.12,+26,+90,+192
164417,8.934,-0.943,3.787,0.015839,0.672630,0.894571,99946.12,+25,+89,+190
164426,9.087,-0.860,3.739,-0.108143,0.675291,0.916387,99946.18,+25,+89,+190
164436,9.480,-0.929,3.541,-0.160822,0.687529,0.941397,99946.18,+27,+87,+189
164447,9.958,-1.405,3.006,-0.194345,0.708282,0.983965,99947.95,+30,+88,+192
164457,10.296,-2.208,2.606,-0.226803,0.749254,1.018553,99946.13,+29,+87,+189
164466,10.335,-2.265,2.791,-0.252877,0.801933,1.041965,99946.13,+29,+87,+189
164476,10.097,-2.019,3.254,-0.311409,0.850887,1.060057,99945.64,+33,+84,+190
164487,9.822,-1.970,3.521,-0.409849,0.887070,1.087727,99945.55,+36,+85,+193
164496,9.745,-1.609,3.723,-0.493922,0.897713,1.130296,99945.55,+36,+82,+191
164506,9.744,-1.478,3.828,-0.567886,0.914208,1.170736,99949.80,+38,+79,+192
164516,9.961,-1.546,3.803,-0.626950,0.932300,1.202130,99947.09,+38,+79,+192
164527,10.042,-1.318,3.778,-0.637060,0.954116,1.225011,99944.40,+41,+79,+195
164537,10.265,-1.483,3.916,-0.612051,0.972740,1.342075,99946.09,+40,+76,+193
164547,10.774,-1.881,3.867,-0.631207,0.980190,1.459139,99945.05,+45,+74,+193
164556,11.868,-2.395,3.473,-0.669519,0.978061,1.573011,99946.78,+45,+74,+193
164567,12.994,-2.757,3.386,-0.703574,0.995621,1.660277,99945.47,+48,+73,+197
164577,13.248,-2.693,3.046,-0.715280,1.015309,1.796497,99944.73,+46,+69,+193
164586,13.194,-2.444,2.907,-0.701445,1.029144,1.940699,99944.73,+50,+67,+195
164596,13.085,-2.218,3.061,-0.670583,1.026483,2.083836,99944.73,+50,+67,+195
164606,13.316,-2.125,3.038,-0.672179,1.029676,2.227506,99949.07,+54,+67,+198
164617,14.001,-1.710,3.263,-0.714216,1.055217,2.380754,99947.76,+54,+63,+196
164627,14.784,-1.269,3.141,-0.802014,1.085015,2.541451,99944.40,+57,+59,+197
164636,15.411,-0.379,2.996,-0.916950,1.131309,2.696827,99944.66,+57,+59,+197
164646,16.272,-0.142,2.482,-1.068069,1.161639,2.836772,99944.66,+60,+59,+201
164657,17.700,0.673,2.418,-1.255372,1.124391,2.937872,99946.59,+61,+53,+198
164667,19.303,3.532,2.271,-1.522491,1.073309,3.007047,99945.91,+66,+47,+200
164677,19.948,5.301,1.360,-2.008839,1.163235,3.008111,99943.28,+66,+47,+200
164686,20.432,6.453,-0.080,-2.663334,1.279767,2.874552,99943.28,+70,+43,+203
164697,21.279,8.016,-0.822,-3.342838,1.269125,2.709597,99943.28,+71,+31,+199
164707,21.771,9.288,0.936,-3.587609,1.277107,2.614350,99945.09,+79,+21,+200
164716,20.543,4.552,6.335,-2.805939,1.306373,2.841028,99944.05,+79,+21,+200
164726,21.412,-3.569,8.942,-1.241005,1.083419,3.564698,99942.31,+84,+17,+202
164737,23.052,-6.592,8.671,-0.503500,0.754575,4.091486,99942.69,+88,+13,+198
164747,23.841,-4.545,10.032,-0.355042,0.753511,4.094679,99942.69,+95,+11,+198
164757,21.400,0.413,8.775,0.359049,1.009456,3.941432,99944.98,+95,+11,+198
164766,15.828,5.645,5.150,0.891159,1.123859,3.670588,99943.55,+103,+14,+201
164776,11.197,7.022,4.719,1.193398,0.719456,3.110276,99943.62,+105,+13,+197
164787,5.395,-0.970,6.974,1.709544,0.368263,2.476533,99945.95,+110,+17,+198
164797,8.338,-1.037,4.067,1.460517,0.109658,1.770424,99946.32,+110,+17,+198
164807,9.276,1.121,0.311,0.766646,-0.064342,0.692369,99943.38,+111,+19,+200
164816,6.917,3.805,-0.381,0.332976,-0.213865,-0.227116,99943.38,+110,+13,+198
164827,5.577,3.481,-0.752,0.030738,-0.500672,-0.784767,99943.05,+112,+10,+199
164837,4.378,1.382,-0.772,-0.026198,-0.798121,-1.186510,99942.48,+112,+10,+199
164846,3.595,-0.449,-0.671,-0.070363,-1.073222,-1.573354,99942.48,+108,+9,+202
164856,3.176,-1.080,0.079,-0.144326,-1.324378,-1.978290,99947.38,+104,+0,+200
164867,3.080,-0.714,1.088,-0.152308,-1.523919,-2.429519,99944.55,+99,-1,+203
164877,3.256,-0.333,1.619,-0.066638,-1.701644,-2.878087,99944.59,+99,-1,+203
164887,3.993,-0.293,1.597,0.138224,-1.888946,-3.264931,99945.75,+92,-5,+205
164897,5.044,-0.493,1.404,0.440462,-2.094341,-3.602821,99941.17,+81,-12,+203
164907,5.423,-1.099,1.447,0.704389,-2.265680,-3.902398,99939.81,+74,-12,+207
164917,5.820,-2.739,1.142,0.602224,-2.399772,-4.171646,99939.17,+74,-12,+207
164927,6.086,-2.575,1.081,0.369692,-2.591331,-4.408967,99937.19,+63,-13,+209
164936,6.572,-1.639,1.631,0.464939,-2.689771,-4.649480,99937.19,+51,-17,+207
164946,7.483,-1.566,2.441,0.724077,-2.748304,-4.855407,99937.19,+41,-15,+210
164957,8.518,-2.036,2.910,0.989067,-2.808964,-5.029939,99936.01,+28,-13,+213
164967,9.527,-2.397,3.206,1.166260,-2.870157,-5.210324,99938.10,+28,-13,+213
164972,10.343,-2.615,3.450,1.239691,-2.917515,-5.341223,99939.30,+13,-13,+212
164981,11.037,-2.894,3.667,1.273214,-2.964872,-5.459884,99937.05,+13,-13,+212
164992,11.843,-3.351,3.884,1.299287,-3.027129,-5.614195,99937.05,+0,-7,+215
165002,12.760,-3.683,4.268,1.310462,-3.100028,-5.764782,99941.00,-18,+0,+216
165012,14.105,-4.072,4.723,1.337067,-3.167074,-5.890893,99940.80,-37,+7,+211
165021,15.230,-4.620,5.465,1.431251,-3.200597,-5.970709,99939.00,-37,+7,+211
165031,16.056,-5.204,6.190,1.525434,-3.247955,-6.002103,99941.58,-49,+23,+211
165042,17.280,-6.026,6.990,1.440829,-3.311276,-6.017535,99941.58,-61,+40,+207
165052,18.611,-6.951,8.041,1.191269,-3.329367,-5.997847,99943.08,-71,+55,+199
165062,18.953,-8.002,9.245,0.840077,-3.262854,-5.907388,99945.03,-71,+55,+199
165071,18.051,-8.428,10.865,0.460682,-3.089918,-5.773829,99941.25,-73,+69,+197
165082,16.339,-7.989,13.023,0.177068,-2.767459,-5.640801,99938.56,-76,+82,+193
165087,15.409,-7.830,14.385,0.009453,-2.438616,-5.520012,99938.56,-76,+82,+193
165097,15.025,-8.786,14.899,-0.231060,-2.037937,-5.353462,99938.56,-80,+91,+188
165107,14.137,-11.942,14.194,-0.830748,-1.463791,-5.106030,99945.36,-77,+97,+192
165116,12.520,-16.403,11.981,-1.818876,-0.936470,-4.821352,99941.69,-76,+102,+193
165127,10.102,-20.029,10.470,-2.775077,-0.541112,-4.324361,99944.47,-76,+102,+193
165137,6.671,-20.850,10.585,-3.199701,-0.212800,-3.412858,99942.61,-77,+100,+194
165147,4.751,-20.313,11.132,-3.275792,0.095823,-2.207629,99948.13,-75,+94,+201
165157,5.073,-18.329,11.249,-2.959719,0.429456,-0.887997,99944.08,-75,+91,+205
165167,5.849,-14.461,11.022,-2.114729,0.735419,0.342241,99944.08,-75,+91,+205
165177,6.824,-12.629,10.403,-0.938766,0.959969,1.458607,99942.61,-77,+83,+205
165187,8.188,-12.942,9.874,0.179196,1.179731,2.431836,99947.34,-73,+77,+212
165196,14.926,-0.020,0.964,0.922022,1.144079,2.735139,99947.34,-72,+77,+215
165207,23.246,32.060,-13.841,1.237031,0.834924,1.936974,99946.76,-72,+77,+215
165217,20.298,26.193,-13.829,0.607013,0.750850,0.950442,99952.79,-73,+77,+215
165227,8.261,-16.546,1.202,3.330883,1.338300,1.424020,99950.52,-69,+81,+222
165237,18.953,-22.371,3.342,3.755506,1.074373,3.770092,99942.55,-72,+89,+222
165246,27.866,-9.715,0.207,0.993856,1.050428,3.500313,99948.26,-72,+89,+222
165257,20.784,-8.537,2.351,-0.098565,1.438868,2.763873,99944.27,-73,+83,+222
165267,15.241,-4.656,4.966,0.539967,1.591052,3.357175,99945.37,-68,+78,+229
165277,10.335,-0.143,7.183,0.894884,1.749088,3.154441,99942.90,-69,+78,+230
165286,7.047,-0.305,9.628,1.152957,1.757070,2.713322,99942.90,-69,+78,+230
165297,6.269,-1.710,11.509,1.190205,1.729932,2.425983,99942.90,-66,+77,+230
165307,7.292,-3.461,8.075,0.992792,1.559125,2.162056,99944.53,-59,+77,+237
165317,10.844,-4.660,4.745,0.708113,1.310630,1.999231,99947.38,-60,+78,+237
165322,12.485,-6.585,4.034,0.367031,1.181859,1.923139,99946.73,-60,+78,+237
