90007,8.347,-4.721,1.975,0.005127,-0.004287,-0.002253,99767.67,-202,+20,-63
90017,8.344,-4.723,2.004,0.005659,-0.005351,-0.002253,99768.38,-201,+20,-63
90028,8.342,-4.708,2.030,0.006723,-0.003223,-0.003317,99768.08,-201,+20,-63
90038,8.356,-4.729,2.029,0.005659,-0.003223,-0.004913,99768.30,-201,+20,-63
90048,8.358,-4.720,2.035,0.004595,-0.003755,-0.004913,99768.30,-202,+20,-63
90057,8.336,-4.723,2.027,0.005659,-0.002159,-0.004913,99768.30,-201,+20,-63
90067,8.334,-4.744,2.059,0.006191,-0.002691,-0.004913,99770.49,-203,+20,-63
90078,8.343,-4.699,2.052,0.007788,-0.003223,-0.006509,99770.27,-203,+20,-63
90088,8.347,-4.714,2.035,0.006723,-0.003223,-0.004913,99768.62,-201,+20,-63
90093,8.360,-4.744,2.029,0.006191,-0.004287,-0.006509,99770.38,-203,+20,-62
90102,8.349,-4.721,2.076,0.007256,-0.003223,-0.007042,99770.38,-203,+20,-62
90113,8.354,-4.718,2.035,0.005127,-0.002159,-0.007574,99772.38,-202,+20,-63
90123,8.358,-4.729,2.051,0.005127,-0.001627,-0.005977,99768.85,-202,+20,-63
90132,8.347,-4.696,2.029,0.003531,-0.001095,-0.007042,99769.26,-203,+20,-63
90142,8.361,-4.733,2.046,0.005127,-0.001095,-0.004381,99765.98,-203,+20,-62
90152,8.371,-4.742,2.027,0.003531,-0.001095,-0.003317,99765.98,-202,+20,-63
90163,8.372,-4.711,2.030,0.002999,0.001034,-0.004381,99769.41,-202,+20,-63
90173,8.343,-4.717,2.041,0.004063,0.000502,-0.003317,99768.27,-203,+20,-62
90182,8.323,-4.720,2.021,0.002467,0.002098,-0.004913,99771.54,-203,+20,-62
90192,8.326,-4.713,2.037,0.005659,0.001034,-0.006509,99766.87,-202,+20,-63
90203,8.355,-4.724,2.055,0.006723,0.002098,-0.005977,99766.87,-201,+20,-62
90213,8.337,-4.699,1.998,0.005127,0.004227,-0.006509,99769.50,-203,+20,-63
90222,8.328,-4.706,2.028,0.007788,0.004759,-0.005977,99769.30,-203,+20,-63
90232,8.347,-4.684,2.011,0.010448,0.002630,-0.006509,99768.16,-202,+20,-63
90243,8.370,-4.714,2.029,0.014173,0.002098,-0.004913,99766.80,-203,+20,-63
90253,8.382,-4.696,2.024,0.015237,0.002098,-0.003317,99766.80,-203,+18,-63
90263,8.359,-4.711,2.065,0.014173,0.004227,-0.002253,99772.42,-203,+18,-63
90272,8.336,-4.713,2.029,0.012045,0.005291,-0.001720,99769.52,-202,+21,-62
90283,8.356,-4.699,2.021,0.010448,0.007419,-0.001720,99765.98,-201,+20,-63
90293,8.330,-4.679,2.003,0.009384,0.010080,-0.000124,99767.33,-203,+20,-62
90303,8.330,-4.712,1.986,0.012045,0.011144,0.000408,99767.33,-203,+20,-62
90312,8.358,-4.693,2.047,0.019494,0.008483,0.002536,99769.40,-202,+20,-62
90322,8.362,-4.699,2.070,0.022687,0.007419,0.004133,99770.54,-203,+20,-62
90333,8.337,-4.727,2.049,0.021090,0.007951,0.005729,99769.91,-202,+19,-62
90343,8.341,-4.742,2.051,0.015237,0.010612,0.003069,99766.43,-202,+19,-62
90352,8.350,-4.708,2.052,0.011512,0.011676,0.000940,99766.43,-201,+20,-62
90362,8.337,-4.699,2.056,0.011512,0.012740,0.000940,99770.95,-203,+20,-62
90373,8.334,-4.719,2.039,0.014173,0.013272,0.000408,99766.73,-203,+19,-62
90383,8.337,-4.725,2.027,0.017366,0.012740,-0.002253,99768.56,-203,+19,-62
90392,8.348,-4.730,2.049,0.020558,0.011144,-0.004913,99767.72,-201,+20,-63
90402,8.370,-4.726,2.033,0.022155,0.012208,-0.005977,99767.72,-202,+20,-62
90413,8.356,-4.749,2.006,0.023219,0.014337,-0.008106,99770.43,-203,+20,-62
90423,8.342,-4.741,2.035,0.021622,0.016465,-0.011831,99768.15,-203,+20,-62
90433,8.319,-4.730,2.004,0.021090,0.018593,-0.015555,99767.88,-201,+20,-62
90442,8.323,-4.690,2.046,0.020558,0.020722,-0.015555,99768.40,-202,+19,-62
90452,8.342,-4.695,2.072,0.022155,0.021254,-0.017684,99768.40,-202,+19,-62
90463,8.344,-4.675,2.065,0.022687,0.021254,-0.015023,99770.98,-202,+19,-62
90473,8.348,-4.690,2.094,0.025879,0.019658,-0.014491,99767.55,-201,+20,-62
90482,8.322,-4.719,2.073,0.026411,0.019126,-0.015555,99770.83,-202,+20,-62
90492,8.355,-4.701,2.083,0.023751,0.020190,-0.017152,99769.20,-203,+20,-61
90503,8.372,-4.687,2.137,0.022687,0.019658,-0.016620,99769.20,-203,+20,-61
90513,8.343,-4.679,2.149,0.022155,0.019658,-0.015555,99768.51,-202,+20,-62
90523,8.350,-4.683,2.088,0.022687,0.020190,-0.014491,99771.32,-203,+19,-62
90532,8.352,-4.691,2.071,0.021622,0.019658,-0.014491,99767.26,-203,+20,-61
90543,8.361,-4.656,2.045,0.023219,0.019126,-0.013427,99767.93,-203,+20,-61
90553,8.383,-4.676,2.078,0.027476,0.019126,-0.011298,99767.93,-202,+20,-62
90563,8.350,-4.717,2.125,0.031733,0.020190,-0.010234,99768.07,-203,+20,-61
90572,8.356,-4.726,2.100,0.030136,0.020190,-0.012895,99769.54,-203,+19,-61
90583,8.347,-4.696,2.162,0.030668,0.021786,-0.015023,99768.45,-203,+19,-61
90593,8.343,-4.700,2.077,0.026944,0.022850,-0.016087,99766.37,-203,+20,-61
90603,8.342,-4.671,2.114,0.025347,0.023382,-0.014491,99766.37,-202,+20,-60
90612,8.354,-4.651,2.102,0.024815,0.025511,-0.015023,99770.25,-203,+21,-61
90622,8.366,-4.676,2.104,0.025347,0.023382,-0.012895,99767.70,-203,+21,-61
90633,8.352,-4.632,2.130,0.029072,0.022850,-0.010766,99766.61,-202,+20,-60
90643,8.338,-4.638,2.155,0.032797,0.023382,-0.007574,99767.55,-203,+20,-60
90652,8.386,-4.641,2.162,0.037054,0.021254,-0.004913,99767.55,-203,+20,-61
90662,8.392,-4.684,2.112,0.041311,0.021254,-0.004913,99770.08,-203,+20,-61
90673,8.347,-4.670,2.126,0.043439,0.020190,-0.004381,99769.92,-203,+20,-61
90683,8.341,-4.664,2.133,0.042907,0.022318,-0.005445,99768.38,-203,+20,-60
90693,8.324,-4.683,2.157,0.045035,0.022850,-0.007042,99769.83,-203,+20,-61
90702,8.323,-4.648,2.161,0.050889,0.021254,-0.005977,99769.83,-203,+19,-60
90713,8.337,-4.662,2.143,0.054613,0.020722,-0.005977,99769.60,-203,+19,-60
90723,8.350,-4.667,2.122,0.059934,0.018593,-0.007574,99770.70,-203,+20,-60
90733,8.344,-4.671,2.153,0.059934,0.019126,-0.007574,99767.48,-204,+19,-60
90742,8.344,-4.672,2.143,0.060999,0.018593,-0.010234,99767.99,-203,+20,-61
90753,8.355,-4.648,2.195,0.065788,0.017529,-0.009170,99767.99,-203,+20,-61
90763,8.342,-4.639,2.192,0.068448,0.018061,-0.009170,99771.47,-203,+19,-60
90773,8.353,-4.642,2.209,0.071641,0.016997,-0.009170,99767.92,-203,+20,-60
90783,8.330,-4.671,2.157,0.072173,0.015933,-0.009702,99768.30,-202,+19,-60
90792,8.341,-4.673,2.165,0.072173,0.017529,-0.011831,99770.63,-202,+19,-60
90803,8.354,-4.673,2.194,0.073947,0.019126,-0.015733,99770.63,-203,+18,-60
90813,8.355,-4.639,2.223,0.075898,0.019658,-0.017152,99769.55,-204,+19,-60
90823,8.330,-4.615,2.191,0.080687,0.020722,-0.018216,99768.30,-203,+19,-60
90832,8.325,-4.654,2.165,0.079090,0.022850,-0.019280,99770.23,-203,+19,-60
90843,8.356,-4.679,2.163,0.078558,0.026043,-0.022473,99766.28,-203,+19,-59
90853,8.324,-4.623,2.203,0.077494,0.027639,-0.027262,99766.28,-204,+19,-60
90863,8.298,-4.642,2.243,0.075366,0.029768,-0.027262,99769.41,-203,+19,-60
90872,8.306,-4.590,2.276,0.055145,0.036685,-0.025665,99768.73,-203,+19,-60
90883,8.306,-4.416,2.060,0.027476,0.052649,-0.018748,99769.10,-203,+19,-59
90893,8.347,-4.419,2.005,0.007788,0.065951,0.000940,99768.05,-204,+19,-59
90903,8.353,-4.447,2.094,0.008852,0.065419,0.023289,99768.05,-203,+19,-59
90913,8.293,-4.295,2.120,0.016301,0.062759,0.046169,99769.62,-203,+19,-59
90923,8.068,-4.385,1.964,0.027476,0.058502,0.068518,99771.01,-204,+18,-58
90933,7.946,-4.549,2.094,0.047164,0.059566,0.074371,99768.26,-203,+18,-57
90943,7.884,-4.493,2.234,0.074833,0.053181,0.069050,99768.10,-203,+18,-58
90953,7.758,-4.441,2.326,0.114210,0.043071,0.060536,99768.10,-203,+18,-58
90962,7.846,-4.609,2.368,0.162632,0.032960,0.045105,99770.75,-204,+17,-58
90973,7.976,-4.756,1.936,0.208925,0.042006,0.017435,99768.36,-203,+17,-58
90983,8.147,-4.821,1.523,0.237659,0.068612,-0.015023,99766.55,-204,+17,-58
90993,8.392,-4.805,1.748,0.284485,0.091493,-0.044821,99767.27,-204,+17,-58
91002,8.711,-4.869,2.325,0.348870,0.085639,-0.076216,99767.27,-204,+17,-57
91013,8.822,-5.048,2.777,0.397824,0.062226,-0.106014,99769.71,-204,+16,-57
91023,8.587,-5.321,2.916,0.396228,0.047327,-0.156032,99767.37,-204,+16,-56
91033,8.433,-5.352,2.854,0.332907,0.069144,-0.225207,99768.52,-204,+16,-56
91038,8.429,-5.204,2.805,0.276503,0.091493,-0.275757,99768.88,-204,+18,-55
91047,8.471,-4.943,2.651,0.234466,0.104795,-0.313537,99768.88,-204,+18,-56
91058,8.559,-4.684,2.626,0.192430,0.111181,-0.335353,99768.88,-204,+18,-56
91068,8.599,-4.470,2.726,0.166888,0.105327,-0.334821,99768.77,-204,+18,-55
91078,8.528,-4.372,2.780,0.145604,0.095749,-0.322051,99767.84,-204,+20,-55
91088,8.458,-4.402,2.894,0.113145,0.087236,-0.307684,99768.96,-205,+20,-54
91098,8.463,-4.402,2.874,0.064723,0.084043,-0.296509,99768.96,-205,+20,-54
91108,8.506,-4.375,2.751,0.009384,0.088300,-0.284271,99771.88,-205,+22,-54
91118,8.517,-4.313,2.772,-0.028928,0.081915,-0.271500,99771.88,-206,+23,-54
91128,8.476,-4.290,2.836,-0.047552,0.068080,-0.260326,99767.72,-206,+23,-54
91138,8.373,-4.341,2.872,-0.076286,0.057970,-0.252344,99769.28,-206,+23,-54
91148,8.372,-4.305,2.801,-0.122579,0.055309,-0.244363,99767.50,-206,+24,-54
91158,8.445,-4.178,2.745,-0.158231,0.052649,-0.232656,99767.50,-206,+25,-53
91168,8.469,-4.076,2.689,-0.169937,0.040942,-0.215629,99769.48,-206,+26,-54
91179,8.501,-4.017,2.594,-0.167809,0.030832,-0.197537,99768.19,-206,+26,-54
91188,8.520,-4.085,2.532,-0.158763,0.021254,-0.178913,99767.61,-205,+28,-54
91198,8.531,-4.116,2.432,-0.151313,0.015401,-0.162950,99767.79,-206,+28,-54
91208,8.550,-4.057,2.407,-0.145992,0.012208,-0.146454,99771.70,-206,+28,-54
91218,8.529,-4.021,2.362,-0.127368,0.012208,-0.133684,99768.26,-206,+28,-54
91228,8.561,-3.923,2.448,-0.097038,0.006355,-0.115060,99768.21,-206,+29,-54
91238,8.630,-3.810,2.469,-0.049148,-0.011737,-0.097500,99768.21,-206,+29,-54
91248,8.634,-3.815,2.364,-0.001790,-0.026104,-0.071427,99768.99,-206,+30,-55
91258,8.556,-3.916,2.361,0.037586,-0.033021,-0.045886,99768.99,-206,+30,-55
91268,8.585,-3.970,2.462,0.057806,-0.029296,-0.028326,99769.71,-205,+30,-55
91278,8.502,-4.017,2.529,0.073769,-0.030361,-0.017152,99769.13,-206,+30,-54
91288,8.524,-4.037,2.645,0.093989,-0.042067,-0.009170,99770.13,-206,+30,-55
91298,8.609,-4.034,2.770,0.101971,-0.054838,-0.001720,99766.54,-206,+30,-55
91309,8.604,-4.122,2.624,0.081751,-0.054838,0.006261,99766.54,-206,+30,-55
91318,8.547,-4.107,2.604,0.050889,-0.044728,0.010518,99769.10,-206,+29,-54
91328,8.650,-4.019,2.672,0.031200,-0.044195,0.016903,99769.04,-206,+29,-55
91338,8.741,-4.011,2.624,0.019494,-0.052709,0.035527,99768.48,-206,+29,-55
91348,8.671,-4.058,2.618,0.000870,-0.056434,0.058408,99768.48,-206,+29,-55
91358,8.563,-4.100,2.629,-0.019882,-0.060691,0.075968,99768.48,-206,+30,-55
91368,8.522,-4.035,2.583,-0.039038,-0.060159,0.088206,99769.71,-205,+29,-55
91378,8.577,-4.035,2.566,-0.050212,-0.067076,0.103637,99770.65,-205,+29,-55
91388,8.664,-4.052,2.628,-0.048084,-0.084104,0.123325,99766.90,-206,+29,-55
91394,8.676,-4.023,2.687,-0.038506,-0.102195,0.140353,99767.27,-204,+29,-55
91403,8.681,-4.037,2.756,-0.027332,-0.124012,0.160041,99767.27,-204,+29,-55
91413,8.702,-4.057,2.734,-0.017222,-0.152214,0.186646,99769.55,-205,+27,-56
91423,8.730,-4.055,2.813,-0.009772,-0.182012,0.213252,99768.50,-205,+27,-57
91433,8.785,-4.135,2.909,0.002999,-0.224049,0.239857,99768.34,-205,+26,-57
91443,8.881,-4.089,2.942,0.016301,-0.271938,0.268059,99769.59,-205,+26,-57
91453,8.975,-4.195,3.134,-0.000194,-0.319296,0.309032,99769.59,-204,+24,-58
91463,9.466,-4.446,4.163,0.002467,-0.419333,0.342555,99768.56,-204,+24,-60
91473,10.199,-4.260,4.569,-0.012433,-0.571516,0.387784,99768.77,-203,+22,-61
91483,10.329,-4.193,3.051,-0.138543,-0.680599,0.488885,99768.30,-203,+22,-61
91493,9.661,-4.864,1.576,-0.416304,-0.666232,0.643729,99768.52,-202,+22,-64
91503,9.176,-5.137,1.667,-0.737166,-0.580030,0.810279,99768.52,-202,+19,-65
91513,9.415,-4.411,2.247,-0.981937,-0.517241,0.988004,99771.24,-200,+17,-66
91523,10.200,-3.664,2.436,-1.137313,-0.501278,1.225325,99770.10,-200,+17,-66
91533,10.986,-3.412,2.179,-1.207019,-0.522030,1.494040,99768.91,-199,+15,-69
91543,11.514,-4.162,1.635,-1.205955,-0.533736,1.706352,99768.60,-197,+12,-70
91553,11.577,-6.128,1.406,-1.158597,-0.503938,1.802132,99768.60,-196,+7,-73
91564,12.429,-8.967,1.223,-1.095276,-0.449131,1.774462,99771.70,-196,+7,-73
91573,12.389,-10.288,1.721,-1.127203,-0.396452,1.662187,99769.30,-194,+3,-74
91583,11.968,-10.776,4.003,-1.150615,-0.199039,1.505746,99766.40,-193,+0,-74
91593,10.862,-9.257,5.405,-1.128799,-0.064948,1.492976,99768.84,-192,-1,-76
91603,11.093,-6.244,4.107,-0.823900,-0.210746,1.492444,99768.84,-192,-1,-76
91613,9.603,-6.311,1.579,-0.482285,-0.387406,1.488187,99770.37,-190,-6,-77
91623,7.761,-8.410,0.456,-0.364157,-0.444874,1.614297,99768.49,-189,-10,-79
91633,7.198,-8.534,0.268,-0.483350,-0.392195,1.706352,99768.91,-187,-16,-80
91643,6.986,-7.402,1.004,-0.678634,-0.238416,1.662187,99769.48,-187,-16,-80
91653,6.921,-6.493,1.350,-0.680230,-0.151150,1.566407,99769.48,-186,-19,-81
91663,6.471,-6.279,0.875,-0.551992,-0.141572,1.471691,99768.99,-185,-23,-82
91673,5.728,-6.343,0.286,-0.474304,-0.119223,1.399857,99771.27,-183,-26,-82
91683,4.882,-5.939,-0.050,-0.489203,-0.054306,1.322169,99767.16,-182,-26,-84
91694,4.225,-5.218,-0.019,-0.520065,0.020722,1.231178,99766.07,-182,-30,-84
91703,3.750,-4.628,-0.117,-0.528579,0.073933,1.124224,99766.07,-180,-33,-84
91713,3.358,-4.167,-0.448,-0.506763,0.104795,1.010884,99770.07,-180,-34,-84
91723,3.075,-3.877,-0.863,-0.477496,0.125015,0.900738,99770.70,-179,-37,-85
91734,2.740,-3.432,-1.216,-0.448763,0.125548,0.783141,99768.88,-179,-37,-85
91743,2.482,-2.902,-1.404,-0.405130,0.114905,0.649582,99767.10,-179,-37,-84
91749,2.384,-2.467,-1.488,-0.358836,0.096814,0.539435,99767.10,-179,-37,-84
91758,2.277,-2.173,-1.517,-0.297111,0.068080,0.428756,99767.10,-178,-39,-84
91768,2.268,-2.063,-1.538,-0.196543,0.026043,0.283490,99771.45,-178,-39,-84
91779,2.179,-2.108,-1.526,-0.082671,-0.015462,0.137160,99768.95,-178,-40,-85
91789,2.050,-2.334,-1.502,0.046100,-0.051113,-0.009170,99768.02,-178,-40,-85
91798,2.067,-2.650,-1.388,0.158907,-0.070801,-0.162418,99769.20,-178,-39,-84
91808,2.354,-2.932,-1.095,0.260540,-0.075058,-0.336417,99770.03,-178,-39,-85
91819,2.771,-3.181,-0.821,0.366430,-0.072929,-0.518931,99771.17,-178,-39,-84
91828,3.247,-3.506,-0.560,0.480301,-0.070801,-0.690803,99771.17,-178,-39,-84
91838,3.822,-3.850,-0.236,0.602154,-0.078250,-0.846179,99768.42,-179,-37,-84
91848,4.498,-4.306,0.059,0.722943,-0.101131,-0.995701,99767.95,-179,-35,-84
91858,5.112,-4.922,0.345,0.840539,-0.128801,-1.140967,99767.95,-181,-33,-83
91869,5.590,-5.532,0.571,0.926209,-0.153810,-1.271866,99770.62,-181,-33,-83
91878,5.969,-6.021,0.755,0.972503,-0.163388,-1.381481,99769.99,-182,-31,-81
91888,6.321,-6.494,0.879,0.970374,-0.141572,-1.469279,99770.84,-183,-28,-81
91898,6.570,-6.853,0.924,0.911842,-0.095278,-1.534729,99769.79,-184,-25,-80
91909,6.806,-7.145,0.948,0.802760,-0.023975,-1.590600,99769.95,-185,-25,-80
91919,7.102,-7.234,1.009,0.653769,0.074997,-1.627316,99768.23,-185,-20,-80
91928,7.581,-6.876,0.972,0.481365,0.200043,-1.654453,99767.31,-187,-16,-79
91938,8.116,-6.099,0.936,0.298852,0.342648,-1.685848,99765.80,-189,-11,-77
91949,8.307,-5.637,0.953,0.144540,0.477272,-1.727885,99765.80,-190,-11,-76
91958,5.331,-9.249,5.205,0.135494,0.642226,-1.723628,99765.80,-190,-6,-76
91968,5.112,-20.578,12.318,1.239090,0.800795,-1.107977,99770.71,-193,-3,-74
91978,14.931,-17.739,2.280,1.779181,-0.107517,-0.538087,99769.68,-193,-3,-72
91988,23.029,-8.390,-0.733,1.643493,-0.572580,-0.393353,99768.16,-192,-5,-73
91999,28.701,3.251,1.945,0.770833,-0.180416,-0.311940,99768.63,-192,-5,-73
92008,14.124,-4.656,1.659,-0.027332,0.302208,0.193032,99768.63,-193,-4,-73
92018,4.305,-8.113,-1.319,0.044503,0.235694,0.591050,99770.52,-193,-7,-71
92028,3.270,-6.874,-0.441,0.454760,0.194190,0.216977,99770.05,-192,-7,-71
92039,5.018,-5.333,3.230,0.364833,0.332538,-0.067702,99767.15,-192,-7,-71
92048,7.808,-4.628,3.754,0.272778,0.330410,-0.095372,99767.15,-194,-8,-69
92058,9.018,-5.598,3.096,0.376540,0.152153,0.023821,99772.17,-194,-8,-68
92068,8.719,-6.907,3.618,0.376540,0.050520,0.077564,99772.17,-194,-9,-68
92079,8.398,-6.528,3.048,0.101439,0.119162,0.036591,99770.67,-194,-9,-68
92088,8.074,-6.006,1.638,-0.084799,0.173970,-0.004913,99770.61,-194,-9,-68
92098,7.741,-5.827,1.272,-0.069368,0.176630,-0.020876,99766.61,-194,-9,-66
92108,7.878,-5.482,1.514,0.008852,0.160135,-0.019812,99766.61,-194,-9,-66
92119,8.212,-5.233,1.829,0.078026,0.125015,0.004665,99771.61,-194,-9,-66
92129,8.167,-5.489,2.203,0.139219,0.067015,0.051491,99766.16,-194,-9,-66
92138,7.929,-5.898,2.501,0.134962,0.024447,0.069050,99768.08,-196,-10,-65
92148,7.779,-5.893,2.661,0.048228,0.016997,0.049894,99769.22,-194,-10,-66
92158,7.661,-5.614,2.495,-0.032653,-0.004287,0.032335,99770.67,-194,-10,-66
92169,7.646,-5.267,2.284,-0.044891,-0.029296,0.032867,99771.55,-194,-9,-66
92178,7.633,-5.276,2.024,-0.011368,-0.051645,0.052555,99771.55,-195,-11,-66
92188,7.588,-5.607,1.701,0.039714,-0.069205,0.070114,99770.20,-194,-10,-66
92198,7.500,-5.796,1.670,0.061531,-0.061755,0.063197,99769.22,-194,-10,-66
92209,7.413,-5.652,2.017,0.068448,-0.044728,0.040848,99769.22,-194,-11,-67
92218,7.369,-5.422,2.508,0.076430,-0.029828,0.025949,99770.65,-194,-11,-67
92228,7.473,-5.218,2.809,0.104632,-0.028764,0.031802,99769.35,-194,-11,-66
92238,7.639,-5.179,2.799,0.142411,-0.050049,0.055747,99767.16,-194,-11,-66
92249,7.674,-5.260,2.258,0.163164,-0.072397,0.085546,99767.38,-194,-10,-66
92259,7.836,-5.213,1.840,0.171145,-0.072929,0.121197,99767.38,-194,-13,-66
92268,8.021,-5.324,1.605,0.144540,-0.061223,0.158445,99769.45,-193,-13,-66
92278,8.045,-5.449,1.624,0.118466,-0.061755,0.199417,99769.02,-193,-13,-66
92289,8.105,-5.472,1.472,0.123255,-0.067076,0.240922,99769.34,-194,-13,-66
92299,8.093,-5.598,1.508,0.134430,-0.082507,0.285619,99769.34,-193,-15,-66
92308,7.966,-5.725,1.551,0.132301,-0.099003,0.317013,99769.34,-192,-15,-66
92318,7.796,-5.814,1.519,0.126980,-0.114434,0.337766,99771.75,-192,-15,-66
92328,7.705,-5.873,1.776,0.118466,-0.116562,0.346811,99768.58,-192,-16,-66
92339,7.781,-5.861,1.876,0.088136,-0.102550,0.356035,99768.31,-191,-18,-67
92348,7.888,-5.720,2.010,0.040778,-0.087296,0.376077,99768.31,-191,-19,-68
92358,7.904,-5.587,2.140,-0.006579,-0.072929,0.411197,99768.31,-191,-19,-68
92368,7.842,-5.586,2.073,-0.032121,-0.078783,0.452701,99769.08,-190,-20,-67
92379,7.779,-5.613,1.999,-0.030524,-0.105388,0.495270,99769.91,-191,-22,-68
92389,7.705,-5.787,1.951,-0.017754,-0.126672,0.529857,99765.64,-190,-24,-68
92398,7.626,-6.006,1.982,-0.020946,-0.132526,0.551674,99765.64,-190,-24,-68
92408,7.517,-6.157,1.930,-0.042763,-0.131461,0.560719,99771.09,-188,-25,-68
92419,7.465,-6.276,1.991,-0.077350,-0.123480,0.560187,99771.09,-188,-27,-68
92429,7.468,-6.154,2.217,-0.121515,-0.113370,0.560187,99768.44,-188,-28,-69
92438,7.548,-5.940,2.297,-0.169937,-0.100067,0.575086,99770.00,-187,-28,-69
92448,7.759,-5.859,1.858,-0.193350,-0.100599,0.609674,99766.72,-187,-30,-69
92459,7.842,-5.796,1.707,-0.198139,-0.109645,0.671930,99766.72,-185,-32,-69
92469,7.657,-6.246,1.503,-0.185900,-0.119223,0.724609,99770.48,-185,-33,-71
92479,7.530,-6.464,1.385,-0.191754,-0.106984,0.747490,99770.01,-184,-35,-71
92488,7.447,-6.645,1.628,-0.231662,-0.066544,0.751215,99767.73,-184,-35,-71
92498,7.401,-6.679,1.688,-0.283808,-0.027168,0.746426,99766.39,-184,-37,-70
92509,7.578,-6.391,2.010,-0.337019,-0.001627,0.755472,99770.03,-183,-39,-71
92519,7.669,-6.437,2.089,-0.358304,-0.005351,0.783141,99769.72,-182,-41,-71
92528,7.797,-6.697,1.705,-0.352983,-0.017590,0.815600,99769.36,-182,-41,-71
92538,7.839,-7.025,1.646,-0.374799,-0.030361,0.852316,99769.36,-181,-43,-71
92549,7.895,-6.968,1.548,-0.405130,-0.023443,0.876261,99768.63,-179,-45,-73
92559,8.110,-7.022,1.582,-0.420561,-0.020251,0.906059,99768.63,-179,-47,-73
92568,8.197,-6.980,1.559,-0.410983,-0.039406,0.931068,99771.74,-179,-47,-73
92578,8.293,-7.032,1.414,-0.381717,-0.066544,0.956077,99769.29,-178,-50,-72
92589,8.723,-7.174,1.597,-0.378524,-0.090489,0.977361,99767.05,-176,-51,-74
92599,8.900,-7.581,1.723,-0.387038,-0.088361,0.996517,99767.59,-175,-54,-74
92609,9.261,-7.655,1.772,-0.423753,-0.061755,1.021527,99767.59,-175,-54,-74
92618,9.625,-7.462,1.761,-0.466854,-0.041535,1.055050,99768.35,-172,-56,-74
92628,10.056,-7.135,1.612,-0.509955,-0.034617,1.123692,99766.59,-171,-58,-76
92639,10.454,-6.693,1.734,-0.535496,-0.050049,1.231710,99767.30,-171,-62,-76
92649,10.565,-6.542,2.049,-0.538689,-0.113370,1.368462,99767.30,-171,-62,-76
92658,10.360,-7.075,1.707,-0.521129,-0.180416,1.520645,99767.30,-168,-65,-77
92668,10.582,-7.736,1.496,-0.515808,-0.247993,1.662719,99768.51,-163,-69,-78
92679,11.256,-8.381,1.648,-0.579662,-0.294287,1.781911,99769.60,-162,-73,-79
92689,12.437,-8.156,2.016,-0.714285,-0.316636,1.883544,99768.93,-162,-73,-79
92694,13.261,-7.773,2.084,-0.847313,-0.291626,1.954847,99766.90,-158,-77,-81
92703,13.924,-7.519,1.815,-1.004817,-0.238948,2.025618,99766.90,-154,-77,-84
92713,14.763,-7.041,1.567,-1.238945,-0.164984,2.121930,99771.09,-154,-80,-84
92724,15.277,-6.351,1.736,-1.431037,-0.086764,2.205471,99769.88,-150,-84,-85
92734,15.911,-6.062,1.819,-1.515110,-0.041003,2.275177,99769.05,-146,-88,-87
92743,16.565,-5.505,2.382,-1.506597,-0.041535,2.365636,99768.43,-141,-91,-91
92753,17.286,-6.194,3.594,-1.475734,-0.009608,2.559856,99768.43,-141,-91,-91
92764,16.851,-9.027,3.522,-1.385808,-0.125608,2.994057,99768.27,-135,-95,-92
92774,16.103,-10.666,3.158,-1.146891,-0.407626,3.499562,99767.45,-128,-101,-95
92783,15.379,-11.417,3.492,-0.893606,-0.659846,3.679415,99767.02,-119,-107,-98
92793,13.664,-11.817,3.888,-0.733973,-0.818415,3.753378,99766.09,-119,-107,-98
92804,13.071,-10.253,4.017,-0.597221,-0.908342,3.693250,99766.09,-110,-114,-100
92814,13.208,-6.932,3.851,-0.531772,-0.918984,3.397929,99767.44,-100,-120,-103
92823,10.466,-5.786,2.575,-0.635001,-0.840232,3.074938,99767.23,-91,-124,-106
92833,3.768,-8.004,2.995,-0.656285,-0.705608,3.028645,99766.19,-91,-124,-106
92844,5.415,-7.044,4.167,-0.389698,-0.668360,2.705122,99765.92,-83,-129,-107
92854,7.728,-2.893,3.189,-0.120983,-0.696562,1.930902,99765.92,-76,-132,-108
92864,7.706,-0.453,2.625,-0.136414,-0.509259,1.378040,99766.77,-71,-133,-109
92873,6.678,0.608,2.266,-0.250286,-0.313443,0.997582,99766.34,-71,-133,-109
92883,5.201,0.852,1.749,-0.348726,-0.165516,0.633086,99766.97,-69,-135,-109
92894,4.052,0.970,1.436,-0.370542,-0.032489,0.232408,99764.11,-69,-135,-111
92904,3.494,1.040,1.215,-0.329570,0.068080,-0.210308,99764.11,-69,-133,-111
92913,3.264,1.341,0.998,-0.235387,0.135126,-0.688142,99769.06,-69,-133,-111
92923,3.113,1.476,0.663,-0.105020,0.188869,-1.167573,99766.36,-71,-134,-111
92934,3.060,1.223,0.147,0.028008,0.240483,-1.627316,99768.08,-74,-131,-111
92944,3.221,0.873,-0.317,0.098246,0.294758,-2.075884,99764.95,-80,-129,-109
92953,3.661,0.601,-0.609,0.137622,0.363401,-2.510618,99764.95,-80,-129,-109
92963,4.263,0.327,-0.613,0.191898,0.438960,-2.907040,99767.91,-87,-126,-108
92974,4.872,0.062,-0.499,0.281824,0.511859,-3.255039,99763.02,-95,-122,-106
92984,5.491,-0.201,-0.499,0.423365,0.561345,-3.570049,99760.69,-106,-116,-103
92994,6.010,-0.688,-0.511,0.619714,0.577309,-3.858984,99762.34,-106,-116,-103
93003,6.320,-1.454,-0.431,0.828833,0.580501,-4.137277,99762.34,-115,-111,-100
93014,6.597,-2.233,-0.304,1.015604,0.577309,-4.412910,99762.55,-125,-105,-97
93024,6.946,-2.817,-0.293,1.184282,0.574648,-4.675240,99761.25,-135,-96,-92
93034,7.460,-3.430,-0.205,1.341787,0.581566,-4.915754,99760.98,-135,-96,-92
93043,8.241,-3.895,-0.030,1.459915,0.595933,-5.132854,99758.13,-146,-88,-88
93049,8.961,-4.249,0.047,1.526961,0.605511,-5.293552,99758.13,-155,-76,-84
93059,9.610,-4.699,0.084,1.572722,0.606043,-5.455313,99758.13,-155,-76,-84
93069,10.490,-5.573,0.251,1.603053,0.612428,-5.654322,99764.92,-165,-65,-79
93079,11.155,-6.624,0.377,1.555163,0.626263,-5.837900,99763.72,-174,-52,-75
93089,11.866,-7.470,0.486,1.426392,0.645951,-6.016157,99761.41,-181,-37,-72
93099,12.661,-8.492,0.566,1.292833,0.671492,-6.191753,99761.41,-181,-37,-72
93109,13.462,-9.631,0.591,1.209824,0.712465,-6.328505,99762.80,-187,-22,-69
93119,13.915,-10.649,0.914,1.150227,0.763547,-6.418432,99764.30,-192,-5,-66
93128,14.210,-11.564,1.191,1.086906,0.805052,-6.460468,99764.30,-197,+13,-65
93138,14.699,-12.361,1.416,1.016668,0.821547,-6.467918,99763.73,-197,+13,-65
93149,15.273,-13.440,1.634,0.960796,0.797070,-6.436523,99765.44,-201,+32,-62
93159,15.716,-15.183,1.963,0.958136,0.755033,-6.287533,99765.44,-202,+50,-59
93169,15.219,-16.914,2.095,0.934723,0.728960,-5.986891,99765.97,-201,+67,-58
93178,14.029,-18.428,2.480,0.788925,0.781639,-5.537258,99766.64,-201,+67,-58
93189,12.259,-19.480,2.417,0.614393,0.851345,-4.954598,99767.58,-201,+82,-57
93199,10.018,-20.406,1.766,0.543622,0.917327,-4.263387,99765.81,-200,+96,-54
93209,7.462,-21.460,0.682,0.567567,0.917859,-3.519498,99767.84,-197,+107,-51
93219,5.018,-21.938,-0.309,0.631420,0.789088,-2.761242,99767.62,-197,+107,-51
93229,2.992,-22.194,-1.366,0.552668,0.597529,-2.015756,99769.13,-196,+113,-50
93239,1.151,-22.817,-1.262,0.260008,0.415015,-1.211206,99767.93,-197,+116,-48
93249,0.239,-22.357,-0.363,-0.177919,0.289437,-0.331096,99767.93,-197,+117,-47
93258,1.038,-20.491,0.636,-0.494524,0.195254,0.499527,99767.93,-197,+117,-47
93268,4.815,-18.147,1.884,-0.526451,0.038814,1.232774,99771.60,-199,+115,-46
93279,7.068,-15.508,2.413,-0.402469,-0.087296,1.688260,99769.16,-202,+109,-45
93289,11.416,-5.598,3.531,-0.350854,-0.258104,2.001673,99770.05,-205,+102,-46
93299,19.012,11.933,0.366,-0.357240,-0.514580,1.390279,99767.49,-205,+102,-46
93308,14.772,7.782,-3.025,-1.246395,0.104795,1.058242,99767.49,-206,+99,-46
93319,10.055,-6.237,-2.221,-1.245331,0.228777,1.647288,99772.80,-209,+94,-43
93329,12.992,-8.420,5.195,-0.250286,-0.296415,2.266131,99770.48,-212,+86,-44
93339,15.088,-7.269,2.013,0.234466,-0.573645,2.384260,99768.64,-212,+86,-44
93348,14.254,-8.039,-0.606,-0.024671,-0.375700,2.664149,99768.64,-213,+77,-46
93359,13.332,-7.386,1.483,0.241384,-0.336324,2.995654,99771.17,-215,+66,-46
93369,11.462,-5.930,3.234,0.937383,-0.470415,2.925947,99771.17,-215,+54,-47
93379,8.677,-5.213,3.942,1.408301,-0.552892,2.685434,99770.86,-215,+54,-47
93388,6.205,-5.927,4.843,1.508337,-0.502342,2.467801,99767.06,-215,+44,-48
93399,5.508,-8.262,4.642,1.371053,-0.370379,2.335305,99768.36,-215,+34,-49
93409,7.491,-9.742,2.823,0.930466,-0.331535,2.221434,99768.36,-215,+24,-50
93419,8.445,-9.367,1.451,0.345677,-0.225113,2.038920,99769.14,-215,+24,-50
93429,8.699,-7.150,1.542,-0.293919,-0.037278,1.829269,99770.44,-215,+18,-49
93438,8.727,-6.419,0.937,-0.697790,0.035089,1.644627,99770.86,-215,+12,-49
93449,8.700,-5.756,0.600,-0.906377,0.085107,1.505746,99767.04,-213,+7,-50
93459,8.443,-4.903,1.069,-0.912762,0.164924,1.363141,99769.27,-213,+4,-50
93469,8.445,-4.623,0.837,-0.730249,0.198979,1.241820,99770.16,-213,+4,-50
93478,8.692,-4.107,0.797,-0.445570,0.192061,1.160407,99770.16,-213,+1,-49
93489,8.833,-4.053,0.981,-0.096506,0.163327,1.125288,99768.76,-213,-2,-49
93499,8.548,-4.602,1.108,0.163164,0.125015,1.078462,99769.34,-213,-7,-48
93509,8.348,-4.870,1.465,0.309494,0.113309,0.993325,99769.34,-213,-7,-48
93519,8.212,-5.079,1.864,0.296191,0.128740,0.893288,99769.51,-212,-9,-47
93529,8.150,-5.132,2.307,0.175402,0.167052,0.787398,99768.62,-211,-14,-47
93539,8.075,-5.134,2.501,0.003531,0.222392,0.678848,99769.15,-212,-15,-46
93549,8.033,-4.973,2.571,-0.192286,0.310722,0.588389,99768.26,-212,-15,-46
93559,8.225,-4.685,2.535,-0.351386,0.391070,0.525068,99768.26,-212,-16,-44
93570,8.458,-4.416,2.030,-0.454616,0.455456,0.499527,99770.11,-212,-18,-44
93579,8.759,-4.129,1.819,-0.476964,0.484190,0.521343,99767.70,-212,-20,-42
93589,8.839,-3.929,1.966,-0.380652,0.451199,0.585729,99767.86,-212,-20,-42
93599,8.745,-3.898,2.174,-0.236451,0.385217,0.679380,99767.86,-212,-22,-41
93608,8.269,-4.513,2.231,-0.124708,0.305933,0.770371,99767.86,-212,-24,-41
93619,8.019,-5.125,2.709,-0.111937,0.268153,0.798573,99770.14,-212,-26,-39
93629,7.900,-5.320,3.057,-0.198671,0.286245,0.772499,99769.78,-212,-26,-39
93639,7.851,-5.511,2.860,-0.333827,0.334667,0.726738,99769.83,-212,-30,-38
93648,7.971,-5.538,2.460,-0.460469,0.385217,0.683637,99768.53,-211,-30,-38
93659,8.190,-5.335,2.191,-0.528047,0.409694,0.655967,99768.53,-212,-33,-37
93669,8.502,-4.982,2.107,-0.528579,0.397456,0.657564,99770.63,-212,-33,-37
93679,8.696,-5.009,2.146,-0.493992,0.355419,0.698536,99767.93,-210,-35,-37
93689,8.581,-5.229,2.471,-0.487074,0.338391,0.744829,99767.20,-210,-37,-36
93699,8.599,-5.306,2.606,-0.525918,0.364997,0.784738,99767.20,-209,-39,-36
93709,8.415,-4.973,2.832,-0.564762,0.349034,0.850719,99769.88,-209,-39,-36
93719,8.541,-4.866,3.072,-0.580726,0.324024,0.938517,99769.88,-210,-42,-34
93729,8.656,-4.780,2.984,-0.597753,0.288905,1.047600,99767.70,-208,-44,-34
93739,8.887,-5.090,2.539,-0.584450,0.233566,1.166260,99768.59,-207,-48,-34
93749,8.815,-5.432,2.368,-0.595093,0.187272,1.273747,99769.10,-207,-48,-34
93760,8.999,-5.619,2.301,-0.630567,0.161731,1.375912,99768.80,-206,-51,-34
93769,9.219,-5.845,2.501,-0.678102,0.152685,1.457325,99768.80,-204,-56,-34
93779,9.501,-5.526,2.808,-0.736634,0.123419,1.557361,99769.02,-202,-61,-35
93789,10.199,-5.567,2.459,-0.770157,0.049456,1.647820,99766.57,-202,-61,-35
93799,10.722,-5.953,1.835,-0.762175,-0.040471,1.731361,99770.20,-199,-64,-36
93809,11.003,-6.140,1.386,-0.748340,-0.101663,1.827141,99773.17,-196,-69,-37
93819,11.124,-6.199,0.790,-0.720138,-0.148489,1.928242,99769.98,-194,-75,-38
93829,11.353,-6.229,0.694,-0.691405,-0.205425,2.044241,99769.89,-194,-75,-38
93839,12.015,-6.668,1.209,-0.670652,-0.270874,2.150131,99769.89,-190,-81,-40
93849,12.659,-7.129,1.561,-0.679698,-0.320893,2.242718,99770.88,-185,-85,-42
93859,12.421,-7.547,1.708,-0.739294,-0.355480,2.375214,99770.88,-181,-92,-44
93869,12.484,-7.117,1.636,-0.840927,-0.411351,2.532186,99771.53,-181,-92,-44
93879,13.391,-6.522,2.072,-0.950542,-0.484782,2.622645,99768.36,-175,-97,-47
93889,14.931,-6.015,3.263,-1.007478,-0.569920,2.686498,99766.89,-169,-103,-50
93899,16.337,-5.654,3.971,-1.080377,-0.572580,2.783874,99767.36,-163,-109,-55
93910,17.404,-5.375,3.449,-1.290560,-0.482654,2.884975,99767.36,-163,-109,-55
93919,18.434,-4.723,3.172,-1.619404,-0.358140,2.928076,99770.34,-157,-113,-57
93929,19.791,-3.314,3.516,-2.003587,-0.172434,2.887103,99767.96,-149,-117,-63
93939,22.009,-1.629,4.897,-2.422890,0.165456,2.757801,99766.46,-144,-120,-68
93949,24.407,-0.706,6.796,-2.617110,0.432043,2.708847,99766.46,-138,-120,-72
93959,22.311,-6.290,5.280,-2.587312,0.138850,3.385158,99766.46,-138,-122,-72
93969,18.531,-12.339,3.822,-1.996670,-0.659314,4.591451,99767.40,-128,-126,-79
93979,17.748,-15.263,4.256,-1.105918,-1.300507,5.049066,99764.48,-114,-133,-83
93989,16.650,-15.195,7.039,-0.674377,-1.502176,4.769708,99767.24,-99,-139,-87
93995,17.623,-10.402,8.534,-0.459937,-1.481424,4.304644,99766.62,-99,-139,-87
94004,17.137,-3.620,8.122,-0.281680,-1.354250,3.691121,99766.62,-88,-144,-90
94014,10.760,2.654,5.066,-0.183240,-1.077553,2.956810,99767.95,-88,-144,-90
94024,3.886,0.524,2.654,-0.366818,-0.761479,2.707782,99767.12,-79,-146,-91
94034,2.609,-4.177,3.962,-0.357772,-0.596525,2.401819,99768.73,-71,-147,-93
94044,5.951,-1.982,4.857,0.242448,-0.808305,1.375380,99765.13,-66,-148,-95
94054,7.071,1.349,3.373,0.465402,-0.706140,0.287215,99765.13,-66,-148,-95
94064,6.275,2.417,1.948,0.107824,-0.303865,-0.485940,99765.95,-65,-148,-95
94074,4.802,1.884,1.126,-0.286469,-0.010140,-1.012729,99768.55,-67,-145,-95
94084,3.405,1.093,0.464,-0.511019,0.147364,-1.438417,99767.67,-70,-141,-97
94094,2.433,0.705,0.139,-0.544010,0.237823,-1.858251,99765.17,-70,-141,-97
94104,1.728,0.514,0.300,-0.395019,0.290502,-2.258398,99765.17,-76,-137,-98
94114,1.735,0.412,0.703,-0.110873,0.312850,-2.648434,99765.94,-81,-131,-100
94124,2.312,0.310,1.052,0.238191,0.319236,-3.059223,99765.84,-89,-126,-100
94134,3.258,0.192,1.216,0.614925,0.304336,-3.484379,99763.86,-89,-126,-100
94144,3.950,-0.493,1.169,0.971970,0.278263,-3.882929,99760.73,-97,-121,-98
94154,4.499,-1.268,0.944,1.239090,0.254850,-4.216562,99760.73,-106,-115,-98
94164,4.978,-1.707,0.528,1.376906,0.240483,-4.489002,99761.09,-114,-109,-96
94174,5.453,-2.251,0.364,1.438631,0.278795,-4.733240,99757.97,-114,-109,-96
94184,6.058,-2.972,0.522,1.510466,0.320300,-4.959919,99759.84,-125,-101,-93
94194,6.636,-3.734,0.756,1.581236,0.345309,-5.180745,99757.41,-135,-93,-93
94204,7.121,-4.520,0.869,1.632319,0.364997,-5.392524,99757.41,-145,-84,-92
94214,7.639,-5.292,0.967,1.680209,0.387346,-5.591533,99760.46,-155,-84,-90
94224,8.337,-6.090,1.016,1.741401,0.417676,-5.766597,99758.18,-155,-74,-90
94234,9.077,-6.780,1.157,1.764282,0.459180,-5.974652,99761.71,-165,-63,-89
94244,10.140,-7.400,1.302,1.647750,0.548043,-6.196542,99759.01,-177,-49,-87
94254,11.774,-7.570,1.090,1.416282,0.649144,-6.408854,99759.01,-188,-32,-85
94264,13.302,-8.086,0.979,1.267291,0.728960,-6.577533,99764.53,-188,-32,-85
94274,14.282,-9.183,1.491,1.217805,0.803455,-6.671184,99766.72,-198,-12,-84
94284,14.779,-10.651,1.980,1.169383,0.857198,-6.725991,99765.94,-204,+10,-83
94295,14.842,-12.613,2.286,1.119897,0.857731,-6.762707,99763.28,-208,+33,-81
94304,15.031,-14.491,2.642,1.045934,0.833254,-6.778670,99763.28,-208,+33,-81
94314,15.784,-15.532,3.473,0.940576,0.838575,-6.753661,99765.51,-206,+59,-81
94324,16.223,-15.877,4.679,0.776686,0.909877,-6.625422,99766.54,-203,+81,-79
94334,15.376,-16.129,5.699,0.600026,1.081217,-6.335955,99764.51,-197,+104,-77
94344,13.290,-17.666,5.730,0.412191,1.356850,-5.854395,99765.45,-197,+104,-77
94350,11.360,-19.993,5.072,0.239255,1.613326,-5.384010,99765.45,-192,+122,-74
94359,9.387,-22.368,2.778,-0.009772,1.857565,-4.850304,99765.45,-192,+122,-74
94369,7.207,-24.313,-1.252,-0.481221,2.124684,-4.153241,99769.10,-186,+135,-69
94380,5.712,-23.993,-3.852,-0.854762,2.094353,-3.379021,99769.41,-181,+146,-63
94390,3.398,-23.440,-4.711,-1.068670,1.729859,-2.365884,99769.41,-179,+155,-57
94399,1.144,-23.956,-4.608,-1.122946,1.110483,-1.082435,99770.95,-179,+155,-57
94409,1.418,-21.630,-3.354,-0.881900,0.400648,0.305839,99771.21,-178,+157,-54
94419,3.082,-18.457,-1.833,-0.241772,-0.307590,1.530756,99772.09,-178,+154,-54
94429,3.986,-17.086,-1.133,0.623971,-0.961553,2.527397,99772.09,-181,+145,-58
94439,11.985,-11.048,4.663,1.482796,-1.401075,3.072278,99768.71,-181,+145,-58
94449,18.183,4.204,9.507,2.215511,-1.456415,2.621048,99767.98,-183,+133,-63
94459,23.123,23.602,5.315,1.639236,-0.969002,1.271618,99767.98,-183,+125,-68
94470,11.476,0.329,-10.588,-0.729716,0.155346,1.172646,99770.86,-184,+122,-68
94479,6.482,-20.848,-4.063,-0.672249,-0.272471,2.543893,99772.11,-186,+114,-68
94489,18.222,-14.570,6.359,0.236595,-0.904085,2.837617,99771.23,-186,+114,-68
94499,20.257,-11.247,-6.136,-0.471111,-0.633241,2.757269,99769.05,-187,+105,-70
94510,13.205,-9.491,-1.451,-1.391661,0.132997,3.240424,99770.94,-190,+96,-69
94520,10.650,-6.814,3.515,-0.636065,0.148428,3.253727,99769.95,-191,+86,-68
94529,9.083,-6.424,2.887,0.137090,-0.092617,2.923819,99771.36,-191,+86,-68
94539,7.761,-7.740,3.290,0.495732,-0.196379,2.703526,99771.41,-193,+76,-69
94550,6.549,-8.458,5.497,0.703255,-0.170838,2.482168,99771.41,-194,+66,-70
94559,7.557,-8.379,6.163,0.975695,-0.216599,2.271985,99771.41,-193,+58,-70
94569,8.346,-7.617,3.528,0.925145,-0.431039,2.032535,99771.27,-193,+58,-70
94579,8.044,-7.918,1.301,0.460081,-0.373571,1.807985,99770.13,-193,+50,-70
94589,8.494,-7.665,1.805,-0.203992,-0.136250,1.673893,99771.27,-193,+45,-72
94600,8.644,-6.642,1.616,-0.794634,0.008483,1.445618,99770.49,-193,+42,-71
94609,8.463,-5.292,1.411,-1.048982,0.120759,1.198187,99770.49,-193,+42,-71
94619,8.581,-4.234,0.786,-0.999496,0.208557,1.040683,99771.27,-194,+39,-69
94629,9.061,-3.479,0.779,-0.703643,0.233566,0.980554,99768.83,-194,+37,-70
94640,9.330,-3.361,1.128,-0.373203,0.210685,0.977894,99768.00,-194,+35,-69
94650,9.142,-3.666,1.590,-0.160891,0.179291,0.986407,99768.00,-194,+35,-69
94659,9.006,-3.766,2.291,-0.026799,0.143107,0.989600,99771.19,-195,+32,-66
94669,8.571,-3.974,2.587,0.080155,0.084043,0.959270,99771.19,-194,+28,-68
94680,8.150,-4.180,2.848,0.097182,0.058502,0.898077,99769.94,-194,+25,-68
94690,7.997,-4.335,3.210,0.034393,0.059566,0.816664,99769.31,-194,+25,-68
94699,8.069,-4.414,3.517,-0.103423,0.105859,0.732591,99770.30,-194,+23,-67
94709,8.164,-4.326,3.640,-0.297111,0.184080,0.655967,99770.30,-194,+21,-68
94720,8.312,-3.944,3.284,-0.432799,0.237823,0.610738,99769.49,-194,+20,-66
94730,8.595,-3.537,2.514,-0.465258,0.269749,0.626701,99769.96,-194,+20,-66
94740,8.848,-3.417,2.021,-0.416304,0.259639,0.703325,99769.96,-194,+18,-65
94749,8.974,-3.324,2.070,-0.287533,0.199511,0.815600,99770.13,-194,+16,-65
94759,8.790,-3.446,2.581,-0.159295,0.131933,0.932664,99769.14,-195,+13,-65
94770,8.471,-4.222,2.763,-0.105552,0.087236,1.022591,99770.33,-195,+13,-65
94779,8.100,-4.960,2.868,-0.142799,0.071272,1.044939,99770.33,-194,+11,-65
94789,7.976,-5.245,2.815,-0.233790,0.094685,1.022059,99769.34,-193,+6,-64
94799,8.194,-5.150,2.713,-0.348726,0.148428,0.984279,99769.88,-194,+3,-63
94810,8.401,-5.236,2.091,-0.419496,0.179291,0.959802,99769.88,-194,+3,-63
94820,8.634,-4.984,1.847,-0.427478,0.181419,0.968848,99771.17,-194,+3,-63
94829,8.683,-4.757,2.210,-0.399276,0.178759,1.014077,99769.30,-192,+0,-63
94839,8.595,-4.976,2.220,-0.374267,0.165456,1.073141,99768.63,-193,-3,-62
94850,8.508,-5.075,2.377,-0.370542,0.157474,1.123692,99768.83,-193,-3,-62
94860,8.441,-5.082,2.687,-0.385441,0.158538,1.172114,99768.83,-192,-7,-62
94870,8.382,-4.956,2.832,-0.421625,0.156942,1.235435,99770.81,-190,-9,-63
94879,8.461,-4.949,2.934,-0.455148,0.144171,1.313655,99768.66,-190,-13,-62
94889,8.625,-4.984,2.862,-0.483882,0.124483,1.403049,99769.86,-190,-13,-62
94900,8.719,-5.337,2.819,-0.506763,0.086171,1.492976,99769.86,-190,-17,-61
94909,8.976,-5.618,2.777,-0.533900,0.053181,1.556297,99769.86,-188,-21,-62
94919,9.163,-5.813,2.795,-0.576469,0.041474,1.603122,99771.44,-188,-26,-62
94929,9.525,-5.873,2.710,-0.630212,0.024979,1.665379,99771.34,-188,-26,-62
94940,9.927,-5.993,2.473,-0.690518,-0.032666,1.751936,99770.30,-185,-31,-62
94949,10.351,-5.978,2.170,-0.714817,-0.069205,1.842572,99770.30,-183,-34,-63
94959,10.701,-5.995,1.805,-0.716414,-0.117627,1.947930,99770.30,-181,-40,-64
94969,10.978,-6.177,1.375,-0.681827,-0.183608,2.044241,99772.00,-178,-40,-65
94980,11.250,-6.466,1.458,-0.655753,-0.245865,2.134700,99770.67,-178,-45,-65
94990,11.255,-6.744,1.709,-0.664267,-0.280452,2.214517,99769.23,-175,-50,-67
94999,11.442,-6.936,1.847,-0.708964,-0.298544,2.294333,99769.23,-172,-57,-68
95009,11.682,-7.304,2.036,-0.805276,-0.306526,2.361379,99771.23,-167,-62,-69
95020,12.023,-7.858,2.067,-0.936707,-0.327278,2.474186,99771.23,-167,-62,-69
95030,13.134,-7.609,1.802,-1.117092,-0.337388,2.640737,99769.42,-163,-68,-72
95039,14.926,-6.879,1.835,-1.351221,-0.353351,2.745562,99770.72,-159,-73,-74
95049,17.114,-5.975,2.721,-1.523092,-0.410287,2.824847,99767.28,-153,-79,-77
95059,19.108,-4.616,3.431,-1.640156,-0.427314,2.928608,99767.28,-153,-79,-77
95070,20.597,-3.533,3.553,-1.842358,-0.290562,3.055782,99768.80,-147,-83,-81
95080,22.079,-2.531,3.140,-2.157899,-0.141039,3.159011,99770.25,-141,-88,-84
95089,24.532,-0.572,4.299,-2.593697,0.092025,3.154222,99767.34,-135,-90,-89
95099,26.494,0.481,6.395,-2.929990,0.347969,3.115378,99767.73,-135,-90,-89
95110,23.969,-3.862,6.158,-2.796963,0.121823,3.431984,99769.09,-130,-92,-93
95120,18.353,-10.132,5.120,-2.160560,-0.639094,4.458424,99764.98,-120,-97,-98
95130,15.719,-13.336,4.202,-0.926597,-1.422892,5.159212,99764.55,-107,-105,-102
95139,14.260,-16.063,4.365,-0.255075,-1.615516,5.022460,99764.55,-107,-105,-102
95150,15.303,-11.467,7.065,-0.220487,-1.336690,4.343488,99767.10,-94,-113,-105
95160,13.716,-3.497,7.221,-0.197607,-1.042433,3.254791,99767.10,-85,-118,-108
95169,10.095,3.083,5.850,-0.005515,-0.977516,2.382131,99768.14,-77,-120,-110
95175,3.998,3.602,5.208,0.024283,-0.872690,2.012315,99769.66,-77,-120,-110
95184,0.536,-2.130,5.372,-0.076818,-0.690177,1.905361,99767.67,-71,-122,-112
95195,4.760,-2.990,5.882,0.455824,-0.890250,1.086976,99763.52,-71,-122,-112
95205,6.083,0.193,2.916,0.704851,-0.959424,-0.049610,99763.52,-67,-124,-112
95214,5.277,0.973,1.573,0.346209,-0.591204,-0.695592,99768.50,-65,-123,-113
95224,4.188,0.078,1.260,-0.137478,-0.243737,-1.156399,99766.16,-66,-121,-115
95235,3.218,-0.387,0.422,-0.430671,-0.114434,-1.566655,99765.27,-69,-121,-115
95245,2.208,-0.324,-0.097,-0.494524,-0.071865,-1.994472,99766.16,-69,-118,-116
95254,1.380,-0.417,-0.110,-0.376928,-0.030893,-2.432930,99766.16,-73,-114,-119
95264,1.205,-0.399,0.743,-0.175258,-0.005351,-2.883627,99765.70,-78,-109,-120
95275,1.850,-0.186,1.260,0.106228,-0.008544,-3.361994,99765.91,-84,-105,-119
95285,2.852,-0.186,1.240,0.372815,-0.035150,-3.821736,99762.00,-84,-105,-119
95295,4.158,-0.267,1.005,0.662815,-0.080911,-4.260195,99762.84,-92,-99,-119
95304,4.979,-0.512,0.816,0.929402,-0.134654,-4.582121,99762.84,-101,-94,-118
95314,5.398,-1.258,0.773,1.218337,-0.195847,-4.872121,99760.59,-110,-88,-115
95325,5.628,-2.427,0.735,1.476943,-0.243737,-5.099864,99760.28,-110,-88,-115
95335,5.757,-3.622,0.603,1.592943,-0.260232,-5.322818,99759.81,-120,-81,-114
95344,5.786,-4.447,0.788,1.584429,-0.195847,-5.534065,99757.27,-130,-73,-112
95354,6.192,-4.975,1.503,1.604117,-0.073994,-5.715515,99757.27,-140,-62,-109
95365,6.775,-5.509,2.140,1.683933,0.020190,-5.882597,99761.61,-140,-62,-109
95375,7.347,-6.005,2.479,1.719053,0.117034,-6.061386,99760.56,-149,-50,-108
95384,8.463,-6.393,2.496,1.630722,0.265492,-6.254010,99761.81,-158,-34,-105
95394,10.162,-6.846,1.794,1.484392,0.407566,-6.464725,99759.84,-165,-16,-103
95405,11.919,-7.807,1.088,1.369989,0.544850,-6.641386,99759.84,-165,-16,-103
95415,13.223,-9.260,1.451,1.247603,0.718318,-6.764303,99764.98,-170,+1,-100
95425,14.049,-11.234,1.991,1.137457,0.852409,-6.819110,99765.82,-173,+22,-99
95434,14.462,-14.064,2.355,1.144906,0.890721,-6.808468,99764.15,-174,+41,-98
95444,14.981,-16.271,3.026,1.236961,0.852942,-6.790377,99763.95,-174,+41,-98
95455,15.867,-17.293,3.609,1.220466,0.832721,-6.779734,99763.95,-172,+61,-97
95465,16.248,-17.715,4.224,1.013475,0.895510,-6.685019,99766.35,-168,+81,-98
95474,15.361,-17.804,5.163,0.739971,1.016831,-6.417367,99766.73,-164,+98,-97
95484,13.578,-18.519,5.722,0.496796,1.196152,-5.932616,99766.51,-164,+98,-97
95495,11.288,-20.588,5.509,0.300980,1.439859,-5.283974,99765.41,-159,+113,-97
95505,8.653,-23.140,3.499,0.038118,1.706446,-4.577332,99765.41,-156,+125,-93
95515,5.835,-24.920,0.604,-0.396084,1.924611,-3.854195,99769.80,-154,+135,-89
95524,3.326,-25.203,-1.905,-0.820707,1.904923,-3.063480,99769.02,-154,+135,-89
95535,1.181,-24.573,-3.508,-1.261826,1.670262,-2.024270,99771.26,-151,+143,-85
95545,0.502,-23.255,-3.514,-1.582688,1.230739,-0.739225,99770.07,-151,+148,-81
95555,1.787,-19.805,-1.832,-1.450725,0.630520,0.543160,99770.07,-152,+148,-79
95564,3.214,-17.388,-0.441,-0.838799,-0.014929,1.622278,99768.02,-152,+148,-79
95575,7.753,-14.643,1.942,-0.006047,-0.583223,2.449177,99769.16,-155,+143,-81
95585,14.870,-3.220,6.646,0.826705,-0.887057,2.474186,99767.48,-157,+135,-84
95595,22.336,17.169,6.456,1.255585,-0.996672,1.633453,99768.22,-157,+128,-88
95604,19.596,16.627,-5.369,-0.027332,-0.330471,0.794316,99768.22,-157,+128,-88
95614,7.602,-11.961,-11.697,-0.707900,-0.217663,1.881416,99773.84,-158,+127,-89
95625,13.231,-15.524,1.800,0.350466,-0.818415,2.861030,99769.52,-158,+118,-90
95635,19.488,-10.573,-0.132,0.561182,-1.021149,2.705654,99769.57,-159,+111,-94
95645,14.842,-10.855,-5.631,-0.756854,-0.344837,2.855709,99772.07,-159,+111,-94
95654,11.501,-8.835,0.649,-1.086762,0.213878,3.074938,99772.07,-161,+104,-93
95665,10.842,-7.062,4.317,-0.430139,0.186740,2.870076,99771.38,-163,+97,-92
95675,8.729,-7.023,6.804,0.287677,0.010080,2.663617,99768.36,-165,+88,-92
95685,7.190,-8.413,7.483,0.981548,-0.094214,2.542828,99771.02,-165,+88,-92
95694,8.206,-7.456,3.993,1.147567,-0.346434,2.306040,99769.14,-167,+79,-92
95705,6.866,-5.792,2.632,1.058172,-0.454452,1.945269,99769.14,-167,+71,-95
95715,6.876,-7.428,2.981,0.809677,-0.343773,1.681875,99771.19,-167,+65,-94
95725,7.881,-9.123,0.964,0.142411,-0.249058,1.459453,99769.42,-167,+65,-94
95734,8.955,-8.220,0.531,-0.723863,0.028704,1.241820,99769.63,-167,+62,-95
95745,9.199,-6.140,0.735,-1.245331,0.292098,0.986407,99771.59,-168,+60,-95
95755,8.992,-4.604,0.972,-1.326744,0.436300,0.803362,99771.59,-169,+60,-93
95765,9.113,-3.093,0.983,-1.035680,0.455988,0.733123,99771.34,-170,+59,-93
95774,9.644,-2.073,1.474,-0.583918,0.392667,0.754407,99768.44,-170,+59,-93
95784,9.911,-1.914,2.344,-0.199735,0.278795,0.834756,99768.59,-170,+58,-91
95795,9.756,-2.423,2.899,0.045035,0.156942,0.922022,99772.80,-171,+54,-91
95805,9.285,-3.577,2.903,0.195090,0.034025,0.966719,99772.80,-171,+52,-92
95815,8.660,-4.164,2.771,0.248301,-0.041003,0.904462,99771.46,-171,+52,-92
95824,8.088,-4.566,2.850,0.122723,-0.012801,0.792719,99770.26,-170,+48,-91
95835,7.789,-5.028,3.140,-0.143864,0.085107,0.674059,99769.27,-170,+47,-90
95845,8.119,-4.608,3.560,-0.446634,0.208557,0.555398,99770.01,-171,+46,-90
95855,8.553,-3.472,3.425,-0.590304,0.274538,0.479307,99770.01,-171,+46,-90
95864,8.743,-2.761,2.782,-0.541350,0.264960,0.480371,99772.63,-172,+45,-89
95875,8.854,-2.528,2.244,-0.372671,0.194190,0.542628,99769.51,-172,+45,-88
95885,8.918,-2.732,2.157,-0.163374,0.113841,0.630958,99770.45,-172,+43,-89
95895,8.686,-3.796,2.514,-0.076286,0.070740,0.690022,99767.21,-172,+43,-89
95904,8.380,-4.586,2.964,-0.120983,0.081915,0.705453,99767.21,-172,+41,-88
95915,8.217,-4.432,3.403,-0.264653,0.138850,0.680444,99771.03,-173,+39,-87
95925,8.231,-4.020,3.398,-0.407790,0.196850,0.666077,99772.06,-173,+38,-87
95935,8.559,-3.418,3.220,-0.458873,0.211217,0.691619,99769.31,-173,+38,-87
95945,8.854,-3.485,2.639,-0.409919,0.171841,0.750683,99768.22,-174,+37,-86
95954,8.986,-3.852,2.331,-0.321056,0.119162,0.823050,99768.22,-174,+34,-85
95965,8.966,-4.118,2.270,-0.284873,0.098942,0.890628,99770.61,-173,+33,-86
95975,8.956,-4.162,2.311,-0.304029,0.113309,0.956077,99772.75,-173,+33,-86
95985,8.865,-4.055,2.290,-0.326909,0.128208,1.029508,99772.22,-174,+30,-85
95994,8.818,-3.982,2.247,-0.319992,0.118098,1.125820,99770.41,-173,+28,-85
96005,8.769,-3.949,2.456,-0.297111,0.078722,1.238095,99770.41,-174,+24,-85
96015,8.774,-3.929,2.805,-0.260396,0.037749,1.343453,99770.91,-174,+24,-85
96025,8.641,-4.342,2.860,-0.243368,-0.012269,1.458389,99769.51,-174,+20,-85
96035,8.603,-4.836,2.865,-0.256139,-0.047388,1.554168,99769.35,-173,+16,-85
96045,8.715,-5.191,2.910,-0.316267,-0.056966,1.623875,99768.68,-172,+12,-85
96055,8.887,-5.381,2.806,-0.381185,-0.050049,1.676554,99768.68,-172,+12,-85
96065,8.949,-5.610,2.666,-0.439185,-0.046324,1.728700,99772.05,-171,+7,-85
96075,9.161,-5.662,2.339,-0.486542,-0.064416,1.780315,99769.70,-170,+3,-85
96084,9.641,-5.589,1.778,-0.517405,-0.109645,1.829801,99768.72,-169,-1,-86
96095,9.835,-5.612,1.691,-0.522726,-0.175094,1.905361,99769.30,-169,-1,-86
96105,10.102,-5.787,1.675,-0.528047,-0.231498,2.004333,99769.30,-167,-5,-87
96115,10.497,-5.917,1.549,-0.554120,-0.270874,2.111287,99771.17,-165,-11,-87
96120,10.572,-5.798,1.342,-0.557845,-0.307590,2.176205,99769.92,-165,-11,-87
96130,10.583,-5.875,1.731,-0.545074,-0.361865,2.240590,99769.92,-163,-15,-89
96140,10.918,-6.554,2.091,-0.555184,-0.412415,2.320406,99769.97,-160,-22,-88
96150,11.453,-7.216,1.813,-0.638194,-0.405498,2.389049,99768.72,-157,-26,-90
96160,11.707,-7.275,1.664,-0.797294,-0.382085,2.461416,99768.72,-157,-26,-90
96171,12.094,-7.392,2.163,-0.969698,-0.411351,2.586461,99769.34,-153,-32,-91
96180,13.566,-6.924,2.781,-1.117625,-0.469351,2.766315,99768.20,-149,-37,-92
96190,15.774,-6.488,3.359,-1.285771,-0.473608,2.906791,99769.50,-145,-42,-95
96200,18.387,-5.833,3.231,-1.473606,-0.434764,3.060039,99769.50,-145,-42,-95
96209,20.724,-5.437,3.029,-1.693367,-0.368782,3.230846,99769.50,-140,-47,-97
96220,23.005,-3.962,2.823,-1.910468,-0.304929,3.408571,99769.93,-134,-52,-98
96230,25.597,-1.662,3.650,-2.223881,-0.152746,3.524571,99769.20,-129,-56,-101
96240,27.405,-0.134,4.766,-2.480890,-0.049517,3.576718,99766.87,-129,-56,-101
96250,25.417,-0.042,5.710,-2.483550,-0.121351,3.630993,99768.73,-122,-60,-103
96260,20.089,-4.878,4.994,-1.957294,-0.553957,3.884277,99768.73,-115,-63,-106
96270,12.932,-11.517,3.164,-1.288964,-1.310617,4.523873,99769.23,-105,-71,-109
96280,8.258,-15.372,2.106,-0.512616,-1.735772,4.790992,99767.34,-105,-71,-109
96290,8.452,-16.057,2.255,-0.002322,-1.566561,4.240791,99767.31,-92,-80,-111
96301,11.739,-9.980,5.059,0.109953,-1.331369,3.523507,99767.31,-83,-88,-111
96310,11.377,-1.670,4.963,0.237127,-1.327644,2.685966,99771.12,-74,-92,-112
96320,8.159,4.499,4.459,0.423365,-1.430874,1.856939,99771.12,-74,-92,-112
96330,0.813,0.676,4.020,0.314283,-1.208984,1.510535,99766.18,-67,-96,-113
96339,1.727,-3.095,5.393,0.709108,-1.187167,1.230114,99768.51,-62,-99,-112
96350,5.027,0.049,2.997,1.057640,-1.274433,0.147802,99765.49,-58,-102,-111
96360,4.526,2.318,1.001,0.701659,-1.008910,-0.635995,99765.49,-58,-102,-111
96370,3.557,1.802,0.976,0.212650,-0.673681,-1.105848,99768.60,-58,-100,-112
96380,2.510,0.536,0.589,-0.106616,-0.512452,-1.541646,99767.09,-59,-99,-111
96390,1.521,-0.274,0.033,-0.264653,-0.419865,-1.980637,99766.77,-61,-96,-112
96400,0.976,-0.612,0.298,-0.288065,-0.291626,-2.414306,99765.17,-61,-96,-112
96410,0.977,-0.748,1.096,-0.228469,-0.160195,-2.849040,99767.09,-64,-90,-113
96420,1.648,-0.662,1.514,-0.114598,-0.076122,-3.285902,99763.67,-69,-86,-113
96431,2.592,-0.771,1.496,0.026411,-0.026636,-3.714250,99762.63,-74,-79,-114
96440,3.362,-1.094,1.259,0.199879,-0.009076,-4.085131,99762.63,-74,-79,-114
96450,3.768,-1.536,0.820,0.358980,0.003162,-4.379387,99763.41,-80,-73,-114
96460,4.156,-1.832,0.151,0.447310,0.026575,-4.628947,99763.41,-87,-67,-114
96471,4.642,-2.160,0.104,0.448375,0.095749,-4.888616,99764.23,-93,-59,-114
96480,5.122,-2.697,0.352,0.487219,0.160135,-5.137644,99761.94,-99,-59,-114
96490,5.674,-3.294,0.899,0.541494,0.230373,-5.368579,99757.78,-99,-50,-114
96500,6.273,-3.976,1.448,0.581402,0.330410,-5.594194,99757.89,-105,-40,-114
96510,6.968,-4.521,1.752,0.569696,0.469290,-5.818744,99757.89,-111,-30,-114
96521,7.857,-4.918,1.885,0.511163,0.647547,-6.008175,99763.97,-116,-18,-114
96530,9.217,-5.167,1.257,0.489347,0.804520,-6.142799,99763.50,-116,-18,-114
96540,10.788,-5.678,0.530,0.582998,0.914666,-6.251882,99761.94,-121,-7,-114
96550,12.391,-6.908,0.560,0.757530,1.009382,-6.333827,99761.94,-126,+4,-114
96560,13.724,-8.795,1.092,0.855971,1.090795,-6.392358,99761.94,-130,+15,-113
96570,14.670,-11.196,1.517,1.020925,1.080153,-6.431735,99766.78,-130,+15,-113
96580,15.448,-13.763,2.426,1.386484,0.966813,-6.441844,99766.73,-135,+25,-112
96590,15.996,-15.322,3.094,1.681805,0.777914,-6.457808,99766.27,-138,+36,-110
96600,16.175,-15.933,3.128,1.670099,0.644355,-6.399808,99765.58,-140,+47,-111
96610,15.810,-16.901,3.275,1.495034,0.651272,-6.156634,99765.58,-140,+47,-111
96620,14.149,-18.259,4.162,1.226851,0.733217,-5.694763,99765.22,-142,+58,-108
96630,11.585,-19.281,5.189,0.890558,0.887529,-5.089754,99764.95,-144,+69,-107
96641,9.761,-20.166,5.388,0.621310,1.115272,-4.436323,99767.38,-147,+79,-106
96650,7.451,-21.445,3.230,0.356852,1.296189,-3.786617,99767.38,-147,+79,-106
96660,4.691,-22.300,0.305,0.093989,1.350996,-3.141168,99770.60,-148,+86,-102
96670,2.735,-22.589,-2.058,-0.171533,1.254152,-2.419095,99770.60,-149,+94,-99
96680,0.812,-22.594,-2.939,-0.561570,1.084942,-1.474600,99771.80,-151,+98,-97
96690,-0.336,-21.804,-2.489,-1.004817,0.793877,-0.340142,99772.21,-151,+98,-97
96700,0.898,-18.262,-0.588,-1.119753,0.396391,0.773563,99770.18,-153,+99,-92
96710,7.397,-13.645,3.078,-0.745148,-0.017590,1.603122,99770.18,-153,+96,-95
96720,10.792,-7.703,3.862,-0.113533,-0.432103,1.961232,99770.11,-155,+91,-95
96731,16.816,8.266,7.593,0.659090,-0.817883,1.758499,99769.39,-155,+91,-95
96740,21.716,20.146,-0.134,0.501053,-0.617810,0.860829,99769.02,-155,+85,-98
96750,11.051,-2.012,-6.877,-0.460469,-0.179351,1.332811,99770.78,-155,+83,-98
96760,10.637,-11.794,-0.902,0.250430,-0.539058,2.470461,99772.38,-155,+76,-100
96771,17.302,-7.998,2.639,0.761787,-0.868433,2.610406,99769.41,-155,+76,-100
96781,14.822,-8.956,-3.481,0.123255,-0.580562,2.524737,99771.87,-155,+67,-101
96790,12.149,-9.145,-1.656,-0.569551,-0.072397,2.808883,99771.87,-155,+60,-102
96800,10.460,-8.290,2.874,-0.242304,0.074997,2.773232,99769.48,-156,+53,-101
96811,8.338,-9.227,8.454,0.603218,0.085107,2.601892,99769.48,-156,+53,-101
96820,10.069,-9.687,4.737,1.255053,-0.149021,2.417783,99770.92,-157,+45,-101
96831,8.091,-6.690,0.383,1.053738,-0.514758,1.987128,99770.86,-156,+36,-103
96840,6.379,-5.412,1.415,0.983145,-0.281516,1.738811,99770.86,-156,+30,-102
96850,7.619,-6.193,1.646,0.850649,-0.162324,1.589288,99768.89,-156,+30,-102
96861,8.152,-7.556,0.596,0.315879,-0.172434,1.391343,99768.89,-156,+24,-103
96870,9.203,-6.813,0.541,-0.315203,0.014869,1.209893,99771.38,-155,+22,-102
96880,9.565,-5.813,0.983,-0.740359,0.168116,1.031637,99768.37,-155,+20,-102
96890,9.259,-4.362,1.574,-0.765900,0.220795,0.857637,99769.20,-155,+20,-102
96901,9.211,-3.316,1.478,-0.531772,0.212814,0.748022,99769.20,-155,+18,-101
96910,9.294,-2.869,1.928,-0.280616,0.131933,0.717160,99769.20,-155,+17,-101
96920,9.211,-2.873,2.186,-0.110341,0.030300,0.717692,99773.41,-155,+16,-102
96930,9.314,-3.078,2.119,0.030668,-0.041003,0.722481,99771.17,-155,+16,-102
96941,9.269,-3.390,1.748,0.186577,-0.102195,0.704389,99769.14,-155,+14,-101
96950,8.994,-3.904,1.488,0.273843,-0.114434,0.640004,99770.08,-153,+11,-101
96960,8.686,-4.268,1.648,0.240320,-0.081443,0.574554,99770.08,-153,+9,-102
96970,8.433,-4.294,2.039,0.102503,-0.006416,0.511233,99771.59,-153,+9,-102
96980,8.353,-4.075,2.279,-0.080543,0.088832,0.457490,99770.85,-154,+8,-100
96991,8.299,-3.669,2.258,-0.203460,0.152153,0.401619,99769.59,-155,+8,-101
97000,8.492,-3.285,2.072,-0.207717,0.168116,0.364371,99769.59,-154,+6,-101
97010,8.803,-3.114,1.928,-0.128432,0.147364,0.368096,99771.77,-155,+5,-100
97020,8.963,-3.153,1.871,-0.033185,0.117566,0.402151,99769.70,-155,+5,-100
97031,8.986,-3.413,1.749,0.033329,0.095217,0.439931,99769.70,-155,+5,-101
97040,8.915,-3.709,1.739,0.054081,0.082979,0.479839,99769.16,-155,+3,-100
97050,8.980,-3.573,2.010,0.032797,0.098942,0.510169,99766.57,-155,+1,-100
97060,8.890,-3.425,2.349,-0.034249,0.128740,0.539435,99766.57,-155,+1,-100
97065,8.822,-3.487,2.460,-0.073625,0.138318,0.561784,99768.66,-154,+0,-100
97076,8.858,-3.680,2.469,-0.084799,0.136722,0.579343,99767.88,-154,+0,-100
97085,8.905,-3.755,2.467,-0.085332,0.130869,0.602224,99771.05,-154,+0,-100
97095,8.879,-3.730,2.180,-0.089588,0.122887,0.630426,99769.44,-154,-1,-98
97105,8.950,-3.728,1.981,-0.089056,0.118098,0.663949,99769.44,-153,-4,-98
97116,9.038,-3.832,2.116,-0.080010,0.104795,0.710774,99771.05,-153,-4,-98
97125,8.979,-3.901,2.246,-0.091185,0.085107,0.768242,99769.69,-153,-5,-98
97135,8.959,-3.739,2.264,-0.113001,0.064887,0.832628,99768.59,-153,-8,-98
97145,8.919,-3.707,2.314,-0.139607,0.038814,0.909251,99768.39,-152,-10,-98
97156,8.982,-3.722,2.416,-0.156102,0.016465,0.994921,99768.39,-152,-10,-98
97166,9.185,-3.891,2.644,-0.200267,0.001566,1.094426,99769.61,-152,-12,-98
97175,9.124,-4.090,2.513,-0.257735,-0.033553,1.201380,99772.33,-151,-15,-98
97185,8.979,-4.132,2.631,-0.322120,-0.064416,1.298756,99769.67,-149,-17,-99
97196,8.949,-4.272,2.714,-0.387038,-0.106984,1.396664,99768.63,-149,-17,-99
97205,8.919,-4.298,2.678,-0.447698,-0.154874,1.497233,99768.63,-149,-20,-99
97215,8.975,-4.281,2.586,-0.488139,-0.212342,1.604187,99771.38,-147,-23,-100
97225,9.014,-4.289,2.675,-0.522194,-0.268746,1.728700,99770.06,-145,-26,-101
97235,9.057,-4.329,2.502,-0.549331,-0.316104,1.850021,99772.45,-145,-26,-101
97246,9.094,-4.599,2.259,-0.550395,-0.365590,1.966553,99769.13,-142,-30,-101
97255,9.035,-4.695,2.434,-0.558909,-0.423058,2.101177,99769.13,-140,-35,-103
97265,9.032,-5.149,2.292,-0.572212,-0.456048,2.206535,99770.48,-136,-39,-105
97275,9.006,-5.782,2.029,-0.607331,-0.466691,2.285819,99769.39,-133,-39,-105
97286,9.036,-6.172,1.982,-0.683423,-0.451792,2.335305,99768.09,-133,-43,-106
97295,9.140,-6.816,2.165,-0.786652,-0.426782,2.370425,99768.72,-130,-47,-108
97305,9.655,-7.062,2.527,-0.924469,-0.414012,2.419911,99768.72,-125,-51,-111
97315,10.855,-7.196,2.501,-1.061753,-0.410287,2.457159,99773.19,-122,-55,-111
97326,12.424,-7.739,1.653,-1.186267,-0.346434,2.477911,99768.41,-122,-55,-111
97336,14.603,-7.824,0.817,-1.297478,-0.299076,2.517287,99769.97,-117,-58,-114
97345,17.032,-7.584,0.924,-1.373569,-0.309186,2.600296,99767.36,-114,-61,-116
97355,19.748,-6.964,1.223,-1.356010,-0.335792,2.716828,99767.36,-110,-64,-118
97366,23.275,-7.003,1.479,-1.302799,-0.370911,2.848259,99770.89,-110,-64,-118
97376,26.263,-7.463,2.139,-1.192652,-0.518305,3.075470,99769.08,-105,-67,-120
97385,27.227,-6.758,2.308,-1.099001,-0.781700,3.350039,99768.08,-98,-71,-123
97395,25.434,-4.855,1.524,-1.172964,-1.019021,3.424534,99766.58,-90,-75,-126
97405,19.770,-4.916,1.670,-1.493294,-1.155773,3.524039,99766.58,-90,-75,-126
97416,12.511,-9.512,3.097,-1.492230,-1.188763,3.779984,99770.23,-81,-79,-130
97421,8.109,-13.835,4.102,-1.237881,-1.288800,4.044974,99768.52,-81,-79,-130
97430,6.829,-14.321,3.877,-0.702047,-1.494195,3.984846,99768.52,-73,-82,-133
97440,6.130,-9.369,3.106,0.072705,-1.658616,3.370791,99766.50,-63,-89,-135
97451,3.985,-2.788,1.818,0.337164,-1.572415,2.681177,99768.00,-55,-94,-136
97461,1.219,2.003,2.423,0.496796,-1.554855,2.174076,99768.00,-55,-94,-136
97471,-0.284,-0.347,1.287,0.559585,-1.477699,1.782976,99769.26,-48,-99,-137
97480,2.914,0.693,1.027,0.613861,-1.531974,1.118903,99766.20,-41,-102,-138
97490,2.653,1.599,-0.116,0.623439,-1.445773,0.337766,99764.79,-37,-104,-138
97501,0.906,-0.025,-0.672,0.404742,-1.220690,-0.092711,99764.79,-37,-104,-138
97510,-0.008,0.006,-0.814,0.257347,-1.024874,-0.453482,99764.79,-36,-106,-138
97520,-0.096,1.112,-0.271,0.219567,-0.864177,-0.864270,99769.74,-35,-107,-138
97530,-0.166,1.675,0.154,0.259476,-0.783828,-1.322949,99768.18,-36,-106,-141
97541,0.070,1.870,-0.093,0.367494,-0.771589,-1.758215,99769.74,-39,-105,-140
97551,0.418,1.519,-0.310,0.495200,-0.779039,-2.130692,99763.91,-39,-105,-140
97560,0.768,0.786,-0.359,0.560650,-0.805645,-2.461132,99763.91,-42,-105,-139
97570,1.131,0.387,-0.544,0.584595,-0.845021,-2.773480,99769.07,-44,-103,-140
97581,1.547,-0.084,-0.534,0.608540,-0.854599,-3.051774,99766.02,-49,-101,-141
97591,1.930,-1.034,-0.222,0.695273,-0.865241,-3.275792,99763.13,-49,-101,-141
97601,2.141,-2.351,-0.416,0.827237,-0.909406,-3.472672,99763.13,-53,-99,-140
97610,1.957,-3.934,-0.717,0.927273,-0.941333,-3.686581,99767.00,-58,-97,-140
97620,1.799,-5.413,-0.946,0.960264,-0.932819,-3.892507,99767.00,-64,-95,-139
97631,2.143,-6.090,-1.034,0.975163,-0.893975,-4.046287,99769.55,-64,-95,-139
97640,3.063,-6.202,-0.626,1.098081,-0.903021,-4.132488,99766.48,-69,-92,-139
97650,4.184,-6.522,0.393,1.426392,-1.037112,-4.181442,99764.97,-75,-88,-139
97660,5.295,-7.460,1.398,1.919126,-1.320195,-4.211772,99764.97,-79,-87,-138
97671,6.460,-8.788,2.423,2.535309,-1.681497,-4.199534,99766.32,-79,-87,-138
97681,7.813,-10.642,3.606,3.264299,-2.067809,-4.074488,99766.05,-82,-88,-136
97691,8.520,-12.637,4.846,4.020959,-2.455185,-3.844085,99765.38,-83,-91,-133
97700,8.134,-16.550,4.355,4.581271,-2.728157,-3.482250,99764.63,-83,-97,-130
97711,6.406,-18.605,4.648,4.490280,-2.933552,-3.144893,99767.34,-83,-97,-130
97721,6.849,-19.923,5.044,4.110886,-2.819680,-2.796893,99767.80,-83,-102,-127
97731,6.952,-20.934,7.297,3.510666,-2.465295,-2.424416,99768.68,-82,-107,-125
97740,5.532,-20.599,8.669,2.734850,-2.108249,-2.050875,99768.68,-82,-109,-124
97751,3.806,-18.415,9.301,2.005328,-1.708103,-1.725224,99767.90,-82,-109,-124
97761,3.216,-16.084,9.006,1.445016,-1.284543,-1.428307,99767.90,-82,-111,-121
97771,3.515,-14.790,8.387,1.067750,-0.819479,-1.123408,99769.80,-83,-111,-122
97780,4.514,-15.033,6.166,0.722943,-0.407626,-0.830747,99770.73,-83,-111,-120
97790,3.054,-15.046,5.783,0.395164,0.076061,-0.383243,99769.55,-83,-111,-120
97801,5.194,-12.164,2.993,0.190301,0.274006,-0.107610,99767.98,-85,-113,-120
97811,6.412,-9.139,0.796,-0.060322,0.322428,-0.095372,99767.98,-85,-113,-120
97821,8.263,-9.864,-0.842,-0.293919,0.527290,0.094591,99771.01,-85,-112,-120
97830,11.650,-9.377,-5.275,-0.691937,0.365529,0.430353,99767.70,-85,-112,-120
97841,14.389,-3.593,3.091,-0.472175,0.458116,0.575086,99767.60,-86,-111,-120
97851,15.568,-0.798,5.524,0.250962,0.455988,0.518683,99767.60,-85,-113,-119
97860,10.933,-4.657,-0.025,0.360044,0.193125,0.820389,99767.60,-84,-116,-118
97870,7.135,-6.191,0.248,0.595237,-0.045792,1.009820,99768.26,-84,-116,-118
97881,6.344,-6.683,0.384,0.837879,-0.110177,0.809215,99770.87,-82,-118,-117
97891,6.794,-7.120,0.293,0.784668,-0.088361,0.605417,99769.24,-80,-120,-116
97900,7.934,-6.522,1.581,0.497861,0.006887,0.478243,99766.85,-80,-122,-115
97910,8.405,-5.880,1.360,0.287677,0.055309,0.400022,99766.85,-80,-122,-115
97921,8.247,-6.059,-0.007,0.204136,0.073933,0.350536,99772.82,-78,-123,-113
97931,8.319,-5.813,-0.177,0.240852,0.073401,0.304243,99768.76,-78,-124,-113
97941,8.168,-5.449,-0.108,0.300448,0.072337,0.250500,99769.10,-78,-126,-112
97950,8.110,-5.288,-0.175,0.338760,0.086171,0.214316,99769.10,-78,-126,-112
97960,8.383,-5.443,-0.049,0.363769,0.106392,0.191435,99769.48,-78,-127,-111
97971,8.546,-5.721,0.365,0.353127,0.132465,0.175472,99769.48,-78,-128,-111
97981,8.346,-5.674,1.102,0.303641,0.170245,0.153656,99772.18,-77,-129,-109
97990,8.239,-5.574,1.389,0.242980,0.192593,0.128646,99768.90,-77,-129,-109
98000,8.170,-5.567,1.451,0.174338,0.192061,0.104701,99768.34,-78,-129,-108
98011,8.267,-5.429,1.406,0.110485,0.193125,0.083417,99768.34,-78,-130,-108
98021,8.493,-5.332,1.272,0.044503,0.193658,0.073839,99772.11,-78,-131,-108
98031,8.560,-5.258,1.329,0.012045,0.185144,0.080757,99771.69,-78,-131,-108
98040,8.373,-5.181,1.305,0.005127,0.161199,0.096720,99767.47,-78,-130,-108
98051,8.180,-5.272,1.096,0.004595,0.144703,0.112683,99771.38,-78,-130,-108
98061,8.170,-5.453,0.967,-0.011900,0.142043,0.112683,99771.17,-78,-131,-108
98071,8.306,-5.635,0.947,-0.044891,0.148960,0.099912,99768.06,-78,-131,-107
98081,8.382,-5.819,0.845,-0.077350,0.145236,0.079160,99771.64,-78,-131,-107
98091,8.331,-5.525,0.797,-0.096506,0.142043,0.052023,99771.64,-78,-130,-108
98101,8.295,-5.012,0.668,-0.128965,0.152153,0.065857,99768.98,-78,-131,-108
98111,8.188,-4.573,0.844,-0.109809,0.112245,0.108958,99768.98,-78,-130,-108
98120,8.301,-4.505,1.063,-0.031588,0.050520,0.165894,99769.28,-78,-130,-108
98130,8.382,-5.059,1.406,0.047164,-0.003755,0.214316,99770.22,-78,-131,-108
98141,8.196,-5.643,1.580,0.091329,-0.051645,0.210591,99771.20,-78,-131,-108
98151,7.949,-5.843,1.179,0.076962,-0.052177,0.172279,99768.81,-78,-132,-108
98161,7.852,-5.832,0.882,0.031200,-0.042599,0.134500,99768.81,-78,-132,-108
98171,7.785,-5.319,0.947,-0.012433,-0.034085,0.120133,99771.49,-76,-132,-107
98181,7.947,-5.076,0.816,-0.036377,-0.030893,0.137692,99769.88,-77,-132,-108
98191,8.261,-5.011,1.111,-0.009772,-0.058030,0.171215,99769.95,-76,-133,-107
98201,8.407,-5.114,1.383,0.035457,-0.102728,0.204206,99769.95,-76,-133,-107
98210,8.271,-5.411,1.345,0.059934,-0.138379,0.230279,99769.95,-74,-133,-108
98221,8.105,-5.297,1.368,0.039182,-0.151150,0.256885,99771.83,-74,-133,-108
98231,8.154,-5.192,1.428,0.001934,-0.161792,0.289876,99773.03,-74,-134,-108
98241,8.269,-5.204,1.307,-0.024139,-0.184140,0.326591,99768.56,-74,-134,-108
98250,8.373,-5.195,1.387,-0.038506,-0.210746,0.371821,99771.16,-72,-133,-108
98260,8.435,-5.213,1.517,-0.053405,-0.238948,0.420775,99771.16,-71,-135,-108
98271,8.277,-5.349,1.403,-0.087992,-0.259700,0.469197,99771.78,-69,-135,-109
98281,8.244,-5.467,1.392,-0.132157,-0.278324,0.514958,99768.61,-69,-135,-109
98291,8.387,-5.665,1.416,-0.192818,-0.299076,0.555931,99769.89,-67,-136,-110
98300,8.555,-5.805,1.385,-0.261460,-0.318232,0.583600,99769.89,-64,-136,-111
98311,8.629,-5.752,1.314,-0.330102,-0.327278,0.614463,99773.33,-63,-137,-112
98321,8.836,-5.910,1.132,-0.384909,-0.346966,0.641068,99772.44,-63,-137,-112
98331,9.211,-6.195,0.888,-0.433863,-0.381021,0.672995,99772.44,-60,-137,-113
98340,9.349,-6.219,0.768,-0.495588,-0.406562,0.705985,99768.44,-58,-136,-115
98351,9.233,-6.117,0.838,-0.559441,-0.433168,0.744829,99768.69,-56,-135,-116
98361,8.955,-6.068,0.669,-0.608395,-0.467755,0.796976,99768.69,-56,-135,-116
98366,9.263,-5.996,0.851,-0.652561,-0.489571,0.831031,99771.84,-52,-135,-119
98376,9.641,-6.184,1.011,-0.680762,-0.518305,0.856040,99771.84,-49,-135,-120
98385,9.957,-6.309,1.214,-0.724927,-0.540122,0.893820,99769.34,-49,-135,-120
98396,10.268,-6.236,1.258,-0.778671,-0.578434,0.937453,99770.23,-46,-135,-122
98406,10.652,-6.212,1.289,-0.814854,-0.642819,0.970976,99770.23,-41,-133,-125
98416,11.000,-6.747,0.328,-0.852634,-0.724764,1.018866,99770.68,-38,-133,-127
98425,10.954,-6.943,-0.377,-0.922872,-0.791278,1.068352,99771.62,-38,-133,-127
98436,10.594,-6.698,-0.717,-0.985661,-0.866305,1.107196,99768.65,-33,-132,-131
98446,10.809,-6.547,-0.705,-1.026102,-0.940800,1.132205,99768.74,-28,-130,-134
98456,11.545,-6.542,-0.194,-1.042597,-1.015296,1.144976,99768.74,-23,-129,-136
98466,12.125,-6.443,0.244,-1.063881,-1.092452,1.166793,99772.95,-23,-129,-136
98476,12.428,-6.154,0.317,-1.103790,-1.153644,1.193398,99770.36,-17,-128,-139
98486,12.497,-5.711,0.266,-1.133056,-1.219626,1.234903,99770.83,-12,-126,-143
98496,12.594,-5.033,0.705,-1.138909,-1.286140,1.276939,99769.00,-6,-124,-146
98506,12.699,-4.663,0.816,-1.123478,-1.334030,1.316315,99769.00,-6,-124,-146
98515,12.871,-4.531,0.713,-1.136780,-1.349993,1.359416,99771.30,+1,-122,-148
98526,13.565,-4.165,1.136,-1.174560,-1.328176,1.383361,99772.23,+7,-120,-152
98536,14.695,-3.055,3.060,-1.115496,-1.322855,1.323233,99769.16,+13,-117,-155
98546,15.562,-2.438,4.460,-0.878175,-1.433002,1.331214,99766.57,+13,-117,-155
98555,15.869,-3.648,3.629,-0.718542,-1.770360,1.650480,99766.57,+20,-116,-157
98566,14.243,-6.847,5.380,-0.523258,-2.423258,2.111287,99771.40,+32,-114,-158
98576,14.356,-11.186,8.260,-0.063515,-3.095845,2.772700,99769.48,+46,-115,-157
98586,15.521,-10.118,9.796,0.481897,-3.406065,3.138259,99766.35,+46,-115,-157
98596,15.225,-7.910,9.647,0.951218,-3.372010,3.320241,99765.48,+63,-116,-155
98606,13.956,-6.336,9.510,1.412025,-3.304964,3.404846,99765.48,+78,-119,-151
98616,11.433,-5.905,7.871,1.638172,-3.200671,3.141452,99767.59,+92,-122,-144
98626,8.250,-7.736,4.642,1.627530,-3.085203,2.809947,99766.76,+92,-122,-144
98636,4.764,-10.268,3.248,1.692447,-3.100634,2.575287,99765.71,+106,-123,-138
98646,8.397,-7.248,4.417,1.956374,-3.094249,2.174076,99768.16,+119,-125,-131
98656,11.211,-3.017,4.722,1.977658,-2.814891,1.523306,99768.16,+128,-128,-122
98666,10.924,-0.964,4.980,1.687658,-2.466891,1.116774,99768.43,+128,-128,-122
98676,8.956,-0.120,5.164,1.384356,-2.212543,0.881050,99767.09,+135,-130,-116
98685,6.795,-0.233,4.926,1.230576,-2.034818,0.638408,99766.24,+140,-131,-109
98696,5.434,-0.472,4.733,1.161402,-1.874121,0.330848,99766.55,+143,-133,-103
98706,5.040,-0.439,4.472,1.139053,-1.682029,-0.044821,99766.55,+143,-133,-103
98716,5.110,-0.622,4.313,1.119897,-1.494195,-0.453482,99768.23,+145,-134,-98
98721,5.415,-0.770,4.155,1.104466,-1.365424,-0.774876,99764.03,+145,-137,-92
98731,5.543,-0.958,3.712,1.083182,-1.247828,-1.102123,99764.03,+145,-137,-92
98741,5.759,-1.261,3.128,1.045402,-1.099901,-1.512912,99764.66,+142,-139,-86
98751,5.605,-1.298,2.575,1.023585,-0.966342,-1.917848,99765.33,+138,-143,-81
98761,5.403,-1.402,2.308,1.042741,-0.843956,-2.316398,99765.33,+133,-146,-76
98771,5.292,-1.507,2.249,1.112980,-0.737002,-2.701113,99762.91,+133,-146,-76
98781,5.324,-1.480,2.291,1.229512,-0.647076,-3.065076,99761.49,+126,-150,-71
98791,5.534,-1.657,2.410,1.414686,-0.577369,-3.414672,99759.66,+117,-154,-66
98801,6.060,-2.203,2.657,1.648814,-0.531076,-3.752562,99759.66,+106,-160,-60
98810,6.604,-3.074,2.844,1.884007,-0.499681,-4.062250,99759.66,+106,-160,-60
98821,6.935,-3.950,3.142,2.105896,-0.473076,-4.326176,99763.52,+93,-165,-53
98831,7.257,-4.693,3.279,2.299584,-0.445938,-4.555516,99761.59,+80,-169,-46
98841,7.758,-5.120,3.348,2.471456,-0.417737,-4.788579,99762.33,+65,-174,-38
98851,8.301,-5.356,3.409,2.618850,-0.381021,-5.032818,99760.56,+65,-174,-38
98862,9.076,-5.625,3.591,2.710373,-0.322489,-5.271735,99760.56,+48,-177,-30
98871,9.879,-6.122,3.683,2.738043,-0.248526,-5.497350,99761.78,+29,-177,-22
98881,10.821,-6.838,3.549,2.713566,-0.159131,-5.686781,99762.30,+10,-175,-14
98891,11.879,-7.748,3.309,2.706116,-0.066544,-5.842689,99763.75,+10,-175,-14
98902,12.646,-9.085,3.500,2.699731,0.053713,-5.969331,99763.75,-7,-170,-7
98911,13.019,-10.540,3.865,2.651309,0.186740,-6.075753,99765.73,-23,-165,+0
98921,13.083,-11.994,4.065,2.567768,0.316043,-6.160891,99765.73,-39,-158,+7
98931,13.166,-13.387,4.050,2.452300,0.445878,-6.248157,99766.62,-39,-158,+7
98941,13.280,-14.176,4.104,2.325126,0.532612,-6.355111,99764.48,-55,-151,+12
98951,13.999,-15.159,4.081,2.159107,0.644887,-6.425349,99765.10,-71,-145,+19
98957,14.523,-16.179,4.275,1.957970,0.742795,-6.414175,99765.10,-71,-145,+19
98966,14.163,-17.119,4.418,1.608374,0.866776,-6.310946,99767.98,-87,-135,+23
98976,12.623,-18.308,4.944,1.035292,1.108886,-6.016157,99766.00,-102,-125,+26
98987,11.158,-19.847,5.459,0.484026,1.416446,-5.535662,99764.91,-114,-115,+28
98996,9.875,-22.320,4.895,0.021622,1.727198,-4.891277,99765.42,-114,-115,+28
99006,7.546,-24.904,2.668,-0.389166,1.957069,-4.155901,99765.42,-126,-105,+31
99016,5.026,-25.291,-1.087,-0.773882,2.054977,-3.392324,99771.42,-131,-97,+33
99026,3.102,-24.980,-2.785,-1.001092,1.956537,-2.548398,99770.59,-136,-92,+35
99036,0.922,-24.683,-2.789,-1.169239,1.619180,-1.521426,99769.77,-136,-92,+35
99046,-0.125,-24.020,-2.005,-1.345900,1.192960,-0.336950,99766.53,-138,-90,+36
99056,1.276,-22.030,-1.310,-1.294817,0.723107,0.819325,99766.53,-136,-90,+35
99066,5.135,-19.207,0.030,-0.911166,0.195254,1.821820,99772.64,-133,-96,+33
99076,11.273,-12.446,1.126,-0.312010,-0.353351,2.329452,99771.39,-133,-96,+33
99086,17.105,2.781,4.121,0.421237,-0.890250,2.429489,99767.84,-128,-102,+33
99096,26.618,25.165,-3.210,1.008686,-1.246231,1.452536,99767.75,-125,-106,+31
99106,14.987,7.392,-9.821,0.005659,-0.731149,1.600462,99767.75,-121,-109,+31
99117,7.046,-12.471,-2.437,0.998044,-0.956764,2.856241,99772.02,-121,-109,+31
99126,13.662,-15.182,4.493,2.229346,-1.294121,3.379305,99769.42,-114,-116,+33
99136,14.337,-14.572,-4.590,1.576979,-1.203130,3.157415,99768.53,-108,-122,+34
99146,10.753,-13.822,-4.907,0.156778,-0.340048,3.124424,99767.70,-101,-128,+33
99156,12.057,-8.843,1.671,-0.020946,0.183548,2.974901,99767.70,-101,-128,+33
99166,10.401,-5.568,6.014,0.465402,0.189933,2.670003,99774.53,-94,-133,+34
99176,8.415,-5.829,6.627,0.912906,0.003162,2.507177,99766.47,-89,-137,+36
99186,7.281,-7.166,4.552,0.875659,-0.233627,2.373617,99769.48,-83,-141,+39
99196,6.738,-9.146,4.898,0.678246,-0.274067,2.267728,99768.97,-83,-141,+39
99206,8.635,-9.524,3.703,0.485090,-0.330471,2.201214,99768.97,-76,-145,+38
99216,8.214,-7.620,1.450,-0.156634,-0.246929,1.917067,99767.77,-73,-148,+39
99226,8.428,-6.670,1.134,-0.685019,-0.083572,1.697306,99772.50,-67,-150,+36
99236,8.616,-6.215,0.571,-0.905845,-0.003223,1.473820,99768.61,-67,-150,+36
99247,8.567,-5.247,0.588,-0.933515,0.056905,1.283857,99768.08,-64,-153,+34
99256,8.537,-4.500,0.752,-0.779203,0.121823,1.142848,99768.08,-60,-154,+33
99266,8.585,-4.232,0.968,-0.534964,0.139382,1.061435,99769.65,-57,-156,+32
99276,8.817,-3.885,1.253,-0.229001,0.102667,1.035894,99770.07,-57,-156,+32
99287,8.833,-3.857,1.659,0.088668,0.032428,1.039086,99772.35,-55,-158,+31
99296,8.662,-3.983,2.187,0.318008,-0.011737,1.024719,99768.24,-51,-158,+32
99306,8.578,-4.189,2.496,0.394099,-0.013333,0.986939,99768.24,-49,-159,+33
99312,8.401,-4.383,2.812,0.340356,-0.003223,0.955545,99771.55,-49,-159,+33
99321,8.180,-4.677,2.900,0.207861,0.012740,0.910848,99771.55,-46,-160,+34
99332,8.085,-4.832,2.845,-0.011900,0.080850,0.828371,99768.96,-44,-162,+33
99342,8.076,-4.754,2.832,-0.275827,0.196850,0.738976,99769.12,-44,-162,+33
99351,8.259,-4.470,2.359,-0.489735,0.299015,0.668206,99768.91,-42,-162,+33
99361,8.569,-4.038,2.001,-0.551992,0.349034,0.653839,99769.84,-40,-163,+31
99372,8.775,-3.699,1.876,-0.480157,0.355419,0.692683,99772.19,-39,-163,+31
99382,8.872,-3.581,1.707,-0.354047,0.323492,0.781013,99769.02,-39,-163,+31
99391,8.999,-3.500,1.567,-0.191221,0.262300,0.892224,99769.02,-36,-165,+30
99401,8.862,-3.862,1.867,-0.045955,0.178759,0.999710,99768.59,-33,-165,+31
99411,8.590,-4.542,2.552,0.008320,0.123951,1.080591,99768.59,-31,-167,+31
99422,8.003,-5.352,3.146,-0.086396,0.120759,1.101343,99770.23,-31,-167,+31
99431,7.630,-5.744,3.310,-0.234854,0.161199,1.054517,99770.59,-26,-168,+30
99441,7.757,-5.413,3.261,-0.363625,0.211749,0.989068,99767.11,-24,-169,+30
99451,8.167,-5.113,2.732,-0.447166,0.243676,0.965123,99768.00,-22,-169,+28
99462,8.258,-5.365,1.802,-0.464726,0.242080,0.976829,99768.00,-22,-169,+28
99472,8.428,-5.601,1.513,-0.471643,0.263896,0.997582,99771.17,-19,-170,+28
99481,8.465,-5.613,1.663,-0.487607,0.291034,1.019398,99770.97,-16,-171,+26
99491,8.513,-5.696,1.702,-0.504102,0.321364,1.040683,99767.59,-12,-172,+25
99502,8.577,-5.650,1.922,-0.544542,0.368190,1.073141,99767.59,-12,-172,+25
99511,8.694,-5.668,2.292,-0.574340,0.393199,1.119435,99767.59,-8,-173,+25
99521,8.520,-5.553,2.790,-0.595093,0.377768,1.180095,99771.55,-6,-173,+22
99531,8.362,-5.468,2.920,-0.609992,0.330942,1.257783,99771.55,-1,-174,+21
99542,8.535,-5.638,2.824,-0.630744,0.286777,1.332279,99770.92,-1,-174,+21
99551,8.563,-5.570,2.880,-0.683955,0.251658,1.408903,99770.19,+1,-173,+20
99561,8.713,-5.386,3.170,-0.726524,0.201639,1.494040,99770.19,+6,-175,+17
99571,9.416,-5.799,3.021,-0.748340,0.119162,1.582902,99771.17,+11,-175,+15
99581,9.810,-6.352,2.468,-0.767496,0.054245,1.666976,99768.52,+16,-175,+15
99592,10.362,-6.645,1.955,-0.782927,0.019658,1.736682,99769.48,+16,-176,+14
99601,10.863,-6.730,1.574,-0.794102,-0.029828,1.798407,99769.48,+21,-176,+11
99611,11.305,-6.469,1.111,-0.774414,-0.081443,1.881416,99771.94,+27,-176,+9
99621,11.508,-6.278,1.112,-0.744083,-0.125608,1.995287,99770.84,+33,-177,+6
99632,11.687,-6.285,1.126,-0.714285,-0.195315,2.117141,99770.84,+33,-177,+6
99641,12.005,-6.577,1.319,-0.708432,-0.260232,2.242718,99770.48,+41,-175,+4
99651,12.418,-7.011,1.864,-0.757918,-0.307058,2.356058,99766.73,+48,-174,+2
99661,12.804,-7.737,2.090,-0.849973,-0.341645,2.510370,99766.73,+57,-174,+0
99666,13.713,-7.883,2.177,-0.949478,-0.370379,2.649782,99770.81,+57,-174,+0
99677,15.015,-7.284,2.537,-1.085166,-0.398048,2.736516,99768.31,+65,-173,-3
99686,16.959,-6.133,3.609,-1.265019,-0.405498,2.838681,99769.09,+65,-173,-3
99696,18.844,-5.247,4.160,-1.448065,-0.334195,2.955745,99767.11,+74,-171,-7
99706,20.540,-3.979,4.584,-1.679000,-0.238416,3.071745,99767.11,+83,-167,-12
99717,22.576,-2.151,5.250,-2.007844,-0.076654,3.161140,99770.16,+92,-163,-18
99726,24.861,-0.201,5.915,-2.402670,0.155878,3.185617,99767.46,+92,-163,-18
99736,26.437,1.462,6.967,-2.690541,0.363401,3.206901,99766.59,+103,-159,-26
99746,24.399,-2.867,5.687,-2.633073,0.158006,3.513397,99764.98,+112,-152,-33
99757,19.464,-10.758,3.158,-2.137679,-0.632709,4.343488,99764.98,+126,-146,-39
99767,15.757,-15.142,1.896,-1.447000,-1.376066,5.034166,99769.86,+126,-146,-39
99776,14.462,-16.889,3.900,-0.921808,-1.508029,4.891561,99768.92,+141,-138,-41
99786,16.145,-11.368,7.336,-0.564762,-1.315406,4.210461,99767.88,+156,-131,-41
99796,13.639,-2.708,6.653,-0.252946,-1.175993,3.141984,99766.83,+165,-125,-42
99807,11.089,4.243,4.591,0.084944,-1.288268,2.278902,99766.83,+165,-125,-42
99816,1.720,0.679,3.719,0.018430,-1.079681,1.948462,99768.99,+173,-122,-42
99826,4.915,-3.171,6.304,0.440925,-1.048819,1.683471,99764.37,+180,-118,-41
99836,8.732,0.248,3.548,1.011347,-1.346268,0.383527,99767.23,+183,-119,-38
99847,7.466,2.672,1.180,0.812870,-1.082874,-0.499243,99767.32,+183,-119,-38
99856,5.906,1.937,1.574,0.378668,-0.718378,-0.948876,99767.32,+185,-122,-36
99866,4.317,0.425,1.074,0.124320,-0.574177,-1.398509,99768.37,+183,-125,-35
99876,3.294,-0.227,0.309,-0.018818,-0.502874,-1.887517,99767.29,+180,-130,-34
99887,2.258,-0.402,0.396,-0.057662,-0.398048,-2.385040,99765.51,+177,-135,-36
99897,1.813,-0.718,0.694,0.030668,-0.283645,-2.849572,99763.79,+177,-135,-36
99902,1.941,-1.033,1.016,0.142411,-0.221388,-3.199168,99763.79,+170,-143,-35
99911,2.427,-1.234,1.049,0.282356,-0.191058,-3.551425,99763.79,+170,-143,-35
99921,3.247,-1.471,0.934,0.445714,-0.167645,-3.998397,99765.13,+160,-152,-34
99932,4.010,-1.803,0.766,0.559053,-0.131461,-4.413442,99762.59,+149,-162,-33
99942,4.672,-2.113,0.800,0.626631,-0.079315,-4.791240,99761.18,+135,-173,-31
99951,5.081,-2.367,0.795,0.664411,-0.003755,-5.118488,99758.23,+135,-173,-31
99961,5.232,-2.654,0.861,0.710705,0.082447,-5.402634,99756.78,+117,-183,-30
99972,5.367,-3.181,1.201,0.769237,0.213878,-5.640487,99758.59,+99,-194,-28
99982,5.757,-3.954,1.363,0.805952,0.364997,-5.817148,99758.59,+76,-201,-26
99991,6.301,-4.697,1.740,0.842668,0.492703,-5.984230,99758.44,+76,-201,-26
100001,7.158,-5.029,1.885,0.916631,0.603382,-6.162487,99760.83,+52,-209,-22
100012,8.264,-5.200,1.849,1.023053,0.722575,-6.343404,99760.83,+24,-211,-19
100022,9.662,-5.880,1.847,1.092227,0.874226,-6.499312,99762.40,-6,-211,-13
100031,11.313,-6.776,1.349,1.109787,0.993951,-6.646707,99764.48,-6,-211,-13
100041,12.866,-7.702,1.197,1.209291,1.075896,-6.765900,99762.91,-36,-206,-7
100051,14.196,-8.899,1.541,1.369457,1.131767,-6.850505,99762.55,-65,-195,-2
100062,15.277,-10.763,1.855,1.581768,1.115272,-6.917018,99762.55,-92,-179,+4
100072,16.073,-13.348,2.124,1.810043,1.006189,-6.912230,99766.73,-92,-179,+4
100081,16.442,-16.135,2.466,1.982979,0.837510,-6.844120,99764.38,-113,-158,+11
100091,16.535,-18.402,2.440,1.932961,0.691180,-6.737165,99764.85,-130,-135,+16
100102,16.184,-19.297,3.201,1.642429,0.675217,-6.520597,99764.85,-138,-113,+19
100112,14.808,-19.626,4.724,1.264631,0.777382,-6.092781,99764.85,-138,-113,+19
100121,12.088,-19.940,6.354,0.929402,0.955107,-5.451056,99767.88,-142,-92,+22
100131,9.476,-21.869,6.096,0.691017,1.175400,-4.720469,99767.77,-142,-76,+22
100142,6.461,-24.621,3.060,0.357916,1.423363,-3.992544,99767.99,-141,-66,+24
100152,4.037,-25.985,-0.578,-0.080010,1.584592,-3.293351,99771.16,-138,-59,+26
100162,2.488,-25.735,-2.685,-0.531772,1.526060,-2.480288,99771.16,-138,-59,+26
100171,0.535,-24.969,-3.113,-1.071863,1.308428,-1.406490,99772.27,-135,-56,+27
100182,0.415,-23.227,-2.264,-1.509257,0.945529,-0.189555,99771.37,-131,-56,+25
100192,2.333,-19.835,-0.806,-1.473606,0.483125,0.918297,99770.04,-126,-60,+23
100202,3.542,-17.723,-0.006,-0.986193,-0.044728,1.829801,99770.04,-126,-60,+23
100211,11.097,-12.480,3.798,-0.257735,-0.492232,2.456627,99767.65,-120,-64,+21
100221,15.968,-0.439,6.765,0.518613,-0.709333,2.371489,99767.65,-113,-69,+20
100232,24.478,21.508,5.050,0.877787,-0.844489,1.429123,99768.90,-108,-71,+19
100242,16.713,9.391,-7.245,-0.678634,-0.138379,1.075270,99768.59,-108,-71,+19
100251,7.109,-17.625,-8.397,-0.867001,-0.232562,2.572627,99769.68,-103,-75,+17
100257,15.004,-18.762,4.828,0.116870,-0.748177,3.360681,99769.68,-103,-75,+17
100267,21.423,-13.916,4.859,0.632484,-1.080745,3.155819,99770.17,-95,-82,+15
100277,14.354,-11.886,-4.866,-0.413643,-0.553424,3.110590,99769.28,-87,-89,+13
100287,11.389,-8.680,0.892,-0.932982,0.139382,3.351635,99770.53,-80,-95,+11
100296,10.737,-5.381,3.524,-0.233790,0.041474,3.167525,99768.50,-80,-95,+11
100306,8.294,-4.484,2.762,0.387714,-0.185737,2.825379,99768.50,-73,-101,+11
100317,6.052,-6.397,2.842,0.714962,-0.241608,2.574223,99769.27,-65,-105,+11
100327,6.028,-8.326,4.278,0.718686,-0.195847,2.379471,99770.37,-60,-109,+12
100336,7.506,-9.509,5.084,0.750081,-0.150617,2.173544,99768.18,-60,-109,+12
100346,9.304,-9.335,2.140,0.574485,-0.252250,1.966021,99768.65,-55,-113,+14
100357,9.059,-8.095,-0.114,0.049824,-0.191058,1.747856,99768.65,-49,-115,+14
100367,8.957,-6.615,1.368,-0.488139,0.088832,1.573856,99770.46,-46,-117,+13
100376,8.671,-5.719,1.828,-0.861148,0.240483,1.409967,99771.40,-42,-119,+11
100386,8.154,-4.896,1.742,-1.021845,0.296355,1.230646,99768.65,-42,-119,+11
100397,8.403,-4.016,1.041,-0.879239,0.322428,1.088572,99766.51,-40,-119,+9
100407,8.987,-3.536,1.214,-0.551992,0.292098,1.025783,99766.51,-38,-120,+8
100417,9.508,-3.370,1.422,-0.238579,0.244740,1.028444,99770.70,-36,-122,+8
100426,9.477,-3.432,1.618,-0.063515,0.196318,1.060903,99771.31,-36,-122,+8
100436,9.009,-4.167,2.071,0.022155,0.162263,1.086976,99770.75,-33,-123,+9
100447,8.498,-4.572,2.213,0.075898,0.118098,1.042279,99769.92,-31,-124,+9
100457,8.153,-4.611,2.600,0.037054,0.117034,0.958206,99769.92,-28,-125,+8
100466,8.001,-4.513,2.948,-0.063515,0.154814,0.858701,99768.30,-28,-125,+8
100476,8.044,-4.762,3.061,-0.206653,0.200575,0.768774,99772.61,-26,-126,+9
100487,8.306,-4.328,3.293,-0.347662,0.246336,0.695875,99770.38,-25,-127,+8
100497,8.459,-4.135,2.952,-0.417900,0.277731,0.663417,99769.75,-23,-127,+7
100506,8.499,-3.992,2.608,-0.392891,0.252190,0.680444,99769.75,-23,-127,+7
100516,8.693,-3.758,2.321,-0.300304,0.201639,0.719288,99772.34,-21,-127,+7
100527,8.609,-4.532,1.749,-0.233790,0.154814,0.773563,99772.45,-19,-129,+6
100537,8.647,-4.605,1.904,-0.202396,0.112245,0.823050,99766.67,-17,-128,+6
100547,8.563,-4.608,2.539,-0.213570,0.120226,0.848059,99770.05,-17,-128,+6
100556,8.282,-4.748,3.039,-0.280616,0.160135,0.844334,99770.05,-15,-130,+6
100567,8.150,-4.456,3.275,-0.319460,0.175034,0.835288,99772.33,-12,-130,+4
100577,8.121,-4.393,3.300,-0.322653,0.169181,0.842206,99769.36,-10,-131,+4
100587,8.137,-4.535,3.126,-0.310946,0.146832,0.860829,99768.84,-10,-131,+4
100596,8.215,-5.022,2.973,-0.312010,0.124483,0.882114,99770.92,-8,-131,+4
100606,8.277,-5.248,2.552,-0.362561,0.122355,0.908719,99770.92,-5,-131,+2
100613,8.664,-4.871,2.620,-0.400341,0.138318,0.925747,99773.74,-5,-131,+2
100622,8.856,-4.569,2.617,-0.413111,0.157474,0.958738,99773.74,-3,-133,+2
100632,8.923,-4.498,2.628,-0.409919,0.162795,1.018334,99770.93,-1,-133,+2
100642,8.715,-4.646,2.672,-0.390230,0.147896,1.097618,99769.63,+2,-133,+0
100652,8.735,-4.286,3.061,-0.365753,0.132997,1.181692,99770.20,+2,-133,+0
100662,8.629,-4.207,3.098,-0.339148,0.119694,1.297159,99770.97,+5,-135,+0
100672,8.385,-5.231,2.508,-0.333827,0.096814,1.416884,99771.75,+8,-134,+0
100682,8.583,-5.820,1.800,-0.377460,0.070740,1.527031,99769.45,+13,-136,-1
100691,9.003,-5.765,1.770,-0.453019,0.065419,1.611636,99769.45,+13,-136,-1
100702,9.411,-6.009,1.524,-0.472707,0.045731,1.677086,99769.14,+17,-136,-3
100712,9.588,-6.637,1.162,-0.506230,0.022850,1.738811,99769.14,+23,-137,-3
100722,9.960,-6.694,1.208,-0.565827,0.006355,1.793618,99771.66,+28,-137,-5
100731,10.253,-6.510,1.209,-0.622230,-0.014929,1.840443,99770.41,+28,-137,-5
100742,10.364,-6.425,1.179,-0.666928,-0.039939,1.912810,99769.16,+33,-137,-7
100752,10.709,-6.798,1.471,-0.714817,-0.084104,1.988902,99771.34,+39,-137,-8
100762,11.278,-7.131,1.679,-0.785588,-0.117627,2.049563,99771.34,+46,-138,-11
100772,11.276,-7.530,1.869,-0.860083,-0.144232,2.152792,99770.09,+46,-138,-11
100782,11.469,-7.495,1.848,-0.969698,-0.166049,2.274113,99770.24,+52,-137,-14
100792,11.587,-7.506,1.736,-1.139973,-0.161260,2.367764,99769.66,+60,-136,-17
100802,12.394,-7.217,1.793,-1.350156,-0.129333,2.437471,99769.66,+66,-137,-20
100811,13.865,-6.776,1.275,-1.599716,-0.102195,2.493874,99769.66,+66,-137,-20
100822,15.917,-6.146,1.216,-1.833312,-0.137847,2.554535,99770.54,+75,-135,-24
100832,18.121,-4.990,2.216,-1.978046,-0.191058,2.606149,99770.49,+83,-133,-28
100842,20.047,-3.466,2.739,-2.092450,-0.177755,2.680645,99768.73,+92,-131,-34
100852,21.495,-2.213,2.007,-2.308486,-0.064416,2.793984,99766.07,+92,-131,-34
100861,23.166,-0.214,2.198,-2.592101,0.063291,2.877525,99766.07,+101,-128,-39
100872,25.586,1.355,3.849,-2.676174,0.072869,2.988736,99769.13,+113,-122,-47
100882,25.742,-0.868,5.339,-2.218560,-0.349626,3.524571,99768.15,+124,-118,-50
100892,22.118,-6.701,4.689,-1.296945,-1.189296,4.558992,99768.27,+124,-118,-50
100901,18.563,-11.162,7.155,-0.313075,-1.820910,5.348111,99768.27,+141,-111,-52
100912,16.880,-16.425,6.268,0.290870,-2.098139,5.267763,99768.75,+159,-105,-50
100922,16.414,-12.227,6.701,0.388778,-2.098671,4.672864,99768.23,+176,-99,-47
100932,14.926,-4.781,8.036,0.544686,-1.913497,3.775195,99768.23,+176,-99,-47
100941,11.544,2.091,7.057,0.706980,-1.742158,2.869544,99767.56,+187,-96,-44
100952,4.003,1.793,5.607,0.423897,-1.534635,2.416186,99766.98,+198,-94,-41
100962,2.206,-3.622,7.664,0.579274,-1.452690,2.044774,99766.98,+207,-92,-37
100972,7.557,-1.803,6.104,1.221530,-1.554323,0.859233,99766.78,+207,-92,-37
100982,8.386,1.168,2.880,0.984209,-1.410653,-0.172528,99767.41,+212,-94,-33
100992,7.038,1.590,1.873,0.331310,-1.052543,-0.677500,99766.00,+214,-97,-30
101002,5.085,0.124,1.620,-0.200799,-0.820011,-1.009004,99766.27,+215,-102,-29
101012,3.235,-0.988,1.228,-0.493460,-0.704012,-1.430435,99767.18,+215,-102,-29
101022,2.038,-1.372,1.032,-0.643515,-0.586415,-1.951903,99766.18,+215,-107,-28
101032,1.552,-1.501,1.266,-0.679698,-0.462434,-2.493058,99764.30,+213,-116,-29
101042,1.885,-1.415,1.745,-0.578065,-0.377296,-2.995370,99764.30,+206,-124,-30
101052,2.716,-1.292,1.848,-0.377992,-0.337920,-3.454049,99761.87,+206,-124,-30
101062,3.562,-1.385,1.742,-0.139075,-0.329938,-3.895168,99761.87,+199,-135,-31
101072,4.413,-1.657,1.245,0.111549,-0.330471,-4.300635,99761.95,+189,-146,-29
101082,4.887,-2.118,1.087,0.299916,-0.304397,-4.661406,99760.13,+176,-158,-28
101092,5.306,-2.714,0.770,0.459549,-0.257039,-4.957258,99760.49,+176,-158,-28
101102,5.259,-3.425,0.772,0.573952,-0.188397,-5.205222,99760.34,+161,-171,-27
101112,5.113,-4.156,0.979,0.599494,-0.070269,-5.453717,99760.34,+143,-182,-24
101122,5.371,-4.635,1.499,0.580338,0.100538,-5.694231,99760.97,+123,-192,-22
101132,6.223,-4.843,2.085,0.613861,0.272410,-5.894836,99759.06,+101,-200,-20
101142,7.181,-5.107,2.278,0.703255,0.410226,-6.034248,99758.94,+101,-200,-20
101152,8.513,-5.347,1.849,0.832558,0.518777,-6.145992,99758.94,+76,-206,-19
101161,9.617,-5.902,1.302,1.076264,0.585290,-6.290194,99758.94,+52,-210,-15
101172,10.405,-7.095,0.798,1.207695,0.655529,-6.411514,99761.32,+26,-211,-11
101182,11.882,-8.395,0.953,1.159805,0.775254,-6.512615,99762.77,+26,-211,-11
101192,13.373,-9.957,1.209,1.123090,0.846556,-6.582322,99762.15,+1,-209,-7
101201,14.159,-11.733,1.585,1.254521,0.780575,-6.687147,99760.60,-23,-203,-3
101212,14.354,-13.333,2.130,1.392869,0.652336,-6.744083,99760.60,-46,-195,+2
101222,14.756,-14.530,2.914,1.437034,0.528887,-6.722267,99765.20,-46,-195,+2
101232,14.810,-15.663,3.363,1.325291,0.473547,-6.612120,99764.51,-67,-187,+7
101242,14.207,-16.618,4.093,1.082117,0.565070,-6.386505,99762.07,-86,-176,+12
101253,13.165,-17.619,5.247,0.808613,0.773125,-6.015092,99763.59,-102,-165,+15
101262,11.495,-19.020,6.176,0.549475,1.034391,-5.520231,99767.07,-102,-165,+15
101272,9.723,-20.606,5.669,0.269586,1.320666,-4.970561,99768.32,-115,-154,+18
101282,8.141,-21.798,3.349,-0.070432,1.592042,-4.377259,99768.32,-126,-145,+21
101292,6.536,-22.557,-0.036,-0.500377,1.753271,-3.763204,99770.41,-135,-137,+23
101302,4.727,-22.859,-1.045,-0.872322,1.721345,-3.099663,99768.74,-135,-137,+23
101312,2.097,-23.389,-0.960,-1.293753,1.569693,-2.244563,99768.74,-142,-131,+25
101322,0.621,-23.335,-0.794,-1.692303,1.360042,-1.206417,99771.24,-145,-128,+24
101331,1.651,-20.271,0.041,-1.769991,1.062061,-0.150179,99768.70,-144,-128,+22
101342,3.208,-17.504,0.730,-1.466689,0.644887,0.810811,99768.07,-144,-128,+22
101352,7.048,-15.514,1.790,-0.928726,0.208557,1.643563,99771.45,-141,-130,+20
101362,13.474,-9.506,1.693,-0.363625,-0.247461,1.990499,99771.38,-137,-135,+20
101372,16.895,4.052,1.865,0.163164,-0.825865,2.043177,99770.09,-132,-141,+18
101382,24.981,19.896,-3.047,0.577677,-1.038709,1.282260,99770.15,-132,-141,+18
101392,14.620,0.661,-8.889,-0.084267,-0.680067,1.551508,99772.16,-129,-143,+17
101402,10.900,-13.483,-0.036,0.916631,-0.937608,2.987140,99772.16,-122,-148,+17
101412,16.426,-11.152,4.089,2.064924,-1.207919,3.373984,99772.16,-113,-157,+20
101422,13.742,-11.607,-4.745,1.256117,-1.020085,3.261709,99772.41,-113,-157,+20
101432,10.152,-10.406,-2.926,0.215843,-0.436360,3.406442,99770.74,-105,-163,+20
101442,10.523,-6.627,1.423,0.233934,-0.184140,3.281397,99772.51,-94,-169,+20
101452,9.818,-3.863,5.191,0.601622,-0.155406,3.026516,99769.24,-86,-175,+22
101463,7.911,-4.061,7.360,1.164594,-0.283113,2.809415,99769.24,-86,-175,+22
101472,5.937,-5.872,9.099,1.533346,-0.462434,2.635416,99770.92,-78,-180,+25
101482,6.524,-9.322,6.750,1.683401,-0.573645,2.520480,99768.84,-71,-184,+29
101492,8.660,-10.988,1.928,1.186411,-0.710929,2.427893,99768.27,-63,-187,+32
101502,8.708,-11.145,-0.868,0.411659,-0.574177,2.288480,99768.27,-63,-187,+32
101513,8.826,-9.232,-0.898,-0.403001,-0.231498,2.128315,99773.78,-57,-190,+31
101522,8.245,-8.222,-0.721,-1.128799,0.043071,1.873434,99773.78,-49,-194,+28
101532,7.779,-6.148,-0.386,-1.475202,0.288373,1.531288,99771.28,-45,-194,+25
101542,7.940,-5.007,-0.970,-1.295349,0.435235,1.253526,99770.50,-45,-194,+25
101552,8.972,-3.989,-0.587,-0.835074,0.451199,1.121031,99771.80,-41,-195,+22
101558,9.648,-3.296,0.243,-0.443974,0.373511,1.093894,99771.80,-37,-196,+20
101567,9.473,-3.111,1.354,-0.150249,0.288373,1.130077,99770.58,-37,-196,+20
101577,9.198,-3.539,2.534,0.081751,0.163859,1.200315,99769.17,-35,-197,+22
101587,8.666,-4.324,2.414,0.238191,0.029236,1.207233,99771.31,-30,-199,+22
101597,8.263,-4.804,1.799,0.324393,-0.023443,1.129013,99765.48,-26,-199,+23
101607,7.988,-5.182,1.824,0.254687,0.009548,1.001306,99765.48,-26,-199,+23
101617,7.830,-5.343,2.343,0.093989,0.095749,0.866683,99771.87,-23,-201,+25
101627,7.678,-5.685,2.762,-0.151845,0.220795,0.722481,99770.62,-21,-201,+23
101637,7.894,-5.150,2.927,-0.454084,0.367125,0.576151,99769.90,-19,-203,+22
101647,8.318,-4.424,2.404,-0.581258,0.440024,0.500591,99768.49,-19,-203,+22
101657,8.653,-4.085,1.628,-0.532836,0.424593,0.516554,99768.49,-17,-202,+21
101667,8.815,-3.923,1.076,-0.372139,0.356483,0.576151,99770.63,-14,-202,+19
101678,8.990,-3.731,1.038,-0.172065,0.262832,0.674591,99771.88,-12,-203,+19
101687,8.739,-4.058,1.864,-0.023075,0.175034,0.788995,99765.31,-12,-203,+19
101697,8.355,-4.849,2.490,-0.006047,0.135658,0.848059,99769.53,-10,-204,+20
101707,7.989,-5.381,2.745,-0.104488,0.163327,0.828903,99769.53,-7,-204,+19
101718,7.785,-5.461,2.796,-0.236451,0.215474,0.769839,99770.40,-4,-205,+19
101727,7.929,-5.347,2.438,-0.352983,0.257511,0.716628,99769.73,-4,-205,+19
101737,8.219,-5.203,1.944,-0.432799,0.287841,0.692151,99770.87,-3,-205,+17
101747,8.677,-5.051,1.569,-0.445570,0.286777,0.700664,99768.95,+0,-205,+17
101757,8.826,-4.767,1.916,-0.443441,0.275603,0.754940,99768.95,+2,-206,+15
101767,8.704,-4.629,2.304,-0.417368,0.247401,0.839545,99771.21,+2,-206,+15
101777,8.739,-4.805,2.478,-0.392891,0.212281,0.929472,99770.21,+5,-206,+14
101787,8.717,-5.115,2.539,-0.385441,0.185144,1.006627,99771.77,+8,-206,+12
101792,8.707,-5.496,2.493,-0.404597,0.180887,1.051325,99766.88,+8,-206,+12
101803,8.614,-5.689,2.292,-0.459937,0.193125,1.078462,99766.88,+12,-205,+12
101813,8.670,-5.671,2.041,-0.538689,0.217070,1.117306,99766.88,+16,-206,+9
101822,8.889,-5.392,1.986,-0.609992,0.226648,1.181159,99772.70,+19,-207,+7
101832,9.205,-5.219,2.133,-0.658414,0.212814,1.280664,99769.73,+19,-207,+7
101842,9.445,-5.025,2.353,-0.678102,0.161731,1.406242,99767.06,+25,-207,+6
101853,9.643,-4.853,2.604,-0.678102,0.076061,1.548847,99767.06,+30,-207,+4
101862,10.308,-5.146,2.586,-0.674909,-0.019718,1.697306,99769.52,+35,-207,+1
101872,10.977,-5.488,2.051,-0.695129,-0.119223,1.842572,99769.52,+35,-207,+1
101882,11.312,-5.551,1.725,-0.708964,-0.216067,2.013379,99770.34,+42,-206,+0
101893,11.494,-5.568,1.452,-0.702579,-0.315571,2.189507,99771.33,+50,-205,-2
101902,11.749,-5.800,1.535,-0.698322,-0.418801,2.377874,99768.42,+58,-205,-4
101913,12.353,-6.047,1.952,-0.718897,-0.484960,2.559324,99770.92,+58,-205,-4
101922,12.970,-6.201,2.496,-0.749405,-0.508195,2.699801,99770.92,+67,-204,-7
101933,13.833,-6.570,3.005,-0.811129,-0.515645,2.853580,99771.81,+78,-201,-9
101943,15.244,-6.935,3.708,-0.920744,-0.511920,2.990865,99770.88,+89,-199,-12
101952,17.014,-7.673,4.339,-1.006414,-0.518837,3.179764,99768.67,+89,-199,-12
101962,19.321,-7.887,4.299,-1.161258,-0.489039,3.384626,99769.09,+100,-196,-15
101972,22.694,-7.341,4.731,-1.468285,-0.392727,3.541066,99768.22,+112,-192,-19
101983,27.005,-4.723,6.232,-1.898229,-0.155939,3.614497,99767.48,+123,-187,-24
101992,29.624,-2.690,5.872,-2.409587,0.118630,3.668773,99767.48,+123,-187,-24
102002,29.078,-2.028,3.963,-3.028431,0.251658,3.709213,99767.13,+135,-180,-33
102012,24.759,-3.936,3.962,-3.416339,0.280392,3.668773,99767.13,+147,-171,-42
102023,17.748,-8.475,1.981,-3.302999,-0.186801,3.967286,99769.05,+157,-162,-52
102032,12.219,-10.446,2.440,-2.479825,-0.872690,4.519084,99766.62,+157,-162,-52
102042,9.623,-11.772,2.897,-1.409753,-1.073828,4.389781,99769.12,+172,-151,-55
102052,9.720,-9.521,5.256,-0.797827,-0.774250,3.753910,99766.57,+184,-143,-57
102063,8.486,-3.826,5.389,-0.509423,-0.551296,2.813672,99766.57,+192,-135,-57
102073,6.758,2.359,3.669,-0.268909,-0.708268,1.838847,99769.88,+192,-135,-57
102082,-1.363,-0.395,1.466,-0.153442,-0.582158,1.389747,99768.44,+197,-133,-56
102092,1.941,-3.760,4.118,0.349934,-0.457645,1.197655,99765.83,+201,-130,-55
102103,4.808,0.746,2.065,0.812870,-0.651333,0.042977,99765.83,+201,-131,-52
102112,3.165,2.484,0.150,0.644191,-0.357076,-0.727518,99765.83,+201,-131,-52
102122,2.668,2.134,0.209,0.322265,-0.009608,-1.115426,99766.65,+199,-133,-50
102132,2.347,2.023,-0.180,0.260008,0.098410,-1.494820,99767.84,+195,-136,-50
102142,1.137,1.340,-0.641,0.407402,0.112245,-1.843352,99768.15,+190,-141,-49
102148,0.184,0.549,-0.569,0.534044,0.140447,-2.089187,99766.43,+190,-141,-49
102157,-0.111,-0.062,-0.164,0.648980,0.199511,-2.344068,99766.43,+183,-146,-48
102167,0.236,-0.360,0.440,0.789989,0.290502,-2.719205,99765.95,+174,-151,-46
102177,0.861,-0.444,0.774,0.926209,0.366593,-3.158728,99764.55,+174,-151,-46
102188,1.453,-0.711,0.553,1.016136,0.438960,-3.595058,99764.70,+164,-158,-44
102198,1.983,-0.821,0.281,1.014539,0.518777,-3.982434,99760.75,+153,-165,-43
102207,2.532,-0.613,-0.236,0.968778,0.598593,-4.321919,99760.75,+138,-171,-41
102217,3.066,-0.619,-0.412,0.936319,0.687988,-4.623094,99767.05,+138,-171,-41
102227,3.660,-1.196,-0.365,0.902796,0.792813,-4.879570,99765.23,+122,-178,-39
102238,4.150,-2.222,-0.024,0.869805,0.904024,-5.115827,99762.27,+105,-184,-38
102247,4.571,-3.430,0.437,0.834154,1.042373,-5.383478,99761.48,+88,-190,-36
102257,4.996,-4.586,0.845,0.742099,1.230207,-5.712854,99761.48,+88,-190,-36
102267,5.507,-5.672,0.782,0.580870,1.439859,-6.068304,99764.30,+66,-193,-36
102278,6.121,-6.464,0.494,0.437200,1.666005,-6.348193,99764.15,+44,-194,-34
102287,7.004,-7.198,0.506,0.307365,1.900666,-6.509954,99766.18,+20,-195,-35
102297,8.359,-7.174,0.071,0.124320,2.059766,-6.625422,99762.27,+20,-195,-35
102307,10.203,-7.241,-0.046,0.082283,2.170977,-6.704707,99762.27,-3,-191,-34
102318,12.782,-8.185,-0.212,0.270650,2.152354,-6.729184,99768.61,-28,-186,-33
102328,15.101,-10.995,0.267,0.643659,2.044335,-6.718542,99765.13,-51,-180,-30
102337,17.532,-14.784,1.053,1.039016,1.832024,-6.657881,99764.97,-51,-180,-30
102347,18.878,-17.957,1.096,1.339126,1.550005,-6.439716,99766.95,-73,-171,-26
102358,18.452,-19.091,1.966,1.635511,1.325455,-5.992744,99766.95,-90,-162,-20
102368,16.268,-20.490,3.454,2.051621,1.148263,-5.333992,99770.60,-106,-154,-13
102377,12.461,-22.626,4.163,2.366630,0.944997,-4.500708,99769.15,-106,-154,-13
102383,9.947,-23.416,2.675,2.399621,0.801327,-3.814287,99769.15,-118,-146,-6
102392,8.153,-23.815,0.148,2.333639,0.693841,-3.088489,99769.15,-124,-140,+0
102403,5.458,-24.021,-2.631,2.153786,0.551235,-2.148251,99770.29,-124,-140,+0
102413,2.358,-24.559,-4.091,1.906887,0.324557,-1.324013,99770.29,-130,-137,+4
102423,-0.181,-25.905,-3.380,1.459383,0.017529,-0.507225,99773.05,-131,-135,+8
102432,1.689,-23.764,-1.652,0.814466,-0.203828,0.351068,99771.75,-129,-137,+9
102443,3.337,-19.782,-2.129,0.199879,-0.329938,1.348242,99770.44,-129,-137,+9
102453,11.991,-4.356,2.371,-0.112469,-0.614617,1.919196,99770.44,-125,-140,+7
102462,23.628,20.561,1.671,0.027476,-0.876947,1.251930,99770.44,-121,-143,+6
102472,18.644,11.773,-2.507,-1.246395,-0.028232,0.893820,99768.61,-119,-145,+3
102482,12.920,-9.142,-4.998,-1.283643,0.038282,2.142150,99773.50,-119,-145,+3
102493,16.551,-10.445,0.109,-0.527515,-0.542250,2.939250,99770.44,-111,-149,+0
102503,12.369,-7.673,2.422,-0.410628,-0.360801,2.845953,99768.25,-103,-154,-1
102512,8.580,-9.767,7.479,-0.521129,0.178226,2.898810,99768.25,-96,-160,-1
102522,9.986,-11.687,11.001,0.689420,0.123951,3.114314,99768.88,-96,-160,-1
102533,13.092,-8.533,2.300,1.557823,-0.859388,2.807819,99770.95,-86,-165,+1
102543,7.312,-4.295,-2.882,1.545585,-1.079681,2.199085,99772.05,-79,-170,+4
102553,5.510,-5.883,1.452,1.536007,-0.576837,2.006462,99768.00,-74,-174,+7
102562,5.834,-8.630,2.460,1.238557,-0.568324,1.899508,99770.81,-74,-174,+7
102573,7.077,-9.443,2.124,0.547879,-0.465626,1.646223,99768.36,-68,-177,+9
102583,8.851,-8.083,0.626,-0.319992,-0.206489,1.413691,99768.36,-64,-179,+8
102592,9.496,-6.288,0.686,-0.874450,0.027107,1.183820,99768.63,-60,-180,+6
102602,9.526,-4.602,1.254,-0.922340,0.129272,1.010884,99769.56,-60,-180,+6
102612,9.234,-3.833,1.429,-0.752597,0.165456,0.920958,99769.56,-57,-181,+4
102623,9.128,-3.129,1.665,-0.505166,0.101603,0.897013,99770.31,-54,-182,+3
102632,9.099,-3.012,2.270,-0.325845,0.033493,0.911380,99770.06,-51,-182,+1
102642,9.237,-3.024,2.783,-0.156634,-0.074526,0.953949,99767.30,-51,-182,+1
102652,9.097,-3.349,2.616,0.045035,-0.203296,0.989600,99769.13,-48,-184,+1
102663,8.875,-3.622,2.373,0.161035,-0.270342,0.986939,99770.86,-45,-185,+1
102673,8.686,-4.118,2.205,0.174338,-0.273003,0.951288,99771.39,-42,-186,+1
102683,8.247,-4.890,2.141,0.090797,-0.240012,0.888499,99770.86,-40,-188,+1
102692,8.082,-5.130,2.046,-0.088524,-0.147957,0.797508,99766.70,-40,-188,+1
102703,8.026,-4.978,1.901,-0.275295,-0.040471,0.693747,99766.70,-37,-188,+1
102713,8.228,-4.351,1.666,-0.348194,0.018061,0.614995,99766.70,-34,-188,+0
102722,8.504,-4.031,1.560,-0.296579,0.026043,0.585729,99771.29,-33,-188,+0
102732,8.583,-4.192,1.502,-0.193350,-0.002691,0.591582,99770.66,-33,-188,+0
102738,8.611,-4.344,1.411,-0.137478,-0.020251,0.599031,99770.88,-31,-190,-1
102748,8.559,-4.512,1.333,-0.110873,-0.022911,0.603288,99770.88,-31,-190,-1
102758,8.411,-4.758,1.345,-0.102359,-0.014929,0.591582,99770.88,-28,-190,-1
102767,8.247,-4.779,1.636,-0.118854,-0.000030,0.567105,99771.15,-27,-191,-1
102777,8.179,-4.670,1.883,-0.158231,0.019126,0.546353,99768.54,-25,-190,-1
102788,8.380,-4.420,2.252,-0.210909,0.034025,0.539967,99768.85,-25,-190,-1
102798,8.704,-4.205,2.631,-0.251882,0.031364,0.566573,99772.09,-24,-192,-3
102807,8.935,-4.061,2.641,-0.263056,0.006355,0.632554,99772.09,-21,-191,-3
102817,8.956,-4.180,2.365,-0.263056,-0.029296,0.715031,99771.07,-19,-192,-4
102828,8.927,-4.227,1.829,-0.269974,-0.054306,0.802829,99773.15,-19,-192,-4
102838,8.957,-4.134,1.417,-0.288065,-0.060691,0.904995,99770.71,-16,-193,-4
102848,9.105,-4.186,1.254,-0.301900,-0.085168,1.031637,99769.62,-12,-193,-5
102858,9.567,-3.901,1.474,-0.305270,-0.135541,1.204927,99769.62,-9,-194,-6
102867,9.902,-3.707,1.940,-0.315203,-0.190526,1.389214,99771.38,-9,-194,-6
102878,10.166,-3.633,2.292,-0.324781,-0.283113,1.622811,99770.95,-4,-195,-7
102888,10.357,-3.740,2.964,-0.345533,-0.358140,1.867049,99769.34,+1,-195,-9
102897,10.539,-4.175,2.842,-0.379056,-0.401241,2.097452,99770.64,+8,-195,-9
102907,10.627,-4.664,2.604,-0.468983,-0.420397,2.325727,99770.64,+8,-195,-9
102918,10.806,-5.107,2.637,-0.622230,-0.365590,2.523140,99771.94,+17,-195,-11
102928,11.343,-5.381,2.995,-0.813258,-0.325682,2.700865,99769.75,+26,-195,-14
102937,12.198,-6.285,3.343,-0.993111,-0.296948,2.869544,99769.70,+36,-195,-17
102947,14.829,-7.788,3.474,-1.226707,-0.287370,3.013213,99771.58,+48,-194,-21
102958,19.390,-7.824,3.329,-1.403367,-0.275131,2.987672,99771.58,+48,-194,-21
102968,22.300,-7.582,2.905,-1.509257,-0.163920,3.023856,99772.48,+57,-192,-25
102978,25.462,-7.074,2.564,-1.548633,-0.118691,3.060571,99767.86,+67,-191,-30
102987,27.127,-6.209,1.234,-1.369312,-0.320893,3.137727,99768.95,+78,-188,-33
102998,27.960,-6.144,0.531,-1.162854,-0.602379,3.310663,99768.58,+78,-188,-33
103008,22.542,-4.114,1.116,-1.360799,-0.716250,3.414424,99768.58,+90,-184,-36
103018,14.138,-4.197,1.286,-1.491698,-0.694966,3.536277,99771.21,+102,-180,-40
103027,6.385,-9.232,2.043,-1.213404,-0.676342,3.610240,99771.63,+115,-177,-42
103037,1.928,-12.198,1.873,-0.717478,-0.788617,3.418681,99768.15,+115,-177,-42
103048,2.002,-7.841,0.852,-0.255607,-0.901424,2.648186,99768.73,+126,-173,-42
103058,2.337,-0.852,0.226,-0.203460,-0.823204,1.837783,99768.73,+133,-169,-42
103068,1.199,2.101,0.667,-0.408322,-0.640691,1.217343,99771.05,+138,-168,-44
103077,1.521,2.048,0.596,-0.367350,-0.597057,0.781545,99769.75,+138,-168,-44
103088,2.777,3.996,0.612,-0.132157,-0.669957,0.143546,99767.56,+139,-167,-43
103094,2.487,3.650,-0.135,0.045567,-0.636434,-0.273629,99766.98,+140,-167,-42
103103,2.204,2.582,-0.897,0.138155,-0.595993,-0.515206,99766.98,+140,-168,-42
103113,1.437,1.561,-1.599,0.248833,-0.558213,-0.788711,99766.98,+138,-169,-41
103122,1.157,1.118,-1.395,0.354723,-0.516177,-1.108509,99771.98,+136,-171,-39
103133,1.380,0.943,-1.094,0.461145,-0.523094,-1.504930,99770.15,+136,-171,-39
103143,1.700,0.734,-1.231,0.579806,-0.559278,-1.922105,99768.27,+131,-173,-37
103153,1.939,0.263,-1.425,0.680906,-0.602911,-2.299902,99768.27,+124,-177,-35
103163,2.257,-0.102,-1.476,0.751677,-0.650801,-2.628214,99767.79,+117,-180,-31
103173,2.651,-0.178,-1.428,0.776686,-0.680599,-2.897462,99767.79,+108,-180,-31
103183,3.397,-0.121,-1.128,0.777750,-0.677406,-3.112966,99764.30,+108,-183,-29
103193,4.280,-0.806,-0.668,0.798503,-0.680067,-3.302929,99767.27,+99,-186,-26
103202,4.940,-2.289,-0.255,0.828301,-0.744984,-3.509388,99765.24,+88,-191,-23
103213,5.492,-3.899,-0.158,0.842136,-0.864709,-3.755755,99765.24,+76,-193,-20
103223,5.929,-5.073,-0.018,0.901200,-0.983901,-3.993076,99769.80,+76,-193,-20
103233,6.522,-5.626,0.044,1.090631,-1.086599,-4.140470,99771.10,+63,-196,-16
103243,7.504,-5.581,0.300,1.469493,-1.261663,-4.187295,99768.98,+51,-199,-11
103252,8.598,-6.201,0.717,2.093658,-1.537827,-4.164947,99767.95,+37,-201,-4
103263,9.528,-8.289,1.642,2.877455,-1.874653,-4.072360,99771.85,+37,-201,-4
103273,10.091,-11.179,2.613,3.634116,-2.259368,-3.925498,99769.04,+25,-201,+5
103283,9.960,-13.439,4.452,4.376409,-2.604708,-3.707333,99768.93,+12,-203,+19
103292,9.182,-16.368,4.939,5.003766,-2.830322,-3.404562,99768.93,+1,-201,+32
103303,8.232,-18.671,6.801,4.981950,-3.022946,-3.103388,99768.77,+1,-201,+32
103313,8.240,-18.780,7.431,4.664280,-3.025607,-2.701113,99768.77,-8,-199,+45
103323,7.160,-18.211,9.700,4.297124,-2.825001,-2.183903,99768.59,-17,-197,+56
103328,5.075,-18.283,11.024,3.893785,-2.587148,-1.728417,99769.26,-17,-197,+56
103337,2.741,-18.540,11.569,3.332409,-2.238084,-1.313371,99767.91,-24,-194,+65
103348,1.212,-18.803,10.920,2.559254,-1.642121,-0.907903,99765.30,-28,-192,+71
103358,1.994,-19.655,8.298,1.764282,-0.950910,-0.689206,99765.30,-28,-192,+71
103368,-0.883,-19.604,6.711,0.941640,-0.136250,-0.360895,99772.05,-31,-190,+74
103377,1.952,-15.419,1.125,0.227017,0.300080,-0.032583,99768.81,-31,-190,+77
103388,7.248,-6.290,-3.302,-0.470579,0.375107,-0.022473,99768.14,-30,-190,+75
103398,11.137,-0.414,-1.620,-0.964909,0.597529,-0.166142,99769.44,-30,-190,+75
103408,12.816,-4.349,-1.355,-0.998432,0.794942,0.095124,99769.44,-31,-190,+73
103417,17.114,-6.451,4.260,-0.319992,0.707676,0.949160,99774.59,-28,-192,+71
103428,19.189,-2.620,5.693,0.684631,0.311786,1.118903,99770.53,-24,-192,+73
103438,12.334,-5.583,-3.092,0.906521,-0.046324,1.310462,99770.33,-20,-193,+77
103448,6.006,-4.960,-0.306,1.124686,-0.125254,1.417416,99771.69,-20,-193,+77
103457,5.731,-4.879,0.952,1.338594,-0.151682,1.196591,99771.69,-16,-192,+81
103468,6.011,-7.503,-0.049,1.191732,-0.186801,0.936389,99773.30,-12,-192,+84
103478,7.472,-9.164,1.010,0.648448,0.043071,0.714499,99772.05,-10,-192,+85
103488,9.211,-6.997,1.892,0.067916,0.220263,0.558591,99770.13,-10,-192,+85
103498,9.356,-5.120,1.989,-0.118322,0.227181,0.485692,99768.72,-8,-192,+84
103507,8.925,-4.967,1.596,-0.033717,0.145768,0.462279,99768.72,-7,-193,+85
103518,8.777,-4.797,0.591,0.083347,0.030300,0.445784,99771.16,-6,-194,+85
103528,8.842,-4.864,0.331,0.196687,-0.045792,0.427692,99771.27,-6,-194,+85
103538,8.751,-5.364,0.495,0.296723,-0.112838,0.402683,99771.78,-4,-193,+85
103547,8.579,-5.795,0.536,0.296723,-0.144764,0.362775,99768.25,-2,-193,+87
103558,8.674,-5.653,0.510,0.228613,-0.134122,0.324995,99768.25,-2,-194,+87
103568,8.520,-5.353,0.748,0.110485,-0.079847,0.290408,99772.84,-2,-194,+87
103578,8.142,-5.292,0.586,0.016834,-0.046856,0.252096,99771.44,-1,-194,+87
103587,8.191,-4.893,0.665,-0.018286,-0.023443,0.226023,99770.05,+0,-194,+87
103598,8.457,-4.679,0.952,-0.024139,-0.015462,0.226023,99765.30,+0,-194,+87
103608,8.411,-4.602,0.651,0.025347,-0.053773,0.236665,99765.30,+0,-194,+87
103618,8.176,-4.723,0.533,0.079090,-0.085168,0.248903,99772.40,+0,-194,+87
103628,8.144,-4.833,0.415,0.095586,-0.099535,0.256353,99771.41,+0,-193,+87
103638,8.251,-4.979,0.390,0.088136,-0.094214,0.257949,99772.24,+1,-194,+88
103648,8.320,-5.104,0.456,0.064191,-0.080911,0.268059,99770.63,+1,-194,+88
103658,8.520,-4.762,0.656,0.037054,-0.066012,0.293600,99770.63,+2,-194,+88
103668,8.662,-4.551,0.645,0.046100,-0.071865,0.328720,99770.95,+3,-194,+88
103677,8.669,-4.557,0.865,0.075366,-0.096874,0.379270,99771.84,+5,-195,+88
103684,8.681,-4.639,1.282,0.087072,-0.116030,0.419178,99767.58,+5,-195,+88
103693,8.736,-4.702,1.155,0.096650,-0.145828,0.453765,99767.58,+6,-194,+89
103703,8.877,-4.805,1.154,0.106228,-0.183608,0.491545,99769.34,+7,-194,+88
103713,8.972,-5.010,1.266,0.105696,-0.230966,0.525600,99769.34,+7,-194,+88
103724,8.974,-5.282,1.128,0.088136,-0.250122,0.549013,99773.82,+9,-194,+89
103733,8.546,-5.948,0.752,0.080687,-0.295351,0.551142,99770.13,+10,-195,+89
103743,8.401,-5.739,0.529,0.049824,-0.313443,0.545288,99769.30,+12,-194,+89
103753,8.551,-5.626,0.335,-0.004983,-0.311847,0.547417,99769.30,+12,-194,+89
103762,8.832,-6.024,0.229,-0.027332,-0.341113,0.542096,99769.30,+14,-195,+89
103773,8.979,-6.214,0.404,-0.074157,-0.356012,0.531453,99771.34,+15,-195,+89
103783,8.791,-6.096,0.643,-0.158763,-0.345370,0.525600,99771.18,+16,-195,+88
103793,8.678,-6.061,0.545,-0.275295,-0.351755,0.534646,99769.40,+16,-195,+88
103803,8.729,-5.617,0.579,-0.386506,-0.367718,0.583600,99767.90,+19,-196,+87
103813,8.909,-5.322,0.491,-0.461001,-0.401241,0.654903,99767.90,+20,-197,+85
103823,9.022,-5.204,0.361,-0.491863,-0.466158,0.726206,99770.04,+23,-197,+82
103833,9.072,-5.310,0.118,-0.482285,-0.556617,0.806554,99770.13,+23,-197,+82
103843,9.245,-5.861,0.012,-0.498249,-0.643883,0.884242,99768.13,+24,-197,+83
103854,9.603,-6.407,-0.249,-0.543478,-0.713590,0.928939,99768.13,+27,-198,+80
103863,10.290,-6.530,-0.459,-0.614781,-0.744984,0.963527,99774.04,+30,-199,+77
103873,10.790,-6.506,-0.086,-0.697258,-0.760415,1.007692,99769.51,+30,-199,+77
103883,11.420,-6.325,-0.183,-0.787716,-0.784892,1.064627,99769.51,+33,-199,+76
103892,11.724,-5.978,-0.449,-0.823368,-0.878544,1.140187,99765.87,+36,-200,+73
103903,11.798,-5.862,-0.256,-0.830817,-1.004121,1.234903,99769.46,+40,-200,+71
103913,12.078,-5.693,-0.280,-0.848909,-1.124378,1.337068,99769.46,+40,-200,+71
103923,12.467,-5.816,0.053,-0.892010,-1.243571,1.437636,99774.72,+43,-201,+68
103933,13.322,-5.655,0.734,-0.941496,-1.375002,1.527563,99769.30,+48,-201,+65
103943,14.231,-5.526,1.807,-0.978212,-1.487277,1.614829,99770.86,+53,-201,+62
103953,14.957,-5.339,2.683,-1.013863,-1.559644,1.722847,99767.06,+53,-201,+62
103963,15.798,-4.927,3.376,-1.082505,-1.585717,1.832462,99767.22,+58,-201,+58
103973,16.851,-4.201,3.652,-1.126138,-1.613919,1.931434,99770.97,+64,-201,+55
103984,17.940,-3.436,3.404,-1.087826,-1.651699,1.983581,99769.25,+70,-201,+52
103993,19.170,-2.337,2.327,-0.970762,-1.774616,2.056480,99768.52,+70,-201,+52
104003,20.493,-2.371,1.816,-0.976615,-2.125809,2.115544,99768.52,+76,-200,+51
104013,19.643,-2.755,8.287,-0.828689,-2.505203,2.256021,99768.52,+83,-199,+49
104023,17.806,-4.701,10.982,-0.491863,-2.845753,2.688094,99770.89,+91,-197,+49
104033,14.092,-10.077,8.159,-0.054469,-3.290597,3.426131,99769.02,+91,-197,+49
104043,14.357,-13.052,8.371,0.776154,-3.484285,3.945470,99769.23,+104,-194,+52
104053,15.362,-11.932,7.512,1.561548,-3.681698,3.835323,99767.09,+115,-190,+58
104064,13.749,-7.744,4.828,1.860062,-3.760982,3.457525,99767.09,+125,-185,+68
104074,8.666,-4.384,1.960,2.026612,-3.806211,3.153690,99771.14,+125,-185,+68
104083,5.440,-4.665,4.701,2.846593,-3.887624,2.989800,99769.70,+131,-180,+77
104093,8.410,-1.975,7.166,3.912409,-3.923276,2.431085,99765.63,+136,-174,+92
104103,9.248,0.247,7.584,4.238592,-3.613588,1.774462,99765.63,+139,-167,+107
104113,8.147,1.466,7.090,4.026280,-3.216102,1.201912,99765.63,+139,-167,+107
104123,6.114,1.158,6.196,3.652207,-2.843093,0.774628,99769.02,+138,-162,+120
104133,4.659,0.099,5.615,3.214281,-2.498818,0.396830,99768.40,+135,-156,+131
104143,3.649,-0.691,5.270,2.757199,-2.208286,-0.031519,99766.21,+133,-152,+139
104153,2.991,-1.585,5.237,2.242649,-1.902855,-0.548197,99766.01,+128,-150,+147
104163,2.659,-2.193,4.955,1.724374,-1.575607,-1.073922,99766.01,+128,-150,+147
104173,2.669,-2.478,4.458,1.224723,-1.270708,-1.579958,99767.80,+122,-148,+151
104183,2.965,-2.591,3.736,0.745292,-1.008910,-2.061517,99765.40,+115,-150,+154
104194,3.464,-2.698,2.970,0.346742,-0.805645,-2.520728,99765.66,+105,-152,+155
104204,3.922,-2.899,2.401,0.051953,-0.628984,-2.944288,99765.05,+105,-152,+155
104213,4.356,-2.990,2.321,-0.141735,-0.457645,-3.334856,99766.24,+96,-154,+155
104223,4.763,-2.928,2.487,-0.217827,-0.302269,-3.697755,99762.13,+85,-158,+155
104233,5.074,-2.713,2.744,-0.161955,-0.167645,-4.012232,99762.13,+73,-160,+155
104243,5.406,-2.538,2.890,0.033861,-0.068140,-4.261791,99762.60,+73,-160,+155
104253,5.905,-2.672,3.121,0.344081,-0.007480,-4.452818,99761.35,+60,-163,+156
104263,6.490,-3.349,3.298,0.694741,0.030300,-4.615644,99761.35,+48,-163,+157
104273,7.000,-4.277,3.486,1.026068,0.069144,-4.799754,99763.83,+34,-161,+160
104283,7.171,-4.900,3.667,1.268888,0.111181,-4.953534,99763.83,+34,-161,+160
104293,7.709,-5.326,3.937,1.522704,0.184612,-5.113166,99763.09,+19,-159,+163
104303,8.872,-5.365,4.320,1.820153,0.251125,-5.275460,99761.73,+6,-155,+168
104313,9.913,-5.778,4.487,2.180392,0.269217,-5.427111,99761.73,-8,-146,+173
104324,10.707,-6.785,4.453,2.476245,0.293162,-5.542047,99762.12,-8,-146,+173
104333,11.741,-7.745,4.195,2.688025,0.334135,-5.638359,99761.82,-23,-139,+181
104343,12.585,-8.661,3.920,2.855107,0.367658,-5.716579,99763.65,-38,-128,+186
104353,12.954,-9.851,3.750,2.987602,0.401713,-5.759680,99763.65,-51,-115,+191
104364,13.206,-10.889,3.918,3.058905,0.450667,-5.791606,99763.65,-51,-115,+191
104373,13.989,-11.492,4.687,3.089767,0.500685,-5.840560,99766.70,-64,-98,+198
104383,14.549,-13.258,5.358,3.096685,0.545382,-5.912395,99764.73,-73,-81,+202
104393,14.970,-16.826,4.421,2.877988,0.603382,-5.902817,99765.98,-81,-63,+206
104403,13.226,-18.648,4.172,2.277768,0.564538,-5.870359,99762.55,-81,-63,+206
104414,11.469,-19.140,4.458,1.554099,0.811969,-5.670286,99762.55,-87,-46,+210
104423,10.396,-19.547,6.540,0.891090,1.215308,-5.243001,99768.09,-89,-33,+212
104433,9.601,-19.874,6.590,0.451035,1.504776,-4.669387,99768.56,-89,-24,+214
104443,7.426,-21.936,4.532,0.123788,1.756464,-3.989351,99767.11,-89,-24,+214
104454,5.269,-23.825,1.281,-0.235387,1.945895,-3.317828,99767.11,-85,-16,+217
104464,3.801,-24.005,-2.452,-0.505698,1.957069,-2.596288,99771.83,-82,-13,+221
104473,2.574,-24.138,-4.326,-0.687680,1.761785,-1.715114,99771.83,-78,-13,+222
104483,0.980,-24.262,-4.277,-0.939900,1.402611,-0.657280,99771.14,-78,-13,+222
104494,1.935,-23.015,-2.931,-1.084634,0.942868,0.467068,99770.78,-74,-16,+224
104503,8.153,-18.549,-0.947,-0.813790,0.366593,1.361545,99768.55,-73,-21,+224
104513,7.880,-15.876,-3.597,-0.332763,-0.392195,2.181526,99768.55,-71,-25,+223
104523,17.720,0.350,1.217,0.638870,-1.197277,2.652443,99772.95,-71,-25,+223
104534,28.399,23.725,-5.162,1.325291,-1.815057,1.926113,99769.06,-74,-26,+222
104544,16.949,6.085,-4.451,0.914503,-1.143534,2.314553,99769.69,-76,-26,+221
104553,9.474,-13.291,-0.667,1.918594,-1.261130,3.765085,99769.53,-75,-27,+222
104563,13.420,-13.963,-0.224,2.527859,-1.646910,4.171084,99770.83,-75,-27,+222
104573,9.512,-12.601,-4.458,1.597199,-1.388305,3.684736,99771.45,-76,-26,+221
104584,8.870,-11.243,-1.599,0.814998,-0.645480,3.446351,99770.20,-76,-30,+220
104593,10.875,-8.120,4.041,0.870338,-0.310250,3.280864,99770.20,-73,-32,+222
104603,8.858,-6.097,6.696,1.168319,-0.412415,2.946700,99767.66,-73,-32,+222
104613,6.273,-7.483,6.987,1.437567,-0.549700,2.645525,99767.66,-72,-33,+223
104624,6.556,-14.846,4.676,1.277402,-0.569920,2.681709,99769.21,-71,-33,+223
104629,9.033,-13.897,0.865,0.658558,-0.567259,2.759397,99772.07,-71,-33,+223
104638,7.843,-9.918,-0.444,-0.268377,-0.316636,2.486957,99769.10,-69,-35,+222
104648,8.044,-7.157,0.017,-1.120285,0.068080,2.239526,99770.93,-66,-43,+221
104658,7.927,-5.587,1.366,-1.393789,0.244208,1.961232,99770.93,-63,-49,+221
104669,7.657,-5.442,0.467,-1.266615,0.300612,1.704223,99774.45,-63,-49,+221
104678,8.300,-4.578,-0.164,-0.877111,0.308593,1.503618,99771.32,-60,-55,+219
104688,8.974,-4.032,0.408,-0.313607,0.222924,1.416352,99768.73,-58,-58,+221
104698,9.051,-4.013,1.488,0.109421,0.081382,1.430719,99769.51,-56,-60,+221
104709,8.548,-4.769,1.968,0.329182,-0.037810,1.418480,99769.51,-56,-60,+221
104718,8.112,-5.490,1.946,0.383457,-0.087296,1.323233,99768.59,-53,-60,+221
104728,8.051,-5.510,2.267,0.297787,-0.054838,1.189673,99770.93,-52,-62,+221
104738,7.953,-5.848,2.667,0.107292,0.024447,1.057710,99768.90,-50,-62,+221
104749,7.716,-6.211,2.765,-0.149185,0.131933,0.905527,99769.99,-50,-62,+221
104758,7.755,-5.485,2.774,-0.415240,0.259639,0.751747,99769.99,-49,-64,+221
104768,8.240,-4.773,2.316,-0.541882,0.351694,0.662353,99772.17,-46,-67,+221
104778,8.578,-4.442,1.751,-0.504634,0.345841,0.663417,99769.42,-44,-69,+221
104788,8.713,-4.399,1.464,-0.370010,0.279327,0.719288,99771.23,-44,-69,+221
104799,8.524,-4.652,1.062,-0.208249,0.214410,0.791655,99767.23,-43,-71,+220
104808,8.253,-5.005,0.974,-0.127900,0.185676,0.848059,99767.23,-41,-72,+221
104818,7.949,-5.414,1.708,-0.133221,0.184080,0.860297,99771.47,-39,-73,+221
104828,7.840,-5.613,2.507,-0.219423,0.212281,0.834756,99766.95,-39,-73,+221
104839,7.752,-5.622,2.787,-0.339148,0.259107,0.790591,99771.16,-36,-75,+220
104848,7.868,-5.375,2.174,-0.399276,0.278795,0.757068,99773.03,-35,-77,+220
104858,7.980,-5.303,1.731,-0.400341,0.264960,0.762389,99773.03,-33,-79,+219
104868,7.897,-5.491,1.898,-0.373203,0.233034,0.774628,99771.47,-33,-79,+219
104879,7.997,-5.600,1.926,-0.355111,0.212814,0.774096,99768.03,-32,-81,+220
104889,8.048,-5.813,1.803,-0.342341,0.213878,0.771967,99769.86,-30,-82,+219
104898,7.986,-5.934,1.802,-0.363093,0.238355,0.771435,99768.19,-27,-84,+219
104908,8.027,-5.794,1.993,-0.395552,0.278263,0.771967,99768.19,-27,-84,+219
104919,8.127,-5.765,2.174,-0.417900,0.306465,0.783674,99772.00,-24,-86,+219
104929,8.195,-6.030,2.206,-0.431203,0.312318,0.808151,99769.41,-23,-88,+218
104938,8.368,-6.169,2.322,-0.471111,0.344245,0.836884,99770.61,-20,-90,+218
104948,8.403,-5.958,2.499,-0.558377,0.398520,0.877857,99767.33,-17,-92,+217
104958,8.571,-5.762,2.497,-0.620634,0.412887,0.933728,99767.33,-17,-92,+217
104969,8.908,-5.940,2.669,-0.652028,0.394263,1.011416,99769.18,-14,-95,+216
104978,9.372,-5.965,2.365,-0.686616,0.370850,1.084316,99768.98,-11,-97,+215
104988,9.762,-5.976,1.835,-0.710028,0.307529,1.160939,99772.15,-8,-101,+214
104998,10.144,-5.933,1.958,-0.707368,0.237291,1.268958,99769.49,-8,-101,+214
105009,10.535,-5.804,1.597,-0.712689,0.173437,1.407838,99769.49,-4,-103,+214
105019,10.803,-5.758,1.602,-0.715349,0.104795,1.571196,99770.76,-1,-107,+213
105028,11.100,-5.642,1.774,-0.717478,0.026043,1.739343,99769.30,+2,-109,+211
105038,11.325,-5.395,1.659,-0.698322,-0.060159,1.934095,99770.91,+2,-109,+211
105049,11.683,-5.559,1.696,-0.660542,-0.167645,2.136829,99768.74,+6,-112,+210
105059,12.224,-6.045,2.271,-0.631276,-0.278324,2.329452,99768.74,+11,-114,+209
105068,12.735,-6.600,2.766,-0.647239,-0.325149,2.507177,99769.95,+16,-116,+207
105078,13.248,-7.111,2.868,-0.728120,-0.328342,2.699269,99770.41,+16,-116,+207
105089,14.269,-7.163,2.667,-0.897863,-0.327810,2.871672,99767.09,+21,-119,+206
105099,15.990,-6.537,3.560,-1.089955,-0.345370,2.999378,99767.20,+28,-124,+203
105108,18.102,-5.525,4.782,-1.233624,-0.317168,3.128149,99767.20,+34,-126,+201
105118,19.582,-5.145,5.123,-1.436890,-0.198507,3.276076,99768.16,+34,-126,+201
105128,21.113,-4.320,4.157,-1.795532,0.013805,3.390479,99768.27,+42,-130,+198
105139,23.662,-2.925,4.287,-2.293055,0.336263,3.316516,99765.61,+51,-135,+193
105149,25.863,-1.235,4.370,-2.870394,0.656593,3.270755,99766.80,+62,-139,+186
105158,24.682,-1.422,4.858,-3.279054,0.821547,3.395800,99766.80,+62,-139,+186
105168,20.752,-7.526,3.619,-3.123146,0.470887,3.909286,99769.65,+74,-145,+179
105179,16.867,-12.950,3.232,-2.560174,-0.281516,4.653176,99767.88,+85,-148,+173
105189,14.130,-15.185,4.587,-2.043495,-0.667828,4.830369,99768.55,+97,-148,+170
105198,13.648,-13.467,6.645,-1.431569,-0.641755,4.330718,99765.34,+97,-148,+170
105208,13.075,-5.924,7.333,-0.617441,-0.558746,3.490516,99765.34,+108,-146,+167
105219,10.994,2.790,4.978,-0.058017,-0.785779,2.347899,99766.68,+114,-143,+168
105229,2.054,2.301,0.403,-0.084799,-0.717846,1.948994,99767.51,+119,-141,+168
105238,3.467,-3.399,2.467,-0.063515,-0.509791,1.880352,99763.98,+119,-141,+168
105248,8.621,0.107,2.896,0.468063,-0.830654,0.725141,99765.43,+122,-138,+169
105259,6.882,3.458,1.106,0.526595,-0.643351,-0.297041,99765.43,+122,-137,+171
105269,5.599,2.764,1.663,0.316943,-0.238948,-0.771151,99766.37,+121,-137,+172
105279,4.127,1.714,1.221,0.291934,-0.136783,-1.271334,99766.63,+121,-137,+172
105288,2.943,0.640,0.300,0.351531,-0.082507,-1.777371,99762.52,+118,-138,+173
105298,2.124,0.054,0.071,0.461145,-0.030361,-2.247224,99763.82,+114,-139,+173
105309,2.170,-0.186,0.178,0.628760,0.011144,-2.696324,99763.82,+107,-141,+176
105319,2.633,-0.444,0.328,0.887365,-0.009076,-3.125205,99765.56,+107,-141,+176
105328,3.150,-0.947,0.450,1.171512,-0.058562,-3.537590,99763.27,+100,-143,+178
105338,3.898,-1.302,0.682,1.437567,-0.106984,-3.916984,99763.95,+91,-143,+182
105349,4.614,-1.514,0.867,1.671163,-0.153278,-4.244231,99759.94,+80,-143,+186
105359,5.168,-1.870,1.202,1.821750,-0.162324,-4.541149,99759.94,+80,-143,+186
105369,5.470,-2.613,1.351,1.917530,-0.134122,-4.792305,99762.08,+69,-143,+190
105378,5.686,-3.782,1.594,1.921254,-0.079315,-5.002488,99761.72,+57,-140,+195
105389,5.874,-4.820,1.525,1.758429,-0.002159,-5.202561,99759.89,+44,-139,+200
105399,6.148,-5.727,1.506,1.542392,0.131933,-5.395717,99759.89,+44,-139,+200
105409,6.625,-6.364,1.728,1.343915,0.291566,-5.598983,99759.89,+30,-136,+205
105418,7.465,-6.803,1.748,1.193860,0.430979,-5.807038,99764.05,+16,-133,+207
105428,8.203,-7.387,1.244,1.037952,0.545914,-6.012432,99764.31,+1,-130,+210
105439,9.024,-7.849,0.932,0.818723,0.691180,-6.220487,99762.39,-11,-126,+214
105449,10.342,-8.076,0.910,0.559585,0.847620,-6.387037,99760.88,-11,-126,+214
105454,11.290,-8.300,0.908,0.395696,0.948189,-6.479092,99760.88,-25,-120,+215
105463,11.759,-8.990,1.065,0.326521,1.035987,-6.554120,99760.88,-25,-120,+215
105474,12.415,-9.867,1.567,0.274375,1.148795,-6.636065,99764.63,-40,-114,+217
105484,13.464,-10.973,2.163,0.294595,1.207859,-6.670652,99761.72,-52,-105,+218
105494,14.624,-12.695,2.611,0.405274,1.180721,-6.631276,99764.69,-64,-96,+221
105504,15.616,-14.826,2.865,0.539897,1.095584,-6.497716,99764.61,-64,-96,+221
105513,15.939,-16.060,3.205,0.562246,1.015767,-6.288065,99765.75,-73,-84,+223
105524,15.179,-16.033,3.975,0.485090,1.000868,-5.982102,99768.03,-81,-71,+225
105534,13.716,-16.338,4.706,0.434540,1.084409,-5.526616,99768.03,-87,-59,+227
105543,11.787,-17.542,4.616,0.428154,1.208923,-4.981735,99768.25,-87,-59,+227
