130003,8.287,-4.828,2.125,0.020026,0.001034,-0.003317,99766.73,-199,+9,-66
130014,8.285,-4.872,2.128,0.013641,0.002630,-0.009702,99768.71,-199,+9,-65
130024,8.287,-4.837,2.153,0.005127,0.005823,-0.015555,99768.71,-198,+9,-66
130034,8.283,-4.760,2.070,-0.000194,0.009016,-0.020344,99769.53,-199,+9,-66
130043,8.292,-4.752,2.053,0.001402,0.006887,-0.018216,99769.17,-199,+9,-66
130054,8.314,-4.737,2.134,0.008852,0.003694,-0.012363,99768.78,-199,+9,-66
130064,8.338,-4.712,2.132,0.015237,-0.000562,-0.004381,99768.78,-199,+9,-67
130074,8.356,-4.682,2.145,0.021090,-0.004287,0.003069,99768.37,-198,+9,-67
130083,8.314,-4.743,2.120,0.025347,-0.005884,0.008390,99769.73,-198,+9,-67
130094,8.317,-4.797,2.128,0.021090,-0.004819,0.011050,99769.73,-198,+9,-66
130104,8.301,-4.830,2.167,0.017898,-0.003223,0.008922,99768.16,-198,+9,-67
130114,8.291,-4.811,2.179,0.015237,-0.003223,0.005197,99769.15,-199,+9,-67
130123,8.292,-4.805,2.167,0.012577,-0.005884,0.003069,99769.15,-199,+9,-67
130134,8.256,-4.779,2.118,0.008852,-0.006416,0.002004,99770.59,-199,+9,-66
130144,8.279,-4.788,2.132,0.007256,-0.006416,-0.000656,99767.62,-198,+9,-66
130154,8.287,-4.756,2.158,0.004063,-0.005884,0.000408,99767.93,-198,+9,-67
130164,8.335,-4.766,2.125,0.006191,-0.007480,0.003601,99766.95,-198,+9,-67
130173,8.334,-4.772,2.127,0.009916,-0.009608,0.005729,99770.12,-198,+9,-66
130184,8.307,-4.792,2.136,0.010980,-0.010673,0.005729,99769.76,-198,+9,-67
130194,8.316,-4.755,2.163,0.008852,-0.009608,0.002004,99766.52,-198,+8,-66
130203,8.298,-4.829,2.186,0.005127,-0.009608,0.001472,99766.52,-198,+8,-66
130213,8.255,-4.781,2.173,-0.001258,-0.008544,-0.001188,99769.18,-199,+7,-66
130224,8.258,-4.786,2.144,-0.004451,-0.006416,-0.003317,99769.18,-198,+9,-66
130234,8.263,-4.791,2.067,-0.004983,-0.005351,-0.004913,99769.29,-199,+9,-67
130244,8.286,-4.772,2.094,-0.001790,-0.005351,-0.005445,99771.37,-199,+9,-67
130253,8.306,-4.761,2.133,0.002999,-0.003755,-0.004381,99768.82,-199,+9,-66
130264,8.313,-4.775,2.118,0.004595,-0.003755,-0.004913,99766.63,-199,+9,-67
130274,8.301,-4.800,2.194,0.003531,-0.004819,-0.004913,99766.63,-199,+9,-67
130284,8.334,-4.768,2.127,0.001402,-0.002159,-0.007574,99769.97,-198,+9,-67
130294,8.294,-4.778,2.146,-0.000194,-0.001627,-0.005445,99768.25,-198,+9,-65
130304,8.297,-4.739,2.100,0.001402,-0.001627,-0.005977,99766.48,-198,+9,-66
130314,8.312,-4.772,2.101,0.001402,-0.002159,-0.002785,99766.48,-198,+9,-66
130324,8.312,-4.787,2.102,0.001934,-0.000562,-0.000124,99766.48,-198,+9,-65
130334,8.294,-4.805,2.095,0.001402,0.002630,-0.000656,99769.60,-198,+9,-65
130343,8.270,-4.751,2.133,0.002999,0.005823,-0.002253,99769.29,-199,+9,-66
130354,8.274,-4.743,2.039,0.004063,0.006887,-0.001188,99770.49,-198,+9,-67
130364,8.293,-4.761,2.066,0.006191,0.008129,-0.001188,99766.50,-199,+8,-66
130373,8.306,-4.784,2.110,0.007788,0.009016,-0.001720,99766.50,-199,+8,-66
130383,8.313,-4.799,2.106,0.006723,0.009548,-0.002785,99770.41,-198,+9,-67
130394,8.282,-4.787,2.082,0.009916,0.011144,-0.003317,99767.86,-198,+8,-66
130404,8.285,-4.799,2.083,0.008852,0.013805,-0.005977,99769.73,-199,+8,-65
130414,8.282,-4.811,2.125,0.012045,0.015933,-0.009170,99765.20,-199,+8,-65
130424,8.293,-4.784,2.118,0.013641,0.016997,-0.011831,99768.48,-199,+9,-67
130434,8.292,-4.785,2.149,0.014705,0.016997,-0.015555,99768.70,-199,+8,-66
130444,8.281,-4.828,2.138,0.015769,0.016465,-0.016620,99768.70,-199,+8,-66
130454,8.281,-4.787,2.116,0.011512,0.019126,-0.019280,99768.12,-199,+8,-66
130463,8.285,-4.763,2.124,0.009916,0.021254,-0.021409,99767.59,-199,+8,-66
130473,8.283,-4.737,2.062,0.009384,0.024979,-0.021941,99767.59,-199,+9,-65
130484,8.317,-4.737,2.060,0.014173,0.025511,-0.020876,99768.56,-199,+9,-66
130494,8.328,-4.712,2.121,0.023219,0.024979,-0.019280,99770.66,-199,+9,-66
130504,8.341,-4.727,2.144,0.029604,0.022850,-0.013427,99767.00,-198,+9,-65
130514,8.325,-4.758,2.198,0.031200,0.021254,-0.010234,99768.94,-199,+9,-66
130524,8.302,-4.785,2.186,0.028540,0.021786,-0.010234,99770.99,-199,+9,-65
130534,8.307,-4.756,2.167,0.021622,0.023382,-0.010766,99768.38,-199,+9,-65
130544,8.312,-4.725,2.199,0.019494,0.024447,-0.011298,99768.34,-199,+9,-65
130554,8.318,-4.719,2.223,0.020558,0.023382,-0.007574,99770.73,-199,+9,-66
130564,8.313,-4.694,2.181,0.024283,0.022850,-0.003849,99770.73,-199,+9,-65
130574,8.288,-4.715,2.170,0.030668,0.021786,0.000940,99770.73,-199,+9,-65
130584,8.304,-4.742,2.101,0.034393,0.021254,0.003601,99772.56,-199,+8,-65
130594,8.316,-4.730,2.144,0.039182,0.021786,0.004665,99768.70,-199,+8,-65
130599,8.322,-4.735,2.144,0.043439,0.022318,0.003069,99767.61,-199,+8,-65
130609,8.343,-4.715,2.161,0.047164,0.022850,0.003601,99768.61,-199,+9,-65
130619,8.307,-4.736,2.189,0.049824,0.021786,0.005197,99768.61,-198,+8,-65
130629,8.293,-4.763,2.195,0.055145,0.021786,0.004665,99768.55,-199,+9,-65
130638,8.257,-4.743,2.153,0.055145,0.024447,0.003069,99766.57,-199,+9,-65
130649,8.282,-4.699,2.092,0.054081,0.030832,0.003069,99767.77,-199,+9,-65
130659,8.310,-4.715,2.164,0.060467,0.035089,0.005197,99768.45,-199,+9,-65
130669,8.341,-4.699,2.209,0.069512,0.032960,0.008922,99768.45,-200,+7,-64
130679,8.346,-4.720,2.277,0.076962,0.027107,0.012114,99770.65,-200,+7,-64
130689,8.292,-4.766,2.277,0.075898,0.025511,0.014775,99770.13,-199,+8,-65
130699,8.232,-4.750,2.153,0.066320,0.033493,0.010518,99768.30,-199,+7,-65
130709,8.241,-4.748,2.068,0.059402,0.042538,0.005729,99769.18,-199,+7,-65
130719,8.300,-4.679,2.143,0.072173,0.044135,0.005729,99769.18,-199,+7,-65
130728,8.277,-4.590,2.175,0.092393,0.041474,0.011582,99769.72,-199,+8,-63
130739,8.202,-4.647,1.999,0.108356,0.039878,0.021692,99768.36,-199,+8,-63
130749,8.262,-4.752,2.079,0.125384,0.035089,0.025949,99770.70,-199,+7,-63
130759,8.310,-4.681,2.447,0.135494,0.027639,0.029142,99765.86,-199,+7,-63
130768,8.216,-4.627,2.472,0.129109,0.023915,0.037124,99765.86,-199,+7,-63
130779,8.142,-4.751,2.183,0.110485,0.031896,0.040316,99771.97,-200,+7,-64
130789,8.147,-4.888,2.185,0.094522,0.039878,0.031802,99770.52,-200,+6,-63
130799,8.197,-4.809,2.440,0.087072,0.045199,0.017968,99766.45,-200,+6,-63
130809,8.154,-4.718,2.461,0.085476,0.028171,0.009454,99766.34,-199,+6,-62
130819,8.033,-4.724,2.447,0.095586,0.011144,-0.000124,99766.34,-199,+5,-63
130829,7.942,-4.828,2.297,0.109421,0.009548,-0.017152,99769.82,-200,+6,-62
130839,7.884,-4.845,2.115,0.124852,0.018593,-0.045886,99770.09,-200,+6,-62
130849,7.980,-4.750,2.061,0.148797,0.030832,-0.071427,99767.88,-199,+6,-63
130859,8.140,-4.818,2.114,0.182852,0.034557,-0.092711,99767.57,-199,+6,-63
130869,8.196,-4.897,2.168,0.216907,0.036685,-0.116124,99767.57,-201,+5,-62
130879,8.186,-4.921,2.237,0.238191,0.048392,-0.144858,99770.75,-201,+5,-62
130889,8.168,-5.039,2.268,0.244576,0.065951,-0.182638,99770.17,-199,+7,-62
130899,8.261,-5.066,2.191,0.228081,0.086704,-0.227335,99768.97,-200,+6,-62
130909,8.398,-5.040,2.288,0.214778,0.102135,-0.269372,99769.39,-201,+7,-60
130919,8.511,-5.006,2.562,0.204136,0.105327,-0.304491,99769.39,-201,+7,-60
130929,8.532,-4.950,2.842,0.188705,0.097346,-0.334821,99770.16,-201,+7,-60
130939,8.493,-4.828,2.975,0.158907,0.087236,-0.359298,99769.02,-201,+9,-60
130949,8.391,-4.865,2.891,0.108356,0.079254,-0.376326,99770.11,-202,+10,-60
130959,8.480,-4.618,2.747,0.047164,0.077126,-0.391757,99767.45,-202,+10,-60
130969,8.589,-4.389,2.674,0.003531,0.081915,-0.395482,99767.45,-201,+11,-60
130979,8.642,-4.173,2.759,-0.026799,0.074465,-0.372601,99772.38,-203,+12,-60
130989,8.632,-4.147,2.786,-0.042231,0.060098,-0.340142,99770.08,-202,+13,-59
130999,8.590,-4.220,2.818,-0.057662,0.045731,-0.314601,99768.09,-202,+13,-59
131009,8.523,-4.222,2.675,-0.076286,0.035621,-0.301298,99766.59,-203,+15,-59
131019,8.547,-4.149,2.535,-0.108212,0.037749,-0.282142,99766.59,-203,+15,-60
131030,8.550,-4.142,2.448,-0.113533,0.030300,-0.258197,99770.28,-202,+16,-60
131039,8.592,-4.058,2.565,-0.105552,0.020722,-0.230528,99768.97,-202,+16,-60
131049,8.551,-4.055,2.540,-0.093845,0.006887,-0.202858,99770.06,-202,+17,-58
131059,8.474,-3.954,2.602,-0.080543,-0.006416,-0.176785,99768.92,-203,+18,-60
131069,8.449,-3.934,2.574,-0.065644,-0.017058,-0.153904,99768.92,-203,+18,-60
131079,8.499,-4.010,2.502,-0.057130,-0.023443,-0.133684,99769.80,-203,+19,-59
131089,8.532,-3.995,2.429,-0.051809,-0.027700,-0.114528,99768.08,-203,+19,-59
131099,8.537,-3.950,2.428,-0.035313,-0.031957,-0.093243,99770.16,-203,+20,-60
131109,8.543,-4.071,2.404,-0.024139,-0.032489,-0.076216,99766.92,-204,+19,-60
131119,8.498,-4.219,2.313,-0.023607,-0.027168,-0.069298,99766.92,-203,+20,-60
131129,8.526,-4.140,2.381,-0.026267,-0.015994,-0.069298,99770.45,-203,+20,-60
131139,8.568,-4.057,2.525,-0.019882,-0.003755,-0.061317,99769.09,-203,+20,-60
131149,8.602,-4.039,2.589,-0.007111,-0.000562,-0.053335,99767.84,-204,+20,-60
131160,8.572,-4.080,2.641,-0.000194,0.002630,-0.050142,99769.24,-203,+20,-60
131169,8.472,-4.263,2.525,-0.000726,0.007419,-0.055996,99769.24,-203,+20,-60
131179,8.456,-4.296,2.475,-0.006579,0.013805,-0.068234,99768.71,-203,+22,-61
131189,8.522,-4.233,2.405,-0.032830,0.025866,-0.081005,99767.88,-203,+21,-60
131200,8.603,-4.147,2.465,-0.044359,0.031896,-0.078876,99768.24,-203,+22,-60
131209,8.647,-4.047,2.503,-0.041166,0.031364,-0.074087,99765.80,-203,+22,-60
131219,8.615,-4.022,2.578,-0.030524,0.019658,-0.062913,99765.80,-203,+22,-60
131229,8.669,-3.986,2.711,-0.023075,0.003162,-0.049610,99770.20,-203,+22,-60
131239,8.714,-3.959,2.795,-0.023607,-0.009608,-0.033647,99769.42,-203,+22,-60
131249,8.688,-4.026,2.788,-0.040102,-0.023443,-0.013959,99767.70,-203,+22,-60
131259,8.686,-4.000,2.691,-0.059258,-0.033553,0.002004,99765.25,-203,+22,-59
131269,8.633,-3.949,2.667,-0.076818,-0.037278,0.019032,99765.25,-203,+22,-60
131279,8.636,-3.906,2.572,-0.081607,-0.045792,0.037124,99769.06,-203,+22,-61
131289,8.708,-3.992,2.684,-0.068304,-0.063351,0.055215,99768.23,-203,+22,-61
131299,8.696,-4.070,2.714,-0.062451,-0.085700,0.070646,99769.22,-203,+21,-60
131309,8.644,-4.203,2.814,-0.083735,-0.102728,0.081289,99767.08,-203,+22,-60
131319,8.640,-4.210,2.849,-0.126836,-0.116030,0.087674,99767.08,-202,+22,-62
131330,8.666,-3.998,2.865,-0.175790,-0.123480,0.102573,99768.15,-202,+22,-62
131339,8.762,-3.903,2.774,-0.206653,-0.135718,0.132903,99769.09,-202,+22,-62
131349,8.765,-4.095,2.660,-0.221020,-0.162324,0.165362,99768.62,-202,+21,-62
131359,8.895,-4.003,2.747,-0.223148,-0.186269,0.195692,99766.07,-201,+20,-63
131369,9.005,-3.965,3.025,-0.212506,-0.224049,0.229215,99766.07,-201,+20,-63
131379,9.023,-4.058,2.952,-0.196010,-0.287370,0.269123,99771.63,-201,+20,-63
131389,9.093,-3.988,3.067,-0.190157,-0.345902,0.317545,99769.03,-201,+20,-64
131399,9.348,-3.950,3.329,-0.199735,-0.414544,0.377142,99768.25,-199,+18,-66
131409,9.717,-3.948,3.318,-0.235387,-0.487443,0.453233,99768.77,-199,+18,-66
131419,9.947,-3.921,2.736,-0.311478,-0.526287,0.555931,99768.77,-200,+18,-67
131425,9.969,-4.026,2.158,-0.387570,-0.518305,0.644793,99768.87,-198,+16,-69
131434,9.869,-4.112,1.629,-0.465258,-0.491700,0.740040,99768.87,-198,+16,-69
131444,9.705,-4.161,1.027,-0.546671,-0.454984,0.873068,99770.43,-197,+15,-70
131454,9.573,-4.223,0.819,-0.615845,-0.432103,1.026848,99769.18,-196,+12,-71
131465,9.626,-4.240,0.955,-0.681295,-0.413480,1.187013,99766.46,-195,+10,-73
131474,10.111,-4.312,1.415,-0.758450,-0.368250,1.320040,99771.43,-195,+10,-73
131484,11.128,-4.756,1.992,-0.839863,-0.325149,1.406242,99769.77,-194,+7,-74
131494,12.393,-5.666,2.010,-0.920744,-0.284177,1.473288,99766.07,-194,+2,-75
131505,12.480,-6.321,1.634,-1.011203,-0.239480,1.533948,99766.07,-192,+0,-76
131514,12.922,-6.495,1.410,-1.023441,-0.180948,1.533416,99767.68,-192,+0,-76
131524,12.834,-6.996,1.020,-0.978744,-0.174030,1.513728,99767.68,-190,-3,-77
131534,11.599,-9.427,1.327,-1.003753,-0.154874,1.594077,99771.94,-188,-7,-79
131545,10.578,-11.339,2.021,-0.984597,-0.200104,1.723911,99770.78,-188,-11,-79
131554,9.387,-11.536,3.237,-0.795698,-0.305461,1.792554,99768.50,-188,-11,-79
131564,9.309,-10.313,5.818,-0.343937,-0.387938,1.865985,99765.84,-186,-15,-81
131574,11.314,-8.082,4.127,0.215843,-0.632709,1.832462,99765.84,-184,-21,-82
131585,9.520,-8.396,1.812,0.559053,-0.831718,1.870242,99771.92,-180,-28,-84
131595,7.402,-10.229,1.520,0.532448,-0.748177,2.037324,99768.09,-180,-28,-84
131604,6.173,-10.749,1.641,0.172742,-0.565663,2.068719,99767.39,-177,-35,-85
131614,5.586,-9.622,1.945,-0.210377,-0.358140,1.937287,99767.39,-175,-41,-87
131624,5.306,-8.084,1.699,-0.506763,-0.199039,1.790425,99767.39,-172,-45,-88
131635,4.723,-7.485,0.976,-0.707900,-0.089957,1.684003,99770.07,-172,-45,-88
131644,4.070,-7.161,0.275,-0.873386,0.001034,1.609508,99768.04,-170,-48,-89
131654,3.605,-5.983,0.106,-1.001625,0.089896,1.517453,99766.16,-169,-52,-90
131664,3.349,-4.439,0.202,-1.007478,0.129272,1.404646,99767.46,-167,-54,-91
131675,3.262,-3.257,0.176,-0.863808,0.110648,1.300884,99767.46,-167,-54,-91
131685,2.936,-2.562,-0.187,-0.638194,0.043071,1.208829,99769.70,-165,-56,-93
131694,2.365,-2.350,-0.542,-0.404065,-0.026636,1.111985,99766.46,-165,-59,-92
131704,1.762,-2.179,-0.758,-0.209313,-0.077718,0.990664,99768.20,-163,-62,-93
131715,1.402,-2.030,-0.787,-0.053937,-0.113902,0.836884,99768.20,-163,-62,-93
131725,1.343,-1.962,-0.659,0.088668,-0.139443,0.661820,99766.78,-160,-62,-93
131734,1.515,-1.901,-0.497,0.220099,-0.164984,0.489949,99767.20,-160,-64,-93
131744,1.547,-1.805,-0.396,0.330778,-0.194783,0.326059,99767.20,-160,-67,-93
131755,1.620,-1.826,-0.311,0.400485,-0.203828,0.149399,99766.16,-160,-67,-93
131765,1.600,-2.115,-0.153,0.418044,-0.193718,-0.044289,99767.05,-158,-67,-93
131774,1.654,-2.513,-0.082,0.385586,-0.159663,-0.242234,99767.05,-160,-67,-93
131784,1.785,-2.908,0.057,0.333439,-0.105388,-0.436986,99768.66,-160,-67,-93
131794,2.146,-3.209,0.120,0.264797,-0.035150,-0.632803,99767.61,-161,-67,-92
131805,2.520,-3.573,0.276,0.173274,0.046263,-0.813188,99765.73,-161,-65,-92
131815,2.919,-4.014,0.425,0.109953,0.117566,-0.969628,99766.41,-162,-64,-92
131824,3.326,-4.623,0.320,0.072173,0.160135,-1.110637,99768.52,-164,-60,-92
131834,3.862,-5.131,0.262,0.071641,0.198447,-1.238344,99766.28,-167,-56,-92
131845,4.545,-5.428,0.226,0.117402,0.228777,-1.362325,99767.80,-167,-56,-92
131855,5.348,-5.683,0.412,0.170081,0.250061,-1.478857,99767.38,-169,-52,-90
131864,6.105,-5.914,0.674,0.217439,0.261236,-1.584747,99767.38,-171,-48,-89
131874,6.563,-6.299,0.851,0.267989,0.262832,-1.666692,99767.38,-174,-43,-89
131885,6.782,-6.766,0.929,0.308430,0.279327,-1.716710,99769.53,-174,-43,-89
131895,6.946,-7.262,0.986,0.306833,0.317107,-1.745444,99768.84,-177,-40,-87
131904,7.101,-7.272,1.107,0.270118,0.377235,-1.768325,99766.66,-179,-33,-86
131914,7.387,-7.011,1.338,0.233934,0.443217,-1.800251,99766.92,-181,-28,-84
131924,7.625,-6.840,1.452,0.185512,0.511327,-1.826857,99766.92,-181,-28,-84
131935,7.735,-6.906,1.521,0.092393,0.602850,-1.844417,99769.26,-183,-22,-82
131945,7.880,-6.689,1.675,-0.043827,0.716189,-1.861976,99766.99,-186,-16,-81
131954,8.313,-5.930,1.843,-0.182176,0.836978,-1.890710,99767.16,-188,-11,-79
131964,9.060,-4.985,1.859,-0.269442,0.941804,-1.938600,99767.16,-188,-11,-79
131975,9.884,-4.442,1.562,-0.319992,1.026942,-2.010967,99767.16,-192,-3,-75
131985,12.929,-4.940,1.904,-0.363093,1.088666,-2.152508,99771.44,-194,+3,-73
131994,15.606,-12.542,5.345,0.063659,0.978519,-2.109407,99769.20,-196,+10,-70
132004,21.784,-34.960,-1.805,0.262136,0.780575,-0.854160,99767.27,-196,+10,-70
132015,20.415,-12.828,-4.626,-0.281148,-0.059272,0.165894,99768.30,-196,+11,-67
132024,15.492,6.345,-0.548,0.118999,-0.149021,-0.043225,99768.30,-196,+11,-69
132034,8.472,1.199,2.939,0.534044,0.371914,0.097252,99768.40,-197,+9,-68
132044,3.609,-6.482,1.560,0.517017,0.280392,0.472921,99766.68,-197,+9,-68
132055,3.873,-8.085,2.885,0.893750,-0.273535,0.195692,99767.51,-197,+7,-67
132065,4.975,-7.922,1.840,0.828833,-0.101663,-0.207647,99769.66,-196,+5,-66
132075,7.755,-7.240,1.615,0.598430,0.128740,-0.432197,99768.72,-197,+6,-67
132084,8.291,-4.706,2.549,0.497329,0.090428,-0.425812,99767.89,-197,+6,-67
132094,7.596,-4.132,3.191,0.393567,0.142575,-0.330564,99767.89,-197,+7,-66
132105,7.553,-5.258,2.083,0.200411,0.242612,-0.295977,99770.59,-197,+7,-66
132114,8.156,-5.619,0.985,0.092925,0.312318,-0.300234,99768.09,-197,+8,-65
132124,8.877,-5.368,0.952,0.074833,0.359676,-0.270968,99768.09,-197,+8,-65
132134,9.476,-4.747,1.132,0.095586,0.382557,-0.203922,99771.44,-199,+9,-63
132145,9.550,-4.359,1.788,0.154650,0.372446,-0.097500,99767.95,-199,+9,-62
132155,9.065,-4.492,2.724,0.242448,0.304336,0.023821,99768.58,-200,+9,-62
132165,8.609,-4.719,3.409,0.229145,0.207492,0.136628,99768.89,-200,+9,-62
132174,8.105,-5.338,3.650,0.105696,0.143107,0.199417,99770.43,-200,+7,-60
132185,7.965,-5.552,3.299,-0.033185,0.102135,0.207931,99768.13,-201,+6,-60
132195,8.239,-5.288,2.794,-0.150781,0.078722,0.206867,99769.91,-200,+7,-60
132205,8.304,-5.122,2.467,-0.222084,0.038282,0.236133,99767.51,-200,+7,-60
132214,8.221,-5.180,2.173,-0.238579,-0.010140,0.271784,99767.51,-200,+6,-60
132225,8.204,-5.082,1.948,-0.206120,-0.037278,0.308500,99767.51,-199,+5,-61
132235,8.256,-4.843,2.046,-0.152910,-0.062287,0.359050,99770.09,-199,+5,-60
132245,8.204,-4.824,2.187,-0.106616,-0.085168,0.426096,99770.30,-199,+5,-60
132254,8.056,-5.171,2.392,-0.085332,-0.111773,0.485692,99771.77,-199,+3,-60
132264,7.925,-5.374,2.270,-0.086928,-0.134122,0.514958,99765.98,-198,+1,-62
132275,7.666,-5.624,2.295,-0.109277,-0.138911,0.518151,99765.98,-197,+0,-61
132285,7.527,-5.810,2.155,-0.118854,-0.139975,0.496866,99770.55,-198,+0,-61
132295,7.615,-5.679,1.998,-0.118322,-0.133590,0.469729,99769.34,-198,+0,-61
132304,7.648,-5.598,1.883,-0.122579,-0.118159,0.455362,99768.77,-196,-1,-63
132315,7.748,-5.616,1.810,-0.112469,-0.103792,0.453233,99768.77,-197,-3,-63
132325,7.862,-5.535,1.930,-0.104488,-0.106452,0.464940,99770.76,-197,-5,-63
132334,7.795,-5.314,2.207,-0.086396,-0.127737,0.495270,99770.76,-197,-5,-63
132344,7.692,-5.298,2.254,-0.057130,-0.156471,0.537307,99767.79,-195,-5,-63
132355,7.743,-5.398,2.343,-0.037974,-0.176691,0.578811,99768.93,-195,-8,-63
132365,7.846,-5.503,2.187,-0.051809,-0.178287,0.616059,99768.26,-194,-10,-63
132370,7.843,-5.721,1.818,-0.060855,-0.178819,0.644793,99768.26,-194,-10,-63
132379,7.717,-5.938,1.787,-0.076286,-0.189461,0.671398,99768.12,-194,-12,-65
132389,7.638,-5.897,1.998,-0.111405,-0.182012,0.694811,99768.79,-194,-12,-65
132400,7.784,-5.836,2.017,-0.175790,-0.152746,0.720352,99767.18,-193,-13,-65
132410,7.919,-5.772,1.875,-0.233258,-0.131994,0.759196,99767.07,-192,-16,-65
132419,7.856,-5.978,1.600,-0.229001,-0.153278,0.807618,99767.07,-190,-18,-66
132429,7.776,-6.255,1.468,-0.195478,-0.189994,0.845398,99771.19,-190,-18,-66
132440,7.679,-6.401,1.811,-0.187497,-0.205957,0.870407,99769.98,-190,-20,-66
132450,7.462,-6.622,1.776,-0.210909,-0.186801,0.873600,99768.73,-190,-22,-68
132460,7.360,-6.918,1.491,-0.249753,-0.137315,0.849123,99768.47,-189,-24,-69
132469,7.447,-7.229,1.298,-0.277955,-0.100599,0.800701,99768.47,-189,-24,-69
132480,7.554,-7.032,1.295,-0.319992,-0.056434,0.757600,99769.84,-188,-27,-68
132490,7.637,-7.078,1.344,-0.329038,-0.029296,0.721417,99769.48,-187,-29,-68
132500,7.860,-6.923,1.275,-0.304029,-0.037810,0.696940,99768.07,-185,-30,-69
132509,8.089,-6.901,1.263,-0.279552,-0.054306,0.693747,99767.09,-185,-30,-69
132519,8.275,-6.870,1.373,-0.272634,-0.064416,0.702793,99767.09,-186,-32,-69
132530,8.283,-6.620,1.296,-0.252946,-0.078250,0.717160,99771.23,-184,-34,-69
132540,8.212,-6.728,1.373,-0.249221,-0.096874,0.763985,99768.69,-183,-36,-69
132549,8.494,-6.978,1.584,-0.269974,-0.101131,0.803894,99769.94,-183,-36,-69
132559,8.907,-7.061,2.094,-0.301900,-0.088361,0.835820,99765.50,-183,-37,-70
132570,9.131,-7.675,2.163,-0.333827,-0.060691,0.861894,99765.50,-181,-40,-71
132580,9.322,-7.948,1.778,-0.400341,-0.024507,0.886371,99769.10,-181,-42,-71
132590,9.550,-7.635,1.587,-0.484414,0.027639,0.902866,99768.48,-179,-44,-71
132599,9.599,-7.213,1.326,-0.544010,0.049456,0.950224,99769.57,-179,-44,-71
132605,9.832,-7.019,1.368,-0.600414,0.030832,1.019398,99768.57,-178,-47,-71
132615,10.225,-6.895,1.525,-0.633405,-0.000030,1.099215,99768.57,-178,-47,-71
132625,10.503,-7.007,1.643,-0.660542,-0.070801,1.258847,99768.57,-178,-50,-73
132635,10.707,-7.197,1.458,-0.713753,-0.131461,1.438701,99770.29,-175,-53,-73
132644,11.192,-7.456,1.251,-0.801551,-0.193186,1.571196,99768.84,-172,-56,-74
132655,12.002,-7.244,1.521,-0.920744,-0.258104,1.688792,99768.65,-172,-56,-74
132665,12.826,-6.553,2.022,-1.058028,-0.287902,1.817563,99768.65,-169,-60,-76
132675,13.606,-6.279,1.788,-1.186267,-0.314507,1.969746,99771.03,-166,-64,-78
132684,14.554,-5.849,1.822,-1.296945,-0.351755,2.118737,99771.03,-162,-67,-82
132695,15.764,-4.748,3.194,-1.354945,-0.340048,2.234205,99765.77,-162,-67,-82
132705,16.901,-3.819,4.909,-1.263423,-0.342177,2.397030,99767.53,-158,-72,-84
132715,16.732,-4.505,4.828,-1.134652,-0.383681,2.673727,99768.42,-153,-77,-85
132724,14.963,-8.808,2.973,-1.080377,-0.448067,3.135067,99768.42,-147,-82,-89
132734,14.829,-13.731,2.181,-0.865404,-0.625791,3.617158,99768.27,-147,-82,-89
132745,16.185,-14.910,1.938,-0.666928,-0.855131,3.778387,99769.26,-138,-91,-90
132755,16.225,-12.167,3.117,-0.765368,-0.937608,3.646956,99765.55,-130,-99,-93
132765,15.109,-8.820,4.404,-0.829753,-0.908874,3.525103,99767.99,-121,-105,-97
132774,13.968,-5.750,4.496,-0.687680,-0.888122,3.398461,99769.13,-121,-105,-97
132785,9.932,-4.053,2.946,-0.579662,-0.931755,3.210626,99768.20,-112,-112,-99
132795,5.851,-6.354,2.625,-0.550928,-0.797131,3.073342,99765.48,-104,-117,-101
132805,7.809,-5.707,3.442,-0.481221,-0.688048,2.662021,99765.48,-96,-121,-104
132814,8.662,-2.297,3.159,-0.388102,-0.563535,1.909618,99765.63,-91,-121,-104
132825,7.491,-0.709,2.826,-0.419496,-0.327278,1.399325,99765.63,-91,-124,-104
132835,6.023,-0.177,1.960,-0.529111,-0.137315,0.992793,99766.07,-87,-125,-106
132845,4.722,-0.044,1.154,-0.661606,0.048924,0.578811,99766.95,-85,-125,-107
132855,3.965,0.241,1.022,-0.762175,0.226648,0.180793,99764.66,-85,-124,-108
132865,3.837,0.937,1.119,-0.777606,0.337859,-0.220950,99763.82,-85,-124,-108
132875,3.998,1.572,1.235,-0.661606,0.382557,-0.628546,99763.82,-87,-123,-108
132885,4.134,1.707,1.111,-0.408322,0.377768,-1.007408,99765.32,-90,-121,-108
132895,4.261,1.494,0.937,-0.095974,0.347437,-1.359133,99765.15,-93,-119,-108
132904,4.465,1.030,0.664,0.200411,0.320300,-1.707664,99763.84,-93,-119,-108
132915,4.681,0.505,0.378,0.437732,0.312850,-2.058325,99763.84,-98,-118,-106
132925,4.990,-0.022,0.197,0.609072,0.328281,-2.399939,99763.84,-103,-114,-104
132935,5.429,-0.447,0.218,0.746356,0.354355,-2.734636,99765.00,-110,-112,-101
132944,5.936,-0.934,0.231,0.896411,0.376703,-3.062416,99765.73,-110,-112,-101
132955,6.270,-1.492,0.334,1.058172,0.383089,-3.387003,99763.75,-117,-109,-98
132960,6.351,-1.859,0.367,1.173640,0.388410,-3.626984,99762.34,-117,-109,-98
132970,6.412,-2.258,0.343,1.271548,0.401713,-3.861113,99762.34,-126,-104,-94
132980,6.545,-2.842,0.431,1.361475,0.430979,-4.161754,99764.25,-136,-98,-91
132989,6.835,-3.519,0.584,1.406704,0.471419,-4.444304,99764.94,-144,-90,-86
133000,7.289,-4.220,0.677,1.407236,0.531015,-4.708763,99761.28,-144,-90,-86
133010,7.895,-4.738,0.814,1.380099,0.608171,-4.943956,99760.55,-155,-81,-82
133020,8.647,-5.223,0.812,1.354557,0.689052,-5.159992,99760.55,-164,-69,-77
133029,9.431,-5.721,0.765,1.323695,0.773125,-5.362726,99762.98,-172,-58,-73
133040,10.262,-6.112,0.724,1.269952,0.852409,-5.540451,99761.88,-172,-58,-73
133050,11.147,-6.664,0.800,1.188539,0.923180,-5.701148,99765.84,-179,-43,-69
133060,12.228,-7.402,0.940,1.079457,0.979584,-5.843221,99762.98,-187,-28,-66
133069,13.060,-8.614,1.094,0.992191,1.023749,-5.969863,99762.98,-192,-13,-62
133080,13.472,-9.862,1.579,0.961328,1.073235,-6.077881,99764.51,-197,+3,-59
133090,13.688,-10.615,2.147,0.961328,1.126446,-6.191221,99763.82,-197,+3,-59
133100,13.931,-11.404,2.331,0.971970,1.174868,-6.288065,99764.71,-201,+20,-55
133110,14.289,-12.570,2.477,1.022521,1.200409,-6.309350,99765.34,-203,+39,-52
133120,14.833,-13.777,2.382,1.115108,1.193492,-6.241239,99765.34,-205,+58,-50
133130,15.085,-14.752,2.302,1.126282,1.181253,-6.058726,99767.95,-205,+58,-50
133140,14.683,-15.528,2.261,1.005493,1.189235,-5.762873,99769.30,-204,+75,-46
133150,13.620,-16.542,2.351,0.816062,1.233932,-5.341974,99763.30,-204,+92,-42
133159,12.151,-17.595,2.016,0.623439,1.302574,-4.818378,99762.32,-201,+106,-39
133170,10.118,-18.901,1.193,0.475512,1.369088,-4.233057,99762.32,-201,+106,-39
133180,7.863,-20.022,-0.193,0.383457,1.388244,-3.617938,99767.91,-199,+117,-35
133190,5.476,-20.752,-1.425,0.299384,1.304171,-2.952269,99768.60,-197,+127,-32
133195,3.773,-21.164,-1.862,0.230742,1.163162,-2.390361,99770.57,-197,+127,-32
133204,2.228,-21.708,-2.130,0.059934,0.988097,-1.722563,99770.57,-196,+133,-30
133215,0.891,-22.262,-1.967,-0.287533,0.743859,-0.755720,99767.91,-197,+134,-26
133225,0.588,-21.174,-1.092,-0.609992,0.468226,0.213784,99767.91,-197,+134,-26
133235,1.667,-19.052,0.506,-0.720138,0.181951,1.104536,99769.76,-197,+132,-23
133245,3.999,-17.743,1.738,-0.586047,-0.116562,1.879820,99769.21,-201,+127,-23
133255,12.447,-11.304,4.517,-0.257735,-0.393792,2.316682,99770.54,-204,+119,-22
133265,16.309,2.533,5.547,0.073769,-0.678470,2.096920,99770.54,-204,+119,-22
133275,22.280,22.795,2.065,0.365898,-0.701351,1.166260,99770.54,-206,+111,-23
133285,14.653,8.438,-8.118,-0.613184,-0.234691,1.084848,99769.76,-207,+107,-25
133295,6.692,-9.488,-5.035,0.035457,-0.559278,2.107563,99770.91,-211,+100,-25
133305,11.744,-10.868,5.121,1.447677,-1.148323,2.688627,99765.34,-212,+100,-28
133315,17.060,-8.666,-0.580,1.673291,-1.241442,2.637544,99767.73,-212,+89,-28
133325,13.047,-10.555,-5.422,0.512760,-0.684323,2.890828,99767.73,-214,+79,-32
133336,10.992,-9.968,0.397,0.254154,-0.170838,3.065360,99771.00,-216,+67,-31
133345,11.286,-7.531,4.205,0.627696,-0.062819,2.820590,99768.14,-217,+56,-32
133355,9.096,-6.478,6.371,1.011879,-0.196911,2.554535,99768.27,-217,+56,-32
133365,7.369,-7.447,6.827,1.247603,-0.293755,2.441727,99768.27,-217,+47,-32
133376,7.552,-7.745,4.341,1.012411,-0.467223,2.352333,99769.07,-218,+37,-33
133385,6.882,-7.380,3.449,0.548943,-0.477865,2.159709,99769.91,-218,+29,-34
133395,6.477,-9.266,3.305,-0.035845,-0.278856,1.908021,99769.91,-218,+29,-34
133405,8.170,-8.964,1.438,-0.713221,-0.126140,1.694645,99765.70,-217,+22,-35
133415,8.823,-6.706,-0.891,-1.270340,0.040942,1.439233,99768.29,-218,+18,-34
133425,9.146,-4.824,-0.832,-1.353881,0.241547,1.245013,99768.29,-217,+15,-34
133431,9.310,-4.258,-0.471,-1.115496,0.360740,1.166260,99770.67,-217,+15,-34
133440,9.308,-3.716,-0.586,-0.740359,0.392135,1.140187,99771.66,-217,+12,-33
133450,9.097,-3.352,0.146,-0.192286,0.349566,1.155086,99770.72,-217,+12,-33
133460,9.168,-3.479,1.562,0.212118,0.260703,1.190737,99769.05,-217,+8,-31
133470,8.721,-4.506,2.673,0.330778,0.150025,1.189673,99769.05,-217,+3,-31
133480,8.380,-5.198,3.249,0.239255,0.113841,1.099747,99769.38,-217,-1,-31
133490,8.003,-5.656,3.793,0.005127,0.180355,0.952352,99770.32,-217,-1,-31
133500,7.684,-5.816,4.253,-0.357772,0.309658,0.772499,99766.68,-217,-3,-30
133510,7.722,-5.205,3.741,-0.631276,0.385217,0.610738,99767.35,-217,-5,-28
133520,8.173,-4.244,3.159,-0.710561,0.381492,0.522408,99767.35,-216,-6,-28
133530,8.769,-3.560,2.735,-0.639258,0.324024,0.533050,99770.03,-216,-6,-28
133540,8.998,-3.413,2.005,-0.495588,0.250061,0.599031,99768.52,-217,-7,-27
133550,8.929,-3.741,1.688,-0.332230,0.165988,0.694279,99769.41,-216,-9,-27
133560,8.506,-4.494,1.843,-0.211442,0.099474,0.770903,99769.34,-215,-13,-27
133570,8.182,-4.905,2.616,-0.219423,0.097878,0.782077,99769.34,-215,-13,-26
133580,8.034,-4.940,3.207,-0.322653,0.143107,0.757600,99770.56,-215,-15,-26
133591,7.997,-4.772,3.360,-0.431735,0.192061,0.737380,99770.81,-214,-17,-27
133600,8.119,-4.554,3.155,-0.476432,0.207492,0.740040,99771.66,-214,-19,-26
133610,8.232,-4.532,2.669,-0.442377,0.162795,0.769307,99768.47,-215,-22,-25
133620,8.165,-4.610,2.338,-0.377460,0.098942,0.817729,99768.47,-215,-22,-25
133630,8.058,-4.987,2.212,-0.336487,0.063823,0.849655,99770.09,-213,-24,-27
133640,8.085,-5.224,2.126,-0.332763,0.058502,0.865086,99769.30,-213,-28,-26
133650,8.174,-5.274,2.109,-0.369478,0.081382,0.878389,99769.73,-212,-30,-25
133660,8.210,-5.259,2.232,-0.401937,0.102135,0.899141,99769.41,-212,-30,-25
133670,8.256,-5.100,2.230,-0.413111,0.094685,0.939050,99769.41,-210,-33,-26
133681,8.481,-4.893,2.487,-0.413111,0.082979,1.000774,99768.30,-210,-36,-25
133690,8.450,-5.100,2.448,-0.401405,0.052116,1.078994,99767.79,-209,-40,-25
133700,8.524,-5.389,2.267,-0.404065,0.019658,1.152426,99767.68,-209,-40,-25
133710,8.550,-5.399,2.559,-0.430671,0.011144,1.223728,99768.26,-207,-42,-25
133720,8.668,-5.646,2.827,-0.479093,0.017529,1.283325,99768.26,-205,-47,-27
133730,8.739,-6.160,2.661,-0.537093,0.035621,1.324297,99769.48,-204,-52,-26
133740,8.911,-6.376,2.358,-0.621698,0.056905,1.337600,99769.58,-204,-52,-26
133750,9.022,-6.218,2.429,-0.698322,0.058502,1.356756,99769.33,-203,-54,-27
133761,9.346,-5.963,2.268,-0.738762,0.047860,1.401453,99769.42,-201,-59,-28
133770,9.621,-6.069,2.255,-0.746744,0.011676,1.463178,99769.42,-199,-63,-28
133780,9.862,-6.254,2.242,-0.740891,-0.035682,1.538205,99770.69,-199,-63,-28
133790,10.121,-6.437,1.884,-0.752065,-0.076654,1.606847,99770.53,-197,-67,-29
133800,10.243,-6.243,1.545,-0.769625,-0.120287,1.696242,99770.53,-194,-71,-31
133810,10.378,-5.879,1.615,-0.765900,-0.192654,1.810645,99770.42,-191,-75,-32
133820,10.933,-6.291,1.263,-0.714285,-0.280984,1.944205,99770.42,-191,-75,-32
133830,11.451,-6.823,0.937,-0.674377,-0.344305,2.083086,99769.66,-187,-82,-34
133840,11.469,-6.531,1.229,-0.689276,-0.404966,2.248572,99771.11,-183,-86,-37
133851,11.209,-5.909,1.588,-0.730781,-0.468287,2.422572,99768.05,-179,-92,-39
133860,11.717,-5.963,1.897,-0.759515,-0.517241,2.580608,99769.19,-179,-92,-39
133870,13.237,-6.343,2.617,-0.806340,-0.584819,2.700865,99769.19,-173,-98,-42
133880,15.448,-6.491,3.843,-0.909037,-0.626324,2.808351,99771.46,-166,-105,-46
133891,17.785,-6.239,4.478,-1.101129,-0.562470,2.936589,99769.12,-161,-111,-50
133900,19.449,-6.213,4.062,-1.389000,-0.411351,3.054186,99769.05,-161,-111,-50
133910,20.639,-4.952,3.079,-1.765734,-0.238416,3.118571,99767.60,-154,-116,-54
133920,22.174,-2.453,3.811,-2.181844,-0.007480,3.105800,99767.60,-146,-119,-59
133931,23.920,0.566,5.814,-2.491000,0.208025,3.118039,99769.38,-139,-123,-63
133940,23.619,-0.004,6.311,-2.521330,0.206428,3.323433,99768.55,-139,-123,-63
133950,20.411,-6.218,4.868,-2.089257,-0.229370,3.932699,99768.59,-131,-127,-69
133960,15.877,-12.280,2.598,-1.481588,-1.007314,4.671268,99767.92,-120,-131,-74
133970,11.548,-15.808,1.239,-0.980872,-1.437259,4.787800,99767.92,-106,-139,-79
133981,10.832,-15.790,3.574,-0.738230,-1.282947,4.286552,99768.32,-106,-139,-79
133990,14.027,-9.809,6.413,-0.522726,-1.033920,3.636846,99766.70,-95,-143,-82
134000,11.834,-1.872,5.479,-0.239643,-1.032855,2.812608,99768.21,-85,-146,-86
134010,8.396,3.415,4.202,-0.053405,-1.020617,2.044241,99766.49,-78,-148,-88
134021,0.935,-2.342,2.618,-0.323007,-0.791810,1.850554,99766.49,-71,-148,-90
134030,4.544,-4.604,4.587,-0.102891,-0.832782,1.497233,99769.34,-71,-148,-90
134040,7.271,-0.830,3.167,0.411127,-1.042965,0.353729,99769.09,-67,-149,-92
134050,6.405,1.196,1.894,0.431347,-0.841296,-0.333225,99766.01,-66,-148,-92
134061,5.159,0.684,1.675,0.240320,-0.631645,-0.715280,99766.48,-68,-148,-92
134070,3.712,-0.180,0.643,0.143476,-0.607168,-1.089885,99766.48,-68,-146,-93
134080,2.720,-0.435,-0.241,0.145072,-0.584819,-1.519297,99768.01,-70,-144,-94
134090,2.036,-0.566,-0.283,0.255751,-0.534801,-1.964673,99768.48,-74,-141,-95
134100,2.220,-0.712,0.200,0.439861,-0.484782,-2.418031,99767.45,-78,-137,-95
134111,2.993,-0.702,0.525,0.662283,-0.467223,-2.885223,99767.65,-78,-137,-95
134120,3.691,-0.956,0.624,0.892686,-0.457113,-3.326874,99767.65,-85,-132,-95
134130,4.243,-1.432,0.713,1.114576,-0.447003,-3.688709,99763.14,-92,-127,-95
134140,4.430,-1.973,0.729,1.305071,-0.441149,-3.998929,99763.45,-100,-122,-95
134151,4.612,-2.598,0.874,1.415750,-0.410287,-4.276690,99761.27,-100,-122,-95
134160,4.812,-3.427,0.998,1.392337,-0.337920,-4.550726,99760.48,-108,-117,-95
134170,4.855,-4.226,1.195,1.264099,-0.225645,-4.791772,99760.48,-117,-110,-94
134180,5.020,-4.875,1.659,1.134264,-0.084104,-5.018983,99761.07,-127,-101,-95
134191,5.280,-5.534,1.977,0.994851,0.080318,-5.239809,99760.71,-127,-101,-95
134200,5.646,-5.970,1.933,0.866613,0.238355,-5.453717,99762.32,-137,-92,-95
134210,6.210,-6.194,1.758,0.714429,0.423529,-5.668689,99760.60,-147,-81,-94
134220,7.302,-6.296,1.573,0.455824,0.663511,-5.866634,99760.60,-158,-67,-95
134231,8.690,-6.194,0.738,0.127512,0.884868,-6.055001,99763.52,-158,-67,-95
134241,10.172,-6.681,0.201,-0.058194,1.104630,-6.193882,99765.24,-171,-51,-93
134250,11.184,-8.286,0.944,-0.175258,1.377602,-6.264652,99766.02,-182,-32,-93
134260,11.326,-10.823,1.671,-0.391827,1.611198,-6.324780,99766.18,-192,-12,-90
134270,11.287,-12.567,1.980,-0.505698,1.738372,-6.326909,99766.18,-192,-12,-90
134281,12.163,-12.710,2.149,-0.355643,1.791583,-6.365221,99764.45,-201,+10,-87
134290,13.762,-12.349,1.951,-0.083735,1.816060,-6.451423,99764.25,-206,+34,-82
134300,14.916,-13.701,1.433,0.163696,1.814464,-6.410450,99764.30,-208,+58,-79
134310,14.387,-15.390,0.995,0.390375,1.772427,-6.220487,99765.03,-208,+58,-79
134321,13.792,-15.760,1.102,0.551072,1.701125,-5.983698,99765.03,-206,+82,-74
134331,13.548,-15.555,1.196,0.631420,1.619180,-5.660175,99771.38,-203,+102,-71
134340,12.769,-16.248,1.187,0.664411,1.556391,-5.195643,99768.37,-196,+120,-68
134350,11.064,-17.607,0.862,0.692081,1.479235,-4.615644,99765.60,-196,+120,-68
134361,8.935,-19.099,-0.074,0.741035,1.382923,-3.980837,99765.76,-190,+132,-66
134371,6.945,-20.321,-0.735,0.804888,1.230207,-3.300801,99765.76,-186,+143,-64
134380,4.882,-20.856,-1.719,0.843200,0.954575,-2.539884,99771.74,-181,+148,-63
134390,3.300,-21.232,-2.727,0.810209,0.648079,-1.615609,99770.23,-181,+148,-63
134401,2.288,-21.708,-3.047,0.706980,0.293162,-0.571078,99770.96,-179,+151,-63
134411,1.605,-21.389,-2.282,0.613329,-0.078783,0.452701,99768.04,-178,+148,-64
134420,1.770,-20.306,-0.840,0.578209,-0.396452,1.349838,99768.04,-179,+143,-66
134430,8.206,-16.631,2.209,0.627163,-0.686984,1.983049,99770.19,-179,+143,-66
134440,9.717,-10.816,3.195,0.829365,-0.859388,2.307104,99766.91,-181,+135,-68
134451,18.884,7.920,6.115,1.091163,-1.071699,1.931966,99766.80,-181,+128,-73
134461,19.452,17.773,-2.127,0.368558,-0.646544,0.959802,99766.44,-181,+124,-74
134470,9.579,-4.434,-7.107,-0.592432,-0.129865,1.644627,99766.44,-181,+124,-74
134480,12.358,-13.642,0.983,0.139219,-0.574709,2.712571,99771.30,-183,+118,-75
134491,18.303,-10.880,1.260,0.622907,-0.980177,2.717360,99770.52,-184,+107,-77
134501,12.537,-10.343,-4.830,-0.239643,-0.458709,2.781214,99769.00,-185,+98,-79
134510,11.021,-9.622,0.032,-0.673845,0.087768,3.029177,99768.84,-185,+98,-79
134520,12.128,-6.601,3.550,-0.263588,0.104795,2.919030,99768.84,-188,+90,-76
134531,10.146,-5.656,3.300,0.241384,-0.031425,2.644994,99771.03,-189,+82,-77
134541,7.770,-6.674,3.675,0.587787,-0.133590,2.467801,99767.80,-190,+71,-77
134550,7.053,-7.456,4.637,0.672393,-0.150617,2.329452,99769.63,-190,+71,-77
134560,7.629,-7.465,4.652,0.639934,-0.200104,2.155985,99767.06,-190,+64,-76
134571,7.777,-6.833,3.228,0.497329,-0.289498,1.911746,99767.06,-190,+56,-79
134581,7.635,-7.415,1.784,0.094522,-0.179883,1.683471,99772.44,-190,+50,-78
134590,8.489,-7.174,1.368,-0.411515,-0.020783,1.536077,99771.59,-190,+47,-78
134600,8.777,-6.110,1.187,-0.785056,0.118098,1.357820,99770.72,-190,+47,-78
134610,8.577,-5.030,0.948,-0.864872,0.225584,1.168389,99767.69,-190,+44,-77
134621,8.773,-3.785,0.421,-0.602010,0.280924,1.020462,99767.69,-192,+42,-76
134631,9.343,-3.454,0.658,-0.276891,0.296887,0.963527,99773.42,-192,+38,-75
134640,9.483,-3.900,1.213,-0.095442,0.256447,0.976297,99767.63,-192,+38,-75
134650,9.230,-4.100,1.806,-0.028396,0.209089,0.982683,99768.05,-191,+35,-75
134661,8.889,-4.148,2.153,0.037586,0.181419,0.937453,99769.36,-192,+33,-74
134671,8.495,-4.350,2.474,0.047164,0.179823,0.866150,99769.36,-192,+30,-73
134680,8.273,-4.373,2.649,-0.069368,0.208557,0.793784,99773.30,-192,+30,-73
134690,8.210,-4.265,3.324,-0.233790,0.259639,0.720352,99771.54,-192,+28,-73
134701,8.302,-3.979,3.708,-0.381717,0.302740,0.654371,99767.63,-193,+25,-72
134711,8.464,-3.722,3.151,-0.429074,0.297951,0.625105,99769.29,-193,+24,-71
134720,8.642,-3.460,2.633,-0.341808,0.245804,0.638408,99769.29,-193,+24,-71
134730,8.847,-3.658,2.177,-0.217295,0.187272,0.683637,99772.98,-194,+22,-71
134740,8.724,-4.415,1.943,-0.160891,0.138318,0.747490,99767.03,-193,+20,-71
134751,8.611,-4.359,2.559,-0.156102,0.122355,0.774096,99770.69,-194,+18,-69
134761,8.488,-4.226,3.029,-0.190689,0.144171,0.781545,99768.08,-194,+18,-69
134770,8.276,-4.353,3.171,-0.273166,0.176098,0.792719,99768.08,-193,+16,-69
134780,8.100,-4.393,3.013,-0.333295,0.188336,0.802829,99769.92,-193,+13,-68
134791,8.255,-4.246,2.756,-0.327974,0.165988,0.820389,99769.23,-193,+11,-68
134801,8.433,-4.173,2.566,-0.293919,0.123419,0.864554,99767.11,-193,+11,-68
134810,8.587,-4.290,2.435,-0.267845,0.098942,0.920426,99768.36,-192,+9,-68
134820,8.610,-4.575,2.350,-0.244964,0.077126,0.980554,99768.36,-192,+5,-68
134831,8.660,-4.894,2.231,-0.253478,0.066483,1.042279,99769.78,-192,+2,-67
134841,8.666,-4.895,2.410,-0.288597,0.075529,1.091233,99767.91,-192,+2,-67
134846,8.721,-5.017,2.350,-0.307753,0.091493,1.118371,99769.89,-191,+0,-68
134855,8.714,-5.064,2.341,-0.330634,0.099474,1.144976,99769.89,-191,-3,-68
134865,8.761,-5.137,2.387,-0.340212,0.100538,1.176371,99768.38,-191,-3,-68
134876,8.753,-5.315,2.384,-0.361497,0.104795,1.216279,99768.38,-190,-6,-67
134886,8.751,-5.322,2.680,-0.395019,0.112245,1.261508,99774.20,-190,-9,-67
134896,8.766,-5.358,2.765,-0.435460,0.120226,1.302481,99771.76,-189,-13,-66
134905,8.772,-5.793,2.454,-0.487074,0.119694,1.350903,99767.48,-189,-13,-66
134916,9.033,-6.269,1.901,-0.567955,0.099474,1.390811,99767.48,-188,-16,-66
134926,9.410,-5.920,1.809,-0.658414,0.076061,1.438701,99767.48,-187,-20,-67
134936,9.802,-5.775,1.670,-0.712689,0.056905,1.511068,99770.73,-185,-24,-66
134945,10.219,-5.880,1.404,-0.730249,0.005823,1.603655,99769.17,-185,-24,-66
134956,10.674,-5.851,1.336,-0.733973,-0.053241,1.701563,99769.80,-183,-28,-66
134966,10.703,-5.912,1.189,-0.727056,-0.116030,1.805856,99770.95,-181,-33,-68
134976,10.826,-5.906,0.874,-0.716946,-0.204893,1.927709,99770.95,-179,-38,-69
134986,10.915,-6.074,1.053,-0.689808,-0.310250,2.062333,99769.94,-179,-38,-69
134995,11.009,-6.304,1.521,-0.702047,-0.390067,2.201214,99768.17,-176,-43,-70
135006,11.234,-6.294,1.894,-0.754194,-0.454984,2.341691,99769.00,-172,-48,-73
135016,11.361,-6.421,2.213,-0.832414,-0.505002,2.471526,99769.00,-169,-56,-74
135026,11.760,-6.753,2.164,-0.961716,-0.523094,2.591250,99770.14,-169,-56,-74
135035,12.701,-7.013,2.096,-1.171368,-0.501810,2.688627,99768.58,-164,-61,-77
135046,14.410,-6.908,2.023,-1.436358,-0.465094,2.767911,99768.58,-159,-65,-81
135056,16.932,-6.372,2.232,-1.713055,-0.431571,2.827507,99769.92,-154,-70,-82
135066,19.384,-5.345,2.558,-1.970596,-0.401773,2.878057,99768.27,-154,-70,-82
135075,21.322,-3.048,2.964,-2.213238,-0.312379,2.940314,99768.27,-149,-75,-87
135086,21.706,-1.745,2.459,-2.458541,-0.170305,3.038223,99770.34,-143,-79,-91
135096,22.933,0.287,3.145,-2.658614,-0.029296,3.089837,99770.19,-137,-82,-94
135106,24.378,0.931,6.028,-2.559642,0.029768,3.199984,99768.27,-137,-82,-94
135116,22.738,-2.889,7.520,-1.916853,-0.458177,3.922589,99766.75,-130,-84,-98
135126,18.844,-9.458,6.774,-0.960652,-1.323387,4.976698,99766.58,-121,-92,-102
135136,14.513,-14.393,5.236,0.067384,-2.008745,5.416221,99769.03,-106,-103,-106
135146,12.298,-16.870,3.932,0.451567,-1.969901,5.108662,99765.95,-106,-103,-106
135156,13.096,-12.546,4.967,0.378136,-1.722470,4.286020,99766.58,-92,-113,-108
135165,11.065,-4.180,5.386,0.548411,-1.554323,3.315984,99766.58,-81,-118,-110
135176,6.945,0.644,5.939,0.514356,-1.360635,2.506645,99766.58,-73,-122,-111
135186,0.971,-4.372,4.812,-0.115662,-1.028599,2.198021,99769.61,-73,-122,-111
135196,3.994,-5.590,4.878,-0.035313,-1.045626,1.521710,99767.53,-67,-124,-113
135205,7.629,-0.795,3.200,0.157843,-1.096176,0.419710,99767.53,-60,-124,-115
135216,6.926,1.652,1.966,-0.236983,-0.780635,-0.234785,99765.50,-60,-122,-117
135226,5.415,1.330,1.586,-0.711093,-0.483186,-0.571610,99765.50,-60,-122,-117
135236,3.754,0.928,0.795,-0.948414,-0.394856,-0.979738,99769.48,-59,-118,-119
135246,2.408,0.632,-0.031,-0.922872,-0.329938,-1.446931,99766.44,-60,-114,-124
135256,1.689,0.273,-0.165,-0.791973,-0.262360,-1.927426,99763.95,-62,-110,-126
135266,1.611,0.018,0.069,-0.594561,-0.233627,-2.377059,99763.95,-65,-110,-126
135276,2.081,-0.017,0.276,-0.272102,-0.264489,-2.781462,99763.95,-65,-105,-128
135286,2.754,-0.302,0.542,0.141347,-0.328874,-3.151278,99767.13,-69,-100,-130
135296,3.336,-0.866,0.710,0.573420,-0.400177,-3.515773,99765.41,-75,-97,-128
135306,3.856,-1.316,0.838,0.955475,-0.464030,-3.872819,99764.36,-81,-94,-129
135316,4.338,-1.743,0.899,1.259310,-0.499681,-4.201663,99761.81,-81,-94,-129
135325,4.539,-2.099,1.210,1.536539,-0.519369,-4.491130,99761.81,-89,-91,-127
135336,4.703,-2.453,1.556,1.754704,-0.510324,-4.751332,99764.05,-97,-88,-125
135346,4.867,-3.106,1.964,1.934557,-0.473608,-4.978011,99763.73,-105,-84,-124
135356,5.178,-4.160,2.110,2.031933,-0.410287,-5.171166,99758.05,-105,-84,-124
135366,5.550,-5.243,2.316,2.004263,-0.315039,-5.345698,99759.20,-115,-78,-120
135376,6.118,-6.014,2.565,1.845695,-0.172434,-5.487772,99762.79,-124,-71,-117
135386,6.978,-6.509,2.546,1.700961,0.008483,-5.645808,99760.13,-135,-60,-116
135396,7.523,-7.234,1.955,1.474282,0.157474,-5.793203,99760.13,-135,-60,-116
135406,8.760,-8.070,1.450,1.208227,0.375639,-5.952304,99762.90,-145,-48,-114
135415,10.511,-8.711,2.043,0.862356,0.640630,-6.108744,99763.21,-154,-33,-111
135426,11.636,-9.961,2.541,0.467530,0.881676,-6.254010,99763.21,-160,-14,-109
135437,12.334,-11.979,2.858,0.183561,1.071993,-6.420915,99763.88,-160,-14,-109
135446,12.654,-13.431,2.967,0.071641,1.176996,-6.516340,99763.88,-165,+5,-106
135456,13.165,-14.414,3.222,0.034393,1.249895,-6.565826,99762.35,-169,+26,-104
135465,13.287,-14.907,3.270,-0.014029,1.335033,-6.574340,99763.38,-170,+47,-102
135476,13.414,-15.234,3.541,-0.123643,1.502648,-6.526982,99763.38,-170,+47,-102
135486,13.899,-16.003,3.884,-0.273166,1.711767,-6.365753,99766.78,-170,+68,-100
135496,15.663,-17.196,3.855,-0.404597,1.892684,-6.085331,99767.31,-167,+87,-96
135506,12.349,-19.036,2.829,-0.511019,2.074133,-5.587809,99768.03,-166,+104,-93
135516,8.228,-19.428,1.940,-0.587643,2.244941,-4.828488,99768.03,-166,+104,-93
135526,8.405,-19.844,-0.168,-0.660010,2.261968,-4.159094,99768.03,-164,+118,-88
135536,8.004,-20.146,-1.711,-0.692469,2.170445,-3.582287,99771.56,-161,+130,-82
135546,5.757,-20.528,-2.137,-0.659478,1.946427,-2.877242,99768.95,-160,+138,-80
135556,3.400,-21.329,-2.837,-0.704707,1.552666,-1.958288,99769.38,-160,+138,-80
135566,1.948,-21.735,-3.309,-0.779735,1.096116,-0.867995,99772.13,-159,+143,-76
135576,2.087,-20.593,-2.607,-0.750469,0.635841,0.261674,99772.13,-160,+144,-74
135586,6.910,-17.213,-0.126,-0.549863,0.180355,1.167325,99771.77,-162,+141,-74
135596,7.530,-14.638,-1.462,-0.156634,-0.375168,1.831930,99770.09,-162,+141,-74
135606,14.177,-1.808,2.827,0.434540,-0.988158,2.138957,99769.07,-163,+135,-77
135616,23.102,17.165,-1.093,1.041677,-1.385112,1.473820,99769.07,-163,+129,-82
135626,16.360,6.426,-4.628,0.494668,-0.905149,1.564278,99771.28,-163,+124,-85
135635,12.243,-9.904,-1.911,0.962393,-0.883333,2.789727,99771.28,-163,+124,-85
135646,15.505,-10.938,0.849,1.532282,-1.197277,3.377709,99771.34,-164,+113,-89
135656,11.026,-10.238,-4.416,0.944301,-0.914727,3.295764,99768.42,-165,+101,-93
135666,8.641,-10.691,-2.662,-0.063515,-0.177755,3.188810,99769.30,-167,+92,-93
135671,10.127,-9.597,2.254,-0.349258,0.167052,3.109525,99769.30,-167,+92,-93
135681,10.994,-7.555,6.765,-0.153442,0.257511,2.939250,99768.09,-168,+84,-93
135691,8.756,-5.638,12.025,0.651108,0.086704,2.743966,99769.66,-170,+75,-92
135701,8.901,-6.773,7.548,1.419475,-0.331535,2.598700,99768.09,-170,+75,-92
135711,7.892,-6.001,1.084,1.235897,-0.834378,2.416186,99768.41,-170,+64,-95
135720,6.814,-7.422,1.511,0.861824,-0.651333,2.317214,99768.41,-169,+56,-97
135731,7.284,-9.618,1.937,0.410063,-0.489571,2.177801,99771.93,-169,+48,-98
135741,7.910,-10.410,0.840,-0.283808,-0.349094,1.994755,99770.46,-169,+48,-98
135751,8.499,-7.393,0.124,-1.054836,-0.033553,1.697306,99769.95,-169,+45,-98
135761,8.330,-5.458,0.150,-1.411349,0.241015,1.388682,99767.96,-169,+43,-98
135771,8.535,-4.511,0.084,-1.188395,0.370850,1.197123,99767.96,-170,+41,-97
135781,9.027,-3.673,0.504,-0.649368,0.332006,1.091765,99772.26,-170,+41,-97
135791,9.366,-3.366,1.214,-0.141203,0.245272,1.093894,99770.59,-170,+39,-96
135801,9.128,-3.687,2.428,0.070044,0.135658,1.155618,99770.74,-170,+35,-95
135811,8.708,-4.268,2.537,0.158907,0.019658,1.155086,99769.60,-171,+32,-95
135821,8.307,-4.903,2.200,0.219567,-0.023443,1.072609,99769.60,-171,+32,-95
135831,8.069,-5.217,2.201,0.172210,0.024979,0.944371,99770.92,-170,+29,-95
135841,7.974,-5.479,2.429,0.016301,0.117566,0.804958,99770.30,-170,+26,-95
135851,7.752,-5.634,2.948,-0.226341,0.241015,0.654371,99768.89,-171,+25,-95
135861,7.804,-5.149,3.081,-0.472707,0.373511,0.505912,99771.44,-171,+25,-95
135871,8.058,-4.556,2.741,-0.562634,0.428318,0.414389,99771.44,-170,+24,-95
135881,8.373,-4.228,2.169,-0.517405,0.425125,0.393637,99770.09,-171,+23,-93
135891,8.711,-4.081,1.707,-0.414708,0.385217,0.430353,99768.28,-172,+24,-92
135901,8.820,-4.058,1.515,-0.264120,0.309658,0.488885,99767.34,-172,+24,-92
135911,8.616,-4.281,1.949,-0.110341,0.212281,0.546885,99768.64,-172,+22,-91
135921,8.326,-4.689,2.758,-0.085332,0.193125,0.584132,99768.64,-173,+20,-90
135931,7.949,-5.084,3.187,-0.188561,0.227713,0.577747,99772.30,-172,+20,-89
135941,7.832,-5.030,3.319,-0.307221,0.270814,0.547949,99769.33,-172,+20,-89
135951,7.978,-4.793,3.155,-0.388634,0.292630,0.522940,99767.81,-173,+18,-89
135961,8.184,-4.658,2.697,-0.427478,0.291566,0.525068,99768.34,-174,+18,-89
135971,8.461,-4.501,2.359,-0.415240,0.259639,0.555398,99768.34,-174,+16,-87
135982,8.537,-4.592,2.408,-0.372139,0.217070,0.613398,99772.44,-174,+16,-87
135991,8.565,-4.634,2.760,-0.364157,0.197382,0.683105,99769.83,-173,+15,-87
136001,8.616,-4.626,2.532,-0.383845,0.180355,0.759196,99769.16,-174,+13,-87
136011,8.672,-4.429,2.817,-0.417368,0.168116,0.858701,99767.48,-173,+12,-86
136022,8.636,-4.228,3.166,-0.447698,0.147896,0.983747,99767.48,-174,+12,-87
136027,8.705,-4.124,3.133,-0.480157,0.132997,1.086444,99769.28,-174,+9,-87
136036,8.836,-4.208,3.006,-0.491863,0.107456,1.193398,99769.28,-172,+7,-86
136046,8.712,-4.754,2.922,-0.501974,0.056373,1.323233,99769.55,-172,+7,-86
136056,8.660,-5.294,2.882,-0.544542,0.026575,1.424334,99771.89,-172,+3,-87
136067,8.725,-5.508,2.903,-0.612652,0.011676,1.501490,99769.97,-171,+0,-87
136076,8.856,-5.419,2.765,-0.671184,-0.006416,1.570132,99771.28,-171,-3,-87
136086,8.944,-5.361,2.703,-0.705239,-0.037278,1.656866,99771.64,-171,-3,-87
136096,9.288,-5.248,2.654,-0.713221,-0.097406,1.752113,99772.27,-170,-6,-87
136107,9.788,-5.497,2.339,-0.712689,-0.181480,1.863324,99772.27,-167,-10,-88
136116,10.041,-5.991,2.034,-0.705239,-0.244801,1.974003,99767.78,-166,-15,-89
136126,10.583,-6.371,1.727,-0.706836,-0.276727,2.071379,99767.78,-166,-15,-89
136136,10.840,-6.721,1.440,-0.706304,-0.302269,2.148003,99770.41,-163,-19,-90
136146,10.995,-6.685,1.397,-0.698322,-0.311847,2.216645,99768.43,-161,-24,-92
136156,10.988,-6.571,1.436,-0.679166,-0.336856,2.290076,99770.20,-158,-30,-92
136166,11.009,-6.555,1.676,-0.688212,-0.352819,2.374682,99770.57,-158,-30,-92
136176,11.346,-6.637,1.889,-0.723331,-0.377296,2.473654,99770.57,-155,-35,-93
136186,12.448,-6.971,2.543,-0.782395,-0.425186,2.579012,99771.94,-150,-40,-95
136197,13.667,-7.479,3.670,-0.864872,-0.481590,2.720021,99770.47,-146,-46,-96
136206,15.341,-8.209,3.549,-1.025037,-0.462434,2.931268,99769.06,-146,-46,-96
136216,18.454,-8.054,3.105,-1.353881,-0.377828,3.088241,99769.06,-141,-51,-98
136226,22.620,-6.643,4.682,-1.722101,-0.292159,3.172846,99769.06,-135,-56,-101
136237,26.488,-4.051,6.054,-2.087128,-0.150617,3.288314,99769.34,-130,-61,-102
136246,27.589,-2.254,5.657,-2.411716,-0.034085,3.484131,99767.47,-124,-61,-105
136256,26.575,-1.481,5.414,-2.646376,0.095749,3.577250,99772.00,-124,-63,-105
136261,24.348,-1.984,6.255,-2.763972,0.234098,3.537342,99765.64,-119,-65,-108
136271,20.248,-4.909,6.226,-2.755991,0.189933,3.631525,99765.64,-119,-65,-108
136282,15.425,-9.798,4.259,-2.329238,-0.439553,4.217378,99766.86,-112,-69,-110
136291,10.735,-12.465,1.983,-1.393257,-1.183975,4.519084,99769.52,-101,-75,-114
136301,8.483,-14.218,2.763,-0.525386,-1.191424,4.209396,99765.34,-92,-82,-116
136311,9.935,-9.774,3.562,-0.153442,-0.949846,3.549048,99765.45,-92,-82,-116
136322,8.567,-2.254,2.774,-0.089588,-0.831186,2.662553,99765.45,-83,-87,-116
136331,5.130,1.020,3.114,-0.047020,-0.661443,1.787233,99765.72,-76,-90,-117
136341,-1.297,-3.291,1.417,-0.429607,-0.302801,1.585031,99766.70,-73,-92,-117
136351,3.447,-4.141,2.910,-0.585515,-0.189461,1.039086,99766.97,-73,-92,-117
136361,5.079,1.122,1.402,-0.582854,-0.245333,-0.140601,99764.00,-70,-92,-117
136371,4.008,3.255,0.912,-0.761643,0.139382,-0.723793,99764.00,-70,-89,-118
136381,3.636,2.353,0.871,-0.936175,0.395327,-1.117023,99765.85,-73,-84,-119
136391,2.926,1.700,-0.005,-0.961716,0.415015,-1.528343,99763.34,-73,-84,-119
136401,2.112,1.371,-0.623,-0.780799,0.402777,-1.911462,99764.80,-75,-80,-119
136412,1.571,0.909,-0.322,-0.453552,0.405437,-2.267444,99763.76,-79,-74,-120
136421,1.732,0.649,0.035,-0.089588,0.382557,-2.651095,99763.76,-83,-70,-120
136431,2.520,0.528,0.242,0.264265,0.342116,-3.069333,99766.29,-83,-70,-120
136441,3.434,0.051,0.232,0.606411,0.289437,-3.468948,99762.59,-87,-64,-119
136452,4.066,-0.454,0.160,0.916099,0.231969,-3.829718,99761.65,-92,-59,-117
136461,4.279,-0.909,0.242,1.193328,0.191529,-4.140470,99760.13,-97,-54,-116
136471,4.527,-1.209,0.449,1.435438,0.166520,-4.402268,99760.13,-97,-54,-116
136481,4.779,-1.749,0.612,1.572722,0.176630,-4.652892,99763.08,-103,-48,-112
136492,5.057,-2.264,0.881,1.669566,0.192061,-4.891277,99761.20,-107,-41,-112
136497,5.367,-2.819,1.337,1.735548,0.233034,-5.062616,99760.63,-107,-41,-112
136506,5.848,-3.445,1.643,1.783438,0.280924,-5.222781,99760.63,-112,-34,-111
136516,6.488,-4.334,1.986,1.803658,0.351162,-5.430836,99758.75,-117,-26,-110
136526,7.171,-5.235,2.004,1.754704,0.438428,-5.636230,99758.75,-122,-18,-109
136537,7.978,-5.869,1.900,1.635511,0.567731,-5.813955,99767.00,-122,-18,-109
136547,9.211,-6.351,1.389,1.492374,0.693841,-5.991680,99763.25,-127,-7,-108
136556,10.814,-6.886,1.059,1.443952,0.809309,-6.207716,99762.98,-131,+3,-107
136566,12.447,-8.144,1.724,1.467897,0.947125,-6.375863,99762.98,-135,+15,-107
136577,13.645,-10.398,2.264,1.473750,1.030666,-6.486542,99762.98,-135,+15,-107
136587,14.343,-12.992,2.544,1.537071,1.012575,-6.517936,99766.60,-137,+25,-106
136596,15.156,-15.123,3.133,1.718521,0.890189,-6.538157,99766.66,-140,+36,-105
136606,16.415,-16.536,3.068,1.874429,0.705547,-6.515808,99766.29,-142,+47,-105
136616,16.967,-18.056,2.874,1.808447,0.636373,-6.332762,99766.20,-142,+47,-105
136627,15.867,-19.679,3.541,1.485456,0.707144,-5.977845,99766.20,-144,+58,-104
136637,13.195,-20.610,4.497,1.026778,0.872630,-5.464359,99766.84,-146,+69,-103
136646,10.534,-20.565,5.107,0.599494,1.112079,-4.864139,99768.63,-147,+79,-101
136656,8.402,-21.085,4.892,0.336631,1.392501,-4.267112,99766.06,-147,+79,-101
136667,6.375,-21.706,2.321,0.126448,1.602684,-3.711590,99766.41,-149,+89,-98
136677,4.223,-22.207,-0.708,-0.173130,1.678776,-3.145957,99770.37,-152,+98,-95
136686,2.432,-22.477,-3.096,-0.605203,1.620776,-2.426013,99769.27,-152,+105,-90
136696,1.024,-21.668,-3.497,-1.123478,1.432941,-1.465554,99769.27,-152,+105,-90
136707,1.241,-19.300,-2.563,-1.466156,1.043969,-0.361959,99771.46,-155,+109,-86
136717,2.978,-15.404,-0.851,-1.419331,0.537400,0.672463,99769.38,-156,+111,-84
136726,8.153,-12.103,1.428,-0.962781,0.032428,1.465838,99769.38,-158,+109,-83
136732,11.458,-9.161,1.792,-0.488671,-0.345902,1.750517,99773.97,-158,+109,-83
136741,12.454,-3.837,2.400,0.078026,-0.742856,1.942076,99767.86,-160,+103,-85
136752,19.504,12.752,5.090,0.995383,-1.161094,1.450407,99767.86,-159,+97,-89
136762,18.940,15.724,-3.423,0.618650,-0.962617,0.823050,99766.92,-159,+97,-89
136771,10.360,-4.591,-5.568,0.294063,-0.647076,1.709545,99766.92,-158,+94,-91
136781,14.683,-10.598,0.073,1.003365,-0.929626,2.569434,99771.05,-160,+86,-93
136792,16.352,-9.041,-0.600,1.068815,-1.154176,2.654039,99770.74,-159,+77,-96
136802,10.561,-9.777,-3.724,0.204136,-0.554489,2.702993,99769.49,-159,+77,-96
136811,10.127,-9.776,-1.395,-0.584983,0.086171,2.721617,99769.65,-160,+69,-97
136821,10.151,-8.848,4.070,-0.621166,0.341052,2.541764,99769.65,-161,+63,-95
136832,9.472,-8.122,9.127,0.149861,0.345309,2.383195,99767.72,-162,+56,-93
136842,10.522,-6.001,4.922,0.739439,-0.106452,2.158113,99767.83,-162,+56,-93
136852,7.398,-3.509,1.702,0.706448,-0.433522,1.817208,99770.91,-162,+49,-94
136861,6.519,-4.064,3.240,0.808613,-0.313975,1.698902,99766.38,-162,+43,-95
136871,7.054,-6.755,2.082,0.697402,-0.363461,1.571728,99766.38,-162,+37,-96
136882,7.794,-8.425,1.439,0.157310,-0.310782,1.338664,99770.38,-162,+37,-96
136892,8.903,-7.547,0.637,-0.494524,-0.106452,1.108261,99769.80,-160,+34,-97
136901,9.258,-5.920,0.438,-0.947881,0.096814,0.880517,99768.20,-162,+32,-97
136911,9.277,-4.440,0.837,-1.001625,0.230373,0.687362,99767.84,-161,+32,-97
136922,9.279,-3.281,1.081,-0.807937,0.287841,0.588921,99767.84,-161,+32,-97
136932,9.381,-2.485,1.878,-0.449295,0.255914,0.588921,99771.58,-162,+33,-96
136941,9.567,-2.260,2.620,-0.100763,0.143639,0.643197,99771.22,-162,+30,-95
136951,9.508,-2.350,2.997,0.142411,-0.017058,0.733655,99770.23,-162,+28,-95
136962,9.276,-2.805,2.981,0.356852,-0.164984,0.775692,99769.03,-162,+28,-95
136972,9.000,-3.215,2.796,0.514888,-0.253847,0.715563,99769.03,-162,+26,-95
136981,8.574,-4.411,2.534,0.480301,-0.252250,0.643197,99769.83,-162,+23,-95
136991,8.312,-5.425,2.477,0.194026,-0.146893,0.556463,99770.98,-160,+20,-96
137001,8.323,-5.092,2.598,-0.184304,0.003162,0.437802,99766.75,-160,+20,-96
137012,8.346,-3.994,2.580,-0.397148,0.105327,0.327123,99766.50,-160,+20,-96
137021,8.692,-3.057,2.215,-0.389698,0.140979,0.285619,99766.50,-160,+20,-95
137031,8.938,-2.714,1.723,-0.257203,0.123419,0.319674,99770.52,-160,+20,-96
137041,9.089,-3.108,1.451,-0.086396,0.071272,0.397362,99769.05,-160,+19,-95
137052,8.978,-3.747,1.757,0.033861,0.021254,0.464408,99773.06,-160,+19,-95
137062,8.784,-3.725,2.325,0.030136,0.028171,0.494206,99771.61,-160,+16,-95
137071,8.602,-3.434,2.377,-0.051809,0.050520,0.528793,99771.61,-160,+15,-95
137081,8.811,-3.190,2.618,-0.132157,0.070740,0.588389,99770.84,-160,+14,-95
137088,9.057,-3.209,2.558,-0.166212,0.058502,0.644793,99769.91,-160,+14,-95
137097,9.228,-3.248,2.179,-0.172598,0.032428,0.718756,99769.91,-161,+13,-94
137107,9.358,-3.153,2.010,-0.156634,-0.012801,0.826774,99768.14,-161,+13,-94
137116,9.235,-3.293,2.217,-0.133221,-0.064948,0.943839,99770.02,-160,+11,-95
137126,9.064,-3.479,2.428,-0.115662,-0.105388,1.047600,99770.02,-159,+8,-95
137137,8.920,-3.739,2.551,-0.105552,-0.144232,1.129013,99771.02,-159,+5,-95
137147,8.773,-4.023,2.616,-0.116194,-0.175627,1.192334,99773.45,-159,+5,-95
137157,8.659,-4.384,2.498,-0.152377,-0.184672,1.230114,99770.32,-158,+2,-97
137166,8.462,-4.756,2.140,-0.199735,-0.172966,1.248737,99770.32,-156,+0,-97
137177,8.506,-4.785,2.095,-0.265717,-0.144764,1.259380,99770.32,-156,-3,-97
137187,8.567,-4.677,2.079,-0.325845,-0.125608,1.282260,99773.92,-156,-3,-97
137196,8.749,-4.784,2.141,-0.379056,-0.131461,1.326425,99769.91,-155,-7,-97
137206,8.954,-4.599,2.238,-0.440249,-0.157535,1.392407,99772.30,-154,-9,-98
137217,9.172,-4.185,2.493,-0.500377,-0.182012,1.496168,99769.84,-153,-12,-98
137227,9.255,-4.167,2.478,-0.510487,-0.251718,1.631856,99769.84,-153,-12,-98
137237,9.397,-4.198,2.408,-0.489735,-0.340048,1.783508,99770.02,-151,-16,-99
137246,9.379,-4.529,2.310,-0.480689,-0.408159,1.923453,99771.27,-149,-20,-101
137256,9.109,-5.027,2.138,-0.505166,-0.479461,2.064462,99770.13,-146,-24,-102
137267,9.072,-5.351,2.158,-0.558909,-0.542782,2.193764,99770.13,-142,-28,-103
137277,9.260,-5.397,2.563,-0.645111,-0.606103,2.328920,99770.01,-142,-28,-103
137286,9.495,-5.454,2.922,-0.744616,-0.641223,2.460883,99770.01,-138,-33,-105
137296,9.703,-5.772,3.029,-0.864340,-0.653993,2.590718,99770.10,-135,-38,-108
137307,10.271,-6.460,3.043,-0.994707,-0.636434,2.711507,99769.70,-130,-43,-109
137317,11.541,-7.457,2.713,-1.157001,-0.618874,2.834957,99767.82,-130,-43,-109
137326,13.642,-8.447,2.519,-1.374634,-0.546507,2.889232,99767.82,-126,-46,-112
137336,15.674,-9.029,1.867,-1.567789,-0.428379,2.911048,99771.48,-122,-50,-114
137347,19.106,-8.401,1.869,-1.714652,-0.387406,2.917966,99770.03,-117,-53,-117
137357,22.682,-7.232,2.610,-1.721037,-0.429975,2.971709,99767.31,-117,-53,-117
137367,26.597,-6.966,2.210,-1.663037,-0.535333,3.156883,99767.14,-112,-56,-120
137377,29.248,-8.197,1.629,-1.547037,-0.853534,3.485727,99770.38,-106,-61,-122
137387,30.468,-5.910,1.804,-1.512450,-1.194085,3.739011,99770.00,-99,-64,-126
137397,29.054,-2.310,2.713,-1.655587,-1.247828,3.549580,99768.66,-99,-64,-126
137407,21.313,0.802,4.977,-1.742853,-1.193552,3.402186,99768.66,-90,-67,-130
137416,11.155,-2.792,2.527,-1.630578,-1.286140,3.797543,99769.53,-83,-71,-133
137426,2.843,-10.746,1.149,-1.129863,-1.367020,4.307837,99769.53,-73,-77,-138
137437,-0.372,-15.860,0.777,-0.237515,-1.538360,4.294002,99771.77,-73,-77,-138
137447,3.197,-10.980,0.281,0.450503,-1.619772,3.340461,99769.85,-62,-82,-138
137457,3.208,-2.225,0.167,0.659090,-1.622965,2.210260,99768.54,-55,-88,-139
137466,2.140,3.791,1.485,0.765512,-1.454818,1.252462,99767.76,-49,-92,-139
137477,-0.201,1.472,0.181,0.594705,-1.172800,0.800169,99767.76,-49,-92,-139
137487,1.511,1.660,-0.121,0.498393,-1.142470,0.270720,99769.78,-46,-96,-139
137497,1.392,3.296,-0.153,0.647916,-1.062654,-0.474766,99770.13,-45,-97,-139
137507,0.914,2.988,-0.066,0.663347,-0.882800,-0.919610,99767.41,-44,-97,-140
137517,0.415,2.261,-0.218,0.544154,-0.790213,-1.266013,99767.41,-44,-97,-140
137527,0.157,1.938,-0.626,0.542026,-0.739131,-1.647004,99767.41,-45,-99,-140
137537,-0.142,1.441,-0.651,0.632484,-0.686984,-2.047683,99769.62,-47,-98,-139
137546,0.262,0.870,-0.359,0.709640,-0.643351,-2.449425,99767.65,-51,-97,-139
137556,1.101,0.814,-0.293,0.777218,-0.655057,-2.876709,99767.38,-51,-97,-139
137567,1.891,0.447,-0.353,0.843200,-0.667828,-3.339645,99764.77,-55,-96,-139
137577,2.218,-0.569,-0.456,0.862356,-0.662507,-3.752562,99764.77,-60,-94,-139
137587,2.046,-1.363,-0.273,0.853310,-0.649204,-4.059589,99766.11,-67,-90,-138
137596,2.317,-1.883,-0.278,0.793714,-0.563535,-4.275094,99769.17,-67,-90,-138
137607,3.092,-3.333,0.394,0.695273,-0.489571,-4.441644,99764.28,-73,-86,-139
137617,3.558,-5.371,0.499,0.586191,-0.493296,-4.627882,99764.28,-80,-81,-139
137627,3.691,-6.721,0.189,0.421237,-0.450727,-4.832745,99766.91,-87,-74,-140
137636,4.553,-7.122,0.206,0.270118,-0.305993,-4.970561,99766.91,-87,-74,-140
137647,6.434,-6.712,0.716,0.378668,-0.236287,-5.001423,99768.98,-94,-66,-141
137657,8.037,-6.871,0.825,0.901732,-0.374636,-4.998231,99769.92,-101,-58,-141
137667,8.914,-8.747,1.377,1.679677,-0.661975,-4.990781,99767.06,-106,-52,-141
137677,9.299,-12.230,2.220,2.616722,-1.037290,-4.938102,99768.28,-111,-50,-139
137687,9.729,-15.092,3.539,3.331877,-1.293589,-4.865203,99768.28,-111,-50,-139
137697,9.897,-17.644,3.725,3.920391,-1.461736,-4.712488,99769.31,-113,-50,-138
137707,8.566,-19.552,4.580,4.048629,-1.617112,-4.429938,99768.33,-115,-50,-138
137717,8.614,-20.281,5.351,3.960299,-1.599020,-3.987755,99767.19,-116,-50,-135
137726,8.392,-21.495,7.720,3.625070,-1.364360,-3.413608,99767.68,-116,-52,-135
137737,5.568,-22.664,9.001,2.914171,-1.135553,-2.781994,99769.02,-119,-53,-134
137747,5.645,-23.388,8.738,1.853144,-0.750837,-2.250948,99768.09,-118,-54,-133
137757,1.408,-23.346,7.659,0.644723,-0.174030,-1.849738,99768.09,-121,-50,-133
137766,-0.239,-22.691,6.293,-0.242304,0.479933,-1.278784,99767.99,-121,-50,-133
137777,0.739,-19.676,2.528,-0.806872,0.778978,-0.818509,99767.99,-124,-47,-133
137787,2.829,-16.212,-2.789,-1.076120,0.811969,-0.282142,99772.92,-126,-45,-133
137797,6.399,-9.222,-5.308,-1.163386,0.554960,0.132903,99769.84,-127,-41,-133
137806,11.810,3.339,-1.842,-0.981404,0.289437,-0.090583,99770.00,-127,-41,-133
137817,11.906,6.539,6.420,-0.508359,0.603382,-0.424748,99769.11,-128,-39,-133
137827,10.344,-7.730,3.736,0.250962,0.859859,0.156848,99769.11,-130,-39,-131
137837,15.987,-16.860,-3.012,0.779879,0.122887,1.404646,99768.88,-128,-45,-131
137847,17.298,-6.414,2.128,1.148099,-0.456048,1.267361,99764.59,-128,-45,-131
137857,11.531,-4.266,-0.846,1.054448,0.129804,0.864022,99766.53,-126,-50,-130
137867,7.184,-3.502,-1.514,0.759659,0.214942,1.098683,99766.53,-126,-54,-128
137877,5.714,-2.315,1.082,0.985273,-0.005351,0.970444,99766.53,-125,-59,-126
137887,6.922,-5.715,1.500,0.872466,0.077658,0.755472,99769.08,-125,-59,-126
137896,8.664,-7.785,2.416,0.385053,0.189401,0.634683,99770.23,-125,-62,-125
137907,10.262,-4.830,3.846,-0.004451,0.216006,0.555931,99768.45,-124,-64,-125
137912,10.254,-3.281,3.592,-0.156634,0.173437,0.568169,99769.08,-124,-64,-125
137922,9.710,-3.637,2.845,-0.110341,0.084043,0.611270,99769.08,-124,-64,-124
137932,9.018,-4.541,1.657,-0.019882,-0.033553,0.618187,99769.14,-122,-66,-125
137942,8.596,-4.769,0.651,-0.003387,-0.075590,0.563380,99768.20,-122,-66,-125
137952,8.601,-4.403,0.299,0.025879,-0.063884,0.500059,99769.81,-121,-67,-125
137962,8.985,-3.971,0.317,0.076962,-0.053773,0.481435,99767.36,-121,-69,-125
137972,9.139,-4.460,0.357,0.128577,-0.064416,0.484628,99767.36,-119,-69,-125
137981,9.200,-4.885,0.941,0.112613,-0.051645,0.465472,99768.55,-119,-69,-125
137992,9.000,-4.584,1.543,0.044503,-0.040471,0.441527,99764.45,-119,-71,-125
138002,8.584,-4.253,1.608,0.013109,-0.067076,0.425032,99770.07,-119,-72,-125
138012,8.411,-4.302,1.265,0.017898,-0.100067,0.411197,99770.90,-118,-73,-125
138021,8.482,-4.469,1.104,0.056210,-0.127737,0.392041,99770.90,-117,-73,-125
138032,8.518,-4.705,1.010,0.105696,-0.154342,0.368096,99770.88,-117,-73,-125
138042,8.489,-4.930,0.910,0.120063,-0.175094,0.337766,99770.67,-115,-74,-125
138052,8.423,-4.976,0.707,0.101439,-0.169773,0.304243,99770.72,-114,-76,-126
138062,8.502,-4.808,0.548,0.062595,-0.141572,0.275509,99769.73,-115,-77,-126
138072,8.621,-4.548,0.463,0.027476,-0.114966,0.262738,99769.73,-115,-77,-126
138082,8.678,-4.357,0.408,0.039182,-0.105920,0.265399,99773.80,-114,-77,-126
138092,8.893,-4.264,0.803,0.092393,-0.125076,0.282958,99768.90,-113,-78,-127
138102,9.008,-4.153,1.192,0.147733,-0.162856,0.306371,99767.87,-112,-79,-126
138112,8.929,-4.203,1.345,0.193494,-0.201168,0.335105,99768.27,-112,-79,-126
138122,8.696,-4.517,1.221,0.208393,-0.236287,0.361710,99768.27,-112,-80,-126
138132,8.683,-4.779,1.110,0.205200,-0.264489,0.378738,99770.28,-110,-81,-127
138142,8.796,-4.873,0.955,0.175934,-0.285241,0.387252,99767.05,-108,-82,-127
138151,8.824,-4.843,0.962,0.141347,-0.300140,0.404811,99771.22,-108,-82,-127
138162,8.681,-4.743,0.985,0.114210,-0.318232,0.422371,99767.41,-108,-84,-127
138172,8.622,-4.572,0.802,0.091329,-0.332067,0.452701,99767.41,-105,-84,-127
138182,8.829,-4.451,0.796,0.074301,-0.353883,0.492610,99770.76,-103,-86,-128
138192,9.063,-4.539,0.849,0.082815,-0.396452,0.545288,99770.43,-103,-86,-128
138202,9.112,-4.906,0.840,0.092925,-0.457645,0.588921,99771.90,-103,-88,-128
138212,8.842,-5.043,1.032,0.073237,-0.494892,0.614463,99769.45,-100,-89,-129
138222,8.761,-5.212,1.162,0.020026,-0.507663,0.630426,99769.45,-98,-90,-130
138232,8.846,-5.562,0.803,-0.062983,-0.513516,0.637343,99771.50,-98,-90,-130
138242,8.932,-5.678,0.466,-0.130561,-0.519369,0.628830,99766.77,-96,-91,-131
138252,8.862,-5.535,0.468,-0.189625,-0.515645,0.602224,99769.98,-93,-92,-132
138262,8.738,-5.625,0.512,-0.243368,-0.517773,0.570830,99767.48,-91,-92,-133
138267,8.805,-5.764,0.372,-0.292854,-0.517241,0.563912,99767.48,-91,-92,-133
138277,8.779,-5.711,0.142,-0.348194,-0.519902,0.563380,99767.48,-89,-92,-134
138288,8.773,-5.616,0.038,-0.432267,-0.528947,0.590518,99770.91,-87,-92,-136
138297,8.827,-5.412,0.157,-0.496120,-0.560342,0.618187,99771.53,-87,-92,-136
138307,8.918,-5.115,0.248,-0.522194,-0.611957,0.662353,99769.03,-84,-92,-138
138317,8.874,-4.914,0.211,-0.534964,-0.682195,0.719288,99769.03,-81,-92,-140
138328,9.099,-5.017,0.391,-0.518469,-0.777975,0.782077,99770.28,-78,-92,-141
138337,9.720,-5.405,0.352,-0.503038,-0.853534,0.839013,99770.97,-78,-92,-141
138347,9.953,-6.045,0.329,-0.525918,-0.886525,0.886371,99770.97,-74,-92,-144
138357,10.192,-6.559,0.243,-0.622762,-0.900892,0.919361,99771.22,-70,-92,-146
138368,10.543,-6.534,0.246,-0.759515,-0.909938,0.949160,99768.25,-65,-92,-149
138377,10.940,-6.181,0.230,-0.878175,-0.937608,0.988004,99768.25,-65,-92,-149
138387,11.216,-5.984,0.086,-0.952670,-1.006250,1.031637,99772.79,-62,-90,-151
138397,11.489,-5.685,-0.149,-1.019716,-1.086599,1.097086,99768.24,-57,-89,-154
138407,11.796,-5.655,-0.271,-1.071331,-1.178121,1.160939,99768.40,-51,-88,-157
138418,12.342,-5.547,-0.104,-1.079313,-1.296782,1.220003,99769.91,-51,-88,-157
138427,12.841,-5.386,0.389,-1.099533,-1.392562,1.271618,99769.73,-46,-86,-160
138437,13.452,-5.503,0.772,-1.150615,-1.465993,1.335471,99767.97,-39,-86,-164
138447,14.579,-5.314,0.974,-1.221386,-1.525057,1.386554,99766.61,-32,-82,-167
138458,16.232,-4.804,1.207,-1.268744,-1.581993,1.417416,99769.16,-32,-82,-167
138467,17.725,-3.765,1.618,-1.259698,-1.690011,1.428591,99769.16,-26,-79,-171
138477,18.249,-2.522,2.657,-1.200101,-1.919882,1.496701,99769.16,-17,-78,-173
138487,18.808,-1.603,2.587,-1.046322,-2.381222,1.635049,99771.05,-7,-76,-176
138498,16.885,-2.319,7.236,-0.639258,-2.890983,1.796811,99767.86,-7,-76,-176
138503,15.581,-3.841,10.612,-0.116194,-3.168212,2.041049,99768.91,+4,-77,-178
138512,13.808,-6.518,8.864,0.243512,-3.430542,2.356590,99765.27,+19,-79,-179
138522,11.641,-9.880,8.322,0.585127,-3.569955,2.837617,99765.27,+19,-79,-179
138532,12.907,-10.544,8.161,1.267824,-3.717349,3.011085,99766.72,+35,-83,-178
138543,11.912,-10.849,5.141,1.715860,-3.959991,2.853580,99767.44,+52,-89,-174
138552,9.859,-10.320,2.478,1.698832,-3.974358,2.710443,99766.34,+67,-93,-170
138562,7.025,-8.950,0.962,1.696172,-3.962120,2.506113,99768.53,+67,-93,-170
138572,5.165,-8.428,2.414,2.044704,-3.977551,2.303379,99768.53,+84,-97,-164
138583,7.335,-5.892,4.896,2.607676,-3.936579,1.931966,99769.60,+98,-103,-157
138592,8.482,-3.753,6.220,2.913107,-3.697129,1.569600,99766.88,+110,-110,-147
138602,8.532,-1.762,6.371,2.892887,-3.473643,1.296095,99765.54,+110,-110,-147
138612,7.341,-0.965,5.551,2.794979,-3.324120,1.054517,99767.15,+121,-116,-137
138622,6.305,-0.952,4.819,2.707181,-3.188964,0.857105,99767.15,+130,-120,-127
138632,5.437,-1.537,4.531,2.625768,-3.056469,0.603288,99765.77,+137,-126,-117
138642,4.730,-2.407,4.240,2.491144,-2.900561,0.266995,99767.09,+137,-126,-117
138652,4.478,-3.120,4.149,2.268722,-2.693038,-0.115592,99768.49,+142,-130,-107
138662,4.284,-3.141,4.106,2.023952,-2.473277,-0.523720,99767.87,+145,-134,-99
138672,4.665,-3.140,3.817,1.794612,-2.258304,-0.921206,99767.87,+145,-139,-91
138682,4.603,-2.670,3.345,1.572722,-2.083772,-1.340509,99764.81,+145,-139,-91
138692,4.416,-2.671,2.862,1.386484,-1.916690,-1.741187,99764.50,+144,-141,-83
138702,4.340,-2.777,2.650,1.223658,-1.740029,-2.130692,99763.72,+140,-145,-77
138713,4.546,-2.801,2.723,1.104998,-1.561240,-2.505297,99765.23,+136,-150,-71
138722,4.858,-2.755,2.951,1.090099,-1.401607,-2.843719,99765.23,+136,-150,-71
138732,4.971,-2.971,3.310,1.173108,-1.261663,-3.133718,99765.98,+128,-154,-66
138742,5.019,-3.320,3.698,1.311989,-1.132892,-3.391260,99763.74,+119,-159,-59
138753,5.218,-3.666,3.791,1.451401,-1.006782,-3.641883,99762.07,+109,-164,-53
138762,5.495,-4.055,3.719,1.573787,-0.885461,-3.895700,99763.79,+109,-164,-53
138772,5.822,-4.399,3.737,1.690851,-0.764672,-4.136745,99763.79,+98,-168,-47
138782,6.093,-4.691,3.777,1.795144,-0.634305,-4.344268,99761.89,+84,-173,-41
138792,6.421,-4.876,3.807,1.891456,-0.487975,-4.532635,99761.89,+70,-176,-35
138803,6.733,-5.152,3.773,1.982447,-0.333663,-4.710892,99761.58,+70,-176,-35
138812,7.125,-5.637,3.710,2.039915,-0.160728,-4.881167,99759.97,+54,-177,-28
138822,7.637,-6.155,3.596,2.034062,0.030832,-5.048249,99759.97,+37,-179,-22
138832,8.464,-6.652,3.449,1.997878,0.229309,-5.206818,99764.05,+18,-178,-16
138843,9.514,-7.075,3.230,2.018631,0.405969,-5.343038,99764.09,+18,-178,-16
138852,10.571,-7.981,3.120,2.091529,0.566134,-5.457973,99762.17,+2,-175,-9
138862,11.028,-9.388,3.375,2.118135,0.725235,-5.538855,99762.53,-14,-169,-4
138872,11.354,-10.415,3.890,2.068117,0.897639,-5.592597,99762.53,-30,-164,+2
138883,12.042,-10.809,4.339,2.000539,1.082813,-5.697955,99763.92,-30,-164,+2
138892,12.871,-11.611,4.098,1.906355,1.274905,-5.816616,99765.42,-44,-157,+7
138902,13.195,-13.196,3.601,1.716924,1.422831,-5.873019,99765.48,-60,-149,+12
138912,13.038,-14.813,2.632,1.415218,1.570758,-5.859184,99765.64,-74,-141,+17
138923,12.729,-16.485,2.514,1.009218,1.790519,-5.701680,99765.64,-74,-141,+17
138933,12.067,-17.954,2.295,0.538833,1.976757,-5.439350,99768.48,-87,-134,+22
138942,11.331,-18.755,1.809,0.064191,2.098610,-5.092947,99767.97,-101,-125,+25
138952,10.424,-19.319,1.360,-0.316799,2.174170,-4.619901,99767.34,-111,-118,+27
138962,8.795,-20.074,0.822,-0.528579,2.175766,-4.041498,99766.77,-120,-118,+27
138973,7.054,-20.213,-0.374,-0.595625,2.082647,-3.372104,99766.77,-120,-109,+30
138982,5.137,-20.466,-1.513,-0.505166,1.865014,-2.607994,99770.48,-126,-103,+31
138992,3.284,-20.717,-2.307,-0.338616,1.534574,-1.761407,99768.77,-129,-99,+33
139002,1.934,-20.985,-2.607,-0.249753,1.156776,-0.829683,99770.22,-131,-97,+35
139013,4.054,-20.602,-1.973,-0.276359,0.786960,0.085546,99768.77,-131,-97,+35
139022,6.175,-19.781,-2.812,-0.350854,0.412355,0.788463,99768.77,-130,-99,+35
139032,5.953,-17.291,-4.273,-0.385974,-0.111241,1.527031,99771.52,-127,-103,+34
139042,13.482,-4.945,-0.801,0.032797,-0.857791,1.953251,99770.27,-123,-107,+34
139053,24.532,16.873,-1.956,0.790521,-1.623497,1.524902,99765.78,-123,-107,+34
139063,23.145,6.881,-1.762,0.515952,-0.995608,1.554700,99770.58,-122,-109,+33
139072,13.699,-9.421,-0.493,0.604283,-0.899296,3.243085,99770.58,-115,-116,+32
139082,12.107,-9.644,-4.785,1.239622,-1.110543,3.712406,99770.63,-106,-124,+32
139092,8.785,-10.716,-6.038,0.535463,-0.633596,3.291152,99772.75,-106,-124,+32
139103,8.575,-10.803,-0.969,-0.153974,-0.028764,2.983415,99769.06,-100,-129,+33
139112,10.575,-8.352,7.153,-0.134818,0.198447,2.791324,99767.23,-94,-135,+32
139122,9.580,-6.013,12.257,0.838943,0.051052,2.617856,99767.23,-87,-139,+34
139132,10.175,-4.749,5.751,1.506209,-0.592801,2.431085,99771.02,-87,-139,+34
139143,7.454,-2.953,1.895,1.489713,-0.973791,2.262939,99768.14,-81,-142,+38
139152,6.779,-6.649,2.237,1.337530,-0.833846,2.275177,99767.67,-76,-145,+39
139162,6.890,-12.634,0.737,0.758595,-0.800856,2.233673,99768.92,-71,-148,+39
139172,7.803,-10.766,-0.472,-0.284873,-0.443810,2.030939,99768.92,-71,-148,+39
139183,7.985,-7.312,-0.812,-1.250120,0.093621,1.588756,99771.63,-65,-152,+38
139193,8.093,-5.975,-0.529,-1.599184,0.395859,1.244481,99770.44,-62,-154,+34
139202,8.378,-5.084,0.086,-1.506597,0.566134,1.004499,99769.97,-59,-155,+31
139212,8.581,-4.302,0.840,-1.193716,0.607107,0.847527,99769.44,-59,-155,+31
139223,8.901,-3.272,1.593,-0.722267,0.546978,0.803362,99769.44,-57,-156,+29
139233,9.647,-2.116,2.205,-0.140671,0.396391,0.878389,99770.32,-55,-157,+28
139242,9.598,-2.568,2.982,0.383989,0.151621,1.032701,99770.05,-53,-158,+30
139252,8.914,-3.818,3.385,0.559585,-0.060691,1.139123,99769.12,-53,-158,+30
139262,8.201,-4.980,3.081,0.449439,-0.130397,1.105068,99768.60,-49,-160,+31
139273,7.892,-5.650,2.714,0.236595,-0.072929,0.970444,99768.60,-46,-161,+31
139283,7.734,-6.232,2.400,-0.042763,0.047327,0.798040,99770.86,-44,-163,+31
139292,7.650,-5.881,2.398,-0.392891,0.220263,0.602224,99769.81,-44,-163,+31
139302,7.997,-4.818,2.556,-0.653625,0.378832,0.461747,99770.86,-43,-162,+31
139313,8.365,-4.494,2.290,-0.710028,0.425125,0.435674,99768.09,-42,-163,+29
139322,8.852,-4.029,1.679,-0.663203,0.400116,0.468665,99768.09,-40,-163,+27
139332,9.295,-3.270,1.509,-0.529643,0.347437,0.558591,99770.67,-40,-163,+27
139342,9.431,-2.946,1.711,-0.259331,0.220795,0.704921,99769.42,-39,-163,+28
139353,8.829,-3.747,2.273,-0.000194,0.063291,0.852316,99767.91,-36,-165,+27
139363,7.946,-4.881,3.170,0.059402,-0.025040,0.926811,99767.64,-33,-166,+28
139372,7.366,-5.780,3.643,-0.072561,0.013805,0.875196,99767.64,-33,-166,+28
139382,7.297,-5.928,3.422,-0.292322,0.116502,0.760793,99770.56,-32,-166,+27
139393,7.734,-5.412,2.906,-0.479625,0.210153,0.668206,99767.80,-30,-168,+26
139403,8.216,-4.829,2.386,-0.554120,0.251658,0.642664,99770.63,-27,-168,+25
139412,8.690,-4.283,2.260,-0.523258,0.237823,0.684169,99770.25,-27,-168,+25
139422,8.714,-4.276,2.410,-0.428010,0.172373,0.781013,99770.25,-25,-168,+23
139432,8.474,-4.764,2.355,-0.346065,0.113309,0.881050,99770.88,-23,-170,+22
139443,8.310,-5.097,2.521,-0.341808,0.112777,0.947031,99769.31,-19,-170,+22
139453,8.103,-5.188,2.948,-0.395019,0.155878,0.987472,99769.36,-17,-170,+22
139462,8.013,-5.351,2.847,-0.467918,0.189401,1.034829,99769.47,-17,-171,+22
139472,8.109,-5.364,2.373,-0.521129,0.203236,1.089105,99769.47,-13,-172,+20
139483,8.353,-5.256,2.185,-0.535496,0.185676,1.151893,99771.48,-10,-172,+19
139493,8.513,-5.431,2.225,-0.551992,0.147896,1.232242,99772.20,-7,-173,+17
139502,8.799,-5.479,2.091,-0.562102,0.085639,1.325361,99772.00,-7,-173,+17
139512,9.108,-5.523,2.124,-0.568487,0.030832,1.417416,99768.30,-1,-173,+15
139523,9.248,-5.830,2.267,-0.586579,-0.011737,1.504682,99768.30,+1,-175,+14
139533,9.642,-6.072,2.474,-0.644579,-0.025040,1.593545,99771.70,+7,-175,+12
139542,10.326,-6.079,1.835,-0.718542,-0.043131,1.658462,99770.40,+7,-175,+12
139552,10.369,-6.057,1.755,-0.743019,-0.102728,1.757434,99768.37,+12,-175,+10
139563,11.052,-6.279,1.469,-0.731313,-0.168709,1.869177,99768.41,+17,-176,+7
139573,11.737,-6.559,1.130,-0.702047,-0.225645,1.960168,99768.41,+23,-175,+6
139583,11.883,-6.744,0.897,-0.652561,-0.292159,2.051159,99770.01,+23,-175,+6
139592,11.926,-6.547,1.350,-0.622230,-0.342709,2.133104,99768.49,+29,-175,+4
139602,11.707,-6.661,1.657,-0.628616,-0.384746,2.231012,99768.71,+37,-175,+1
139613,11.780,-7.201,1.649,-0.679698,-0.423058,2.346480,99767.30,+44,-175,+0
139623,12.711,-7.531,1.665,-0.752597,-0.489571,2.499195,99767.30,+44,-175,+0
139632,14.032,-7.147,2.267,-0.861148,-0.557149,2.601360,99769.47,+53,-174,-2
139642,15.216,-6.528,3.230,-0.943092,-0.593333,2.699801,99768.53,+60,-173,-5
139653,16.006,-6.159,3.471,-1.083037,-0.533736,2.815269,99770.45,+69,-171,-9
139663,17.222,-6.000,3.216,-1.338450,-0.427314,2.899874,99768.06,+69,-171,-9
139672,20.069,-4.260,4.949,-1.694964,-0.288434,2.896149,99768.06,+78,-167,-13
139683,23.740,-1.862,8.214,-2.047043,-0.064948,2.896681,99769.48,+87,-164,-19
139693,24.596,0.198,9.473,-2.353183,0.103199,3.097287,99766.82,+96,-160,-26
139703,23.008,0.277,8.120,-2.527715,0.134593,3.367066,99764.70,+96,-160,-26
139713,20.432,-5.343,5.821,-2.278156,-0.155939,3.796479,99763.85,+106,-154,-33
139722,17.739,-11.995,2.929,-1.725826,-0.932819,4.523341,99763.85,+119,-148,-38
139732,14.859,-14.709,0.942,-1.134120,-1.431406,4.838882,99769.95,+134,-141,-40
139743,14.026,-14.515,3.334,-0.781331,-1.315938,4.453635,99768.44,+134,-141,-40
139753,14.944,-8.823,5.987,-0.743019,-0.976452,3.806057,99767.81,+147,-133,-41
139762,11.844,-1.141,4.834,-0.786120,-0.718911,2.950424,99765.78,+155,-127,-43
139772,8.959,3.181,3.212,-0.692469,-0.616213,2.311893,99765.78,+163,-123,-45
139783,0.629,-2.337,2.833,-0.535496,-0.437957,2.064994,99769.76,+163,-123,-45
139793,3.566,-4.922,6.356,-0.144396,-0.413480,1.623343,99766.90,+169,-118,-47
139802,7.742,0.314,3.926,0.330246,-0.594397,0.317013,99766.79,+172,-117,-46
139812,6.524,3.455,1.643,0.254154,-0.318764,-0.497647,99764.91,+172,-118,-46
139823,5.225,2.859,0.881,-0.068836,0.051052,-0.944087,99764.91,+172,-118,-46
139833,4.365,1.429,-0.009,-0.322653,0.197382,-1.334655,99767.83,+172,-120,-47
139843,3.495,0.691,-0.577,-0.404597,0.267621,-1.733206,99767.83,+169,-123,-50
139852,2.592,0.609,-0.328,-0.290726,0.326153,-2.127499,99767.11,+165,-127,-51
139863,2.328,0.663,0.546,-0.002322,0.376171,-2.545737,99765.17,+165,-127,-51
139873,2.881,0.551,1.066,0.356852,0.401713,-2.980471,99765.17,+160,-131,-52
139883,3.922,0.243,0.949,0.707512,0.384153,-3.410948,99765.31,+152,-139,-52
139892,4.941,-0.435,0.539,1.014539,0.337859,-3.818012,99762.86,+143,-147,-51
139902,5.651,-1.234,0.160,1.259310,0.291566,-4.180910,99762.19,+143,-147,-51
139913,5.870,-2.055,0.069,1.453530,0.253254,-4.492195,99760.25,+132,-157,-48
139918,5.839,-2.592,0.015,1.540796,0.224520,-4.703974,99760.25,+119,-168,-46
139928,5.835,-2.963,0.012,1.554631,0.223988,-4.914157,99760.25,+119,-168,-46
139938,6.126,-3.455,0.123,1.524300,0.275603,-5.178616,99760.24,+103,-177,-42
139948,6.737,-3.961,0.657,1.501420,0.361804,-5.420726,99757.05,+85,-187,-39
139958,7.516,-4.551,1.011,1.484924,0.449602,-5.636230,99759.82,+66,-195,-34
139968,8.302,-5.260,1.177,1.464172,0.530483,-5.867166,99758.73,+66,-195,-34
139978,8.927,-6.278,1.140,1.446612,0.610832,-6.133221,99764.04,+42,-203,-30
139987,9.601,-7.391,1.046,1.306135,0.765676,-6.384377,99761.65,+16,-208,-25
139998,10.571,-8.158,0.452,1.013475,0.964153,-6.591899,99761.65,-12,-209,-22
140008,11.890,-8.432,-0.286,0.746356,1.161033,-6.769624,99762.16,-12,-209,-22
140018,13.136,-8.964,-0.291,0.671328,1.338226,-6.881899,99763.73,-43,-206,-17
140027,14.536,-9.723,0.391,0.717622,1.449969,-6.941496,99763.73,-73,-197,-12
140038,15.775,-10.997,1.508,0.866613,1.447308,-6.907973,99766.27,-103,-183,-6
140048,16.893,-12.859,2.485,1.145970,1.321198,-6.851569,99764.30,-103,-183,-6
140058,17.845,-14.850,3.070,1.497163,1.128574,-6.762175,99764.77,-128,-165,+0
140068,17.567,-17.554,3.779,1.836117,0.978519,-6.520597,99764.51,-147,-143,+7
140078,16.109,-20.102,4.344,1.998410,0.948721,-6.063515,99764.51,-160,-120,+14
140088,13.683,-21.823,3.931,1.913805,1.042905,-5.421790,99766.09,-160,-120,+14
140098,10.521,-22.650,1.791,1.557291,1.181785,-4.647038,99768.03,-168,-99,+19
140108,8.228,-23.329,-1.324,1.012411,1.232868,-3.841957,99768.19,-169,-82,+22
140118,5.859,-23.620,-3.309,0.626631,1.134428,-3.094342,99768.19,-169,-69,+25
140128,2.814,-24.729,-2.783,0.505842,0.875822,-2.316398,99768.19,-169,-69,+25
140138,-0.552,-26.084,-2.361,0.330778,0.484190,-1.309114,99771.67,-167,-60,+28
140148,-1.528,-25.315,-2.045,-0.054469,0.143639,-0.126234,99772.03,-163,-55,+27
140157,3.105,-20.681,-0.207,-0.280616,-0.144232,0.993325,99770.16,-159,-56,+25
140168,8.190,-16.010,3.677,-0.144928,-0.442746,1.701031,99767.72,-154,-56,+25
140178,7.176,-11.809,5.887,0.265861,-0.729553,2.285287,99767.72,-154,-59,+23
140188,18.677,3.847,9.105,0.992191,-1.140342,2.121930,99772.22,-149,-64,+22
140198,20.259,8.303,-4.116,0.181255,-0.881204,1.403049,99770.03,-144,-64,+21
140208,14.579,-10.227,-5.832,-0.818047,-0.497021,2.621581,99768.11,-136,-71,+18
140218,18.963,-11.691,-0.608,-0.389698,-0.762012,3.493709,99768.11,-136,-71,+18
140228,14.548,-11.343,-3.125,-0.524854,-0.650268,3.492112,99769.80,-128,-77,+15
140237,10.180,-10.248,-2.259,-1.143166,-0.045260,3.514993,99769.80,-120,-84,+13
140248,9.929,-7.278,2.529,-1.092083,0.145768,3.383030,99771.73,-114,-90,+11
140258,9.812,-5.031,4.372,-0.447698,-0.062287,3.142516,99768.45,-114,-90,+11
140268,6.664,-5.716,7.093,0.538833,-0.284177,2.906791,99769.80,-106,-96,+11
140277,6.896,-8.357,5.293,1.410961,-0.459241,2.684902,99769.80,-100,-100,+12
140289,7.225,-8.879,1.924,1.446080,-0.707204,2.347544,99771.34,-94,-105,+12
140298,7.547,-8.176,-0.305,1.150227,-0.575773,2.049031,99771.70,-94,-105,+12
140308,8.699,-8.405,-0.156,0.727732,-0.386342,1.869177,99768.32,-89,-109,+15
140318,8.870,-8.277,0.734,0.189237,-0.228838,1.744664,99768.74,-85,-111,+15
140328,8.642,-7.178,0.764,-0.395552,0.034557,1.559489,99771.24,-81,-113,+14
140338,8.136,-5.939,1.053,-0.873386,0.252190,1.313655,99770.37,-81,-113,+14
140348,8.207,-4.563,1.239,-0.937771,0.345309,1.106132,99770.37,-78,-115,+12
140358,8.665,-3.662,1.418,-0.699386,0.337859,0.983747,99768.63,-77,-116,+11
140367,9.138,-3.450,1.564,-0.433863,0.284116,0.937985,99769.01,-74,-117,+11
140378,9.321,-3.549,1.975,-0.271570,0.227181,0.934261,99769.01,-74,-117,+11
140388,9.327,-3.500,2.371,-0.150781,0.151621,0.968316,99770.91,-72,-119,+12
140398,8.929,-3.861,2.328,0.034925,0.048392,0.989068,99767.37,-71,-120,+11
140408,8.379,-4.360,2.230,0.109953,-0.009076,0.963527,99769.55,-67,-121,+11
140418,8.152,-4.489,2.367,0.065256,-0.009076,0.894352,99767.26,-67,-121,+11
140428,8.063,-4.713,2.628,-0.026267,0.040942,0.809215,99767.26,-65,-123,+11
140438,7.976,-4.833,3.149,-0.173662,0.122355,0.719820,99771.19,-64,-124,+11
140448,8.152,-4.307,3.400,-0.329570,0.212281,0.652242,99767.19,-61,-124,+11
140459,8.291,-4.058,3.082,-0.387570,0.252722,0.640536,99769.16,-61,-124,+11
140468,8.404,-3.916,2.607,-0.365753,0.226116,0.688426,99769.16,-60,-125,+10
140478,8.487,-3.394,2.425,-0.266781,0.173437,0.759196,99769.16,-58,-126,+9
140488,8.603,-3.527,1.858,-0.102891,0.086171,0.857105,99771.34,-56,-127,+9
140497,8.437,-4.501,1.559,-0.011368,0.007951,0.947031,99769.42,-56,-127,+9
140509,8.268,-5.430,1.344,-0.043118,0.009548,0.976475,99770.44,-53,-128,+9
140518,8.264,-5.822,1.234,-0.131093,0.053713,0.945435,99770.44,-51,-130,+9
140528,8.240,-5.523,1.381,-0.236983,0.098410,0.901802,99770.44,-49,-130,+9
140538,8.360,-5.127,1.555,-0.286469,0.144171,0.887967,99771.23,-49,-130,+9
140548,8.523,-4.986,1.594,-0.285405,0.152685,0.907123,99770.71,-46,-131,+9
140558,8.528,-5.168,1.910,-0.258267,0.118630,0.949160,99767.90,-44,-131,+8
140568,8.365,-5.210,2.170,-0.249753,0.086704,0.985875,99767.90,-40,-133,+7
140578,8.344,-5.200,2.151,-0.276891,0.092025,1.020994,99771.39,-40,-133,+7
140588,8.397,-5.412,2.231,-0.323717,0.106924,1.060903,99771.39,-38,-133,+6
140598,8.519,-5.380,2.367,-0.375331,0.114373,1.104536,99772.80,-35,-134,+6
140608,8.653,-5.227,2.522,-0.417900,0.123951,1.155086,99769.73,-32,-135,+6
140618,8.595,-5.320,2.630,-0.440249,0.105327,1.228517,99770.88,-32,-135,+6
140627,8.551,-5.594,2.692,-0.484946,0.090960,1.302481,99770.88,-29,-137,+4
140638,8.662,-6.029,2.662,-0.551460,0.107456,1.350370,99770.20,-24,-137,+3
140648,8.851,-6.279,2.408,-0.626487,0.123419,1.378040,99768.05,-21,-139,+2
140658,9.130,-6.099,2.224,-0.695129,0.137786,1.411031,99766.85,-17,-139,+2
140668,9.352,-5.994,2.404,-0.746744,0.135658,1.473820,99770.09,-17,-139,+0
140679,9.921,-5.850,1.773,-0.784524,0.081915,1.541398,99770.71,-12,-139,-1
140688,10.390,-5.965,1.538,-0.785056,-0.022379,1.644627,99769.30,-7,-141,-3
140698,11.049,-5.957,1.244,-0.776010,-0.090489,1.774462,99770.51,-1,-141,-6
140708,11.410,-5.763,0.609,-0.735038,-0.164984,1.920260,99770.51,-1,-141,-6
140718,11.469,-5.856,0.552,-0.660010,-0.274067,2.072975,99768.90,+4,-142,-7
140728,11.671,-6.138,1.113,-0.596157,-0.379957,2.213452,99768.90,+12,-142,-9
140738,12.169,-6.622,1.679,-0.577533,-0.444874,2.330517,99772.33,+19,-143,-11
140743,12.480,-6.942,2.036,-0.598285,-0.471480,2.416718,99769.41,+19,-143,-11
140753,12.769,-7.257,1.960,-0.627551,-0.494360,2.514094,99770.25,+30,-142,-13
140763,13.759,-7.561,2.082,-0.683423,-0.589608,2.673195,99768.38,+30,-142,-13
140773,15.192,-6.815,3.506,-0.773882,-0.697094,2.806755,99768.38,+39,-142,-15
140783,16.645,-6.129,4.202,-0.880304,-0.688048,2.956810,99770.03,+49,-141,-18
140793,18.321,-6.413,3.675,-1.112303,-0.589076,3.119103,99769.78,+62,-138,-22
140803,21.638,-5.308,4.123,-1.467221,-0.510324,3.163268,99765.88,+62,-138,-22
140813,25.119,-3.172,6.482,-1.834376,-0.351223,3.153690,99764.83,+73,-135,-25
140823,26.610,-0.272,7.850,-2.373404,-0.080379,3.253727,99764.83,+86,-131,-31
140833,25.671,1.681,7.497,-2.944357,0.243144,3.348975,99770.70,+98,-126,-39
140844,22.388,-0.363,5.317,-3.132724,0.299015,3.462846,99767.46,+98,-126,-39
140853,17.798,-7.907,2.407,-2.785256,-0.233627,3.997084,99766.68,+112,-118,-46
140863,14.416,-12.566,1.082,-2.024339,-1.062121,4.787800,99767.73,+129,-109,-51
140873,13.264,-13.900,1.647,-1.165514,-1.450562,4.731396,99767.73,+146,-100,-52
140883,13.686,-10.640,5.107,-0.545606,-1.324984,4.122130,99769.94,+146,-100,-52
140893,12.932,-5.101,5.358,-0.310946,-0.997204,3.259048,99768.38,+161,-94,-52
140903,11.459,-0.526,4.062,-0.230065,-0.856727,2.379471,99765.56,+172,-89,-53
140913,2.422,0.729,2.389,0.049292,-0.948250,1.607911,99766.14,+181,-86,-52
140923,-1.010,-4.013,3.899,0.157843,-0.727956,1.490315,99766.14,+181,-86,-52
140933,7.192,-1.446,3.912,0.481897,-0.776911,0.488353,99767.38,+189,-84,-51
140943,7.567,3.146,1.809,0.465402,-0.644947,-0.678564,99767.27,+194,-86,-49
140953,5.655,2.819,1.871,0.220099,-0.272471,-1.104784,99766.07,+196,-89,-49
140963,3.925,1.104,1.333,0.095586,-0.127737,-1.440013,99766.02,+197,-94,-49
140973,2.753,0.381,0.498,0.155182,-0.101131,-1.816747,99766.02,+197,-94,-49
140983,1.759,-0.010,0.476,0.381329,-0.078250,-2.231260,99767.16,+196,-99,-49
140993,1.619,-0.431,0.711,0.621310,-0.053241,-2.612251,99766.12,+193,-107,-48
141003,2.215,-0.249,1.105,0.839475,-0.051113,-3.073058,99763.84,+189,-116,-46
141014,3.248,-0.462,1.078,1.069879,-0.040471,-3.571645,99759.24,+189,-116,-46
141023,4.135,-1.207,0.889,1.243879,-0.036214,-4.029259,99759.24,+182,-128,-44
141033,4.692,-1.925,0.616,1.345512,-0.027168,-4.405993,99764.11,+173,-140,-41
141043,4.809,-2.421,0.576,1.383291,0.003694,-4.698121,99759.22,+162,-153,-39
141053,4.800,-2.904,0.823,1.369989,0.076593,-4.958323,99760.09,+162,-153,-39
141063,5.092,-3.354,1.142,1.359879,0.172905,-5.207350,99758.80,+147,-166,-35
141073,5.611,-3.703,1.531,1.368924,0.270814,-5.431901,99758.80,+131,-178,-33
141083,6.288,-4.265,1.708,1.353493,0.379364,-5.634634,99761.78,+110,-190,-29
141093,7.108,-4.875,1.998,1.313053,0.503345,-5.837368,99762.36,+110,-190,-29
141099,7.747,-5.414,2.146,1.285383,0.587419,-5.986359,99760.84,+89,-199,-25
141108,8.289,-6.009,2.009,1.253989,0.669364,-6.118854,99760.84,+89,-199,-25
141118,8.941,-6.955,1.975,1.172044,0.821547,-6.281147,99760.95,+65,-206,-22
141128,10.087,-7.793,1.841,1.034227,0.995547,-6.452487,99760.95,+39,-211,-19
141138,11.626,-8.491,1.626,0.947493,1.149859,-6.626487,99763.93,+11,-211,-15
141149,13.036,-9.537,1.541,0.949622,1.262666,-6.746212,99762.68,-16,-211,-12
141158,14.147,-11.196,1.524,0.990062,1.315345,-6.802083,99763.62,-16,-208,-12
141168,15.179,-13.461,1.671,1.089035,1.289804,-6.784523,99763.62,-42,-202,-6
141178,16.163,-15.829,1.881,1.143842,1.213180,-6.700982,99763.62,-67,-194,-2
141189,16.776,-17.731,1.960,1.019860,1.151455,-6.530175,99766.73,-89,-182,+1
141198,16.382,-19.440,2.485,0.697934,1.153584,-6.236982,99767.73,-89,-182,+1
141208,13.868,-20.291,4.272,0.347274,1.214244,-5.772450,99768.77,-107,-169,+6
141218,10.737,-19.682,5.661,0.155182,1.307363,-5.172231,99765.17,-122,-157,+8
141229,8.356,-20.112,5.344,0.102503,1.484024,-4.495387,99765.17,-132,-146,+12
141239,6.368,-21.827,2.645,-0.023075,1.670262,-3.774379,99768.13,-132,-146,+12
141248,4.020,-23.073,-1.591,-0.350854,1.768170,-3.031021,99769.96,-140,-137,+15
141258,2.827,-23.525,-3.898,-0.698322,1.700060,-2.232857,99769.88,-145,-132,+17
141268,2.260,-22.656,-4.257,-0.962781,1.417510,-1.314967,99769.88,-147,-128,+17
141279,1.938,-21.705,-3.462,-1.152744,1.000868,-0.275225,99773.62,-147,-128,+17
141288,3.925,-19.413,-1.755,-1.144230,0.530483,0.724077,99771.27,-145,-128,+17
141298,10.206,-14.637,1.287,-0.798891,0.060630,1.401985,99771.27,-142,-131,+15
141308,8.225,-11.688,-0.364,-0.255075,-0.480525,2.004865,99771.54,-137,-135,+14
141319,16.894,3.044,5.782,0.733585,-1.006782,2.150663,99769.45,-137,-135,+14
141328,24.271,14.770,-6.941,0.675585,-1.338818,1.324829,99769.45,-133,-139,+13
141334,17.257,1.249,-10.383,-0.233258,-1.032323,1.778187,99771.85,-133,-139,+13
141343,15.953,-10.332,-6.601,0.108888,-1.063186,2.977562,99771.27,-127,-144,+12
141353,16.398,-12.273,-0.872,0.687292,-1.186103,3.680479,99769.65,-117,-151,+11
141364,11.501,-13.447,-3.040,0.211586,-0.778507,3.519250,99771.05,-108,-159,+10
141373,9.455,-11.060,-0.347,-0.648304,-0.144232,3.320241,99771.05,-108,-159,+10
141383,9.960,-7.173,3.427,-0.689276,0.070740,3.108993,99772.20,-98,-163,+8
141393,8.693,-5.343,5.129,-0.115662,-0.026104,2.845599,99769.59,-89,-169,+7
141404,6.607,-7.076,7.040,0.710173,-0.205425,2.649782,99767.98,-80,-174,+9
141413,7.376,-10.301,4.659,1.136925,-0.484782,2.449709,99769.23,-80,-174,+9
141423,7.551,-9.205,1.642,0.930466,-0.682727,2.103306,99769.23,-74,-178,+11
141433,7.739,-8.368,0.148,0.467530,-0.411351,1.838315,99771.48,-67,-180,+12
141444,8.470,-8.126,1.169,-0.173662,-0.175094,1.685067,99770.18,-63,-183,+11
141453,8.380,-6.879,0.863,-0.746744,0.005823,1.483398,99769.45,-58,-184,+9
141463,8.257,-5.545,0.668,-1.025570,0.167584,1.224260,99768.98,-58,-184,+9
141473,8.593,-4.505,0.843,-0.828689,0.231969,1.027380,99768.98,-55,-186,+6
141484,9.155,-3.792,1.326,-0.434928,0.201107,0.937985,99768.04,-51,-187,+6
141494,9.130,-3.717,1.696,-0.195478,0.158538,0.918829,99769.87,-48,-188,+5
141503,9.085,-3.648,2.219,-0.147588,0.139382,0.927343,99767.57,-48,-188,+5
141513,9.060,-3.776,2.490,-0.035313,0.072337,0.935325,99767.73,-46,-188,+5
141523,8.694,-4.353,2.278,0.079622,0.002098,0.909251,99767.73,-43,-190,+6
141534,8.452,-4.579,2.443,0.087072,-0.011737,0.841673,99770.13,-41,-191,+6
141543,8.237,-4.747,2.726,0.014705,0.006355,0.756004,99770.49,-41,-191,+6
141553,8.032,-4.961,3.025,-0.138543,0.068080,0.659160,99770.34,-38,-192,+6
141563,7.955,-4.776,3.438,-0.338616,0.163327,0.553802,99767.21,-36,-192,+4
141569,8.176,-4.174,3.614,-0.446102,0.221327,0.488353,99767.21,-36,-192,+4
141579,8.402,-3.701,3.391,-0.455680,0.228777,0.464408,99767.21,-35,-192,+4
141589,8.556,-3.633,2.848,-0.399808,0.198447,0.485160,99768.74,-33,-194,+3
141598,8.717,-3.637,2.298,-0.320524,0.148960,0.545820,99768.96,-33,-194,+3
141608,8.689,-3.839,2.071,-0.238047,0.098410,0.615527,99770.41,-32,-194,+3
141619,8.499,-4.525,2.209,-0.202928,0.072869,0.670866,99767.41,-30,-195,+1
141629,8.249,-4.877,2.485,-0.255607,0.096282,0.680444,99769.97,-28,-194,+1
141638,8.045,-4.833,2.685,-0.308286,0.138850,0.659692,99768.66,-28,-194,+1
141648,8.031,-4.659,2.730,-0.371074,0.167584,0.653307,99768.66,-25,-195,+1
141659,8.197,-4.514,2.679,-0.436524,0.181951,0.666077,99769.34,-23,-195,+0
141669,8.462,-4.441,2.355,-0.450359,0.161731,0.696940,99768.09,-21,-195,-2
141678,8.786,-4.383,2.077,-0.416836,0.133529,0.750151,99768.09,-17,-195,-2
141688,8.935,-4.488,1.991,-0.387570,0.113841,0.823582,99769.57,-17,-195,-2
141699,8.817,-4.653,1.711,-0.379056,0.096814,0.902334,99770.09,-14,-196,-3
141709,8.731,-4.666,1.700,-0.385441,0.096282,0.978426,99769.57,-12,-197,-4
141719,8.684,-4.360,2.049,-0.391295,0.084043,1.073673,99769.04,-8,-197,-6
141728,8.821,-3.915,2.674,-0.365753,0.037217,1.193930,99769.04,-8,-197,-6
141739,9.018,-4.284,2.818,-0.327442,-0.027168,1.320572,99768.38,-4,-197,-6
141749,9.115,-5.114,2.632,-0.294451,-0.068673,1.417416,99767.07,+0,-199,-8
141759,8.839,-5.830,2.446,-0.289662,-0.077186,1.449875,99768.90,+5,-199,-9
141768,8.419,-6.094,2.356,-0.343405,-0.068140,1.455728,99768.90,+5,-199,-9
141778,8.301,-6.079,2.357,-0.431203,-0.047920,1.472224,99768.90,+9,-199,-9
141789,8.809,-5.662,2.346,-0.520065,-0.037278,1.503086,99772.70,+15,-200,-11
141799,9.441,-5.413,2.062,-0.572744,-0.101663,1.589288,99771.49,+21,-199,-14
141808,9.901,-5.265,2.248,-0.563166,-0.184140,1.706352,99768.57,+21,-199,-14
141818,10.433,-5.485,2.126,-0.524322,-0.279920,1.840976,99768.57,+27,-199,-14
141829,10.796,-5.801,1.683,-0.493460,-0.358672,1.958040,99768.57,+33,-200,-16
141839,10.845,-6.133,1.385,-0.478029,-0.421461,2.075636,99770.27,+41,-199,-18
141849,10.909,-6.182,1.590,-0.504102,-0.466691,2.175141,99769.23,+41,-199,-18
141858,10.892,-6.194,1.822,-0.537625,-0.511920,2.277838,99769.02,+50,-199,-19
141869,10.959,-6.333,2.170,-0.590836,-0.550764,2.389581,99769.02,+58,-198,-20
141879,11.384,-6.621,2.674,-0.682359,-0.579498,2.503984,99771.55,+67,-196,-23
141888,12.320,-7.132,3.227,-0.810597,-0.616746,2.656168,99771.55,+67,-196,-23
141898,13.816,-7.483,3.815,-0.972891,-0.655590,2.849856,99770.88,+76,-194,-25
141908,15.547,-7.957,3.932,-1.209147,-0.625791,3.016406,99769.11,+88,-192,-28
141919,18.533,-7.582,3.305,-1.528945,-0.545975,3.159544,99768.64,+99,-188,-32
141928,23.125,-5.835,4.732,-1.923771,-0.409223,3.268626,99768.64,+99,-188,-32
141939,27.488,-3.502,5.983,-2.345202,-0.236819,3.417617,99770.47,+111,-183,-38
141948,29.701,-1.703,4.532,-2.762908,-0.210214,3.632057,99769.80,+122,-177,-46
141959,29.458,-1.159,3.543,-3.098669,-0.128801,3.694846,99768.70,+134,-170,-55
141969,24.717,-1.786,5.049,-3.257770,-0.037278,3.656534,99769.59,+134,-170,-55
141979,18.334,-6.565,4.882,-3.023109,-0.445938,3.997617,99767.87,+146,-160,-63
141988,13.767,-11.572,4.290,-2.449495,-1.403736,4.709579,99766.98,+161,-149,-68
141999,10.424,-13.605,3.351,-1.235221,-2.216268,4.978827,99766.98,+178,-139,-68
142009,11.544,-11.468,4.388,0.211054,-2.238084,4.521213,99768.71,+178,-139,-68
142018,13.069,-4.748,3.499,0.798503,-1.990121,3.598534,99768.24,+190,-132,-63
142028,7.091,1.040,4.331,1.155548,-1.859222,2.489085,99768.24,+200,-128,-58
142039,1.425,0.251,2.381,1.384888,-1.644782,1.672829,99772.53,+206,-126,-52
142049,-1.633,-4.963,0.800,1.090631,-1.276562,1.365269,99770.77,+206,-126,-52
142059,1.466,-4.523,2.297,0.989530,-1.065846,0.628297,99767.69,+209,-126,-48
142068,3.556,-0.891,1.621,0.841072,-0.882800,-0.294381,99765.70,+210,-127,-44
142078,3.708,1.997,0.943,0.482430,-0.571516,-0.898325,99765.70,+208,-129,-42
142089,2.379,2.873,0.442,0.192962,-0.387938,-1.339977,99768.54,+208,-129,-42
142099,1.326,2.172,0.396,0.109953,-0.288434,-1.703940,99767.34,+204,-133,-41
142109,0.797,1.043,0.121,0.202008,-0.274067,-2.089719,99765.82,+200,-136,-40
142118,0.333,0.113,-0.102,0.340888,-0.261296,-2.488269,99765.82,+193,-143,-39
142129,0.369,-0.663,-0.119,0.470191,-0.218727,-2.838930,99765.82,+193,-143,-39
142139,0.940,-1.256,0.184,0.579806,-0.172434,-3.182673,99766.85,+185,-148,-38
142148,1.637,-1.488,0.372,0.681439,-0.145828,-3.574837,99766.18,+175,-155,-36
142159,2.255,-1.408,0.298,0.779879,-0.119223,-4.027131,99763.48,+163,-163,-33
142169,2.775,-1.349,0.167,0.826172,-0.076654,-4.380983,99763.48,+149,-3,-31
142179,3.139,-1.719,0.284,0.866613,-0.016526,-4.712488,99763.48,+149,-171,-31
142189,3.408,-2.246,0.504,0.930466,0.041474,-4.980139,99762.48,+135,-177,-28
142198,3.986,-2.316,0.311,0.956007,0.095749,-5.234488,99762.89,+117,-185,-26
142209,4.606,-2.470,0.105,0.851714,0.228245,-5.505864,99759.34,+99,-190,-23
142219,5.378,-3.095,0.292,0.695273,0.432043,-5.744781,99759.34,+99,-190,-23
142229,6.356,-3.845,0.628,0.561714,0.628923,-5.975717,99765.50,+79,-194,-22
142238,7.310,-4.541,0.800,0.504778,0.796006,-6.204524,99765.50,+58,-198,-21
142248,8.154,-5.507,0.722,0.497861,0.936483,-6.430138,99764.34,+35,-197,-20
142259,9.152,-6.566,0.788,0.486154,1.075364,-6.665331,99762.00,+35,-197,-20
142269,11.061,-7.760,1.154,0.438797,1.209987,-6.861147,99763.63,+11,-197,-19
142278,13.608,-8.957,1.016,0.451567,1.234996,-7.024505,99763.63,-11,-193,-18
142288,16.088,-10.999,1.019,0.681971,1.181785,-7.129331,99765.60,-35,-188,-15
142299,18.304,-14.508,1.488,0.946429,1.113675,-7.045257,99767.63,-35,-188,-15
142309,19.062,-18.547,2.466,1.205035,0.959896,-6.764303,99762.15,-58,-180,-12
142319,18.689,-20.979,3.155,1.441291,0.749712,-6.382781,99766.16,-78,-171,-8
142328,17.062,-21.195,3.674,1.589218,0.590079,-5.978909,99768.46,-94,-163,-4
142339,14.355,-20.838,4.566,1.497163,0.581566,-5.439350,99769.04,-94,-163,-4
142349,10.806,-21.019,4.587,1.290172,0.735877,-4.719405,99766.43,-110,-152,+0
142359,7.714,-22.294,3.110,1.039549,0.982244,-3.937736,99766.43,-119,-145,+3
142368,4.014,-23.485,-0.243,0.604815,1.204666,-3.207682,99769.51,-128,-139,+6
142379,1.942,-23.578,-2.718,0.040778,1.289804,-2.490930,99769.51,-128,-139,+6
142389,1.071,-21.945,-3.535,-0.641918,1.158373,-1.652857,99770.76,-133,-133,+8
142394,0.588,-20.175,-2.793,-1.079313,0.965217,-0.902582,99771.85,-136,-130,+6
142404,2.291,-18.328,-1.140,-1.265551,0.681602,-0.113996,99771.27,-136,-130,+6
142413,6.946,-14.703,0.835,-1.189991,0.218135,0.714499,99770.29,-135,-131,+4
142424,5.275,-14.187,0.782,-0.870726,-0.232562,1.510003,99770.29,-131,-135,+2
142434,7.678,-6.440,7.406,-0.343937,-0.535333,2.053819,99769.66,-126,-139,+1
142444,19.779,11.083,5.553,0.209457,-0.699223,1.505746,99767.95,-126,-139,+1
142453,17.962,9.831,-3.034,-0.877111,-0.164452,0.938517,99768.15,-123,-140,-1
142464,12.382,-7.375,-4.686,-1.318762,0.011144,2.019764,99768.77,-118,-144,-4
142474,18.599,-7.815,0.838,-0.914891,-0.333663,2.681709,99768.77,-110,-149,-6
142484,14.420,-7.462,1.574,-0.727588,-0.357608,2.717360,99770.38,-110,-149,-6
142494,10.561,-7.971,1.711,-0.798891,0.010612,2.859966,99772.16,-103,-153,-9
142503,8.593,-8.356,7.794,-0.429607,0.032428,2.975966,99767.52,-95,-158,-9
142514,10.581,-10.192,6.147,0.888961,-0.230966,2.921690,99769.45,-87,-164,-7
142524,10.408,-7.482,-0.553,1.305603,-0.936011,2.484296,99769.45,-87,-164,-7
142534,5.942,-6.372,-0.873,1.204502,-0.780103,1.944737,99769.82,-81,-168,-6
142543,7.013,-6.322,1.165,1.168851,-0.405498,1.773930,99769.04,-76,-171,-3
142554,7.453,-7.430,1.252,0.862356,-0.404966,1.596737,99768.73,-71,-175,-1
142564,8.274,-7.348,0.750,0.412723,-0.309718,1.388150,99769.88,-71,-175,-1
142574,9.112,-6.648,0.328,-0.090121,-0.136783,1.191802,99769.88,-67,-176,-2
142583,9.458,-5.680,0.864,-0.367350,0.000502,1.017802,99772.11,-64,-177,-3
142594,9.254,-4.770,1.125,-0.481221,0.074997,0.861894,99770.64,-62,-178,-3
142604,9.077,-3.893,1.628,-0.493460,0.122355,0.759196,99767.88,-62,-178,-3
142614,9.035,-3.304,1.870,-0.418432,0.125548,0.707050,99769.75,-59,-178,-4
142623,8.967,-3.298,1.858,-0.315203,0.080850,0.685765,99769.75,-57,-180,-6
142633,9.230,-3.317,2.034,-0.170469,0.019658,0.679912,99770.61,-55,-181,-6
142644,9.242,-3.393,2.079,-0.016689,-0.043131,0.682573,99768.05,-55,-181,-6
142654,8.968,-3.591,1.794,0.097182,-0.086764,0.674059,99767.38,-54,-182,-6
142664,8.724,-3.788,1.460,0.124320,-0.087828,0.640536,99766.13,-51,-182,-6
142673,8.534,-4.275,1.361,0.081751,-0.048984,0.602756,99766.13,-49,-183,-6
142684,8.382,-4.533,1.456,-0.032121,0.024447,0.551674,99771.45,-49,-183,-6
142694,8.302,-4.296,1.815,-0.170469,0.106392,0.487288,99768.27,-48,-182,-6
142704,8.463,-3.828,2.181,-0.238579,0.147364,0.435142,99771.09,-46,-184,-6
142713,8.530,-3.564,2.224,-0.242304,0.145236,0.422371,99767.34,-46,-184,-7
142724,8.731,-3.591,1.921,-0.214634,0.136190,0.442591,99767.34,-46,-184,-7
142734,8.961,-3.704,1.681,-0.160359,0.103199,0.472921,99769.08,-44,-185,-7
142744,8.974,-3.719,1.824,-0.095442,0.070740,0.506444,99770.48,-42,-185,-7
142749,8.870,-3.801,1.900,-0.077882,0.062759,0.531986,99770.95,-42,-185,-7
142758,8.725,-4.080,1.842,-0.097570,0.062226,0.550609,99770.95,-40,-186,-7
142769,8.608,-4.415,1.824,-0.153974,0.078190,0.552206,99769.59,-39,-186,-8
142779,8.681,-4.403,2.078,-0.224744,0.109052,0.535178,99769.59,-37,-186,-8
142789,8.908,-4.081,2.177,-0.280616,0.126612,0.538371,99771.11,-37,-186,-8
142799,8.969,-3.875,2.288,-0.325313,0.127144,0.576683,99770.91,-35,-186,-9
142809,9.114,-3.699,2.416,-0.347130,0.110648,0.644261,99767.98,-34,-188,-10
142819,9.269,-3.492,2.562,-0.331166,0.068080,0.740040,99767.98,-31,-188,-11
142829,9.174,-3.541,2.564,-0.319992,-0.001095,0.864022,99767.98,-31,-188,-11
142839,9.229,-3.494,2.639,-0.314671,-0.071865,0.995985,99772.16,-28,-188,-12
142849,9.310,-3.594,2.340,-0.313607,-0.135186,1.134334,99770.84,-24,-190,-13
142859,9.216,-4.011,1.825,-0.342873,-0.187333,1.280664,99773.25,-21,-190,-14
142869,9.217,-4.123,1.599,-0.381185,-0.237351,1.419013,99770.84,-21,-190,-14
142879,9.406,-4.102,2.022,-0.414708,-0.292691,1.565343,99770.84,-14,-191,-15
142889,9.500,-4.226,2.286,-0.457808,-0.368250,1.728168,99769.31,-9,-192,-17
142899,9.698,-4.191,2.469,-0.499845,-0.445938,1.899508,99769.67,-2,-193,-18
142909,10.002,-4.083,3.118,-0.544010,-0.528415,2.100113,99770.02,-2,-193,-18
142919,10.198,-4.356,3.303,-0.590304,-0.599186,2.284223,99770.02,+4,-193,-21
142929,10.318,-4.603,3.193,-0.654157,-0.647076,2.464076,99771.20,+12,-193,-23
142939,10.118,-4.896,2.924,-0.690340,-0.680599,2.631691,99771.88,+23,-194,-25
142949,10.424,-5.826,2.630,-0.759515,-0.699223,2.782278,99771.88,+23,-194,-25
142959,11.010,-6.519,2.130,-0.886157,-0.639626,2.875929,99769.22,+32,-194,-28
142969,12.339,-7.477,0.981,-1.044193,-0.549700,2.948828,99770.42,+42,-192,-30
142979,15.918,-8.042,0.695,-1.193716,-0.530544,2.927011,99770.42,+53,-192,-34
142989,16.206,-7.932,-0.350,-1.210212,-0.495425,2.950957,99771.85,+53,-192,-34
142999,18.443,-8.797,-0.352,-1.299074,-0.405498,2.958938,99770.96,+63,-188,-38
143009,22.562,-8.249,1.033,-1.456578,-0.422525,2.837617,99769.29,+72,-186,-41
143020,27.682,-6.517,3.366,-1.420395,-0.653461,2.916369,99766.54,+83,-183,-45
143029,30.887,-4.669,5.629,-1.318230,-0.913131,3.242021,99768.59,+83,-183,-45
143039,29.483,-3.821,5.107,-1.389533,-1.169608,3.537874,99770.10,+94,-180,-48
143049,22.902,-2.346,3.334,-1.589074,-1.292525,3.405378,99766.20,+107,-175,-51
143059,13.115,-4.323,2.266,-1.799257,-1.132360,3.370259,99768.70,+120,-169,-55
143069,4.978,-10.309,1.481,-1.683789,-1.031259,3.689525,99768.70,+120,-169,-55
143079,0.762,-14.668,0.656,-1.004817,-1.218562,3.914075,99768.70,+133,-162,-58
143089,3.173,-9.365,1.541,-0.108212,-1.449497,3.352700,99768.52,+145,-156,-57
143099,3.126,-1.379,0.262,0.287145,-1.455351,2.393306,99766.33,+154,-154,-54
143109,2.421,3.701,1.494,0.609604,-1.429277,1.544590,99767.95,+154,-154,-54
143119,0.145,1.692,0.590,0.661751,-1.362763,0.952884,99769.47,+159,-152,-50
143129,2.627,1.955,0.133,0.620778,-1.338818,0.388848,99769.47,+162,-152,-47
143139,3.180,3.704,0.293,0.604283,-1.166947,-0.435922,99768.50,+163,-154,-44
143150,2.281,3.536,0.372,0.390907,-0.914727,-0.894601,99767.41,+162,-154,-44
143159,1.259,2.836,0.183,0.112613,-0.724232,-1.141500,99766.52,+162,-155,-42
143169,0.745,2.611,0.136,0.073237,-0.591736,-1.426710,99766.52,+158,-158,-42
143179,0.435,1.958,0.341,0.212650,-0.510324,-1.810362,99766.52,+154,-162,-40
143190,0.521,1.295,0.251,0.310026,-0.487975,-2.219022,99767.77,+147,-165,-38
143199,1.133,1.027,0.098,0.373347,-0.510856,-2.614379,99766.42,+147,-165,-38
143209,1.935,0.809,-0.095,0.551072,-0.573645,-2.998030,99765.22,+140,-169,-36
143219,2.644,0.775,-0.343,0.812160,-0.636079,-3.370862,99767.76,+131,-173,-33
143229,3.405,0.426,-0.612,0.957071,-0.648140,-3.641351,99767.76,+120,-179,-30
143240,4.426,-0.666,-0.554,1.009218,-0.668892,-3.872287,99767.70,+120,-179,-30
143249,5.074,-2.160,-0.041,0.991126,-0.722635,-4.053736,99766.87,+108,-184,-26
143259,5.244,-3.942,0.376,0.972503,-0.800323,-4.269240,99764.99,+95,-188,-22
143269,5.473,-5.423,0.329,1.025182,-0.844489,-4.524653,99764.20,+81,-192,-19
143280,6.399,-5.859,0.257,1.205567,-0.875883,-4.730580,99768.10,+81,-192,-19
143289,7.966,-5.968,0.302,1.553566,-0.986030,-4.819974,99765.07,+65,-196,-14
143299,9.382,-6.377,0.701,2.135695,-1.233993,-4.795497,99765.07,+50,-199,-7
143309,10.091,-8.230,1.909,2.946098,-1.561240,-4.700249,99767.43,+35,-201,+2
143320,10.752,-11.301,2.872,3.763418,-1.950213,-4.572011,99765.76,+35,-201,+2
143329,11.289,-15.413,1.937,4.368427,-2.270543,-4.441112,99765.76,+21,-203,+15
143339,10.792,-17.646,2.349,4.563711,-2.617478,-4.312341,99768.08,+6,-201,+28
143349,11.569,-18.132,3.913,4.627032,-2.779772,-4.076085,99770.69,-8,-200,+41
143360,12.200,-18.408,6.978,4.732390,-2.816487,-3.617938,99768.33,-8,-200,+41
143370,10.211,-18.847,9.575,4.688225,-2.823937,-2.933113,99768.91,-19,-196,+53
143379,5.789,-19.541,11.273,4.357785,-2.660579,-2.192416,99768.91,-28,-192,+64
143389,2.702,-20.241,12.056,3.904427,-2.252451,-1.549628,99767.30,-35,-188,+73
143399,1.095,-20.047,11.084,3.476079,-1.704378,-1.099995,99767.22,-35,-188,+73
143410,2.222,-19.000,7.634,2.922685,-1.080213,-0.798289,99768.67,-40,-185,+82
143419,-0.466,-19.368,5.435,2.103768,-0.334727,-0.327904,99768.67,-40,-182,+87
143429,1.389,-18.307,1.988,1.269952,0.117566,0.071179,99768.67,-40,-182,+90
143439,3.697,-15.975,-2.708,0.389310,0.255914,0.243050,99770.81,-40,-182,+90
143450,6.293,-11.339,-5.812,-0.335955,0.250593,0.352665,99772.00,-39,-182,+89
143459,5.729,-10.695,-0.120,-0.864872,0.518777,0.580408,99771.44,-37,-184,+89
143469,10.759,-7.157,-3.551,-0.852102,0.573584,0.661288,99769.03,-34,-184,+86
143479,13.794,-3.831,4.130,-0.590304,0.619345,0.981086,99769.03,-34,-184,+86
143490,16.766,0.239,6.665,0.719751,0.435768,0.984811,99766.82,-32,-185,+87
143500,15.063,-3.339,0.674,0.965585,0.173437,1.245013,99769.71,-27,-186,+90
143509,8.981,-6.000,0.626,0.921952,-0.072929,1.570132,99769.37,-22,-187,+92
143519,6.775,-6.843,1.560,1.162466,-0.109113,1.333343,99769.37,-22,-187,+92
143529,6.261,-7.173,-0.935,1.069879,-0.159131,0.999710,99769.84,-17,-186,+96
143539,6.800,-8.146,0.310,0.625035,0.063823,0.721417,99769.84,-16,-186,+98
143549,8.325,-6.882,0.812,0.107292,0.267089,0.537307,99772.85,-14,-186,+99
143559,8.676,-4.518,0.256,-0.067772,0.295291,0.481435,99767.65,-14,-186,+99
143569,8.689,-3.677,0.110,0.060999,0.244208,0.517087,99769.93,-12,-186,+98
143575,8.889,-3.691,0.094,0.231806,0.161731,0.563912,99769.93,-10,-186,+100
143584,9.158,-4.049,0.487,0.379732,0.077126,0.605949,99772.10,-10,-186,+100
143594,9.109,-4.981,0.689,0.526595,-0.033021,0.626169,99770.07,-8,-186,+101
143604,8.731,-5.789,0.579,0.564374,-0.090489,0.597967,99769.60,-7,-188,+103
143614,8.275,-6.444,0.786,0.439861,-0.064416,0.540499,99768.29,-5,-186,+103
143624,8.301,-6.470,0.576,0.266925,-0.010140,0.458554,99768.29,-5,-186,+103
143634,8.518,-5.765,0.320,0.103567,0.058502,0.386188,99770.70,-4,-187,+104
143644,8.461,-5.282,0.540,0.000870,0.098942,0.357454,99769.49,-2,-187,+103
143654,8.476,-5.021,0.567,-0.024139,0.097878,0.354261,99768.13,+0,-187,+104
143665,8.677,-4.736,0.540,-0.013497,0.084575,0.369692,99769.70,+0,-187,+104
143674,8.672,-4.670,0.545,0.027476,0.043603,0.406940,99769.70,+0,-188,+104
143684,8.520,-4.790,0.770,0.073237,-0.005884,0.442591,99773.66,+1,-188,+104
143694,8.329,-5.091,0.897,0.087072,-0.038874,0.463343,99771.56,+1,-188,+104
143705,8.207,-5.289,0.819,0.062595,-0.055370,0.476646,99768.75,+1,-188,+104
143714,8.009,-5.346,0.545,0.026411,-0.055902,0.479839,99768.55,+4,-187,+104
143724,7.986,-5.265,0.336,0.005659,-0.057498,0.481967,99768.55,+5,-188,+104
143734,8.135,-5.235,0.489,-0.001258,-0.065480,0.488353,99770.44,+7,-188,+104
143745,8.287,-5.298,0.619,0.006191,-0.092617,0.504848,99767.52,+7,-188,+104
143755,8.456,-5.176,0.841,0.008320,-0.126140,0.535710,99769.66,+8,-188,+104
143764,8.441,-5.175,1.043,-0.001258,-0.155939,0.574022,99767.00,+10,-188,+104
143774,8.244,-5.283,0.697,-0.010836,-0.185737,0.615527,99767.00,+12,-188,+104
143784,8.204,-5.455,0.189,-0.017754,-0.209682,0.658628,99774.17,+12,-188,+104
143795,8.313,-5.567,0.315,-0.007644,-0.244269,0.692151,99770.58,+14,-189,+104
143804,8.453,-5.753,0.722,-0.019350,-0.270342,0.717692,99771.16,+15,-189,+103
143814,8.289,-6.056,0.694,-0.057130,-0.287370,0.727270,99768.23,+17,-189,+103
143824,8.050,-5.940,0.671,-0.118854,-0.285773,0.726206,99768.23,+17,-189,+103
143835,8.077,-5.865,0.680,-0.161955,-0.282581,0.726738,99773.06,+19,-190,+103
143844,8.177,-5.930,0.608,-0.185368,-0.306526,0.735784,99770.05,+22,-190,+103
143854,8.221,-6.035,0.507,-0.196543,-0.331003,0.746958,99767.95,+24,-191,+101
143864,8.182,-6.280,0.270,-0.202396,-0.334727,0.738444,99768.17,+24,-191,+101
143875,7.905,-6.570,-0.000,-0.218359,-0.339516,0.711307,99768.17,+26,-190,+101
143885,7.709,-6.527,-0.283,-0.256139,-0.317700,0.685233,99772.26,+28,-192,+101
143894,7.742,-6.372,-0.420,-0.288597,-0.294287,0.666609,99770.48,+30,-192,+100
143904,7.700,-6.377,-0.131,-0.282212,-0.317700,0.649582,99770.59,+30,-192,+100
143915,7.809,-6.406,0.066,-0.281148,-0.343241,0.650646,99768.65,+32,-192,+99
143925,8.130,-6.531,0.135,-0.285405,-0.382617,0.657564,99768.65,+33,-193,+98
143934,8.399,-6.652,-0.029,-0.308818,-0.408691,0.658096,99772.00,+35,-193,+97
143944,8.692,-6.717,-0.510,-0.342873,-0.431571,0.679912,99769.50,+37,-193,+95
143954,9.157,-6.170,-0.576,-0.389166,-0.476801,0.735784,99768.98,+37,-193,+95
143965,9.674,-5.830,-0.334,-0.375863,-0.576305,0.808683,99771.11,+39,-194,+95
143974,10.531,-6.142,0.505,-0.377460,-0.672617,0.912976,99771.11,+41,-194,+93
143984,10.767,-6.620,0.521,-0.415772,-0.733278,1.036958,99771.57,+44,-194,+92
143994,10.401,-6.770,0.272,-0.439185,-0.827461,1.155618,99770.05,+44,-194,+92
144005,10.090,-6.874,0.315,-0.473772,-0.903553,1.238095,99771.10,+48,-194,+91
144015,10.108,-7.233,0.426,-0.548267,-0.971131,1.317912,99769.90,+51,-195,+89
144024,10.970,-7.107,0.831,-0.640322,-1.033920,1.386554,99769.90,+55,-195,+87
144034,11.926,-7.126,1.021,-0.716414,-1.097773,1.451471,99768.91,+55,-195,+87
144045,13.060,-6.910,1.387,-0.791264,-1.186280,1.546896,99768.08,+58,-195,+85
144055,14.003,-6.823,1.758,-0.838267,-1.285607,1.645159,99768.91,+63,-195,+84
144064,15.474,-6.446,2.420,-0.887221,-1.353185,1.751581,99768.08,+67,-196,+81
144074,16.856,-6.384,2.576,-0.911166,-1.388837,1.867581,99768.08,+67,-196,+81
144084,18.249,-6.157,2.199,-0.931386,-1.406396,2.044241,99769.18,+74,-195,+79
144095,19.201,-5.568,2.645,-1.008542,-1.409057,2.219838,99768.87,+80,-195,+76
144104,20.124,-4.334,3.730,-1.083569,-1.455351,2.394370,99769.34,+87,-194,+73
144114,21.085,-2.667,3.712,-1.117625,-1.602213,2.498663,99765.95,+87,-194,+73
144124,18.169,-2.741,5.416,-1.374634,-1.838470,2.640204,99765.95,+94,-192,+71
144135,13.634,-6.871,8.120,-1.450725,-2.075258,2.929672,99768.71,+103,-190,+68
144145,12.676,-10.173,7.931,-1.105386,-2.341313,3.259580,99769.80,+113,-188,+66
144154,13.436,-9.929,7.145,-0.279020,-2.608433,3.388351,99764.76,+113,-188,+66
144164,13.102,-8.631,3.486,0.554264,-2.798573,3.324143,99768.77,+122,-185,+69
144175,11.425,-5.814,0.329,0.941640,-2.756891,2.942975,99768.77,+131,-181,+74
144185,6.239,-6.272,-0.814,1.218869,-2.588212,2.448645,99771.47,+137,-178,+80
144194,3.843,-7.939,1.116,1.425860,-2.457313,2.189507,99769.69,+137,-178,+80
144204,5.276,-4.891,3.161,1.632851,-2.411552,1.665911,99770.27,+140,-173,+86
144215,6.223,-1.785,5.169,1.915933,-2.179020,1.110921,99766.09,+142,-169,+94
144225,7.007,0.101,5.401,2.093658,-1.914561,0.599031,99766.09,+142,-167,+101
144234,6.198,0.508,4.666,2.141548,-1.779938,0.198885,99769.34,+142,-167,+101
144244,4.655,-0.125,3.716,2.113878,-1.647974,-0.085262,99768.71,+140,-165,+109
144254,3.429,-1.256,3.082,2.044172,-1.489938,-0.350784,99767.10,+138,-163,+115
144265,2.531,-1.946,2.987,1.982447,-1.347864,-0.630674,99764.87,+135,-162,+123
144274,2.195,-2.325,3.033,1.914337,-1.203663,-0.985059,99764.87,+135,-162,+123
144280,2.257,-2.518,3.078,1.841970,-1.090855,-1.293151,99767.13,+130,-160,+128
144289,2.464,-2.859,3.057,1.762154,-0.989222,-1.608160,99767.13,+124,-161,+133
144300,2.811,-3.332,2.794,1.625933,-0.863112,-2.017884,99766.30,+124,-161,+133
144310,3.272,-3.439,2.369,1.456190,-0.752434,-2.397279,99765.41,+116,-160,+138
144320,3.710,-3.468,2.048,1.289108,-0.641223,-2.728783,99763.64,+108,-161,+141
144329,4.119,-3.669,1.937,1.144374,-0.536397,-3.024636,99765.03,+98,-162,+145
144339,4.466,-3.794,2.089,1.037952,-0.450195,-3.298141,99765.45,+98,-162,+145
144350,4.730,-3.705,2.322,1.012943,-0.396452,-3.554617,99763.27,+87,-163,+148
144360,5.019,-3.773,2.546,1.086906,-0.367186,-3.788213,99763.27,+75,-163,+151
144369,5.415,-4.001,2.752,1.223658,-0.350159,-4.000525,99761.48,+63,-163,+154
144379,5.906,-4.362,2.814,1.386484,-0.343773,-4.199534,99761.48,+63,-163,+154
144390,6.263,-4.685,2.880,1.540264,-0.326214,-4.382048,99763.84,+50,-161,+159
144400,6.848,-5.067,3.239,1.707169,-0.296948,-4.558176,99762.48,+37,-159,+162
144409,7.375,-5.453,3.519,1.845695,-0.271938,-4.693332,99762.48,+23,-156,+166
144419,8.039,-5.902,3.855,1.974997,-0.234159,-4.834341,99759.51,+23,-156,+166
144430,8.912,-6.251,4.168,2.092062,-0.188929,-4.962580,99759.51,+7,-151,+171
144440,9.670,-6.846,4.324,2.232538,-0.147957,-5.088689,99762.78,-5,-144,+176
144450,10.481,-7.580,4.204,2.369291,-0.098471,-5.190322,99763.28,-19,-136,+181
144459,11.257,-8.362,4.098,2.485291,-0.029296,-5.270139,99764.30,-19,-136,+181
144470,11.855,-9.426,4.259,2.541694,0.065951,-5.315368,99764.30,-33,-127,+186
144480,11.893,-10.801,4.276,2.517217,0.152153,-5.319625,99764.30,-46,-115,+190
144490,11.475,-12.240,4.314,2.428887,0.234630,-5.311644,99765.63,-58,-103,+196
144499,11.532,-13.318,4.533,2.262869,0.330410,-5.339313,99766.15,-58,-103,+196
144509,11.988,-13.847,4.494,2.009585,0.429914,-5.379754,99766.10,-68,-89,+200
144520,12.288,-13.764,4.633,1.694576,0.558685,-5.368047,99766.26,-78,-74,+203
144530,12.180,-13.763,4.958,1.365200,0.731088,-5.265350,99766.26,-83,-62,+205
144540,11.213,-14.492,5.150,1.027310,0.947125,-5.053570,99769.48,-83,-62,+205
144549,9.946,-15.969,4.882,0.712833,1.223822,-4.733240,99766.76,-85,-50,+208
144560,8.732,-17.731,3.911,0.402613,1.536170,-4.311277,99764.84,-87,-41,+210
144570,7.629,-18.917,1.950,0.072173,1.832024,-3.813755,99764.84,-85,-33,+213
144580,6.964,-19.440,-0.230,-0.240176,2.040611,-3.253443,99768.36,-85,-33,+213
144589,6.311,-18.962,-2.983,-0.473772,2.012941,-2.642049,99768.47,-83,-29,+215
144600,4.937,-18.069,-3.988,-0.506763,1.761253,-1.960417,99768.47,-78,-26,+217
144610,3.175,-17.587,-3.748,-0.373735,1.320666,-1.197371,99767.84,-76,-26,+219
144620,2.179,-17.238,-2.870,-0.167276,0.811969,-0.351849,99770.45,-76,-26,+219
144629,2.330,-16.737,-2.327,0.165824,0.274538,0.523472,99770.45,-74,-26,+221
144640,6.070,-15.886,-1.099,0.601090,-0.239480,1.321636,99772.59,-73,-26,+221
144650,7.369,-15.082,-2.217,0.924081,-0.669957,1.848957,99770.03,-73,-27,+221
144660,11.957,-5.563,-0.079,1.166723,-1.087131,2.254957,99766.08,-75,-26,+220
144670,21.925,14.514,-2.601,1.567933,-1.641589,1.726040,99769.09,-75,-26,+220
144679,18.902,11.802,-4.057,0.925145,-1.116397,1.332811,99772.12,-78,-24,+218
144690,11.690,-9.482,-3.116,0.885237,-0.811498,2.502388,99770.18,-77,-26,+219
144700,15.598,-13.923,0.364,1.234301,-1.067975,3.408039,99768.46,-76,-28,+218
144710,12.984,-12.171,-3.673,0.667072,-0.925901,3.317580,99770.18,-76,-28,+218
144719,8.875,-11.492,-2.051,-0.488671,-0.160728,3.220204,99770.18,-75,-33,+217
144730,10.211,-11.067,5.156,-0.599882,0.228245,3.241488,99770.18,-71,-41,+217
144740,10.480,-8.886,12.223,0.447310,0.057438,3.080259,99771.93,-67,-44,+218
144750,11.207,-5.916,5.450,1.448741,-0.586415,2.729067,99767.62,-67,-44,+218
144759,6.743,-3.588,0.169,1.398723,-0.891846,2.416718,99770.48,-66,-43,+219
144770,5.067,-5.877,3.322,1.279530,-0.707204,2.386920,99769.38,-66,-43,+219
144780,5.923,-12.932,2.234,0.832558,-0.723167,2.329452,99769.38,-65,-45,+219
144790,8.026,-10.809,-0.014,-0.346597,-0.501278,2.145875,99771.48,-65,-45,+219
144800,8.286,-6.727,-0.108,-1.197973,-0.039939,1.731893,99770.05,-64,-50,+217
144809,8.393,-5.350,-0.455,-1.309184,0.201639,1.445086,99767.88,-62,-56,+217
144820,9.100,-3.881,-0.450,-0.834010,0.257511,1.275343,99767.88,-58,-60,+216
144830,9.524,-3.053,0.121,-0.221020,0.184080,1.247141,99767.88,-58,-60,+216
144840,9.075,-3.512,1.483,0.139751,0.065419,1.320040,99769.68,-57,-62,+217
144849,8.513,-4.045,2.097,0.331310,-0.059095,1.341325,99768.32,-54,-62,+217
144860,8.478,-4.399,2.122,0.519145,-0.177223,1.302481,99770.46,-53,-64,+218
144870,8.434,-5.180,2.539,0.514356,-0.199039,1.228517,99768.48,-53,-64,+218
144880,7.800,-6.246,2.996,0.278099,-0.135186,1.104004,99768.48,-53,-64,+218
144890,7.494,-6.674,3.020,-0.134286,0.034557,0.905527,99771.01,-50,-64,+219
144900,7.897,-5.373,2.540,-0.490799,0.206428,0.717160,99771.07,-48,-67,+218
144910,8.372,-4.624,1.647,-0.569019,0.255914,0.641068,99771.74,-48,-67,+218
144920,8.507,-4.439,0.601,-0.500377,0.261236,0.647986,99769.73,-47,-69,+217
144930,8.686,-4.386,0.274,-0.376396,0.253786,0.688426,99772.55,-45,-71,+217
144940,8.804,-4.312,0.628,-0.202396,0.201107,0.756536,99768.69,-44,-73,+217
144950,8.605,-4.621,1.399,-0.089056,0.157474,0.834756,99768.69,-44,-73,+217
144960,8.104,-5.333,2.114,-0.113001,0.171309,0.866150,99768.84,-42,-74,+216
144970,7.758,-5.897,2.173,-0.248157,0.254318,0.828903,99768.48,-40,-75,+217
144979,7.733,-5.805,2.267,-0.413111,0.347969,0.753875,99768.48,-37,-77,+217
144991,8.053,-5.056,2.521,-0.495766,0.377058,0.716450,99769.88,-37,-77,+217
145000,8.190,-4.623,2.843,-0.468451,0.284116,0.738976,99769.88,-35,-80,+216
145010,8.089,-4.667,2.666,-0.362029,0.149492,0.802297,99768.83,-33,-82,+216
145020,7.892,-5.227,2.231,-0.277423,0.059566,0.856040,99768.09,-32,-84,+216
145030,7.911,-5.836,2.051,-0.255075,0.044135,0.851251,99768.09,-32,-84,+216
145040,7.882,-5.939,1.843,-0.296579,0.068080,0.817196,99771.52,-30,-85,+216
145050,7.946,-5.969,1.749,-0.362029,0.128740,0.788995,99772.35,-29,-87,+216
145060,8.190,-5.850,1.709,-0.413643,0.183548,0.778352,99770.05,-26,-88,+214
145070,8.297,-5.684,2.006,-0.440249,0.211749,0.794316,99770.05,-26,-88,+214
145080,8.398,-5.419,2.254,-0.458873,0.217603,0.841141,99770.05,-24,-90,+214
145090,8.528,-4.924,2.411,-0.446102,0.188869,0.927875,99771.80,-22,-93,+213
145100,8.579,-5.078,2.432,-0.407258,0.128208,1.046536,99767.41,-19,-95,+213
145110,8.695,-5.668,2.446,-0.391295,0.069676,1.157747,99769.08,-19,-95,+213
145120,8.737,-6.151,2.505,-0.429607,0.068612,1.232242,99770.13,-17,-97,+213
145130,8.715,-6.397,2.419,-0.504102,0.096814,1.287581,99770.13,-14,-99,+211
145140,8.668,-6.130,2.460,-0.585515,0.101071,1.352499,99769.67,-10,-102,+211
145150,9.373,-6.235,2.431,-0.651496,0.077658,1.425398,99769.48,-8,-102,+210
145160,10.192,-6.267,2.082,-0.683423,0.031896,1.509471,99767.17,-8,-105,+210
145170,10.701,-6.166,1.452,-0.687148,-0.023443,1.630792,99767.17,-4,-107,+209
145180,10.913,-6.144,0.728,-0.676506,-0.072929,1.780315,99773.52,-1,-110,+207
145189,11.028,-6.187,0.081,-0.665863,-0.116562,1.945269,99773.52,+2,-110,+206
145200,11.371,-6.079,0.164,-0.648304,-0.189994,2.105966,99772.17,+2,-113,+206
145210,11.733,-6.184,0.821,-0.601478,-0.280452,2.271452,99769.50,+7,-115,+205
145220,12.079,-6.481,1.478,-0.572744,-0.346966,2.439599,99770.23,+10,-118,+204
145225,12.468,-6.600,1.914,-0.579129,-0.370379,2.550810,99770.23,+10,-118,+204
145234,13.011,-6.694,2.390,-0.612120,-0.392195,2.648186,99770.83,+16,-120,+202
145245,13.932,-7.099,3.169,-0.655221,-0.428911,2.786003,99769.11,+22,-123,+201
145255,15.289,-7.236,3.671,-0.727588,-0.442746,2.972241,99768.95,+22,-123,+201
145265,17.331,-7.245,3.544,-0.932450,-0.371443,3.138791,99767.86,+28,-126,+200
145274,20.276,-7.283,3.737,-1.244799,-0.281516,3.240956,99767.86,+35,-128,+197
145285,24.012,-6.042,4.924,-1.595459,-0.185205,3.245745,99770.24,+42,-131,+194
145295,27.822,-2.917,6.613,-2.031257,0.021254,3.217011,99768.99,+42,-131,+194
145305,28.222,-1.513,6.895,-2.659147,0.322960,3.253195,99766.65,+51,-136,+189
145315,24.614,-2.240,4.500,-3.258834,0.441089,3.392608,99766.80,+61,-143,+182
145325,19.062,-6.476,2.428,-3.342375,0.313382,3.687928,99766.80,+71,-148,+175
145335,15.052,-11.765,1.142,-2.863477,-0.276727,4.259415,99770.48,+71,-148,+175
145345,12.901,-13.381,2.243,-2.184505,-0.787021,4.437140,99768.49,+83,-152,+170
145355,12.708,-12.273,4.993,-1.533202,-0.843424,3.947598,99767.76,+92,-152,+166
145364,14.554,-5.656,6.303,-1.027698,-0.671021,3.222865,99765.21,+101,-149,+165
145375,12.338,0.505,5.171,-0.629680,-0.520966,2.460883,99765.21,+101,-149,+165
145385,6.658,1.660,3.064,-0.274763,-0.576837,1.702095,99768.62,+106,-148,+164
145395,-3.272,-3.165,1.341,-0.022543,-0.515645,1.538737,99769.49,+111,-147,+165
145404,2.372,-4.241,3.233,0.234999,-0.358140,1.152958,99766.52,+114,-144,+165
145415,6.308,0.813,1.932,0.476576,-0.439553,-0.090583,99769.24,+114,-144,+165
145425,4.632,2.953,1.017,0.385586,-0.089425,-0.888215,99769.24,+114,-143,+168
145435,3.606,2.644,1.011,0.153586,0.282520,-1.349555,99766.60,+112,-143,+167
