89918,9.312,0.687,2.983,-0.010411,-0.009510,-0.005474,100080.17,-15,+131,+255
89927,9.311,0.692,2.992,-0.005622,-0.008445,-0.004942,100076.48,-15,+131,+255
89937,9.329,0.719,2.973,-0.000833,-0.007913,-0.004410,100079.22,-15,+131,+255
89948,9.353,0.731,3.013,0.002360,-0.007913,-0.004410,100075.81,-15,+130,+256
89958,9.356,0.737,3.048,0.002360,-0.008445,-0.003345,100075.81,-15,+130,+256
89967,9.339,0.725,3.012,-0.000301,-0.008978,-0.003878,100078.28,-15,+130,+256
89977,9.345,0.742,3.022,-0.001897,-0.008978,-0.002281,100078.86,-14,+132,+255
89988,9.346,0.740,3.013,-0.003494,-0.010042,-0.002813,100080.33,-15,+131,+255
89998,9.367,0.736,3.023,-0.004026,-0.010042,-0.002281,100078.48,-16,+130,+256
90007,9.330,0.682,3.016,-0.005090,-0.011106,-0.002813,100078.48,-16,+130,+256
90017,9.346,0.716,2.994,-0.005622,-0.011638,-0.001749,100078.91,-15,+131,+255
90028,9.377,0.727,2.981,-0.001897,-0.011106,-0.000153,100079.07,-14,+130,+255
90038,9.339,0.704,2.982,-0.000833,-0.010574,0.001976,100078.34,-15,+130,+256
90048,9.343,0.693,2.967,0.002360,-0.010042,0.000911,100079.16,-15,+130,+256
90057,9.323,0.705,3.009,0.001828,-0.008978,0.001976,100079.16,-16,+130,+254
90067,9.347,0.734,3.018,0.000231,-0.009510,0.002508,100078.18,-16,+131,+254
90078,9.367,0.730,3.003,0.002892,-0.010042,0.003040,100077.45,-15,+130,+255
90083,9.354,0.723,2.982,0.002892,-0.008978,0.003572,100076.38,-15,+130,+255
90092,9.322,0.695,2.991,0.000231,-0.010574,0.003040,100076.38,-15,+130,+254
90102,9.323,0.688,3.009,-0.001365,-0.010042,0.002508,100078.80,-15,+130,+255
90113,9.324,0.711,2.975,-0.003494,-0.011106,0.001976,100078.80,-15,+130,+255
90123,9.336,0.725,3.029,0.000763,-0.010042,0.001976,100078.98,-14,+131,+255
90133,9.335,0.719,3.001,0.004488,-0.011638,0.003572,100078.39,-14,+131,+255
90143,9.353,0.699,2.992,0.002892,-0.011638,0.003040,100077.31,-15,+132,+254
90152,9.360,0.683,3.005,0.005020,-0.010574,0.003040,100077.31,-15,+132,+254
90163,9.343,0.657,2.980,0.002892,-0.010574,0.001444,100077.31,-16,+130,+255
90173,9.367,0.688,2.970,-0.002429,-0.011106,-0.001217,100078.92,-15,+130,+256
90182,9.313,0.709,2.979,-0.002961,-0.011638,0.000379,100079.91,-15,+131,+256
90192,9.333,0.733,2.971,-0.000301,-0.011638,-0.000153,100078.44,-15,+131,+256
90199,9.356,0.752,2.985,0.000763,-0.011106,0.001444,100077.28,-14,+131,+255
90208,9.329,0.733,2.993,0.002360,-0.010574,0.002508,100077.28,-16,+130,+254
90218,9.325,0.695,2.973,0.002360,-0.010574,0.003040,100078.34,-16,+130,+254
90227,9.324,0.705,2.914,-0.000833,-0.009510,0.003572,100078.39,-16,+130,+255
90237,9.355,0.728,2.986,-0.001897,-0.008978,0.003572,100078.61,-16,+130,+255
90248,9.336,0.722,2.989,-0.000301,-0.007381,0.003572,100077.23,-15,+130,+256
90258,9.329,0.700,2.966,0.002360,-0.005253,0.005168,100077.23,-15,+130,+256
90268,9.337,0.703,2.982,0.003424,-0.003656,0.005700,100077.42,-15,+130,+255
90277,9.329,0.683,2.987,0.002360,-0.004189,0.004104,100077.47,-14,+131,+255
90288,9.339,0.698,2.993,0.001828,-0.004189,0.002508,100078.78,-15,+130,+255
90298,9.341,0.700,2.988,0.002360,-0.004721,0.001444,100074.42,-15,+130,+255
90308,9.327,0.678,2.987,0.003424,-0.003656,-0.000685,100074.42,-15,+130,+255
90317,9.336,0.658,2.966,0.000763,-0.004721,-0.002813,100081.73,-16,+130,+256
90328,9.340,0.657,2.963,-0.000301,-0.003124,-0.005474,100078.06,-15,+130,+255
90338,9.333,0.683,2.952,0.000763,-0.002592,-0.007070,100076.64,-15,+130,+255
90348,9.333,0.733,3.000,0.004488,-0.002592,-0.007070,100075.91,-16,+130,+256
90357,9.342,0.730,3.013,0.009277,-0.001528,-0.006006,100075.91,-15,+130,+255
90368,9.336,0.691,2.986,0.009277,-0.002060,-0.006006,100080.12,-16,+130,+256
90378,9.333,0.711,3.005,0.007149,-0.002592,-0.008134,100079.05,-16,+130,+256
90388,9.334,0.739,3.015,0.006084,-0.003656,-0.008134,100079.16,-15,+130,+255
90398,9.339,0.727,3.015,0.005020,-0.003656,-0.007070,100077.07,-15,+130,+255
90407,9.330,0.700,3.012,0.003956,-0.003124,-0.007602,100077.07,-14,+130,+256
90418,9.345,0.703,2.982,0.001295,-0.004721,-0.009199,100079.98,-14,+130,+256
90428,9.300,0.724,2.973,0.001295,-0.002592,-0.008134,100078.82,-16,+131,+255
90438,9.313,0.695,2.976,0.003424,-0.003124,-0.006006,100078.30,-15,+130,+256
90447,9.325,0.700,2.952,0.003956,-0.003124,-0.007070,100076.99,-15,+130,+255
90458,9.366,0.751,2.946,0.003424,-0.000996,-0.004942,100076.99,-15,+130,+255
90468,9.352,0.739,2.946,0.003956,0.000068,-0.005474,100081.91,-15,+130,+255
90478,9.374,0.746,2.957,0.008213,0.001133,-0.005474,100076.82,-15,+131,+255
90487,9.356,0.743,2.982,0.011938,0.002729,-0.004410,100078.35,-15,+131,+254
90498,9.317,0.716,3.036,0.013534,0.002197,-0.003878,100077.30,-15,+131,+254
90508,9.345,0.689,3.033,0.009277,0.001133,-0.006006,100077.30,-16,+131,+255
90518,9.313,0.700,2.998,0.003956,0.000068,-0.007070,100079.79,-15,+131,+255
90528,9.286,0.722,2.976,0.000763,-0.000464,-0.007070,100082.57,-15,+130,+254
90537,9.307,0.725,2.952,0.003424,0.001665,-0.006538,100077.90,-15,+130,+254
90548,9.312,0.729,2.967,0.007149,0.002197,-0.005474,100077.37,-15,+131,+256
90558,9.292,0.715,2.963,0.009809,0.004325,-0.004942,100077.37,-15,+131,+254
90568,9.309,0.709,2.989,0.008213,0.004325,-0.003878,100078.97,-15,+131,+255
90577,9.329,0.768,2.997,0.004488,0.004857,-0.003878,100080.13,-15,+131,+255
90588,9.366,0.723,2.966,0.003424,0.005389,-0.003345,100077.50,-15,+131,+256
90598,9.367,0.707,2.946,0.003956,0.006454,-0.001749,100078.34,-14,+131,+256
90608,9.315,0.717,2.902,0.005020,0.010178,-0.002281,100078.34,-15,+131,+256
90618,9.339,0.741,2.932,0.010341,0.013371,-0.000153,100077.95,-14,+131,+255
90628,9.378,0.736,2.928,0.016195,0.016032,-0.001217,100079.04,-14,+132,+255
90638,9.368,0.727,2.985,0.021516,0.016564,-0.000685,100078.57,-14,+131,+254
90648,9.365,0.773,3.062,0.026837,0.014967,-0.000685,100075.79,-14,+131,+256
90657,9.334,0.735,3.101,0.026305,0.011775,-0.001749,100075.79,-14,+132,+254
90668,9.327,0.689,3.128,0.015662,0.005389,-0.002813,100080.16,-14,+132,+254
90678,9.295,0.757,3.085,0.000763,-0.000996,-0.006538,100078.59,-14,+132,+255
90688,9.334,0.760,3.054,-0.004558,-0.005253,-0.008134,100076.75,-14,+131,+256
90698,9.329,0.751,3.010,-0.007750,-0.006317,-0.008134,100079.33,-15,+132,+255
90707,9.354,0.740,2.967,-0.007218,-0.007913,-0.008134,100079.33,-15,+132,+255
90718,9.389,0.757,2.989,-0.001897,-0.006849,-0.006006,100079.38,-14,+131,+256
90728,9.355,0.742,3.006,0.002360,-0.005253,-0.006538,100080.73,-14,+131,+256
90738,9.337,0.763,3.025,0.002892,-0.003656,-0.004410,100078.75,-15,+132,+255
90747,9.335,0.754,3.003,0.003424,-0.003656,-0.003878,100076.13,-15,+132,+255
90758,9.351,0.748,3.024,0.004488,-0.004721,-0.002281,100076.13,-14,+131,+254
90768,9.362,0.748,3.019,0.005020,-0.005253,-0.001217,100079.91,-14,+132,+256
90778,9.355,0.741,3.001,0.005020,-0.004721,-0.002281,100079.49,-14,+131,+254
90788,9.305,0.784,3.012,0.006617,-0.005253,-0.002281,100077.76,-14,+131,+254
90798,9.346,0.810,3.034,0.010341,-0.005785,-0.000153,100080.23,-14,+132,+255
90808,9.348,0.785,2.986,0.019387,-0.005785,0.001444,100080.23,-14,+131,+254
90818,9.321,0.760,2.988,0.023112,-0.004189,0.001976,100078.87,-15,+132,+256
90828,9.364,0.743,3.016,0.023112,-0.004189,0.002508,100076.24,-15,+132,+256
90838,9.345,0.741,2.989,0.018323,-0.003656,0.002508,100077.71,-14,+132,+254
90848,9.374,0.751,2.973,0.014066,-0.003124,0.003040,100076.93,-14,+131,+254
90858,9.383,0.795,2.967,0.013002,-0.000996,0.003040,100076.93,-14,+131,+255
90868,9.291,0.795,3.005,0.016727,0.001133,0.004636,100078.13,-14,+131,+255
90877,9.274,0.743,3.001,0.024176,0.001133,0.008361,100078.98,-14,+132,+255
90888,9.310,0.718,3.001,0.023644,0.002197,0.009957,100078.45,-14,+131,+255
90898,9.281,0.706,2.993,0.019919,0.002197,0.009957,100078.66,-15,+132,+255
90903,9.258,0.723,2.992,0.018855,0.002729,0.008893,100078.66,-15,+132,+255
90913,9.283,0.715,2.981,0.016727,0.003261,0.008361,100078.66,-14,+132,+254
90924,9.245,0.649,2.921,0.014066,0.007518,0.008361,100080.49,-14,+132,+254
90933,9.204,0.619,2.857,0.011938,0.011243,0.006765,100078.70,-14,+132,+254
90943,9.230,0.656,2.897,0.009809,0.016564,0.006233,100077.60,-14,+131,+255
90953,9.327,0.715,2.887,0.018323,0.022949,0.004104,100077.58,-14,+132,+255
90963,9.294,0.804,2.918,0.038011,0.031463,0.002508,100077.84,-14,+132,+255
90973,9.292,0.746,2.927,0.061424,0.038912,0.000911,100078.00,-14,+132,+255
90983,9.273,0.655,2.812,0.082176,0.050087,-0.002281,100078.00,-14,+132,+255
90993,9.171,0.692,2.720,0.096011,0.063921,-0.007602,100079.42,-14,+132,+255
91003,9.233,0.770,2.774,0.125277,0.076692,-0.008667,100076.17,-13,+132,+254
91013,9.321,0.887,2.924,0.172103,0.087866,-0.006006,100076.17,-13,+132,+254
91023,9.288,0.885,3.052,0.222121,0.094252,-0.006538,100082.03,-13,+134,+256
91033,9.260,0.652,3.130,0.251387,0.097976,-0.012923,100079.14,-12,+134,+254
91043,9.263,0.539,3.183,0.242341,0.091059,-0.028355,100075.73,-12,+136,+254
91054,9.309,0.558,3.161,0.218396,0.084142,-0.053896,100076.16,-12,+136,+254
91063,9.257,0.561,3.071,0.209882,0.079353,-0.077309,100079.87,-11,+136,+254
91073,9.136,0.642,3.031,0.231167,0.079353,-0.095933,100075.93,-12,+137,+253
91083,9.078,0.713,3.162,0.268415,0.081481,-0.110299,100076.66,-10,+138,+254
91094,9.073,0.618,3.113,0.298745,0.080417,-0.127859,100076.82,-10,+138,+254
91103,8.979,0.278,2.975,0.297148,0.087334,-0.150740,100076.82,-10,+140,+253
91113,8.934,-0.017,2.857,0.234892,0.091591,-0.186391,100076.82,-9,+141,+253
91123,9.058,0.148,2.828,0.147626,0.093720,-0.234281,100079.60,-8,+142,+253
91133,9.236,0.937,3.295,0.121020,0.097976,-0.271529,100077.82,-8,+142,+253
91139,9.246,1.271,3.471,0.157204,0.092123,-0.289088,100077.82,-8,+142,+253
91148,9.384,1.012,3.315,0.226378,0.097444,-0.302391,100077.30,-7,+143,+252
91158,9.455,0.499,3.249,0.273736,0.103830,-0.326868,100077.30,-7,+143,+252
91168,9.355,0.309,3.071,0.218928,0.094784,-0.363584,100078.20,-7,+144,+253
91179,9.431,0.457,3.163,0.122084,0.085738,-0.409877,100078.73,-6,+145,+253
91188,9.463,1.104,3.552,0.041736,0.068710,-0.442868,100077.84,-5,+146,+252
91198,9.391,1.385,3.364,0.030561,0.053279,-0.459363,100078.20,-5,+146,+252
91208,9.351,1.263,3.296,0.029497,0.050619,-0.461492,100078.20,-4,+145,+252
91218,9.507,1.594,3.449,-0.002961,0.030399,-0.453510,100077.89,-3,+146,+251
91228,9.671,1.888,3.520,-0.018925,0.008050,-0.433822,100077.89,-3,+146,+253
91238,9.520,2.027,3.659,-0.033292,-0.018023,-0.396042,100079.36,-3,+146,+253
91248,9.250,2.227,3.572,-0.061493,-0.051014,-0.345492,100077.73,-1,+148,+253
91258,9.159,2.331,3.496,-0.078521,-0.075491,-0.287492,100077.73,-3,+146,+252
91269,9.196,2.415,3.475,-0.091292,-0.099436,-0.225235,100080.71,-3,+146,+253
91278,9.246,2.527,3.422,-0.081182,-0.114867,-0.156593,100078.24,-3,+146,+253
91288,9.183,2.091,3.277,-0.056172,-0.121785,-0.092208,100077.93,-3,+147,+253
91298,9.239,1.739,3.295,-0.074264,-0.133491,-0.048043,100078.18,-3,+146,+253
91309,9.289,1.614,3.319,-0.117365,-0.151583,-0.022501,100078.18,-3,+146,+252
91318,9.264,1.583,3.120,-0.142906,-0.161693,-0.009199,100079.26,-3,+146,+252
91328,9.079,1.472,2.907,-0.155677,-0.161693,0.000379,100078.62,-4,+146,+253
91338,9.068,1.568,2.895,-0.150888,-0.154776,0.008893,100075.32,-4,+145,+253
91348,9.301,1.672,3.079,-0.109915,-0.146262,0.016343,100077.99,-5,+144,+253
91358,9.255,1.322,3.056,-0.059365,-0.138280,0.016875,100077.99,-5,+144,+253
91368,9.116,1.027,3.097,-0.054044,-0.135088,0.006765,100081.44,-5,+144,+253
91374,9.079,0.979,3.025,-0.080117,-0.139877,-0.011327,100080.17,-6,+145,+253
91383,9.230,0.979,2.986,-0.117897,-0.144666,-0.031547,100080.17,-6,+145,+253
91394,9.311,0.894,2.845,-0.179622,-0.154776,-0.061345,100076.81,-7,+143,+253
91404,9.277,1.125,2.722,-0.225383,-0.154776,-0.087951,100077.23,-7,+143,+253
91413,9.324,1.195,2.725,-0.233365,-0.141473,-0.109767,100077.23,-7,+142,+253
91423,9.379,1.044,2.684,-0.236025,-0.134555,-0.126263,100077.96,-7,+142,+253
91433,9.402,1.239,2.694,-0.249328,-0.128170,-0.142226,100080.70,-7,+142,+253
91444,9.294,1.493,2.750,-0.256778,-0.110078,-0.154465,100078.16,-7,+140,+254
91453,9.222,1.369,2.851,-0.268484,-0.109546,-0.153932,100078.16,-8,+140,+253
91463,9.277,1.620,3.011,-0.274870,-0.111675,-0.145951,100078.16,-8,+140,+253
91473,9.096,1.925,3.085,-0.261035,-0.107418,-0.133180,100078.36,-8,+139,+254
91484,9.008,1.883,3.040,-0.220062,-0.103161,-0.107639,100077.05,-8,+138,+254
91493,9.091,1.885,3.015,-0.174301,-0.097840,-0.077841,100078.25,-8,+138,+254
91503,9.039,1.968,2.843,-0.138117,-0.088794,-0.048043,100077.09,-8,+138,+254
91513,9.154,1.897,2.756,-0.115237,-0.074959,-0.015584,100077.09,-9,+138,+254
91524,9.305,1.849,2.818,-0.091292,-0.063785,0.017407,100080.09,-8,+137,+254
91534,9.215,1.933,2.914,-0.057769,-0.052078,0.046141,100077.57,-9,+137,+254
91543,9.079,1.805,2.966,-0.028503,-0.044629,0.074875,100076.62,-9,+137,+254
91553,9.073,1.733,2.877,-0.025310,-0.043565,0.097223,100076.62,-9,+138,+254
91564,9.244,1.766,2.986,-0.020521,-0.040904,0.119040,100078.52,-10,+137,+254
91573,9.239,1.630,2.949,-0.016264,-0.038776,0.139260,100078.52,-10,+136,+254
91583,9.196,1.554,3.045,-0.015200,-0.038244,0.156287,100077.45,-10,+136,+254
91593,9.341,1.603,3.132,-0.014136,-0.048886,0.173315,100077.56,-10,+136,+254
91603,9.324,1.579,3.056,-0.030099,-0.064849,0.189810,100073.94,-10,+136,+254
91613,9.182,1.618,2.961,-0.057769,-0.076556,0.212159,100073.94,-11,+135,+254
91624,9.140,1.800,2.930,-0.075860,-0.085069,0.241957,100080.80,-11,+135,+254
91633,9.152,1.979,2.927,-0.081714,-0.081345,0.279205,100077.33,-12,+136,+254
91643,9.335,1.707,2.925,-0.087567,-0.084537,0.321242,100077.64,-12,+134,+254
91654,9.428,1.670,2.889,-0.103530,-0.093583,0.357957,100076.60,-14,+134,+254
91664,9.456,1.673,2.918,-0.128007,-0.099968,0.398930,100076.38,-14,+134,+254
91673,9.444,1.553,2.813,-0.156741,-0.102097,0.439902,100078.49,-14,+132,+254
91683,9.491,1.642,3.062,-0.204099,-0.117528,0.495241,100078.49,-16,+132,+255
91694,9.696,1.966,3.319,-0.212613,-0.144666,0.561223,100078.16,-16,+130,+256
91704,9.695,2.255,3.493,-0.212081,-0.181913,0.647425,100075.07,-16,+130,+256
91713,9.851,2.636,3.892,-0.249860,-0.246831,0.771939,100075.07,-17,+129,+255
91723,9.954,2.814,3.515,-0.314778,-0.300574,0.920929,100077.32,-20,+127,+256
91734,9.719,2.816,2.687,-0.441952,-0.298977,1.090140,100077.74,-22,+124,+254
91744,10.066,3.183,2.159,-0.604778,-0.281418,1.302452,100076.05,-22,+124,+254
91754,11.292,3.685,2.204,-0.724502,-0.262794,1.563186,100078.10,-24,+120,+257
91763,12.956,4.031,2.713,-0.724502,-0.234060,1.844672,100078.10,-27,+117,+257
91773,14.640,4.416,2.349,-0.584557,-0.141473,2.060708,100080.64,-30,+111,+257
91784,15.970,3.190,2.422,-0.659585,0.011243,2.163938,100078.56,-31,+106,+257
91794,17.792,1.001,2.432,-0.874025,0.116068,2.061240,100075.00,-31,+106,+257
91803,19.695,-0.089,0.344,-1.248098,0.162362,1.884580,100075.00,-32,+101,+259
91813,18.855,1.786,0.148,-1.610465,0.284747,1.791993,100075.00,-33,+93,+260
91824,15.706,2.289,1.925,-1.490740,0.374141,1.815938,100080.46,-33,+85,+261
91833,13.411,-1.597,5.417,-1.159768,0.418307,1.872341,100078.57,-33,+85,+261
91843,14.025,-4.337,7.055,-1.010245,0.360307,1.869681,100075.90,-32,+79,+262
91853,15.332,-4.411,8.805,-1.052282,0.387976,1.787736,100075.43,-32,+73,+263
91864,15.426,-2.648,7.224,-1.061860,0.470985,1.759534,100075.43,-30,+68,+264
91874,14.856,-2.270,4.888,-1.026741,0.472050,1.757406,100079.16,-30,+68,+264
91884,14.196,-3.385,4.591,-0.952245,0.447573,1.799442,100077.93,-28,+63,+265
91893,12.890,-4.221,5.058,-0.916594,0.406068,1.829773,100076.43,-28,+57,+266
91904,11.107,-3.936,5.447,-0.862851,0.404472,1.778158,100076.43,-28,+52,+265
91914,9.572,-3.069,4.911,-0.697365,0.445444,1.708452,100080.27,-28,+52,+265
91923,8.442,-2.963,3.981,-0.428649,0.499719,1.653112,100080.27,-25,+48,+267
91933,7.720,-3.684,3.027,-0.164723,0.527921,1.610543,100077.27,-23,+46,+266
91943,7.078,-4.189,2.424,0.017791,0.527921,1.538177,100076.34,-21,+44,+266
91954,6.292,-4.020,2.016,0.128470,0.511426,1.429626,100076.54,-21,+44,+266
91963,5.389,-3.563,1.622,0.249259,0.492802,1.309369,100076.54,-19,+45,+267
91973,4.447,-3.267,1.114,0.387075,0.465132,1.204544,100077.38,-17,+45,+267
91983,3.537,-3.150,0.671,0.519038,0.426820,1.118874,100076.71,-15,+45,+267
91994,2.818,-3.139,0.478,0.641956,0.375738,1.036397,100078.34,-15,+45,+267
92004,2.140,-3.171,0.462,0.710066,0.306031,0.944342,100077.14,-14,+47,+267
92014,1.456,-3.041,0.470,0.729222,0.216637,0.850691,100077.20,-14,+48,+267
92023,0.927,-2.762,0.517,0.747313,0.128839,0.768746,100076.14,-13,+50,+267
92034,0.478,-2.520,0.574,0.794671,0.053279,0.693186,100075.09,-13,+50,+267
92044,0.158,-2.708,0.733,0.826066,-0.020684,0.624012,100075.09,-12,+53,+267
92053,-0.006,-2.972,0.747,0.792011,-0.107418,0.548985,100077.05,-13,+55,+266
92063,-0.073,-3.103,0.750,0.693038,-0.196812,0.471296,100077.05,-14,+57,+267
92073,-0.084,-3.200,0.843,0.571717,-0.285675,0.398397,100079.91,-14,+57,+267
92084,0.128,-3.232,0.952,0.490836,-0.362298,0.323902,100075.60,-16,+59,+266
92094,0.439,-3.431,0.970,0.467424,-0.408060,0.229719,100076.24,-17,+61,+265
92103,0.723,-3.761,1.190,0.454121,-0.420831,0.131278,100073.98,-17,+62,+265
92113,0.718,-3.922,1.393,0.428580,-0.440519,0.040288,100073.98,-17,+62,+265
92124,0.929,-3.664,1.464,0.386011,-0.487344,-0.065070,100077.48,-19,+63,+264
92134,1.498,-3.194,1.500,0.344506,-0.540023,-0.157125,100075.07,-21,+65,+263
92144,1.966,-2.951,1.579,0.340781,-0.571950,-0.220446,100072.55,-23,+66,+264
92153,2.513,-3.050,1.774,0.358873,-0.588977,-0.265143,100072.55,-23,+66,+264
92164,3.276,-2.958,2.114,0.357809,-0.621968,-0.325272,100072.55,-24,+69,+262
92174,4.112,-2.497,2.336,0.331736,-0.671454,-0.400299,100078.23,-27,+70,+262
92183,4.804,-2.076,2.478,0.316837,-0.713491,-0.480116,100074.66,-29,+71,+261
92194,5.431,-1.943,2.562,0.330317,-0.739387,-0.574654,100076.09,-32,+73,+261
92204,5.814,-2.017,2.658,0.380690,-0.742225,-0.661565,100076.09,-32,+73,+261
92214,5.918,-2.227,2.687,0.429112,-0.716684,-0.771180,100076.09,-34,+75,+259
92224,5.843,-2.263,2.547,0.432836,-0.710298,-0.892501,100077.85,-37,+78,+259
92233,6.094,-2.084,2.489,0.395057,-0.718812,-1.009565,100075.54,-39,+81,+258
92243,6.590,-1.966,2.603,0.322158,-0.733179,-1.113859,100076.09,-39,+81,+258
92254,7.360,-1.962,2.722,0.266818,-0.739564,-1.208574,100076.09,-40,+83,+257
92264,8.332,-2.024,3.088,0.268415,-0.711895,-1.293712,100078.67,-43,+86,+257
92273,9.145,-2.223,3.357,0.304066,-0.662940,-1.361822,100078.67,-44,+89,+256
92283,9.625,-2.465,3.594,0.315240,-0.611858,-1.418225,100077.16,-44,+89,+256
92294,9.907,-2.520,3.513,0.272671,-0.579399,-1.478354,100076.11,-45,+93,+256
92304,10.071,-2.373,3.441,0.190194,-0.552262,-1.544335,100076.42,-46,+95,+254
92313,9.919,-2.178,3.337,0.152415,-0.516078,-1.594886,100076.42,-47,+97,+254
92323,10.021,-2.381,3.399,0.165717,-0.451161,-1.636390,100077.03,-47,+97,+254
92334,10.284,-2.873,3.556,0.108782,-0.386243,-1.690665,100078.70,-46,+100,+253
92344,10.720,-2.902,3.842,-0.025842,-0.370280,-1.775271,100075.14,-47,+103,+253
92354,11.660,-2.345,4.122,-0.110448,-0.365491,-1.841253,100075.98,-47,+105,+253
92363,12.504,-1.960,4.369,-0.095016,-0.324519,-1.856152,100079.50,-47,+105,+253
92374,13.301,-2.051,4.629,-0.015732,-0.253216,-1.845509,100077.03,-46,+107,+252
92384,13.536,-2.537,5.299,0.065681,-0.165950,-1.815179,100076.83,-46,+110,+252
92394,10.191,-12.858,19.148,0.147094,0.390637,-1.496445,100076.83,-42,+112,+253
92403,17.462,-5.677,5.387,0.680268,-0.107950,-1.382042,100074.63,-42,+112,+253
92413,20.505,-7.737,-0.259,-0.464301,-0.128170,-1.070226,100074.63,-42,+115,+253
92424,17.746,2.927,-6.123,-0.781970,-0.199473,-1.017015,100079.27,-42,+114,+253
92429,18.921,14.906,-9.800,-0.678209,-0.442115,-1.341601,100082.90,-42,+114,+253
92439,23.819,15.111,-8.308,-0.276466,-0.684225,-1.143125,100079.16,-43,+114,+253
92448,24.021,10.254,2.970,0.462103,0.004325,-0.484373,100078.70,-43,+116,+252
92459,15.057,7.465,4.232,1.144267,0.622637,-0.042189,100078.70,-43,+116,+252
92469,6.539,-0.122,0.867,1.405533,0.610398,0.200453,100077.25,-40,+120,+252
92479,4.705,-6.118,-0.036,1.373074,0.496527,0.210031,100082.23,-39,+124,+251
92488,7.427,-7.102,2.099,1.037845,0.368288,0.146177,100078.52,-38,+128,+250
92498,8.732,-3.306,3.711,0.632910,0.199609,0.012086,100076.89,-37,+130,+249
92509,8.627,-1.280,5.002,0.226378,0.148527,-0.076777,100076.89,-37,+130,+249
92519,8.299,-0.152,6.037,-0.149824,0.071371,-0.175749,100078.24,-36,+130,+250
92529,8.711,1.854,4.999,-0.327016,-0.087730,-0.226299,100077.04,-36,+130,+250
92538,9.565,2.951,2.896,0.017791,-0.103693,-0.178942,100079.09,-35,+130,+249
92549,10.301,1.149,1.084,0.659515,0.031995,-0.085290,100077.40,-35,+130,+249
92559,10.727,-2.118,0.132,0.962286,0.171940,-0.034740,100077.40,-35,+133,+249
92569,10.821,-3.403,0.164,0.669625,0.245903,-0.090079,100078.78,-35,+136,+248
92578,10.364,-2.015,0.792,0.215204,0.268784,-0.184795,100080.67,-33,+137,+249
92589,10.076,-0.443,2.143,0.026305,0.295921,-0.225767,100078.94,-33,+137,+249
92599,9.853,-0.078,3.498,-0.008283,0.310288,-0.228428,100077.67,-32,+137,+249
92609,9.401,0.474,4.049,-0.051383,0.290068,-0.233749,100077.67,-30,+136,+249
92619,8.734,1.187,4.218,-0.032760,0.244307,-0.213529,100079.73,-30,+136,+249
92628,8.739,1.293,4.116,0.101332,0.198013,-0.151804,100076.69,-30,+136,+249
92639,9.274,0.474,3.505,0.227442,0.179921,-0.114556,100076.84,-28,+138,+249
92649,9.801,-0.086,2.703,0.234892,0.186839,-0.109235,100078.27,-29,+139,+249
92658,9.797,0.059,2.422,0.197644,0.206527,-0.100722,100078.27,-28,+140,+249
92664,9.989,0.089,2.202,0.190194,0.218765,-0.080501,100079.31,-28,+140,+249
92674,10.218,0.097,2.196,0.182745,0.245903,-0.059749,100079.31,-27,+140,+248
92684,9.853,0.661,2.908,0.167314,0.277297,-0.019841,100079.84,-27,+140,+248
92694,8.917,1.393,3.772,0.198176,0.280490,0.047737,100079.00,-24,+142,+250
92704,8.685,1.269,3.659,0.269479,0.263463,0.124361,100076.38,-24,+142,+249
92713,9.058,0.594,3.473,0.282249,0.241114,0.195664,100080.52,-24,+142,+249
92724,9.260,0.620,3.009,0.218928,0.227811,0.255792,100079.05,-23,+143,+249
92734,9.224,0.843,2.664,0.158268,0.241646,0.305278,100076.78,-23,+143,+249
92744,9.346,0.816,2.632,0.149222,0.256545,0.369664,100076.78,-23,+143,+249
92753,9.300,0.831,2.588,0.163589,0.287940,0.428728,100076.63,-23,+143,+249
92764,9.109,0.302,2.606,0.180084,0.324123,0.480874,100076.63,-21,+143,+249
92774,9.184,-0.515,2.472,0.162525,0.353389,0.515994,100076.55,-21,+143,+249
92784,9.116,-0.271,2.434,0.080048,0.385316,0.542599,100077.45,-21,+144,+249
92793,8.920,0.412,2.798,0.027901,0.410857,0.576654,100077.12,-20,+142,+250
92804,8.997,0.317,2.881,0.060892,0.438527,0.627737,100076.71,-20,+142,+250
92814,9.249,-0.040,3.066,0.072066,0.469921,0.668177,100076.71,-20,+142,+250
92824,9.419,-0.559,2.918,0.027369,0.491738,0.688929,100078.32,-19,+142,+251
92834,9.204,-0.336,3.250,-0.060429,0.511958,0.695847,100076.07,-18,+141,+251
92844,9.097,0.049,3.437,-0.102466,0.519940,0.710746,100075.60,-16,+139,+252
92854,9.347,-0.378,3.189,-0.078521,0.546013,0.733095,100075.60,-16,+139,+252
92864,9.403,-0.456,3.349,-0.064686,0.563573,0.758104,100075.60,-16,+139,+253
92874,9.550,-0.530,3.678,-0.049255,0.577407,0.780452,100079.78,-16,+138,+253
92883,9.480,-0.791,3.716,-0.080649,0.586453,0.788966,100079.05,-14,+137,+254
92894,9.444,-0.925,3.877,-0.175897,0.579536,0.795351,100075.00,-14,+137,+254
92899,9.486,-1.154,3.684,-0.266356,0.577407,0.794287,100074.53,-14,+136,+255
92909,9.538,-1.195,3.483,-0.356282,0.584325,0.787902,100074.53,-14,+136,+255
92919,9.328,-0.680,3.563,-0.418539,0.598692,0.798012,100076.41,-12,+133,+256
92929,9.262,-0.906,3.583,-0.373310,0.617848,0.821957,100077.93,-10,+130,+256
92939,9.534,-1.571,3.398,-0.315310,0.623701,0.852287,100079.30,-10,+129,+257
92949,9.714,-1.706,3.331,-0.294558,0.624233,0.877296,100077.41,-8,+129,+259
92959,9.797,-1.713,3.365,-0.265292,0.629554,0.907627,100077.41,-8,+126,+259
92968,9.936,-1.724,3.501,-0.254117,0.634875,0.952856,100081.55,-8,+126,+259
92979,9.814,-1.143,4.176,-0.266888,0.634875,0.999682,100079.46,-6,+124,+259
92989,9.780,-1.046,4.601,-0.245071,0.633279,1.057149,100077.68,-5,+122,+261
92999,10.260,-1.396,4.391,-0.224319,0.631683,1.099718,100077.30,-5,+122,+261
93008,10.652,-1.571,4.489,-0.253585,0.620508,1.132709,100077.30,-4,+120,+261
93015,11.064,-1.695,4.550,-0.288704,0.606141,1.148672,100079.36,-4,+120,+261
93024,11.560,-2.137,4.311,-0.334998,0.601884,1.164635,100079.36,-3,+118,+262
93034,11.864,-2.393,4.100,-0.433970,0.613059,1.181131,100078.47,-1,+116,+263
93044,11.374,-1.712,4.275,-0.522301,0.624233,1.191241,100078.67,-1,+113,+264
93054,11.314,-1.444,4.567,-0.515383,0.627426,1.220507,100078.05,-1,+113,+264
93064,11.467,-1.715,4.512,-0.489310,0.629022,1.246048,100079.91,+0,+110,+265
93074,11.287,-1.964,4.408,-0.534007,0.630086,1.251369,100078.17,+0,+108,+265
93084,11.272,-1.936,4.232,-0.629787,0.609334,1.256158,100077.81,+1,+104,+267
93094,11.290,-1.607,4.161,-0.717585,0.585921,1.263076,100077.81,+1,+104,+267
93104,11.083,-1.244,4.352,-0.768135,0.581132,1.275846,100078.28,+3,+101,+267
93114,10.980,-0.948,4.656,-0.804319,0.581132,1.292342,100078.28,+4,+97,+268
93124,11.178,-1.086,4.829,-0.867640,0.569958,1.301388,100078.73,+5,+93,+269
93134,11.426,-1.546,4.292,-1.031884,0.543707,1.288440,100078.13,+7,+87,+270
93144,11.759,-1.002,3.896,-1.221493,0.503976,1.259883,100078.13,+7,+87,+270
93154,12.790,-0.214,3.477,-1.376869,0.422563,1.259883,100076.22,+7,+83,+271
93164,12.754,0.559,3.203,-1.516282,0.370949,1.274250,100076.22,+8,+75,+272
93174,12.129,0.439,2.472,-1.709437,0.373609,1.275846,100078.98,+8,+68,+273
93185,12.077,0.074,1.389,-1.984006,0.324655,1.258287,100080.29,+8,+68,+273
93194,12.469,0.281,0.543,-2.240483,0.209187,1.261479,100076.82,+9,+59,+274
93204,12.330,0.916,0.619,-2.368189,0.151720,1.301920,100076.82,+9,+50,+276
93214,12.398,1.717,1.438,-2.356483,0.130967,1.430690,100076.82,+9,+39,+274
93224,13.276,1.820,2.908,-2.160135,0.153316,1.667479,100082.25,+9,+39,+274
93234,15.440,1.247,4.221,-1.737639,0.244839,1.994195,100079.58,+10,+31,+274
93244,17.736,1.117,5.175,-1.217768,0.415114,2.269827,100077.27,+12,+25,+274
93254,18.457,1.201,5.792,-0.788355,0.588582,2.436910,100077.27,+15,+21,+275
93264,18.583,-0.214,7.033,-0.625530,0.684894,2.634323,100077.27,+15,+21,+275
93275,19.373,-1.869,7.760,-0.482392,0.682233,2.815772,100077.71,+17,+17,+274
93284,18.227,0.101,7.439,-0.584557,0.654563,2.914744,100077.09,+23,+14,+275
93294,15.657,3.415,5.785,-0.579236,0.618912,2.754579,100074.23,+25,+11,+274
93304,13.039,4.055,4.336,-0.502080,0.583793,2.559295,100074.23,+25,+11,+274
93315,10.534,2.217,5.250,-0.204631,0.496527,2.485864,100080.20,+28,+9,+275
93324,9.725,-3.284,7.586,0.143901,0.527389,2.307607,100076.15,+32,+7,+274
93334,11.201,-1.797,6.060,0.025773,0.465132,2.032506,100076.15,+33,+7,+274
93344,11.313,1.593,3.124,-0.366392,0.392233,1.541901,100078.93,+33,+7,+274
93355,9.735,3.448,2.392,-0.623933,0.288472,1.060874,100078.09,+35,+4,+274
93364,8.156,3.479,1.140,-0.655328,0.079885,0.773003,100078.09,+36,+2,+274
93374,7.250,2.297,0.187,-0.544649,-0.080280,0.415957,100077.70,+35,+0,+273
93384,6.832,0.729,-0.270,-0.439824,-0.211711,0.016343,100078.48,+35,+0,+273
93394,6.421,-0.192,-0.097,-0.444613,-0.398482,-0.383804,100077.06,+33,-1,+272
93405,5.685,-0.135,0.072,-0.480796,-0.610262,-0.789804,100076.55,+30,-3,+272
93414,4.836,0.458,0.198,-0.446209,-0.752335,-1.205381,100078.42,+26,-5,+272
93424,4.292,0.948,-0.072,-0.291897,-0.853968,-1.626280,100071.33,+26,-5,+272
93434,4.281,1.000,-0.334,-0.001365,-0.924738,-2.021638,100072.80,+21,-3,+272
93444,4.677,0.733,-0.589,0.357277,-0.968904,-2.376555,100072.80,+16,-2,+271
93454,5.109,0.385,-0.532,0.658451,-1.012004,-2.699013,100074.84,+9,+0,+271
93464,5.502,0.121,-0.312,0.898433,-1.074793,-3.017747,100074.84,+9,+0,+271
93474,5.817,-0.016,0.103,1.079350,-1.134390,-3.348187,100074.70,+3,+7,+271
93485,6.171,-0.025,0.541,1.213974,-1.214206,-3.674903,100073.34,-1,+13,+271
93494,6.486,0.005,0.887,1.349129,-1.287105,-3.987783,100070.40,-8,+21,+269
93504,7.064,-0.054,1.257,1.493331,-1.345105,-4.268737,100069.51,-8,+21,+269
93514,7.745,-0.386,1.431,1.638597,-1.399912,-4.507655,100069.51,-14,+31,+269
93524,8.420,-0.741,1.579,1.758854,-1.443013,-4.727948,100067.70,-21,+41,+266
93535,9.127,-0.964,1.659,1.821111,-1.504738,-4.930150,100071.41,-26,+53,+265
93544,9.866,-1.192,1.798,1.870065,-1.567527,-5.113195,100070.64,-26,+53,+265
93554,10.710,-1.445,2.028,1.909973,-1.641490,-5.287727,100070.64,-32,+66,+261
93564,11.654,-1.953,2.245,1.892413,-1.738334,-5.448425,100070.64,-35,+79,+260
93575,12.741,-2.799,2.781,1.782799,-1.869233,-5.597948,100072.77,-38,+93,+256
93584,13.811,-3.476,3.424,1.584322,-2.033123,-5.729379,100074.30,-38,+93,+256
93594,14.637,-3.813,4.058,1.337423,-2.175196,-5.844846,100072.72,-41,+105,+253
93604,15.080,-3.686,4.698,1.105955,-2.284279,-5.959782,100071.98,-43,+117,+248
93615,15.524,-3.364,5.288,0.898965,-2.367820,-6.077378,100071.98,-44,+129,+244
93625,16.306,-3.764,5.959,0.655258,-2.440187,-6.181672,100071.63,-45,+129,+240
93634,17.317,-4.830,6.718,0.300341,-2.515214,-6.264681,100072.52,-45,+140,+240
93644,17.966,-5.300,7.481,-0.054044,-2.533306,-6.309378,100070.16,-44,+149,+236
93655,18.359,-5.326,8.385,-0.272209,-2.431673,-6.279580,100070.16,-42,+156,+233
93665,18.656,-5.919,9.189,-0.340851,-2.212976,-6.128461,100072.67,-39,+164,+231
93674,17.869,-7.462,9.862,-0.394594,-1.889986,-5.856020,100070.05,-39,+164,+231
93684,16.413,-9.132,10.719,-0.486649,-1.475472,-5.496847,100070.05,-35,+170,+230
93694,15.668,-11.095,11.330,-0.623401,-1.022115,-5.025397,100071.67,-30,+174,+229
93705,14.721,-13.727,11.441,-0.837842,-0.626757,-4.389526,100073.98,-24,+176,+231
93714,13.252,-16.679,9.781,-1.082080,-0.350060,-3.615839,100073.98,-24,+176,+231
93720,12.328,-18.907,9.511,-1.235860,-0.174996,-2.944316,100076.18,-19,+176,+233
93729,11.035,-20.089,9.587,-1.203401,-0.020152,-2.086555,100078.16,-19,+176,+233
93740,8.847,-20.159,10.631,-1.033658,0.229940,-0.799382,100077.01,-16,+174,+234
93749,8.692,-18.730,11.455,-0.544649,0.537499,0.561223,100075.07,-14,+171,+236
93759,9.520,-16.141,11.673,0.280653,0.924875,1.837222,100075.07,-16,+170,+236
93769,12.915,-3.055,6.796,1.026671,1.143040,2.581112,100076.53,-16,+170,+236
93779,16.040,25.540,-5.394,1.395955,0.948288,2.173516,100076.95,-16,+171,+235
93790,13.747,34.470,-14.313,0.431240,0.738105,0.786305,100076.91,-15,+174,+234
93799,4.799,-4.769,-3.389,1.989790,1.518710,1.750488,100078.53,-13,+178,+233
93809,16.271,-15.453,6.650,3.339220,1.864049,3.003075,100078.53,-13,+178,+233
93819,24.746,-8.367,-0.565,0.687185,0.894545,2.989772,100081.30,-12,+184,+229
93830,21.956,-2.054,-0.792,-0.737273,0.879646,2.281534,100079.21,-15,+179,+231
93839,19.430,0.078,5.829,-0.217402,1.318104,2.775864,100076.74,-16,+176,+233
93849,12.513,-1.042,9.489,0.163589,1.537866,2.823754,100074.96,-16,+176,+233
93859,10.639,-2.307,9.020,0.345570,1.616618,2.530561,100074.96,-15,+174,+235
93870,11.358,-2.246,8.179,0.361534,1.610232,2.531626,100078.01,-15,+172,+235
93880,9.993,-2.658,7.082,0.256708,1.503810,2.451809,100075.85,-14,+171,+236
93889,9.349,-2.570,6.032,-0.035420,1.278196,2.237901,100078.12,-13,+168,+238
93899,9.640,-3.980,4.571,-0.526557,0.998306,2.002176,100076.12,-13,+168,+238
93910,11.044,-3.650,2.784,-1.063456,0.696068,1.873406,100076.12,-14,+164,+240
93920,12.055,-0.187,2.411,-1.340685,0.525261,1.743571,100076.63,-15,+158,+242
93929,10.754,2.006,2.708,-1.108153,0.522068,1.474323,100078.09,-16,+152,+244
93939,9.930,1.623,2.408,-0.581897,0.605077,1.297663,100074.78,-16,+152,+244
93949,9.852,1.222,2.399,-0.253585,0.644453,1.257755,100077.41,-15,+150,+245
93955,9.651,1.104,3.052,-0.188668,0.632747,1.210397,100077.41,-15,+150,+245
93964,9.787,0.354,3.264,-0.197181,0.584325,1.153461,100077.41,-14,+148,+246
93975,9.708,-0.002,3.013,-0.234429,0.529517,1.002874,100077.73,-14,+147,+246
93984,9.494,0.797,3.456,-0.313714,0.485884,0.827810,100076.84,-14,+146,+248
93995,9.309,0.783,3.879,-0.388209,0.431077,0.708617,100077.04,-14,+146,+248
94005,9.012,0.801,4.486,-0.538264,0.355518,0.610709,100078.79,-14,+143,+248
94015,8.720,1.397,4.770,-0.729823,0.266123,0.501627,100078.41,-13,+140,+249
94024,8.497,1.702,4.127,-0.823475,0.200674,0.416489,100079.57,-13,+136,+250
94034,8.475,1.827,3.311,-0.731952,0.189499,0.378177,100079.57,-13,+136,+250
94045,8.756,2.007,2.574,-0.519108,0.230472,0.397333,100076.59,-13,+134,+252
94054,8.858,1.723,2.451,-0.302539,0.299114,0.457462,100076.59,-12,+132,+253
94064,8.983,0.988,3.036,-0.197714,0.338490,0.511737,100076.59,-12,+132,+253
94074,9.385,0.508,3.379,-0.211016,0.329976,0.521847,100080.32,-12,+132,+254
94085,9.248,0.989,3.480,-0.265292,0.328912,0.499498,100077.27,-12,+130,+254
94095,8.691,1.714,3.660,-0.302007,0.348600,0.488324,100076.76,-11,+128,+253
94104,8.513,1.555,3.642,-0.325952,0.357646,0.527168,100077.12,-10,+128,+255
94114,8.671,1.530,3.223,-0.355218,0.358178,0.592618,100079.05,-10,+126,+255
94125,9.070,1.220,2.970,-0.319035,0.394362,0.662324,100077.70,-10,+126,+255
94135,9.303,1.001,3.235,-0.271677,0.435866,0.722452,100076.18,-8,+124,+256
94145,9.188,1.040,3.412,-0.249860,0.463004,0.766617,100076.01,-8,+122,+257
94154,9.082,1.316,3.655,-0.235493,0.495462,0.815571,100076.01,-7,+122,+258
94164,9.165,1.184,3.759,-0.233365,0.526857,0.868782,100076.01,-7,+122,+258
94175,9.380,0.947,3.578,-0.261035,0.555059,0.935828,100075.16,-5,+120,+257
94184,9.373,1.021,3.295,-0.344576,0.579004,1.023094,100077.26,-4,+117,+258
94190,9.392,1.216,2.913,-0.405769,0.600820,1.101846,100076.48,-4,+117,+258
94199,9.760,0.777,2.748,-0.457383,0.621572,1.200287,100076.59,-3,+115,+260
94210,10.105,0.590,2.487,-0.513787,0.651903,1.323736,100076.59,-3,+112,+261
94220,10.159,0.964,3.294,-0.540924,0.701921,1.421644,100078.43,-3,+112,+261
94229,10.538,-0.006,3.793,-0.529750,0.696068,1.524874,100077.07,-2,+109,+262
94239,11.101,-0.639,3.763,-0.566466,0.697132,1.587131,100076.70,+0,+107,+262
94249,11.189,-0.656,3.882,-0.671823,0.701389,1.609479,100077.23,+0,+102,+264
94260,11.462,-0.509,3.757,-0.764410,0.668930,1.645131,100077.23,+0,+102,+264
94270,11.790,-0.236,3.282,-0.793676,0.660416,1.713241,100078.57,+1,+99,+264
94279,11.971,0.164,3.262,-0.787291,0.667866,1.803699,100077.26,+3,+93,+266
94289,12.423,-0.153,3.003,-0.750044,0.651371,1.923424,100076.48,+4,+90,+267
94300,12.955,-0.612,2.536,-0.741530,0.652435,2.052195,100074.38,+4,+90,+267
94310,12.842,-0.250,2.564,-0.790484,0.669462,2.175644,100074.38,+5,+85,+269
94319,12.698,0.692,3.158,-0.800062,0.660949,2.321442,100079.00,+6,+81,+267
94329,13.494,0.911,3.302,-0.740466,0.651371,2.489057,100078.69,+7,+77,+269
94340,14.196,0.818,3.229,-0.773988,0.682765,2.625277,100077.33,+8,+73,+270
94350,14.035,1.237,3.011,-0.948520,0.710967,2.740745,100077.06,+8,+73,+270
94359,14.187,1.855,2.751,-1.158704,0.694472,2.864726,100077.06,+11,+67,+271
94369,15.335,2.684,2.700,-1.351860,0.602949,3.006267,100077.63,+12,+60,+271
94380,17.308,4.172,2.926,-1.642392,0.483224,3.117478,100079.46,+13,+51,+272
94390,19.023,5.914,2.330,-2.142575,0.463004,3.078634,100077.52,+13,+51,+272
94400,19.944,6.201,0.728,-2.878483,0.425756,2.931772,100078.90,+14,+41,+273
94409,21.123,6.979,-0.652,-3.814996,0.209187,2.769479,100078.90,+16,+25,+272
94419,21.730,10.295,0.532,-4.609436,0.042105,2.594414,100079.73,+17,+6,+271
94426,20.710,11.935,3.418,-4.619013,0.081481,2.597075,100078.78,+17,+6,+271
94435,19.471,9.608,7.431,-3.595234,0.229408,2.966359,100078.78,+19,-7,+269
94445,21.090,4.363,9.062,-1.312484,0.361371,3.770909,100074.84,+19,-7,+269
94454,22.417,-0.049,8.449,0.052910,0.355518,4.381771,100075.16,+25,-11,+269
94465,19.926,-0.311,8.035,0.351956,0.475242,4.395606,100075.16,+30,-11,+269
94475,17.320,3.771,7.129,0.624928,0.768435,3.907129,100077.14,+35,-9,+271
94485,13.372,7.630,5.843,1.034121,0.896673,3.206873,100075.98,+35,-9,+271
94495,8.680,7.508,4.784,1.147992,0.493866,2.615167,100076.50,+41,-5,+271
94504,6.653,-1.271,6.939,1.559845,0.352857,2.119240,100076.50,+44,+0,+272
94515,7.175,-1.064,6.566,1.485882,0.114472,1.463681,100076.50,+46,+3,+271
94525,8.673,3.014,1.624,0.814359,-0.269179,0.651150,100079.70,+45,+3,+271
94534,6.544,5.758,0.392,0.425387,-0.439454,-0.253437,100078.70,+45,+7,+274
94544,5.453,5.959,0.236,0.299809,-0.656555,-0.732336,100077.92,+43,+9,+272
94555,4.173,4.057,0.216,0.367387,-0.872060,-1.091510,100077.70,+39,+11,+272
94565,3.328,1.650,0.395,0.457314,-1.047656,-1.462390,100077.70,+35,+13,+271
94575,3.191,0.104,0.910,0.517442,-1.202500,-1.852427,100076.32,+35,+13,+271
94584,3.476,-0.631,1.421,0.557350,-1.341380,-2.308445,100077.37,+30,+17,+271
94595,3.935,-0.648,1.737,0.580763,-1.498885,-2.757545,100076.01,+24,+21,+270
94605,4.412,0.005,1.618,0.617479,-1.644151,-3.139068,100076.01,+16,+25,+269
94615,5.046,0.639,1.427,0.728157,-1.746316,-3.478554,100075.31,+16,+25,+269
94624,5.817,0.792,1.286,0.905350,-1.820279,-3.781857,100075.31,+11,+31,+268
94635,6.133,0.429,1.485,1.038377,-1.855931,-4.053765,100075.38,+3,+38,+266
94645,6.262,0.065,1.992,1.101698,-1.913398,-4.310242,100072.91,-1,+45,+265
94655,6.568,-0.168,2.397,1.166616,-1.954371,-4.572040,100070.59,-1,+45,+265
94664,7.120,-0.377,3.106,1.259735,-1.968206,-4.840223,100070.59,-7,+55,+262
94674,7.938,-0.318,3.727,1.388506,-1.965545,-5.098828,100070.99,-11,+65,+260
94685,8.866,-0.242,4.242,1.538561,-1.954371,-5.332425,100071.41,-15,+77,+257
94695,9.851,-0.269,4.358,1.678505,-1.958628,-5.572406,100070.26,-15,+77,+257
94705,11.371,-0.558,4.159,1.727992,-1.988958,-5.808131,100069.55,-17,+88,+254
94714,13.236,-1.440,3.784,1.659882,-2.025674,-6.003415,100073.75,-17,+102,+250
94725,14.731,-2.486,3.586,1.513019,-2.061857,-6.138039,100071.39,-17,+112,+248
94735,15.814,-3.444,3.910,1.319863,-2.080481,-6.223176,100071.39,-17,+112,+248
94745,16.805,-4.356,5.162,1.128304,-2.098572,-6.267342,100071.13,-15,+122,+243
94754,17.601,-5.405,6.284,0.993148,-2.144866,-6.231158,100071.02,-13,+130,+240
94765,18.383,-6.480,6.704,0.824469,-2.210316,-6.165709,100071.02,-10,+137,+238
94776,19.205,-7.085,6.505,0.484628,-2.305208,-6.081635,100075.27,-10,+137,+238
94785,19.133,-6.510,6.742,0.173699,-2.358242,-5.975213,100075.27,-8,+142,+235
94795,17.843,-4.516,8.263,0.113571,-2.279490,-5.790039,100070.75,-7,+145,+233
94804,16.003,-3.290,10.307,0.492965,-1.972463,-5.531434,100072.59,-3,+148,+231
94815,15.535,-5.112,11.704,0.930359,-1.487711,-5.218021,100072.59,-3,+148,+231
94825,15.344,-8.957,11.463,0.943130,-1.002427,-4.823728,100072.70,+0,+154,+229
94835,14.302,-12.020,9.117,0.565332,-0.648574,-4.353343,100073.66,+4,+156,+229
94844,14.168,-14.882,7.115,0.167314,-0.406464,-3.733967,100074.82,+7,+156,+229
94855,13.118,-17.890,6.320,-0.168448,-0.295253,-2.886316,100074.82,+7,+156,+229
94865,11.016,-18.906,7.837,-0.447805,-0.205326,-1.899253,100074.82,+10,+155,+230
94875,9.504,-17.386,9.541,-0.540924,-0.062189,-0.836097,100075.84,+10,+153,+231
94884,8.878,-14.226,9.941,-0.311053,0.197481,0.238232,100074.22,+9,+151,+233
94895,8.577,-11.434,9.571,0.266286,0.537499,1.242324,100078.84,+9,+151,+233
94905,8.918,-10.426,9.049,0.989955,0.869536,2.109662,100075.75,+9,+150,+233
94915,11.612,-2.954,7.160,1.323056,1.045664,2.496506,100075.75,+9,+150,+232
94925,16.509,16.095,-2.724,1.093717,0.825903,2.170855,100079.29,+9,+151,+231
94935,17.473,22.404,-7.713,-0.261567,0.650838,1.085351,100078.05,+9,+151,+231
94945,9.257,-2.670,0.399,0.797332,1.364398,1.615865,100077.45,+10,+148,+232
94955,18.334,-8.908,4.924,1.850377,1.400581,2.862598,100077.45,+11,+152,+231
94965,26.244,-5.429,1.013,0.231699,0.878049,3.095130,100079.74,+9,+150,+232
94974,19.673,-1.409,1.653,-0.419603,1.105792,2.660396,100079.74,+9,+150,+232
94985,15.220,0.406,4.711,0.240213,1.416544,3.077570,100077.34,+9,+146,+233
94995,11.723,0.257,6.054,0.725497,1.586287,3.138763,100072.93,+10,+145,+233
95005,8.467,-1.817,5.470,0.854267,1.618746,2.756176,100077.34,+11,+145,+234
95010,8.413,-1.487,5.374,0.765937,1.547976,2.572598,100077.34,+11,+145,+234
95020,7.981,-0.329,6.375,0.629717,1.484655,2.407112,100076.66,+12,+146,+234
95030,7.973,-0.222,8.139,0.676011,1.474012,2.162873,100078.91,+15,+146,+234
95040,10.872,-1.324,6.368,0.820745,1.413352,2.042617,100078.75,+15,+146,+234
95050,13.276,-2.823,2.760,0.571185,1.204233,1.992066,100078.17,+16,+148,+234
95059,11.193,-2.738,3.668,0.109314,1.076526,1.865424,100078.17,+16,+147,+234
95070,9.713,-0.866,3.845,-0.187604,0.900398,1.703663,100081.25,+17,+145,+235
95080,10.138,-1.444,2.924,-0.421732,0.717352,1.560525,100078.89,+17,+145,+235
95090,10.175,-1.325,2.605,-0.593071,0.622637,1.421644,100075.75,+17,+142,+236
95099,10.370,-0.935,2.234,-0.741530,0.542820,1.275314,100073.91,+17,+140,+238
95110,10.410,-0.374,2.193,-0.806447,0.512490,1.114085,100073.91,+18,+136,+239
95120,10.229,0.918,2.179,-0.779842,0.544949,0.969351,100077.55,+18,+136,+239
95130,9.889,1.081,2.278,-0.559016,0.627958,0.871443,100075.46,+19,+134,+240
95139,9.694,0.698,2.476,-0.272209,0.707242,0.801737,100077.18,+19,+132,+241
95150,9.489,0.181,2.556,-0.143971,0.734380,0.732030,100077.91,+21,+132,+241
95160,9.446,-0.170,2.925,-0.185475,0.709903,0.657535,100077.91,+21,+132,+241
95170,9.453,-0.232,3.083,-0.331805,0.635939,0.577186,100082.12,+23,+130,+242
95180,9.238,-0.140,3.195,-0.503145,0.570490,0.498966,100079.23,+24,+128,+243
95190,9.014,0.074,3.474,-0.705878,0.509297,0.431388,100076.51,+25,+126,+244
95200,8.959,1.096,3.657,-0.899034,0.437463,0.378709,100075.93,+25,+126,+244
95210,9.013,1.999,3.654,-0.974062,0.396490,0.371792,100075.93,+26,+122,+246
95220,8.881,2.209,3.085,-0.863915,0.414582,0.409040,100077.89,+27,+119,+246
95229,8.902,1.635,2.446,-0.634044,0.467793,0.488324,100079.14,+28,+117,+246
95240,9.100,1.294,2.226,-0.380227,0.530582,0.576654,100076.73,+28,+117,+246
95246,9.237,1.058,2.640,-0.246136,0.575279,0.639975,100078.94,+29,+115,+248
95255,9.341,0.389,3.177,-0.230172,0.593903,0.678287,100078.94,+31,+114,+248
95265,9.481,-0.526,3.801,-0.418007,0.578472,0.673498,100078.94,+31,+114,+248
95276,9.373,0.284,4.510,-0.730888,0.525793,0.629333,100077.77,+32,+112,+248
95285,8.922,1.920,4.699,-0.936282,0.480563,0.605920,100077.39,+33,+109,+249
95295,8.881,2.143,4.175,-0.929897,0.482692,0.638379,100074.56,+34,+106,+250
95305,9.346,1.334,3.201,-0.845823,0.500251,0.715003,100074.56,+34,+106,+250
95315,9.598,0.786,2.551,-0.743126,0.531646,0.796948,100080.25,+35,+103,+250
95325,9.747,0.644,2.541,-0.660649,0.590710,0.892195,100080.25,+36,+99,+252
95335,9.831,0.701,2.938,-0.656392,0.642857,0.974672,100073.22,+38,+97,+252
95345,9.908,0.559,3.414,-0.676080,0.672123,1.051828,100077.83,+38,+97,+252
95355,10.062,-0.010,3.566,-0.704814,0.676380,1.137498,100077.20,+39,+95,+253
95365,10.297,-0.694,3.605,-0.788888,0.688618,1.200819,100077.20,+41,+92,+254
95375,10.386,-0.408,3.821,-0.910209,0.691279,1.250305,100079.52,+42,+88,+255
95385,10.221,0.770,4.700,-0.979915,0.668930,1.300323,100077.16,+42,+88,+255
95395,10.433,1.079,5.019,-0.916594,0.672123,1.384397,100076.05,+44,+85,+254
95406,10.745,0.429,4.954,-0.861254,0.696600,1.475388,100077.52,+46,+81,+256
95415,11.643,-0.442,4.082,-0.900631,0.646582,1.574360,100076.98,+47,+77,+256
95425,13.151,-0.802,3.346,-0.951713,0.596563,1.665883,100078.41,+47,+77,+256
95435,13.390,-0.704,2.614,-0.979915,0.605077,1.773369,100076.94,+48,+74,+257
95444,13.422,-0.154,2.110,-0.986300,0.623169,1.903736,100076.94,+49,+69,+257
95455,13.732,0.263,1.850,-0.901695,0.636472,2.066029,100077.94,+51,+65,+258
95465,13.941,0.508,1.981,-0.781970,0.647646,2.273020,100077.94,+52,+65,+258
95475,13.817,0.974,2.394,-0.714924,0.669462,2.478946,100080.70,+52,+63,+259
95480,13.829,1.310,2.745,-0.725034,0.676380,2.620488,100078.61,+53,+60,+259
95490,14.241,1.749,3.062,-0.791548,0.676912,2.745533,100076.56,+53,+60,+259
95500,14.900,2.119,3.226,-0.941071,0.683829,2.880689,100078.88,+55,+56,+260
95510,15.895,2.594,2.967,-1.193823,0.671059,2.989240,100078.88,+57,+52,+260
95520,17.347,4.424,2.914,-1.557254,0.595499,3.054157,100080.59,+58,+45,+260
95531,18.763,6.540,2.954,-2.006355,0.509297,3.047772,100077.59,+58,+45,+260
95540,19.830,6.874,1.504,-2.722574,0.459811,2.968488,100078.39,+59,+37,+261
95550,20.713,7.742,0.923,-3.900666,0.343279,2.795552,100077.28,+60,+23,+261
95560,20.998,11.001,1.766,-5.098444,0.166087,2.586965,100077.28,+60,+4,+261
95570,19.017,13.167,5.493,-5.350132,0.133628,2.638579,100080.49,+60,+4,+261
95580,17.952,9.149,9.547,-3.801693,0.252820,3.253698,100076.04,+62,-13,+257
95590,21.221,2.575,9.802,-1.405071,0.416178,4.133808,100074.99,+66,-21,+256
95600,21.792,-2.313,9.334,-0.284447,0.513022,4.641440,100075.98,+71,-23,+257
95610,19.365,-0.742,8.373,-0.111512,0.648710,4.392413,100075.98,+71,-23,+257
95621,16.362,5.125,7.625,0.427515,0.991389,3.703863,100076.31,+78,-23,+256
95630,11.651,8.201,6.338,1.026671,1.101535,3.075442,100077.83,+84,-19,+257
95640,9.038,1.758,6.386,1.395955,0.838673,2.649222,100078.09,+89,-15,+259
95650,7.977,-5.583,8.162,1.594964,0.784398,2.123497,100077.89,+89,-15,+259
95661,9.852,-2.789,3.498,0.817552,0.346472,1.374819,100077.89,+92,-10,+260
95670,7.803,0.922,1.197,0.081644,0.057536,0.437774,100080.24,+92,-9,+260
95680,5.311,3.232,0.832,-0.291365,-0.138812,-0.381675,100080.62,+90,-13,+261
95690,4.363,2.963,-0.012,-0.463768,-0.386775,-0.878134,100079.24,+90,-13,+261
95700,3.207,1.460,-0.400,-0.482924,-0.554922,-1.291051,100076.52,+87,-17,+262
95710,2.379,0.405,-0.584,-0.409493,-0.707106,-1.661932,100076.52,+82,-19,+261
95720,1.860,-0.103,-0.346,-0.296686,-0.857693,-2.072188,100078.69,+77,-23,+262
95730,1.616,-0.324,0.192,-0.136521,-0.988592,-2.516500,100077.27,+69,-25,+262
95740,2.007,-0.171,0.319,0.092818,-1.111509,-2.913454,100076.69,+69,-25,+262
95751,3.009,0.255,0.223,0.412616,-1.157803,-3.245490,100076.53,+62,-25,+263
95760,3.804,0.687,0.112,0.756359,-1.217931,-3.499307,100076.53,+53,-23,+264
95770,3.937,1.105,0.161,1.151185,-1.300940,-3.749398,100077.25,+45,-20,+266
95780,4.387,1.116,0.532,1.591239,-1.355215,-4.050040,100074.67,+45,-20,+266
95791,5.250,0.668,0.681,1.965313,-1.410555,-4.305985,100074.05,+37,-13,+267
95800,6.237,-0.010,1.166,2.202101,-1.477068,-4.553416,100073.36,+26,-3,+269
95810,7.138,-0.767,1.705,2.264358,-1.573912,-4.790737,100073.36,+17,+4,+270
95820,7.834,-1.206,2.074,2.229771,-1.675013,-5.013691,100074.63,+17,+4,+270
95831,8.358,-1.330,2.444,2.237753,-1.741527,-5.233984,100074.69,+8,+16,+271
95840,9.068,-1.530,2.720,2.344707,-1.794738,-5.441507,100069.28,+0,+27,+270
95850,10.297,-1.882,2.693,2.461771,-1.864444,-5.619764,100070.11,-8,+41,+267
95860,11.556,-2.512,2.287,2.481991,-1.971398,-5.751195,100070.11,-8,+41,+267
95870,12.826,-2.919,1.972,2.318633,-2.146462,-5.880498,100076.76,-16,+55,+267
95881,14.900,-3.308,2.205,2.056835,-2.304499,-5.981067,100072.88,-24,+69,+265
95890,16.205,-3.231,3.238,1.830689,-2.380059,-6.028956,100075.66,-29,+83,+261
95900,16.456,-2.665,4.959,1.572083,-2.475838,-6.100259,100073.20,-29,+83,+261
95910,17.616,-3.186,7.060,1.326249,-2.565233,-6.221580,100073.20,-34,+95,+257
95921,19.356,-4.555,8.356,1.273038,-2.588114,-6.322149,100073.44,-40,+108,+254
95930,20.492,-6.115,8.991,1.211845,-2.545545,-6.298736,100074.70,-42,+119,+248
95940,20.292,-6.952,9.615,1.016029,-2.477435,-6.135911,100075.33,-42,+119,+248
95950,18.996,-5.872,10.426,0.861185,-2.250756,-5.948076,100076.27,-44,+131,+244
95961,17.342,-5.186,11.715,0.805845,-1.820279,-5.704902,100076.27,-42,+142,+241
95970,16.738,-7.264,12.316,0.670157,-1.332867,-5.358498,100077.15,-40,+152,+238
95980,16.623,-10.811,10.678,0.182213,-0.919417,-4.892902,100075.68,-40,+152,+238
95990,15.846,-14.271,8.527,-0.442484,-0.629950,-4.310242,100077.62,-35,+158,+237
96001,14.074,-17.326,6.988,-0.969805,-0.500647,-3.559967,100074.99,-31,+160,+238
96010,10.938,-18.137,7.651,-1.162961,-0.383583,-2.537252,100074.99,-30,+159,+238
96020,9.087,-17.759,9.036,-0.992153,-0.188299,-1.288923,100075.63,-30,+159,+238
96030,8.630,-15.488,9.716,-0.480264,0.091591,0.071682,100080.95,-28,+158,+239
96040,8.742,-13.010,9.454,0.400910,0.468857,1.336507,100078.48,-28,+157,+239
96051,9.072,-12.627,9.171,1.238451,0.830692,2.381038,100076.70,-29,+157,+238
96060,11.253,-5.271,7.576,1.577937,1.028636,2.997221,100076.70,-29,+157,+238
96070,14.378,13.988,1.389,1.007515,0.930728,2.537479,100077.95,-30,+159,+238
96080,15.664,32.700,-9.064,-0.328081,0.548673,0.946470,100079.99,-30,+158,+238
96091,8.137,1.007,-4.704,-0.385016,0.959462,1.023626,100077.59,-28,+156,+240
96100,14.799,-12.647,6.005,1.478432,1.453260,2.408176,100075.32,-28,+156,+240
96110,25.952,-2.885,2.550,0.370048,0.890820,3.024359,100075.32,-28,+158,+239
96120,23.140,0.985,-0.031,-0.910209,0.806747,2.417754,100077.02,-30,+152,+241
96131,15.689,1.670,3.965,-0.057769,1.280856,2.779588,100077.54,-30,+149,+243
96141,12.832,1.761,5.160,0.733478,1.481994,3.171753,100080.27,-30,+149,+243
96150,7.976,-0.578,5.508,1.140543,1.613425,2.832268,100077.65,-29,+147,+244
96160,7.841,-1.233,5.482,1.182579,1.618214,2.580580,100077.65,-27,+148,+243
96171,7.738,-1.536,7.182,0.984102,1.548508,2.344323,100078.24,-24,+150,+244
96181,8.266,-1.038,9.390,0.967075,1.577774,2.086782,100077.93,-22,+150,+244
96190,12.091,-1.590,5.198,0.854267,1.401645,1.927681,100073.88,-22,+151,+244
96200,13.198,-5.023,2.691,0.345038,1.156875,1.800507,100076.40,-21,+151,+244
96210,11.331,-4.213,3.871,-0.216870,0.977022,1.661626,100076.40,-20,+148,+246
96221,11.378,-2.391,3.035,-0.681401,0.732251,1.487094,100079.22,-19,+144,+248
96230,11.105,-2.360,2.478,-1.043236,0.564105,1.333846,100079.11,-19,+144,+248
96240,10.788,-1.010,2.418,-1.290135,0.458215,1.174746,100077.33,-19,+138,+249
96250,10.483,0.595,2.539,-1.425823,0.378398,1.016709,100078.38,-19,+132,+251
96261,9.939,2.055,2.258,-1.263529,0.373609,0.885810,100078.38,-20,+128,+253
96271,9.656,2.489,2.211,-0.843695,0.462472,0.816104,100077.52,-20,+128,+253
96280,9.713,1.927,2.460,-0.419071,0.572086,0.786838,100078.05,-19,+126,+254
96290,9.602,1.357,2.860,-0.184411,0.615187,0.759168,100078.01,-17,+124,+255
96301,9.378,0.810,2.961,-0.146631,0.596563,0.716599,100074.85,-16,+122,+256
96311,9.335,0.434,2.997,-0.230704,0.544417,0.649021,100074.85,-16,+122,+256
96320,9.224,0.407,3.224,-0.379163,0.485884,0.572397,100078.94,-14,+120,+256
96330,8.886,0.773,3.697,-0.594667,0.423628,0.495241,100079.09,-14,+118,+257
96340,8.745,1.399,3.995,-0.842631,0.346472,0.431388,100077.20,-13,+115,+258
96351,8.911,1.882,3.675,-1.015566,0.280490,0.398930,100077.73,-13,+115,+258
96360,9.028,2.186,2.762,-0.992153,0.285811,0.402122,100077.73,-12,+111,+261
96370,8.996,2.352,1.990,-0.759089,0.372013,0.463315,100076.84,-11,+108,+261
96380,8.989,2.125,1.645,-0.436099,0.464600,0.599003,100078.72,-11,+107,+261
96391,9.409,0.899,2.338,-0.185475,0.551866,0.727241,100076.52,-11,+107,+261
96401,9.650,0.014,3.373,-0.221126,0.571022,0.756507,100076.42,-10,+105,+262
96410,9.276,0.095,4.166,-0.455255,0.535371,0.703296,100076.42,-8,+103,+262
96420,8.728,0.717,4.273,-0.675016,0.482160,0.642636,100077.96,-7,+100,+264
96431,8.694,1.251,3.946,-0.751108,0.440655,0.638379,100078.45,-7,+100,+264
96441,9.072,1.154,3.568,-0.686722,0.439059,0.681480,100076.80,-5,+95,+264
96450,9.447,0.917,3.364,-0.629255,0.474178,0.729370,100075.49,-5,+93,+265
96460,9.534,1.002,3.288,-0.634044,0.507701,0.778324,100075.49,-3,+91,+266
96471,9.635,1.208,3.151,-0.655860,0.540160,0.835260,100079.63,-3,+91,+266
96481,9.580,1.263,3.104,-0.653199,0.565701,0.917737,100079.00,-1,+88,+267
96491,9.491,1.571,3.297,-0.645750,0.594435,1.031608,100079.31,+0,+85,+267
96500,9.323,1.805,3.655,-0.609567,0.633279,1.157186,100077.42,+1,+82,+269
96510,10.087,0.978,3.894,-0.565934,0.657224,1.276911,100077.42,+1,+82,+269
96521,10.649,0.419,3.906,-0.613291,0.672123,1.360984,100081.09,+3,+78,+270
96531,10.765,0.225,3.983,-0.715456,0.657224,1.416323,100077.73,+5,+75,+269
96536,10.714,0.148,3.880,-0.777181,0.650838,1.469002,100075.10,+5,+75,+269
96545,10.783,0.176,3.642,-0.818154,0.654031,1.531791,100075.10,+6,+71,+271
96556,11.416,0.020,3.077,-0.829860,0.630086,1.637681,100074.84,+8,+67,+271
96566,12.025,0.140,2.863,-0.798465,0.613591,1.766452,100074.84,+10,+63,+272
96576,12.367,0.160,2.769,-0.729291,0.627426,1.892562,100078.95,+10,+63,+272
96585,12.525,-0.035,2.469,-0.648411,0.632215,2.031442,100076.95,+12,+59,+272
96595,12.710,0.072,2.524,-0.595732,0.635939,2.181497,100076.80,+14,+56,+272
96606,12.767,0.048,2.800,-0.570190,0.638600,2.327295,100076.80,+15,+51,+273
96616,12.978,0.139,3.174,-0.586686,0.626894,2.462451,100076.80,+15,+51,+273
96625,13.611,0.278,3.277,-0.639897,0.615719,2.586433,100077.05,+17,+49,+274
96635,13.864,0.626,3.254,-0.758557,0.621572,2.676891,100078.09,+20,+45,+274
96646,13.932,1.299,3.169,-0.913933,0.626361,2.779588,100076.00,+22,+40,+274
96656,14.326,1.826,2.588,-1.107621,0.627426,2.899313,100078.05,+22,+40,+274
96665,15.531,2.551,2.435,-1.375805,0.566233,3.006799,100078.05,+25,+34,+274
96675,17.402,4.505,2.782,-1.670061,0.381059,3.111625,100076.83,+27,+27,+274
96686,19.070,5.929,2.111,-2.173969,0.291664,3.103643,100078.81,+29,+18,+273
96696,20.014,6.914,0.492,-3.042372,0.336894,2.946139,100074.75,+29,+18,+273
96706,20.405,8.633,-0.634,-4.131069,0.211316,2.785442,100074.75,+31,+5,+272
96716,20.166,11.846,0.312,-4.857399,0.140545,2.691790,100079.80,+33,-13,+269
96726,18.513,11.019,5.100,-4.180023,0.271444,2.872176,100076.48,+36,-29,+266
96736,19.687,3.452,7.585,-2.193657,0.329976,3.579350,100076.48,+36,-29,+266
96746,21.499,-1.683,9.849,-0.965548,0.150123,4.312065,100077.33,+40,-35,+266
96755,21.059,-0.301,10.926,-0.005622,0.232600,4.453074,100076.64,+46,-36,+265
96765,19.719,3.238,8.603,0.931955,0.582728,4.300890,100076.64,+53,-33,+266
96772,17.291,4.848,7.797,1.626891,0.936049,4.023129,100078.42,+53,-33,+266
96781,13.933,6.495,6.763,1.772689,0.891884,3.669808,100078.38,+60,-26,+267
96791,9.066,2.795,5.823,1.751405,0.535371,3.071717,100079.38,+65,-19,+267
96800,6.571,-3.285,7.027,1.957863,0.487481,2.375717,100074.80,+65,-19,+267
96811,8.177,-2.532,5.689,1.627423,0.130967,1.717497,100074.80,+68,-11,+269
96821,8.653,-0.011,2.312,1.016561,-0.232464,1.051296,100079.97,+67,-7,+269
96831,6.491,2.240,1.202,0.682396,-0.393693,0.292508,100081.91,+65,-4,+269
96840,5.094,2.646,0.392,0.452525,-0.584720,-0.263015,100079.33,+65,-4,+269
96850,3.558,1.579,0.016,0.341846,-0.833748,-0.630171,100078.13,+62,-3,+270
96861,2.102,0.455,0.258,0.346103,-1.047656,-0.943051,100078.13,+58,-1,+269
96871,1.753,-0.243,0.573,0.454121,-1.228573,-1.295840,100085.34,+52,+0,+270
96881,2.042,-0.570,0.981,0.558946,-1.389802,-1.736959,100079.68,+52,+0,+270
96890,2.095,-0.435,1.213,0.598323,-1.548903,-2.192445,100081.82,+45,+2,+270
96901,2.131,0.207,1.317,0.639295,-1.697362,-2.586206,100077.15,+38,+5,+271
96911,2.594,0.774,1.291,0.765405,-1.803252,-2.929417,100077.15,+30,+9,+271
96921,3.400,0.679,1.448,0.941533,-1.870830,-3.242830,100081.40,+30,+9,+271
96930,3.918,0.135,1.784,1.093185,-1.935747,-3.535490,100076.57,+21,+15,+270
96941,4.110,-0.132,1.966,1.150120,-2.012903,-3.821765,100076.51,+12,+21,+269
96951,4.452,-0.193,2.064,1.155974,-2.069839,-4.108572,100072.63,+3,+28,+269
96961,5.131,-0.205,2.265,1.208652,-2.084206,-4.401233,100072.63,+3,+28,+269
96970,6.035,-0.450,2.487,1.192689,-2.075160,-4.669948,100075.86,-3,+35,+267
96980,6.807,-0.493,2.719,1.140543,-2.091123,-4.922168,100071.97,-12,+45,+266
96991,7.599,-0.232,2.979,1.126708,-2.086334,-5.170131,100071.59,-19,+53,+264
97001,8.520,-0.295,3.264,1.144799,-2.047490,-5.395214,100072.39,-19,+53,+264
97010,9.476,-0.715,3.431,1.160231,-2.001197,-5.606993,100072.39,-25,+63,+261
97020,10.550,-1.127,3.412,1.175662,-1.977252,-5.818241,100074.91,-30,+75,+259
97031,11.967,-1.401,3.388,1.201203,-1.951710,-5.998094,100075.16,-33,+87,+256
97041,13.486,-1.608,3.545,1.253350,-1.928830,-6.119947,100073.49,-33,+87,+256
97051,14.850,-1.827,3.966,1.329441,-1.938940,-6.210938,100072.87,-35,+99,+254
97060,16.564,-2.454,4.633,1.370414,-1.995343,-6.284901,100072.87,-37,+112,+250
97071,18.409,-3.764,5.710,1.261863,-2.106022,-6.327470,100075.77,-37,+124,+246
97081,19.764,-5.468,6.935,0.978249,-2.252352,-6.335452,100071.61,-37,+124,+246
97091,20.778,-7.075,8.086,0.583956,-2.344407,-6.273195,100072.88,-37,+136,+243
97100,21.305,-7.991,9.132,0.165717,-2.309288,-6.117819,100074.34,-37,+144,+239
97111,20.217,-8.199,10.227,-0.158870,-2.108150,-5.879966,100074.34,-34,+152,+236
97121,17.614,-8.171,11.545,-0.346172,-1.742591,-5.544204,100074.48,-32,+158,+235
97131,15.354,-8.156,12.813,-0.433438,-1.276463,-5.106278,100073.90,-32,+158,+235
97141,14.344,-9.597,13.070,-0.546778,-0.803950,-4.602902,100072.21,-26,+162,+234
97150,13.582,-13.327,10.793,-0.829860,-0.445308,-4.020774,100074.26,-21,+163,+236
97161,12.760,-17.748,8.398,-1.176263,-0.218097,-3.269967,100074.26,-16,+162,+236
97171,11.248,-19.802,7.406,-1.343346,-0.077620,-2.238739,100079.69,-16,+162,+236
97181,9.949,-19.454,7.999,-1.288539,0.066050,-1.048941,100076.17,-14,+160,+238
97190,10.157,-17.269,9.189,-1.020887,0.282619,0.204710,100075.80,-13,+156,+240
97201,11.906,-11.886,9.066,-0.372246,0.567829,1.246580,100076.48,-13,+154,+242
97211,11.824,-6.943,9.066,0.671222,0.921682,2.170855,100076.48,-13,+154,+242
97221,17.439,20.628,-4.849,0.870763,0.523132,2.103277,100079.16,-14,+155,+241
97230,15.025,23.989,-10.620,-0.005622,0.526857,1.109296,100081.42,-14,+154,+241
97241,7.745,-1.001,-0.016,2.108982,1.427187,2.100084,100080.31,-11,+160,+239
97251,19.331,-6.189,2.129,3.110945,1.580434,3.299460,100076.02,-11,+160,+239
97261,24.235,-9.506,-1.594,1.121919,1.132398,3.149405,100076.02,-12,+165,+237
97271,18.211,-6.485,0.646,-0.093952,1.159535,2.803001,100080.51,-12,+161,+238
97281,16.643,0.002,4.840,-0.113640,1.302141,2.999350,100077.35,-12,+159,+239
97291,12.069,3.110,7.882,0.249791,1.421866,2.873772,100077.93,-12,+159,+239
97301,7.455,2.418,10.374,0.721240,1.600122,2.675295,100074.88,-12,+158,+239
97311,8.027,1.385,8.135,1.160231,1.678875,2.653479,100074.88,-9,+158,+239
97320,8.918,-1.713,4.821,1.132029,1.524563,2.649754,100079.49,-8,+160,+239
97331,8.839,-2.302,5.545,0.854800,1.383554,2.553974,100076.71,-8,+160,+239
97341,9.398,-2.364,5.608,0.469552,1.139315,2.344855,100073.20,-8,+160,+239
97351,10.940,-3.961,3.607,-0.112044,0.810471,2.158084,100078.54,-8,+159,+240
97360,11.576,-3.260,2.113,-0.621805,0.576875,1.995259,100078.54,-9,+155,+242
97371,11.048,-0.802,2.400,-0.908080,0.483756,1.789864,100077.52,-9,+155,+242
97381,10.177,0.642,2.070,-0.832520,0.484288,1.558397,100077.30,-11,+151,+243
97391,9.821,1.381,1.701,-0.419071,0.596031,1.389186,100076.68,-10,+148,+245
97401,9.686,1.089,2.080,0.015662,0.725866,1.332250,100074.95,-10,+146,+246
97411,9.713,-0.271,2.840,0.188598,0.767903,1.271590,100074.95,-10,+146,+246
97421,9.746,-0.963,3.029,0.136451,0.717352,1.140690,100078.02,-8,+146,+245
97431,9.938,-0.903,2.946,0.015130,0.662013,0.967223,100077.02,-8,+145,+246
97441,9.641,-0.697,3.005,-0.155145,0.609866,0.815571,100079.34,-7,+144,+247
97451,9.277,-0.485,3.147,-0.382356,0.545481,0.701700,100074.40,-7,+144,+247
97461,9.060,0.296,3.820,-0.590411,0.480031,0.609113,100074.40,-6,+142,+248
97471,8.917,1.094,4.012,-0.758557,0.423096,0.545260,100078.95,-5,+139,+249
97481,9.033,1.381,3.340,-0.838906,0.391169,0.511737,100077.80,-5,+136,+251
97491,9.267,1.234,2.400,-0.759089,0.404472,0.523443,100077.17,-5,+136,+251
97501,9.504,0.886,1.737,-0.579236,0.467261,0.564416,100077.22,-4,+132,+252
97511,9.687,0.455,1.724,-0.373842,0.540160,0.624012,100077.22,-2,+130,+252
97521,9.850,0.116,2.733,-0.307860,0.583793,0.669241,100080.47,-1,+129,+253
97531,9.487,-0.048,3.873,-0.456319,0.579536,0.653810,100078.06,-1,+129,+253
97541,9.052,0.357,4.327,-0.706943,0.527389,0.611241,100075.64,+0,+126,+255
97551,8.766,1.040,4.257,-0.852741,0.473646,0.595278,100075.28,+1,+124,+256
97561,8.897,1.100,4.002,-0.853273,0.449169,0.634654,100075.28,+1,+120,+257
97571,9.213,0.949,3.533,-0.778245,0.448105,0.696379,100075.18,+1,+117,+257
97581,9.450,0.618,3.345,-0.702686,0.480031,0.760764,100076.07,+1,+117,+257
97592,9.564,0.409,3.527,-0.700912,0.505750,0.810960,100073.66,+3,+115,+259
97601,9.584,0.608,3.419,-0.737273,0.528985,0.841645,100075.87,+3,+111,+260
97611,9.565,0.624,3.654,-0.765475,0.553995,0.880489,100075.87,+5,+108,+261
97622,9.826,0.767,3.701,-0.729823,0.573683,0.932636,100077.16,+5,+108,+261
97631,10.012,0.627,3.956,-0.671291,0.604545,0.992764,100080.01,+6,+105,+262
97641,10.180,-0.374,3.874,-0.646282,0.624765,1.043846,100076.12,+8,+101,+262
97651,10.335,-0.881,3.965,-0.734612,0.632747,1.055553,100074.23,+9,+99,+263
97661,10.536,-0.736,4.246,-0.856465,0.624765,1.053424,100074.23,+9,+99,+263
97671,10.476,-0.194,4.578,-0.963952,0.631150,1.069388,100076.80,+10,+95,+264
97681,10.933,0.127,3.844,-1.022484,0.618912,1.118342,100075.58,+12,+89,+266
97691,11.688,0.103,3.153,-1.001199,0.606141,1.222103,100076.84,+14,+85,+266
97701,11.417,0.103,2.846,-0.952245,0.636472,1.357259,100076.84,+14,+85,+266
97711,11.779,-0.084,2.614,-0.898502,0.663077,1.505718,100076.84,+15,+82,+267
97721,12.335,-0.178,2.505,-0.842631,0.671591,1.668543,100079.63,+17,+77,+268
97731,12.240,0.439,2.731,-0.804851,0.681169,1.837222,100077.38,+18,+74,+268
97741,12.370,0.779,3.045,-0.756429,0.692343,2.020800,100077.63,+18,+74,+268
97752,12.762,0.560,2.985,-0.729823,0.710967,2.206506,100076.65,+19,+69,+269
97761,13.179,0.861,2.952,-0.761750,0.720545,2.389552,100076.65,+23,+66,+269
97771,13.179,1.711,3.353,-0.814429,0.723738,2.568341,100078.89,+24,+61,+269
97781,13.500,2.435,3.672,-0.826667,0.735444,2.749258,100074.84,+24,+61,+269
97792,14.273,2.875,3.825,-0.886264,0.762049,2.908359,100075.89,+27,+58,+271
97801,15.508,3.311,3.699,-1.060264,0.759389,3.044047,100075.38,+30,+53,+271
97811,17.278,4.484,3.782,-1.332172,0.724270,3.131845,100075.38,+31,+46,+271
97821,18.885,5.954,3.212,-1.759456,0.701921,3.150469,100079.56,+31,+46,+271
97831,19.916,6.276,1.730,-2.501749,0.693407,3.029680,100076.61,+35,+38,+272
97841,21.615,7.357,0.613,-3.630354,0.541756,2.811515,100078.03,+37,+25,+271
97851,21.578,11.635,1.633,-4.641362,0.278894,2.656671,100076.20,+39,+7,+269
97861,18.565,11.746,4.600,-4.588683,0.170343,2.876965,100076.20,+39,+7,+269
97871,17.972,4.527,6.803,-3.096648,0.247499,3.489423,100075.88,+40,-8,+267
97882,21.029,-1.371,7.761,-1.402942,0.372545,4.035900,100076.88,+45,-14,+266
97891,21.896,-2.705,8.064,-0.789420,0.306563,4.152431,100073.98,+49,-17,+265
97901,19.470,1.368,8.167,-0.648411,0.309224,3.946505,100074.67,+49,-17,+265
97911,16.054,6.838,6.332,-0.261567,0.498123,3.475588,100074.67,+55,-19,+264
97922,10.937,8.583,4.303,0.372708,0.575811,2.881222,100078.09,+59,-18,+264
97931,9.044,3.324,5.008,1.201735,0.498123,2.583240,100075.77,+64,-13,+264
97941,6.857,-6.822,8.307,1.860487,0.484288,2.273020,100075.04,+64,-13,+264
97951,8.753,-2.795,3.643,1.456616,0.031463,1.561589,100075.41,+66,-5,+265
97961,8.000,0.898,0.732,0.938873,-0.213840,0.554838,100075.41,+66,-1,+266
97972,5.635,3.397,0.549,0.816488,-0.335161,-0.268336,100079.61,+65,+1,+266
97981,5.059,2.526,-0.147,0.801589,-0.590041,-0.668483,100077.45,+65,+1,+266
97991,4.013,0.344,-0.347,0.880873,-0.797564,-1.065437,100078.50,+62,+4,+267
98001,3.251,-0.937,-0.295,0.954836,-0.999766,-1.452280,100075.78,+58,+7,+266
98011,2.862,-1.014,0.115,1.022946,-1.180151,-1.874776,100075.78,+53,+11,+267
98021,2.850,-0.601,0.292,1.102763,-1.338188,-2.317491,100076.39,+48,+16,+267
98031,3.074,-0.132,0.180,1.202799,-1.476004,-2.726683,100075.88,+48,+16,+267
98041,3.557,0.150,-0.054,1.296983,-1.569656,-3.097032,100078.70,+41,+21,+267
98052,4.390,0.133,-0.277,1.384781,-1.655857,-3.418426,100072.94,+34,+27,+267
98062,5.227,-0.230,-0.150,1.438524,-1.761747,-3.735031,100072.94,+28,+34,+268
98071,5.928,-0.688,0.338,1.408194,-1.879875,-3.995233,100072.34,+28,+34,+268
98081,6.572,-1.182,0.751,1.359772,-2.024077,-4.265544,100072.86,+19,+41,+267
98092,6.857,-1.416,1.243,1.261331,-2.151783,-4.557141,100070.92,+12,+47,+266
98101,7.313,-1.222,1.563,1.223019,-2.247031,-4.830645,100066.36,+5,+55,+266
98111,8.024,-1.257,1.804,1.274102,-2.298646,-5.088186,100066.36,+5,+55,+266
98121,8.772,-1.699,1.961,1.267717,-2.359838,-5.350516,100068.53,-1,+65,+262
98131,9.560,-2.260,1.879,1.136286,-2.452425,-5.612846,100065.86,-8,+73,+261
98142,10.532,-2.534,1.740,0.929827,-2.542884,-5.876241,100068.80,-14,+81,+259
98151,11.815,-2.377,1.674,0.743589,-2.625361,-6.122076,100066.33,-14,+81,+259
98161,13.540,-2.322,1.956,0.653662,-2.646114,-6.312039,100066.33,-19,+90,+256
98171,14.753,-3.053,2.962,0.538194,-2.612058,-6.434956,100071.72,-24,+98,+253
98182,15.368,-3.570,4.238,0.434433,-2.607802,-6.534461,100068.63,-28,+108,+250
98191,16.589,-3.849,5.634,0.485515,-2.581196,-6.631305,100069.00,-28,+108,+250
98201,18.445,-4.869,6.978,0.647277,-2.537031,-6.638222,100069.89,-30,+117,+246
98211,19.820,-6.370,7.602,0.754231,-2.502444,-6.529140,100069.89,-31,+126,+242
98222,20.570,-7.366,8.022,0.764341,-2.425288,-6.308846,100073.05,-32,+137,+238
98231,20.764,-7.714,8.646,0.754231,-2.236389,-5.980002,100071.95,-32,+137,+238
98241,19.314,-7.896,9.718,0.794671,-1.926701,-5.570278,100070.69,-30,+146,+234
98251,17.260,-8.557,11.214,0.887790,-1.525490,-5.084462,100071.58,-28,+155,+232
98262,15.974,-10.451,12.439,0.881937,-1.108848,-4.513508,100071.58,-24,+162,+229
98272,14.333,-13.490,11.995,0.662708,-0.765638,-3.858481,100075.54,-24,+162,+229
98281,12.350,-16.949,11.126,0.324286,-0.478830,-3.124701,100075.85,-19,+168,+227
98291,10.964,-19.826,10.019,-0.048723,-0.295785,-2.205216,100077.38,-16,+170,+226
98301,9.928,-20.356,10.376,-0.328081,-0.117528,-1.117583,100076.16,-16,+170,+226
98312,9.250,-18.591,11.611,-0.422796,0.106490,0.030177,100076.16,-16,+170,+226
98321,9.033,-15.734,12.442,-0.307860,0.387976,1.090140,100076.99,-15,+168,+227
98331,9.767,-11.268,12.353,-0.089163,0.715756,1.939387,100074.63,-16,+166,+228
98341,11.669,-2.392,9.091,0.056103,0.941903,2.349112,100074.59,-17,+163,+229
98352,16.229,20.985,-4.617,-0.055108,0.489077,1.914910,100076.01,-17,+163,+229
98361,15.532,27.206,-9.775,-1.132098,0.394362,0.779388,100076.01,-17,+161,+230
98371,8.404,0.133,-1.507,0.454653,1.189334,1.467406,100078.62,-16,+158,+232
98381,15.417,-9.929,4.874,2.177092,1.484122,2.761497,100077.10,-15,+162,+229
98392,21.671,-4.688,2.649,0.810634,1.039811,2.996157,100075.57,-15,+162,+229
98402,17.760,0.329,0.650,-0.028503,1.023847,2.306543,100076.77,-17,+161,+229
98411,15.605,0.932,3.240,0.619607,1.340453,2.625809,100076.77,-16,+159,+230
98421,13.843,-0.394,3.702,1.187368,1.546911,2.896121,100078.98,-15,+160,+231
98432,9.723,-1.693,3.501,1.263460,1.605443,2.584836,100076.25,-15,+160,+231
98442,8.766,-0.704,3.877,1.146928,1.605976,2.370928,100076.98,-14,+162,+230
98451,7.653,-0.247,6.023,0.991020,1.579902,2.190011,100075.05,-12,+162,+229
98461,7.491,-0.515,8.786,0.978249,1.637370,2.005369,100075.05,-10,+164,+229
98471,10.619,-1.456,6.414,0.910671,1.545315,1.884048,100076.55,-8,+166,+229
98482,12.443,-2.580,2.931,0.554690,1.300545,1.786672,100078.06,-8,+166,+229
98492,10.599,-1.885,4.310,0.117295,1.145169,1.672800,100079.06,-7,+163,+230
98501,10.373,-0.487,3.149,-0.070539,0.931260,1.548819,100076.23,-7,+162,+231
98511,10.795,-1.249,2.587,-0.260503,0.776949,1.490287,100076.23,-6,+160,+231
98522,10.800,-1.085,1.874,-0.417475,0.679572,1.407277,100079.30,-6,+160,+231
98532,10.693,-0.205,1.922,-0.492325,0.665738,1.253320,100078.14,-6,+158,+233
98541,10.502,0.163,1.539,-0.408429,0.696068,1.125791,100076.67,-6,+154,+234
98551,10.242,0.276,1.789,-0.248796,0.770031,1.040654,100079.92,-5,+154,+234
98562,9.902,0.139,2.549,-0.154081,0.798233,0.967223,100079.92,-5,+154,+234
98572,9.546,-0.090,2.846,-0.121090,0.778013,0.882617,100079.87,-3,+152,+236
98581,9.349,-0.153,2.717,-0.148759,0.754600,0.778324,100078.13,-1,+151,+237
98591,9.385,-0.296,2.815,-0.249860,0.716820,0.676691,100078.45,-1,+150,+237
98601,9.383,-0.150,3.064,-0.423860,0.662545,0.589957,100075.13,-1,+150,+237
98612,9.181,0.276,3.016,-0.645750,0.605609,0.510673,100075.13,+0,+148,+239
98622,9.111,0.863,3.262,-0.824007,0.564637,0.455333,100080.79,+0,+144,+239
98631,9.069,1.511,3.328,-0.856465,0.531114,0.453205,100078.80,+1,+141,+242
98641,9.149,1.893,2.967,-0.720245,0.549738,0.474489,100077.65,+1,+141,+242
98652,9.135,1.253,2.286,-0.495163,0.607206,0.528232,100075.45,+3,+140,+244
98662,9.298,0.278,2.144,-0.317970,0.659352,0.604856,100075.45,+4,+138,+244
98671,9.520,-0.097,2.962,-0.300411,0.677976,0.624012,100078.96,+6,+136,+244
98681,9.322,0.238,3.704,-0.418539,0.649242,0.594746,100077.55,+6,+136,+244
98692,9.048,0.699,4.124,-0.545713,0.614123,0.580911,100074.98,+7,+134,+245
98702,8.909,1.179,4.293,-0.613291,0.589646,0.593150,100073.55,+8,+132,+246
98711,9.163,1.055,3.736,-0.627658,0.557719,0.628269,100073.55,+8,+130,+247
98721,9.537,0.401,3.277,-0.607438,0.575279,0.676691,100074.96,+8,+130,+247
98732,9.698,0.311,3.279,-0.656924,0.596563,0.710746,100076.70,+10,+127,+248
98742,9.798,0.434,3.352,-0.720245,0.605609,0.748526,100075.27,+11,+124,+250
98752,9.880,0.291,3.240,-0.775585,0.618380,0.801205,100075.27,+13,+121,+251
98761,9.912,0.233,3.127,-0.858594,0.642857,0.866654,100075.27,+13,+121,+251
98767,10.051,0.215,3.475,-0.948520,0.663609,0.913480,100078.18,+14,+118,+253
98777,9.912,0.604,3.825,-1.029933,0.675316,0.951792,100078.18,+15,+114,+253
98787,9.657,0.721,3.900,-1.062924,0.684361,1.023094,100077.93,+15,+114,+253
98797,9.987,0.266,3.715,-1.035254,0.689683,1.107168,100074.20,+17,+109,+254
98806,10.177,0.473,4.426,-1.052282,0.709903,1.185388,100076.31,+18,+105,+256
98817,10.483,0.537,4.577,-1.065053,0.716820,1.250837,100075.67,+19,+101,+256
98827,10.891,0.286,4.476,-1.074098,0.749279,1.317351,100074.53,+19,+101,+256
98837,11.596,-0.150,3.320,-1.050686,0.715756,1.407277,100074.94,+21,+97,+257
98846,11.985,-0.026,2.974,-0.992153,0.697664,1.545094,100074.94,+23,+93,+259
98856,12.155,-0.152,2.567,-0.888392,0.706710,1.696745,100076.52,+24,+88,+259
98867,12.615,-0.548,2.193,-0.808043,0.720013,1.850525,100076.52,+24,+88,+259
98877,13.021,-0.743,2.171,-0.748447,0.720545,2.008029,100077.50,+26,+85,+259
98886,12.924,0.175,2.533,-0.708007,0.715224,2.165002,100077.72,+27,+81,+260
98896,12.731,1.179,3.121,-0.603181,0.724802,2.337405,100075.14,+28,+78,+261
98907,13.115,1.268,3.569,-0.495163,0.741297,2.521515,100074.88,+28,+78,+261
98917,14.154,1.049,3.727,-0.521236,0.762049,2.665185,100074.88,+31,+76,+261
98927,14.909,1.411,3.509,-0.687255,0.794508,2.747662,100077.94,+32,+73,+261
98936,15.117,2.559,3.645,-0.877750,0.767903,2.835460,100074.44,+33,+69,+261
98947,15.551,4.399,3.897,-1.034722,0.697132,2.963166,100075.81,+33,+69,+261
98957,16.545,5.443,3.675,-1.322062,0.693939,3.037662,100075.81,+35,+63,+262
98967,18.179,5.477,2.881,-1.906318,0.693407,2.992432,100075.81,+37,+57,+262
98976,20.096,6.383,1.721,-2.841767,0.517811,2.847167,100077.27,+38,+45,+262
98987,21.600,8.553,1.540,-3.953876,0.297518,2.642304,100077.85,+38,+45,+262
98997,21.135,11.020,2.840,-4.703087,0.252820,2.514066,100074.18,+40,+30,+261
99002,18.368,10.997,5.726,-4.485986,0.335830,2.663057,100075.38,+41,+13,+260
99011,16.988,7.287,7.579,-3.122189,0.430013,3.147809,100075.38,+41,+13,+260
99021,19.029,0.849,6.829,-0.912337,0.635939,3.800175,100076.30,+45,+6,+258
99032,19.896,-3.746,6.492,0.067277,0.787059,4.080597,100075.30,+50,+7,+258
99042,18.226,-3.192,7.062,0.013002,0.748215,3.841147,100073.72,+54,+7,+257
99052,15.245,1.185,6.132,-0.134393,0.802490,3.326597,100076.30,+54,+7,+257
99061,10.983,4.622,4.596,0.026305,0.787591,2.748194,100076.30,+59,+5,+256
99072,9.602,3.359,3.881,0.462635,0.551334,2.252800,100077.63,+62,+8,+256
99082,6.612,-3.903,7.805,1.066579,0.666802,1.921296,100075.21,+65,+13,+255
99092,7.803,0.180,3.894,0.827662,0.301242,1.447718,100074.59,+65,+13,+255
99101,6.471,3.553,0.784,0.546708,0.109683,0.587829,100075.63,+66,+15,+254
99111,4.766,4.624,0.488,0.464763,-0.040372,-0.162446,100075.63,+67,+17,+254
99118,4.700,3.462,-0.092,0.446671,-0.245234,-0.435951,100079.41,+67,+17,+254
99127,4.538,1.747,-0.796,0.499350,-0.422427,-0.694024,100079.41,+65,+19,+253
99137,4.038,0.117,-1.157,0.588213,-0.601748,-1.064372,100078.21,+64,+21,+252
99147,3.636,-0.498,-0.747,0.668029,-0.756592,-1.442170,100075.52,+62,+25,+251
99156,3.566,-0.576,-0.125,0.716983,-0.928995,-1.846574,100075.63,+62,+25,+251
99167,3.786,-0.454,0.352,0.752102,-1.096610,-2.250977,100076.28,+59,+28,+250
99177,4.202,-0.315,0.486,0.812763,-1.231766,-2.629307,100073.70,+55,+30,+249
99187,4.560,-0.222,0.538,0.923442,-1.349362,-2.962940,100072.08,+51,+33,+249
99196,5.055,-0.032,0.544,1.078286,-1.454188,-3.246554,100072.08,+51,+33,+249
99207,5.503,0.111,0.798,1.252818,-1.521234,-3.503563,100072.23,+46,+39,+248
99217,5.660,-0.283,1.132,1.320928,-1.568591,-3.752591,100072.23,+42,+44,+247
99227,6.078,-0.717,1.383,1.261863,-1.690977,-4.002150,100068.47,+39,+49,+245
99236,6.616,-0.587,1.729,1.245900,-1.820279,-4.285765,100069.42,+39,+49,+245
99247,7.324,-0.578,2.271,1.254414,-1.916591,-4.555544,100069.31,+35,+55,+243
99257,7.982,-1.128,2.757,1.221423,-1.998536,-4.796590,100066.31,+31,+59,+241
99267,8.510,-1.433,3.025,1.121919,-2.075692,-5.045085,100066.31,+28,+63,+240
99277,9.166,-1.452,3.005,0.987295,-2.134756,-5.295709,100070.41,+28,+63,+240
99287,10.024,-1.397,2.758,0.865442,-2.187967,-5.540480,100069.23,+24,+67,+239
99297,11.311,-1.401,2.478,0.759020,-2.253417,-5.750131,100069.05,+21,+69,+238
99307,12.749,-1.561,2.470,0.658451,-2.285343,-5.907103,100069.05,+18,+71,+237
99316,13.946,-1.899,2.982,0.536066,-2.292793,-6.036406,100069.05,+18,+71,+237
99326,14.939,-2.391,3.832,0.394525,-2.314077,-6.174222,100071.72,+14,+74,+236
99337,16.020,-3.072,5.198,0.312580,-2.311949,-6.304589,100072.34,+10,+75,+236
99347,17.168,-4.041,6.570,0.326414,-2.291196,-6.381213,100069.34,+4,+77,+236
99357,18.298,-4.889,7.520,0.363130,-2.232664,-6.420589,100068.19,+4,+77,+236
99366,19.106,-5.441,8.270,0.365259,-2.144334,-6.384406,100068.19,+0,+81,+236
99377,19.869,-5.873,8.339,0.249259,-2.048022,-6.259360,100070.41,-5,+85,+236
99387,19.488,-6.197,8.264,0.170506,-1.911802,-6.005012,100069.73,-10,+87,+236
99397,18.301,-6.870,8.731,0.287038,-1.660114,-5.608057,100071.23,-10,+87,+236
99407,17.055,-8.683,9.827,0.458910,-1.302004,-5.079672,100071.23,-14,+93,+235
99417,15.985,-11.236,10.435,0.475937,-0.914096,-4.494352,100072.73,-16,+100,+234
99427,14.388,-14.369,10.329,0.304598,-0.577803,-3.900517,100073.58,-16,+104,+234
99437,12.939,-17.369,9.266,-0.006154,-0.368152,-3.177380,100073.58,-16,+104,+234
99447,11.048,-18.607,8.720,-0.192392,-0.167546,-2.245124,100071.58,-17,+107,+235
99457,9.163,-18.683,9.061,-0.102466,0.074032,-1.099492,100074.31,-17,+107,+235
99467,8.350,-17.992,9.570,0.132194,0.325187,0.166398,100074.31,-16,+109,+236
99477,8.995,-14.067,10.140,0.492965,0.591774,1.308305,100078.94,-16,+109,+236
99487,9.975,-9.485,10.359,0.958029,0.889224,2.114984,100073.73,-17,+108,+237
99497,13.949,8.219,3.923,1.343808,0.899866,2.461919,100075.16,-16,+110,+236
99507,17.798,25.276,-7.642,0.014066,0.535903,1.404617,100074.42,-16,+109,+238
99517,10.333,4.961,-4.334,0.770726,1.022783,1.604158,100077.84,-16,+109,+238
99527,15.528,-5.089,1.882,2.460175,1.523499,2.958910,100077.10,-14,+111,+238
99537,26.214,-6.701,0.146,1.417772,1.185077,3.370763,100077.37,-14,+114,+238
99547,20.707,-6.926,0.070,0.078451,1.166985,2.933368,100077.37,-14,+112,+239
99557,14.929,-0.397,3.645,-0.098209,1.319700,3.107368,100076.63,-14,+112,+239
99567,11.269,2.850,5.495,0.258304,1.428251,3.154726,100076.63,-12,+109,+241
99577,7.313,0.621,6.274,0.689846,1.575645,2.842377,100077.26,-10,+109,+241
99588,5.739,-1.700,10.298,0.927344,1.701578,2.553087,100075.95,-6,+109,+243
99597,7.118,-1.834,10.178,1.016561,1.673021,2.313460,100075.95,-3,+109,+243
99607,11.975,-1.937,4.112,0.890451,1.379297,2.154892,100074.32,-3,+109,+243
99617,13.933,-4.523,2.989,0.579699,1.250526,2.147974,100074.32,-1,+111,+243
99628,12.146,-3.367,3.380,0.270011,1.139315,1.963864,100078.63,+0,+111,+244
99637,10.817,-3.426,3.373,-0.250925,0.882838,1.845204,100076.27,+1,+108,+244
99647,10.569,-2.624,2.691,-0.800594,0.660416,1.706323,100075.48,+1,+108,+244
99657,10.149,-1.068,2.879,-1.144869,0.547077,1.494543,100075.48,+2,+103,+246
99666,10.082,0.199,2.490,-1.131566,0.483224,1.251901,100075.48,+1,+99,+248
99677,10.366,1.022,2.051,-0.862851,0.508233,1.043314,100078.34,+2,+95,+248
99687,10.102,1.781,2.387,-0.551034,0.599224,0.943278,100075.67,+2,+95,+248
99697,9.778,0.955,3.092,-0.328081,0.638068,0.931039,100077.88,+4,+93,+249
99707,9.796,0.127,3.096,-0.223787,0.598692,0.856012,100078.03,+6,+92,+249
99717,9.747,0.440,3.244,-0.186539,0.559316,0.734691,100078.03,+7,+91,+250
99727,9.237,0.679,3.226,-0.173237,0.522068,0.631462,100079.79,+7,+91,+250
99737,9.090,0.294,3.189,-0.214209,0.477371,0.575590,100077.52,+8,+89,+250
99747,9.092,0.036,3.424,-0.375970,0.429481,0.505351,100076.70,+10,+88,+251
99758,9.073,0.314,3.509,-0.609567,0.384252,0.423939,100076.70,+10,+86,+251
99767,9.072,1.141,3.379,-0.799530,0.341151,0.374985,100078.41,+10,+86,+251
99777,9.012,1.906,2.922,-0.821346,0.326784,0.385627,100078.52,+11,+83,+253
99787,9.115,1.914,2.428,-0.676080,0.374674,0.443627,100078.52,+12,+80,+253
99798,9.179,1.300,2.112,-0.468557,0.446508,0.542599,100075.52,+14,+78,+252
99807,9.261,0.657,2.389,-0.323292,0.507169,0.636783,100077.20,+14,+78,+252
99817,9.347,0.118,3.170,-0.336594,0.526857,0.663388,100077.20,+16,+76,+254
99822,9.194,0.244,3.689,-0.436631,0.510362,0.649553,100080.63,+16,+75,+254
99832,8.923,0.607,3.978,-0.549970,0.482160,0.634122,100077.18,+16,+75,+254
99842,8.851,0.711,3.829,-0.647346,0.457151,0.639975,100074.38,+17,+73,+254
99852,9.116,0.768,3.352,-0.656924,0.437463,0.670306,100072.29,+19,+70,+255
99862,9.694,0.478,3.055,-0.628722,0.431609,0.731498,100072.29,+19,+67,+256
99872,9.939,0.311,2.805,-0.616484,0.453958,0.777260,100077.08,+19,+67,+256
99883,9.852,0.609,3.204,-0.629255,0.505573,0.811315,100074.61,+21,+64,+256
99892,9.840,0.504,3.490,-0.627658,0.533242,0.848562,100077.30,+23,+63,+256
99902,9.862,0.136,3.520,-0.645750,0.559316,0.879957,100074.52,+25,+59,+257
99912,9.772,0.187,3.593,-0.719181,0.570490,0.912415,100074.52,+25,+59,+257
99922,9.546,0.545,3.544,-0.776117,0.569426,0.969351,100076.57,+27,+57,+257
99932,9.561,0.667,3.559,-0.792612,0.582728,1.041186,100078.09,+28,+53,+257
99942,9.993,0.339,3.338,-0.790484,0.594967,1.125791,100076.88,+31,+50,+258
99952,10.382,0.042,3.216,-0.788888,0.621040,1.206672,100074.79,+31,+50,+258
99962,10.433,0.242,3.429,-0.836777,0.638068,1.297663,100074.79,+32,+47,+257
99973,10.629,0.655,3.501,-0.839970,0.629554,1.423241,100077.43,+35,+43,+258
99982,11.723,0.852,3.186,-0.749511,0.600820,1.596709,100076.96,+36,+41,+259
99992,12.188,0.570,3.204,-0.641493,0.639132,1.769644,100075.38,+36,+41,+259
100002,11.870,0.486,3.074,-0.595200,0.666270,1.947369,100075.29,+39,+38,+259
100013,12.282,0.297,3.053,-0.548374,0.663609,2.120305,100075.29,+41,+36,+259
100022,12.961,-0.099,3.058,-0.499952,0.669462,2.288451,100076.73,+43,+33,+260
100032,13.217,0.153,3.345,-0.519108,0.677444,2.428928,100074.73,+43,+33,+260
100042,13.150,0.613,3.429,-0.563273,0.685958,2.576323,100074.68,+45,+31,+259
100052,13.223,1.155,3.649,-0.636172,0.698728,2.739680,100073.90,+48,+29,+259
100058,13.515,1.542,3.830,-0.715456,0.705114,2.863130,100073.90,+48,+29,+259
100067,14.196,1.855,3.771,-0.823475,0.720545,2.976469,100073.90,+51,+27,+260
100077,15.706,2.613,3.936,-1.000135,0.717352,3.115350,100076.04,+55,+23,+259
100087,17.488,3.706,4.537,-1.216172,0.671059,3.237203,100076.57,+58,+19,+259
100098,19.333,4.587,4.036,-1.641859,0.700857,3.277643,100075.52,+58,+19,+259
100108,21.061,5.829,2.628,-2.477272,0.766306,3.169625,100073.71,+60,+11,+259
100117,22.626,10.150,0.854,-3.639400,0.621040,3.013717,100075.49,+64,+0,+258
100127,22.306,15.493,1.151,-4.520041,0.365628,2.984983,100075.80,+65,-17,+256
100137,20.324,14.941,1.992,-4.373178,0.227279,3.153130,100075.80,+65,-17,+256
100147,17.919,5.345,4.841,-3.127510,0.335830,3.487827,100074.54,+69,-29,+254
100157,17.873,-5.182,6.688,-1.622171,0.341683,3.911386,100074.65,+73,-35,+252
100167,18.668,-8.085,7.731,-0.838374,0.237921,4.104010,100074.65,+77,-35,+252
100177,17.638,-3.561,8.454,-0.429181,0.303903,3.901276,100075.62,+77,-35,+252
100188,16.061,4.342,6.693,0.178488,0.558784,3.492616,100079.04,+81,-35,+253
100197,13.047,7.868,5.703,1.008047,0.685958,3.052029,100077.20,+87,-32,+253
100207,8.528,4.314,4.966,1.364029,0.395958,2.559295,100075.41,+90,-27,+254
100217,4.894,-4.031,5.274,1.651368,0.344343,2.111259,100076.70,+90,-27,+254
100228,4.308,-4.602,4.527,1.593368,0.117132,1.424837,100077.12,+92,-20,+257
100238,6.585,-1.579,1.148,1.031460,-0.247363,0.700636,100073.66,+91,-17,+258
100247,4.508,1.924,0.370,0.679203,-0.417638,-0.160850,100077.59,+89,-15,+259
100257,3.654,3.719,-0.218,0.453057,-0.628353,-0.742978,100077.59,+89,-15,+259
100268,3.032,3.194,-0.134,0.532873,-0.796500,-1.085125,100077.59,+85,-14,+260
100278,2.133,1.488,0.395,0.747845,-0.922078,-1.400134,100077.02,+80,-13,+261
100287,1.600,-0.484,1.051,0.885662,-1.088628,-1.743876,100075.70,+74,-11,+262
100293,1.403,-1.317,1.536,0.973460,-1.187069,-2.025895,100077.80,+74,-11,+262
100302,1.580,-1.354,1.729,1.044231,-1.260500,-2.328133,100075.17,+67,-9,+264
100313,2.331,-0.897,1.808,1.112341,-1.367454,-2.712316,100075.17,+59,-5,+264
100322,3.285,-0.499,1.551,1.221423,-1.465894,-3.061912,100076.45,+59,-5,+264
100332,4.011,-0.523,1.315,1.285276,-1.541986,-3.382775,100076.25,+51,-1,+267
100342,4.584,-0.714,0.853,1.192689,-1.650004,-3.687141,100072.25,+42,+2,+267
100353,4.991,-0.521,0.581,1.088396,-1.759619,-3.978205,100071.73,+33,+6,+267
100362,5.456,-0.202,0.885,1.038377,-1.817619,-4.254370,100071.73,+33,+6,+267
100372,6.008,-0.453,1.322,0.998469,-1.878279,-4.518829,100071.67,+24,+11,+267
100382,6.688,-0.782,1.724,0.982506,-1.934151,-4.807232,100069.52,+14,+16,+268
100392,7.315,-1.082,1.913,0.934616,-1.987894,-5.084994,100068.53,+4,+23,+266
100403,8.010,-1.378,2.049,0.851075,-2.026206,-5.335085,100069.00,+4,+23,+266
100412,8.791,-1.350,2.153,0.795203,-2.049086,-5.576131,100069.00,-3,+29,+265
100422,9.837,-1.258,2.162,0.774451,-2.065050,-5.813452,100069.55,-12,+37,+264
100432,11.165,-1.414,1.929,0.770194,-2.095380,-6.036406,100069.75,-21,+45,+262
100443,12.660,-1.498,2.104,0.773919,-2.144866,-6.244993,100069.02,-21,+45,+262
100452,14.649,-1.605,2.703,0.802653,-2.190095,-6.406754,100068.81,-29,+54,+261
100462,16.290,-2.423,3.558,0.863313,-2.211380,-6.500938,100068.81,-36,+65,+258
100472,17.971,-4.108,5.044,0.894176,-2.231600,-6.550956,100071.85,-41,+75,+254
100483,20.409,-6.241,6.722,0.856928,-2.236389,-6.517433,100068.02,-41,+75,+254
100493,21.861,-7.646,7.530,0.767001,-2.192756,-6.379085,100070.38,-46,+88,+252
100502,21.979,-8.199,7.647,0.735075,-2.069839,-6.143360,100070.38,-49,+99,+248
100512,20.813,-8.930,8.418,0.778176,-1.880408,-5.816645,100070.38,-51,+110,+244
100523,18.458,-8.790,9.921,0.777112,-1.643619,-5.349984,100072.45,-51,+110,+244
100533,16.415,-8.510,11.490,0.785093,-1.266885,-4.809893,100072.97,-52,+120,+241
100542,15.070,-10.295,11.235,0.679735,-0.827895,-4.272994,100070.98,-51,+128,+239
100552,12.886,-13.898,9.918,0.427515,-0.510225,-3.694591,100070.30,-48,+135,+237
100562,11.738,-17.023,7.866,0.087497,-0.377730,-2.957087,100070.30,-48,+135,+237
100573,10.305,-18.103,7.359,-0.042870,-0.231399,-1.985986,100075.30,-46,+138,+237
100582,8.505,-18.110,8.129,0.074727,-0.031326,-0.826519,100076.46,-45,+141,+236
100592,7.835,-16.531,8.722,0.283846,0.153848,0.362746,100074.41,-46,+141,+236
100602,9.360,-12.005,8.154,0.481258,0.340086,1.322672,100074.26,-46,+141,+236
100613,9.722,-8.320,9.415,0.670157,0.649774,2.026121,100074.26,-46,+140,+236
100623,13.959,8.920,0.812,0.414213,0.480563,2.153827,100077.91,-48,+139,+236
100632,15.531,22.683,-5.466,-1.264594,0.214509,1.018305,100079.80,-48,+134,+239
100642,8.626,5.897,-2.334,-0.796869,0.606141,1.024691,100077.71,-48,+134,+239
100653,14.642,-0.419,1.293,0.716983,0.927004,2.035699,100078.55,-47,+131,+239
100663,23.999,-1.097,0.574,0.333332,0.696068,2.458726,100078.55,-48,+130,+240
100672,18.589,-1.253,3.501,-0.205163,0.833352,2.112855,100077.60,-47,+126,+241
100682,11.892,0.639,14.543,0.172103,1.347902,2.233112,100078.60,-47,+126,+241
100692,13.079,1.216,14.932,1.212909,1.797003,2.529497,100075.29,-45,+124,+244
100703,16.682,-2.269,1.474,1.284744,1.378233,2.428928,100072.88,-42,+126,+244
100712,11.564,-7.895,1.003,0.657387,1.306398,2.302286,100072.88,-40,+124,+244
100722,7.339,-1.305,3.086,0.495093,1.328214,2.007497,100078.04,-40,+124,+244
100732,7.949,-1.765,3.404,0.417405,1.056838,1.678653,100080.35,-39,+124,+246
100743,10.475,-3.470,2.210,0.154543,0.787591,1.517424,100076.15,-38,+123,+246
100753,12.753,-2.500,2.107,-0.422264,0.561444,1.345553,100074.52,-37,+120,+247
100762,11.734,0.645,2.703,-0.748979,0.418307,1.185920,100074.52,-37,+120,+247
100772,10.250,2.321,2.811,-0.743658,0.340619,1.059278,100076.41,-37,+116,+249
100783,9.629,2.096,2.475,-0.575512,0.314013,0.967223,100077.14,-37,+112,+249
100793,9.147,2.309,2.298,-0.410558,0.321463,0.909223,100077.45,-37,+110,+250
100802,8.967,2.282,2.287,-0.272209,0.329976,0.877828,100074.73,-36,+109,+251
100812,9.184,1.691,2.160,-0.164191,0.336894,0.826214,100074.73,-36,+109,+251
100823,9.826,1.577,2.268,-0.099805,0.345408,0.766617,100079.27,-35,+107,+251
100833,9.767,1.545,2.264,-0.080649,0.343811,0.690526,100075.06,-35,+106,+251
100842,9.307,1.428,2.201,-0.076393,0.347004,0.627737,100077.02,-34,+105,+253
100852,9.068,1.277,2.469,-0.116833,0.344875,0.577186,100077.53,-34,+105,+253
100862,8.977,1.387,2.770,-0.191860,0.316674,0.527700,100077.53,-33,+104,+253
100873,8.935,1.425,2.667,-0.285512,0.285811,0.483535,100078.65,-33,+102,+253
100878,8.949,1.329,2.573,-0.360007,0.270912,0.452673,100081.70,-33,+102,+253
100887,8.902,1.397,2.435,-0.411622,0.262398,0.429792,100081.70,-33,+101,+254
100897,9.051,1.687,1.883,-0.440888,0.250692,0.426067,100078.24,-32,+99,+254
100908,9.367,2.108,1.515,-0.371713,0.285279,0.469700,100076.40,-32,+99,+254
100918,9.321,2.397,1.598,-0.237622,0.351261,0.545260,100076.40,-32,+96,+254
100928,9.231,1.768,1.753,-0.106191,0.419903,0.628801,100079.38,-30,+96,+256
100937,9.283,1.197,2.295,-0.072668,0.452894,0.682012,100075.52,-30,+95,+255
100947,9.201,1.484,2.900,-0.129604,0.439591,0.705957,100077.30,-30,+95,+255
100958,9.145,1.883,3.018,-0.197714,0.405536,0.735755,100077.30,-28,+93,+257
100968,9.113,1.903,3.118,-0.238686,0.387444,0.779388,100077.30,-27,+91,+257
100977,9.195,1.587,2.875,-0.259438,0.372013,0.826746,100080.12,-27,+90,+257
100987,9.336,1.539,2.569,-0.253053,0.372013,0.871443,100076.70,-25,+90,+257
100998,9.433,1.720,2.507,-0.222723,0.386380,0.934232,100077.65,-25,+88,+257
101008,9.540,1.742,2.478,-0.181750,0.409793,1.010856,100078.43,-26,+87,+258
101018,9.541,1.636,2.622,-0.155677,0.436930,1.090140,100078.43,-24,+84,+258
101027,9.356,1.604,2.869,-0.145035,0.463536,1.164103,100077.94,-23,+82,+259
101038,9.240,1.202,2.763,-0.135457,0.494398,1.232746,100078.19,-23,+82,+259
101048,9.179,0.991,2.918,-0.150356,0.522600,1.295002,100077.09,-21,+81,+261
101058,9.244,1.061,3.201,-0.167383,0.528453,1.363112,100077.09,-21,+79,+261
101068,9.392,0.790,3.131,-0.183879,0.524196,1.447186,100080.42,-19,+76,+261
101078,9.534,0.577,3.061,-0.226448,0.531646,1.524342,100080.42,-19,+76,+261
101088,9.651,0.387,3.126,-0.303603,0.541224,1.598837,100079.33,-18,+73,+262
101098,9.841,0.369,2.870,-0.384484,0.559848,1.668543,100076.86,-17,+71,+262
101107,9.586,0.918,2.888,-0.415879,0.594435,1.752085,100075.33,-15,+67,+263
101117,9.305,1.410,3.547,-0.357879,0.618380,1.873938,100075.33,-15,+67,+263
101128,9.692,0.722,3.957,-0.257842,0.623701,2.017075,100079.57,-13,+65,+265
101138,10.271,-0.066,4.269,-0.267420,0.627958,2.124029,100078.90,-12,+62,+264
101148,10.957,-0.566,4.402,-0.404704,0.626894,2.198525,100078.05,-9,+59,+266
101157,11.930,-0.851,4.185,-0.613823,0.632215,2.265038,100075.58,-9,+59,+266
101168,13.735,-0.569,4.442,-0.835181,0.629554,2.341662,100078.31,-8,+53,+267
101178,17.345,0.885,4.667,-1.106025,0.575811,2.438506,100077.47,-7,+48,+266
101188,21.312,2.830,4.924,-1.266722,0.573683,2.625809,100075.95,-3,+41,+267
101197,23.477,4.694,4.306,-1.283750,0.600820,2.954653,100075.95,-3,+41,+267
101208,23.832,6.385,3.522,-1.317805,0.684361,3.337240,100077.58,-2,+33,+269
101218,23.999,6.140,4.359,-1.183713,0.758857,3.583074,100077.58,+0,+27,+267
101228,25.351,3.742,3.899,-0.996410,0.701921,3.552212,100078.27,+4,+20,+268
101237,24.653,2.337,1.232,-1.493933,0.505040,3.181331,100075.53,+4,+20,+268
101248,17.311,2.891,1.717,-2.341052,0.346472,2.918469,100077.47,+5,+12,+267
101258,9.517,0.985,5.345,-2.305400,0.603481,2.819497,100077.84,+7,+1,+267
101268,6.220,-4.442,8.628,-1.663144,0.969040,2.807258,100077.84,+14,-6,+266
101278,5.279,-5.207,7.633,-1.123052,1.138783,2.514066,100076.39,+14,-6,+266
101287,4.253,-1.481,5.641,-0.875089,1.118031,1.953754,100074.78,+18,-11,+267
101298,5.067,0.056,2.780,-0.640961,0.952013,1.498800,100074.73,+24,-14,+266
101308,4.096,-1.421,0.822,-0.938410,0.702985,0.997553,100074.73,+26,-17,+265
101318,2.744,1.379,0.142,-1.302373,0.424692,0.262177,100074.73,+26,-17,+265
101327,1.040,4.446,0.959,-1.272575,0.295921,-0.388061,100078.87,+26,-22,+266
101338,0.424,3.446,0.188,-0.872961,0.291132,-0.798317,100075.09,+26,-26,+264
101348,0.812,1.338,-0.035,-0.324888,0.391169,-1.114213,100074.87,+26,-27,+264
101358,0.998,1.070,0.168,0.015662,0.419903,-1.381510,100074.87,+26,-27,+264
101368,1.369,0.922,0.088,0.312048,0.370949,-1.692794,100074.87,+26,-27,+264
101378,1.876,0.372,0.052,0.562139,0.304435,-2.020574,100078.17,+24,-24,+264
101388,1.827,0.251,-0.048,0.776579,0.247499,-2.330261,100076.73,+23,-21,+265
101398,1.857,0.194,-0.323,1.027203,0.217169,-2.603234,100075.97,+23,-21,+265
101408,2.673,-0.183,-0.495,1.262396,0.184178,-2.838426,100075.97,+21,-16,+266
101417,3.889,-1.030,-0.416,1.330506,0.100105,-3.054995,100076.23,+19,-10,+266
101428,4.861,-2.263,-0.165,1.175130,-0.062721,-3.305087,100076.23,+16,-5,+267
101438,5.438,-3.921,0.387,0.781900,-0.255344,-3.587105,100076.97,+16,-5,+267
101448,5.798,-5.477,1.109,0.207754,-0.393693,-3.872315,100074.72,+12,+0,+267
101457,6.055,-5.649,1.671,-0.388209,-0.451693,-4.150077,100073.14,+8,+1,+266
101468,6.706,-5.186,1.791,-0.808576,-0.467656,-4.351214,100073.14,+3,+0,+266
101478,7.581,-5.866,1.916,-1.115071,-0.447436,-4.492223,100076.75,-1,+0,+265
101488,8.238,-6.460,1.822,-1.444447,-0.485748,-4.574168,100075.06,-1,+0,+265
101498,9.056,-6.214,1.628,-1.593437,-0.507564,-4.584279,100077.44,-6,-2,+264
101508,10.149,-6.223,1.985,-1.559382,-0.503840,-4.534792,100071.57,-12,-5,+262
101518,10.703,-6.673,2.527,-1.433805,-0.499051,-4.387930,100077.02,-17,-5,+261
101528,10.885,-7.168,3.498,-1.283750,-0.482555,-4.211802,100074.98,-17,-5,+261
101538,11.207,-7.426,4.298,-1.077291,-0.451693,-4.013856,100073.93,-22,-5,+259
101548,11.734,-7.949,4.724,-0.805915,-0.371344,-3.754719,100073.93,-26,-5,+259
101558,12.111,-8.940,4.813,-0.581897,-0.273968,-3.440774,100074.40,-30,-2,+258
101568,12.364,-10.102,4.793,-0.555823,-0.215436,-3.099692,100074.40,-30,-2,+258
101578,12.305,-11.013,4.809,-0.784099,-0.193088,-2.776169,100075.34,-33,-1,+257
101583,11.971,-11.382,4.759,-1.116667,-0.203730,-2.566518,100075.59,-33,-1,+257
101593,11.205,-11.211,4.731,-1.538098,-0.220757,-2.388261,100076.16,-35,-3,+257
101603,9.901,-10.400,4.590,-2.098410,-0.237253,-2.163179,100071.71,-38,-7,+255
101613,8.876,-9.305,4.267,-2.607107,-0.259601,-1.952464,100071.71,-40,-13,+253
101623,8.463,-7.968,3.892,-3.022152,-0.277161,-1.782188,100076.05,-40,-13,+253
101633,8.454,-6.688,3.472,-3.278097,-0.289399,-1.610317,100073.22,-43,-22,+251
101643,8.501,-5.315,3.066,-3.309492,-0.274500,-1.446427,100073.95,-46,-31,+247
101653,8.697,-4.168,2.537,-3.155712,-0.273968,-1.283069,100075.84,-49,-40,+244
101663,8.955,-3.432,3.814,-2.792813,-0.240445,-1.129822,100075.84,-49,-40,+244
101672,12.016,3.519,5.979,-1.806281,-0.201069,-0.979235,100076.99,-51,-47,+242
101683,18.119,13.166,10.959,-0.184411,-0.065381,-0.687106,100077.09,-53,-49,+240
101693,30.170,13.970,0.604,0.848946,-0.234060,-0.244391,100075.41,-54,-46,+240
101703,23.487,4.951,-0.062,1.047423,0.222490,0.636250,100077.20,-51,-43,+243
101712,8.064,-0.032,3.642,1.196946,0.515683,0.857076,100077.20,-51,-43,+243
101723,2.799,-5.520,4.589,0.700488,0.188435,0.883149,100076.69,-49,-40,+244
101733,4.909,-2.744,2.779,0.463699,0.097976,0.540471,100077.95,-48,-41,+244
101743,8.758,-1.449,2.654,0.198176,0.044766,0.272287,100073.28,-48,-41,+244
101753,9.629,-1.956,4.272,-0.180154,0.065518,0.155755,100075.80,-48,-41,+244
101763,10.030,-1.300,3.550,-0.490906,0.002197,-0.033676,100075.80,-47,-41,+244
101773,9.336,0.090,2.223,-0.551567,0.006986,-0.191180,100078.29,-48,-44,+243
101783,9.233,1.222,2.505,-0.375970,0.102233,-0.244391,100076.18,-48,-45,+244
101793,9.063,2.039,3.662,-0.160466,0.217701,-0.240666,100078.49,-48,-45,+244
101803,9.107,0.656,4.177,-0.143971,0.238453,-0.291749,100073.87,-48,-43,+244
101813,9.389,-0.358,3.593,-0.400447,0.215041,-0.379547,100073.87,-46,-45,+243
101823,9.615,0.979,3.335,-0.751640,0.167151,-0.477455,100078.63,-46,-47,+243
101833,9.693,2.142,3.593,-0.838906,0.155976,-0.506721,100078.01,-46,-47,+243
101843,9.531,2.495,4.195,-0.830392,0.159701,-0.467345,100074.23,-46,-48,+243
101853,9.087,3.185,4.716,-0.799530,0.149059,-0.418391,100074.34,-47,-51,+241
101863,8.795,2.920,4.651,-0.664374,0.129903,-0.341235,100074.34,-47,-53,+241
101873,8.779,2.477,4.479,-0.538264,0.127775,-0.268336,100076.77,-47,-53,+241
101883,8.580,2.221,4.509,-0.502612,0.118197,-0.232153,100075.93,-46,-54,+241
101893,8.891,1.378,4.042,-0.551567,0.073499,-0.210336,100075.73,-47,-55,+240
101903,9.181,1.266,3.525,-0.633511,0.055940,-0.211400,100077.66,-47,-57,+240
101913,9.189,1.763,3.596,-0.664906,0.074564,-0.225767,100077.66,-47,-57,+240
101923,9.318,1.387,3.679,-0.598924,0.094784,-0.228960,100077.52,-47,-59,+238
101933,9.371,0.885,3.562,-0.538264,0.123518,-0.251309,100077.03,-47,-61,+238
101943,9.060,1.080,3.769,-0.580833,0.140545,-0.274721,100072.63,-48,-61,+238
101953,8.457,1.430,3.787,-0.608502,0.144270,-0.286960,100074.00,-48,-61,+238
101963,8.386,1.589,3.988,-0.603713,0.144270,-0.265143,100074.00,-47,-63,+236
101974,8.504,2.320,4.261,-0.603181,0.147463,-0.235345,100076.65,-47,-65,+237
101983,8.425,2.241,4.391,-0.591475,0.145334,-0.205547,100076.09,-46,-67,+236
101993,8.402,1.432,4.131,-0.596264,0.141609,-0.175217,100076.34,-46,-67,+236
102003,8.480,1.685,4.131,-0.656392,0.122454,-0.155529,100074.93,-47,-68,+236
102013,8.529,2.067,4.067,-0.668631,0.119793,-0.136905,100074.93,-47,-71,+234
102023,8.779,1.642,4.003,-0.635640,0.128839,-0.100722,100077.71,-47,-73,+234
102033,8.881,1.651,3.905,-0.632447,0.137885,-0.067731,100076.20,-47,-73,+234
102043,8.704,2.142,3.959,-0.636172,0.161298,-0.035804,100077.82,-46,-74,+233
102053,8.623,1.913,3.921,-0.635640,0.175665,0.011022,100075.88,-46,-77,+233
102063,8.697,1.893,3.754,-0.635108,0.207059,0.053590,100075.88,-45,-79,+232
102073,8.740,1.918,3.797,-0.650007,0.242178,0.095627,100078.98,-45,-79,+232
102083,8.848,1.600,3.821,-0.653199,0.281022,0.129150,100073.62,-44,-81,+231
102093,9.058,1.527,3.723,-0.670759,0.318802,0.162141,100074.84,-42,-83,+231
102104,9.080,1.747,3.875,-0.684062,0.353921,0.203113,100075.88,-41,-86,+231
102113,8.917,1.555,3.932,-0.679273,0.403407,0.228654,100075.88,-41,-86,+231
102123,8.474,2.401,4.422,-0.685658,0.458215,0.251535,100075.47,-40,-87,+229
102133,8.278,2.590,4.832,-0.640961,0.473646,0.289315,100074.84,-38,-91,+229
102144,8.678,1.220,4.831,-0.586154,0.503444,0.314856,100078.25,-35,-91,+229
102153,8.714,0.238,4.433,-0.625530,0.537499,0.286654,100074.11,-33,-94,+228
102163,8.247,0.768,4.718,-0.687787,0.557187,0.248875,100074.11,-33,-94,+228
102173,8.303,1.213,4.364,-0.661181,0.564105,0.232911,100074.70,-32,-97,+227
102183,8.923,0.717,3.860,-0.581365,0.586453,0.240893,100076.43,-30,-99,+227
102193,9.170,0.806,4.055,-0.541989,0.632215,0.239829,100075.80,-27,-101,+226
102203,9.030,0.683,3.699,-0.519640,0.679572,0.223865,100075.01,-27,-101,+226
102213,8.853,0.397,3.801,-0.502612,0.729059,0.225462,100075.01,-24,-102,+226
102223,8.832,0.816,3.734,-0.486117,0.756196,0.245682,100078.01,-23,-104,+226
102234,8.516,1.386,4.091,-0.426521,0.801426,0.283994,100076.59,-18,-106,+226
102243,8.667,1.604,4.669,-0.327548,0.834948,0.347847,100075.70,-18,-106,+226
102253,9.115,1.700,5.179,-0.274870,0.851976,0.415425,100076.59,-14,-107,+226
102263,8.933,1.165,5.557,-0.284980,0.886563,0.448416,100076.59,-11,-108,+226
102274,8.404,0.834,5.624,-0.345108,0.909444,0.446819,100076.79,-8,-109,+226
102283,8.419,0.176,5.384,-0.424924,0.922747,0.432985,100077.52,-8,-109,+226
102293,8.829,-0.042,5.339,-0.491970,0.923279,0.409572,100074.48,-3,-111,+227
102303,9.064,0.164,5.529,-0.561677,0.936049,0.374453,100073.32,-1,-113,+226
102313,9.293,-0.216,5.700,-0.644154,0.949884,0.328159,100073.32,+2,-114,+225
102324,9.634,-0.529,6.018,-0.806979,0.952013,0.255260,100075.63,+2,-114,+225
102333,9.690,-1.119,6.280,-1.073034,0.960526,0.144049,100076.20,+5,-118,+224
102343,9.107,-1.478,5.859,-1.400814,0.978086,-0.010795,100077.47,+8,-122,+221
102353,8.493,-1.623,4.650,-1.684960,1.006288,-0.162978,100072.80,+10,-126,+218
102363,9.489,-1.341,4.240,-1.861621,0.974361,-0.235877,100072.80,+10,-126,+218
102373,11.515,-0.497,3.996,-1.952079,0.883903,-0.227364,100075.33,+12,-132,+215
102383,12.986,0.105,4.261,-2.016997,0.846123,-0.214593,100075.06,+14,-136,+211
102393,14.043,0.275,3.900,-2.248465,0.755132,-0.187988,100074.17,+16,-143,+207
102404,15.735,0.784,3.806,-2.664042,0.596031,-0.140098,100076.48,+16,-143,+207
102413,16.737,1.216,2.818,-3.174336,0.457151,-0.100722,100076.48,+17,-151,+200
102423,15.816,1.209,1.898,-3.774023,0.289536,-0.101254,100078.95,+18,-160,+191
102433,15.895,2.787,1.999,-4.128408,0.275701,-0.125731,100076.32,+18,-170,+181
102444,15.227,4.620,2.089,-4.244940,0.346472,-0.093804,100076.54,+18,-170,+181
102453,14.302,2.722,2.778,-4.163527,0.488013,0.061572,100074.27,+20,-179,+170
102463,14.910,1.618,3.674,-4.137454,0.684361,0.233443,100074.27,+21,-188,+159
102473,13.364,1.015,6.250,-4.313582,0.845059,0.311664,100079.01,+24,-195,+147
102483,12.421,-0.120,7.944,-4.024647,1.113242,0.444691,100077.12,+24,-195,+147
102494,13.152,-2.759,7.611,-3.700592,1.389939,0.572929,100075.49,+29,-202,+135
102503,13.746,-5.442,7.900,-3.585124,1.616618,0.696379,100073.55,+33,-207,+125
102513,15.212,-10.221,8.215,-3.602152,1.773590,0.901241,100073.55,+40,-212,+114
102523,15.783,-11.035,7.772,-3.949620,1.851810,1.099718,100074.54,+40,-212,+114
102534,14.637,-6.442,5.222,-4.553564,1.804452,0.868250,100075.79,+46,-218,+101
102543,12.674,-2.849,4.225,-4.811637,1.794342,0.696379,100077.63,+51,-222,+85
102553,10.672,-0.485,4.060,-4.736078,1.777315,0.638911,100077.95,+55,-225,+70
102563,9.468,0.323,4.274,-4.521637,1.692709,0.608581,100077.95,+55,-225,+70
102574,8.560,0.171,4.024,-4.291234,1.596930,0.559627,100075.77,+58,-227,+56
102583,7.611,0.543,3.211,-4.115638,1.506471,0.448416,100073.88,+61,-227,+41
102593,6.764,1.878,2.043,-3.992720,1.402177,0.244086,100075.40,+63,-227,+28
102603,6.112,3.135,0.418,-3.872996,1.238820,-0.035272,100073.09,+63,-228,+14
102614,5.436,4.001,-0.948,-3.738904,1.080251,-0.355602,100073.09,+63,-228,+14
102624,4.718,4.489,-1.926,-3.528189,0.930196,-0.686042,100077.45,+62,-226,+2
102633,4.137,4.362,-2.673,-3.242446,0.790251,-1.027125,100075.71,+58,-225,-8
102639,3.697,4.061,-2.852,-3.060996,0.666802,-1.299033,100074.82,+58,-225,-8
102648,3.578,3.869,-3.038,-2.893382,0.530050,-1.579987,100074.82,+53,-224,-18
102659,3.904,3.949,-3.068,-2.675217,0.359775,-1.970023,100073.77,+45,-222,-26
102669,4.515,3.996,-2.885,-2.441088,0.199609,-2.349417,100073.77,+45,-222,-26
102678,5.153,3.941,-2.648,-2.121290,0.036784,-2.686243,100073.03,+37,-219,-34
102688,5.805,3.561,-2.198,-1.701988,-0.091455,-2.977839,100072.81,+26,-218,-40
102699,6.352,2.575,-1.809,-1.310887,-0.199473,-3.230591,100069.36,+16,-215,-44
102709,6.521,1.257,-1.065,-1.033658,-0.286207,-3.453013,100069.36,+16,-215,-44
102718,6.493,0.715,-0.196,-0.778245,-0.368684,-3.674371,100069.36,+4,-213,-47
102728,6.232,1.269,0.804,-0.373310,-0.413913,-3.893600,100070.17,-7,-210,-49
102738,6.250,1.926,1.970,0.189130,-0.412849,-4.103251,100069.75,-21,-208,-48
102749,6.710,2.405,2.979,0.873423,-0.421895,-4.333655,100072.06,-21,-208,-48
102758,7.448,2.289,3.626,1.465662,-0.451693,-4.549159,100071.00,-35,-206,-45
102768,8.181,1.744,3.808,1.877514,-0.512353,-4.725287,100071.00,-50,-202,-41
102778,8.884,1.393,4.416,2.208487,-0.569821,-4.908865,100072.59,-65,-198,-34
102789,9.862,0.710,5.120,2.421330,-0.651766,-5.078076,100072.17,-80,-198,-34
102799,10.910,-0.176,5.588,2.447404,-0.791711,-5.235049,100071.23,-80,-192,-28
102808,12.049,-1.034,5.888,2.228707,-0.959326,-5.386168,100071.23,-97,-185,-23
102818,13.166,-1.554,6.212,1.867404,-1.108316,-5.508553,100073.27,-112,-175,-21
102829,14.037,-1.833,6.370,1.505570,-1.249325,-5.627213,100071.43,-128,-164,-20
102839,14.833,-2.670,6.813,1.144799,-1.389802,-5.753856,100071.43,-128,-164,-20
102848,15.625,-4.317,8.044,0.604708,-1.523362,-5.823030,100070.76,-142,-151,-22
102858,16.290,-6.110,9.170,-0.220062,-1.673949,-5.889011,100073.16,-154,-136,-26
102868,16.764,-6.676,9.344,-1.169346,-1.743655,-5.994901,100073.16,-167,-118,-35
102874,16.570,-6.191,9.425,-1.821180,-1.688316,-6.036938,100072.84,-167,-118,-35
102884,15.774,-5.533,9.648,-2.314446,-1.543582,-6.006076,100074.20,-176,-98,-42
102893,14.225,-5.210,9.817,-2.747584,-1.237619,-5.835801,100071.89,-176,-98,-42
102903,13.373,-5.764,9.512,-2.794409,-0.834812,-5.457470,100072.00,-185,-77,-50
102914,13.940,-7.581,7.256,-2.573584,-0.494794,-4.928021,100072.00,-191,-59,-56
102924,15.174,-10.620,4.528,-2.292630,-0.239381,-4.274590,100078.29,-197,-41,-60
102933,13.964,-13.781,2.365,-1.833419,-0.035583,-3.402462,100075.88,-197,-41,-60
102943,11.529,-16.963,1.591,-1.242777,0.169811,-2.378151,100075.93,-198,-29,-61
102953,9.653,-19.239,1.875,-0.759622,0.352857,-1.214959,100077.98,-200,-23,-61
102964,8.952,-16.866,2.063,-0.196117,0.507701,-0.085822,100077.98,-202,-21,-59
102974,9.505,-14.971,2.428,0.897900,0.696600,1.084287,100077.64,-202,-21,-59
102983,12.744,1.059,-2.119,1.650304,0.711499,1.870745,100074.91,-201,-28,-55
102993,15.170,25.993,-11.662,0.968139,0.223554,1.102911,100077.95,-201,-35,-54
103004,10.081,15.549,-4.331,1.431607,0.526325,0.738948,100079.06,-200,-38,-50
103014,17.794,-4.214,3.788,2.490505,1.005756,1.789332,100079.06,-200,-38,-50
103023,28.961,-16.106,1.195,0.885662,0.573683,2.385827,100079.43,-199,-48,-44
103033,20.651,-7.711,4.858,-0.965016,0.556123,2.104873,100077.85,-197,-56,-44
103044,14.751,1.726,9.423,-1.035786,0.784930,2.208103,100074.87,-195,-61,-42
103054,11.978,-0.612,8.838,-0.430778,0.807811,2.340598,100074.70,-193,-69,-40
103063,9.228,-3.476,7.091,-0.282851,0.758325,2.194268,100074.70,-193,-69,-40
103073,7.912,-0.721,7.844,-0.191328,0.722141,2.031442,100078.31,-190,-76,-39
103084,8.435,0.013,6.746,-0.033824,0.589646,1.815938,100076.27,-188,-81,-36
103094,8.975,-1.629,5.402,-0.048191,0.444380,1.640874,100077.27,-186,-87,-34
103104,9.473,-0.029,4.652,-0.229108,0.303903,1.501461,100075.31,-186,-87,-34
103109,9.831,0.785,4.100,-0.332337,0.216637,1.389186,100075.31,-185,-91,-35
103118,10.072,1.137,3.588,-0.251989,0.201206,1.310966,100075.31,-185,-91,-35
103129,9.877,1.671,3.456,-0.054044,0.256013,1.224764,100079.28,-182,-94,-35
103139,9.597,1.492,2.861,0.133259,0.302839,1.150268,100080.91,-179,-98,-33
103149,9.151,1.192,3.420,0.252983,0.347536,1.075241,100076.39,-179,-102,-32
103158,9.151,0.698,3.953,0.243938,0.341151,0.997553,100075.93,-179,-102,-32
103169,9.269,0.401,4.258,0.114103,0.295921,0.906030,100076.60,-177,-105,-31
103179,8.817,0.712,4.742,-0.087567,0.224619,0.809186,100076.98,-176,-107,-29
103189,8.614,0.996,4.878,-0.284447,0.129371,0.724049,100076.98,-174,-109,-31
103198,8.899,1.408,4.329,-0.385016,0.058600,0.654342,100076.18,-174,-109,-31
103208,8.936,1.573,3.594,-0.367989,0.039977,0.597939,100073.71,-173,-110,-31
103219,9.027,1.088,2.763,-0.291897,0.058600,0.587296,100073.71,-172,-112,-31
103229,9.254,0.907,2.642,-0.282319,0.105426,0.592085,100078.20,-170,-114,-32
103238,8.320,0.956,2.731,-0.393530,0.113940,0.594214,100076.41,-170,-114,-32
103248,9.057,0.577,3.068,-0.569658,0.113408,0.610177,100074.58,-170,-114,-32
103259,8.827,1.736,3.929,-0.644686,0.135756,0.608049,100076.63,-168,-116,-33
103269,8.272,2.666,4.134,-0.582429,0.141077,0.635718,100077.11,-168,-118,-34
103279,8.669,1.748,3.957,-0.457915,0.155444,0.718728,100075.16,-165,-119,-34
103288,8.814,1.854,3.836,-0.393530,0.150655,0.791627,100077.31,-165,-119,-34
103299,9.143,1.937,4.268,-0.396723,0.160765,0.839516,100072.64,-163,-121,-34
103309,9.031,0.942,4.503,-0.448337,0.151720,0.890067,100072.64,-163,-123,-34
103319,8.714,0.974,4.031,-0.502612,0.158105,0.912415,100072.64,-162,-125,-35
103328,8.729,1.207,3.649,-0.481860,0.203334,0.934232,100078.13,-162,-125,-35
103339,9.082,0.887,3.405,-0.398851,0.257077,0.964030,100075.62,-158,-127,-35
103349,9.227,0.797,3.559,-0.324888,0.311885,0.992764,100076.09,-158,-130,-35
103359,9.107,0.464,3.592,-0.252521,0.363499,1.019369,100073.52,-155,-132,-34
103369,9.166,-0.229,3.572,-0.247200,0.406068,1.028415,100073.52,-155,-132,-34
103378,9.171,0.266,3.977,-0.294558,0.441187,1.019369,100074.78,-153,-134,-33
103389,9.125,0.842,4.176,-0.287640,0.474710,1.026819,100074.73,-151,-138,-34
103399,9.467,0.273,4.288,-0.259438,0.497059,1.049168,100074.58,-149,-140,-33
103409,9.562,-0.089,4.544,-0.309457,0.535371,1.049700,100074.58,-149,-140,-33
103418,9.246,-0.454,4.414,-0.391934,0.571554,1.015645,100074.58,-146,-143,-33
103429,9.250,-0.736,4.565,-0.423328,0.587517,0.979993,100078.08,-145,-144,-32
103439,9.565,-1.234,4.483,-0.396723,0.565169,0.958177,100077.03,-143,-146,-31
103449,9.626,-1.492,4.506,-0.405236,0.572618,0.931571,100076.45,-143,-146,-31
103458,9.749,-1.225,4.803,-0.462172,0.568894,0.895920,100074.61,-142,-148,-30
103469,10.143,-0.951,5.015,-0.559548,0.576343,0.861865,100074.61,-140,-150,-31
103479,10.193,-0.454,5.460,-0.668631,0.588582,0.846966,100079.60,-138,-152,-31
103489,10.836,-0.074,5.039,-0.766007,0.597095,0.846434,100077.65,-138,-152,-31
103499,11.937,-0.547,4.402,-0.829860,0.576343,0.881021,100074.77,-136,-153,-31
103508,11.635,-0.256,4.418,-0.924043,0.591774,0.920929,100075.63,-135,-154,-33
103519,11.506,0.153,4.069,-0.976190,0.600288,0.980526,100076.52,-132,-156,-33
103529,11.957,0.087,3.786,-0.952245,0.602417,1.088544,100076.52,-132,-156,-33
103538,11.843,0.017,3.613,-0.976722,0.604545,1.216782,100076.52,-129,-157,-34
103548,11.738,0.736,3.659,-1.037383,0.611995,1.354066,100075.05,-127,-160,-36
103559,11.836,1.578,3.740,-1.023548,0.629554,1.521149,100074.59,-124,-162,-37
103569,12.055,1.755,3.715,-0.931493,0.665738,1.714837,100074.59,-124,-162,-37
103579,12.511,1.574,3.493,-0.869768,0.713095,1.897883,100077.34,-120,-165,-38
103588,12.763,1.111,3.294,-0.881475,0.743958,2.057516,100075.08,-114,-170,-38
103599,13.034,0.640,2.974,-0.968208,0.766838,2.184158,100077.70,-108,-172,-39
103609,13.369,0.719,2.596,-1.162428,0.776949,2.263974,100073.66,-108,-172,-39
103619,14.232,1.077,2.063,-1.423694,0.745554,2.332616,100077.78,-103,-176,-41
103629,16.010,1.810,1.622,-1.786061,0.650306,2.385295,100077.47,-96,-179,-44
103639,17.305,2.616,0.893,-2.378832,0.605609,2.362947,100076.31,-91,-181,-49
103649,18.172,3.322,-0.222,-3.194024,0.584325,2.252800,100076.31,-91,-181,-49
103659,19.343,4.410,-1.428,-4.078390,0.419371,2.171919,100076.31,-85,-180,-59
103668,19.610,8.876,-0.078,-4.464170,0.244307,2.220873,100076.31,-78,-177,-71
103678,18.723,9.254,3.633,-3.821381,0.176197,2.632726,100077.96,-70,-176,-81
103689,19.359,5.053,5.924,-2.364997,0.260802,3.223900,100074.55,-61,-176,-81
103699,19.932,1.195,7.312,-1.210851,0.367224,3.446854,100073.18,-61,-178,-85
103709,18.267,-1.379,8.404,-0.793144,0.384784,3.426102,100074.76,-51,-180,-87
103718,17.393,-2.585,8.190,-0.602649,0.417774,3.402157,100074.76,-42,-184,-88
103729,16.239,1.714,7.822,-0.272209,0.543352,3.199955,100076.88,-33,-186,-88
103739,12.780,6.677,5.366,0.055571,0.492802,2.781717,100074.21,-33,-186,-88
103749,9.693,8.541,3.784,0.413681,0.231536,2.361882,100078.15,-26,-189,-87
103759,5.280,-1.945,7.919,1.029332,0.228875,2.061773,100078.15,-20,-193,-84
103769,5.079,-2.993,6.734,1.091588,0.035188,1.555204,100074.82,-16,-195,-82
103779,7.580,1.672,2.526,0.578635,-0.287803,0.732562,100074.82,-16,-195,-82
103789,6.161,4.938,2.008,0.401442,-0.370280,-0.074116,100076.87,-14,-196,-80
103799,5.290,5.375,1.832,0.377497,-0.555986,-0.420519,100075.45,-15,-197,-79
103809,4.049,3.270,1.184,0.549369,-0.728390,-0.683382,100076.45,-16,-197,-78
103819,3.062,0.847,0.863,0.629717,-0.899729,-0.982427,100076.45,-16,-197,-78
103829,3.050,-0.449,0.810,0.616414,-1.095546,-1.364482,100078.55,-18,-197,-78
103839,3.409,-0.618,1.060,0.533937,-1.305729,-1.807198,100074.04,-22,-196,-76
103849,3.826,-0.162,1.258,0.472745,-1.512720,-2.234482,100073.93,-28,-195,-77
103859,4.252,0.444,1.357,0.490836,-1.672885,-2.614408,100075.87,-28,-195,-77
103869,4.728,0.626,1.470,0.617479,-1.784096,-2.927821,100075.80,-34,-194,-76
103879,5.043,0.437,1.589,0.809038,-1.857527,-3.198133,100072.98,-41,-192,-76
103888,5.307,0.093,1.874,0.982506,-1.907013,-3.443967,100072.98,-49,-189,-76
103899,5.605,-0.072,2.263,1.127772,-1.944261,-3.693527,100070.09,-49,-189,-76
103909,6.151,0.017,2.718,1.261331,-1.984701,-3.941490,100069.88,-58,-186,-74
103919,6.621,-0.032,2.823,1.422029,-1.996940,-4.169765,100069.88,-67,-182,-73
103929,7.238,-0.200,3.605,1.542463,-1.999068,-4.429257,100068.42,-78,-178,-72
103939,8.122,-0.429,4.054,1.602946,-2.035252,-4.640150,100068.42,-78,-178,-72
103949,9.026,-0.946,4.414,1.615184,-2.069839,-4.878535,100069.13,-89,-172,-71
103959,10.097,-1.280,4.668,1.551331,-2.122518,-5.139269,100067.97,-100,-165,-71
103969,11.478,-1.401,4.543,1.456616,-2.175729,-5.363819,100067.97,-112,-157,-71
103980,12.623,-1.827,4.225,1.350194,-2.206591,-5.527709,100071.03,-112,-157,-71
103989,13.704,-2.637,4.081,1.214506,-2.234261,-5.640516,100069.70,-122,-146,-73
103999,14.714,-3.266,4.505,1.003790,-2.255013,-5.751727,100069.28,-133,-134,-76
104009,15.367,-3.569,5.276,0.724433,-2.300774,-5.867727,100069.28,-142,-121,-80
104018,15.768,-3.964,5.727,0.494029,-2.352921,-5.953929,100069.28,-142,-121,-80
104029,16.665,-4.760,6.285,0.358341,-2.371545,-5.995965,100072.90,-151,-107,-85
104039,17.595,-5.719,6.874,0.167846,-2.382187,-5.949672,100073.10,-157,-91,-90
104049,17.499,-5.855,7.348,-0.091824,-2.355049,-5.840590,100071.90,-163,-74,-97
104059,16.892,-5.088,7.926,-0.234961,-2.198609,-5.692663,100069.74,-163,-74,-97
104069,16.287,-4.838,8.555,-0.170044,-1.902756,-5.478755,100069.74,-166,-57,-104
104079,15.791,-5.775,8.841,-0.019457,-1.521234,-5.192480,100073.22,-169,-42,-108
104089,15.507,-7.542,8.737,0.098139,-1.134922,-4.813086,100073.17,-171,-28,-112
104099,14.996,-10.193,7.805,0.193387,-0.813528,-4.296407,100074.02,-171,-28,-112
104110,14.079,-13.648,7.633,0.277993,-0.545344,-3.603600,100074.02,-173,-16,-112
104119,11.888,-17.022,7.957,0.341314,-0.309620,-2.663894,100073.46,-174,-7,-114
104129,9.985,-19.395,8.712,0.241809,-0.090922,-1.570941,100073.46,-174,-3,-114
104139,9.055,-18.584,9.512,0.102928,0.113940,-0.402428,100073.99,-174,-3,-114
104150,8.899,-15.216,10.310,0.211479,0.360307,0.721920,100075.09,-176,-4,-112
104159,9.762,-11.132,10.586,0.627589,0.652435,1.703130,100073.20,-176,-9,-111
104169,10.639,-6.073,10.234,1.149056,0.998838,2.316121,100073.20,-176,-18,-107
104179,14.784,12.974,-0.765,1.215570,0.778013,2.283130,100073.78,-174,-26,-104
104189,14.824,22.976,-6.358,-0.083310,0.616251,1.224232,100074.88,-174,-26,-104
104200,7.166,1.840,-0.523,0.705277,1.189866,1.458892,100075.14,-177,-29,-102
104209,15.287,-8.060,3.788,1.911569,1.441554,2.564084,100074.49,-176,-41,-96
104219,24.462,-5.986,0.589,0.577570,0.992985,2.846102,100078.80,-175,-49,-92
104229,19.933,-2.609,-0.802,-0.748979,0.957334,2.343791,100076.18,-175,-49,-92
104239,15.494,-0.649,2.749,-0.618612,1.218068,2.567809,100076.18,-174,-55,-90
104249,12.771,0.988,5.171,-0.143971,1.405370,2.712543,100076.65,-174,-63,-87
104259,9.164,-0.557,5.841,0.191259,1.482526,2.354965,100077.85,-173,-71,-82
104269,8.536,-1.945,8.822,0.432304,1.536269,2.153827,100077.85,-173,-71,-82
104280,9.396,-1.431,8.914,0.647277,1.551168,2.023993,100076.49,-172,-78,-76
104289,12.109,-1.471,4.281,0.625992,1.361205,1.855846,100077.34,-171,-84,-72
104299,11.593,-3.219,3.492,0.346103,1.232435,1.724947,100077.54,-170,-89,-67
104309,9.622,-2.229,4.031,0.063552,1.094618,1.519021,100076.29,-170,-89,-67
104320,10.335,-2.540,3.315,-0.406833,0.820049,1.398232,100076.29,-169,-93,-66
104330,11.199,-2.166,2.342,-0.887860,0.624233,1.287553,100080.54,-168,-96,-66
104339,11.010,-0.196,2.125,-1.156043,0.528453,1.116213,100075.07,-166,-97,-67
104349,10.902,1.468,2.144,-1.122520,0.509829,0.956048,100076.18,-166,-97,-67
104359,10.094,2.204,2.219,-0.859126,0.567297,0.843241,100076.18,-166,-99,-66
104369,9.258,2.137,2.626,-0.599989,0.617848,0.815571,100076.18,-165,-101,-66
104379,9.455,1.629,2.980,-0.476539,0.602417,0.806526,100077.13,-165,-102,-65
104389,10.058,1.398,3.310,-0.377035,0.568362,0.770874,100078.48,-165,-102,-65
104399,9.609,1.531,3.504,-0.264937,0.549028,0.709859,100077.75,-163,-105,-64
104409,9.030,1.181,3.529,-0.246668,0.526857,0.667113,100077.75,-163,-105,-63
104419,8.892,0.523,3.821,-0.373842,0.476839,0.624012,100077.75,-162,-107,-63
104429,9.147,0.565,4.166,-0.606374,0.392765,0.541003,100079.60,-162,-107,-63
104439,9.366,1.292,3.817,-0.810172,0.292729,0.451608,100077.98,-162,-107,-63
104450,9.422,2.353,3.024,-0.830924,0.249628,0.431388,100075.93,-161,-107,-64
104459,9.360,2.549,2.627,-0.678741,0.291664,0.477150,100075.93,-160,-108,-64
104469,9.486,1.517,2.499,-0.499952,0.341151,0.566012,100079.66,-160,-108,-64
104479,9.536,0.656,2.703,-0.415879,0.369885,0.621884,100079.66,-160,-109,-65
104489,9.289,0.261,3.189,-0.429181,0.373609,0.614434,100078.30,-159,-110,-64
104499,8.902,0.579,3.759,-0.510594,0.354453,0.581443,100080.29,-158,-111,-64
104509,8.748,1.082,4.049,-0.622337,0.312417,0.549517,100076.15,-158,-111,-64
104519,8.890,1.120,3.860,-0.666502,0.296453,0.544728,100076.15,-157,-111,-65
104529,9.050,0.917,3.546,-0.649475,0.297518,0.555370,100077.31,-157,-112,-66
104540,9.030,0.371,3.258,-0.601585,0.309224,0.566544,100075.33,-156,-112,-65
104549,9.378,-0.274,3.072,-0.611163,0.301242,0.577186,100074.84,-156,-112,-65
104559,9.789,0.072,3.022,-0.672355,0.298582,0.558562,100078.34,-155,-112,-66
104569,9.847,0.462,2.913,-0.741530,0.325719,0.540471,100079.33,-154,-113,-67
104580,9.538,1.067,2.653,-0.778245,0.370949,0.562819,100077.19,-154,-114,-67
104590,9.068,1.939,2.286,-0.731952,0.434802,0.664984,100077.86,-154,-114,-67
104599,8.724,2.424,2.271,-0.615952,0.514618,0.838452,100077.86,-153,-116,-67
104609,8.880,2.388,2.530,-0.481328,0.585389,1.053957,100078.34,-152,-117,-67
104620,9.434,2.076,2.878,-0.377567,0.640196,1.267333,100078.34,-150,-120,-66
104630,10.114,1.682,2.847,-0.312117,0.668398,1.465810,100079.49,-148,-124,-64
104639,10.623,1.404,3.258,-0.274870,0.701389,1.643002,100077.18,-148,-124,-64
104649,10.830,1.347,3.653,-0.283915,0.732783,1.787736,100075.93,-146,-126,-64
104659,11.110,1.122,3.703,-0.282851,0.745554,1.914378,100076.91,-142,-132,-62
104670,11.620,0.467,3.340,-0.275402,0.746618,2.045277,100076.91,-138,-137,-61
104680,11.870,-0.229,3.083,-0.306796,0.756196,2.157552,100077.79,-138,-137,-61
104689,12.268,-0.151,2.745,-0.379163,0.755664,2.260782,100075.37,-133,-141,-60
104699,12.829,0.086,2.477,-0.439824,0.759921,2.376781,100080.15,-129,-147,-59
104710,12.954,0.369,2.456,-0.510594,0.783334,2.523644,100080.15,-122,-153,-59
104719,12.765,0.703,2.590,-0.588282,0.806215,2.701900,100080.15,-122,-153,-59
104729,12.903,1.000,2.889,-0.696300,0.811536,2.903570,100080.21,-117,-157,-58
104739,13.803,1.389,3.211,-0.867640,0.798233,3.096726,100079.01,-110,-163,-59
104750,15.553,2.112,3.550,-1.129438,0.760453,3.268597,100077.85,-101,-168,-61
104759,18.374,3.212,4.046,-1.502447,0.684361,3.405350,100078.12,-101,-168,-61
104769,22.249,5.071,2.958,-2.070740,0.625829,3.457496,100078.12,-92,-172,-64
104779,24.830,7.952,1.753,-2.878483,0.611462,3.404285,100078.05,-83,-174,-71
104790,25.059,12.270,-0.361,-3.786262,0.521004,3.369698,100077.78,-73,-173,-81
104800,23.880,15.805,-0.631,-4.439160,0.307628,3.407478,100077.58,-73,-173,-81
104809,22.668,15.256,0.505,-4.339124,0.106490,3.543698,100077.58,-63,-170,-92
104819,18.865,8.569,5.192,-3.104629,0.157573,3.758138,100079.16,-52,-168,-102
104829,17.126,-0.582,8.354,-1.057603,0.128307,4.207239,100079.16,-39,-173,-102
104840,16.972,-3.820,8.986,0.554690,0.166619,4.576523,100076.65,-39,-173,-102
104849,15.933,-2.211,7.949,1.500781,0.485352,4.488193,100076.12,-26,-178,-99
104859,15.040,3.420,6.047,2.231899,0.822710,3.926285,100076.80,-15,-186,-91
104869,13.492,4.719,6.552,2.532542,0.742361,3.292010,100076.80,-7,-192,-83
104880,8.954,4.547,2.805,2.271808,0.079885,2.571534,100077.63,-7,-192,-83
104890,5.308,-1.938,4.225,2.054707,-0.085601,1.949497,100076.53,+0,-197,-77
104899,4.718,-1.502,4.894,2.114835,-0.323987,1.379076,100076.31,+6,-201,-70
104909,6.533,2.908,0.598,1.664138,-0.777344,0.660728,100078.40,+9,-204,-66
104920,4.602,4.665,-0.291,1.248029,-1.001362,-0.210336,100080.60,+9,-204,-66
104930,3.748,4.702,0.431,1.087332,-1.237087,-0.735528,100077.76,+10,-204,-62
104940,2.808,3.299,1.129,1.166616,-1.479197,-1.019143,100077.45,+8,-206,-59
104949,2.164,0.992,1.767,1.388506,-1.665967,-1.295840,100077.45,+7,-206,-56
104960,2.289,-1.007,2.253,1.466726,-1.837839,-1.669913,100074.55,+7,-206,-56
104970,2.115,-2.061,2.414,1.257607,-2.057600,-2.124867,100074.55,+3,-207,-51
104979,2.064,-1.374,2.253,0.942066,-2.304499,-2.614940,100078.06,-1,-206,-49
104985,2.581,-0.278,2.099,0.722304,-2.465196,-2.956023,100077.33,-1,-206,-49
104994,3.414,0.630,1.855,0.594066,-2.596095,-3.224206,100072.55,-8,-204,-49
105005,4.418,0.978,1.428,0.580763,-2.699857,-3.508353,100074.02,-16,-202,-48
105015,4.857,0.539,1.470,0.632378,-2.726994,-3.762169,100074.02,-25,-200,-48
105024,5.118,-0.123,1.762,0.622268,-2.759453,-4.001618,100072.63,-25,-200,-48
105034,5.564,-0.566,2.210,0.581295,-2.794040,-4.225104,100072.16,-34,-196,-48
105044,6.251,-0.860,2.985,0.551497,-2.781269,-4.444866,100073.01,-44,-192,-49
105055,6.971,-1.093,3.894,0.554690,-2.726462,-4.673673,100068.76,-54,-186,-49
105064,7.544,-1.121,4.653,0.541387,-2.647178,-4.936003,100068.76,-54,-186,-49
105074,8.031,-0.502,5.064,0.534469,-2.582793,-5.264315,100072.19,-66,-179,-51
105084,9.143,0.551,5.423,0.573846,-2.525857,-5.647966,100070.25,-78,-171,-51
105095,11.455,1.113,5.584,0.745185,-2.448701,-5.974681,100072.14,-91,-162,-52
105105,13.850,0.193,5.598,1.053809,-2.264059,-6.179543,100070.78,-91,-162,-52
105114,14.986,-1.950,6.019,1.300175,-2.017160,-6.309378,100070.78,-105,-153,-53
105124,15.675,-4.730,6.553,1.217166,-1.856463,-6.328002,100074.85,-116,-140,-52
105135,16.741,-5.849,6.756,1.009643,-1.865509,-6.251910,100072.96,-129,-128,-52
105145,18.343,-6.253,7.327,0.835644,-1.801655,-6.163048,100069.82,-129,-128,-52
105154,19.863,-7.933,7.535,0.509460,-1.777710,-6.008736,100069.60,-140,-114,-54
105164,20.153,-10.065,8.445,-0.025310,-1.797931,-5.822498,100069.60,-149,-101,-57
105175,18.490,-10.512,10.178,-0.691511,-1.760683,-5.585177,100070.89,-158,-85,-62
105185,15.686,-8.953,12.223,-1.081016,-1.502078,-5.266975,100070.63,-158,-85,-62
105194,13.842,-7.910,13.760,-0.998007,-1.054573,-4.814150,100071.47,-164,-69,-67
105204,13.276,-9.464,12.781,-0.877218,-0.590041,-4.202224,100070.42,-170,-55,-69
105214,12.884,-12.852,10.167,-0.889988,-0.230335,-3.489197,100070.42,-174,-44,-71
105221,12.696,-15.608,7.775,-0.937878,-0.057932,-2.845344,100073.53,-174,-44,-71
105230,11.892,-17.734,6.468,-0.909676,0.088931,-2.095601,100073.53,-177,-37,-71
105240,10.467,-19.824,6.570,-0.869768,0.252288,-1.010629,100073.84,-178,-33,-71
105249,9.999,-18.714,7.798,-0.936282,0.362435,0.067425,100076.05,-178,-33,-71
105260,10.660,-15.246,8.382,-0.838374,0.508233,1.011920,100076.78,-178,-33,-69
105270,11.116,-9.692,9.074,-0.367457,0.701921,1.927681,100078.18,-178,-38,-67
105280,16.150,14.636,-2.600,-0.164191,0.310820,2.001112,100080.80,-177,-43,-66
105289,15.123,27.111,-10.593,-0.977786,0.155444,0.984250,100078.65,-177,-43,-66
105299,6.802,7.147,-2.020,0.673882,0.890820,1.630231,100078.65,-176,-45,-66
105310,14.947,-2.459,0.923,2.595330,1.449003,2.675827,100078.02,-176,-57,-57
105320,21.259,-7.110,0.304,1.761515,1.285113,2.966891,100078.02,-174,-68,-52
105329,16.567,-6.458,3.665,0.345038,1.235627,2.422543,100079.66,-174,-68,-52
105339,13.009,-2.751,16.502,0.159864,1.712397,2.395937,100075.88,-172,-75,-47
105350,17.773,2.337,11.288,1.210249,1.924177,2.685937,100074.92,-170,-85,-41
