130061,9.380,0.616,2.869,0.000763,-0.002592,-0.003345,100079.66,-19,+136,+252
130071,9.337,0.613,2.824,0.000763,-0.002592,-0.003345,100079.24,-19,+136,+251
130081,9.347,0.601,2.845,0.001828,-0.000996,-0.003878,100079.24,-19,+136,+251
130091,9.380,0.595,2.881,0.005020,-0.000996,-0.001217,100082.03,-19,+136,+252
130101,9.378,0.597,2.887,0.006617,-0.000996,-0.001749,100081.41,-19,+136,+251
130111,9.358,0.640,2.870,0.003956,-0.000996,-0.001749,100080.77,-19,+136,+251
130121,9.366,0.638,2.888,0.003956,-0.002060,-0.001749,100080.25,-19,+136,+252
130131,9.373,0.638,2.900,0.005020,-0.002592,-0.000685,100084.55,-19,+136,+252
130141,9.371,0.667,2.896,0.004488,-0.002060,-0.001217,100080.41,-19,+136,+251
130151,9.361,0.620,2.890,0.006617,-0.002592,0.000379,100081.19,-19,+136,+251
130161,9.402,0.608,2.889,0.006084,-0.003656,-0.000685,100078.14,-19,+136,+252
130171,9.383,0.609,2.890,0.003956,-0.003656,-0.002813,100078.14,-19,+136,+252
130181,9.386,0.630,2.882,0.003424,-0.003656,-0.002281,100078.14,-18,+135,+251
130191,9.389,0.613,2.855,0.003956,-0.004189,-0.002813,100080.72,-19,+136,+252
130201,9.370,0.591,2.882,0.000231,-0.005253,-0.002813,100079.56,-19,+136,+251
130206,9.342,0.601,2.872,-0.002429,-0.004721,-0.003878,100082.56,-19,+136,+251
130216,9.360,0.628,2.870,-0.004558,-0.005253,-0.003345,100077.67,-19,+136,+251
130226,9.388,0.648,2.885,-0.002961,-0.004189,-0.002281,100077.67,-19,+136,+251
130236,9.371,0.645,2.887,-0.000301,-0.003656,-0.000153,100082.04,-19,+136,+251
130246,9.394,0.640,2.863,0.001828,-0.003124,0.000379,100080.68,-19,+135,+252
130256,9.390,0.601,2.897,0.003956,-0.001528,0.000911,100079.21,-19,+136,+252
130266,9.376,0.630,2.903,0.003424,-0.002592,0.000911,100076.99,-19,+136,+252
130276,9.384,0.604,2.931,0.000231,-0.002060,-0.000685,100076.99,-19,+136,+251
130286,9.379,0.557,2.887,-0.002429,-0.002060,-0.002281,100080.97,-19,+136,+251
130296,9.383,0.596,2.889,-0.006154,-0.004189,-0.004410,100078.55,-19,+135,+252
130306,9.365,0.604,2.854,-0.007750,-0.005253,-0.003878,100079.86,-19,+135,+252
130316,9.377,0.689,2.864,-0.007750,-0.004189,-0.003878,100079.28,-19,+136,+251
130322,9.356,0.654,2.877,-0.004558,-0.002592,-0.000685,100079.28,-19,+136,+252
130331,9.380,0.616,2.839,-0.001897,-0.002060,-0.001217,100079.28,-19,+136,+252
130341,9.395,0.631,2.836,-0.001897,-0.000996,0.001444,100080.55,-18,+135,+252
130352,9.401,0.670,2.892,-0.000301,0.001665,0.001444,100083.60,-19,+136,+252
130361,9.372,0.607,2.865,0.003424,0.002197,0.000911,100078.62,-19,+136,+251
130371,9.382,0.594,2.904,0.005552,0.003793,-0.000685,100081.18,-19,+136,+251
130381,9.367,0.540,2.869,-0.000301,0.003793,-0.000685,100081.13,-19,+136,+251
130392,9.351,0.601,2.894,-0.008283,0.003793,-0.002281,100081.45,-18,+136,+253
130401,9.352,0.636,2.883,-0.007750,0.002197,-0.002281,100081.45,-18,+136,+252
130411,9.351,0.669,2.878,-0.003494,0.003793,0.000379,100079.82,-18,+136,+252
130421,9.376,0.631,2.865,-0.000301,0.002729,0.001444,100081.02,-19,+136,+251
130432,9.384,0.618,2.883,0.000231,0.002729,0.001976,100081.02,-18,+136,+251
130441,9.355,0.609,2.885,-0.002429,0.002729,0.000911,100081.71,-19,+136,+252
130451,9.372,0.644,2.902,-0.004558,0.002729,0.001976,100081.45,-19,+136,+252
130461,9.400,0.663,2.902,0.000231,0.004857,0.001444,100077.77,-18,+136,+252
130471,9.377,0.599,2.876,0.005552,0.006986,0.001976,100079.24,-18,+135,+253
130482,9.364,0.563,2.878,0.008213,0.007518,0.000379,100079.24,-18,+135,+251
130491,9.421,0.615,2.921,0.007149,0.008582,-0.002281,100081.07,-18,+135,+251
130501,9.391,0.622,2.907,0.007681,0.008050,-0.001749,100078.84,-18,+136,+252
130511,9.352,0.596,2.894,0.003956,0.006454,-0.002281,100077.73,-18,+136,+253
130521,9.347,0.628,2.906,0.000231,0.005921,-0.003345,100077.73,-18,+136,+252
130531,9.330,0.633,2.901,-0.000833,0.005921,-0.003878,100077.73,-18,+136,+252
130541,9.346,0.634,2.906,-0.001365,0.004857,-0.002813,100082.63,-18,+135,+252
130551,9.365,0.642,2.918,-0.000833,0.005389,-0.001749,100083.63,-19,+135,+252
130556,9.368,0.622,2.939,-0.001365,0.005921,-0.000685,100080.69,-19,+135,+252
130566,9.384,0.594,2.934,-0.001897,0.006986,-0.001217,100082.58,-17,+136,+252
130576,9.384,0.624,2.913,-0.000301,0.007518,-0.003345,100082.58,-17,+135,+252
130586,9.384,0.612,2.952,0.003956,0.006454,-0.003345,100080.13,-17,+137,+252
130596,9.367,0.636,2.898,0.002892,0.006986,-0.004942,100079.20,-17,+137,+252
130607,9.367,0.621,2.891,-0.000833,0.007518,-0.007602,100079.60,-17,+135,+252
130616,9.385,0.620,2.904,-0.002429,0.005389,-0.006006,100078.29,-17,+135,+251
130626,9.365,0.633,2.922,-0.006154,0.004857,-0.006006,100078.29,-17,+136,+253
130636,9.352,0.678,2.901,-0.005622,0.003793,-0.002813,100081.78,-17,+136,+253
130647,9.396,0.717,2.943,-0.004026,0.003793,0.000911,100078.31,-17,+135,+252
130656,9.391,0.725,2.932,-0.003494,0.001665,0.006233,100077.89,-18,+136,+251
130666,9.422,0.706,2.942,-0.004026,0.002197,0.010489,100079.16,-18,+136,+252
130676,9.457,0.680,2.915,-0.005622,0.004857,0.009957,100079.16,-18,+136,+252
130686,9.414,0.692,2.879,-0.008283,0.006986,0.010489,100082.00,-17,+136,+252
130697,9.380,0.642,2.887,-0.010943,0.009646,0.011022,100080.05,-17,+136,+253
130706,9.412,0.670,2.916,-0.012007,0.010178,0.012086,100079.95,-17,+135,+252
130716,9.379,0.643,2.936,-0.010943,0.011775,0.014746,100079.06,-17,+135,+252
130726,9.366,0.685,2.916,-0.010411,0.012839,0.017939,100079.06,-17,+135,+251
130737,9.379,0.679,2.879,-0.006154,0.013371,0.020600,100081.40,-17,+136,+252
130746,9.319,0.547,2.830,-0.005090,0.017628,0.021132,100081.60,-17,+135,+252
130756,9.319,0.505,2.797,-0.011475,0.021353,0.019535,100080.02,-17,+135,+252
130766,9.348,0.557,2.860,-0.010411,0.022949,0.017939,100079.71,-17,+136,+253
130777,9.301,0.595,2.876,-0.003494,0.025077,0.017407,100079.71,-17,+136,+253
130787,9.323,0.553,2.889,0.000763,0.028270,0.014746,100081.41,-17,+134,+251
130792,9.321,0.522,2.930,0.000763,0.029334,0.013150,100081.48,-17,+134,+251
130801,9.346,0.594,2.976,0.002360,0.029334,0.010489,100081.48,-17,+135,+252
130811,9.340,0.593,2.973,0.004488,0.031463,0.007297,100079.16,-17,+135,+252
130822,9.324,0.500,2.910,0.006617,0.034123,-0.002281,100080.52,-17,+135,+252
130832,9.333,0.432,2.940,0.003424,0.035188,-0.012923,100080.52,-17,+136,+252
130841,9.301,0.412,2.924,0.004488,0.036784,-0.025694,100082.42,-17,+135,+252
130851,9.273,0.344,2.916,0.002360,0.037848,-0.039529,100081.75,-17,+135,+252
130862,9.297,0.431,2.887,-0.000301,0.036252,-0.049639,100079.11,-17,+135,+252
130871,9.354,0.502,2.951,0.008745,0.036784,-0.058153,100079.11,-17,+135,+253
130881,9.304,0.518,2.985,0.013002,0.036252,-0.064538,100079.11,-16,+136,+253
130891,9.271,0.571,2.867,0.017259,0.038912,-0.073052,100083.72,-16,+136,+253
130902,9.254,0.502,2.865,0.029497,0.043169,-0.079437,100080.36,-16,+136,+253
130912,9.198,0.518,2.811,0.041736,0.049554,-0.088483,100080.52,-16,+136,+253
130921,9.197,0.474,2.739,0.055039,0.057536,-0.097529,100081.98,-16,+136,+253
130931,9.257,0.463,2.770,0.079516,0.064986,-0.105510,100081.98,-15,+136,+253
130941,9.145,0.473,2.760,0.106653,0.077224,-0.115621,100080.53,-15,+136,+253
130952,8.979,0.310,2.647,0.124745,0.093720,-0.129455,100080.13,-14,+137,+252
130962,8.873,-0.020,2.562,0.105057,0.105426,-0.149143,100079.27,-14,+138,+252
130971,8.847,0.075,2.466,0.069938,0.120325,-0.178942,100079.27,-14,+138,+252
130981,8.967,0.196,2.800,0.077387,0.133628,-0.206611,100079.00,-14,+138,+252
130992,9.179,0.086,3.198,0.077387,0.130435,-0.233217,100079.00,-13,+138,+253
131002,9.346,-0.000,3.305,0.021516,0.120857,-0.285896,100084.56,-12,+138,+253
131011,9.402,0.050,3.182,-0.063622,0.096912,-0.347088,100081.52,-11,+139,+253
131021,9.373,0.433,3.022,-0.097145,0.093187,-0.402428,100080.84,-11,+139,+253
131026,9.459,0.828,3.009,-0.073732,0.095316,-0.432758,100080.84,-10,+139,+253
131037,9.668,1.087,3.145,-0.020521,0.099573,-0.444464,100080.47,-10,+138,+253
131046,9.834,0.910,3.220,0.039075,0.097976,-0.450850,100081.52,-10,+138,+253
131056,9.717,0.800,3.508,0.028965,0.093187,-0.467345,100079.83,-8,+140,+253
131066,9.571,1.147,3.856,-0.039677,0.059665,-0.483841,100080.67,-8,+140,+252
131077,9.506,1.599,4.057,-0.095549,0.011775,-0.484905,100080.67,-7,+140,+253
131087,9.458,2.035,4.003,-0.098209,-0.032923,-0.460960,100081.34,-7,+140,+253
131096,9.507,1.884,3.782,-0.083842,-0.071234,-0.417859,100080.88,-7,+140,+253
131106,9.755,1.639,3.575,-0.049255,-0.133491,-0.376886,100079.03,-7,+140,+252
131117,9.693,1.928,3.206,0.020984,-0.150519,-0.348685,100081.08,-7,+141,+253
131127,9.210,1.975,3.076,0.026305,-0.140941,-0.298666,100081.08,-7,+141,+253
131136,9.173,1.930,3.116,0.003424,-0.137216,-0.232153,100082.29,-7,+142,+253
131146,9.347,1.644,3.169,-0.035420,-0.133491,-0.180538,100079.40,-7,+141,+253
131156,9.370,1.549,3.377,-0.073732,-0.139877,-0.154997,100079.35,-7,+142,+252
131167,9.298,1.469,3.337,-0.060961,-0.155308,-0.147547,100077.46,-7,+142,+252
131176,9.142,1.560,3.237,-0.065750,-0.162757,-0.139566,100077.46,-7,+141,+253
131186,9.040,1.666,3.137,-0.076393,-0.168078,-0.123602,100082.30,-8,+140,+252
131196,9.066,1.505,3.055,-0.075860,-0.163822,-0.107107,100078.52,-8,+141,+253
131207,9.153,1.386,3.021,-0.078521,-0.163289,-0.098061,100078.90,-8,+141,+253
131217,9.110,1.504,3.027,-0.083842,-0.162757,-0.091676,100079.52,-8,+140,+252
131226,8.951,1.579,2.999,-0.079053,-0.160629,-0.084758,100079.52,-8,+140,+252
131236,9.091,1.348,2.889,-0.078521,-0.158500,-0.078905,100082.14,-10,+140,+253
131247,9.203,1.290,2.849,-0.086503,-0.154244,-0.084226,100082.98,-10,+140,+253
131257,9.128,1.402,2.791,-0.083310,-0.145198,-0.090611,100078.05,-10,+140,+253
131262,9.069,1.446,2.728,-0.066282,-0.134555,-0.095400,100080.63,-10,+139,+251
131271,9.094,1.536,2.775,-0.043934,-0.122317,-0.095933,100080.63,-10,+139,+251
131281,9.135,1.706,2.803,0.001295,-0.104225,-0.093804,100080.63,-10,+140,+252
131292,9.151,1.621,2.766,0.032158,-0.090390,-0.082098,100080.67,-10,+140,+252
131302,9.240,1.584,2.762,0.027901,-0.083473,-0.068263,100081.31,-11,+140,+252
131312,9.249,1.669,2.740,0.017791,-0.074427,-0.060281,100080.08,-11,+140,+252
131321,9.099,1.788,2.652,0.012470,-0.060592,-0.049639,100080.08,-10,+140,+252
131332,9.157,1.885,2.786,0.028433,-0.044629,-0.026758,100083.07,-11,+140,+252
131342,9.264,1.760,2.834,0.042268,-0.032923,0.000379,100083.07,-11,+140,+252
131351,9.316,1.498,2.872,0.026305,-0.032923,0.015811,100079.98,-11,+140,+252
131361,9.424,1.326,2.821,-0.018925,-0.042500,0.028049,100081.40,-11,+141,+252
131372,9.474,1.255,2.708,-0.080117,-0.050482,0.029645,100078.13,-11,+140,+252
131377,9.426,1.367,2.676,-0.120558,-0.050482,0.028049,100078.13,-11,+140,+252
131387,9.383,1.581,2.696,-0.140246,-0.049950,0.032306,100079.41,-11,+140,+252
131396,9.327,1.624,2.678,-0.144503,-0.046757,0.049866,100080.41,-12,+140,+252
131406,9.254,1.593,2.685,-0.120026,-0.035583,0.066361,100077.84,-12,+139,+253
131417,9.252,1.492,2.821,-0.095549,-0.025473,0.080196,100077.95,-12,+139,+253
131427,9.271,1.466,2.898,-0.095549,-0.027069,0.087645,100077.95,-12,+138,+252
131437,9.285,1.575,2.903,-0.108319,-0.032923,0.098288,100080.10,-13,+138,+253
131446,9.377,1.568,2.888,-0.126411,-0.036647,0.114783,100082.30,-13,+137,+253
131457,9.204,1.499,2.926,-0.155677,-0.037712,0.128086,100080.73,-13,+137,+253
131467,9.238,1.567,2.958,-0.182815,-0.044629,0.140856,100081.62,-12,+137,+253
131477,9.239,1.628,2.821,-0.181218,-0.044629,0.160012,100081.62,-14,+135,+253
131486,9.204,1.641,2.842,-0.132264,-0.039840,0.183425,100079.98,-14,+135,+253
131496,9.307,1.769,2.733,-0.072136,-0.037712,0.213223,100081.29,-14,+135,+253
131507,9.282,1.889,2.883,-0.043934,-0.029198,0.252599,100081.07,-14,+134,+254
131517,9.260,1.835,2.977,-0.033292,-0.033987,0.304746,100081.60,-14,+133,+253
131526,9.420,1.877,3.065,-0.041273,-0.043033,0.352636,100081.60,-16,+134,+253
131536,9.312,1.891,3.122,-0.047127,-0.049418,0.401058,100083.30,-16,+134,+253
131547,9.277,1.914,3.191,-0.037549,-0.061656,0.453737,100082.25,-15,+133,+253
131557,9.379,1.763,3.067,-0.030099,-0.073363,0.509608,100079.36,-16,+133,+253
131567,9.507,1.353,2.865,-0.077989,-0.085069,0.561755,100081.09,-17,+132,+253
131576,9.852,1.402,3.118,-0.175897,-0.109014,0.612306,100081.09,-17,+132,+253
131587,9.962,2.071,3.467,-0.251989,-0.142537,0.672966,100083.81,-19,+131,+254
131597,9.689,2.635,3.563,-0.278594,-0.169675,0.766085,100080.03,-21,+129,+254
131607,9.615,2.607,3.367,-0.285512,-0.188299,0.890599,100079.45,-22,+127,+254
131612,10.001,2.440,3.052,-0.314246,-0.199473,0.993296,100082.34,-22,+127,+254
131621,10.746,2.768,2.987,-0.353622,-0.217032,1.102911,100082.34,-23,+125,+254
131632,12.008,3.862,3.299,-0.364796,-0.247363,1.276911,100082.34,-26,+122,+254
131642,12.944,3.601,2.936,-0.392998,-0.206390,1.456232,100082.80,-26,+122,+254
131652,13.214,1.871,2.023,-0.599456,-0.035583,1.540305,100081.34,-28,+119,+254
131661,13.463,0.643,1.348,-1.040575,0.129371,1.529663,100080.02,-29,+113,+255
131672,14.588,0.806,0.780,-1.502979,0.143738,1.504121,100080.02,-30,+107,+257
131682,16.089,1.802,0.448,-1.752538,0.061261,1.508910,100081.14,-30,+107,+257
131692,17.267,2.649,-0.190,-1.814263,0.079885,1.538177,100081.14,-32,+98,+259
131701,17.760,3.794,-0.243,-1.654630,0.188435,1.587663,100082.34,-32,+91,+260
131712,15.640,5.442,0.192,-1.228942,0.292197,1.683442,100080.45,-32,+84,+261
131722,13.604,4.427,1.630,-0.723970,0.428949,1.803167,100078.56,-32,+84,+261
131732,11.839,-0.590,4.365,-0.289236,0.598692,1.930874,100078.56,-30,+79,+262
131742,12.034,-6.225,7.226,-0.158337,0.671591,2.053791,100081.85,-30,+77,+262
131751,14.585,-7.653,7.329,-0.404172,0.609334,2.054855,100081.63,-28,+73,+263
131762,14.134,-8.229,9.803,-0.698961,0.666270,2.012286,100076.96,-28,+73,+263
131772,12.688,-5.783,9.882,-0.791016,0.790251,1.985681,100075.28,-26,+68,+264
131782,12.251,-3.943,8.034,-0.693640,0.880178,1.967589,100081.73,-24,+63,+265
131792,11.619,-4.445,6.766,-0.594667,0.940838,1.997919,100073.48,-21,+59,+266
131802,10.697,-5.567,6.163,-0.637768,0.938178,1.996855,100080.84,-21,+59,+266
131812,9.513,-5.479,5.713,-0.748447,0.901994,1.937259,100080.84,-17,+56,+267
131822,8.176,-4.612,4.922,-0.786227,0.876453,1.857974,100079.58,-14,+51,+267
131831,6.942,-3.791,3.829,-0.662245,0.874857,1.779754,100079.58,-11,+46,+268
131842,5.849,-3.803,2.843,-0.438759,0.890820,1.708984,100081.31,-11,+46,+268
131852,4.803,-4.234,2.219,-0.223787,0.886031,1.630764,100080.00,-7,+44,+269
131862,3.968,-4.500,1.794,-0.065750,0.854637,1.534984,100079.91,-5,+42,+269
131872,3.103,-4.222,1.353,0.020984,0.805150,1.416323,100078.33,-1,+41,+270
131881,2.146,-3.563,1.091,0.082708,0.746618,1.287553,100078.33,-1,+41,+270
131892,1.265,-3.007,0.966,0.140176,0.676912,1.172617,100080.25,+1,+40,+269
131902,0.417,-2.671,0.808,0.201901,0.605609,1.069388,100079.20,+3,+41,+271
131912,-0.201,-2.621,0.659,0.282249,0.537499,0.961902,100075.16,+5,+41,+271
131921,-0.529,-2.704,0.520,0.349295,0.467793,0.848562,100075.16,+5,+41,+271
131932,-0.639,-2.626,0.389,0.364726,0.382655,0.726177,100075.16,+7,+41,+270
131942,-0.646,-2.428,0.322,0.374304,0.306563,0.606452,100083.34,+8,+43,+271
131952,-0.480,-2.210,0.403,0.406763,0.236857,0.485663,100080.45,+9,+44,+271
131961,-0.317,-2.072,0.364,0.433369,0.151187,0.375517,100078.02,+9,+44,+271
131972,-0.283,-2.015,0.389,0.427515,0.058068,0.271223,100079.12,+9,+45,+272
131982,-0.186,-2.087,0.377,0.405699,-0.036115,0.160012,100079.12,+10,+46,+271
131992,-0.038,-2.218,0.403,0.380158,-0.114867,0.043480,100078.10,+9,+48,+271
132002,0.181,-2.324,0.513,0.354616,-0.185106,-0.077309,100078.41,+8,+50,+270
132012,0.397,-2.295,0.787,0.368983,-0.251088,-0.201822,100078.34,+8,+50,+270
132022,0.791,-2.466,1.103,0.457314,-0.293656,-0.331125,100078.34,+7,+51,+270
132032,1.208,-2.881,1.579,0.520103,-0.329308,-0.471070,100079.62,+7,+53,+270
132042,1.703,-3.053,1.898,0.517442,-0.387308,-0.638684,100079.62,+5,+56,+269
132051,2.319,-2.813,2.013,0.470084,-0.462335,-0.818005,100080.51,+5,+56,+269
132062,3.042,-2.452,2.213,0.428047,-0.534170,-0.982427,100078.35,+3,+59,+269
132072,3.737,-2.421,2.348,0.389736,-0.595895,-1.113326,100078.82,+1,+60,+269
132082,4.284,-2.610,2.426,0.333864,-0.648574,-1.227198,100078.82,+0,+62,+269
132092,4.737,-2.650,2.584,0.260965,-0.706573,-1.332556,100077.89,+0,+62,+269
132102,5.459,-2.503,2.658,0.225314,-0.765638,-1.415565,100077.58,-1,+64,+269
132112,6.542,-2.349,2.511,0.260965,-0.812995,-1.475161,100078.05,-5,+66,+267
132122,8.000,-2.354,2.861,0.310451,-0.842261,-1.526776,100076.96,-7,+68,+268
132132,9.615,-2.395,3.762,0.448268,-0.868867,-1.613510,100081.99,-7,+68,+268
132142,10.913,-2.673,4.638,0.656855,-0.891748,-1.711950,100080.43,-9,+73,+267
132152,11.815,-3.334,5.335,0.782965,-0.911968,-1.798684,100078.16,-12,+77,+266
132162,12.438,-3.639,5.260,0.781368,-0.937509,-1.907766,100078.16,-14,+81,+265
132172,12.975,-3.165,4.799,0.671222,-0.948151,-2.034408,100079.79,-14,+81,+265
132182,13.194,-2.406,4.364,0.494561,-0.942298,-2.137106,100079.79,-16,+85,+264
132192,13.166,-1.909,3.965,0.275864,-0.927931,-2.214262,100083.92,-19,+89,+263
132202,12.980,-1.302,3.526,0.020451,-0.907179,-2.292482,100080.77,-23,+91,+262
132212,12.851,-0.602,3.116,-0.298814,-0.878977,-2.387197,100080.03,-23,+91,+262
132222,12.671,-0.967,3.802,-0.650539,-0.839601,-2.491491,100081.45,-23,+93,+263
132232,9.124,-12.991,20.624,-0.564869,-0.050482,-2.191381,100081.45,-23,+91,+262
132242,17.916,-5.549,13.326,0.908010,0.062857,-1.920005,100078.45,-21,+97,+261
132252,21.175,-6.760,1.455,0.597791,-0.302702,-1.062776,100082.03,-21,+97,+261
132262,20.953,6.299,-7.919,0.649405,-0.304831,-1.103748,100078.25,-22,+99,+261
132272,27.941,16.872,-3.591,0.608965,-0.374537,-1.260721,100078.25,-21,+103,+261
132282,21.357,11.280,2.797,1.133625,0.044766,-0.714244,100078.25,-21,+108,+259
132292,13.749,-1.346,1.840,1.472047,0.425224,-0.168832,100082.75,-21,+108,+259
132302,8.440,-9.391,0.640,0.918121,0.497591,-0.203419,100082.75,-18,+113,+259
132312,4.141,-5.757,2.654,0.041736,0.379463,-0.501400,100082.75,-17,+114,+259
132322,5.584,0.689,4.163,-0.250925,0.150123,-0.573767,100082.34,-16,+114,+259
132332,7.330,1.542,4.564,-0.016796,0.132564,-0.491822,100082.34,-16,+114,+259
132342,8.588,-0.110,5.318,0.126341,0.181518,-0.448721,100083.05,-15,+115,+259
132353,8.517,-0.381,4.758,-0.029567,0.110747,-0.459896,100079.47,-14,+116,+260
132362,8.655,1.094,3.491,-0.090227,0.083610,-0.474263,100079.34,-13,+115,+259
132372,10.009,1.504,2.599,0.114635,0.160765,-0.425308,100079.34,-13,+115,+259
132382,11.419,-0.133,2.421,0.401974,0.245371,-0.385400,100081.88,-12,+117,+259
132392,11.591,-0.889,1.663,0.426451,0.278362,-0.373694,100081.88,-11,+119,+259
132402,10.803,0.340,2.558,0.346635,0.314545,-0.358795,100081.88,-9,+120,+259
132412,9.543,1.425,3.715,0.466359,0.303371,-0.295474,100079.78,-9,+120,+259
132422,8.708,1.559,3.993,0.512653,0.328912,-0.154997,100081.30,-8,+122,+259
132432,8.775,1.247,4.199,0.339895,0.354631,0.002863,100080.98,-7,+124,+258
132442,9.269,1.172,4.300,0.152947,0.339022,0.096159,100080.98,-6,+124,+258
132452,9.509,1.170,3.961,-0.023714,0.283683,0.161609,100082.45,-4,+124,+258
132462,9.558,1.284,3.983,-0.141310,0.261334,0.200453,100077.52,-4,+124,+259
132472,9.622,0.760,4.030,-0.185475,0.223022,0.236636,100079.25,-3,+123,+259
132483,9.663,0.026,3.885,-0.195053,0.200142,0.275480,100084.34,-3,+122,+260
132492,9.626,0.171,3.890,-0.239218,0.180453,0.278673,100081.02,-3,+120,+260
132502,9.189,0.393,4.018,-0.291365,0.151187,0.268563,100080.02,-3,+120,+260
132512,8.920,0.136,3.959,-0.307860,0.124582,0.267498,100080.02,-3,+120,+261
132523,8.793,-0.089,3.933,-0.287108,0.109151,0.266434,100081.45,-3,+118,+261
132532,8.806,-0.356,3.807,-0.247200,0.092655,0.270159,100081.45,-3,+118,+261
132542,8.808,-0.302,3.674,-0.250392,0.077224,0.269627,100080.91,-3,+118,+261
132552,8.746,-0.083,3.703,-0.250392,0.070307,0.252599,100080.09,-3,+116,+261
132562,8.684,-0.128,3.689,-0.226448,0.068710,0.238232,100083.07,-3,+116,+261
132573,8.728,-0.242,3.619,-0.204099,0.070307,0.227058,100080.71,-3,+114,+262
132582,8.842,-0.206,3.594,-0.197714,0.072435,0.225462,100080.71,-3,+114,+262
132592,9.040,-0.332,3.645,-0.208888,0.078821,0.240893,100080.41,-3,+114,+262
132602,9.118,0.041,3.541,-0.257842,0.091059,0.260581,100080.86,-3,+113,+262
132613,8.863,0.718,3.605,-0.282319,0.105958,0.280801,100079.48,-3,+112,+262
132622,8.754,0.808,3.780,-0.236025,0.132032,0.321242,100079.48,-3,+112,+262
132632,8.917,0.570,3.778,-0.171108,0.155444,0.367003,100079.48,-3,+111,+263
132642,8.870,0.661,3.829,-0.112044,0.178857,0.397333,100082.70,-2,+110,+263
132653,8.600,0.693,3.989,-0.043402,0.200142,0.425003,100083.70,-1,+109,+264
132662,8.502,0.531,3.843,0.035350,0.216637,0.466507,100079.32,-1,+109,+264
132668,8.521,0.852,3.868,0.102928,0.230472,0.500563,100078.16,-2,+109,+264
132677,8.407,1.501,4.157,0.202965,0.247499,0.533553,100078.16,-2,+109,+264
132687,8.065,2.084,4.529,0.397185,0.287940,0.571333,100081.63,-1,+110,+264
132698,7.757,1.689,4.871,0.598855,0.331573,0.637315,100081.25,+0,+111,+263
132707,7.853,0.915,4.889,0.728157,0.366692,0.708085,100080.67,+0,+113,+263
132717,8.377,-0.583,4.699,0.756359,0.402343,0.761296,100080.20,-162,+113,+263
132727,9.353,-2.473,3.529,0.605772,0.382655,0.812911,100080.20,+1,+115,+264
132738,10.521,-3.577,2.562,0.338121,0.376270,0.815039,100081.05,+1,+116,+262
132747,11.439,-4.263,1.990,-0.063622,0.323059,0.812379,100081.20,+1,+115,+262
132757,11.291,-2.394,2.341,-0.373310,0.333169,0.743205,100079.73,+2,+113,+264
132767,10.278,-1.052,3.234,-0.433970,0.381059,0.717131,100082.52,+2,+113,+264
132777,9.424,-0.649,3.790,-0.345108,0.417242,0.770342,100082.52,+3,+112,+264
132788,9.033,-0.801,4.476,-0.267420,0.445976,0.828342,100082.73,+3,+109,+264
132797,8.936,-0.903,4.917,-0.300411,0.437995,0.853351,100082.95,+5,+109,+266
132807,9.099,-0.960,4.859,-0.378099,0.409261,0.875168,100079.84,+5,+109,+266
132817,9.177,-0.851,4.726,-0.465897,0.408729,0.901241,100078.22,+6,+106,+266
132828,9.348,-0.923,4.628,-0.546245,0.409793,0.919333,100078.22,+6,+103,+266
132837,9.837,-1.237,4.333,-0.589346,0.397022,0.950195,100084.24,+7,+101,+267
132847,10.126,-1.466,4.222,-0.619144,0.401811,0.987443,100082.77,+7,+101,+267
132857,10.186,-1.620,4.282,-0.648411,0.411389,1.008727,100081.09,+7,+98,+267
132868,10.287,-1.498,4.178,-0.655860,0.415646,1.043846,100078.57,+8,+95,+269
132877,10.569,-1.192,4.091,-0.637236,0.415646,1.086415,100078.57,+9,+92,+270
132887,10.771,-0.972,4.008,-0.567530,0.423096,1.153461,100084.14,+9,+92,+270
132897,11.000,-0.953,4.020,-0.471750,0.428949,1.241791,100079.52,+10,+89,+271
132902,11.274,-1.267,4.026,-0.420668,0.439059,1.309369,100081.67,+10,+87,+271
132913,11.223,-1.510,4.090,-0.433438,0.469389,1.351938,100081.67,+10,+87,+271
132923,11.151,-1.489,4.266,-0.524429,0.506637,1.388121,100078.16,+12,+83,+271
132932,11.249,-1.376,4.008,-0.589878,0.515151,1.430158,100078.16,+13,+81,+272
132942,11.425,-1.563,4.197,-0.622337,0.518875,1.488690,100081.49,+15,+78,+272
132953,11.603,-1.887,4.377,-0.677144,0.515683,1.520617,100081.15,+15,+78,+272
132963,11.783,-2.332,4.301,-0.751640,0.503976,1.511039,100082.15,+16,+75,+273
132972,11.686,-2.814,3.897,-0.854337,0.481628,1.474323,100082.15,+17,+70,+273
132982,11.309,-2.852,3.711,-0.991621,0.442784,1.407810,100082.15,+17,+66,+274
132993,11.298,-2.502,3.565,-1.068777,0.354986,1.348213,100080.84,+17,+66,+274
133003,11.465,-1.972,3.844,-1.132630,0.231536,1.314158,100082.84,+19,+61,+274
133012,11.568,-1.444,4.135,-1.250759,0.144270,1.264140,100081.30,+19,+55,+274
133022,11.178,-1.325,3.832,-1.407731,0.091591,1.182195,100082.46,+18,+50,+274
133032,10.850,-1.128,3.244,-1.588116,0.013371,1.103443,100082.46,+18,+50,+274
133043,10.956,-0.344,2.948,-1.731786,-0.080812,1.040654,100082.88,+18,+43,+275
133053,11.345,0.450,2.775,-1.786061,-0.153711,1.000214,100081.19,+17,+35,+275
133062,11.363,1.034,2.999,-1.750942,-0.166482,1.007131,100077.80,+17,+29,+275
133072,11.255,1.409,3.590,-1.611529,-0.102097,1.101314,100077.80,+17,+29,+275
133083,12.083,1.277,4.928,-1.348667,0.037316,1.298195,100080.85,+17,+23,+274
133093,13.257,0.056,6.639,-0.802722,0.223022,1.638213,100078.12,+17,+17,+274
133102,15.173,-0.988,7.192,-0.134925,0.417242,2.053259,100078.12,+21,+16,+274
133112,16.358,-1.346,7.352,0.073130,0.584325,2.467240,100081.01,+21,+16,+274
133123,17.079,-1.555,7.248,0.043332,0.739169,2.747130,100079.49,+24,+16,+274
133133,17.929,-1.519,7.082,-0.027971,0.830692,2.881222,100079.49,+29,+15,+275
133142,17.727,-0.655,7.592,-0.084906,0.854104,2.911020,100081.37,+33,+13,+274
133152,16.728,-0.109,7.073,-0.333934,0.774820,2.826414,100078.05,+33,+13,+274
133163,14.815,-0.980,6.542,-0.717053,0.656692,2.683809,100079.21,+37,+11,+274
133173,13.284,0.365,6.615,-0.954374,0.560380,2.543332,100077.54,+40,+7,+274
133183,11.961,-0.365,7.565,-0.897970,0.592306,2.454469,100079.34,+42,+3,+273
133192,12.519,1.436,5.896,-0.831988,0.548141,2.394873,100075.92,+42,+3,+273
133202,11.972,3.601,2.119,-0.979383,0.374674,1.997387,100076.77,+46,+0,+273
133213,10.200,4.231,0.963,-1.062392,0.233664,1.614268,100076.77,+47,-3,+272
133223,8.510,4.185,0.493,-1.011309,0.081481,1.348213,100078.30,+48,-7,+272
133232,7.185,3.699,-0.067,-0.814961,-0.031326,1.030012,100078.30,+48,-7,+272
133242,6.114,2.556,-0.234,-0.568062,-0.073363,0.664452,100079.34,+49,-9,+271
133253,5.241,1.717,-0.003,-0.396191,-0.157436,0.276012,100081.13,+48,-12,+271
133263,4.799,1.863,0.031,-0.239750,-0.327711,-0.143822,100079.08,+47,-13,+270
133272,4.778,2.235,-0.176,-0.108319,-0.527785,-0.604097,100077.92,+47,-13,+270
133282,4.921,2.355,-0.462,-0.006686,-0.712959,-1.091510,100077.92,+43,-13,+271
133293,5.034,2.134,-0.686,0.086433,-0.874188,-1.546464,100081.33,+39,-13,+271
133303,5.193,1.778,-0.792,0.191791,-1.012537,-1.955124,100078.23,+33,-11,+270
133313,5.528,1.529,-0.672,0.340781,-1.140775,-2.343032,100078.13,+33,-11,+270
133322,5.894,1.486,-0.228,0.530745,-1.261564,-2.701674,100078.13,+26,-10,+271
133332,6.254,1.417,0.534,0.750506,-1.358940,-3.033178,100078.13,+19,-7,+269
133343,6.682,1.176,1.194,0.975588,-1.443545,-3.351380,100078.41,+11,-1,+269
133352,7.093,0.838,1.638,1.184708,-1.527087,-3.657875,100075.79,+11,-1,+269
133362,7.566,0.559,1.880,1.389570,-1.607967,-3.953728,100073.63,+3,+5,+270
133372,8.206,0.407,2.287,1.582726,-1.689380,-4.231490,100073.16,-5,+13,+269
133383,8.842,0.284,2.635,1.756193,-1.769197,-4.488499,100073.16,-13,+23,+267
133393,9.485,-0.007,2.912,1.891349,-1.843692,-4.727948,100072.99,-21,+23,+267
133403,10.071,-0.206,3.074,1.989790,-1.898499,-4.946113,100071.68,-21,+35,+267
133412,10.639,-0.227,3.199,2.082377,-1.941600,-5.142461,100071.26,-28,+47,+264
133423,11.388,-0.423,3.253,2.164321,-1.978848,-5.319654,100071.26,-35,+61,+261
133433,12.309,-0.833,3.414,2.193055,-2.020885,-5.485140,100072.82,-39,+77,+258
133443,13.534,-1.337,3.703,2.145166,-2.080481,-5.638920,100074.82,-39,+77,+258
133452,14.704,-1.824,4.286,2.031826,-2.126242,-5.779397,100074.82,-44,+93,+254
133463,15.420,-2.288,5.157,1.887625,-2.162958,-5.908167,100074.60,-48,+107,+249
133473,15.603,-2.557,6.189,1.717882,-2.196481,-6.060351,100072.29,-47,+122,+244
133482,16.146,-2.732,6.741,1.559845,-2.232664,-6.248186,100072.29,-47,+122,+244
133492,17.250,-3.334,7.252,1.427882,-2.226279,-6.422185,100073.38,-48,+136,+239
133502,18.495,-4.974,7.799,1.229937,-2.183178,-6.529140,100071.16,-46,+148,+235
133513,19.265,-7.296,8.072,0.845754,-2.143270,-6.517965,100077.10,-42,+160,+231
133523,19.610,-8.814,8.343,0.320029,-2.058664,-6.409947,100075.85,-42,+160,+231
133533,19.413,-8.765,8.831,-0.166851,-1.881472,-6.222112,100075.95,-39,+169,+229
133542,18.381,-8.710,9.910,-0.531878,-1.624995,-5.902846,100076.70,-33,+175,+227
133553,17.103,-9.697,11.452,-0.815493,-1.311050,-5.426076,100075.70,-28,+179,+227
133563,16.272,-11.095,12.297,-0.949053,-0.938573,-4.821599,100075.70,-28,+179,+227
133572,15.313,-13.039,11.193,-0.937878,-0.588977,-4.124536,100073.96,-22,+181,+228
133582,13.828,-15.790,9.570,-0.884135,-0.329308,-3.299233,100073.96,-16,+182,+229
133593,11.924,-18.319,8.886,-0.772392,-0.122317,-2.304720,100077.27,-14,+182,+230
133603,10.446,-20.340,9.542,-0.726631,0.086270,-1.211767,100076.95,-14,+182,+230
133612,9.362,-20.778,10.054,-0.804319,0.287940,-0.050703,100076.69,-11,+180,+231
133622,9.321,-18.552,10.057,-0.800062,0.511426,1.070452,100076.17,-12,+176,+233
133633,10.245,-14.961,9.771,-0.520704,0.766306,2.092103,100076.17,-12,+173,+235
133643,14.053,0.316,3.598,-0.171108,0.779609,2.518855,100076.92,-12,+173,+235
133653,15.018,27.279,-5.473,0.034818,0.506637,1.836690,100079.16,-15,+170,+235
133663,11.706,34.830,-11.334,-0.396723,0.414050,0.583040,100083.59,-14,+169,+236
133672,5.964,0.236,-1.837,1.348065,1.210086,1.431222,100083.59,-12,+172,+234
133683,13.593,-13.209,6.553,3.338688,1.584691,2.721056,100083.59,-12,+172,+234
133693,18.676,-5.115,3.495,1.712560,1.019591,2.880157,100080.78,-13,+179,+231
133702,17.559,2.579,-0.135,0.472745,0.936049,1.997919,100083.31,-15,+179,+232
133712,17.035,1.609,2.421,0.913864,1.250526,2.339534,100082.16,-14,+180,+231
133724,14.035,-3.027,5.266,1.089815,1.413174,2.659154,100078.04,-14,+180,+231
133733,11.600,-3.145,5.682,0.725497,1.433040,2.393277,100078.04,-14,+180,+231
133743,11.485,0.133,6.550,0.417937,1.413352,2.376781,100078.10,-14,+180,+231
133752,9.663,0.394,8.484,0.412616,1.450067,2.386892,100078.52,-13,+178,+232
133763,9.968,-1.456,7.524,0.465827,1.365462,2.320378,100079.43,-13,+178,+232
133773,10.056,-2.750,5.423,0.142837,1.116967,2.149571,100079.43,-13,+178,+232
133783,9.263,-2.489,4.398,-0.265292,0.898270,1.906396,100080.01,-14,+175,+234
133793,10.758,-2.061,2.834,-0.488778,0.687554,1.721754,100080.74,-14,+172,+235
133803,12.143,-1.668,2.046,-0.621805,0.561444,1.597241,100080.74,-14,+172,+235
133813,11.468,-0.760,2.203,-0.719181,0.535903,1.465277,100080.54,-15,+168,+236
133823,10.324,-0.087,2.032,-0.747915,0.534306,1.308837,100079.49,-16,+165,+238
133832,9.778,0.357,2.040,-0.702154,0.560380,1.156122,100079.49,-16,+161,+239
133842,9.889,0.682,2.156,-0.512723,0.621040,1.010324,100084.73,-16,+161,+239
133853,9.791,1.047,2.847,-0.349897,0.663609,0.903902,100082.88,-16,+158,+242
133863,9.536,0.942,3.489,-0.303603,0.639132,0.828342,100081.46,-14,+156,+242
133873,9.432,0.832,3.783,-0.338723,0.575811,0.745865,100079.79,-14,+155,+244
133883,9.115,0.821,3.948,-0.417475,0.508233,0.651682,100081.88,-13,+153,+244
133893,8.896,0.845,3.914,-0.534007,0.428949,0.576122,100078.93,-13,+153,+244
133903,8.791,1.305,4.054,-0.677144,0.351793,0.514929,100081.24,-12,+150,+246
133913,8.918,1.791,3.793,-0.800062,0.294857,0.475021,100080.09,-13,+148,+247
133922,8.997,2.252,3.247,-0.852209,0.270380,0.456930,100080.09,-12,+144,+248
133933,9.103,2.292,2.928,-0.750576,0.299646,0.477682,100080.09,-12,+144,+248
133943,9.141,1.985,2.501,-0.554227,0.358178,0.539407,100083.57,-12,+142,+249
133953,9.123,1.536,2.434,-0.357879,0.425224,0.613902,100080.05,-11,+139,+250
133962,9.227,0.801,2.937,-0.268484,0.476307,0.669241,100079.79,-10,+138,+251
133972,9.170,0.563,3.574,-0.365860,0.479499,0.679883,100078.63,-10,+138,+251
133983,8.990,0.531,4.127,-0.553163,0.451829,0.662856,100078.63,-10,+136,+251
133993,8.928,0.825,3.999,-0.708007,0.413518,0.657535,100083.13,-9,+133,+253
134003,9.070,1.504,3.647,-0.743126,0.406068,0.677223,100079.40,-9,+130,+254
134012,9.094,1.712,3.335,-0.672355,0.424160,0.734159,100076.93,-9,+130,+254
134023,9.274,1.313,3.290,-0.556888,0.468857,0.812911,100076.93,-7,+127,+255
134033,9.512,0.855,3.209,-0.522301,0.505573,0.883149,100076.93,-7,+124,+257
134043,9.717,0.575,3.094,-0.575512,0.516747,0.945938,100081.66,-6,+122,+257
134052,9.775,0.582,3.170,-0.632447,0.525261,1.006067,100079.41,-6,+122,+257
134063,9.635,0.935,3.319,-0.675548,0.542820,1.073645,100079.26,-5,+118,+259
134074,9.621,1.344,3.573,-0.645927,0.567120,1.164635,100079.99,-4,+115,+259
134083,9.736,1.063,3.723,-0.582961,0.589646,1.255626,100079.99,-3,+112,+261
134093,9.943,0.718,4.079,-0.555823,0.614655,1.336507,100077.99,-3,+112,+261
134103,10.487,0.062,4.420,-0.582961,0.607738,1.393975,100080.57,-3,+109,+261
134113,11.212,-0.606,4.262,-0.676612,0.595499,1.424837,100078.95,-1,+106,+262
134123,11.255,-0.354,4.166,-0.841034,0.604013,1.429626,100079.59,-1,+101,+263
134133,11.393,0.260,3.612,-0.937878,0.560380,1.484966,100081.68,-1,+101,+263
134144,12.030,0.472,3.206,-0.886796,0.542820,1.595112,100081.73,+0,+97,+264
134153,12.337,0.249,2.875,-0.803787,0.558251,1.730268,100081.73,+0,+93,+265
134163,12.573,0.357,2.495,-0.756429,0.565701,1.866488,100081.63,+1,+88,+266
134173,12.686,0.186,2.250,-0.700557,0.580600,2.014415,100077.79,+1,+88,+266
134182,12.816,0.266,2.143,-0.662777,0.604545,2.171919,100077.79,+2,+84,+267
134193,12.850,0.925,2.600,-0.635108,0.615187,2.342194,100080.82,+4,+81,+268
134203,13.089,1.669,3.047,-0.592539,0.628490,2.527901,100080.98,+4,+77,+268
134213,13.731,1.949,3.398,-0.611695,0.655627,2.704561,100078.66,+4,+77,+268
134223,14.479,2.042,3.558,-0.777713,0.697664,2.833864,100079.35,+6,+73,+269
134233,14.893,2.472,3.478,-1.026209,0.717352,2.916341,100082.16,+7,+67,+270
134243,15.528,3.342,3.092,-1.271511,0.671591,2.979662,100081.23,+10,+61,+271
134253,17.311,4.681,2.975,-1.578006,0.540692,3.028084,100081.59,+10,+61,+271
134263,18.974,5.932,2.050,-2.078722,0.445976,2.978065,100079.54,+11,+53,+272
134273,18.926,5.535,0.034,-2.852941,0.451297,2.795552,100079.54,+12,+41,+272
134283,18.867,4.621,-1.226,-3.851179,0.284215,2.553974,100079.54,+13,+26,+272
134293,19.421,6.238,-0.236,-4.807380,0.031463,2.253864,100083.39,+13,+26,+272
134303,17.322,7.942,4.943,-4.714261,0.019224,2.248011,100079.97,+13,+5,+270
134308,16.190,6.718,8.264,-3.431345,0.193224,2.706690,100080.39,+16,-9,+269
134318,18.456,5.509,8.908,-1.554061,0.338490,3.389918,100077.92,+16,-9,+269
134328,20.241,2.497,7.619,-0.018393,0.421499,4.035900,100077.92,+21,-11,+269
134338,18.657,0.358,7.548,0.119956,0.334765,4.077936,100080.24,+26,-12,+267
134348,16.594,1.974,5.890,0.175295,0.383719,3.647992,100077.77,+30,-12,+269
134358,13.776,4.998,5.418,0.280121,0.518875,3.076506,100081.71,+30,-12,+269
134368,10.939,6.861,5.831,0.653662,0.323059,2.594414,100077.09,+35,-12,+269
134378,8.366,0.335,6.601,1.295918,0.225683,2.349644,100077.09,+37,-8,+270
134388,6.572,-1.006,7.422,1.695001,0.238986,1.769112,100080.90,+39,-2,+270
134397,8.819,1.677,3.502,1.211845,-0.032390,1.067259,100079.49,+39,-2,+270
134408,7.026,3.602,1.916,0.991020,-0.169675,0.247810,100078.49,+39,+0,+271
134418,4.966,4.412,0.792,0.856396,-0.348996,-0.343896,100077.85,+39,+5,+271
134428,4.313,3.015,-0.273,0.832451,-0.587913,-0.711051,100077.85,+37,+8,+271
134438,3.978,0.934,-0.407,0.831387,-0.799693,-1.092042,100077.82,+37,+8,+271
134448,3.776,-0.457,0.108,0.796267,-1.010940,-1.461858,100078.18,+33,+13,+271
134458,3.499,-0.688,0.770,0.769130,-1.196114,-1.866794,100079.60,+28,+15,+271
134468,3.202,-0.546,1.478,0.713258,-1.347234,-2.315362,100076.40,+23,+19,+269
134478,3.250,-0.165,1.895,0.685589,-1.493564,-2.747436,100076.40,+23,+19,+269
134488,3.898,0.463,1.856,0.721772,-1.618078,-3.164609,100080.57,+16,+25,+270
134498,4.663,0.859,1.930,0.832451,-1.701087,-3.530701,100078.01,+9,+30,+269
134508,5.286,0.832,1.796,0.973992,-1.783031,-3.834004,100074.79,+3,+37,+267
134518,5.575,0.482,1.795,1.066047,-1.841564,-4.120279,100075.79,+3,+37,+267
134528,5.881,0.274,2.096,1.111809,-1.887325,-4.394847,100075.79,-2,+44,+265
134538,6.491,0.031,2.294,1.197478,-1.907545,-4.636425,100073.24,-8,+53,+263
134548,7.317,-0.026,2.582,1.283148,-1.906481,-4.884921,100071.20,-13,+63,+261
134558,8.414,-0.012,3.192,1.332634,-1.913398,-5.105214,100071.20,-13,+63,+261
134568,9.310,-0.317,3.775,1.384249,-1.921912,-5.289856,100068.93,-17,+73,+258
134578,10.032,-0.781,4.087,1.420432,-1.925637,-5.496315,100068.93,-19,+84,+256
134588,11.187,-1.195,4.269,1.428414,-1.924573,-5.717672,100074.05,-21,+95,+253
134598,12.639,-1.397,4.246,1.416175,-1.933086,-5.902846,100070.91,-21,+95,+253
134608,14.222,-1.354,4.402,1.420964,-1.930958,-6.038534,100073.84,-21,+107,+249
134618,15.615,-1.449,4.653,1.448102,-1.934683,-6.135911,100070.58,-19,+119,+245
134628,17.065,-2.228,4.959,1.423093,-1.977784,-6.192846,100070.58,-17,+129,+241
134638,18.799,-3.741,5.548,1.260799,-2.064517,-6.212534,100079.41,-14,+138,+238
134648,19.976,-5.243,6.509,0.980377,-2.169343,-6.191250,100075.48,-14,+138,+238
134659,20.381,-6.152,7.453,0.656323,-2.236389,-6.123672,100074.32,-12,+146,+235
134668,19.807,-6.239,8.618,0.359937,-2.213508,-6.021507,100073.99,-8,+151,+233
134678,18.077,-5.522,10.297,0.189662,-2.013967,-5.861874,100073.99,-4,+156,+230
134688,16.360,-5.195,11.795,0.155075,-1.631912,-5.658076,100074.83,-4,+156,+230
134699,15.902,-6.727,12.200,0.069938,-1.170573,-5.389360,100073.94,+0,+158,+230
134708,15.417,-10.128,10.326,-0.218466,-0.762977,-5.020076,100075.52,+6,+159,+230
134718,14.800,-14.292,7.890,-0.593071,-0.469785,-4.496480,100075.67,+11,+158,+231
134728,13.615,-17.569,6.037,-0.938410,-0.341014,-3.686609,100075.67,+11,+158,+231
134738,11.229,-18.850,6.435,-1.119328,-0.264922,-2.651656,100078.29,+15,+154,+233
134748,9.698,-18.652,7.883,-1.232667,-0.166482,-1.449620,100078.24,+17,+149,+235
134758,9.066,-15.714,9.048,-1.054942,0.050087,-0.195437,100077.29,+17,+144,+236
134768,8.985,-12.942,9.396,-0.257310,0.411921,0.977865,100076.66,+17,+144,+236
134778,9.406,-13.192,9.303,0.687185,0.789187,2.035699,100076.66,+18,+143,+236
134789,12.279,-7.365,8.107,1.271441,1.041939,2.768946,100080.17,+18,+145,+235
134798,15.568,8.062,1.813,1.342744,1.055242,2.720524,100076.55,+19,+146,+234
134808,19.041,28.370,-9.648,0.368451,0.646582,1.533920,100081.59,+19,+146,+234
134818,11.121,6.389,-5.825,0.344506,0.959994,1.523810,100082.02,+20,+144,+235
134829,13.993,-7.591,3.820,2.037679,1.434104,2.626341,100082.02,+21,+148,+233
134838,21.885,-5.133,3.498,1.290597,1.123884,3.185588,100079.68,+19,+148,+233
134848,18.915,-1.966,0.191,-0.035952,0.945627,2.630598,100079.99,+19,+148,+233
134858,14.607,-1.043,2.191,0.114103,1.153150,2.707222,100079.84,+20,+146,+234
134868,13.399,-0.590,5.980,0.701020,1.388343,2.976469,100079.52,+19,+146,+233
134878,10.433,-0.012,7.203,1.035185,1.545315,2.723717,100079.52,+22,+147,+233
134888,9.519,-0.455,7.204,1.086799,1.583095,2.539075,100078.00,+22,+147,+233
134894,8.073,-1.180,8.467,1.019221,1.603315,2.453405,100077.52,+23,+148,+233
134903,7.537,-1.077,8.537,0.988891,1.584159,2.331552,100077.52,+26,+150,+232
134914,9.087,-1.451,6.929,0.850011,1.419205,2.169259,100078.42,+26,+150,+232
134924,10.283,-3.273,4.483,0.415809,1.165389,1.995259,100078.84,+27,+151,+233
134933,10.690,-3.128,3.661,-0.154613,0.909444,1.817534,100078.84,+27,+150,+233
134943,11.723,-0.951,2.426,-0.548374,0.691811,1.703663,100081.16,+28,+147,+234
134953,11.200,0.977,2.167,-0.678209,0.629554,1.600965,100080.95,+28,+147,+234
134964,9.935,2.115,2.263,-0.504741,0.707774,1.499865,100079.01,+27,+144,+235
134973,10.097,1.190,1.973,-0.176429,0.799829,1.476452,100079.01,+28,+142,+235
134983,10.445,0.281,2.459,0.030561,0.856233,1.474323,100079.01,+29,+142,+236
134993,10.275,-0.125,3.067,0.115699,0.848251,1.411002,100081.46,+29,+142,+236
135004,9.968,-0.783,3.490,0.097075,0.788123,1.281700,100080.77,+30,+142,+236
135013,9.549,-0.651,3.620,-0.030631,0.722673,1.107168,100081.15,+30,+140,+236
135023,9.257,-0.907,3.878,-0.262631,0.644985,0.968819,100077.30,+32,+140,+236
135033,9.395,-0.645,4.116,-0.584557,0.539095,0.816104,100077.30,+32,+140,+236
135044,9.286,0.114,4.178,-0.926704,0.410857,0.677223,100081.46,+33,+137,+238
135054,9.313,0.879,3.186,-1.082612,0.335830,0.586764,100079.91,+32,+133,+239
135063,9.384,1.161,2.324,-0.998539,0.359775,0.576122,100080.15,+33,+130,+240
135073,9.446,1.125,2.256,-0.798465,0.440655,0.626140,100080.15,+33,+130,+240
135084,9.698,0.110,2.570,-0.650007,0.496527,0.674030,100081.70,+34,+127,+242
135093,9.802,-0.552,3.271,-0.677144,0.497591,0.663388,100081.70,+35,+124,+242
135103,9.501,-0.384,3.633,-0.834649,0.458747,0.610177,100080.65,+36,+122,+243
135113,9.018,0.911,4.244,-0.980979,0.435866,0.554306,100079.07,+36,+122,+243
135123,8.218,2.076,4.665,-0.941071,0.384784,0.557498,100080.65,+37,+118,+245
135129,8.274,1.769,4.330,-0.797401,0.359242,0.621884,100080.65,+37,+115,+246
135139,8.933,0.810,4.129,-0.671823,0.373077,0.681480,100082.34,+37,+115,+246
135148,9.453,0.269,3.777,-0.606906,0.371481,0.722452,100079.35,+38,+112,+247
135158,9.481,0.169,3.753,-0.644686,0.377866,0.739480,100079.77,+39,+111,+247
135169,9.549,0.062,3.657,-0.740466,0.391701,0.742140,100079.09,+39,+108,+247
135179,9.785,0.425,3.386,-0.833053,0.418839,0.741608,100079.09,+39,+108,+247
135188,9.991,0.576,3.268,-0.854337,0.459279,0.778324,100081.12,+39,+105,+248
135198,9.813,0.663,3.238,-0.827199,0.511426,0.836324,100077.27,+40,+102,+249
135208,9.735,0.703,3.289,-0.792080,0.545481,0.918269,100076.70,+42,+98,+249
135219,9.992,0.436,3.435,-0.759089,0.564637,1.011388,100079.59,+42,+98,+249
135228,10.472,-0.049,3.502,-0.772924,0.580600,1.092268,100079.59,+43,+96,+250
135238,10.750,0.213,3.422,-0.817089,0.591774,1.158250,100081.35,+44,+93,+251
135248,11.018,0.631,3.471,-0.787291,0.597095,1.251369,100081.35,+45,+89,+252
135259,11.232,0.371,3.229,-0.705346,0.619976,1.369498,100080.52,+45,+89,+252
135268,11.390,0.384,3.314,-0.675548,0.631683,1.499865,100080.57,+47,+88,+253
135278,11.574,0.642,3.426,-0.653732,0.627958,1.644598,100080.57,+48,+84,+253
135288,11.679,0.689,3.681,-0.628722,0.642857,1.783479,100081.38,+49,+81,+254
135299,12.009,0.534,3.501,-0.624466,0.654563,1.914378,100079.02,+49,+81,+254
135309,12.329,0.591,3.252,-0.639365,0.679040,2.043681,100080.91,+50,+79,+254
135318,12.542,0.789,3.365,-0.636172,0.688618,2.191607,100080.53,+51,+75,+254
135328,12.881,0.717,3.226,-0.639897,0.692343,2.337405,100080.53,+53,+73,+254
135339,13.176,0.917,3.163,-0.714924,0.714160,2.467240,100082.09,+53,+73,+254
135349,13.324,1.389,3.103,-0.846887,0.733316,2.588561,100083.31,+54,+70,+255
135358,13.671,1.842,3.047,-1.034190,0.747150,2.703497,100080.42,+56,+65,+256
135364,14.315,2.100,2.678,-1.213511,0.761517,2.775864,100079.78,+56,+65,+256
135373,15.553,2.754,2.409,-1.438594,0.730123,2.836524,100079.78,+58,+60,+257
135384,17.709,4.532,2.533,-1.778080,0.588050,2.906763,100079.78,+60,+54,+257
135394,19.035,5.493,1.934,-2.314446,0.500251,2.901974,100082.75,+61,+45,+259
135404,20.094,5.824,0.440,-3.350996,0.456086,2.776396,100080.23,+61,+45,+259
135413,20.712,10.077,0.884,-4.659454,0.311885,2.542800,100080.78,+62,+29,+259
135424,18.551,13.894,2.063,-5.225086,0.184710,2.483203,100080.78,+63,+9,+257
135434,16.758,10.582,5.302,-4.239087,0.263463,2.876432,100082.73,+65,-4,+256
135443,19.333,3.281,8.508,-1.952079,0.504508,3.644267,100082.73,+65,-4,+256
135453,22.880,-1.773,8.489,-0.178026,0.656692,4.304083,100080.89,+71,-8,+256
135463,21.488,-3.800,8.126,0.035350,0.636472,4.411037,100078.48,+76,-8,+256
135474,18.651,0.114,6.979,-0.117897,0.524196,4.141257,100078.84,+80,-9,+255
135483,15.932,5.912,5.042,0.138580,0.575279,3.618726,100078.84,+80,-9,+255
135494,11.621,7.090,4.206,0.801056,0.597095,3.113754,100080.25,+85,-9,+257
135503,8.763,-1.775,5.625,1.304964,0.526857,2.726377,100081.83,+89,-5,+257
135514,8.730,-5.740,7.701,1.389038,0.354986,2.237369,100082.88,+91,-1,+258
135524,9.124,-2.190,4.158,0.748378,-0.052611,1.407277,100078.55,+91,-1,+258
135534,7.047,1.308,1.971,0.335460,-0.275032,0.569205,100082.70,+90,+0,+259
135543,5.176,3.530,1.039,0.232231,-0.421895,-0.126263,100085.44,+89,-1,+260
135554,4.384,3.233,-0.213,0.248727,-0.648574,-0.568446,100080.59,+85,-2,+261
135564,3.393,2.021,-0.463,0.341314,-0.860885,-0.957418,100080.59,+85,-2,+261
135574,3.111,0.571,-0.159,0.454653,-1.070536,-1.289987,100081.97,+81,-1,+262
135583,3.120,-0.624,0.337,0.537130,-1.256775,-1.609785,100081.97,+74,-2,+262
135593,2.368,-1.053,1.233,0.566928,-1.414279,-1.982794,100085.27,+67,-2,+264
135604,1.754,-0.437,1.879,0.630781,-1.574445,-2.390922,100080.53,+67,-2,+264
135614,2.306,0.536,2.116,0.771790,-1.700022,-2.780426,100079.59,+60,-1,+266
135623,3.540,1.046,2.122,1.010176,-1.779839,-3.124701,100080.17,+50,+1,+267
135633,4.347,0.875,2.332,1.278359,-1.827729,-3.438646,100080.17,+40,+4,+268
135644,4.738,0.570,2.524,1.493331,-1.877747,-3.721196,100081.22,+40,+4,+268
135654,5.057,0.203,2.519,1.606671,-1.952775,-3.989912,100078.17,+32,+11,+268
135664,5.399,-0.157,2.696,1.679570,-2.013435,-4.261820,100078.97,+22,+17,+269
135673,6.032,-0.524,2.890,1.649771,-2.054408,-4.532664,100078.97,+12,+25,+269
135684,6.753,-0.615,3.028,1.566762,-2.100701,-4.789141,100078.97,+12,+25,+269
135694,7.418,-0.339,3.210,1.543882,-2.120921,-5.036572,100079.30,+2,+33,+267
135703,8.274,-0.182,3.446,1.541753,-2.118261,-5.268571,100081.45,-5,+43,+267
135714,9.339,-0.312,3.739,1.525080,-2.112940,-5.498443,100079.00,-13,+53,+266
135724,10.263,-0.656,3.788,1.507166,-2.119857,-5.690535,100079.00,-13,+53,+266
135734,11.326,-0.881,3.871,1.456084,-2.158169,-5.897525,100079.00,-21,+65,+264
135744,13.014,-1.113,4.091,1.403405,-2.203398,-6.069929,100080.30,-28,+76,+262
135754,14.923,-1.731,4.615,1.335295,-2.210316,-6.180608,100080.26,-32,+87,+258
135763,15.924,-2.668,5.640,1.208120,-2.223618,-6.240204,100080.96,-32,+87,+258
135774,16.861,-3.273,6.927,0.991552,-2.267251,-6.323213,100080.96,-37,+99,+256
135784,18.507,-4.114,8.259,0.666433,-2.308224,-6.424314,100083.64,-40,+111,+251
135793,19.919,-5.573,9.072,0.251919,-2.281618,-6.497745,100083.64,-42,+120,+249
135803,20.130,-6.913,9.335,-0.334998,-2.195949,-6.512644,100081.70,-42,+120,+249
135814,18.591,-7.068,10.062,-0.899034,-2.052279,-6.416332,100082.22,-42,+126,+246
135824,16.741,-6.170,11.197,-1.173071,-1.755894,-6.163580,100080.97,-42,+131,+244
135833,16.251,-6.728,11.872,-1.218832,-1.299876,-5.760773,100080.97,-40,+135,+244
135843,16.185,-9.494,11.279,-1.284814,-0.807142,-5.276553,100078.42,-36,+138,+244
135854,15.362,-12.765,8.962,-1.456153,-0.433069,-4.677930,100079.91,-36,+138,+244
135864,14.049,-16.149,7.263,-1.523731,-0.199473,-3.889343,100076.44,-31,+138,+246
135874,12.081,-19.053,6.759,-1.443383,-0.052078,-2.814481,100077.36,-29,+136,+247
135884,10.283,-20.326,7.361,-1.241713,0.146398,-1.562959,100082.34,-26,+134,+248
135894,9.570,-19.190,7.756,-0.866576,0.381591,-0.199694,100079.94,-26,+134,+248
135904,9.779,-16.443,7.996,-0.163126,0.656160,1.133773,100079.41,-25,+132,+249
135914,11.550,-12.516,7.659,0.644616,0.958398,2.241626,100079.41,-24,+132,+250
135923,13.500,-2.187,2.763,1.251753,1.102068,2.821625,100081.72,-24,+133,+248
135933,18.428,28.479,-10.119,1.185240,0.651903,2.178837,100081.72,-24,+133,+248
135944,15.252,27.101,-13.701,0.646213,0.625829,1.186452,100083.74,-24,+134,+249
135949,8.090,0.843,-2.275,2.068542,1.401113,1.931938,100084.16,-24,+134,+249
135959,13.296,-12.327,4.099,3.534504,1.727829,2.945075,100081.79,-21,+140,+248
135968,23.491,-11.338,3.546,2.153147,1.238288,3.535717,100078.65,-20,+147,+245
135979,21.750,-4.749,-0.219,-0.128007,0.879114,2.627405,100078.65,-20,+143,+247
135989,15.625,-0.912,3.910,-0.280191,1.099939,2.665717,100082.34,-20,+143,+247
135999,12.116,1.095,8.730,0.421130,1.393664,3.020634,100079.29,-21,+140,+248
136008,8.963,-0.359,10.675,0.888322,1.591076,2.679552,100082.24,-19,+140,+248
136018,9.892,-2.531,10.356,1.029864,1.666104,2.511405,100077.20,-17,+140,+249
136029,10.775,-3.967,6.538,0.774451,1.486783,2.432653,100077.20,-17,+140,+249
136039,10.721,-3.318,4.937,0.385479,1.310122,2.297497,100084.77,-15,+140,+250
136049,10.388,-3.164,3.995,-0.015732,1.104728,2.036231,100082.87,-13,+138,+250
136058,11.047,-3.630,3.000,-0.449934,0.843994,1.867020,100081.13,-13,+136,+251
136069,11.336,-2.292,2.974,-0.859658,0.653499,1.723351,100079.82,-13,+131,+254
136079,11.038,-0.157,2.908,-1.045364,0.521004,1.551479,100079.82,-13,+131,+254
136089,10.273,0.604,2.945,-0.996410,0.459811,1.399828,100081.91,-13,+126,+254
136098,9.773,1.544,2.496,-0.740466,0.468857,1.222103,100081.98,-12,+122,+256
136109,9.816,2.022,2.623,-0.361071,0.545481,1.136966,100080.13,-12,+120,+256
136119,9.617,1.476,3.215,-0.089163,0.581664,1.118342,100080.60,-12,+120,+256
136129,9.471,0.937,3.593,0.023112,0.561444,1.049700,100080.60,-11,+119,+257
136139,9.688,0.602,3.650,0.050782,0.519407,0.937425,100083.13,-10,+118,+257
136148,9.353,0.543,3.644,0.025240,0.475242,0.812379,100080.66,-8,+118,+257
136159,8.914,0.514,3.839,-0.069475,0.425224,0.709150,100079.55,-8,+118,+257
136169,8.794,0.291,3.903,-0.223787,0.348600,0.613902,100080.19,-8,+118,+257
136179,8.849,0.785,4.009,-0.392466,0.274105,0.522911,100080.19,-7,+116,+259
136184,8.803,1.300,3.940,-0.468557,0.238986,0.466507,100082.74,-7,+116,+259
136194,8.712,1.733,3.424,-0.518044,0.220894,0.426067,100082.74,-8,+113,+259
136204,8.896,1.757,2.614,-0.488778,0.240050,0.423407,100080.48,-7,+111,+260
136214,9.187,1.675,2.021,-0.372778,0.299114,0.469700,100080.54,-7,+111,+260
136224,9.058,1.866,2.046,-0.178558,0.371481,0.539939,100081.43,-7,+110,+261
136235,8.922,1.690,2.495,0.014598,0.451297,0.620819,100082.12,-5,+110,+261
136244,9.031,0.658,3.176,0.035883,0.495995,0.688929,100082.63,-4,+109,+262
136254,9.084,0.132,3.623,-0.166319,0.478967,0.713406,100081.23,-4,+109,+262
136264,9.115,0.533,3.702,-0.422796,0.457151,0.694783,100081.23,-3,+107,+262
136273,8.953,1.330,3.414,-0.556356,0.463004,0.694783,100077.91,-3,+105,+262
136284,8.989,1.608,3.187,-0.594135,0.478435,0.751718,100077.91,-1,+103,+263
136294,9.602,1.192,2.913,-0.543585,0.523664,0.837388,100082.08,+0,+100,+266
136304,10.102,0.521,2.530,-0.561677,0.556123,0.926250,100081.13,+0,+100,+266
136314,10.199,0.300,2.927,-0.667034,0.596031,0.987975,100080.19,+1,+97,+265
136324,9.999,0.294,3.320,-0.795273,0.586985,1.023626,100080.03,+2,+93,+266
136334,9.886,0.658,3.420,-0.860190,0.591774,1.070452,100080.03,+3,+90,+267
136344,10.009,0.871,3.569,-0.859658,0.619444,1.132709,100081.80,+3,+90,+267
136354,9.911,1.167,4.287,-0.821878,0.650838,1.187516,100081.99,+5,+86,+267
136364,9.960,0.541,4.562,-0.778245,0.647114,1.240727,100079.99,+7,+81,+269
136374,10.598,-0.529,4.152,-0.808576,0.655095,1.272654,100079.99,+8,+78,+269
136384,10.750,-0.444,4.080,-0.950117,0.654563,1.288617,100079.99,+8,+78,+269
136394,10.605,0.430,4.272,-1.067181,0.639664,1.334378,100080.70,+10,+73,+271
136403,10.958,0.984,3.988,-1.062392,0.631150,1.439736,100080.39,+12,+69,+271
136414,12.136,0.932,3.552,-0.993218,0.610398,1.594580,100080.39,+14,+63,+271
136424,12.749,0.830,3.447,-0.929365,0.618380,1.753681,100078.70,+14,+63,+271
136434,12.813,0.710,3.021,-0.875621,0.640196,1.912782,100078.70,+16,+59,+272
136444,12.820,0.456,2.657,-0.824007,0.656692,2.072415,100081.17,+18,+55,+273
136454,12.909,0.693,2.664,-0.785695,0.650838,2.246947,100078.55,+20,+52,+273
136464,13.191,0.997,2.752,-0.748447,0.658288,2.433185,100078.78,+20,+52,+273
136474,13.627,1.266,2.930,-0.749511,0.686490,2.614102,100078.78,+23,+48,+273
136484,14.077,1.658,3.113,-0.818686,0.713627,2.779588,100082.55,+25,+43,+273
136494,14.636,2.383,3.118,-0.960759,0.739701,2.934965,100082.55,+28,+37,+274
136504,15.882,3.337,3.043,-1.165621,0.747683,3.066396,100079.73,+28,+37,+274
136514,18.366,5.143,3.252,-1.464667,0.663609,3.191974,100083.98,+30,+33,+274
136524,21.073,7.098,2.827,-1.913768,0.626361,3.249974,100077.26,+34,+25,+274
136534,22.010,9.458,1.665,-2.676813,0.702985,3.160047,100077.26,+38,+15,+273
136544,21.119,12.734,0.740,-3.680904,0.700857,3.040854,100083.09,+38,+15,+273
136554,20.810,15.064,0.860,-4.456188,0.615719,3.014781,100081.73,+40,-1,+271
136564,20.243,11.704,2.952,-4.346573,0.552930,3.173882,100080.05,+45,-18,+269
136574,20.006,1.511,5.919,-3.095051,0.620508,3.688432,100081.11,+50,-29,+266
136584,22.177,-4.616,7.656,-1.802024,0.515151,4.251404,100081.34,+50,-29,+266
136594,21.883,-2.604,9.918,-1.337493,0.247499,4.298762,100083.18,+56,-34,+264
136604,19.729,2.866,9.204,-0.518576,0.364031,4.028982,100080.29,+61,-35,+264
136614,16.367,7.179,6.948,0.395589,0.685958,3.718762,100080.29,+67,-34,+264
136624,10.794,8.539,5.373,1.224084,0.698728,3.312762,100081.91,+67,-34,+264
136634,7.236,-1.358,5.464,1.903588,0.560912,2.884946,100081.91,+73,-27,+264
136644,6.877,-6.197,6.924,2.186138,0.369352,2.345919,100084.36,+76,-19,+266
136654,8.625,-2.422,1.951,1.433558,-0.132427,1.451620,100083.17,+77,-11,+267
136664,6.841,1.306,0.573,0.981974,-0.371876,0.551113,100083.17,+77,-11,+267
136674,4.723,3.841,0.215,0.676543,-0.570353,-0.189052,100082.67,+76,-8,+267
136684,3.552,3.226,-0.179,0.599387,-0.829491,-0.572171,100082.67,+73,-7,+268
136694,2.158,0.960,0.340,0.606304,-1.041803,-0.918042,100083.10,+67,-5,+267
136705,1.408,-0.541,0.669,0.661644,-1.262628,-1.278280,100081.23,+67,-5,+267
136714,1.177,-0.837,1.092,0.726561,-1.439821,-1.734298,100083.96,+61,-2,+268
136724,1.336,-0.351,1.421,0.791478,-1.618078,-2.228628,100083.96,+55,+0,+268
136734,1.711,0.587,1.426,0.866506,-1.783564,-2.665491,100083.96,+46,+3,+270
136744,2.369,1.283,1.306,0.999001,-1.934151,-3.039032,100082.02,+36,+3,+270
136754,3.315,1.076,1.206,1.147460,-2.058132,-3.383307,100083.84,+36,+8,+270
136764,4.150,0.379,1.369,1.248561,-2.159233,-3.691398,100082.48,+27,+13,+269
136769,4.606,-0.055,1.548,1.265056,-2.236389,-3.895728,100080.13,+27,+13,+269
136779,5.000,-0.253,1.694,1.270909,-2.303435,-4.079306,100080.13,+17,+21,+269
136790,5.539,-0.388,2.021,1.341680,-2.347600,-4.333123,100078.80,+8,+29,+268
136799,6.170,-0.609,2.642,1.387441,-2.361967,-4.571508,100080.42,+0,+37,+267
136809,6.704,-0.532,3.310,1.422029,-2.362499,-4.795526,100079.31,+0,+37,+267
136819,7.271,-0.238,3.783,1.474707,-2.363031,-5.031783,100077.00,-9,+46,+266
136829,8.048,-0.159,4.106,1.524194,-2.355049,-5.263783,100077.00,-17,+57,+262
136839,8.870,-0.426,4.386,1.549203,-2.342279,-5.479819,100078.74,-24,+69,+260
136849,9.814,-0.657,4.633,1.544414,-2.337490,-5.703305,100081.37,-24,+69,+260
136859,11.175,-0.838,4.743,1.560909,-2.327912,-5.920938,100083.79,-30,+81,+257
136869,12.700,-1.307,4.963,1.559313,-2.295453,-6.084296,100082.05,-33,+95,+253
136879,13.999,-2.267,5.508,1.497056,-2.277894,-6.179543,100082.05,-36,+107,+250
136889,15.073,-3.194,6.254,1.459808,-2.272040,-6.240204,100079.21,-36,+107,+250
136899,16.355,-4.283,7.349,1.449166,-2.254481,-6.260956,100075.59,-39,+120,+246
136909,17.939,-5.957,8.294,1.271441,-2.267251,-6.222112,100079.52,-39,+132,+241
136920,18.905,-7.508,8.929,0.900561,-2.284811,-6.154002,100077.32,-37,+144,+238
136929,19.596,-8.381,9.821,0.446139,-2.189563,-6.067801,100077.32,-37,+144,+238
136939,19.327,-8.934,10.889,-0.082778,-2.013967,-5.920938,100076.86,-35,+153,+234
136949,16.910,-9.017,12.180,-0.579236,-1.755894,-5.685214,100080.75,-33,+159,+233
136960,14.831,-8.759,13.252,-0.878814,-1.365325,-5.330296,100078.13,-28,+162,+233
136969,14.180,-9.401,13.253,-1.071970,-0.906115,-4.849269,100077.44,-28,+162,+233
136979,13.980,-12.011,11.233,-1.402942,-0.523528,-4.267673,100077.44,-24,+165,+234
136989,13.082,-15.313,9.020,-1.726997,-0.286739,-3.591362,100081.47,-17,+164,+236
136999,11.593,-17.429,8.446,-1.913768,-0.196812,-2.695821,100080.84,-14,+160,+239
137005,9.495,-17.751,9.178,-1.847786,-0.081345,-1.872647,100076.38,-14,+160,+239
137014,8.598,-17.781,9.773,-1.628025,0.107554,-0.988813,100076.38,-12,+155,+241
137024,8.760,-16.989,9.989,-1.313548,0.403940,0.248875,100077.42,-10,+151,+243
137034,9.786,-14.161,9.017,-0.872429,0.695536,1.381204,100077.42,-10,+151,+243
137044,12.516,-5.732,6.400,-0.312649,0.912637,2.251204,100082.27,-10,+147,+244
137055,16.082,15.117,-4.270,0.317369,0.688618,2.229387,100081.23,-10,+145,+244
137064,17.190,42.872,-14.177,0.361534,0.468857,0.948067,100084.23,-10,+146,+244
137074,9.242,14.806,-10.028,1.082543,0.886031,1.065131,100084.23,-10,+146,+244
137084,10.891,-13.877,6.016,3.906981,1.865113,2.601864,100084.23,-7,+152,+242
137095,21.933,-9.597,6.580,3.301440,1.510196,3.527203,100082.62,-7,+162,+239
137104,24.538,-2.592,-1.716,0.770194,1.010013,2.623680,100081.77,-6,+162,+239
137114,17.889,-2.666,0.683,0.376965,1.281921,2.535882,100082.41,-6,+162,+239
137124,13.574,-0.860,6.959,0.636102,1.516581,3.060543,100083.46,-6,+160,+239
137135,8.565,1.250,10.156,0.633974,1.599590,2.793956,100083.46,-5,+161,+239
137145,8.143,1.470,9.158,0.755827,1.629920,2.606653,100080.98,-3,+161,+239
137154,7.774,-1.341,8.540,0.686121,1.513388,2.658267,100082.23,-3,+161,+239
137164,8.590,-3.114,7.591,0.492965,1.325022,2.556103,100078.91,-3,+162,+240
137175,11.085,-3.643,4.819,0.111442,1.056838,2.306543,100078.91,-2,+160,+241
137185,12.105,-4.390,2.766,-0.410025,0.806747,2.061773,100084.05,-3,+157,+242
137194,12.395,-2.721,1.998,-0.714392,0.651371,1.865424,100083.63,-3,+157,+242
137204,11.657,-0.657,2.599,-0.783566,0.599756,1.661626,100083.63,-3,+153,+244
137214,10.230,0.095,2.203,-0.690979,0.584325,1.465810,100080.37,-4,+149,+246
137225,9.701,1.266,1.992,-0.415347,0.656692,1.331718,100082.10,-3,+147,+246
137234,9.868,0.944,2.315,-0.029567,0.768435,1.282232,100082.10,-3,+147,+248
137244,10.069,-0.614,2.914,0.148690,0.814728,1.191241,100082.91,-3,+146,+248
137254,10.358,-1.331,3.503,-0.005622,0.750343,1.017773,100081.02,-1,+146,+247
137265,10.058,-0.934,3.950,-0.343512,0.618912,0.824085,100079.97,+0,+144,+248
137275,9.394,-0.356,3.890,-0.636704,0.485884,0.659131,100082.23,+0,+140,+249
137284,9.184,0.421,3.945,-0.818154,0.379463,0.526636,100083.93,+0,+140,+249
137294,9.116,1.521,4.100,-0.928300,0.303371,0.444159,100081.62,+0,+138,+251
137305,8.835,1.969,3.909,-0.972997,0.260270,0.396801,100079.41,+1,+133,+251
137315,8.760,1.899,3.282,-0.957566,0.251756,0.388287,100080.57,+0,+131,+253
137324,8.990,1.544,2.481,-0.857530,0.275701,0.414893,100080.57,+0,+131,+253
137334,9.360,1.287,2.061,-0.665438,0.333701,0.460654,100080.57,+1,+128,+254
137345,9.486,0.994,2.169,-0.487713,0.405536,0.523975,100084.20,+3,+124,+254
137355,9.380,0.796,2.950,-0.456319,0.451829,0.568673,100082.46,+3,+123,+256
137364,8.888,1.258,4.079,-0.561145,0.444380,0.577718,100082.95,+3,+123,+256
137374,8.355,1.840,4.544,-0.672888,0.399151,0.575590,100080.68,+3,+121,+256
137384,8.448,1.732,4.340,-0.725034,0.382123,0.614966,100080.68,+5,+118,+257
137395,8.915,1.332,3.684,-0.747383,0.372013,0.676159,100082.02,+5,+115,+259
137405,9.489,0.913,2.956,-0.710667,0.378398,0.732562,100079.74,+5,+115,+259
137414,9.647,0.601,2.681,-0.678741,0.406600,0.793755,100075.55,+6,+112,+259
137424,9.748,0.713,2.754,-0.686722,0.450233,0.844305,100075.55,+7,+109,+260
137435,9.868,0.843,2.986,-0.706943,0.494930,0.894324,100075.55,+8,+106,+261
137445,9.975,0.741,3.211,-0.714392,0.511426,0.959241,100080.22,+8,+106,+261
137454,9.868,0.706,3.410,-0.709071,0.551334,1.017773,100082.17,+8,+103,+262
137464,9.461,0.888,3.863,-0.713328,0.578472,1.070984,100082.33,+9,+100,+262
137475,9.159,1.088,4.497,-0.648056,0.573505,1.137675,100079.15,+11,+97,+264
137484,9.580,0.436,4.540,-0.569658,0.579536,1.194966,100079.15,+11,+97,+264
137495,9.998,-0.530,4.572,-0.605842,0.602949,1.210397,100079.35,+13,+93,+264
137504,10.206,-0.560,4.668,-0.753768,0.589646,1.191241,100079.84,+15,+91,+264
137515,10.414,-0.431,4.097,-0.875621,0.567297,1.188580,100079.84,+16,+87,+266
137525,11.115,-0.134,3.520,-0.938410,0.549206,1.227424,100079.84,+16,+87,+266
137535,11.274,0.446,3.295,-0.928832,0.554527,1.315223,100080.69,+17,+82,+266
137544,11.159,0.816,3.023,-0.853273,0.590178,1.449314,100079.48,+17,+79,+267
137554,11.854,0.642,3.000,-0.743658,0.601352,1.620121,100079.48,+18,+75,+267
137565,12.426,0.318,2.957,-0.656924,0.624765,1.787736,100083.75,+18,+75,+267
137575,12.568,0.494,3.163,-0.661181,0.652435,1.937791,100080.22,+21,+73,+268
137584,12.656,0.909,3.258,-0.687255,0.660416,2.091571,100080.22,+23,+68,+269
137594,12.693,1.197,3.246,-0.693640,0.670527,2.257057,100082.49,+25,+65,+269
137605,12.949,1.414,3.322,-0.715988,0.697132,2.434249,100081.01,+25,+65,+269
137615,13.228,1.658,3.327,-0.796337,0.723205,2.606121,100081.23,+26,+61,+269
137625,13.850,1.980,3.034,-0.914465,0.755132,2.762561,100079.96,+28,+57,+271
137634,15.231,2.579,2.970,-1.073034,0.747150,2.909956,100080.66,+32,+52,+271
137645,17.296,3.942,3.051,-1.302906,0.687022,3.041919,100079.19,+32,+52,+271
137655,19.142,5.035,2.616,-1.687621,0.682765,3.098322,100078.56,+35,+47,+270
137665,20.643,5.329,0.787,-2.434171,0.722141,3.033937,100078.30,+37,+37,+271
137674,22.343,8.305,-0.616,-3.601088,0.579536,2.868983,100078.30,+39,+24,+271
137684,22.812,13.921,-0.432,-4.604115,0.395958,2.736488,100078.30,+39,+24,+271
137695,20.333,14.698,1.106,-4.647215,0.331041,2.851955,100078.97,+41,+6,+267
137705,18.170,7.509,5.250,-3.424959,0.403940,3.303717,100079.02,+45,-8,+267
137714,19.486,-0.723,7.565,-1.667401,0.457151,3.907661,100080.28,+49,-15,+265
137724,20.482,-4.135,8.975,-0.980979,0.281022,4.194468,100075.08,+53,-15,+264
137735,18.329,-1.972,8.023,-0.568594,0.271976,3.965129,100075.08,+53,-17,+264
137745,17.010,3.196,6.515,0.205094,0.498123,3.662359,100080.45,+58,-18,+264
137755,13.810,6.084,5.391,1.085203,0.741297,3.287753,100080.24,+64,-14,+265
137764,8.552,5.139,5.398,1.296451,0.475242,2.752983,100079.13,+67,-9,+264
137775,5.709,-2.648,5.733,1.521533,0.341151,2.287387,100079.13,+67,-9,+264
137785,5.473,-3.426,6.180,1.574744,0.172472,1.640874,100079.13,+69,-1,+266
137794,7.666,0.050,2.191,0.955900,-0.202133,0.900177,100080.77,+71,+0,+266
137804,5.845,3.050,1.018,0.636635,-0.358042,0.048269,100083.77,+68,+4,+266
137815,4.556,4.295,0.917,0.422726,-0.555454,-0.547694,100082.88,+68,+4,+266
137825,3.607,3.315,0.721,0.528261,-0.796500,-0.893565,100078.62,+65,+5,+266
137834,2.822,1.670,1.030,0.734543,-0.936445,-1.159620,100078.62,+62,+7,+266
137844,2.324,0.166,1.268,0.928231,-1.105124,-1.519858,100079.82,+57,+12,+266
137854,2.116,-0.668,1.698,0.953772,-1.292958,-1.982794,100077.77,+57,+12,+266
137865,2.369,-0.438,1.937,0.897900,-1.499417,-2.473399,100075.73,+52,+15,+267
137875,3.061,0.359,1.905,0.844157,-1.689380,-2.905472,100073.27,+44,+18,+267
137885,3.934,0.803,1.782,0.898433,-1.820811,-3.288591,100077.73,+36,+23,+267
137894,4.723,0.676,1.912,0.990488,-1.916059,-3.622756,100077.09,+36,+23,+267
137905,5.296,0.244,2.056,1.056469,-2.008114,-3.912224,100077.09,+28,+28,+267
137915,5.509,-0.044,2.234,1.084139,-2.081013,-4.189453,100070.80,+20,+35,+267
137924,5.680,-0.230,2.544,1.084671,-2.136352,-4.451783,100071.16,+12,+40,+267
137934,6.176,-0.516,2.913,1.077754,-2.173068,-4.713581,100071.16,+12,+40,+267
137945,7.034,-0.807,3.088,1.103827,-2.193820,-4.968994,100073.02,+5,+48,+266
137955,7.803,-0.808,3.413,1.108616,-2.193820,-5.212700,100069.98,-1,+55,+263
137965,8.722,-0.630,3.765,1.075093,-2.191692,-5.450553,100068.55,-7,+65,+262
137974,9.639,-0.478,3.716,1.018689,-2.185839,-5.691067,100068.71,-7,+65,+262
137985,10.499,-0.392,3.645,0.988359,-2.163490,-5.933709,100072.13,-13,+73,+259
137995,12.074,-0.441,3.714,0.983570,-2.146462,-6.158791,100069.66,-18,+82,+257
138005,13.747,-0.974,3.875,1.011772,-2.101765,-6.314167,100067.97,-21,+93,+255
138015,14.795,-1.998,4.370,0.952708,-2.070371,-6.393452,100067.61,-21,+93,+255
138024,15.902,-2.751,5.227,0.910139,-2.048554,-6.481782,100067.61,-24,+103,+251
138035,17.883,-3.743,6.290,0.922910,-2.020352,-6.550424,100067.61,-24,+113,+250
138045,19.734,-5.398,7.467,0.885130,-1.994811,-6.497745,100068.18,-23,+123,+246
138055,20.776,-7.205,7.978,0.722836,-1.966609,-6.329066,100068.91,-23,+123,+246
138064,21.195,-8.498,8.074,0.443479,-1.921912,-6.082699,100070.54,-23,+131,+244
138075,19.644,-8.229,8.731,0.182213,-1.798995,-5.777801,100068.65,-23,+138,+240
138085,16.976,-7.140,10.171,0.123681,-1.517509,-5.352645,100068.65,-20,+144,+239
138095,15.381,-7.679,11.818,0.246066,-1.110445,-4.866297,100076.87,-20,+144,+239
138105,14.729,-10.880,11.865,0.175827,-0.694867,-4.341636,100075.46,-16,+150,+238
138115,13.126,-15.008,10.706,-0.180686,-0.372409,-3.752059,100074.13,-12,+154,+237
138125,12.125,-18.113,8.763,-0.668099,-0.213840,-2.995931,100074.13,-8,+154,+238
138135,10.817,-19.052,8.056,-0.958098,-0.085601,-2.006739,100074.13,-8,+154,+238
138144,9.518,-18.675,8.585,-0.945860,0.080949,-0.838226,100079.98,-6,+151,+239
138155,9.446,-17.132,9.504,-0.708539,0.287940,0.386691,100081.09,-6,+148,+239
138165,9.851,-14.908,10.034,-0.225915,0.584325,1.479644,100082.09,-5,+147,+241
138175,11.873,-7.890,8.666,0.261497,0.859958,2.268763,100080.94,-5,+147,+241
138184,13.994,7.699,2.912,0.662176,0.845059,2.455534,100080.94,-5,+146,+242
138194,17.233,34.277,-10.266,0.160928,0.437995,1.316819,100082.89,-6,+146,+241
138205,10.575,16.929,-9.794,0.281717,0.726398,0.997021,100080.84,-3,+145,+242
138215,10.321,-7.875,2.005,2.814560,1.563939,2.357093,100082.05,-2,+154,+238
138225,20.481,-8.242,3.505,2.911404,1.331939,3.336175,100078.59,-2,+154,+238
138235,22.570,-5.053,-0.402,0.805845,0.955205,2.764157,100084.73,-3,+158,+236
138245,17.047,-1.987,0.551,0.012470,1.066416,2.418286,100079.48,-3,+154,+238
138255,14.304,-0.502,4.590,0.255644,1.260636,2.806726,100079.48,-3,+154,+239
138265,10.613,0.559,6.626,0.533937,1.380361,2.678488,100079.48,-3,+154,+239
138274,8.588,0.142,8.649,0.703148,1.491040,2.416690,100082.27,-2,+154,+238
138285,8.044,0.531,9.065,0.900561,1.586820,2.325699,100082.27,+0,+154,+238
138295,8.357,-1.579,6.964,0.916524,1.496361,2.212892,100080.84,+1,+156,+238
138305,10.300,-2.287,4.764,0.767534,1.289370,2.100616,100077.22,+1,+156,+238
138315,10.706,-2.893,4.378,0.381222,1.086104,1.876598,100078.80,+2,+156,+238
138324,11.374,-3.473,3.019,-0.098741,0.811004,1.686635,100078.80,+2,+156,+239
138335,12.315,-2.801,1.855,-0.556356,0.588050,1.578085,100081.19,+1,+152,+240
138345,11.791,-1.276,1.918,-0.869236,0.503444,1.443993,100081.50,+1,+152,+240
138355,10.594,-0.101,2.071,-1.001731,0.467793,1.310966,100079.45,+1,+148,+241
138365,9.919,0.695,2.108,-1.033126,0.451297,1.175278,100080.19,+1,+143,+243
138375,9.682,1.571,1.867,-0.814429,0.486417,1.033204,100080.19,+2,+140,+244
138385,9.874,2.039,2.258,-0.421200,0.591242,0.970415,100080.19,+2,+140,+244
138395,9.699,1.374,3.012,-0.131200,0.654031,0.944874,100082.95,+3,+138,+245
138404,9.651,0.915,3.486,-0.040209,0.625829,0.889003,100080.21,+3,+137,+246
138415,9.451,1.114,3.833,-0.060429,0.565701,0.805461,100078.32,+5,+137,+246
138425,8.791,1.208,3.975,-0.097677,0.504508,0.718195,100080.43,+5,+137,+246
138435,8.434,0.847,4.082,-0.191328,0.432141,0.662324,100080.43,+5,+136,+246
138445,8.532,1.025,4.121,-0.361603,0.345940,0.597407,100079.45,+5,+134,+248
138455,8.818,1.489,3.900,-0.529218,0.281022,0.536214,100079.87,+6,+132,+248
138465,9.026,1.796,3.074,-0.584025,0.279426,0.495241,100077.60,+6,+132,+248
138475,8.970,1.938,2.380,-0.534007,0.316674,0.501627,100077.60,+6,+130,+249
138485,8.945,1.591,1.682,-0.340319,0.387444,0.562819,100078.19,+7,+128,+249
138494,9.172,1.052,1.440,-0.118961,0.483756,0.648489,100078.19,+8,+127,+251
138505,9.228,0.709,2.095,0.002360,0.563573,0.730434,100079.34,+8,+127,+251
138515,9.336,0.547,2.991,-0.031695,0.596563,0.772471,100080.25,+10,+127,+249
138525,9.260,0.512,4.029,-0.234429,0.574215,0.764489,100080.45,+10,+126,+251
138534,9.082,0.721,4.370,-0.452594,0.521536,0.748526,100080.45,+11,+124,+251
138545,9.081,1.159,3.859,-0.588282,0.493334,0.741608,100077.92,+11,+124,+251
138555,9.292,1.617,3.315,-0.620209,0.490141,0.769810,100079.02,+12,+121,+253
138565,9.544,1.405,2.870,-0.554759,0.527921,0.843241,100076.55,+13,+120,+253
138575,9.786,0.676,2.661,-0.514851,0.583793,0.918269,100078.53,+14,+117,+254
138585,9.827,0.604,2.828,-0.517512,0.627958,0.984250,100079.22,+14,+117,+254
138595,9.723,0.697,3.290,-0.559016,0.651371,1.051296,100078.58,+16,+114,+255
138605,9.710,0.348,3.490,-0.637768,0.665738,1.111424,100078.58,+17,+112,+256
138615,9.839,0.132,3.586,-0.723970,0.686490,1.151333,100078.84,+18,+109,+256
138625,9.857,0.017,3.805,-0.781438,0.689150,1.188048,100080.27,+18,+109,+256
138635,9.789,0.377,4.267,-0.820282,0.698196,1.225296,100080.27,+19,+106,+257
138646,10.165,0.037,4.287,-0.804496,0.696600,1.270703,100082.28,+21,+103,+258
138655,10.357,-0.224,4.300,-0.837309,0.700325,1.307773,100082.28,+23,+99,+260
138665,10.200,0.324,4.645,-0.912869,0.698196,1.352470,100076.45,+24,+99,+260
138675,10.595,0.475,4.361,-0.925108,0.686490,1.429626,100080.97,+24,+95,+260
138685,11.500,0.140,3.534,-0.883603,0.662545,1.548819,100080.97,+26,+90,+261
138695,12.306,-0.085,3.071,-0.843695,0.646582,1.689828,100081.61,+27,+87,+262
138705,12.803,-0.739,2.503,-0.805383,0.669994,1.816470,100080.08,+29,+83,+262
138715,13.180,-1.004,2.008,-0.789420,0.674251,1.938323,100079.50,+29,+83,+262
138725,13.448,-0.782,1.948,-0.763878,0.648710,2.084121,100079.50,+30,+80,+262
138735,13.397,0.092,2.428,-0.739933,0.646050,2.234176,100079.50,+31,+77,+264
138745,13.257,1.111,3.045,-0.693108,0.667866,2.393277,100083.56,+33,+73,+264
138755,13.506,1.786,3.769,-0.640429,0.696600,2.551313,100079.78,+33,+73,+264
138765,14.126,1.786,3.879,-0.666502,0.726398,2.698176,100080.83,+34,+71,+264
138775,14.954,2.181,4.080,-0.858062,0.743958,2.812047,100080.67,+35,+66,+264
138785,16.021,3.912,4.434,-1.125181,0.704049,2.925919,100080.67,+38,+61,+264
138796,17.672,5.144,4.278,-1.484355,0.709903,3.019570,100082.34,+38,+61,+264
138805,20.086,5.373,3.128,-2.140446,0.725866,2.989240,100080.19,+40,+55,+265
138815,22.107,7.177,1.316,-3.163161,0.613591,2.808855,100079.67,+41,+42,+264
138825,21.812,11.246,0.503,-4.269949,0.384784,2.649222,100079.67,+43,+26,+264
138835,19.309,14.526,1.698,-4.905289,0.220362,2.700304,100078.32,+43,+26,+264
138845,17.338,11.152,4.515,-4.340720,0.229408,3.030744,100078.32,+44,+7,+263
138855,18.633,3.284,7.122,-2.577308,0.372013,3.646395,100080.95,+47,-2,+260
138865,21.430,-2.726,7.550,-1.134227,0.365628,4.133808,100079.32,+51,-5,+259
138875,20.428,-3.387,8.386,-0.824539,0.277297,4.147110,100077.32,+51,-5,+259
138881,18.019,-0.421,9.310,-0.739933,0.347536,3.927349,100077.32,+55,-9,+259
138890,16.163,3.928,7.367,-0.339255,0.492270,3.645331,100079.48,+55,-9,+259
138900,12.876,7.185,4.743,0.302470,0.659884,3.215919,100077.86,+60,-8,+257
138910,8.408,5.730,5.102,1.030928,0.649242,2.716799,100080.84,+65,-5,+257
138920,7.436,-4.359,6.552,1.555056,0.567297,2.381038,100080.95,+68,+0,+256
138930,8.155,-5.646,4.210,1.257074,0.238986,1.777094,100080.95,+68,+0,+256
138940,8.339,-1.779,-0.075,0.386011,-0.198941,0.856012,100083.61,+69,+5,+257
138950,5.598,2.478,-0.056,-0.084374,-0.363895,-0.117749,100079.36,+69,+5,+255
138960,4.839,4.075,-0.341,-0.312117,-0.609197,-0.660501,100080.92,+65,+5,+254
138970,3.683,3.055,-0.566,-0.253053,-0.802885,-1.082996,100079.98,+62,+3,+254
138980,2.707,1.359,-0.467,-0.062558,-0.942298,-1.450152,100079.98,+62,+3,+254
138990,2.180,0.409,-0.003,0.156139,-1.077986,-1.834867,100079.33,+58,+5,+253
139000,2.072,-0.066,0.683,0.359937,-1.206225,-2.260023,100079.44,+53,+5,+253
139011,2.479,-0.108,0.869,0.546708,-1.344573,-2.678793,100078.13,+46,+8,+253
139020,2.952,0.421,0.702,0.741460,-1.464298,-3.047013,100075.28,+46,+8,+253
139030,3.527,0.956,0.680,1.026671,-1.523894,-3.365747,100075.28,+40,+12,+251
139040,4.214,1.144,1.021,1.384781,-1.555821,-3.656811,100076.50,+35,+18,+251
139051,4.533,0.846,1.457,1.705643,-1.581894,-3.928187,100076.30,+28,+25,+249
139060,4.681,0.320,2.031,1.867936,-1.619674,-4.193710,100072.98,+28,+25,+249
139070,5.260,-0.532,2.421,1.808872,-1.670756,-4.453379,100073.98,+23,+35,+248
139080,5.872,-0.751,2.721,1.679570,-1.767600,-4.750829,100073.98,+19,+42,+246
139090,6.507,-0.289,3.252,1.605606,-1.824004,-5.038168,100071.95,+14,+51,+244
139100,7.412,-0.103,3.633,1.616249,-1.842096,-5.279214,100067.23,+14,+51,+244
139110,8.533,-0.392,3.709,1.689148,-1.850077,-5.517067,100069.06,+10,+59,+241
139116,9.438,-0.884,3.612,1.738634,-1.858591,-5.694259,100066.39,+7,+68,+239
139125,10.367,-1.429,3.373,1.714689,-1.885729,-5.856020,100066.39,+7,+68,+239
139136,11.931,-1.935,2.980,1.592304,-1.970866,-6.057690,100066.39,+6,+78,+236
139146,14.097,-2.381,2.696,1.411386,-2.056536,-6.213066,100072.21,+5,+83,+233
139155,15.639,-3.101,3.155,1.135754,-2.076224,-6.304057,100070.16,+3,+83,+232
139165,16.172,-3.356,4.644,0.807974,-2.107086,-6.404626,100069.63,+3,+90,+232
139175,17.087,-3.590,6.721,0.531277,-2.150187,-6.513176,100069.63,+3,+93,+230
139186,18.724,-4.823,8.445,0.391864,-2.157105,-6.557342,100072.57,+2,+97,+228
139195,20.555,-6.506,9.412,0.261497,-2.115600,-6.521158,100072.57,+0,+99,+228
139205,21.169,-8.197,9.322,-0.038613,-2.049086,-6.350883,100071.57,+0,+99,+228
139215,19.865,-8.455,9.389,-0.429181,-1.899031,-6.099727,100073.24,-1,+101,+226
139226,17.297,-7.223,10.139,-0.602649,-1.612756,-5.755452,100075.46,-2,+101,+227
139235,15.202,-7.142,11.041,-0.497824,-1.201968,-5.290920,100075.46,-3,+102,+228
139245,14.928,-9.614,11.561,-0.417475,-0.768298,-4.738590,100077.52,-3,+102,+228
139255,14.396,-13.108,10.051,-0.615420,-0.411785,-4.121875,100078.84,-2,+103,+228
139266,12.821,-16.289,8.416,-0.920319,-0.165418,-3.440242,100077.63,-3,+101,+229
139276,11.257,-18.247,6.854,-1.118796,-0.040904,-2.536188,100076.80,-2,+99,+230
139285,9.680,-18.164,7.048,-1.032062,0.090527,-1.436849,100080.69,-2,+99,+230
139295,9.118,-17.211,7.746,-0.587218,0.277830,-0.197033,100079.38,-2,+96,+231
139305,9.446,-16.187,8.065,0.000231,0.534306,1.011388,100078.47,-1,+94,+233
139315,10.434,-12.756,7.923,0.503607,0.802490,2.000580,100078.47,-1,+94,+233
139325,12.522,-3.619,4.959,0.975588,0.953609,2.548653,100077.48,-1,+94,+233
139335,16.866,22.911,-6.147,1.062854,0.579536,2.161809,100077.48,+0,+95,+234
139345,14.563,30.109,-12.719,0.412616,0.529517,0.958177,100085.09,+0,+95,+233
139356,6.922,0.855,-0.984,2.455385,1.281389,1.738250,100081.95,+3,+101,+233
139366,16.136,-9.231,4.395,3.737238,1.504343,3.028084,100079.41,+3,+101,+233
139375,24.569,-8.526,0.183,1.755661,0.980747,3.130249,100078.21,+2,+108,+231
139385,20.894,-4.056,-0.584,-0.011475,0.927536,2.512470,100078.21,+3,+107,+232
139396,14.624,-0.266,5.508,-0.071604,1.213279,2.842910,100082.03,+5,+105,+233
139406,11.594,2.871,9.174,0.538194,1.424526,2.963699,100078.53,+5,+105,+233
139415,8.399,1.423,12.320,1.163423,1.687388,2.729570,100078.06,+7,+105,+234
139425,8.945,-1.437,8.113,1.541221,1.737939,2.648157,100078.06,+10,+107,+233
139436,9.312,-3.413,4.828,1.379992,1.558618,2.565148,100078.06,+12,+111,+234
139446,8.649,-2.406,6.019,1.074029,1.417609,2.394341,100082.15,+12,+111,+234
139455,10.309,-3.871,3.520,0.822341,1.084508,2.142653,100083.73,+14,+112,+234
139465,12.604,-6.360,2.222,0.288103,0.820049,2.012286,100079.68,+16,+111,+234
139475,12.832,-4.450,2.222,-0.429713,0.674783,1.768048,100080.95,+16,+109,+235
139486,11.378,-2.427,2.555,-0.952777,0.550802,1.506250,100080.95,+16,+109,+235
139496,10.053,-0.322,2.500,-1.227346,0.461940,1.313094,100082.88,+17,+105,+236
139505,9.542,0.531,2.298,-1.244906,0.446508,1.129516,100082.14,+17,+101,+238
139515,9.834,1.439,2.017,-0.932557,0.492802,0.944874,100080.83,+17,+96,+238
139526,10.209,2.107,2.263,-0.489842,0.593903,0.858140,100080.83,+17,+96,+238
139536,9.987,1.399,2.945,-0.180154,0.660949,0.844838,100083.73,+19,+95,+239
139545,9.783,0.464,3.379,-0.068943,0.638068,0.797480,100083.73,+21,+95,+239
139555,9.395,0.523,3.302,-0.085971,0.588050,0.694250,100083.53,+23,+94,+239
139566,8.914,0.254,3.238,-0.146631,0.548673,0.619755,100082.27,+23,+94,+239
139576,8.850,-0.304,3.130,-0.295090,0.492270,0.556966,100081.84,+24,+93,+240
139585,9.066,-0.287,3.736,-0.616484,0.390637,0.485131,100081.84,+25,+91,+240
139595,9.130,1.082,3.908,-0.938410,0.304967,0.407975,100081.68,+25,+89,+241
139606,9.085,1.987,3.520,-1.115071,0.280490,0.370196,100080.79,+25,+89,+241
139616,9.042,2.143,3.009,-1.068777,0.302307,0.387223,100079.10,+26,+84,+243
139626,9.039,2.057,2.345,-0.827732,0.351261,0.441498,100081.65,+27,+81,+243
139635,8.997,2.181,1.972,-0.471218,0.436930,0.528232,100082.96,+28,+79,+244
139645,8.929,1.756,2.429,-0.140246,0.522600,0.646893,100081.71,+30,+79,+243
139656,9.333,0.444,3.461,-0.045530,0.550802,0.730966,100080.71,+30,+79,+243
139665,9.534,-0.253,4.094,-0.229108,0.534306,0.715535,100080.71,+31,+78,+244
139675,9.135,0.172,4.191,-0.491438,0.493334,0.656471,100079.23,+32,+76,+244
139685,8.942,1.126,3.985,-0.635108,0.457683,0.637315,100079.23,+33,+73,+244
139696,9.131,1.743,3.686,-0.588814,0.456086,0.672966,100083.47,+33,+73,+244
139701,9.373,1.408,3.442,-0.518576,0.451829,0.726177,100080.20,+35,+71,+245
139710,9.813,0.582,3.177,-0.472282,0.465132,0.787370,100078.53,+35,+71,+245
139720,10.258,0.049,2.928,-0.518044,0.498123,0.837920,100078.06,+35,+70,+245
139730,10.329,-0.164,3.055,-0.658521,0.524729,0.859204,100078.06,+37,+68,+245
139741,10.163,-0.171,3.298,-0.806979,0.535903,0.867718,100082.14,+38,+65,+246
139751,10.093,0.135,3.181,-0.914998,0.534839,0.892727,100080.45,+38,+65,+246
139760,9.825,0.585,3.349,-0.961291,0.536435,0.959241,100080.36,+40,+61,+247
139770,9.633,0.923,3.493,-0.912337,0.542820,1.059810,100077.83,+41,+58,+248
139781,9.461,1.238,3.860,-0.849548,0.566765,1.180067,100077.83,+44,+55,+247
139791,9.803,1.593,4.222,-0.759622,0.576343,1.304580,100084.39,+44,+55,+247
139800,10.076,1.164,4.272,-0.657456,0.601884,1.452507,100080.66,+45,+52,+248
139810,10.633,0.496,3.950,-0.634576,0.613059,1.587663,100082.13,+47,+49,+247
139821,11.474,0.300,3.775,-0.664906,0.592839,1.715369,100082.19,+49,+47,+248
139831,12.234,0.280,3.289,-0.677144,0.602417,1.847864,100082.19,+49,+47,+248
139841,12.678,0.005,3.119,-0.675548,0.629022,1.975571,100081.77,+50,+45,+248
139850,12.851,-0.279,2.755,-0.668631,0.640728,2.116048,100079.52,+53,+42,+249
139860,12.801,-0.183,2.785,-0.695768,0.650306,2.253332,100080.30,+54,+40,+248
139871,12.882,0.239,3.046,-0.726099,0.653499,2.396470,100082.50,+56,+40,+248
139881,13.075,0.553,3.151,-0.759622,0.655627,2.547589,100082.50,+56,+38,+249
139890,13.676,1.100,3.320,-0.829328,0.662545,2.703497,100082.13,+59,+35,+249
139900,14.747,1.961,3.544,-0.917126,0.649242,2.865790,100082.91,+62,+31,+249
139911,16.106,2.598,4.163,-1.048025,0.626361,3.029680,100080.65,+64,+28,+249
139921,18.173,3.293,3.800,-1.381126,0.624765,3.158451,100080.65,+64,+28,+249
139930,21.014,6.152,3.516,-2.082446,0.663609,3.164836,100080.65,+65,+23,+249
139936,22.872,9.270,3.317,-2.700226,0.614655,3.136634,100083.06,+65,+23,+249
139945,23.639,11.526,1.886,-3.280226,0.519940,3.131845,100083.06,+68,+13,+249
139956,23.503,12.210,-0.049,-4.044335,0.366160,3.130249,100080.95,+71,+0,+249
139966,22.537,11.836,0.732,-4.689784,0.260802,3.130781,100079.70,+72,-15,+246
139976,18.949,8.869,3.956,-4.281656,0.198545,3.252102,100078.55,+72,-15,+246
139985,16.933,1.948,6.400,-2.452263,0.196949,3.729404,100081.14,+75,-27,+245
139996,17.694,-2.676,7.331,-0.782502,0.136820,4.140193,100080.83,+79,-30,+244
140006,16.520,-2.737,7.620,0.048121,0.183114,4.136468,100078.52,+83,-29,+245
140015,14.802,1.317,6.214,0.615882,0.436398,3.778891,100078.52,+83,-29,+245
140025,13.527,5.582,3.298,1.206524,0.648710,3.272322,100078.14,+87,-26,+247
140036,9.960,4.863,5.404,1.396487,0.633279,2.708818,100078.14,+91,-22,+248
140046,6.263,-0.734,3.619,1.583258,0.356582,2.151167,100078.12,+94,-16,+250
140056,4.299,-6.397,5.670,1.599753,0.274105,1.639809,100081.01,+94,-16,+250
140065,4.912,-3.522,3.096,1.258139,-0.043565,0.908159,100079.38,+96,-11,+252
140076,5.856,-0.227,0.539,0.626524,-0.352188,0.158948,100079.54,+94,-9,+253
140086,3.331,2.620,0.322,0.299277,-0.469785,-0.711051,100079.54,+91,-9,+254
140096,2.647,4.029,-0.323,0.115167,-0.698592,-1.218152,100081.28,+86,-9,+254
140106,2.212,3.057,-0.070,0.191259,-0.877913,-1.510280,100078.38,+86,-11,+256
140115,1.693,1.646,0.454,0.475937,-1.004555,-1.809858,100075.75,+81,-11,+256
140126,1.651,0.500,0.823,0.755295,-1.131729,-2.178610,100075.75,+76,-9,+257
140136,2.047,-0.224,1.191,0.902157,-1.239215,-2.589931,100075.75,+68,-9,+257
140145,2.753,-0.314,1.446,0.916524,-1.357876,-2.990077,100081.95,+68,-8,+261
140155,3.150,-0.016,1.522,0.883001,-1.514316,-3.374793,100077.33,+60,-5,+261
140166,3.673,0.232,1.410,0.850543,-1.664371,-3.745673,100077.59,+49,-3,+262
140171,4.254,0.270,1.263,0.821277,-1.745784,-4.000022,100075.59,+49,-3,+262
140181,4.721,0.164,1.219,0.780304,-1.806444,-4.218719,100075.59,+40,-1,+263
140190,5.173,0.012,1.321,0.706341,-1.885729,-4.482646,100073.60,+30,+0,+264
140200,5.715,-0.055,1.334,0.707405,-1.946921,-4.746572,100076.49,+30,+0,+264
140211,6.530,-0.253,1.653,0.745185,-1.957564,-5.023269,100073.65,+20,+5,+262
140221,7.501,-0.466,2.140,0.762745,-1.968738,-5.277617,100070.76,+9,+9,+264
140230,8.297,-0.600,2.525,0.788818,-1.969802,-5.514938,100070.76,+0,+16,+262
140240,9.215,-0.674,2.979,0.844689,-1.958628,-5.743745,100075.43,+0,+16,+262
140251,10.381,-0.789,3.340,0.920781,-1.948518,-5.964571,100072.70,-9,+23,+262
140261,11.588,-0.906,3.667,1.030928,-1.942132,-6.182204,100072.70,-19,+32,+261
140271,13.166,-0.942,4.142,1.132561,-1.941068,-6.380681,100072.54,-26,+43,+259
140280,15.049,-1.179,4.779,1.218230,-1.957031,-6.516901,100072.54,-26,+43,+259
140286,16.297,-1.645,5.515,1.334230,-1.951178,-6.565855,100074.00,-33,+55,+257
140296,17.723,-2.716,6.424,1.453423,-1.943729,-6.573305,100074.00,-39,+68,+254
140306,20.124,-4.749,7.339,1.433735,-1.980976,-6.516901,100074.17,-39,+68,+254
140316,22.168,-6.683,7.971,1.248561,-2.004389,-6.392387,100075.00,-44,+82,+252
140325,23.592,-8.569,8.528,0.983570,-1.948518,-6.186993,100075.84,-46,+94,+248
140336,22.109,-10.105,9.198,0.577570,-1.871894,-5.897525,100077.62,-50,+104,+245
140346,17.472,-9.372,10.722,0.193919,-1.686720,-5.568681,100076.62,-50,+104,+245
140356,14.330,-7.754,13.116,0.003956,-1.290298,-5.157893,100079.35,-51,+111,+243
140365,13.835,-9.381,13.732,-0.231769,-0.818849,-4.656645,100079.35,-48,+118,+241
140376,12.743,-13.791,11.538,-0.725566,-0.435730,-4.119215,100075.84,-47,+120,+242
140386,11.712,-17.328,8.567,-1.407731,-0.246831,-3.433857,100075.84,-47,+120,+242
140396,10.526,-17.539,6.935,-1.681768,-0.136684,-2.460628,100080.75,-44,+120,+243
140405,9.147,-17.011,6.955,-1.425291,0.038912,-1.254868,100077.39,-43,+118,+244
140416,8.739,-15.938,7.767,-0.942135,0.256013,0.037095,100078.66,-43,+115,+245
140426,9.742,-11.924,8.420,-0.319035,0.536967,1.168892,100078.59,-43,+115,+245
140436,10.909,-6.689,5.898,0.480194,0.795572,1.958011,100078.59,-42,+112,+246
140446,13.855,10.746,0.689,1.115001,0.770563,2.311864,100080.41,-42,+112,+247
140455,16.369,29.905,-12.638,0.143901,0.364031,1.177938,100081.38,-41,+111,+248
140466,8.996,9.097,-6.718,1.084671,0.875389,1.260947,100079.86,-41,+111,+248
140476,12.224,-4.648,1.820,3.171073,1.499554,2.580580,100079.86,-38,+116,+246
140486,22.261,-4.900,-0.698,2.405367,1.199976,3.130249,100079.86,-37,+121,+245
140495,22.036,-7.985,-3.233,0.376433,0.965315,2.505552,100081.34,-37,+120,+246
140506,15.840,-4.521,0.787,-0.718649,1.034490,2.403387,100082.28,-37,+120,+246
140516,11.262,-0.158,15.208,-0.634576,1.443682,2.539607,100078.08,-36,+114,+248
140526,10.063,4.446,17.516,0.466359,1.832122,2.408176,100077.66,-32,+111,+250
140535,14.075,1.523,3.668,0.947919,1.375040,2.382102,100077.66,-29,+112,+250
140546,10.311,-5.510,0.893,0.704212,1.352159,2.582708,100081.45,-29,+112,+250
140556,6.570,-2.324,4.723,0.695167,1.455388,2.398598,100082.97,-26,+112,+252
140566,8.990,-3.291,5.029,0.358341,1.011609,2.129883,100078.56,-24,+111,+253
140576,11.832,-5.425,2.678,-0.327548,0.633811,2.013883,100078.56,-24,+108,+254
140587,12.361,-3.127,1.861,-1.083676,0.455022,1.694617,100078.80,-24,+108,+254
140596,11.782,0.069,2.268,-1.282153,0.397022,1.366305,100078.80,-24,+103,+254
140606,10.916,1.786,1.426,-1.052814,0.414582,1.080562,100081.32,-24,+97,+257
140616,9.404,2.960,2.141,-0.723970,0.539628,0.951792,100081.32,-23,+93,+257
140625,9.170,3.209,3.353,-0.449934,0.567297,1.040654,100079.49,-21,+90,+257
140636,9.491,2.018,3.377,-0.218466,0.547609,1.082690,100079.49,-21,+90,+257
140646,9.501,1.452,2.673,-0.021053,0.536435,1.026287,100082.18,-21,+89,+259
140656,9.576,1.335,3.613,0.065681,0.549206,0.963498,100079.71,-19,+88,+259
140666,9.408,0.250,4.415,-0.143971,0.474178,0.884746,100079.02,-17,+87,+259
140676,9.050,-0.046,4.534,-0.570723,0.337958,0.736819,100079.45,-17,+87,+259
140686,8.967,0.937,3.838,-0.901695,0.220362,0.566544,100081.19,-16,+83,+261
140696,9.093,1.648,3.207,-0.960227,0.196417,0.476618,100080.19,-16,+79,+261
140706,9.060,1.684,2.489,-0.825603,0.194820,0.487260,100079.83,-16,+76,+261
140716,9.370,1.513,2.071,-0.597328,0.228875,0.555902,100079.83,-16,+76,+261
140726,9.669,0.849,2.162,-0.424924,0.274105,0.612838,100082.56,-16,+73,+261
140736,9.591,0.366,2.746,-0.378631,0.304967,0.609645,100082.56,-14,+71,+262
140746,9.245,0.377,3.351,-0.445677,0.303371,0.577718,100085.95,-14,+70,+262
140756,8.836,0.691,3.609,-0.531701,0.281554,0.537455,100080.54,-14,+70,+262
140766,8.712,1.016,3.683,-0.571255,0.265591,0.522379,100080.54,-13,+67,+263
140776,8.778,1.306,3.528,-0.549970,0.250692,0.543663,100079.60,-12,+64,+264
140786,8.933,1.238,3.321,-0.492502,0.248564,0.596342,100079.60,-12,+63,+264
140796,9.074,0.959,3.193,-0.441952,0.244839,0.650617,100081.27,-12,+63,+264
140806,9.309,0.596,3.125,-0.414814,0.245371,0.692122,100080.59,-11,+60,+264
140816,9.441,0.393,3.005,-0.413750,0.249628,0.715535,100079.91,-9,+57,+265
140826,9.397,0.363,2.986,-0.405236,0.259738,0.733627,100079.91,-9,+56,+265
140836,9.301,0.446,3.083,-0.396191,0.275169,0.758636,100079.91,-9,+56,+265
140846,9.254,0.558,3.266,-0.383952,0.285811,0.791627,100078.55,-8,+54,+266
140856,9.233,0.570,3.377,-0.369053,0.295921,0.830471,100081.23,-7,+52,+265
140866,9.169,0.602,3.411,-0.374374,0.314545,0.868782,100078.97,-7,+49,+266
140876,9.160,0.565,3.283,-0.355218,0.329444,0.911351,100081.81,-7,+49,+266
140886,9.148,0.461,3.080,-0.305200,0.344343,0.967755,100081.81,-5,+47,+266
140896,9.076,0.478,3.055,-0.239750,0.364563,1.035333,100079.97,-3,+46,+266
140906,9.080,0.455,3.106,-0.170044,0.386912,1.115681,100081.03,-3,+44,+267
140916,9.192,0.389,3.138,-0.120558,0.397554,1.211461,100081.44,-3,+44,+267
140926,9.365,0.415,3.277,-0.094484,0.408729,1.314690,100081.44,-1,+43,+267
140937,9.686,0.449,3.278,-0.085438,0.430013,1.419516,100081.89,+0,+41,+267
140946,9.922,0.494,3.271,-0.100337,0.464600,1.532323,100080.11,+2,+40,+267
140956,10.093,0.479,3.235,-0.120026,0.494398,1.658433,100080.11,+2,+40,+267
140966,10.267,0.363,3.141,-0.118429,0.515151,1.803699,100078.84,+3,+39,+268
140976,10.493,0.625,3.255,-0.106723,0.537499,1.959075,100077.95,+7,+36,+267
140986,10.843,0.639,3.517,-0.078521,0.559316,2.129350,100077.95,+8,+36,+269
140992,11.181,0.455,3.660,-0.063090,0.578472,2.258653,100082.34,+8,+36,+269
141001,11.588,0.292,3.966,-0.096613,0.588582,2.381570,100082.07,+10,+33,+269
141011,12.354,0.132,4.413,-0.198246,0.583793,2.534286,100083.23,+13,+31,+269
141021,13.372,-0.066,4.780,-0.383952,0.586453,2.671570,100079.09,+13,+31,+269
141031,14.700,-0.253,5.129,-0.681401,0.605077,2.782781,100079.09,+16,+28,+270
141041,16.743,-0.338,4.740,-1.110814,0.617848,2.878561,100083.38,+18,+23,+270
141051,19.410,1.096,3.920,-1.690281,0.633279,2.993497,100078.80,+21,+15,+269
141061,22.182,3.450,3.865,-2.225584,0.568362,3.144084,100079.95,+21,+15,+269
141071,24.258,5.873,2.409,-2.577308,0.456618,3.340964,100077.55,+24,+5,+269
141081,24.974,7.329,1.150,-2.745987,0.398618,3.462285,100077.55,+28,-5,+267
141091,25.735,7.435,0.588,-2.793345,0.119793,3.439405,100082.50,+30,-17,+266
141102,23.849,7.441,1.570,-2.406501,-0.189895,3.364377,100080.09,+30,-17,+266
141111,15.749,5.328,3.460,-1.414117,-0.192023,3.408010,100079.72,+33,-25,+264
141121,10.618,-3.184,6.344,-0.363200,0.076160,3.806028,100076.78,+36,-29,+264
141131,10.770,-7.991,8.721,0.682928,0.553462,3.942780,100076.78,+40,-27,+264
141142,10.884,-5.989,7.922,1.158102,0.823774,3.647992,100080.94,+40,-27,+264
141151,9.499,-2.136,7.106,1.257074,0.800893,3.198891,100079.27,+47,-22,+264
141161,6.911,0.679,4.856,1.319863,0.577407,2.685405,100078.47,+51,-19,+266
141171,4.377,0.654,3.005,1.107020,0.270380,2.075607,100079.53,+54,-14,+266
141181,1.928,-3.346,4.206,0.912799,0.262398,1.578617,100079.53,+54,-14,+266
141191,1.423,-1.164,1.245,0.598855,-0.142537,0.935296,100083.89,+55,-11,+267
141201,0.821,1.634,-0.579,0.238616,-0.430409,0.165333,100081.27,+53,-11,+267
141211,0.565,3.315,0.073,0.075259,-0.576207,-0.442868,100081.52,+51,-11,+267
141221,0.324,2.766,0.478,0.191259,-0.677840,-0.741382,100077.22,+51,-11,+267
141231,-0.090,1.399,0.338,0.450928,-0.751271,-1.044152,100077.22,+46,-10,+267
141241,-0.096,0.123,0.492,0.661112,-0.790647,-1.408115,100084.21,+43,-8,+268
141251,0.438,-0.650,0.954,0.797864,-0.878445,-1.801876,100082.59,+39,-5,+267
141261,1.088,-0.751,1.177,0.842029,-1.039142,-2.194041,100079.96,+39,-5,+267
141272,1.508,-0.556,1.150,0.830323,-1.216867,-2.547894,100079.43,+33,-2,+269
141281,1.992,-0.110,1.087,0.839368,-1.370646,-2.856518,100079.43,+26,+0,+267
141291,2.552,0.293,1.159,0.935148,-1.462169,-3.163013,100079.59,+18,+5,+267
141301,3.280,0.195,1.334,1.060194,-1.494096,-3.457802,100075.70,+18,+5,+267
141312,3.934,-0.102,1.589,1.162891,-1.496756,-3.725985,100079.38,+10,+11,+268
141321,4.690,-0.723,2.025,1.155442,-1.505802,-3.982994,100077.13,+3,+17,+267
141331,5.417,-1.543,2.332,1.058598,-1.534004,-4.219251,100077.13,-3,+23,+266
141341,6.185,-2.625,3.102,0.961221,-1.514848,-4.461361,100079.27,-10,+30,+264
141351,7.226,-4.192,3.867,0.742524,-1.467490,-4.738058,100074.53,-10,+30,+264
141362,8.076,-5.772,4.307,0.337057,-1.459509,-5.034976,100077.73,-16,+37,+264
141371,8.722,-6.648,4.401,-0.108319,-1.471215,-5.280810,100075.42,-23,+41,+262
141381,9.453,-6.789,4.510,-0.487713,-1.470151,-5.400535,100075.42,-29,+44,+261
141391,10.199,-6.687,5.034,-0.665438,-1.435032,-5.402663,100080.44,-29,+44,+261
141402,11.455,-7.148,6.024,-0.773456,-1.382885,-5.360095,100079.39,-34,+47,+259
141411,12.856,-8.144,6.637,-0.973530,-1.344573,-5.305819,100075.77,-39,+51,+257
141421,13.306,-8.684,6.961,-1.161896,-1.256243,-5.187691,100078.03,-43,+54,+256
141431,13.558,-8.927,6.954,-1.262465,-1.095546,-4.960480,100078.03,-43,+54,+256
141442,13.617,-9.400,6.872,-1.307162,-0.890683,-4.621526,100079.07,-47,+56,+254
141451,13.073,-9.943,6.510,-1.393364,-0.707638,-4.247985,100078.32,-49,+57,+253
141461,12.474,-9.952,6.070,-1.529584,-0.576207,-3.845178,100075.85,-50,+56,+253
141471,12.068,-9.855,5.527,-1.631749,-0.453289,-3.444499,100078.16,-50,+56,+253
141481,11.699,-10.132,5.036,-1.720612,-0.307491,-3.047545,100078.16,-51,+55,+253
141492,10.637,-10.327,4.647,-1.904190,-0.193088,-2.652188,100079.13,-51,+53,+252
141501,9.814,-9.298,4.110,-2.113841,-0.156904,-2.281307,100079.87,-53,+48,+253
141511,10.531,-8.654,3.147,-2.250061,-0.172335,-1.905638,100078.18,-53,+48,+253
141521,11.115,-9.317,0.239,-2.225052,-0.276097,-1.340537,100078.76,-53,+43,+253
141532,13.913,-9.098,-5.707,-1.861621,-0.501711,-0.681785,100078.76,-56,+38,+251
141541,15.735,0.788,-9.085,-1.356649,-0.701784,-0.250244,100082.52,-58,+33,+251
141551,11.827,10.318,0.452,-1.204465,-0.467656,-0.459896,100082.16,-58,+33,+251
141561,10.579,10.345,22.247,-0.265824,0.390105,-0.398703,100078.43,-59,+31,+251
141572,21.713,-1.701,15.128,1.947221,0.833352,0.464379,100077.16,-55,+35,+251
141577,30.823,0.488,-5.565,3.157238,0.150655,1.455167,100077.16,-55,+35,+251
141586,23.184,-1.713,-5.293,2.245202,0.604545,1.968653,100077.16,-54,+43,+253
141596,3.298,1.760,2.361,1.681166,1.145169,1.587663,100082.58,-51,+47,+253
141606,3.571,0.023,6.544,1.139478,0.620508,1.347681,100081.53,-48,+49,+254
141617,5.916,-1.538,6.655,0.482855,0.310288,1.280103,100078.48,-48,+49,+254
141627,8.497,-0.223,4.922,-0.520172,0.052215,0.841645,100079.76,-48,+47,+254
141636,10.496,4.302,3.625,-0.727163,-0.013234,0.590489,100082.02,-48,+43,+255
141646,10.836,5.550,2.897,-0.286044,-0.015895,0.787902,100078.71,-48,+42,+254
141657,9.870,1.926,1.209,0.618011,0.154912,0.792691,100078.71,-48,+42,+254
141667,9.203,-0.138,1.723,1.029332,0.298582,0.792691,100081.02,-47,+43,+255
141676,8.960,-1.422,2.113,0.964946,0.275169,0.724581,100081.65,-47,+46,+255
141686,9.916,-2.917,2.131,0.565864,0.258142,0.504287,100081.65,-46,+47,+255
141697,9.485,-1.079,1.924,-0.087035,0.200142,0.179700,100082.05,-46,+47,+255
141707,9.207,1.448,2.071,-0.388209,0.160233,0.004636,100082.90,-45,+46,+256
141717,9.354,3.261,3.248,-0.288172,0.170343,0.024324,100083.52,-44,+45,+256
141726,8.902,3.924,3.948,0.012470,0.180986,0.111590,100077.96,-43,+45,+256
141736,8.618,2.642,4.039,0.279057,0.168215,0.216416,100081.82,-43,+45,+256
141747,8.861,2.082,3.462,0.345570,0.124582,0.254196,100079.46,-43,+47,+257
141757,8.833,1.842,2.997,0.337057,0.106490,0.245682,100078.77,-42,+47,+256
141766,9.181,1.384,2.219,0.280121,0.107022,0.238765,100078.82,-42,+47,+256
141776,9.750,1.453,1.704,0.163057,0.119261,0.230783,100078.82,-42,+47,+256
141787,9.932,0.770,1.433,0.032158,0.153848,0.231315,100078.82,-41,+47,+257
141797,9.793,0.912,1.619,-0.142374,0.188435,0.222801,100082.13,-41,+46,+256
141806,9.244,2.090,2.490,-0.252521,0.220362,0.201517,100080.24,-40,+46,+257
141812,9.230,1.985,2.776,-0.242943,0.243242,0.211095,100080.35,-40,+46,+257
141821,9.475,1.108,2.617,-0.260503,0.249628,0.227058,100078.30,-39,+43,+257
141832,9.300,0.973,2.685,-0.369585,0.259738,0.213223,100078.30,-39,+43,+258
141842,9.116,0.883,3.052,-0.510062,0.237389,0.187150,100082.70,-39,+43,+258
141851,9.333,0.557,2.824,-0.640429,0.211316,0.148306,100083.50,-37,+40,+258
141861,9.293,0.755,3.109,-0.728227,0.207059,0.086581,100081.08,-38,+38,+258
141872,9.571,0.836,3.079,-0.719713,0.191628,0.037627,100079.41,-37,+35,+257
141882,9.955,-0.072,2.737,-0.707475,0.158637,-0.002813,100079.41,-37,+35,+257
141891,9.918,-0.247,2.474,-0.791016,0.146931,-0.072520,100080.09,-36,+32,+258
141901,9.614,-0.364,2.634,-0.918190,0.140013,-0.154997,100080.60,-36,+28,+259
141912,9.491,-0.174,2.721,-1.064520,0.133096,-0.232153,100079.51,-36,+25,+259
141922,9.689,0.880,2.849,-1.211915,0.120857,-0.302391,100079.45,-36,+25,+259
141931,9.851,1.618,3.334,-1.258740,0.120857,-0.335914,100079.45,-35,+22,+259
141941,9.256,2.213,4.056,-1.261933,0.132032,-0.347088,100081.38,-35,+17,+258
141952,9.279,1.743,4.250,-1.185309,0.121389,-0.356134,100082.80,-35,+14,+258
141962,8.935,2.013,4.898,-1.143805,0.071371,-0.377419,100079.17,-35,+14,+258
141972,8.594,2.274,4.765,-1.062392,0.010710,-0.392850,100079.08,-35,+11,+257
141981,9.113,0.980,4.086,-0.957566,0.000600,-0.399235,100079.08,-35,+7,+258
141991,9.261,0.504,3.381,-0.991621,-0.033987,-0.429565,100082.03,-35,+5,+256
142002,9.335,0.901,3.119,-1.053878,-0.043565,-0.470006,100079.25,-35,+5,+256
142012,9.510,0.689,2.878,-1.079419,-0.047289,-0.488630,100079.56,-36,+2,+257
142021,9.644,0.923,2.663,-1.144869,-0.041968,-0.497675,100080.66,-36,-1,+256
142031,9.459,1.320,2.906,-1.192227,-0.020152,-0.512574,100080.66,-37,-5,+255
142042,9.155,1.551,3.252,-1.187970,0.001133,-0.502997,100082.09,-37,-5,+255
142047,8.887,2.078,3.612,-1.174135,0.013371,-0.492354,100080.47,-37,-8,+254
142056,8.607,2.261,3.945,-1.141144,0.018692,-0.464152,100080.47,-37,-11,+254
142066,8.600,2.612,4.364,-1.082612,0.024013,-0.418391,100083.14,-37,-11,+254
142076,8.091,3.104,4.834,-1.009181,0.021885,-0.378483,100079.20,-38,-14,+253
142087,8.356,2.322,4.378,-0.906484,0.008582,-0.325804,100080.67,-37,-17,+253
142097,8.666,1.393,3.774,-0.874025,0.021885,-0.307180,100080.31,-39,-20,+253
142107,8.631,1.724,3.540,-0.892117,0.026674,-0.313033,100078.89,-39,-20,+253
142116,8.724,1.647,3.161,-0.854869,0.030399,-0.296538,100079.94,-38,-22,+252
142127,9.061,1.213,2.983,-0.802190,0.057536,-0.268868,100079.94,-38,-25,+251
142137,9.237,1.465,2.995,-0.790484,0.079885,-0.264079,100079.94,-39,-27,+251
142147,9.262,1.526,3.232,-0.775053,0.107022,-0.245987,100083.08,-39,-27,+251
142156,9.057,1.373,3.443,-0.778245,0.136288,-0.240134,100080.19,-38,-30,+249
142167,8.837,1.500,3.619,-0.807511,0.153848,-0.233217,100081.23,-39,-33,+249
142177,8.720,1.581,3.691,-0.826667,0.158637,-0.228960,100078.03,-37,-35,+249
142187,8.885,1.622,3.729,-0.836777,0.173536,-0.211932,100078.03,-37,-35,+249
142197,8.723,2.561,4.316,-0.856465,0.204931,-0.210336,100080.98,-38,-37,+248
142206,8.920,2.024,4.149,-0.800062,0.219297,-0.189584,100081.28,-37,-40,+248
142217,9.020,1.128,3.909,-0.803254,0.237921,-0.176813,100078.47,-37,-42,+248
142227,8.873,1.616,3.789,-0.889988,0.242710,-0.206079,100078.47,-37,-42,+248
142237,9.100,1.222,3.520,-0.929365,0.251224,-0.207143,100078.28,-36,-45,+247
142246,9.198,0.862,3.116,-0.982575,0.283683,-0.225767,100078.28,-35,-47,+245
142257,9.242,1.168,3.337,-1.024612,0.314013,-0.236409,100081.39,-34,-51,+246
142267,9.249,1.014,3.377,-1.041640,0.313481,-0.224171,100082.33,-34,-51,+246
142276,8.954,0.652,3.537,-1.090062,0.331041,-0.218850,100079.55,-34,-55,+244
142286,9.086,0.250,2.949,-1.150190,0.326784,-0.239602,100079.55,-33,-58,+243
142297,9.118,0.910,3.175,-1.234795,0.325719,-0.228960,100081.98,-33,-61,+242
142307,8.489,2.726,4.440,-1.228942,0.381059,-0.251841,100079.52,-33,-61,+242
142317,8.594,2.501,4.856,-1.051750,0.426820,-0.215657,100077.05,-32,-65,+239
142327,8.711,0.639,4.813,-0.939475,0.470453,-0.177345,100077.91,-30,-69,+240
142337,8.361,0.572,4.473,-0.975658,0.461407,-0.225235,100078.22,-30,-71,+239
142347,8.198,0.730,4.462,-0.963952,0.445976,-0.271529,100079.80,-30,-71,+239
142357,8.462,0.686,3.953,-0.911805,0.428417,-0.288024,100079.80,-29,-73,+238
142366,8.826,0.261,3.759,-0.850080,0.445976,-0.288556,100079.42,-28,-77,+238
142376,8.849,0.595,3.544,-0.828264,0.455554,-0.305584,100078.42,-27,-79,+236
142387,9.245,-0.071,3.115,-0.811768,0.457151,-0.297602,100078.42,-27,-79,+236
142397,9.380,-0.585,2.778,-0.915175,0.461762,-0.328464,100080.77,-26,-81,+236
142406,9.311,-0.843,2.730,-1.066117,0.464600,-0.368373,100080.77,-24,-85,+235
142416,9.622,-0.839,2.943,-1.256612,0.441187,-0.437547,100080.43,-24,-87,+233
142427,9.676,-1.625,3.125,-1.460942,0.365096,-0.455107,100079.12,-24,-87,+233
142437,9.271,-1.896,3.778,-1.688685,0.275701,-0.481180,100079.12,-24,-91,+231
142447,9.142,-1.065,4.746,-1.963254,0.129903,-0.508318,100081.30,-24,-97,+228
142457,9.231,-0.523,4.485,-2.316575,-0.061656,-0.493419,100078.99,-26,-103,+224
142467,9.294,0.412,4.917,-2.611896,-0.141473,-0.495015,100078.99,-26,-103,+224
142477,9.906,1.444,5.382,-2.703418,-0.175528,-0.466281,100078.99,-28,-111,+219
142487,11.483,3.178,5.224,-2.833786,-0.161693,-0.388061,100078.99,-30,-119,+214
142496,12.540,3.953,5.324,-2.949785,-0.132959,-0.291749,100081.75,-30,-127,+208
142507,13.193,3.153,5.344,-2.815161,-0.018023,-0.199694,100080.28,-30,-127,+203
142517,14.316,1.560,3.465,-2.851345,0.073499,-0.078905,100082.11,-30,-134,+203
142527,12.444,1.548,4.905,-3.082813,0.155444,0.032838,100081.38,-30,-140,+195
142537,11.085,1.560,8.136,-3.290868,0.349132,0.133939,100081.38,-29,-149,+189
142546,10.120,-0.989,11.011,-3.731455,0.569958,0.215352,100079.45,-26,-158,+180
142557,10.686,-2.662,12.385,-4.432243,0.847187,0.262177,100079.65,-26,-158,+180
142567,12.267,-3.272,12.275,-5.360775,1.108453,0.282398,100076.24,-24,-170,+167
142577,14.187,-6.355,12.594,-5.948756,1.507003,0.519186,100076.24,-19,-183,+153
142587,15.028,-6.918,10.380,-6.445214,1.861920,0.784709,100080.23,-12,-194,+137
142597,15.237,-5.363,8.728,-6.725104,2.190764,0.913480,100080.23,-12,-194,+137
142607,16.048,-2.714,6.492,-6.824608,2.367424,0.993828,100080.81,-5,-206,+117
142617,16.761,0.543,5.904,-6.520242,2.480764,1.147076,100078.77,+0,-215,+99
142626,16.858,1.957,6.451,-5.867875,2.548342,1.387589,100079.13,+8,-220,+82
142632,16.762,1.470,7.337,-5.310756,2.597296,1.612672,100079.13,+8,-220,+82
142642,16.504,0.522,7.859,-4.762151,2.634012,1.843608,100081.31,+17,-225,+67
142652,16.145,-0.462,7.196,-4.234830,2.681901,2.049002,100077.53,+17,-225,+67
142662,15.622,0.104,6.119,-3.949620,2.682434,2.093699,100078.64,+27,-226,+56
142671,14.834,1.878,4.151,-3.910776,2.571223,2.003240,100078.59,+35,-228,+43
142682,13.603,3.665,1.863,-3.943766,2.382856,1.811681,100078.59,+44,-229,+30
142692,11.916,5.302,-0.196,-3.906519,2.179590,1.561057,100085.33,+44,-229,+30
142702,10.093,6.815,-2.104,-3.811271,1.926838,1.259883,100080.86,+49,-228,+16
142712,8.746,7.991,-3.543,-3.681436,1.624067,0.889003,100079.91,+53,-227,+4
142722,7.767,9.104,-4.468,-3.497858,1.292563,0.465975,100082.22,+55,-226,-7
142732,6.974,9.981,-5.230,-3.229143,0.965847,0.020600,100082.22,+55,-226,-7
142742,6.397,9.965,-5.621,-2.907749,0.696068,-0.448189,100083.51,+55,-223,-17
142752,5.741,9.148,-5.614,-2.570923,0.462472,-0.923363,100081.26,+51,-222,-25
142761,5.268,8.017,-5.749,-2.310189,0.240582,-1.400134,100080.15,+47,-220,-34
142772,5.267,7.074,-5.800,-2.065951,0.011775,-1.875308,100078.99,+41,-220,-40
142782,5.742,6.149,-5.901,-1.799364,-0.203730,-2.312702,100078.99,+41,-218,-40
142792,6.260,5.062,-5.597,-1.498722,-0.353785,-2.701142,100080.20,+33,-216,-46
142801,6.888,3.956,-5.022,-1.211383,-0.492665,-3.072555,100078.00,+23,-214,-49
142812,7.336,3.092,-4.337,-0.986832,-0.638463,-3.430132,100077.89,+11,-210,-52
142822,7.451,2.869,-3.458,-0.771328,-0.767766,-3.785049,100079.63,+11,-210,-52
142832,7.596,2.845,-2.670,-0.493567,-0.863014,-4.133049,100079.63,+0,-209,-55
142842,7.922,2.710,-1.933,-0.126943,-0.926867,-4.447526,100079.86,-14,-206,-56
142852,8.677,2.104,-1.554,0.293424,-0.974757,-4.710920,100078.13,-28,-202,-55
142862,9.689,1.306,-1.136,0.677607,-1.026371,-4.922700,100078.17,-28,-202,-55
142868,10.424,0.790,-0.868,0.919185,-1.081711,-5.050406,100075.23,-44,-198,-55
142877,11.199,0.263,-0.511,1.115001,-1.153014,-5.155232,100075.23,-44,-198,-55
142886,12.330,-0.478,0.136,1.298579,-1.267417,-5.267507,100075.23,-59,-194,-52
142897,13.466,-1.216,0.893,1.370414,-1.418004,-5.361159,100077.66,-74,-187,-50
142907,14.419,-1.682,1.615,1.329441,-1.592004,-5.451085,100080.45,-87,-180,-49
142917,15.298,-1.889,2.233,1.196946,-1.756426,-5.533030,100079.20,-87,-180,-49
142927,16.211,-1.806,2.773,0.991020,-1.899031,-5.609654,100079.20,-102,-172,-49
142938,17.045,-1.596,3.464,0.748910,-2.020352,-5.682021,100083.19,-116,-161,-51
142947,17.782,-1.632,4.171,0.530213,-2.112940,-5.750131,100083.19,-127,-150,-55
142957,18.228,-2.206,4.731,0.277460,-2.167215,-5.805470,100081.39,-127,-150,-55
142967,18.107,-3.363,5.575,-0.098741,-2.187435,-5.824626,100078.83,-140,-136,-59
142977,17.593,-4.104,6.669,-0.377035,-2.126774,-5.812387,100077.72,-149,-121,-66
142987,17.280,-4.693,7.712,-0.534539,-1.915527,-5.741617,100077.72,-157,-105,-72
142997,17.059,-6.200,9.463,-0.674484,-1.622334,-5.558039,100078.02,-165,-88,-79
143007,16.410,-8.450,11.366,-0.775053,-1.336059,-5.238773,100076.55,-165,-88,-79
143017,15.975,-10.605,11.368,-0.797933,-1.006151,-4.782223,100077.55,-171,-72,-82
143027,15.233,-13.174,10.451,-0.917126,-0.645381,-4.228297,100078.52,-176,-59,-86
143037,13.601,-14.472,8.922,-1.135291,-0.405931,-3.611050,100084.45,-179,-45,-89
143047,11.694,-14.255,7.900,-1.367823,-0.245234,-2.900683,100080.98,-179,-45,-89
143057,9.820,-13.523,7.872,-1.417309,-0.086133,-2.147216,100077.52,-181,-35,-90
143067,9.389,-12.866,8.227,-1.265126,0.066582,-1.358097,100077.52,-183,-29,-92
143077,9.457,-12.692,8.174,-0.931493,0.305499,-0.516831,100077.88,-184,-25,-92
143087,9.443,-11.959,7.086,-0.342980,0.513554,0.460654,100077.88,-184,-25,-92
143097,11.082,-10.773,3.371,0.515314,0.638068,1.492415,100080.31,-183,-29,-89
143102,15.007,-0.005,-3.939,1.137350,0.486949,2.143717,100080.06,-183,-29,-89
143112,16.800,18.352,-11.096,0.787222,0.225683,2.007497,100083.16,-182,-39,-88
143122,10.671,18.999,-3.213,0.321093,0.575279,1.645131,100080.89,-181,-44,-85
143132,9.269,3.413,3.246,1.671588,1.271279,2.009626,100080.89,-182,-53,-79
143142,19.012,-7.336,4.834,2.052578,1.474544,2.789166,100082.20,-182,-53,-79
143152,20.256,-8.088,6.835,0.721772,1.377700,2.814708,100080.83,-181,-65,-73
143162,15.730,-1.715,13.529,0.193919,1.756030,2.690194,100077.58,-179,-74,-68
143172,17.077,5.750,5.455,0.929295,1.755498,2.912084,100077.42,-177,-83,-60
143182,8.299,0.136,3.446,1.149588,1.652269,2.980726,100077.42,-177,-83,-60
143193,1.211,-3.344,6.270,1.183643,1.568728,2.864726,100084.31,-174,-94,-54
143202,5.374,-2.798,7.300,0.970799,1.292031,2.586965,100083.16,-172,-104,-49
143212,10.734,-5.464,3.631,0.292359,0.864215,2.427864,100081.42,-167,-111,-45
143222,12.701,-4.331,1.171,-0.438227,0.681701,2.136268,100080.80,-167,-111,-45
143232,12.983,-1.457,0.982,-0.739401,0.673187,1.802635,100080.80,-164,-116,-45
143242,11.471,0.970,1.019,-0.511658,0.742361,1.559461,100084.61,-162,-120,-44
143252,9.692,0.977,1.597,-0.060429,0.852508,1.420048,100083.45,-160,-124,-42
143262,8.933,-0.573,2.514,0.216268,0.896141,1.332782,100079.67,-158,-128,-39
143272,9.616,-1.172,2.740,0.170506,0.830159,1.218911,100077.27,-158,-128,-39
143282,10.560,-1.247,2.776,0.025240,0.774288,1.070452,100077.27,-155,-131,-37
143292,10.514,-1.210,3.095,-0.160466,0.746618,0.903370,100081.70,-154,-134,-36
143302,9.726,-0.789,3.979,-0.412154,0.684894,0.747461,100081.75,-154,-136,-35
143312,8.763,-0.022,5.275,-0.728227,0.582728,0.617627,100079.17,-154,-136,-35
143322,8.499,0.865,5.107,-0.972997,0.441719,0.493645,100079.23,-152,-135,-36
143332,9.106,1.392,4.097,-0.998007,0.343811,0.417021,100079.23,-151,-136,-38
143342,9.453,1.460,3.199,-0.808043,0.320930,0.412232,100079.84,-151,-136,-38
143352,9.458,1.338,2.794,-0.549970,0.347004,0.447884,100082.78,-151,-136,-38
143363,9.274,1.310,3.389,-0.307328,0.391169,0.498966,100078.27,-150,-136,-38
143372,9.207,0.680,3.758,-0.127475,0.401811,0.533553,100079.42,-149,-138,-37
143382,9.513,-0.315,3.787,-0.122686,0.407132,0.517058,100079.42,-148,-139,-37
143392,9.412,-0.517,3.905,-0.302539,0.356050,0.470764,100081.30,-148,-139,-37
143403,9.099,0.178,4.112,-0.474943,0.306563,0.420746,100082.97,-149,-140,-36
143412,8.841,0.607,3.950,-0.543585,0.275701,0.399994,100080.97,-147,-140,-38
143422,8.858,0.678,3.486,-0.494099,0.262931,0.419150,100075.56,-146,-141,-38
143432,9.161,0.128,2.964,-0.413750,0.271976,0.465975,100075.56,-146,-141,-38
143442,9.536,-0.456,2.742,-0.408429,0.278362,0.506948,100081.09,-145,-142,-37
143453,9.669,-0.368,3.115,-0.498001,0.295034,0.519009,100079.77,-144,-143,-38
143462,9.525,0.220,3.478,-0.591475,0.305499,0.515994,100079.52,-144,-144,-39
143472,8.999,1.573,4.322,-0.609567,0.331041,0.523975,100076.37,-144,-144,-39
143482,8.662,1.551,4.572,-0.462704,0.330508,0.595278,100076.37,-142,-144,-39
143493,9.097,0.086,4.074,-0.327016,0.370949,0.668177,100080.81,-140,-146,-39
143502,9.525,-0.479,3.935,-0.397787,0.393830,0.688397,100079.50,-140,-147,-40
143512,9.548,-0.359,3.813,-0.561677,0.393830,0.693186,100079.72,-140,-147,-40
143522,9.588,0.061,3.481,-0.676080,0.423096,0.708085,100079.72,-138,-148,-40
143533,9.742,0.554,3.420,-0.710667,0.455022,0.761296,100079.72,-137,-150,-41
143542,9.771,0.962,3.486,-0.665970,0.490141,0.859737,100082.63,-135,-151,-41
143552,10.004,0.863,3.495,-0.573383,0.539628,0.970415,100079.16,-135,-151,-41
143562,10.024,0.097,3.560,-0.523365,0.591774,1.061938,100077.85,-133,-152,-40
143572,10.258,-0.368,3.562,-0.548906,0.632215,1.123131,100078.63,-130,-154,-40
143582,10.871,-0.503,3.299,-0.599456,0.645517,1.177406,100078.63,-129,-158,-41
143592,11.234,-0.010,3.669,-0.630851,0.656692,1.251369,100083.23,-129,-158,-41
143602,11.305,0.250,3.665,-0.586686,0.685426,1.353534,100079.13,-126,-160,-41
143612,11.530,0.160,3.392,-0.540924,0.699793,1.486562,100076.46,-122,-162,-41
143623,11.821,0.162,3.339,-0.523897,0.713095,1.631828,100082.18,-119,-166,-41
143632,12.184,0.035,3.242,-0.526025,0.734912,1.752085,100082.18,-119,-166,-41
143642,12.325,-0.025,3.012,-0.539860,0.771627,1.873406,100082.16,-115,-168,-40
143652,12.178,0.403,3.035,-0.545181,0.801958,2.014415,100078.89,-109,-172,-41
143663,12.538,0.608,3.140,-0.534539,0.821114,2.171387,100082.69,-104,-176,-40
143672,13.235,0.672,3.268,-0.571787,0.851444,2.322506,100076.11,-104,-176,-40
143682,13.364,0.880,3.164,-0.694172,0.883370,2.453405,100076.11,-98,-180,-39
143688,13.451,1.341,3.059,-0.818686,0.905187,2.541735,100081.13,-92,-184,-40
143697,14.165,2.154,3.370,-0.916062,0.871132,2.642304,100081.13,-92,-184,-40
143708,15.790,3.740,4.041,-1.023016,0.768435,2.789166,100078.34,-84,-188,-42
143718,17.247,4.470,4.108,-1.303438,0.767371,2.866323,100077.92,-77,-191,-44
143727,18.630,3.796,2.678,-1.981345,0.825371,2.798744,100077.39,-69,-193,-49
143737,20.999,5.444,0.772,-3.084409,0.671591,2.624213,100082.52,-69,-193,-49
143748,22.487,10.777,-0.364,-4.212481,0.423096,2.428928,100082.15,-60,-192,-59
143758,21.008,14.146,0.106,-4.798867,0.332637,2.438506,100080.41,-53,-188,-72
143767,18.634,10.064,2.683,-4.327417,0.348600,2.755111,100080.41,-44,-186,-84
143777,18.849,1.411,5.871,-2.783235,0.527921,3.216983,100078.27,-44,-186,-84
143788,20.559,-3.622,7.348,-1.589713,0.524196,3.543166,100078.27,-36,-185,-89
143798,18.399,-4.377,7.676,-1.317273,0.378930,3.502194,100080.73,-26,-187,-92
143807,17.024,-2.277,7.090,-0.969273,0.489077,3.267001,100081.89,-15,-187,-95
143817,16.234,2.962,7.265,-0.374906,0.720013,3.000946,100078.53,-15,-187,-95
143827,11.958,6.856,5.386,0.154543,0.639132,2.553442,100080.27,-7,-190,-95
143838,7.653,6.559,4.024,0.564800,0.363499,2.074011,100080.27,-1,-191,-94
143848,4.677,-3.321,6.349,1.102763,0.325719,1.757406,100079.45,+1,-195,-89
143857,4.462,-3.725,5.646,1.268249,0.149591,1.102911,100079.71,+1,-195,-89
143867,7.274,-0.024,1.426,0.721240,-0.198409,0.393608,100075.51,+4,-198,-86
143878,5.452,2.854,0.867,0.516378,-0.294188,-0.371565,100075.51,+4,-198,-84
143887,4.429,4.022,0.781,0.427515,-0.494794,-0.777033,100075.51,+2,-198,-83
143897,3.703,2.997,0.377,0.561075,-0.706041,-1.067565,100080.78,+2,-198,-83
143907,2.954,1.270,0.195,0.763277,-0.873656,-1.379381,100084.88,+0,-200,-82
143918,2.716,0.006,0.329,0.903221,-1.035417,-1.711418,100081.63,-3,-199,-81
143928,2.775,-0.433,0.740,0.890983,-1.202500,-2.084959,100081.16,-8,-200,-78
143937,3.264,-0.092,1.002,0.828194,-1.383417,-2.475527,100081.16,-14,-200,-78
143947,3.912,0.491,1.007,0.838304,-1.544646,-2.824591,100082.09,-14,-199,-76
143958,4.611,0.711,1.121,0.945258,-1.646279,-3.119912,100081.27,-22,-198,-75
143968,5.375,0.645,1.240,1.063919,-1.726628,-3.394481,100075.19,-30,-197,-72
143978,5.932,0.202,1.458,1.112873,-1.811765,-3.642444,100075.19,-39,-195,-72
143987,6.182,-0.062,1.857,1.116065,-1.904353,-3.866462,100074.08,-39,-195,-72
143997,6.531,-0.016,2.171,1.140543,-1.985233,-4.103783,100074.08,-49,-191,-72
144008,7.192,-0.043,2.468,1.175662,-2.032059,-4.346426,100074.02,-59,-189,-71
144018,7.865,-0.263,2.664,1.221955,-2.062921,-4.575765,100074.08,-71,-184,-70
144027,8.443,-0.419,3.013,1.227276,-2.088463,-4.806700,100075.17,-71,-184,-70
144037,9.182,-0.474,3.350,1.232597,-2.106554,-5.020608,100075.17,-82,-176,-70
144048,10.030,-0.664,3.564,1.241643,-2.110811,-5.223342,100074.70,-94,-170,-70
144058,11.135,-0.860,3.677,1.251221,-2.112940,-5.437250,100070.72,-106,-161,-71
144068,12.520,-1.085,3.760,1.250157,-2.112407,-5.637856,100072.92,-106,-161,-71
144077,13.653,-1.429,3.987,1.206524,-2.109215,-5.787910,100072.45,-118,-151,-72
144088,14.380,-1.689,4.374,1.161827,-2.107086,-5.906039,100074.79,-129,-139,-74
144098,15.274,-2.029,4.864,1.138946,-2.112407,-6.020442,100074.54,-140,-126,-77
144108,16.665,-2.647,5.426,1.109680,-2.109215,-6.122608,100075.59,-140,-126,-77
144117,18.041,-3.782,6.129,0.989955,-2.123582,-6.185397,100075.59,-150,-112,-78
144128,19.133,-5.266,6.880,0.701552,-2.169343,-6.208277,100076.01,-158,-97,-84
144138,20.035,-6.618,7.768,0.306726,-2.193288,-6.164112,100076.01,-165,-80,-89
144148,19.975,-7.282,9.113,-0.030099,-2.101233,-6.007672,100076.63,-165,-80,-89
144157,17.912,-7.186,10.447,-0.184411,-1.814426,-5.720333,100077.21,-169,-62,-95
144167,15.511,-7.256,11.372,-0.145567,-1.350426,-5.304755,100074.38,-174,-45,-99
144178,14.955,-9.088,11.458,-0.148227,-0.846518,-4.769985,100075.80,-177,-31,-101
144188,14.230,-12.565,9.905,-0.262631,-0.472977,-4.127196,100075.80,-177,-31,-101
144198,13.022,-16.233,8.157,-0.413750,-0.291528,-3.341802,100079.00,-179,-19,-102
144207,11.455,-18.968,7.542,-0.305732,-0.110611,-2.307381,100077.27,-181,-10,-104
144218,9.607,-21.037,8.293,-0.084374,0.110215,-1.098959,100080.20,-181,-7,-104
144228,8.790,-20.374,9.144,0.119424,0.329444,0.211627,100080.20,-181,-7,-104
144237,9.352,-16.684,9.491,0.511057,0.601352,1.424837,100080.20,-181,-9,-102
144247,11.004,-9.613,9.230,0.994744,0.871132,2.263974,100078.08,-181,-18,-98
144258,13.421,4.918,3.605,1.193221,0.890288,2.523644,100079.97,-181,-28,-95
144268,18.618,29.930,-11.027,-0.186539,0.302839,1.348745,100080.44,-181,-28,-95
144278,8.406,9.556,-5.250,-0.033292,0.836545,1.167296,100083.17,-181,-29,-94
144287,11.617,-7.749,4.306,2.036615,1.480398,2.385827,100083.17,-181,-38,-88
144297,24.318,-7.259,1.223,1.317735,1.093022,3.189313,100079.61,-180,-51,-84
144308,23.460,-4.383,-0.902,-0.579768,0.884435,2.532690,100079.92,-180,-51,-84
144318,15.362,0.262,5.983,-0.660649,1.216471,2.556103,100080.20,-178,-58,-81
144327,13.311,2.969,14.058,0.250323,1.626728,2.954121,100080.20,-178,-66,-77
144337,10.592,1.603,14.120,1.245368,1.973131,2.817900,100077.97,-175,-77,-69
144348,12.293,-3.162,3.298,1.431607,1.740067,2.659332,100077.97,-175,-77,-69
144358,9.295,-4.541,2.952,1.122451,1.636306,2.626873,100081.75,-174,-87,-62
144367,7.107,-0.725,5.781,1.094781,1.586820,2.403919,100079.66,-172,-95,-56
144377,9.130,-2.808,4.141,0.980910,1.276600,2.125626,100077.34,-170,-102,-51
144388,11.550,-6.142,2.293,0.497222,0.990324,1.957479,100077.34,-170,-102,-51
144398,12.956,-4.343,2.372,-0.211548,0.781205,1.748892,100084.39,-167,-109,-47
144408,12.154,-1.809,2.693,-0.694704,0.623701,1.506250,100081.39,-165,-112,-48
144417,10.400,-0.387,2.705,-0.928832,0.516747,1.281700,100079.97,-163,-114,-48
144428,9.349,0.359,2.572,-1.020355,0.451297,1.124195,100078.86,-161,-114,-49
144438,9.384,1.351,2.377,-0.960227,0.442784,0.999682,100080.05,-161,-117,-49
144448,9.774,1.973,2.238,-0.679273,0.505573,0.896984,100079.21,-160,-118,-49
144458,9.919,2.077,2.451,-0.338191,0.606673,0.860801,100080.95,-158,-120,-48
144467,9.622,1.356,2.860,-0.129071,0.656160,0.845370,100080.95,-157,-122,-47
144478,9.495,0.862,3.070,-0.080649,0.625829,0.784709,100078.32,-157,-122,-47
144488,9.313,0.895,3.299,-0.117365,0.584325,0.701700,100078.32,-157,-124,-46
144498,9.043,0.716,3.430,-0.192392,0.539628,0.639443,100082.23,-156,-127,-43
144508,9.036,0.287,3.578,-0.371004,0.476307,0.573284,100082.48,-154,-127,-43
144518,9.014,0.730,3.608,-0.578172,0.419371,0.503755,100082.48,-154,-127,-43
144528,8.936,1.536,3.412,-0.792612,0.381591,0.445755,100079.01,-154,-128,-45
144538,8.912,1.614,2.995,-0.869236,0.377866,0.437774,100079.01,-154,-128,-45
144548,9.096,1.721,2.350,-0.789420,0.405536,0.478746,100082.70,-153,-128,-46
144558,9.299,1.840,2.082,-0.614888,0.463536,0.552709,100082.52,-153,-128,-46
144568,9.404,1.486,2.083,-0.409493,0.531114,0.639443,100079.08,-152,-130,-46
144578,9.726,0.328,2.822,-0.329145,0.569958,0.709682,100079.08,-151,-131,-44
144587,9.688,-0.265,3.683,-0.485585,0.544417,0.705425,100079.08,-149,-132,-45
144598,9.288,-0.055,4.141,-0.735677,0.490673,0.655406,100080.78,-149,-132,-45
144608,9.170,0.078,4.026,-0.925640,0.440655,0.627205,100079.20,-149,-133,-46
144618,9.385,0.632,3.601,-1.027273,0.399683,0.629333,100079.69,-148,-134,-47
144627,9.554,1.397,3.248,-0.987364,0.386912,0.668177,100079.78,-146,-134,-48
144637,9.602,1.551,3.410,-0.836245,0.434270,0.737351,100079.78,-146,-134,-48
144648,9.762,0.798,3.400,-0.719713,0.478435,0.804397,100080.99,-146,-135,-48
144658,9.954,0.225,2.999,-0.703750,0.515151,0.844305,100077.85,-144,-136,-48
144668,9.814,0.275,3.146,-0.750576,0.551866,0.870379,100079.02,-141,-138,-49
144677,9.376,0.782,3.438,-0.790484,0.560380,0.920397,100079.02,-141,-138,-49
144688,9.461,0.893,3.521,-0.773988,0.549206,1.009259,100081.13,-141,-140,-49
144698,9.775,0.806,3.401,-0.736741,0.567829,1.108232,100081.59,-138,-142,-49
144708,10.068,0.966,3.641,-0.698961,0.600288,1.200287,100081.59,-137,-144,-49
144717,10.002,0.674,3.899,-0.658521,0.626361,1.290213,100081.13,-137,-144,-49
144728,10.449,-0.046,3.478,-0.646814,0.628490,1.385993,100079.50,-134,-146,-50
144738,11.134,-0.089,2.934,-0.665438,0.608802,1.496672,100079.50,-130,-149,-50
144748,11.535,0.496,3.264,-0.668099,0.602417,1.633424,100083.64,-128,-152,-51
144758,12.016,0.624,3.086,-0.612759,0.608802,1.788268,100079.95,-128,-152,-51
144768,12.596,0.579,3.054,-0.557420,0.633279,1.951094,100077.97,-124,-156,-50
144778,12.810,0.387,3.022,-0.546245,0.647646,2.098488,100079.13,-118,-160,-50
144788,12.890,0.284,2.806,-0.556888,0.652967,2.243222,100082.00,-113,-164,-51
144798,12.939,0.409,2.720,-0.566998,0.657756,2.398598,100080.48,-113,-164,-51
144808,13.100,0.808,2.762,-0.594667,0.648178,2.572066,100080.80,-106,-169,-50
144818,13.896,1.033,2.687,-0.646814,0.643921,2.745001,100080.80,-100,-172,-51
144828,14.794,1.217,2.459,-0.756961,0.653499,2.904634,100079.80,-92,-177,-51
144838,15.830,2.108,2.511,-0.938942,0.621040,3.067460,100079.80,-92,-177,-51
144847,17.326,3.549,2.726,-1.220961,0.542820,3.226029,100079.62,-82,-182,-52
144858,19.723,4.444,1.950,-1.725401,0.493866,3.301588,100080.30,-74,-185,-56
144868,22.306,7.562,0.854,-2.534740,0.440123,3.231350,100078.26,-64,-186,-63
144878,23.798,11.764,0.292,-3.442519,0.228875,3.145680,100079.57,-64,-186,-63
144888,23.673,14.002,-0.811,-4.350830,0.035188,3.145148,100079.57,-54,-186,-72
144898,21.507,14.419,1.755,-4.889857,-0.033987,3.172818,100080.64,-44,-181,-87
144908,18.354,10.945,6.953,-3.782537,-0.005253,3.432487,100076.86,-33,-178,-98
144918,19.448,3.523,9.432,-1.275768,0.024013,4.064102,100074.81,-20,-180,-98
144928,20.950,-0.642,9.957,0.641956,0.016564,4.624413,100074.81,-20,-180,-98
144937,19.239,-0.965,8.552,1.517276,0.259738,4.661129,100074.81,-5,-186,-94
144948,17.627,2.909,5.384,2.174964,0.604545,4.262046,100079.48,+6,-192,-87
144958,14.465,4.632,6.260,2.437294,0.837609,3.571368,100081.01,+16,-198,-80
144968,9.118,3.337,4.919,1.975955,0.294857,2.809387,100076.96,+16,-198,-80
144978,5.916,-2.301,5.255,1.861019,0.124405,2.135913,100078.74,+24,-200,-74
144988,4.973,-2.430,6.957,1.920083,0.010178,1.492947,100078.74,+30,-204,-67
144998,7.915,1.340,2.988,1.436396,-0.352720,0.862397,100078.43,+33,-205,-62
145008,6.019,2.993,1.105,1.113937,-0.463931,0.066893,100078.85,+33,-205,-62
145018,4.029,3.772,0.862,0.790414,-0.644317,-0.596116,100078.04,+33,-206,-59
145028,3.068,3.285,0.513,0.595662,-0.940702,-0.951565,100078.04,+32,-206,-58
145038,2.248,1.835,0.996,0.608965,-1.164720,-1.241033,100079.84,+28,-207,-55
145048,2.021,0.412,1.425,0.798396,-1.320096,-1.622555,100078.88,+28,-207,-55
145058,2.230,-0.578,1.796,0.861185,-1.492500,-2.109436,100078.88,+25,-207,-52
145068,2.593,-1.014,1.849,0.707405,-1.712793,-2.610151,100075.32,+19,-207,-50
145078,2.647,-0.529,1.771,0.515846,-1.913398,-3.074683,100075.32,+11,-206,-49
145088,3.063,0.482,1.723,0.424855,-2.070371,-3.486004,100075.32,+11,-206,-49
145093,3.644,0.888,1.682,0.412616,-2.158701,-3.762701,100077.05,+1,-204,-47
145103,4.227,0.765,1.688,0.457846,-2.220426,-4.005875,100073.78,+1,-204,-47
145113,4.580,0.292,1.843,0.496690,-2.279490,-4.298535,100070.73,-7,-203,-47
145123,4.717,0.002,1.977,0.509460,-2.338022,-4.587471,100069.42,-19,-200,-47
145133,5.230,-0.107,1.888,0.539791,-2.356114,-4.865232,100069.42,-32,-196,-46
145143,6.205,-0.315,1.902,0.648341,-2.316738,-5.131287,100068.69,-32,-196,-46
145153,7.145,-0.528,2.220,0.762212,-2.240114,-5.380847,100066.84,-45,-190,-45
145163,8.163,-0.599,2.609,0.823405,-2.178389,-5.622425,100070.20,-59,-184,-44
145173,9.182,-0.491,3.113,0.843093,-2.145398,-5.873048,100067.05,-73,-176,-44
145183,10.423,-0.290,3.772,0.815956,-2.138481,-6.145488,100067.05,-87,-338,-43
145193,12.297,-0.332,4.346,0.830855,-2.105490,-6.382809,100070.96,-87,-168,-43
145203,13.878,-0.862,4.706,0.942598,-2.021417,-6.541910,100072.12,-102,-156,-43
145213,15.471,-1.885,4.862,1.094249,-1.934151,-6.657378,100072.05,-117,-145,-43
145223,17.587,-3.480,5.737,1.116065,-1.896903,-6.755286,100071.70,-132,-131,-44
145233,19.735,-4.805,6.697,1.125643,-1.875619,-6.748369,100071.70,-132,-131,-44
145243,21.225,-6.427,6.765,1.125111,-1.871894,-6.602038,100075.31,-145,-116,-46
145253,22.482,-9.190,6.872,1.006451,-1.912334,-6.389194,100074.69,-157,-101,-46
145263,22.248,-11.358,8.057,0.675479,-1.959160,-6.126864,100078.53,-166,-85,-51
145273,19.618,-10.586,9.675,0.258837,-1.917123,-5.767159,100074.91,-166,-85,-51
145283,16.750,-7.889,11.880,0.140176,-1.590940,-5.364351,100074.91,-174,-67,-55
145293,15.798,-7.891,13.714,0.141772,-1.098206,-4.942388,100078.78,-179,-53,-58
145303,14.607,-11.922,12.748,-0.085438,-0.644849,-4.471471,100076.69,-185,-39,-59
145313,13.508,-16.891,10.154,-0.698429,-0.340482,-3.884554,100076.95,-185,-39,-59
145324,12.671,-20.375,7.324,-1.300245,-0.149987,-2.941123,100078.27,-188,-25,-61
145329,10.551,-21.859,6.590,-1.468924,-0.013234,-2.019509,100078.27,-190,-25,-63
145338,8.574,-21.508,7.011,-1.406667,0.060729,-0.965932,100078.27,-190,-18,-63
145348,8.623,-18.275,8.226,-1.208190,0.145334,0.453205,100082.95,-191,-15,-63
145358,9.847,-13.307,10.318,-0.734080,0.402343,1.641938,100079.54,-190,-20,-61
