50002,8.390,-4.531,2.296,0.029072,-0.033553,0.030738,99770.33,-205,+24,-57
50012,8.415,-4.506,2.308,0.030136,-0.034085,0.034995,99767.83,-205,+24,-57
50022,8.408,-4.508,2.289,0.029072,-0.033021,0.039252,99768.72,-205,+24,-57
50032,8.389,-4.603,2.244,0.032265,-0.035682,0.041380,99766.49,-206,+24,-56
50042,8.368,-4.603,2.291,0.030668,-0.036214,0.041913,99768.99,-206,+24,-56
50053,8.316,-4.598,2.267,0.025879,-0.032489,0.041913,99770.65,-204,+22,-57
50062,8.312,-4.624,2.225,0.018430,-0.028232,0.039252,99770.65,-205,+24,-57
50072,8.334,-4.644,2.228,0.016834,-0.028232,0.038720,99769.51,-206,+23,-57
50082,8.354,-4.500,2.300,0.017898,-0.029296,0.039252,99769.82,-206,+23,-57
50092,8.405,-4.535,2.310,0.029604,-0.030893,0.040316,99769.82,-204,+24,-58
50102,8.379,-4.732,2.222,0.034925,-0.034085,0.041913,99769.89,-205,+22,-58
50112,8.323,-4.699,2.179,0.031200,-0.031425,0.038720,99768.17,-205,+22,-57
50122,8.287,-4.695,2.209,0.027476,-0.027168,0.031802,99769.06,-205,+22,-57
50132,8.311,-4.690,2.197,0.023219,-0.025040,0.025949,99766.25,-204,+22,-58
50143,8.343,-4.639,2.194,0.020026,-0.020251,0.020096,99773.05,-205,+22,-57
50152,8.329,-4.612,2.204,0.020026,-0.019718,0.017968,99768.42,-204,+22,-57
50162,8.361,-4.562,2.268,0.020558,-0.019718,0.019032,99768.58,-204,+22,-57
50172,8.428,-4.608,2.326,0.025347,-0.022379,0.022757,99767.91,-204,+22,-58
50182,8.445,-4.662,2.279,0.025879,-0.024507,0.026481,99767.91,-205,+22,-57
50192,8.405,-4.614,2.300,0.021090,-0.020783,0.029142,99767.91,-204,+22,-58
50202,8.332,-4.677,2.244,0.013641,-0.017058,0.027546,99770.46,-204,+22,-58
50212,8.312,-4.690,2.250,0.006191,-0.013865,0.024353,99769.74,-204,+22,-58
50217,8.317,-4.648,2.218,0.005127,-0.008544,0.022224,99765.23,-205,+22,-58
50227,8.295,-4.663,2.240,0.005127,-0.006416,0.019032,99770.30,-205,+22,-58
50237,8.305,-4.666,2.237,0.006723,-0.005884,0.014243,99770.30,-205,+22,-57
50247,8.310,-4.618,2.261,0.010980,-0.005884,0.010518,99769.74,-204,+22,-59
50257,8.370,-4.634,2.250,0.015237,-0.006416,0.008922,99770.77,-205,+21,-58
50267,8.367,-4.689,2.236,0.012045,-0.005351,0.007858,99769.16,-205,+21,-58
50277,8.343,-4.687,2.211,0.006191,-0.000562,0.003069,99768.09,-205,+22,-57
50287,8.354,-4.666,2.244,-0.000726,0.003694,-0.000656,99768.09,-204,+22,-58
50297,8.370,-4.633,2.246,0.000338,0.004759,-0.002253,99772.01,-205,+21,-58
50308,8.360,-4.653,2.206,0.005659,0.006887,-0.002785,99768.16,-205,+21,-58
50317,8.308,-4.707,2.181,0.006191,0.009016,-0.007574,99769.35,-204,+22,-57
50327,8.302,-4.725,2.182,-0.000726,0.014337,-0.015555,99767.70,-204,+21,-57
50337,8.310,-4.688,2.170,-0.009240,0.020190,-0.024601,99767.70,-205,+22,-57
50348,8.346,-4.599,2.277,-0.010836,0.022850,-0.026730,99771.56,-205,+22,-57
50357,8.402,-4.563,2.297,-0.003387,0.020722,-0.021941,99771.88,-205,+22,-58
50367,8.374,-4.623,2.279,0.002999,0.017529,-0.018748,99768.39,-204,+22,-58
50377,8.352,-4.626,2.243,0.005127,0.015401,-0.017152,99767.77,-205,+21,-57
50387,8.343,-4.593,2.237,0.004063,0.017529,-0.015555,99767.77,-205,+21,-57
50397,8.341,-4.660,2.243,-0.002322,0.020190,-0.015555,99772.50,-205,+22,-57
50407,8.341,-4.591,2.265,-0.006579,0.023382,-0.018216,99769.97,-204,+22,-58
50417,8.328,-4.551,2.223,-0.009240,0.025511,-0.016087,99767.78,-205,+22,-58
50427,8.366,-4.620,2.226,-0.003919,0.023382,-0.014491,99767.53,-205,+22,-58
50437,8.387,-4.634,2.243,0.002467,0.019658,-0.012895,99767.53,-205,+22,-57
50447,8.378,-4.596,2.282,0.007788,0.018061,-0.009702,99769.81,-205,+22,-58
50457,8.343,-4.621,2.341,0.007788,0.016997,-0.008638,99770.38,-205,+22,-57
50467,8.336,-4.628,2.335,0.000338,0.017529,-0.009702,99766.75,-205,+22,-57
50478,8.334,-4.605,2.327,-0.009240,0.022850,-0.012363,99769.14,-205,+22,-57
50487,8.382,-4.556,2.325,-0.011368,0.023915,-0.010766,99769.14,-206,+22,-57
50497,8.344,-4.585,2.290,-0.006047,0.019658,-0.006509,99768.29,-206,+22,-57
50507,8.359,-4.562,2.305,-0.002855,0.014869,-0.002253,99768.82,-206,+22,-57
50518,8.373,-4.639,2.259,0.001402,0.011676,0.000408,99767.15,-205,+22,-57
50527,8.348,-4.614,2.296,0.002999,0.010612,0.000408,99768.55,-205,+22,-58
50537,8.340,-4.617,2.237,0.000338,0.012740,-0.000656,99768.55,-205,+22,-57
50547,8.326,-4.654,2.247,-0.001790,0.014337,-0.002785,99770.48,-205,+22,-57
50557,8.336,-4.665,2.262,-0.001790,0.014337,-0.005445,99770.33,-206,+22,-56
50568,8.318,-4.646,2.268,-0.000726,0.015933,-0.007574,99768.83,-204,+22,-57
50573,8.312,-4.663,2.302,-0.002322,0.015933,-0.010766,99770.13,-204,+22,-57
50582,8.317,-4.648,2.346,-0.007644,0.018061,-0.013959,99770.13,-205,+22,-57
50592,8.329,-4.609,2.358,-0.015625,0.017529,-0.016620,99770.13,-206,+22,-57
50603,8.364,-4.568,2.317,-0.016157,0.016465,-0.018216,99772.52,-205,+22,-57
50613,8.389,-4.563,2.247,-0.011368,0.016465,-0.013427,99769.26,-205,+22,-57
50622,8.358,-4.609,2.219,-0.001790,0.012740,-0.009170,99768.68,-206,+22,-57
50632,8.324,-4.606,2.183,0.008852,0.010080,-0.007574,99768.68,-206,+22,-57
50642,8.359,-4.606,2.277,0.012577,0.010612,-0.006509,99766.30,-205,+22,-57
50653,8.340,-4.654,2.345,0.009916,0.010612,-0.008638,99766.30,-205,+22,-57
50662,8.329,-4.646,2.359,0.002467,0.010612,-0.012363,99769.63,-206,+22,-57
50672,8.331,-4.638,2.368,-0.008708,0.005823,-0.016620,99769.67,-205,+23,-57
50682,8.325,-4.667,2.333,-0.019350,0.000502,-0.020876,99767.64,-206,+22,-56
50693,8.359,-4.551,2.373,-0.024671,-0.002691,-0.021409,99767.64,-206,+22,-56
50703,8.348,-4.573,2.356,-0.017754,-0.006948,-0.018216,99770.19,-206,+22,-57
50712,8.368,-4.615,2.303,-0.010836,-0.012269,-0.015555,99770.08,-206,+22,-57
50722,8.378,-4.578,2.313,-0.008708,-0.010673,-0.013427,99767.17,-205,+22,-57
50733,8.356,-4.608,2.356,-0.007111,-0.010673,-0.011298,99767.14,-205,+22,-57
50743,8.329,-4.553,2.323,-0.007111,-0.011205,-0.008638,99767.56,-206,+24,-57
50752,8.422,-4.541,2.326,-0.007111,-0.014397,-0.004913,99767.86,-206,+24,-57
50762,8.465,-4.538,2.308,-0.004451,-0.018122,0.002004,99769.53,-206,+23,-57
50772,8.451,-4.518,2.283,-0.000726,-0.020783,0.011582,99769.53,-206,+23,-57
50783,8.399,-4.469,2.282,0.001402,-0.021315,0.020628,99767.81,-206,+23,-57
50792,8.391,-4.543,2.277,0.008320,-0.019718,0.027546,99767.81,-205,+22,-57
50802,8.365,-4.578,2.243,0.014705,-0.021315,0.033399,99770.55,-206,+22,-57
50812,8.311,-4.532,2.256,0.020558,-0.018654,0.037124,99768.23,-205,+22,-57
50823,8.282,-4.651,2.198,0.022687,-0.011737,0.036591,99768.23,-205,+22,-57
50833,8.247,-4.742,2.170,0.020558,-0.008012,0.028610,99766.93,-205,+22,-57
50842,8.245,-4.679,2.162,0.023219,-0.003755,0.018500,99766.93,-206,+22,-57
50852,8.283,-4.684,2.169,0.026411,0.002630,0.009454,99770.76,-205,+22,-57
50863,8.270,-4.743,2.159,0.026411,0.009548,0.000408,99768.37,-205,+22,-57
50873,8.267,-4.664,2.114,0.026944,0.013805,-0.010234,99767.49,-205,+22,-57
50882,8.269,-4.537,2.248,0.035989,0.012740,-0.016620,99767.49,-205,+22,-57
50892,8.317,-4.469,2.329,0.056210,0.005823,-0.017152,99767.49,-206,+22,-56
50903,8.261,-4.524,2.231,0.073237,0.002098,-0.015555,99771.09,-206,+22,-56
50913,8.174,-4.621,2.108,0.077494,0.012208,-0.016620,99769.42,-205,+22,-57
50922,8.198,-4.503,1.976,0.057274,0.036153,-0.016087,99767.41,-205,+22,-57
50932,8.178,-4.404,1.780,0.043971,0.063823,-0.009702,99768.75,-206,+22,-56
50942,8.220,-4.410,1.773,0.051421,0.083511,0.000940,99768.75,-206,+22,-56
50953,8.091,-4.459,1.514,0.051953,0.117034,0.011050,99771.41,-206,+22,-56
50963,8.040,-4.823,1.290,0.037586,0.161199,0.003601,99769.23,-206,+22,-56
50972,8.171,-5.006,1.792,0.047164,0.176630,-0.021409,99767.97,-206,+22,-55
50982,8.237,-4.571,2.280,0.090797,0.179291,-0.044289,99767.97,-206,+22,-55
50993,7.946,-4.533,2.516,0.155182,0.163327,-0.056528,99769.97,-206,+22,-54
51003,7.782,-4.913,2.492,0.201476,0.152153,-0.086858,99769.97,-207,+22,-54
51012,7.812,-5.175,2.527,0.203604,0.166520,-0.145390,99769.97,-207,+22,-53
51022,7.907,-5.037,2.765,0.184448,0.181419,-0.206583,99769.34,-207,+22,-53
51033,8.167,-4.843,2.780,0.183916,0.179823,-0.255005,99768.88,-207,+22,-52
51043,8.450,-4.918,2.826,0.187641,0.169713,-0.291720,99768.88,-207,+24,-52
51052,8.644,-5.021,2.915,0.172742,0.160667,-0.332693,99770.32,-208,+24,-51
51062,8.707,-4.918,2.962,0.132301,0.153749,-0.364087,99770.07,-208,+24,-51
51073,8.799,-4.633,3.120,0.080155,0.140979,-0.381115,99768.35,-207,+25,-51
51083,8.969,-4.385,3.250,0.037586,0.120759,-0.380051,99769.09,-209,+26,-51
51093,9.026,-4.088,3.257,0.000870,0.093621,-0.355041,99769.97,-208,+28,-50
51102,8.961,-3.907,3.256,-0.031588,0.062759,-0.306619,99770.95,-208,+28,-50
51112,8.875,-3.797,3.154,-0.060855,0.034557,-0.245959,99769.66,-208,+29,-51
51123,8.766,-3.832,2.830,-0.089588,0.019126,-0.187959,99769.66,-208,+30,-50
51133,8.773,-3.998,2.765,-0.107680,0.001566,-0.141133,99769.03,-208,+30,-50
51142,8.808,-4.073,2.853,-0.108212,-0.019718,-0.104950,99769.03,-208,+30,-50
51152,8.654,-4.294,2.782,-0.115130,-0.035682,-0.082601,99770.73,-208,+30,-51
51163,8.489,-4.503,2.720,-0.145460,-0.035150,-0.079941,99769.07,-208,+31,-50
51173,8.326,-4.492,2.604,-0.190157,-0.021847,-0.088986,99768.13,-208,+32,-51
51182,8.216,-4.299,2.467,-0.224744,-0.010140,-0.098564,99767.30,-208,+32,-51
51192,8.221,-4.069,2.223,-0.238047,-0.003223,-0.100161,99767.30,-208,+32,-51
51203,8.273,-4.032,2.290,-0.217295,-0.011205,-0.092711,99771.13,-208,+32,-52
51213,8.396,-3.912,2.431,-0.172065,-0.026636,-0.080473,99769.08,-208,+33,-51
51223,8.362,-4.082,2.367,-0.129497,-0.037278,-0.073023,99767.59,-208,+33,-51
51232,8.281,-4.392,2.307,-0.109277,-0.038342,-0.078876,99767.59,-208,+34,-52
51243,8.362,-4.272,2.357,-0.100763,-0.031425,-0.093775,99767.59,-208,+34,-52
51253,8.447,-4.234,2.290,-0.083735,-0.024507,-0.106546,99769.95,-208,+34,-51
51262,8.453,-4.268,2.211,-0.057130,-0.025572,-0.115060,99770.53,-208,+34,-51
51272,8.488,-4.213,2.268,-0.032121,-0.022911,-0.123041,99769.91,-207,+35,-52
51283,8.502,-4.132,2.228,-0.013319,-0.017767,-0.125702,99770.66,-208,+35,-52
51293,8.480,-4.037,2.207,-0.007644,-0.011205,-0.118253,99770.66,-208,+35,-52
51303,8.508,-3.967,2.399,-0.002855,-0.010140,-0.105482,99771.59,-208,+35,-52
51312,8.595,-3.917,2.581,-0.004983,-0.010673,-0.085794,99769.20,-208,+36,-52
51322,8.616,-3.921,2.684,-0.006579,-0.018122,-0.066106,99770.55,-208,+36,-52
51333,8.658,-3.910,2.701,0.002467,-0.035150,-0.044821,99766.65,-208,+36,-52
51343,8.711,-3.978,2.696,0.012045,-0.056434,-0.020344,99771.73,-208,+36,-53
51353,8.666,-4.020,2.616,0.006723,-0.064948,0.000940,99770.70,-208,+36,-53
51362,8.613,-4.038,2.474,-0.009772,-0.064416,0.017968,99770.70,-208,+36,-52
51373,8.670,-4.088,2.478,-0.021478,-0.069737,0.030738,99768.82,-208,+36,-53
51383,8.718,-4.076,2.549,-0.022011,-0.078250,0.045637,99766.43,-208,+36,-53
51392,8.636,-4.101,2.619,-0.018286,-0.092617,0.058408,99766.43,-208,+36,-53
51402,8.522,-4.082,2.650,-0.011368,-0.110177,0.066922,99771.32,-208,+35,-54
51412,8.571,-3.918,2.562,-0.004451,-0.125076,0.078096,99767.21,-208,+35,-54
51423,8.648,-3.947,2.665,-0.003387,-0.138379,0.100977,99767.48,-206,+35,-54
51433,8.711,-4.114,2.564,0.003531,-0.155406,0.117472,99766.70,-206,+35,-54
51443,8.684,-4.195,2.618,0.006723,-0.170838,0.125454,99770.33,-207,+35,-55
51452,8.604,-4.247,2.630,0.000870,-0.187333,0.129179,99773.55,-206,+35,-55
51463,8.591,-4.183,2.598,-0.004983,-0.202764,0.128646,99768.36,-207,+34,-57
51473,8.670,-4.135,2.654,-0.004983,-0.221920,0.133968,99766.75,-207,+34,-57
51482,8.783,-4.022,2.592,0.008852,-0.250122,0.147802,99766.75,-206,+33,-57
51492,9.090,-4.037,2.928,0.033329,-0.294819,0.168023,99766.75,-206,+33,-58
51503,9.715,-4.241,4.092,0.094522,-0.408159,0.183454,99769.94,-204,+33,-58
51513,10.111,-4.383,4.493,0.103035,-0.537461,0.203674,99769.83,-204,+33,-58
51522,9.622,-4.696,3.403,-0.011900,-0.603443,0.239325,99766.72,-204,+32,-60
51532,8.859,-4.908,1.888,-0.231662,-0.583755,0.280830,99767.91,-204,+31,-63
51543,8.779,-4.373,1.232,-0.474304,-0.535333,0.362243,99767.91,-203,+31,-65
51553,9.393,-3.515,1.252,-0.639258,-0.519369,0.526664,99769.90,-203,+31,-65
51563,10.060,-3.134,1.733,-0.693533,-0.560874,0.763453,99768.65,-202,+29,-66
51573,10.508,-3.267,2.285,-0.687148,-0.643883,1.046536,99767.29,-201,+27,-68
51582,10.998,-3.682,2.696,-0.708432,-0.690177,1.319508,99767.29,-199,+24,-71
51593,11.486,-4.469,2.675,-0.774946,-0.669957,1.547783,99770.63,-199,+24,-71
51603,11.933,-5.715,2.411,-0.871258,-0.581094,1.693581,99770.63,-199,+19,-72
51612,12.016,-7.311,1.604,-0.953735,-0.477865,1.759031,99769.13,-197,+15,-73
51622,11.615,-8.745,1.153,-0.985661,-0.371443,1.753710,99769.13,-196,+11,-75
51633,11.150,-11.457,1.921,-1.039404,-0.175094,1.774994,99767.98,-196,+11,-75
51643,10.640,-13.221,4.163,-1.121881,0.004227,1.857471,99767.98,-195,+6,-75
51653,11.663,-10.603,4.564,-1.059625,0.043071,1.849489,99771.11,-194,+2,-75
51662,12.483,-6.968,2.956,-0.911166,-0.046856,1.754242,99770.38,-194,-1,-77
51673,10.630,-6.974,1.453,-0.697790,-0.151150,1.762756,99771.98,-194,-1,-77
51683,9.101,-8.335,1.029,-0.510487,-0.201700,1.884609,99767.90,-193,-7,-77
51693,8.701,-9.487,1.377,-0.330634,-0.217131,1.975067,99768.37,-190,-12,-78
51702,8.797,-8.249,1.123,-0.199203,-0.201700,1.998480,99769.62,-189,-18,-79
51713,7.977,-6.797,0.784,-0.089588,-0.189461,1.947398,99769.10,-189,-18,-79
51723,7.068,-6.753,0.245,-0.011900,-0.216599,1.914939,99769.10,-188,-24,-79
51733,6.138,-7.062,0.153,-0.061919,-0.199039,1.864388,99770.60,-185,-30,-81
51742,5.232,-6.762,0.387,-0.190157,-0.115498,1.762223,99770.60,-183,-35,-81
51752,4.615,-6.098,0.421,-0.333827,-0.012801,1.635049,99771.01,-183,-35,-81
51763,4.072,-5.405,0.238,-0.470047,0.083511,1.499361,99769.45,-182,-39,-81
51773,3.624,-4.832,-0.078,-0.584983,0.162263,1.372187,99769.04,-179,-43,-81
51783,3.288,-4.299,-0.468,-0.655753,0.216006,1.255123,99766.34,-179,-45,-82
51792,2.949,-3.729,-0.733,-0.661074,0.229841,1.134866,99766.34,-179,-45,-82
51803,2.753,-3.126,-1.016,-0.586579,0.205896,1.009820,99771.30,-178,-48,-82
51813,2.586,-2.659,-1.188,-0.447166,0.152685,0.885306,99767.61,-178,-50,-82
51823,2.444,-2.206,-1.258,-0.265717,0.076061,0.754940,99766.63,-176,-52,-82
51832,2.351,-2.005,-1.242,-0.069900,-0.018654,0.618719,99766.63,-176,-52,-82
51843,2.233,-2.192,-1.128,0.125916,-0.118159,0.489417,99766.63,-176,-54,-81
51853,2.105,-2.523,-0.964,0.299916,-0.207553,0.359582,99770.06,-175,-55,-82
51863,1.958,-2.793,-0.739,0.437732,-0.280452,0.219637,99769.91,-174,-56,-82
51872,1.856,-2.847,-0.483,0.542026,-0.324085,0.071179,99767.36,-174,-58,-82
51883,1.772,-2.984,-0.345,0.604283,-0.339516,-0.094840,99769.69,-174,-58,-82
51893,1.683,-3.212,-0.123,0.604815,-0.321425,-0.269904,99769.69,-174,-58,-82
51903,1.732,-3.359,0.055,0.556393,-0.277260,-0.446032,99768.60,-172,-58,-82
51913,1.892,-3.503,0.196,0.488283,-0.213938,-0.615775,99768.60,-174,-56,-82
51922,2.092,-3.661,0.312,0.413787,-0.143168,-0.778601,99768.27,-174,-56,-82
51933,2.412,-3.893,0.322,0.348338,-0.075058,-0.926527,99768.27,-176,-54,-82
51943,2.736,-4.203,0.357,0.299384,-0.017058,-1.062747,99771.91,-177,-51,-82
51953,3.199,-4.666,0.395,0.281824,0.029768,-1.186197,99771.91,-178,-48,-81
51962,3.666,-5.319,0.527,0.301512,0.057970,-1.293683,99769.95,-178,-48,-81
51973,4.167,-5.799,0.753,0.350466,0.067548,-1.389463,99768.18,-179,-45,-80
51983,4.782,-6.097,0.919,0.437200,0.064887,-1.476729,99766.57,-181,-41,-80
51993,5.462,-6.512,1.031,0.547879,0.048924,-1.544307,99770.89,-184,-37,-78
52002,6.000,-6.822,1.092,0.615989,0.038282,-1.579958,99770.89,-184,-37,-78
52013,6.643,-7.080,1.150,0.646319,0.043603,-1.615077,99769.55,-185,-33,-78
52023,7.304,-7.233,1.430,0.626099,0.064887,-1.641683,99768.20,-186,-28,-77
52033,7.949,-7.462,1.642,0.566503,0.097346,-1.673609,99767.27,-188,-24,-76
52043,8.614,-7.858,1.957,0.469659,0.148960,-1.718839,99769.05,-188,-24,-76
52052,9.014,-8.260,2.039,0.364301,0.216538,-1.744912,99769.14,-190,-19,-75
52063,9.427,-8.064,1.833,0.246173,0.304336,-1.755022,99770.70,-192,-14,-74
52073,9.974,-7.423,1.529,0.101439,0.386281,-1.783756,99770.70,-194,-8,-73
52083,9.368,-8.053,1.038,-0.055533,0.445346,-1.825793,99769.67,-194,-8,-73
52092,6.990,-17.678,8.704,0.149329,0.714593,-1.602839,99769.67,-196,-1,-71
52103,15.319,-17.769,4.748,1.171512,0.336263,-0.896729,99772.16,-196,+0,-69
52113,17.908,-12.145,0.333,1.167787,-0.167645,-0.864803,99770.64,-196,+1,-70
52123,23.704,-3.364,-2.676,0.596833,-0.345370,-0.474766,99768.88,-196,+1,-70
52133,20.080,2.278,1.041,0.133366,0.142575,-0.374197,99768.94,-196,+1,-70
52143,8.966,-5.252,1.475,0.111017,0.302208,0.147802,99768.94,-196,+1,-69
52153,5.063,-7.113,0.634,0.372815,0.065951,0.265931,99770.34,-197,+1,-68
52163,4.313,-6.802,0.460,0.669200,-0.053773,-0.024069,99767.85,-197,+1,-68
52173,5.273,-6.126,1.956,0.661751,0.044667,-0.207115,99768.21,-196,+0,-68
52183,6.528,-6.115,2.392,0.575017,0.110116,-0.308216,99768.21,-197,+0,-67
52193,7.162,-6.081,2.551,0.510631,0.133529,-0.361959,99768.21,-197,+0,-67
52203,7.670,-5.696,2.375,0.405806,0.231437,-0.406656,99772.09,-197,+0,-67
52213,8.681,-5.515,1.603,0.298852,0.316575,-0.406124,99771.37,-198,+1,-66
52222,9.021,-5.608,1.539,0.233934,0.342648,-0.355573,99770.12,-198,+2,-65
52233,8.891,-5.555,1.721,0.140283,0.387346,-0.298106,99768.09,-199,+2,-63
52243,8.773,-5.206,1.649,0.071109,0.392135,-0.239574,99768.09,-199,+2,-63
52253,8.859,-4.626,2.289,0.091861,0.362336,-0.169867,99769.15,-199,+3,-63
52263,8.632,-4.745,2.903,0.165824,0.300080,-0.101225,99770.80,-201,+3,-61
52273,8.302,-5.298,2.947,0.180723,0.232502,-0.053867,99768.45,-201,+3,-60
52283,8.040,-5.358,2.915,0.140815,0.204832,-0.046950,99768.45,-201,+3,-60
52293,7.836,-5.442,2.730,0.081751,0.193658,-0.042693,99769.52,-201,+3,-60
52303,7.955,-5.556,2.408,0.025879,0.185144,-0.041629,99771.70,-202,+3,-58
52313,8.038,-5.424,2.371,-0.016689,0.184080,-0.042161,99771.70,-202,+3,-59
52323,8.058,-5.165,2.268,-0.055001,0.184612,-0.020876,99767.91,-202,+3,-59
52333,8.291,-4.802,2.448,-0.072029,0.181951,0.011050,99766.46,-202,+3,-58
52343,8.289,-4.918,2.284,-0.073093,0.162795,0.051491,99766.46,-203,+3,-58
52348,8.204,-4.955,2.316,-0.080010,0.154281,0.088206,99774.66,-203,+3,-58
52358,8.147,-5.006,2.413,-0.081075,0.146300,0.118536,99772.43,-202,+3,-57
52368,8.027,-4.827,2.637,-0.078946,0.129272,0.154720,99769.26,-201,+2,-57
52378,7.882,-4.814,2.544,-0.069368,0.121291,0.181325,99769.84,-203,+1,-57
52387,7.935,-5.078,2.528,-0.053937,0.109584,0.205270,99769.84,-203,+1,-57
52398,7.979,-5.349,2.412,-0.044891,0.087768,0.215380,99773.45,-203,+1,-57
52408,7.862,-5.440,2.313,-0.049148,0.084043,0.226555,99769.45,-203,+0,-57
52418,7.724,-5.382,2.292,-0.056066,0.084575,0.234004,99768.52,-203,+0,-55
52428,7.755,-5.274,2.310,-0.060322,0.079786,0.242518,99768.21,-203,+0,-55
52438,7.898,-5.168,2.383,-0.052873,0.072869,0.252628,99768.21,-203,-1,-56
52448,8.039,-5.258,2.505,-0.048084,0.065419,0.272848,99770.83,-202,-1,-56
52458,7.998,-5.417,2.416,-0.051809,0.057438,0.290940,99769.80,-203,-2,-55
52468,7.937,-5.431,2.352,-0.068304,0.060630,0.304775,99769.53,-203,-2,-55
52477,7.803,-5.468,2.388,-0.090653,0.067015,0.314353,99767.25,-203,-3,-55
52488,7.838,-5.504,2.455,-0.109277,0.068080,0.325527,99767.25,-201,-3,-55
52498,7.974,-5.514,2.464,-0.130561,0.059034,0.341490,99771.44,-203,-5,-54
52508,8.058,-5.326,2.481,-0.153442,0.056905,0.371821,99770.55,-203,-5,-54
52518,8.024,-5.185,2.588,-0.167276,0.046795,0.419178,99770.50,-201,-7,-55
52528,7.939,-5.331,2.673,-0.172598,0.027107,0.469197,99766.55,-201,-7,-55
52538,7.844,-5.503,2.753,-0.196543,0.015401,0.511233,99766.55,-201,-9,-55
52548,7.735,-5.614,2.782,-0.237515,0.014337,0.540499,99771.63,-201,-9,-55
52558,7.686,-5.453,2.890,-0.265185,0.009016,0.567637,99770.53,-201,-11,-54
52568,7.706,-5.472,2.705,-0.259864,-0.018654,0.604353,99765.81,-200,-12,-56
52578,7.703,-5.733,2.483,-0.255607,-0.046324,0.642664,99770.53,-200,-13,-55
52588,7.809,-5.776,2.477,-0.276891,-0.047920,0.677252,99770.53,-200,-13,-55
52598,7.814,-5.704,2.465,-0.298175,-0.038874,0.710242,99769.25,-199,-15,-55
52608,7.668,-5.849,2.381,-0.305093,-0.025040,0.740040,99772.52,-198,-17,-56
52618,7.522,-6.126,2.231,-0.308818,-0.013865,0.756536,99769.45,-197,-20,-55
52628,7.553,-6.239,2.130,-0.321056,-0.015994,0.762921,99766.86,-197,-20,-55
52638,7.649,-6.208,2.127,-0.330102,-0.025040,0.771435,99766.86,-197,-21,-55
52648,7.717,-6.360,2.049,-0.339148,-0.020251,0.783674,99769.13,-196,-24,-57
52658,7.864,-6.250,2.170,-0.362029,-0.021315,0.811343,99770.34,-196,-26,-56
52668,7.943,-6.263,2.121,-0.357240,-0.037278,0.835288,99769.60,-195,-26,-57
52678,8.068,-6.644,1.888,-0.349790,-0.055370,0.858169,99768.10,-195,-28,-57
52688,8.076,-6.985,1.651,-0.365753,-0.060159,0.859765,99768.10,-194,-30,-57
52698,8.141,-7.213,1.544,-0.411515,-0.049517,0.862426,99770.08,-193,-33,-57
52708,8.344,-7.002,1.641,-0.459937,-0.030893,0.866150,99772.16,-192,-35,-58
52718,8.555,-6.898,1.592,-0.488671,-0.036746,0.895417,99769.66,-192,-35,-58
52728,8.760,-6.639,1.672,-0.504102,-0.062287,0.939582,99768.89,-190,-37,-58
52738,9.018,-6.861,1.758,-0.500909,-0.095810,0.993325,99768.89,-189,-39,-60
52748,9.290,-7.187,1.755,-0.501974,-0.129333,1.052389,99772.20,-188,-42,-60
52758,9.397,-7.374,1.675,-0.523790,-0.142636,1.109325,99771.84,-188,-42,-60
52768,9.453,-7.384,1.478,-0.573276,-0.152746,1.189673,99768.16,-186,-45,-60
52779,9.502,-6.877,1.487,-0.638194,-0.174030,1.294499,99765.77,-185,-48,-62
52788,9.524,-6.481,1.566,-0.666928,-0.206489,1.408903,99765.77,-183,-53,-63
52798,9.689,-6.445,1.592,-0.663203,-0.265021,1.525434,99768.48,-183,-53,-63
52808,10.006,-6.640,1.787,-0.652561,-0.335259,1.632389,99770.09,-180,-56,-65
52818,10.667,-6.899,2.084,-0.645111,-0.407094,1.723379,99769.42,-178,-61,-66
52828,11.246,-6.877,2.491,-0.652028,-0.459241,1.804260,99768.38,-174,-65,-68
52838,11.633,-6.703,2.571,-0.681827,-0.456048,1.880884,99768.38,-174,-65,-68
52848,11.954,-6.545,2.232,-0.795698,-0.410287,1.941012,99773.34,-170,-69,-70
52858,12.343,-5.885,2.538,-0.963313,-0.362929,2.007526,99768.47,-167,-74,-71
52868,13.027,-5.098,3.452,-1.047918,-0.325149,2.082021,99771.84,-162,-78,-74
52878,13.736,-4.927,4.221,-1.053771,-0.278856,2.180994,99769.34,-162,-78,-74
52888,14.187,-4.970,5.188,-1.035680,-0.217131,2.300718,99769.34,-159,-82,-76
52898,14.283,-5.328,6.653,-0.945221,-0.173498,2.448113,99770.20,-154,-88,-77
52909,13.923,-7.197,6.310,-0.740891,-0.211810,2.646590,99769.02,-147,-94,-79
52918,12.389,-11.821,4.523,-0.639258,-0.278324,3.014810,99767.88,-147,-94,-79
52928,12.033,-14.721,2.668,-0.554652,-0.399645,3.450075,99768.91,-142,-101,-80
52938,12.555,-14.453,1.766,-0.617973,-0.415608,3.560222,99768.91,-134,-109,-81
52948,12.442,-11.740,2.465,-0.808469,-0.366654,3.452736,99769.13,-125,-115,-84
52958,12.419,-7.799,4.044,-0.892010,-0.341113,3.230846,99768.93,-125,-115,-84
52968,11.304,-5.303,4.815,-0.862744,-0.305461,2.937654,99764.15,-117,-121,-87
52978,8.065,-4.639,3.778,-0.781331,-0.375700,2.626902,99769.09,-111,-126,-89
52988,5.261,-6.732,2.199,-0.672781,-0.398581,2.369361,99769.09,-104,-129,-90
52999,7.279,-5.863,1.362,-0.490799,-0.491700,2.073508,99767.82,-104,-129,-90
53008,8.662,-2.483,1.288,-0.415772,-0.551296,1.529691,99768.38,-98,-131,-92
53018,8.034,-0.883,1.605,-0.398212,-0.453388,1.050793,99764.80,-94,-134,-93
53028,6.938,0.037,2.030,-0.324249,-0.365058,0.681508,99767.46,-92,-134,-95
53038,5.528,0.227,1.761,-0.142799,-0.342709,0.355857,99767.46,-92,-134,-95
53048,4.619,0.049,1.612,0.062063,-0.333131,0.022757,99766.09,-90,-135,-96
53058,4.104,-0.676,1.142,0.198815,-0.314507,-0.330564,99767.91,-90,-136,-96
53068,3.973,-0.960,0.808,0.219035,-0.265553,-0.691335,99765.05,-90,-136,-95
53079,4.041,-1.038,0.638,0.205732,-0.196379,-1.067004,99764.48,-90,-136,-95
53088,4.003,-1.185,0.528,0.200411,-0.133590,-1.454912,99764.48,-94,-135,-95
53098,3.993,-1.363,0.541,0.199347,-0.067608,-1.831114,99765.05,-97,-133,-93
53108,4.244,-1.448,0.450,0.210521,-0.006948,-2.186563,99766.91,-102,-130,-93
53118,4.685,-1.337,0.268,0.249365,0.036153,-2.532967,99765.72,-102,-130,-93
53128,5.094,-1.549,-0.013,0.326521,0.068612,-2.879370,99763.48,-108,-126,-92
53138,5.534,-2.060,-0.238,0.406338,0.100006,-3.211406,99763.48,-115,-122,-90
53148,5.966,-2.608,-0.290,0.451567,0.137786,-3.534397,99763.58,-123,-116,-89
53158,6.364,-2.903,-0.122,0.480833,0.189933,-3.839296,99763.06,-123,-116,-89
53169,6.776,-3.020,0.254,0.535641,0.245272,-4.126635,99759.17,-133,-109,-87
53179,7.209,-3.109,0.403,0.635145,0.299725,-4.413442,99762.08,-142,-100,-85
53188,7.564,-3.384,0.401,0.729328,0.350098,-4.618305,99762.08,-151,-90,-82
53198,7.919,-3.833,0.369,0.840539,0.400648,-4.810928,99763.89,-161,-90,-80
53209,8.288,-4.451,0.531,0.959732,0.453859,-4.978543,99761.50,-161,-79,-80
53218,8.756,-5.106,0.798,1.072539,0.501749,-5.125937,99763.78,-169,-67,-76
53228,9.451,-5.622,0.979,1.195457,0.537933,-5.272267,99761.08,-176,-54,-74
53238,10.229,-6.294,1.106,1.334337,0.557089,-5.422322,99761.08,-184,-40,-70
53249,11.217,-6.906,1.135,1.481200,0.558685,-5.562799,99764.20,-184,-40,-70
53258,12.350,-7.562,0.981,1.615823,0.538997,-5.681992,99763.42,-190,-26,-66
53268,13.298,-8.432,0.981,1.688190,0.526226,-5.779900,99764.00,-195,-12,-64
53278,13.706,-9.664,1.336,1.673823,0.536336,-5.841093,99763.63,-199,+3,-62
53288,13.558,-11.083,1.794,1.611034,0.545914,-5.863441,99763.63,-199,+3,-62
53299,13.203,-12.274,2.149,1.508869,0.557089,-5.857056,99767.91,-202,+19,-61
53308,13.324,-13.148,2.182,1.385420,0.586355,-5.829918,99767.33,-204,+35,-60
53318,13.426,-13.931,2.294,1.278998,0.616685,-5.741056,99767.64,-204,+52,-58
53328,12.899,-14.183,2.411,1.222062,0.623070,-5.547900,99765.83,-204,+52,-58
53339,12.114,-13.994,2.492,1.201842,0.598061,-5.240873,99765.83,-204,+67,-57
53348,11.569,-14.244,2.253,1.185346,0.554428,-4.838066,99768.04,-203,+82,-57
53358,10.893,-15.173,1.727,1.146502,0.520373,-4.393222,99765.13,-201,+95,-55
53368,9.494,-16.531,1.075,1.050723,0.524630,-3.926030,99767.52,-201,+95,-55
53379,7.436,-17.618,0.795,0.926209,0.543786,-3.437021,99765.54,-199,+105,-55
53388,5.408,-18.291,0.755,0.793714,0.528887,-2.900655,99765.54,-197,+113,-55
53398,3.764,-18.575,0.482,0.595237,0.476208,-2.263719,99770.88,-197,+120,-54
53408,2.554,-18.991,0.304,0.278632,0.430979,-1.511316,99769.69,-197,+120,-54
53419,2.196,-19.180,0.185,-0.101827,0.368722,-0.698784,99767.30,-197,+122,-52
53429,2.230,-18.907,0.533,-0.428542,0.259639,0.086610,99769.69,-197,+122,-52
53438,3.175,-18.214,1.684,-0.579129,0.110116,0.810811,99769.69,-200,+120,-50
53448,7.581,-14.587,4.239,-0.530707,-0.039939,1.297159,99768.05,-200,+120,-50
53458,7.183,-12.746,4.624,-0.465790,-0.057498,1.713801,99769.72,-203,+114,-50
53469,15.461,1.427,5.145,-0.336487,-0.333663,1.704756,99769.34,-205,+109,-50
53478,18.307,10.154,-1.313,-1.056964,-0.050049,0.998114,99768.94,-206,+107,-49
53488,12.053,-2.088,-4.239,-1.685918,0.384685,1.105600,99768.94,-206,+107,-49
53498,11.577,-8.717,1.667,-1.114432,0.035621,1.906425,99771.74,-210,+102,-47
53509,15.122,-6.021,3.240,-0.384377,-0.346966,2.192168,99769.35,-212,+96,-47
53518,14.930,-5.769,-0.656,-0.403001,-0.258104,2.225159,99771.54,-214,+87,-47
53528,13.357,-7.578,0.907,-0.259331,-0.124544,2.534315,99771.34,-214,+87,-47
53534,12.885,-7.428,2.608,0.094522,-0.140507,2.675324,99771.34,-216,+78,-48
53543,11.176,-6.227,3.673,0.445714,-0.227241,2.590718,99771.34,-217,+69,-49
53554,8.730,-5.466,3.904,0.801695,-0.274067,2.446517,99769.94,-217,+69,-49
53564,7.445,-5.398,4.405,0.951218,-0.274067,2.324663,99769.02,-218,+58,-50
53573,6.926,-5.685,5.447,1.027842,-0.260764,2.178333,99767.92,-219,+49,-50
53583,7.921,-7.497,3.956,0.956539,-0.274599,2.041049,99767.85,-219,+40,-51
53594,8.474,-7.891,1.614,0.479769,-0.269810,1.873434,99767.96,-219,+40,-51
53604,8.127,-7.406,1.639,-0.111937,-0.075058,1.687728,99771.49,-220,+33,-51
53613,8.625,-6.780,1.781,-0.580726,0.080318,1.509471,99771.49,-219,+30,-50
53623,9.051,-5.877,1.204,-0.874982,0.127676,1.349838,99770.35,-219,+26,-50
53634,9.071,-4.899,1.155,-0.932982,0.191529,1.256719,99770.30,-219,+26,-50
53644,9.029,-3.991,0.914,-0.802616,0.233034,1.201912,99770.30,-219,+22,-50
53653,8.853,-3.518,0.974,-0.467386,0.196318,1.129013,99772.60,-220,+18,-49
53663,8.999,-3.766,1.090,-0.064047,0.128740,1.075802,99768.71,-219,+15,-49
53673,9.128,-4.265,1.518,0.158907,0.073933,1.049196,99769.65,-219,+15,-49
53684,8.868,-4.490,2.023,0.219567,0.057970,1.001839,99767.41,-219,+11,-48
53694,8.383,-4.755,2.223,0.152522,0.092557,0.912444,99770.28,-219,+7,-49
53703,8.216,-4.900,2.331,0.001934,0.142575,0.801233,99770.17,-218,+4,-47
53713,8.215,-4.779,2.604,-0.191754,0.198447,0.692683,99769.70,-218,+4,-47
53724,8.202,-4.530,2.820,-0.378524,0.262832,0.600628,99768.83,-219,+3,-47
53733,8.227,-4.251,2.818,-0.511019,0.316575,0.547949,99768.83,-218,+2,-46
53743,8.407,-3.962,2.437,-0.591368,0.352758,0.525600,99768.83,-219,+1,-46
53753,8.754,-3.693,2.030,-0.587111,0.359144,0.538903,99770.62,-219,+1,-46
53764,9.052,-3.417,2.158,-0.465790,0.321364,0.591582,99770.26,-219,+0,-45
53774,9.173,-3.355,2.203,-0.311478,0.245804,0.671930,99768.74,-219,-3,-44
53784,8.847,-3.761,2.441,-0.178983,0.182483,0.743765,99766.51,-219,-5,-43
53793,8.326,-4.396,2.839,-0.145460,0.145768,0.787930,99766.51,-219,-5,-43
53804,8.026,-4.678,2.891,-0.209313,0.137786,0.789527,99771.07,-218,-8,-44
53814,7.990,-4.683,3.006,-0.296047,0.148428,0.778885,99769.07,-218,-10,-43
53824,8.407,-4.300,3.122,-0.341276,0.155346,0.774628,99768.07,-217,-13,-43
53833,8.581,-4.268,2.962,-0.351919,0.152153,0.798573,99768.07,-217,-13,-43
53843,8.549,-4.469,2.711,-0.321056,0.123419,0.841673,99771.63,-217,-15,-41
53854,8.397,-4.590,2.466,-0.283808,0.090428,0.879985,99771.63,-217,-18,-42
53864,8.240,-4.924,2.407,-0.291790,0.088300,0.901802,99769.91,-216,-21,-42
53873,8.319,-5.154,2.377,-0.335955,0.114373,0.911380,99770.42,-216,-21,-42
53883,8.372,-5.272,2.350,-0.398212,0.144171,0.917765,99768.50,-215,-24,-42
53889,8.472,-5.192,2.405,-0.440781,0.160667,0.933196,99768.50,-215,-27,-42
53899,8.482,-5.085,2.481,-0.470579,0.169713,0.956609,99769.95,-215,-27,-42
53908,8.433,-5.004,2.575,-0.491863,0.168648,1.003435,99768.18,-215,-30,-41
53918,8.464,-4.755,2.604,-0.493992,0.145768,1.072077,99769.27,-213,-33,-41
53928,8.499,-4.566,2.661,-0.461533,0.106924,1.150297,99768.18,-212,-37,-41
53939,8.469,-4.790,2.497,-0.423753,0.069676,1.237563,99768.18,-212,-37,-41
53949,8.489,-5.110,2.584,-0.403001,0.040410,1.318444,99770.78,-211,-40,-41
53958,8.653,-5.393,2.557,-0.405662,0.005291,1.389214,99769.38,-210,-44,-41
53968,8.787,-5.807,2.595,-0.440781,-0.039406,1.458389,99769.48,-207,-50,-42
53979,8.877,-6.051,2.300,-0.498781,-0.058030,1.513728,99769.33,-207,-50,-42
53989,9.209,-6.121,2.139,-0.577533,-0.069205,1.578645,99769.33,-205,-54,-42
53998,9.756,-6.260,1.688,-0.649368,-0.068140,1.642499,99769.70,-204,-59,-42
54008,10.203,-6.434,1.178,-0.704707,-0.102728,1.716994,99769.39,-201,-63,-45
54019,10.663,-6.336,0.986,-0.706836,-0.160728,1.798939,99770.58,-201,-63,-45
54029,10.836,-6.178,1.138,-0.672781,-0.225113,1.892590,99766.28,-197,-68,-46
54038,10.982,-6.369,1.450,-0.627019,-0.302801,1.999012,99766.28,-195,-73,-47
54048,11.320,-6.809,1.640,-0.602010,-0.361333,2.093196,99769.94,-190,-80,-49
54059,11.696,-7.223,1.813,-0.640322,-0.390599,2.183654,99769.78,-190,-80,-49
54069,12.134,-7.587,2.121,-0.735570,-0.414012,2.290608,99768.48,-186,-85,-51
54079,12.899,-7.406,2.352,-0.818047,-0.480525,2.441195,99767.39,-181,-90,-54
54088,13.995,-6.789,3.310,-0.920212,-0.532672,2.568370,99767.39,-176,-96,-57
54098,15.191,-6.139,3.996,-1.005349,-0.561938,2.704058,99770.18,-176,-96,-57
54109,16.439,-5.776,3.955,-1.129331,-0.540122,2.854113,99769.46,-169,-102,-60
54119,17.968,-5.170,3.974,-1.300138,-0.522562,2.996186,99768.32,-163,-108,-63
54128,20.374,-3.578,5.129,-1.469881,-0.467755,3.108993,99766.76,-155,-113,-67
54138,22.883,-1.830,6.295,-1.656120,-0.339516,3.210626,99766.76,-155,-113,-67
54149,24.184,0.025,7.392,-1.930156,-0.133058,3.352700,99771.00,-147,-118,-71
54159,23.194,-0.093,7.692,-2.169073,-0.003755,3.478809,99765.66,-139,-122,-74
54168,19.239,-6.094,5.678,-2.054138,-0.214471,3.724644,99766.91,-131,-126,-81
54178,14.830,-14.116,2.605,-1.653991,-0.805645,4.315286,99765.61,-131,-126,-81
54189,12.387,-16.978,2.428,-1.237349,-1.225479,4.639873,99765.61,-119,-132,-85
54199,12.686,-15.388,4.274,-0.957459,-1.112140,4.347745,99769.97,-105,-138,-88
54209,15.304,-7.739,5.374,-0.827625,-0.908342,3.750717,99769.34,-93,-141,-92
54218,12.320,1.081,5.505,-0.523258,-0.862580,2.967452,99769.70,-93,-141,-92
54228,7.208,3.427,3.600,-0.065644,-0.869498,2.360315,99766.59,-84,-144,-93
54239,1.246,-3.439,2.219,-0.056598,-0.657186,2.120333,99766.59,-78,-147,-95
54244,3.440,-4.050,2.007,0.170081,-0.781167,1.814370,99770.68,-78,-147,-95
54253,5.318,-0.470,1.618,0.448907,-0.930690,1.124224,99770.68,-71,-147,-95
54263,5.465,1.757,0.981,0.376540,-0.671021,0.273912,99766.63,-69,-148,-95
54274,4.776,1.620,1.055,0.009384,-0.310782,-0.403463,99766.01,-70,-147,-95
54284,4.125,1.443,0.789,-0.208249,-0.161260,-0.949408,99764.46,-70,-147,-95
54294,3.544,1.043,0.381,-0.207185,-0.120287,-1.416068,99766.27,-72,-143,-98
54304,2.858,0.272,0.182,-0.025735,-0.135186,-1.805040,99765.75,-76,-140,-98
54313,2.257,-0.545,0.235,0.251494,-0.160728,-2.158361,99761.19,-81,-136,-98
54324,2.641,-0.559,0.445,0.588852,-0.216067,-2.503168,99761.19,-81,-136,-98
54334,3.850,-0.433,0.268,0.925677,-0.286837,-2.901719,99761.34,-85,-133,-98
54343,4.947,-0.810,-0.024,1.213548,-0.358672,-3.311975,99761.34,-92,-129,-98
54353,5.647,-1.702,-0.080,1.441291,-0.416672,-3.665828,99764.10,-100,-124,-95
54364,5.966,-2.381,-0.101,1.552502,-0.443278,-3.968067,99761.41,-100,-124,-95
54374,6.192,-2.826,-0.077,1.543456,-0.386874,-4.230928,99759.90,-107,-118,-95
54384,6.472,-3.567,0.242,1.507273,-0.302269,-4.467718,99759.18,-115,-113,-94
54393,6.478,-4.670,0.495,1.470557,-0.242140,-4.717277,99759.18,-124,-106,-93
54404,6.297,-5.728,0.422,1.354557,-0.169773,-4.969497,99760.16,-124,-106,-93
54414,6.258,-6.529,0.305,1.161934,-0.051645,-5.210011,99759.30,-132,-96,-93
54424,6.518,-6.999,0.505,0.941640,0.105859,-5.437754,99759.34,-142,-88,-94
54433,7.360,-7.071,0.691,0.724539,0.300612,-5.656451,99759.34,-153,-75,-93
54444,8.472,-7.050,0.706,0.431879,0.527823,-5.871423,99759.34,-153,-75,-93
54454,9.994,-6.495,0.230,0.182320,0.714593,-6.062450,99762.57,-163,-62,-94
54464,11.217,-7.107,0.038,0.161035,0.869437,-6.193882,99763.96,-174,-45,-94
54473,11.757,-8.729,0.930,0.155714,1.042905,-6.275294,99762.93,-185,-27,-92
54483,11.963,-10.500,1.915,0.102503,1.191895,-6.332762,99763.40,-193,-27,-92
54494,11.861,-11.991,2.365,0.196155,1.247767,-6.347661,99763.40,-193,-6,-90
54504,11.731,-12.673,2.665,0.448907,1.245639,-6.308817,99765.13,-201,+15,-88
54514,12.449,-13.032,2.687,0.702723,1.241914,-6.250285,99768.14,-204,+36,-85
54523,13.352,-14.144,2.442,0.858099,1.253088,-6.165148,99762.94,-204,+58,-83
54534,13.549,-15.645,2.327,0.893218,1.253620,-6.007643,99762.94,-204,+58,-83
54544,12.722,-16.539,2.211,0.747420,1.231804,-5.759148,99765.40,-203,+80,-81
54554,11.557,-16.662,2.338,0.507971,1.209455,-5.400506,99766.76,-199,+99,-79
54563,10.427,-16.405,2.450,0.310026,1.204134,-4.920543,99766.76,-194,+115,-77
54574,9.230,-16.933,2.289,0.214246,1.212116,-4.356506,99765.40,-194,+115,-77
54584,7.834,-18.177,1.251,0.204136,1.183914,-3.743516,99767.70,-189,+128,-74
54594,6.172,-19.146,0.323,0.258411,1.089198,-3.083168,99767.70,-185,+137,-71
54603,4.711,-19.605,-0.600,0.350466,0.902428,-2.343535,99769.87,-181,+142,-71
54614,3.423,-20.132,-1.134,0.384521,0.680538,-1.501206,99771.23,-181,+142,-71
54624,2.130,-20.330,-1.281,0.280760,0.426722,-0.586509,99766.91,-180,+145,-69
54634,1.104,-19.589,-0.441,0.063127,0.185676,0.332444,99767.32,-179,+143,-70
54644,1.449,-18.142,1.130,-0.095442,-0.024507,1.179031,99772.25,-180,+139,-70
54653,7.376,-14.532,3.708,-0.076286,-0.223516,1.818627,99767.84,-180,+139,-70
54664,11.280,-7.849,3.511,0.091861,-0.449131,2.058076,99768.14,-182,+133,-70
54674,19.787,10.040,4.266,0.379732,-0.785424,1.811177,99765.66,-183,+126,-73
54684,20.318,15.293,-3.931,-0.269442,-0.460305,0.987472,99765.66,-183,+124,-74
54693,10.504,-4.444,-5.173,-0.474304,-0.242672,1.459453,99765.66,-183,+124,-74
54704,12.359,-11.123,2.915,0.676650,-0.741791,2.667342,99775.11,-183,+118,-74
54714,17.288,-8.663,0.252,1.062429,-0.959956,2.946167,99772.72,-185,+105,-79
54724,15.116,-11.180,-4.268,0.265861,-0.570452,3.050461,99769.97,-187,+95,-80
54734,12.461,-10.817,-0.067,-0.037974,-0.143700,3.273415,99770.39,-187,+95,-80
54744,11.573,-7.098,4.118,0.280228,-0.102728,3.119635,99770.39,-188,+85,-80
54754,8.997,-4.976,4.904,0.656429,-0.219260,2.883379,99769.22,-189,+75,-80
54764,6.549,-5.136,6.098,0.974631,-0.287902,2.713104,99768.39,-190,+64,-82
54774,5.611,-6.407,6.866,1.236429,-0.360269,2.571562,99765.48,-190,+64,-82
54784,7.237,-8.435,4.029,1.160337,-0.475736,2.440663,99765.48,-189,+53,-82
54794,7.742,-8.933,1.330,0.639934,-0.462434,2.218774,99765.48,-188,+46,-82
54804,7.929,-9.877,1.082,-0.042231,-0.232562,1.974003,99772.03,-189,+39,-84
54814,9.344,-9.485,0.474,-0.718542,-0.041535,1.784040,99768.25,-189,+39,-84
54823,9.179,-6.703,-0.204,-1.248523,0.145768,1.564811,99767.05,-188,+35,-83
54834,8.347,-4.448,0.314,-1.299606,0.320832,1.366334,99766.95,-190,+32,-82
54844,8.390,-3.922,0.017,-0.877111,0.354355,1.227985,99766.95,-189,+30,-81
54854,8.979,-3.449,0.493,-0.282212,0.241015,1.159343,99769.30,-189,+30,-81
54864,9.168,-3.582,1.578,0.164228,0.130869,1.162536,99770.75,-190,+26,-80
54874,8.870,-4.068,2.358,0.363769,0.055309,1.158279,99769.05,-190,+22,-81
54884,8.274,-4.640,2.607,0.397824,0.030300,1.097618,99768.50,-189,+18,-81
54894,8.021,-5.069,2.381,0.294063,0.070208,0.982150,99772.28,-189,+18,-81
54904,8.104,-5.357,2.817,0.045567,0.175566,0.845930,99770.22,-189,+14,-79
54914,8.130,-5.199,3.823,-0.349790,0.304869,0.708114,99770.22,-188,+13,-78
54924,8.194,-4.462,4.072,-0.704175,0.411823,0.599564,99766.73,-188,+12,-78
54934,8.548,-3.784,3.039,-0.825496,0.452795,0.577215,99767.61,-188,+12,-78
54944,9.073,-3.012,1.895,-0.704707,0.395859,0.637875,99767.61,-190,+11,-77
54953,9.192,-2.903,1.442,-0.439717,0.275603,0.777820,99771.78,-190,+9,-76
54964,8.793,-3.838,1.706,-0.204524,0.157474,0.931600,99771.05,-190,+7,-76
54974,8.330,-4.550,2.315,-0.134818,0.095749,1.010884,99768.09,-190,+7,-76
54984,7.959,-4.976,2.915,-0.197075,0.098942,1.016738,99768.36,-190,+4,-74
54994,7.752,-5.114,3.286,-0.336487,0.138850,0.985343,99768.36,-189,+1,-74
55004,7.940,-4.956,2.881,-0.437588,0.170777,0.950756,99769.91,-188,+0,-75
55014,8.253,-4.961,2.249,-0.474304,0.172905,0.941710,99769.00,-189,+0,-74
55024,8.411,-5.128,2.039,-0.479093,0.154281,0.953949,99768.42,-189,-4,-74
55033,8.392,-5.245,2.086,-0.475368,0.138850,0.962462,99768.42,-188,-5,-74
55044,8.453,-5.225,2.043,-0.463129,0.130869,0.969380,99768.42,-188,-8,-74
55054,8.595,-5.288,1.999,-0.441313,0.115437,0.984811,99770.36,-187,-10,-74
55064,8.410,-5.557,2.021,-0.443441,0.113841,1.001839,99768.84,-187,-10,-74
55074,8.390,-5.666,2.247,-0.491331,0.151089,1.010352,99769.94,-186,-13,-73
55084,8.392,-5.450,2.625,-0.549331,0.176098,1.027380,99767.81,-186,-15,-74
55094,8.658,-5.350,2.643,-0.575405,0.180887,1.074205,99767.81,-186,-18,-73
55104,8.809,-5.341,2.608,-0.581258,0.171841,1.134334,99769.71,-186,-18,-73
55114,8.698,-5.574,2.437,-0.587111,0.146300,1.202976,99769.77,-185,-20,-74
55124,8.887,-5.744,2.374,-0.603606,0.130869,1.273214,99769.01,-183,-24,-73
55134,9.028,-5.963,2.347,-0.643515,0.141511,1.340260,99769.01,-183,-27,-73
55144,9.541,-5.928,2.048,-0.705239,0.134593,1.390811,99772.84,-183,-27,-73
55154,10.423,-5.944,1.926,-0.747808,0.072337,1.432847,99772.84,-181,-30,-74
55164,10.470,-5.784,1.714,-0.736634,0.009548,1.528095,99770.20,-179,-34,-74
55174,10.642,-5.722,1.454,-0.696194,-0.048452,1.655801,99770.36,-178,-38,-74
55184,10.821,-5.965,1.149,-0.650432,-0.122416,1.782976,99769.63,-178,-38,-74
55194,11.008,-6.146,1.023,-0.622762,-0.187333,1.914939,99769.63,-175,-42,-76
55204,11.326,-6.335,1.201,-0.633937,-0.238416,2.028810,99772.25,-172,-48,-77
55215,11.481,-6.122,1.685,-0.661606,-0.299076,2.152260,99770.55,-169,-54,-78
55224,11.450,-6.005,2.304,-0.665331,-0.377828,2.318278,99768.52,-169,-54,-78
55234,11.713,-6.105,2.501,-0.656285,-0.449131,2.518883,99769.65,-165,-58,-79
55244,12.110,-6.011,3.045,-0.724927,-0.484250,2.700865,99770.95,-161,-65,-81
55255,12.897,-5.908,3.501,-0.857955,-0.478397,2.864223,99769.45,-155,-72,-82
55264,14.397,-6.080,3.725,-1.010138,-0.450195,2.990865,99769.54,-155,-72,-82
55274,15.866,-5.905,4.285,-1.162854,-0.448599,3.079195,99769.54,-149,-78,-86
55284,16.912,-5.514,4.647,-1.369312,-0.354415,3.145709,99768.15,-142,-83,-88
55293,18.396,-5.328,3.991,-1.683789,-0.129865,3.168057,99768.15,-137,-88,-91
55304,21.206,-4.058,3.796,-2.161624,0.123419,3.106865,99770.23,-137,-88,-91
55310,23.683,-1.881,5.173,-2.570284,0.325621,3.056314,99767.06,-131,-91,-95
55319,24.378,-0.208,6.906,-2.891146,0.442153,3.076535,99767.53,-126,-93,-98
55329,21.548,-3.253,5.501,-2.931587,0.218667,3.360149,99764.83,-126,-93,-98
55339,16.996,-11.503,2.839,-2.461202,-0.353351,4.105635,99764.83,-119,-96,-104
55349,14.565,-16.818,2.122,-1.640156,-1.011571,4.773433,99766.15,-106,-101,-109
55359,14.051,-17.696,3.916,-1.098469,-1.268048,4.692020,99768.43,-95,-108,-112
55369,16.027,-11.501,7.223,-0.844120,-1.121186,4.094993,99767.91,-95,-108,-112
55379,14.894,-2.636,6.213,-0.677038,-1.082342,3.342589,99763.87,-85,-111,-115
55389,8.982,-0.335,3.257,-0.564230,-1.103094,2.786003,99763.87,-76,-114,-119
55399,2.863,-7.373,1.638,-0.527515,-0.939736,2.708314,99768.42,-68,-116,-120
55409,5.354,-6.310,3.110,-0.204524,-1.070103,2.223030,99768.31,-68,-116,-120
55419,6.340,-1.949,2.449,0.228613,-1.139809,1.251930,99767.91,-60,-118,-122
55429,5.678,-0.449,1.681,0.212650,-0.861516,0.514958,99769.25,-57,-118,-124
55439,4.338,-0.654,0.993,0.041843,-0.643883,-0.024069,99769.25,-55,-118,-125
55449,2.943,-0.929,0.518,0.002467,-0.530544,-0.481151,99765.77,-55,-118,-125
55459,1.805,-0.797,0.285,0.091861,-0.479993,-0.900454,99764.72,-55,-116,-127
55470,0.890,-0.551,0.322,0.253622,-0.444874,-1.302729,99766.08,-55,-114,-127
55479,0.634,-0.332,0.546,0.461677,-0.404434,-1.705004,99763.58,-58,-114,-127
55489,0.818,-0.013,0.540,0.694209,-0.390067,-2.096104,99763.58,-58,-114,-127
55499,1.113,0.090,0.443,0.959200,-0.392727,-2.486141,99766.70,-61,-112,-126
55510,1.606,-0.362,0.047,1.214613,-0.395388,-2.860214,99764.62,-65,-112,-125
55519,2.237,-0.939,-0.315,1.391273,-0.379957,-3.213003,99764.55,-71,-112,-123
55529,2.670,-1.307,-0.339,1.508869,-0.349626,-3.542379,99763.10,-71,-112,-123
55539,3.108,-1.762,-0.159,1.633915,-0.307058,-3.835571,99763.10,-78,-109,-120
55549,3.749,-2.105,-0.183,1.653603,-0.262893,-4.106947,99759.91,-87,-108,-119
55559,4.252,-2.313,-0.049,1.596667,-0.200104,-4.358103,99762.55,-96,-103,-116
55569,4.618,-3.054,0.325,1.607310,-0.145296,-4.588506,99761.73,-96,-103,-116
55579,4.799,-4.026,0.449,1.625401,-0.104856,-4.817314,99758.87,-105,-99,-114
55589,4.921,-4.830,0.201,1.555163,-0.051645,-5.041864,99758.87,-116,-93,-111
55600,5.391,-5.193,0.096,1.409365,0.052649,-5.281313,99760.95,-126,-84,-108
55609,6.155,-5.426,0.110,1.235897,0.187272,-5.534597,99763.08,-126,-84,-108
55619,6.860,-5.945,0.100,1.003365,0.346373,-5.775111,99760.38,-138,-73,-106
55629,7.656,-6.506,0.078,0.657494,0.540061,-5.977845,99762.41,-147,-58,-104
55640,8.760,-6.709,0.037,0.270650,0.751841,-6.169405,99762.41,-158,-41,-102
55649,9.901,-7.360,0.018,-0.001258,0.944465,-6.362028,99761.77,-158,-41,-102
55659,10.998,-8.485,0.437,-0.150781,1.138152,-6.525386,99764.15,-167,-20,-100
55665,11.796,-9.161,1.126,-0.252414,1.275969,-6.635532,99764.26,-172,+1,-99
55674,12.549,-10.154,1.720,-0.320524,1.374941,-6.728120,99764.26,-172,+1,-99
55685,13.121,-12.025,2.356,-0.229533,1.424428,-6.784523,99763.59,-177,+23,-96
55694,13.891,-13.700,2.914,0.081219,1.387712,-6.748340,99763.59,-178,+45,-93
55704,15.177,-14.864,3.094,0.421769,1.332905,-6.653092,99766.47,-177,+65,-92
55714,16.349,-16.471,2.781,0.613861,1.319070,-6.496652,99765.14,-177,+65,-92
55725,16.215,-17.643,2.204,0.582466,1.296189,-6.249221,99761.84,-174,+84,-90
55734,14.502,-17.652,1.687,0.405806,1.273840,-5.805974,99761.84,-172,+102,-88
55744,12.149,-17.812,1.695,0.256283,1.280226,-5.162121,99761.84,-167,+116,-87
55754,10.144,-18.201,1.640,0.231274,1.295125,-4.441112,99767.38,-167,+116,-87
55764,8.312,-18.542,0.456,0.295659,1.250960,-3.720104,99770.02,-163,+127,-85
55774,6.331,-18.638,-0.820,0.480833,1.073235,-3.000159,99766.33,-160,+135,-85
55784,4.761,-18.777,-2.064,0.657494,0.775786,-2.217426,99769.03,-156,+139,-85
55794,3.518,-19.236,-2.576,0.719751,0.431511,-1.306454,99769.03,-156,+139,-85
55804,2.437,-19.741,-2.294,0.644191,0.071804,-0.309812,99771.56,-156,+141,-86
55815,1.703,-19.415,-0.941,0.502650,-0.245865,0.656499,99768.72,-155,+138,-89
55824,5.923,-16.247,1.877,0.424962,-0.510856,1.402517,99768.56,-156,+133,-91
55834,6.574,-13.785,4.041,0.529255,-0.612489,1.877691,99766.18,-156,+133,-91
55844,14.464,-1.483,6.322,0.675585,-0.824268,2.059673,99769.29,-156,+127,-93
55855,20.770,12.073,0.449,0.188705,-0.682195,1.307269,99769.13,-157,+121,-96
55864,12.528,0.130,-3.704,-0.772817,-0.045260,1.138591,99769.13,-158,+119,-97
55874,12.289,-10.615,-0.062,-0.566891,-0.143168,2.065526,99771.84,-158,+119,-97
55884,17.411,-7.618,1.286,-0.201331,-0.500746,2.566241,99769.55,-159,+114,-97
55895,16.039,-7.621,-2.846,-0.593496,-0.219260,2.757801,99769.55,-161,+107,-97
55904,12.224,-8.455,0.196,-0.797294,0.101071,3.097819,99771.92,-163,+99,-97
55914,11.316,-6.427,3.793,-0.311478,0.021786,3.107929,99771.14,-163,+99,-97
55924,9.814,-4.057,4.659,0.297255,-0.199572,2.844535,99769.22,-165,+91,-97
55934,6.914,-4.416,6.763,0.937383,-0.276727,2.690755,99767.72,-166,+81,-98
55945,6.077,-6.449,7.704,1.556759,-0.284709,2.602957,99767.72,-166,+71,-100
55954,7.839,-7.916,4.167,1.640833,-0.536929,2.429489,99769.30,-166,+71,-100
55964,7.551,-8.641,1.910,1.241218,-0.605571,2.174076,99770.08,-166,+62,-101
55974,7.929,-9.539,0.785,0.626631,-0.373571,1.930902,99770.23,-166,+54,-102
55985,8.651,-10.169,0.196,-0.244964,-0.118159,1.741471,99770.23,-166,+49,-103
55994,9.434,-8.374,0.238,-1.044725,0.201107,1.523306,99770.23,-166,+49,-103
56004,8.513,-6.011,0.076,-1.561936,0.511859,1.298756,99773.24,-167,+47,-101
56014,7.994,-4.533,0.009,-1.575239,0.654465,1.107728,99769.60,-167,+47,-100
56019,8.666,-3.363,0.315,-1.261294,0.634245,1.023655,99770.74,-167,+47,-100
56030,9.401,-2.664,0.979,-0.785588,0.531015,0.983747,99769.04,-169,+46,-100
56039,9.854,-2.495,2.164,-0.237515,0.368722,0.988536,99769.04,-170,+43,-98
56049,9.454,-3.098,2.906,0.066852,0.219731,1.046536,99769.01,-169,+41,-97
56059,8.654,-4.098,2.769,0.192430,0.104795,1.060371,99769.27,-169,+41,-97
56070,8.217,-4.677,2.543,0.225421,0.047327,0.974169,99768.29,-171,+37,-97
56079,8.109,-4.897,2.736,0.146668,0.061162,0.850187,99768.49,-171,+33,-96
56089,7.961,-5.102,3.062,-0.079478,0.152685,0.721417,99768.49,-170,+32,-96
56099,7.990,-5.065,3.208,-0.401405,0.290502,0.582536,99770.52,-170,+32,-96
56110,8.247,-4.571,2.817,-0.610524,0.374043,0.489949,99772.09,-171,+32,-95
56119,8.579,-3.907,2.441,-0.648836,0.372979,0.483032,99769.23,-171,+32,-93
56129,9.002,-3.138,2.331,-0.553588,0.318171,0.534114,99768.60,-172,+31,-94
56139,9.176,-2.763,1.770,-0.337906,0.215297,0.647986,99768.60,-172,+31,-94
56150,8.976,-3.427,1.655,-0.148653,0.125548,0.771435,99769.94,-171,+30,-93
56160,8.525,-4.547,2.183,-0.073093,0.071804,0.853380,99769.00,-172,+27,-92
56169,8.112,-4.955,2.496,-0.156634,0.105327,0.852848,99767.81,-172,+25,-93
56179,7.930,-4.912,2.863,-0.278487,0.159070,0.817196,99766.30,-172,+25,-93
56189,8.032,-4.756,3.031,-0.391295,0.202703,0.781013,99766.30,-172,+23,-92
56200,8.341,-4.419,2.797,-0.437056,0.205896,0.776224,99769.30,-172,+20,-92
56209,8.543,-4.368,2.534,-0.405662,0.175034,0.812407,99767.64,-172,+20,-92
56219,8.510,-4.618,2.344,-0.366286,0.146300,0.858701,99769.25,-172,+20,-92
56229,8.480,-4.833,2.223,-0.352451,0.142575,0.890628,99767.08,-171,+18,-92
56240,8.438,-5.137,2.204,-0.363625,0.157474,0.908719,99767.08,-172,+15,-90
56250,8.490,-5.210,2.209,-0.388634,0.176630,0.921490,99768.41,-172,+14,-90
56255,8.554,-5.264,2.237,-0.415240,0.195786,0.934261,99769.60,-172,+14,-90
56264,8.534,-5.121,2.323,-0.435992,0.203768,0.950224,99769.60,-172,+11,-90
56274,8.528,-5.048,2.666,-0.453552,0.204300,0.989600,99769.24,-172,+8,-89
56285,8.590,-5.053,2.649,-0.468451,0.198979,1.041215,99770.38,-172,+8,-89
56295,8.601,-5.200,2.481,-0.492928,0.188869,1.100279,99770.38,-172,+7,-89
56304,8.840,-5.006,2.540,-0.530707,0.163327,1.179563,99769.66,-172,+4,-89
56314,9.194,-4.598,2.783,-0.565827,0.121823,1.286517,99768.19,-171,+1,-88
56325,9.629,-4.563,2.875,-0.567423,0.062226,1.425398,99770.41,-171,+1,-88
56335,9.685,-4.562,2.969,-0.561038,-0.018654,1.583434,99770.41,-169,+0,-89
56344,9.758,-4.877,2.715,-0.555184,-0.115498,1.738811,99770.41,-169,-5,-89
56354,10.171,-5.584,2.373,-0.566359,-0.208085,1.885141,99770.97,-167,-10,-90
56365,10.716,-6.360,1.997,-0.604139,-0.260232,2.001673,99771.55,-167,-10,-90
56375,11.127,-6.450,1.544,-0.674909,-0.275308,2.088229,99770.45,-165,-15,-92
56384,11.114,-6.172,1.457,-0.709496,-0.300672,2.163434,99770.45,-163,-20,-92
56394,11.049,-5.945,1.794,-0.738762,-0.350159,2.277838,99770.45,-161,-25,-92
56404,11.359,-5.868,2.138,-0.758983,-0.398048,2.415654,99773.13,-161,-25,-92
56415,12.065,-6.111,2.466,-0.787184,-0.453388,2.566241,99769.24,-156,-30,-94
56425,12.965,-6.772,2.985,-0.844120,-0.500746,2.718425,99768.43,-153,-36,-97
56434,14.393,-7.394,3.524,-0.902652,-0.555553,2.899342,99768.43,-147,-41,-97
56444,16.019,-7.274,4.151,-1.022377,-0.567791,3.058443,99771.20,-147,-41,-97
56455,17.451,-6.917,4.369,-1.203294,-0.510324,3.208498,99771.20,-142,-47,-100
56465,19.582,-5.778,4.706,-1.461367,-0.381021,3.314920,99767.72,-137,-52,-102
56474,22.408,-4.629,5.059,-1.752431,-0.218727,3.375048,99768.45,-132,-58,-103
56484,25.015,-2.144,5.072,-2.077018,-0.070269,3.439433,99768.30,-132,-58,-103
56495,26.258,-0.330,5.952,-2.448963,0.123419,3.461250,99768.30,-126,-62,-105
56505,24.176,-0.651,6.082,-2.741091,0.195254,3.464442,99767.88,-121,-65,-108
56515,19.188,-5.869,5.067,-2.613917,-0.070801,3.621415,99767.36,-115,-67,-110
56524,14.022,-12.651,2.815,-2.052009,-0.771057,4.131176,99765.70,-115,-67,-110
56535,10.017,-15.859,2.424,-1.273000,-1.238782,4.486094,99767.52,-105,-71,-114
56545,9.692,-15.307,4.078,-0.710028,-1.135553,4.231213,99769.18,-94,-79,-116
56555,11.835,-7.338,5.463,-0.524854,-0.903021,3.482534,99770.52,-85,-85,-116
56564,10.791,1.486,4.965,-0.189093,-0.960488,2.552406,99770.84,-78,-85,-118
56574,4.615,1.790,3.141,0.131769,-0.967406,1.943141,99770.84,-78,-88,-118
56585,1.267,-4.140,3.005,0.210521,-0.782232,1.796811,99767.66,-73,-92,-119
56595,4.359,-1.456,2.151,0.579274,-1.088195,1.038022,99767.66,-67,-94,-119
56604,4.304,1.561,0.659,0.554264,-0.912599,0.122261,99767.29,-64,-94,-119
56614,3.446,1.571,1.270,0.216375,-0.524691,-0.532766,99765.90,-64,-94,-119
56625,2.933,1.070,1.155,-0.075221,-0.326746,-1.034546,99763.51,-65,-93,-119
56635,2.031,0.929,0.689,-0.140139,-0.234691,-1.476197,99764.54,-66,-90,-119
56644,1.071,0.244,0.754,-0.020414,-0.145828,-1.821536,99764.54,-68,-87,-119
56654,0.720,-0.126,0.883,0.170081,-0.073994,-2.141866,99765.19,-68,-87,-119
56665,0.913,0.030,1.050,0.465402,-0.037278,-2.472838,99764.95,-71,-84,-119
56675,1.395,-0.029,1.101,0.821383,-0.021315,-2.847975,99758.98,-75,-82,-117
56685,2.262,-0.356,0.774,1.135860,-0.020783,-3.256636,99758.98,-80,-77,-116
56694,3.228,-0.697,0.245,1.362007,-0.022379,-3.663168,99758.98,-80,-77,-116
56705,4.042,-1.182,-0.004,1.489713,-0.013333,-4.026066,99762.46,-85,-75,-114
56715,4.448,-1.809,-0.079,1.556227,-0.010140,-4.346396,99761.84,-91,-69,-112
56725,4.338,-2.844,0.092,1.597732,0.007419,-4.634800,99757.68,-97,-64,-112
56730,4.254,-3.681,0.367,1.599328,0.032960,-4.839130,99758.62,-97,-64,-112
56739,4.342,-4.197,0.671,1.550906,0.064355,-5.041864,99758.62,-103,-58,-111
56750,4.826,-4.594,1.090,1.475878,0.137254,-5.297809,99763.56,-103,-58,-111
56760,5.516,-5.070,1.590,1.410429,0.242612,-5.542579,99760.08,-109,-50,-109
56770,6.290,-5.643,1.587,1.284319,0.389474,-5.749570,99762.31,-115,-43,-109
56779,7.189,-6.153,1.402,1.019328,0.605511,-5.909203,99762.00,-122,-32,-109
56790,8.610,-6.401,0.851,0.664943,0.819419,-6.084267,99762.00,-122,-32,-109
56800,10.239,-7.284,0.554,0.365365,1.017896,-6.298707,99766.06,-130,-21,-108
56810,11.608,-9.342,1.250,0.125384,1.270116,-6.472707,99764.14,-135,-7,-107
56819,12.200,-12.840,1.751,-0.132157,1.502648,-6.586578,99763.83,-142,+7,-106
56829,12.047,-16.109,2.078,-0.227405,1.630886,-6.585514,99765.08,-142,+7,-106
56840,12.428,-17.046,2.072,-0.111405,1.676648,-6.575404,99765.08,-149,+22,-102
56850,13.284,-16.532,1.695,-0.018286,1.715846,-6.470224,99769.91,-153,+38,-101
56859,13.925,-16.586,1.679,0.001402,1.737840,-6.196010,99766.07,-156,+53,-97
56869,13.671,-16.889,1.811,-0.022011,1.717088,-5.779900,99766.49,-160,+68,-94
56880,12.472,-16.977,1.793,-0.087460,1.669198,-5.285570,99767.10,-160,+68,-94
56890,11.360,-17.656,2.018,-0.019350,1.633547,-4.704506,99767.10,-162,+81,-90
56900,10.147,-18.858,1.576,0.165824,1.564372,-4.065975,99770.70,-163,+92,-86
56909,8.383,-19.593,-0.238,0.341420,1.404739,-3.375296,99769.00,-164,+100,-84
56920,6.220,-19.490,-2.125,0.507971,1.111547,-2.636728,99770.09,-164,+100,-84
56930,3.951,-19.237,-3.034,0.606411,0.749712,-1.809829,99766.61,-163,+106,-82
56940,2.450,-19.307,-2.645,0.670796,0.366061,-0.887151,99766.61,-165,+107,-81
56949,4.113,-18.195,-1.281,0.713365,-0.010673,0.023821,99771.47,-165,+104,-82
56960,4.363,-17.224,-1.142,0.796906,-0.335259,0.825178,99769.28,-165,+104,-82
56970,4.486,-15.437,-0.225,0.903328,-0.706672,1.644095,99772.45,-166,+100,-84
56980,11.854,-2.940,4.184,1.221530,-1.096176,2.027746,99768.41,-165,+92,-87
56989,21.283,14.360,1.228,1.283255,-1.242507,1.508407,99768.41,-165,+86,-91
56999,14.890,5.971,-2.495,0.451567,-0.583223,1.132205,99767.61,-165,+86,-91
57010,11.742,-8.051,-2.085,0.519145,-0.477333,1.961764,99769.84,-165,+82,-92
57020,15.440,-10.338,-1.117,0.505842,-0.785424,2.482700,99769.33,-166,+73,-93
57030,13.395,-9.858,-1.282,-0.024139,-0.542250,2.459287,99770.11,-165,+67,-95
57039,11.000,-9.719,1.580,-0.572744,-0.005351,2.503984,99770.11,-165,+67,-95
57050,9.055,-9.495,9.761,-0.200267,0.202171,2.542296,99771.52,-167,+59,-93
57060,10.960,-9.849,7.653,0.679842,-0.043663,2.527929,99767.52,-168,+52,-93
57070,10.905,-5.775,-0.107,0.797971,-0.602911,2.304975,99769.40,-167,+43,-95
57079,7.038,-3.438,0.285,0.724539,-0.440085,2.066590,99771.57,-167,+43,-95
57090,5.786,-5.879,2.722,0.758595,-0.269810,1.911214,99771.57,-167,+37,-95
57100,6.068,-8.404,2.578,0.372283,-0.286305,1.667508,99774.03,-165,+30,-95
57110,8.085,-8.276,1.226,-0.237515,-0.108049,1.405178,99772.36,-165,+27,-95
57119,9.251,-6.591,0.495,-0.834542,0.116502,1.166793,99772.36,-165,+27,-95
57129,9.421,-4.948,1.238,-0.993643,0.227713,0.977894,99768.83,-165,+26,-96
57140,9.794,-3.598,1.627,-0.789313,0.234098,0.881582,99768.83,-166,+24,-95
57150,9.849,-2.634,2.182,-0.483350,0.171841,0.873068,99770.55,-166,+23,-95
57160,9.375,-2.392,2.681,-0.216763,0.068080,0.907123,99767.70,-166,+23,-95
57169,9.030,-2.915,2.661,0.025347,-0.050049,0.941178,99768.01,-166,+20,-95
57180,8.981,-3.529,2.713,0.205200,-0.147425,0.928939,99769.15,-165,+17,-95
57190,9.081,-3.889,2.765,0.244044,-0.169241,0.877325,99769.15,-164,+15,-95
57200,8.619,-4.731,2.965,0.114210,-0.158067,0.812407,99771.95,-164,+15,-95
57209,8.262,-4.936,3.054,-0.113001,-0.100599,0.711307,99767.95,-165,+12,-96
57220,8.207,-4.571,2.835,-0.324249,-0.018654,0.588921,99766.91,-164,+11,-95
57230,8.378,-3.958,2.255,-0.432267,0.029236,0.507509,99767.90,-163,+11,-97
57240,8.555,-3.587,1.655,-0.400341,0.046795,0.484096,99767.90,-163,+11,-97
57249,8.719,-3.687,1.399,-0.297111,0.039878,0.496334,99771.05,-164,+10,-96
57260,8.858,-3.771,1.488,-0.198671,0.024447,0.523472,99771.16,-163,+8,-95
57270,8.768,-3.944,1.883,-0.153442,0.021254,0.552738,99769.87,-163,+7,-95
57280,8.579,-4.192,2.225,-0.171533,0.038282,0.568169,99766.23,-163,+7,-95
57289,8.468,-4.140,2.511,-0.227405,0.068612,0.567637,99766.23,-163,+5,-96
57299,8.501,-3.906,2.479,-0.290194,0.089896,0.572426,99770.66,-163,+5,-97
57310,8.659,-3.881,2.276,-0.310414,0.087768,0.600096,99770.55,-163,+3,-95
57320,8.911,-3.783,2.232,-0.295515,0.061694,0.647453,99768.95,-163,+3,-95
57330,9.010,-3.705,2.244,-0.270506,0.031896,0.718224,99769.63,-163,+2,-96
57339,8.931,-3.815,2.254,-0.267313,0.007951,0.795380,99769.63,-163,+0,-95
57350,8.951,-3.790,2.309,-0.288065,-0.010140,0.884774,99769.20,-162,-1,-96
57360,9.006,-3.777,2.374,-0.314139,-0.035682,0.984811,99769.45,-161,-1,-96
57370,9.057,-3.646,2.393,-0.314671,-0.084636,1.096554,99768.62,-161,-3,-96
57379,9.090,-3.644,2.538,-0.285405,-0.145828,1.222132,99768.73,-161,-6,-96
57390,9.014,-3.735,2.396,-0.248689,-0.209149,1.342921,99768.73,-159,-9,-97
57400,8.936,-4.092,2.164,-0.210909,-0.273003,1.450407,99772.88,-158,-13,-97
57410,8.913,-4.263,2.411,-0.197607,-0.344305,1.572792,99767.48,-158,-13,-97
57420,8.890,-4.419,2.551,-0.206653,-0.406562,1.703159,99771.38,-156,-17,-98
57430,9.015,-4.588,2.656,-0.248157,-0.440617,1.823416,99768.16,-153,-21,-100
57440,9.302,-4.889,2.673,-0.310946,-0.445406,1.936755,99768.16,-151,-25,-101
57450,9.471,-5.368,2.566,-0.407258,-0.442746,2.054352,99768.59,-151,-25,-101
57460,9.597,-5.521,2.440,-0.528047,-0.417204,2.168223,99770.72,-148,-30,-101
57469,9.992,-5.607,2.345,-0.627551,-0.393792,2.263471,99767.19,-144,-35,-103
57480,10.164,-5.764,2.323,-0.694065,-0.393259,2.360847,99769.42,-141,-40,-105
57490,10.543,-6.252,2.210,-0.768028,-0.397516,2.468333,99769.42,-141,-40,-105
57500,12.024,-6.673,2.089,-0.869129,-0.427314,2.564645,99769.35,-138,-44,-106
57509,12.725,-6.541,2.250,-1.003221,-0.451259,2.688627,99771.63,-133,-49,-108
57520,14.008,-6.531,2.727,-1.147423,-0.410819,2.844535,99765.77,-130,-54,-109
57530,15.416,-6.760,3.491,-1.252248,-0.359204,2.972241,99769.20,-130,-54,-109
57540,17.059,-7.147,3.711,-1.322487,-0.287370,3.089305,99769.20,-125,-59,-112
57550,19.228,-7.265,4.351,-1.403367,-0.218195,3.146241,99770.98,-120,-63,-114
57560,21.674,-7.592,4.154,-1.375698,-0.283113,3.205305,99770.93,-115,-67,-116
57570,24.777,-7.232,4.476,-1.286303,-0.450727,3.360681,99766.46,-115,-67,-116
57580,23.765,-5.359,4.488,-1.396450,-0.561938,3.411764,99769.21,-109,-72,-117
57590,17.654,-5.091,2.900,-1.640688,-0.582158,3.479874,99769.21,-101,-75,-121
57600,10.482,-8.752,1.785,-1.600248,-0.476801,3.512332,99767.14,-96,-79,-124
57610,5.060,-13.077,1.980,-1.265019,-0.398581,3.509140,99770.88,-96,-79,-124
57620,3.540,-11.140,2.224,-0.877643,-0.357608,3.111654,99768.28,-89,-84,-125
57630,4.175,-4.580,2.255,-0.674377,-0.231498,2.408737,99766.78,-84,-86,-127
57639,4.788,0.921,1.649,-0.589772,-0.124012,1.719122,99766.78,-81,-88,-127
57650,3.709,2.910,0.438,-0.523790,-0.134654,1.088572,99769.01,-81,-88,-127
57660,4.545,2.698,0.069,-0.342873,-0.181480,0.508573,99767.76,-80,-90,-128
57670,4.690,4.015,0.308,0.050356,-0.281516,-0.173592,99766.41,-80,-90,-129
57680,3.837,3.118,-0.266,0.345145,-0.300140,-0.645573,99768.85,-80,-90,-128
57690,2.766,1.986,-0.655,0.584595,-0.325149,-0.965903,99768.85,-80,-90,-128
57700,1.932,1.173,-0.539,0.838411,-0.331003,-1.259628,99769.66,-81,-90,-127
57710,1.738,0.904,-0.277,1.043273,-0.350159,-1.601775,99767.23,-83,-90,-128
57720,1.805,0.673,-0.335,1.245475,-0.391663,-1.976380,99768.37,-87,-91,-125
57730,2.092,0.233,-0.653,1.454594,-0.457113,-2.322783,99763.79,-87,-91,-125
57740,2.518,-0.437,-0.991,1.598796,-0.533736,-2.633535,99763.79,-90,-90,-124
57750,3.028,-1.283,-1.136,1.604649,-0.604507,-2.915021,99769.46,-94,-89,-124
57760,3.516,-2.151,-1.110,1.497163,-0.669957,-3.178948,99767.96,-99,-88,-122
57769,3.920,-3.276,-0.975,1.333273,-0.730085,-3.444471,99765.57,-99,-88,-122
57780,4.278,-4.670,-0.779,1.170980,-0.765736,-3.719039,99764.74,-103,-84,-122
57790,4.596,-5.890,-0.308,1.032631,-0.760415,-3.976048,99764.74,-109,-79,-122
57796,4.764,-6.353,0.013,0.965053,-0.735406,-4.127167,99766.85,-109,-79,-122
57805,4.969,-6.357,0.128,0.958668,-0.684323,-4.218158,99766.85,-115,-73,-122
57816,5.251,-7.174,0.039,0.963457,-0.577902,-4.275626,99766.13,-121,-67,-122
57825,5.850,-8.735,0.340,0.925145,-0.483718,-4.295846,99764.82,-126,-60,-123
57835,6.744,-9.691,0.772,0.884172,-0.463498,-4.300103,99763.90,-126,-60,-123
57845,7.791,-10.339,1.359,1.024649,-0.534801,-4.293185,99770.33,-131,-52,-124
57856,8.896,-10.580,1.995,1.456722,-0.731681,-4.249552,99769.61,-136,-45,-124
57865,9.637,-11.237,2.300,2.109621,-1.057865,-4.111736,99766.17,-137,-39,-125
57875,9.624,-13.372,2.289,2.726868,-1.428213,-3.885590,99766.17,-137,-39,-125
57885,8.913,-15.115,2.511,3.080721,-1.767699,-3.613682,99766.08,-139,-37,-127
57894,8.921,-16.275,3.700,3.150960,-1.908708,-3.260893,99766.08,-138,-35,-127
57905,8.701,-16.733,4.896,3.063162,-1.918818,-2.850636,99770.02,-137,-37,-128
57916,7.400,-17.222,5.775,2.896611,-1.843968,-2.385395,99767.14,-137,-37,-128
57925,6.981,-17.590,5.873,2.737511,-1.743222,-2.039169,99767.14,-135,-37,-130
57935,4.797,-18.773,5.726,2.409731,-1.502708,-1.677334,99766.44,-134,-39,-130
57946,1.691,-19.665,6.181,1.956374,-1.031791,-1.100527,99766.44,-133,-41,-131
57955,0.919,-19.053,5.485,1.328484,-0.527351,-0.665261,99770.40,-133,-41,-131
57965,0.446,-17.547,4.588,0.687824,-0.070801,-0.260326,99768.48,-133,-42,-130
57975,1.229,-15.405,2.778,0.118999,0.244208,0.061068,99768.63,-134,-43,-130
57986,4.484,-11.638,0.413,-0.400341,0.334667,0.262738,99768.63,-134,-43,-130
57995,8.426,-6.068,1.450,-0.794634,0.368190,0.267527,99768.63,-134,-43,-130
58005,12.398,-2.764,1.017,-0.765900,0.394795,0.284022,99771.10,-135,-41,-130
58015,14.505,-4.432,1.506,-0.784524,0.352226,0.603288,99769.54,-135,-41,-130
58025,15.738,-2.322,3.346,-0.203460,0.232502,0.900206,99768.04,-134,-43,-130
58035,12.449,-3.537,0.446,0.335567,0.097878,1.092829,99767.79,-134,-43,-130
58045,7.881,-5.962,-2.871,0.485090,-0.100067,1.206169,99767.79,-133,-47,-129
58055,5.900,-5.575,-0.438,0.794246,-0.160195,1.040150,99771.89,-131,-51,-128
58065,7.069,-5.746,0.475,0.777750,-0.084104,0.821985,99770.59,-130,-54,-128
58076,8.390,-5.856,0.507,0.504778,-0.020251,0.686297,99769.02,-130,-54,-128
58085,9.672,-5.401,1.390,0.243512,0.080318,0.614463,99769.02,-130,-57,-127
58095,10.020,-5.104,1.684,0.049824,0.104263,0.589453,99767.21,-130,-58,-127
58105,9.298,-4.938,2.167,-0.000194,0.086171,0.555931,99771.84,-128,-60,-127
58115,8.636,-4.566,2.319,0.016301,0.024979,0.513894,99771.84,-128,-60,-127
58125,8.614,-4.075,1.797,0.074301,-0.048984,0.466004,99770.07,-128,-61,-126
58135,8.954,-4.170,1.157,0.159439,-0.110709,0.442591,99770.23,-127,-63,-127
58145,9.006,-4.584,0.847,0.224888,-0.163388,0.433545,99770.23,-126,-64,-127
58156,9.016,-5.394,0.960,0.264265,-0.184140,0.411729,99772.14,-124,-66,-127
58166,8.889,-5.745,0.976,0.215310,-0.189994,0.359582,99770.22,-124,-66,-127
58175,8.766,-5.573,0.914,0.093989,-0.153278,0.285087,99771.52,-124,-67,-127
58185,8.470,-5.318,0.786,-0.005515,-0.115498,0.208463,99766.31,-123,-67,-127
58195,8.426,-4.973,0.522,-0.067240,-0.089425,0.146206,99769.69,-123,-67,-127
58206,8.478,-4.784,0.677,-0.082671,-0.067076,0.094591,99772.13,-123,-67,-127
58215,8.652,-4.606,0.691,-0.041166,-0.077186,0.069050,99769.17,-123,-67,-128
58225,8.793,-4.317,0.724,0.005659,-0.090489,0.058940,99766.58,-122,-67,-128
58235,8.714,-4.302,0.964,0.062063,-0.105388,0.064793,99766.58,-122,-67,-127
58245,8.553,-4.434,1.046,0.100907,-0.125608,0.067986,99766.58,-122,-67,-127
58255,8.392,-4.624,0.918,0.111017,-0.134654,0.058408,99770.20,-122,-68,-128
58265,8.372,-4.750,0.719,0.100375,-0.130929,0.040848,99769.80,-122,-69,-128
58270,8.477,-4.684,0.643,0.080687,-0.122416,0.028610,99767.50,-122,-69,-128
58280,8.551,-4.579,0.675,0.066852,-0.110177,0.023289,99768.97,-121,-69,-128
58290,8.739,-4.319,0.743,0.065788,-0.103792,0.025949,99768.97,-121,-69,-128
58300,8.915,-4.081,0.958,0.101971,-0.119755,0.043509,99770.45,-121,-69,-128
58310,8.967,-3.916,0.906,0.174338,-0.151682,0.070114,99769.83,-121,-69,-129
58320,8.814,-3.921,0.995,0.248301,-0.196379,0.114812,99768.13,-120,-70,-128
58331,8.806,-3.900,1.026,0.308962,-0.246397,0.154720,99769.94,-119,-71,-128
58340,8.924,-4.026,1.099,0.352063,-0.292159,0.196224,99769.94,-119,-71,-128
58350,8.907,-4.345,1.183,0.352595,-0.328874,0.241454,99769.27,-119,-72,-128
58360,8.772,-4.521,1.105,0.331310,-0.362929,0.283490,99772.33,-118,-73,-128
58371,8.769,-4.608,1.074,0.279696,-0.385810,0.324463,99768.80,-116,-75,-129
58380,8.786,-4.890,1.324,0.198283,-0.399645,0.369160,99770.67,-116,-75,-129
58390,8.875,-4.930,1.338,0.078026,-0.406562,0.397894,99770.67,-114,-76,-130
58400,8.990,-5.015,1.250,-0.044359,-0.415608,0.417050,99770.80,-113,-77,-130
58411,9.059,-4.911,1.163,-0.165680,-0.429975,0.442059,99770.23,-111,-79,-131
58420,9.211,-4.469,1.345,-0.286469,-0.423058,0.482499,99766.60,-109,-79,-131
58430,9.247,-4.486,1.102,-0.367350,-0.441149,0.524536,99770.18,-109,-78,-131
58440,9.245,-4.932,0.746,-0.416836,-0.481590,0.562316,99770.18,-108,-79,-133
58450,9.184,-4.962,0.774,-0.473772,-0.502342,0.595307,99771.46,-105,-79,-136
58461,9.066,-4.978,0.795,-0.545074,-0.520966,0.630426,99770.48,-103,-79,-137
58470,9.112,-4.992,0.662,-0.597753,-0.566727,0.660756,99768.62,-103,-79,-137
58480,9.253,-5.096,0.721,-0.656285,-0.596525,0.686830,99769.80,-100,-78,-139
58490,9.394,-5.160,0.451,-0.736102,-0.615681,0.717692,99769.80,-98,-78,-141
58501,9.495,-4.945,0.124,-0.815918,-0.642819,0.761325,99770.85,-95,-77,-144
58506,9.512,-4.818,0.111,-0.854762,-0.685388,0.808683,99769.34,-95,-77,-144
58515,9.619,-4.630,0.128,-0.856891,-0.742323,0.867215,99769.34,-92,-77,-145
58525,9.460,-4.605,0.175,-0.824964,-0.843424,0.945967,99769.09,-92,-77,-145
58535,9.401,-4.906,0.201,-0.788249,-0.957828,1.024719,99769.13,-87,-76,-148
58546,9.448,-5.313,0.432,-0.792505,-1.058929,1.091765,99769.13,-83,-75,-151
58556,9.898,-5.613,0.919,-0.838799,-1.114268,1.138059,99769.91,-79,-76,-154
58565,10.887,-5.997,0.950,-0.909570,-1.136085,1.157215,99770.70,-79,-76,-154
58575,11.982,-6.353,0.604,-1.022909,-1.150452,1.161471,99770.02,-73,-75,-157
58586,12.531,-6.497,-0.065,-1.089423,-1.218030,1.171049,99770.02,-69,-73,-160
58595,12.805,-5.974,0.060,-1.107514,-1.295718,1.176371,99770.02,-64,-73,-163
58605,13.201,-5.412,-0.157,-1.083569,-1.373406,1.189141,99770.91,-64,-73,-163
58615,14.080,-5.277,-0.387,-1.026634,-1.468121,1.194462,99769.55,-57,-71,-166
58626,14.987,-4.781,0.159,-0.911166,-1.611613,1.188254,99767.51,-51,-69,-170
58635,15.248,-3.830,1.659,-0.716946,-1.770360,1.185416,99767.51,-43,-69,-172
58645,14.915,-3.360,2.303,-0.429074,-1.972029,1.305141,99767.51,-43,-69,-172
58655,14.857,-3.675,3.407,-0.239643,-2.150286,1.474884,99770.72,-35,-68,-173
58665,15.563,-4.295,3.530,-0.165148,-2.421662,1.584499,99767.88,-26,-70,-176
58676,15.537,-3.753,7.277,-0.111937,-2.812231,1.723911,99767.66,-15,-72,-178
58685,14.306,-4.452,11.643,0.247769,-3.136817,1.959636,99767.66,-1,-74,-179
58695,12.654,-8.297,11.722,0.745824,-3.225148,2.405544,99767.43,-1,-74,-179
58705,11.654,-12.234,9.238,1.002301,-3.081478,2.784938,99767.43,+11,-79,-178
58716,11.705,-13.496,7.291,1.165658,-3.003258,2.870608,99767.48,+24,-83,-176
58725,11.581,-11.697,3.731,1.228980,-3.111808,2.808883,99768.26,+39,-88,-173
58735,9.210,-7.925,5.058,1.837713,-3.384248,2.845599,99765.62,+39,-88,-173
58745,12.358,-3.196,9.216,2.846061,-3.432138,2.721617,99765.62,+54,-94,-168
58756,12.581,-1.000,9.014,3.423932,-3.382652,2.372553,99766.05,+67,-104,-159
58766,9.811,-1.450,7.912,3.597400,-3.258138,2.150663,99766.20,+80,-113,-149
58775,7.419,-2.276,6.592,3.588354,-3.066579,1.886737,99766.66,+80,-113,-149
58785,6.306,-1.988,5.599,3.321235,-2.767001,1.533948,99767.33,+90,-121,-139
58796,6.387,-1.660,4.454,2.899272,-2.384414,1.077398,99768.63,+99,-126,-129
58806,6.662,-1.712,3.287,2.375676,-2.060359,0.591050,99764.94,+104,-130,-123
58815,6.714,-1.680,2.030,1.758429,-1.821442,0.136628,99765.31,+104,-130,-123
58825,6.824,-1.120,1.751,1.239622,-1.571350,-0.320986,99765.31,+106,-133,-117
58835,6.641,-0.311,1.936,1.018796,-1.396286,-0.793500,99764.48,+107,-135,-111
58846,6.397,-0.002,2.273,0.995915,-1.303699,-1.271334,99764.48,+106,-137,-107
58855,6.457,-0.122,2.661,1.121493,-1.249424,-1.721499,99766.31,+106,-137,-107
58865,6.734,-0.365,3.061,1.319970,-1.232929,-2.134948,99767.23,+103,-140,-101
58875,6.975,-0.591,3.383,1.573787,-1.263259,-2.494655,99762.98,+99,-143,-95
58886,7.117,-1.022,3.796,1.871768,-1.303167,-2.791572,99762.42,+94,-148,-89
58896,7.289,-1.723,4.154,2.200612,-1.328176,-3.060819,99762.42,+94,-148,-89
58905,7.333,-2.513,4.387,2.519346,-1.333497,-3.344434,99762.66,+87,-154,-80
58915,7.411,-3.248,4.464,2.765180,-1.311681,-3.638691,99760.89,+79,-160,-71
58926,7.804,-3.973,4.648,2.963125,-1.274433,-3.909534,99758.55,+69,-165,-63
58936,8.317,-4.878,4.822,3.153620,-1.252085,-4.139938,99758.55,+69,-165,-63
58945,8.705,-5.807,4.918,3.300483,-1.230268,-4.337350,99758.55,+57,-170,-52
58955,8.999,-6.683,4.930,3.373382,-1.190892,-4.515607,99763.30,+44,-174,-41
58966,9.458,-7.392,4.697,3.385620,-1.133424,-4.685883,99763.51,+28,-175,-32
58976,10.034,-8.041,4.609,3.391474,-1.063186,-4.860415,99762.05,+28,-175,-32
58981,10.407,-8.730,4.519,3.382960,-0.997204,-4.988121,99764.45,+12,-175,-23
58990,10.684,-9.503,4.594,3.314850,-0.901956,-5.109442,99764.45,-2,-172,-13
59000,11.073,-10.282,4.684,3.132336,-0.730617,-5.259497,99765.20,-2,-172,-13
59011,11.373,-10.770,4.961,2.889162,-0.524691,-5.408487,99765.66,-17,-169,-6
59021,11.559,-11.114,5.272,2.693346,-0.301737,-5.527680,99763.53,-33,-162,+1
59030,11.630,-11.838,5.025,2.573089,-0.073994,-5.594194,99763.95,-46,-157,+6
59040,11.580,-13.388,4.645,2.346942,0.119694,-5.600047,99763.95,-46,-157,+6
59051,11.034,-13.452,3.539,2.034594,0.267621,-5.603772,99767.89,-60,-150,+11
59061,10.871,-14.157,3.858,1.681273,0.535804,-5.519699,99766.03,-74,-143,+15
59070,10.806,-15.810,3.647,1.334337,0.738006,-5.342506,99767.02,-87,-136,+19
59080,10.275,-17.566,3.199,0.942172,0.912006,-5.092947,99766.70,-87,-136,+19
59090,9.257,-19.079,2.983,0.562246,1.093987,-4.779002,99766.70,-99,-128,+21
59101,7.852,-19.792,2.803,0.232870,1.278097,-4.394286,99766.52,-110,-120,+22
59110,6.324,-19.895,2.477,-0.015625,1.437198,-3.909534,99767.24,-118,-112,+25
59120,5.256,-19.897,1.544,-0.172598,1.515418,-3.291755,99767.87,-118,-112,+25
59130,4.357,-20.060,0.469,-0.264120,1.467528,-2.565957,99768.02,-124,-106,+27
59141,3.557,-19.738,-0.559,-0.327442,1.282354,-1.768857,99768.02,-129,-100,+28
59151,3.026,-19.036,-1.000,-0.304561,0.994483,-0.970160,99770.39,-131,-99,+29
59160,2.578,-18.367,-1.153,-0.208781,0.663511,-0.207115,99770.13,-131,-99,+29
59170,2.178,-18.156,-0.997,-0.070432,0.351694,0.511765,99766.03,-130,-99,+30
59181,1.912,-18.410,-0.557,0.062063,0.100538,1.180095,99768.47,-128,-101,+30
59191,7.290,-15.735,1.001,0.154118,-0.086232,1.666976,99768.47,-126,-105,+30
59200,8.397,-12.258,-2.504,0.160503,-0.313975,1.922920,99772.66,-126,-105,+30
59210,14.618,2.350,-0.383,0.445182,-0.723167,1.953251,99768.09,-121,-111,+30
59220,20.270,14.028,-4.718,0.303641,-0.778507,1.330150,99768.88,-118,-113,+30
59231,14.481,1.865,-3.708,0.039714,-0.433168,1.139655,99769.34,-116,-116,+28
59240,11.840,-11.906,2.182,0.857035,-0.672085,2.066058,99769.34,-116,-116,+28
59250,17.640,-12.933,0.563,1.210888,-0.875883,2.683837,99768.88,-112,-120,+30
59260,15.470,-11.896,-5.061,0.482430,-0.659846,2.696608,99772.23,-106,-125,+30
59271,11.700,-9.578,-1.174,-0.023075,-0.100599,2.740241,99771.36,-99,-131,+30
59281,10.389,-7.738,3.188,0.241916,0.147896,2.634883,99768.97,-99,-131,+30
59290,8.900,-7.240,3.689,0.313219,0.114905,2.467801,99768.97,-92,-135,+31
59300,7.496,-5.793,2.847,0.131769,0.062226,2.267195,99772.30,-87,-139,+31
59311,6.145,-5.169,4.798,0.049824,0.127144,2.087343,99768.77,-82,-143,+31
59321,6.977,-7.130,6.799,0.339824,0.122887,2.017636,99768.98,-82,-143,+31
59330,9.588,-8.452,2.691,0.269054,-0.099535,1.892058,99769.40,-77,-146,+33
59336,9.404,-8.209,0.284,-0.107680,-0.144764,1.772866,99769.40,-73,-148,+32
59345,9.178,-7.113,1.113,-0.431203,0.016465,1.680811,99769.40,-73,-148,+32
59356,9.070,-5.708,1.949,-0.697790,0.145768,1.547783,99769.70,-68,-151,+31
59366,8.362,-4.888,1.389,-0.818047,0.173970,1.404114,99771.98,-65,-153,+30
59376,8.192,-4.350,0.648,-0.721203,0.210685,1.284389,99768.14,-61,-154,+28
59385,8.701,-4.046,0.616,-0.443441,0.207492,1.187013,99767.03,-61,-154,+28
59396,9.310,-3.898,1.123,-0.138543,0.166520,1.130609,99768.27,-57,-157,+28
59406,9.255,-4.074,1.726,0.039182,0.121823,1.115178,99769.83,-55,-158,+28
59415,8.735,-4.393,2.246,0.084411,0.090960,1.091233,99769.83,-52,-159,+28
59425,8.310,-4.525,2.554,0.068448,0.072337,1.010884,99768.42,-52,-159,+28
59436,8.028,-4.840,2.853,0.006723,0.072337,0.907123,99765.00,-49,-160,+28
59446,8.016,-4.712,3.215,-0.116726,0.079786,0.809747,99765.00,-47,-162,+27
59456,8.167,-4.524,3.358,-0.276359,0.114905,0.727802,99769.27,-45,-162,+28
59465,8.304,-4.537,2.985,-0.415240,0.158538,0.677784,99770.10,-45,-162,+28
59475,8.470,-4.215,2.325,-0.478561,0.194190,0.660224,99770.68,-43,-163,+27
59486,8.754,-3.992,1.687,-0.438652,0.204832,0.689490,99768.87,-40,-164,+25
59496,8.835,-3.844,1.499,-0.326377,0.177694,0.752811,99770.33,-39,-165,+25
59506,8.571,-4.113,1.745,-0.204524,0.136722,0.833692,99770.06,-39,-165,+25
59515,8.184,-4.605,2.217,-0.142799,0.122887,0.879985,99767.58,-36,-165,+25
59526,7.951,-4.944,2.510,-0.152377,0.131933,0.882114,99768.36,-34,-166,+24
59536,7.822,-5.035,2.558,-0.213038,0.148428,0.866683,99768.36,-32,-167,+23
59545,7.899,-5.116,2.399,-0.277423,0.172373,0.850719,99768.36,-32,-167,+23
59555,8.028,-5.174,2.133,-0.328506,0.189401,0.842738,99770.51,-28,-168,+23
59566,8.243,-5.059,1.932,-0.330102,0.177162,0.846462,99773.57,-26,-168,+22
59576,8.295,-5.055,1.936,-0.306689,0.147896,0.864554,99769.12,-24,-169,+22
59586,8.298,-5.243,1.860,-0.288597,0.142043,0.885839,99768.70,-24,-169,+22
59595,8.326,-5.559,1.617,-0.302964,0.161731,0.897545,99768.70,-21,-171,+21
59606,8.518,-5.787,1.623,-0.358836,0.200043,0.901270,99771.07,-18,-170,+20
59616,8.602,-5.529,1.945,-0.425882,0.241547,0.916701,99770.38,-16,-171,+19
59626,8.640,-5.245,2.395,-0.490799,0.280924,0.965123,99768.32,-16,-171,+19
59636,8.733,-5.000,2.584,-0.527515,0.278263,1.043875,99768.32,-13,-172,+19
59645,8.877,-5.137,2.523,-0.534432,0.247933,1.139123,99770.06,-10,-173,+16
59656,8.927,-5.466,2.193,-0.531772,0.205364,1.231178,99770.06,-7,-173,+15
59666,8.926,-5.361,2.252,-0.546671,0.173970,1.314187,99768.09,-1,-173,+15
59675,9.052,-5.459,2.367,-0.561570,0.128740,1.397728,99771.27,-1,-174,+15
59685,9.397,-5.668,2.625,-0.585515,0.078722,1.484462,99769.23,+1,-174,+12
59692,9.835,-5.968,2.845,-0.618506,0.052116,1.554700,99769.23,+1,-174,+12
59701,10.207,-5.968,2.623,-0.673313,0.022318,1.621214,99771.80,+6,-175,+11
59711,10.795,-5.991,2.085,-0.722799,-0.031957,1.722847,99768.98,+12,-176,+9
59720,11.075,-5.974,1.451,-0.736634,-0.081975,1.834590,99770.39,+17,-176,+6
59730,11.304,-5.932,0.900,-0.711093,-0.152214,1.962829,99768.20,+17,-176,+6
59741,11.591,-6.025,0.822,-0.655753,-0.248526,2.097452,99768.20,+24,-175,+4
59751,11.936,-6.086,1.412,-0.606267,-0.346966,2.238994,99772.68,+31,-176,+2
59761,12.380,-6.364,2.017,-0.600946,-0.416672,2.389581,99769.40,+39,-175,+1
59770,12.741,-6.877,2.684,-0.655221,-0.439021,2.535379,99772.10,+39,-175,+1
59781,13.394,-7.080,2.929,-0.745148,-0.452324,2.715764,99768.41,+47,-175,-1
59791,14.952,-6.795,3.175,-0.905313,-0.463498,2.868479,99768.41,+56,-173,-4
59801,16.989,-6.037,4.155,-1.043129,-0.517773,2.996186,99768.84,+65,-172,-7
59811,19.005,-4.415,5.112,-1.150261,-0.504116,3.162027,99768.52,+65,-172,-7
59821,20.035,-3.928,5.007,-1.282046,-0.399113,3.309598,99767.70,+75,-171,-11
59831,21.205,-3.342,4.374,-1.482652,-0.263957,3.401121,99769.26,+87,-167,-15
59841,23.199,-2.205,4.444,-1.788083,-0.031957,3.351635,99769.26,+96,-163,-20
59851,24.648,-0.727,5.989,-2.195679,0.286777,3.253195,99768.62,+96,-163,-20
59860,22.020,-2.957,5.598,-2.525055,0.352758,3.368131,99766.80,+106,-158,-27
59871,16.803,-10.827,2.655,-2.410119,-0.094214,3.947598,99768.73,+117,-152,-35
59881,14.004,-16.157,2.891,-1.934413,-0.624195,4.590919,99770.85,+130,-145,-39
59890,13.762,-17.086,5.535,-1.522560,-0.776911,4.497800,99770.85,+130,-145,-39
59900,15.750,-11.036,6.419,-1.287367,-0.663039,3.912479,99769.85,+143,-137,-42
59911,12.969,-1.399,6.094,-0.957459,-0.676342,3.140920,99769.07,+154,-130,-46
59921,8.551,1.703,3.900,-0.601478,-0.741259,2.542828,99764.71,+162,-126,-47
59931,3.983,-2.644,4.885,-0.529111,-0.565663,2.361911,99766.32,+6,-126,-47
59940,8.893,0.682,5.680,0.091861,-0.783296,1.704756,99766.32,+170,-120,-48
59951,9.233,4.549,3.141,0.528723,-0.841828,0.654371,99768.77,+174,-120,-47
59961,7.590,3.432,1.934,0.474448,-0.594929,0.010518,99767.58,+176,-120,-46
59971,5.598,1.276,1.146,0.386650,-0.526287,-0.441243,99768.61,+177,-122,-46
59980,4.308,-0.229,0.262,0.354191,-0.478929,-0.910032,99764.78,+177,-122,-46
59991,3.215,-0.615,0.171,0.366430,-0.411351,-1.397977,99764.78,+176,-126,-45
60001,2.300,-0.697,0.583,0.447842,-0.335259,-1.887517,99766.49,+172,-131,-45
60011,2.257,-1.227,1.198,0.596301,-0.289498,-2.328636,99764.84,+169,-137,-43
60021,2.777,-1.073,1.399,0.810741,-0.307058,-2.745278,99762.29,+169,-137,-43
60030,3.405,-1.085,1.366,1.091695,-0.364526,-3.152342,99764.05,+163,-145,-41
60041,4.132,-1.456,1.221,1.362007,-0.429443,-3.541847,99764.05,+155,-154,-38
60047,4.522,-1.814,1.172,1.505677,-0.471480,-3.813223,99759.74,+155,-154,-38
60056,4.698,-2.069,1.146,1.595071,-0.502342,-4.057461,99759.74,+144,-164,-32
60066,4.916,-2.342,1.289,1.678612,-0.519902,-4.346929,99761.87,+132,-175,-28
60076,5.055,-2.831,1.615,1.763750,-0.519369,-4.595956,99760.15,+132,-175,-28
60086,5.332,-3.529,1.904,1.842502,-0.497021,-4.818910,99760.62,+117,-185,-22
60096,5.650,-4.493,2.240,1.859530,-0.443810,-5.022708,99762.05,+99,-195,-17
60106,6.027,-5.588,2.384,1.795144,-0.369847,-5.218524,99759.46,+80,-204,-10
60116,6.701,-6.221,2.144,1.604649,-0.270342,-5.425515,99760.09,+80,-204,-10
60126,7.453,-6.468,2.011,1.378502,-0.120287,-5.629313,99760.09,+57,-211,-4
60136,8.194,-7.010,2.067,1.154484,0.063823,-5.802248,99759.84,+33,-216,+0
60146,9.003,-7.582,1.939,0.898539,0.245804,-5.973588,99759.84,+5,-216,+4
60155,10.103,-8.085,1.940,0.670796,0.434703,-6.156634,99766.31,+5,-216,+4
60166,11.416,-8.505,2.139,0.528723,0.615621,-6.315734,99763.81,-24,-212,+8
60176,12.410,-9.181,2.491,0.474448,0.772593,-6.450891,99762.78,-51,-204,+10
60186,13.041,-10.077,2.794,0.484026,0.883804,-6.548266,99762.72,-78,-192,+14
60196,13.472,-11.242,3.012,0.571292,0.947657,-6.590836,99762.72,-101,-192,+17
60206,13.882,-12.811,3.114,0.670264,0.977987,-6.573808,99764.87,-101,-173,+17
60216,14.246,-14.229,3.011,0.644191,1.028538,-6.500909,99768.07,-119,-152,+20
60226,14.318,-15.215,3.145,0.444650,1.123253,-6.376927,99764.95,-132,-130,+22
60236,14.084,-15.569,3.770,0.194026,1.249895,-6.165148,99764.95,-140,-108,+24
60246,13.360,-15.666,4.485,0.030668,1.403143,-5.813423,99764.95,-140,-108,+24
60256,11.816,-16.330,4.294,-0.095974,1.573950,-5.338249,99767.72,-142,-90,+26
60266,9.883,-17.954,2.728,-0.189093,1.727198,-4.760910,99767.34,-142,-76,+27
60276,7.960,-20.160,0.401,-0.346065,1.836812,-4.154305,99766.36,-141,-64,+28
60285,6.109,-20.815,-1.227,-0.574340,1.840005,-3.473737,99764.59,-141,-64,+28
60296,4.653,-20.272,-2.196,-0.748340,1.672391,-2.604801,99764.59,-138,-58,+29
60306,3.710,-20.157,-2.724,-0.819111,1.289804,-1.556545,99771.43,-135,-55,+28
60316,3.257,-19.258,-2.633,-0.731845,0.750244,-0.436986,99772.52,-131,-56,+28
60326,3.556,-17.810,-1.961,-0.414708,0.174502,0.650114,99769.24,-131,-56,+28
60336,4.035,-17.037,-0.994,0.098246,-0.372507,1.603655,99769.24,-126,-60,+26
60346,7.810,-14.884,2.523,0.680374,-0.776911,2.347544,99771.87,-120,-65,+25
60356,11.458,-9.240,5.813,1.236429,-0.976984,2.600828,99767.93,-114,-71,+23
60366,19.481,6.009,6.443,1.677548,-1.219094,2.374150,99767.93,-114,-71,+23
60376,20.713,11.588,-7.305,0.734650,-1.003057,1.527031,99768.49,-107,-75,+23
60386,10.554,-6.505,-8.960,-0.051277,-0.746580,2.116076,99770.57,-101,-80,+21
60396,13.199,-12.602,1.181,0.770301,-0.939736,3.134002,99770.57,-92,-87,+20
60401,18.636,-12.257,0.245,0.995915,-1.035516,3.326626,99770.53,-92,-87,+20
60411,16.606,-13.654,-4.244,0.213182,-0.812030,3.348443,99770.38,-85,-94,+19
60421,11.912,-12.160,-1.881,-0.635001,-0.200636,3.513929,99770.42,-85,-94,+19
60431,10.907,-7.383,3.124,-0.405130,0.009016,3.367599,99768.09,-76,-101,+17
60441,9.197,-4.733,5.159,0.289806,-0.130929,3.080259,99768.09,-69,-107,+16
60451,6.660,-5.636,6.219,0.940044,-0.288966,2.837617,99769.40,-62,-111,+17
60461,5.559,-8.691,6.661,1.358282,-0.431039,2.652443,99769.30,-55,-111,+20
60471,8.306,-12.346,4.392,1.469493,-0.559278,2.592847,99766.18,-55,-116,+20
60481,8.797,-9.361,1.037,1.089567,-0.631113,2.442260,99766.85,-49,-119,+21
60491,7.974,-7.418,0.662,0.334503,-0.369315,2.195361,99766.85,-43,-123,+22
60502,8.125,-7.459,0.887,-0.356708,-0.141039,1.998480,99770.60,-38,-124,+20
60511,8.258,-7.348,0.470,-0.997900,0.097346,1.722315,99769.10,-38,-124,+20
60521,7.892,-5.824,0.984,-1.387936,0.344245,1.438701,99769.62,-35,-126,+19
60531,7.933,-4.760,0.845,-1.311845,0.501217,1.182756,99768.63,-32,-126,+16
60540,8.525,-4.214,0.189,-0.845716,0.484722,1.013013,99768.63,-30,-128,+15
60551,9.215,-3.735,0.758,-0.291790,0.365529,0.953417,99770.32,-30,-128,+15
60561,9.266,-3.800,2.183,0.005659,0.277199,0.972040,99766.79,-26,-129,+15
60571,8.525,-4.401,2.848,0.096650,0.205364,0.969380,99768.98,-24,-130,+15
60581,8.168,-4.611,2.559,0.139751,0.156942,0.895949,99768.35,-22,-131,+16
60591,8.194,-4.672,2.865,0.101439,0.170777,0.793784,99768.35,-22,-131,+16
60601,8.176,-4.852,3.517,-0.063515,0.230373,0.690022,99772.89,-20,-131,+16
60611,7.967,-4.952,4.155,-0.341808,0.324024,0.589986,99770.45,-19,-133,+15
60621,8.050,-4.683,4.125,-0.616909,0.419272,0.503784,99769.56,-17,-131,+14
60631,8.447,-4.244,3.444,-0.724927,0.434171,0.462279,99765.98,-17,-131,+14
60641,8.839,-3.588,2.351,-0.654157,0.380428,0.492077,99765.98,-16,-132,+14
60651,9.061,-3.512,1.553,-0.491863,0.301144,0.594775,99771.40,-15,-133,+12
60661,8.744,-4.096,1.518,-0.332763,0.203768,0.717160,99767.55,-12,-134,+11
60672,8.393,-4.577,2.118,-0.248157,0.154281,0.785270,99768.43,-12,-134,+11
60681,8.044,-4.836,2.845,-0.282212,0.164392,0.800701,99767.51,-11,-133,+11
60691,7.970,-5.086,3.075,-0.393955,0.205364,0.788995,99767.51,-8,-135,+10
60701,8.010,-4.911,2.996,-0.507295,0.245804,0.772499,99770.39,-6,-135,+9
60711,8.194,-4.662,2.893,-0.568487,0.260171,0.777288,99769.77,-6,-135,+9
60721,8.344,-4.705,2.656,-0.559973,0.238355,0.810279,99769.09,-5,-135,+7
60731,8.304,-4.928,2.551,-0.533900,0.204832,0.850719,99767.69,-2,-135,+7
60741,8.411,-5.029,2.454,-0.531240,0.196850,0.884242,99767.69,-1,-136,+6
60751,8.551,-5.130,2.458,-0.557845,0.211217,0.923086,99769.80,-1,-136,+6
60756,8.532,-5.110,2.462,-0.596157,0.230905,0.958738,99770.16,+1,-137,+4
60766,8.431,-5.058,2.411,-0.633937,0.253254,1.001839,99770.16,+4,-137,+3
60776,8.554,-4.790,2.497,-0.663203,0.259107,1.078462,99768.82,+4,-137,+3
60786,8.707,-4.579,2.729,-0.664267,0.228245,1.177435,99767.73,+7,-137,+2
60796,8.938,-4.854,2.704,-0.638194,0.183015,1.290774,99767.73,+10,-137,+1
60807,9.077,-5.306,2.704,-0.632873,0.139382,1.401985,99772.00,+15,-139,+0
60816,8.931,-5.393,2.894,-0.652028,0.099474,1.496701,99768.11,+15,-139,+0
60826,9.312,-5.553,2.650,-0.686616,0.066483,1.581838,99768.11,+19,-139,-1
60836,10.144,-5.823,2.098,-0.738230,0.014869,1.653141,99768.11,+23,-139,-4
60846,10.810,-5.845,2.193,-0.753129,-0.038342,1.747324,99768.11,+29,-139,-6
60856,11.177,-5.818,1.822,-0.744083,-0.086232,1.856407,99772.77,+29,-139,-6
60866,11.235,-5.891,1.257,-0.708964,-0.141039,1.981985,99767.89,+34,-140,-7
60876,11.247,-5.855,1.062,-0.654689,-0.215535,2.102242,99767.94,+40,-140,-9
60887,11.286,-5.982,1.275,-0.599350,-0.311315,2.229416,99768.16,+48,-140,-10
60896,11.731,-6.359,1.649,-0.567423,-0.388470,2.342223,99768.16,+48,-140,-10
60906,12.362,-6.873,2.071,-0.588175,-0.424122,2.428957,99771.20,+55,-140,-12
60916,12.592,-7.433,2.497,-0.666395,-0.464562,2.528994,99769.06,+62,-139,-14
60926,13.166,-7.169,2.560,-0.752065,-0.507131,2.680645,99767.63,+72,-139,-16
60937,14.198,-6.512,2.736,-0.888817,-0.517773,2.789727,99767.63,+72,-139,-16
60946,15.586,-5.571,3.657,-0.997900,-0.557681,2.881782,99767.93,+81,-138,-19
60956,17.046,-4.647,4.706,-1.101129,-0.552360,2.985544,99767.93,+90,-137,-20
60966,18.120,-4.289,5.085,-1.277257,-0.472544,3.090901,99769.79,+101,-135,-25
60977,18.880,-3.792,5.133,-1.570450,-0.330471,3.145177,99768.71,+101,-135,-25
60986,20.319,-2.464,6.032,-2.018486,-0.084636,3.118039,99770.26,+111,-131,-29
60992,21.914,-1.184,7.404,-2.406394,0.175566,3.069085,99770.26,+121,-127,-34
61001,22.975,-0.399,8.083,-2.754926,0.415015,3.060039,99768.13,+121,-127,-34
61011,21.835,-3.824,6.542,-3.020981,0.448538,3.259580,99770.68,+131,-122,-43
61021,19.224,-9.833,4.511,-2.658614,-0.114434,3.865121,99765.80,+144,-115,-49
61031,18.132,-12.860,2.686,-1.916321,-0.795002,4.406809,99770.01,+159,-109,-52
61041,16.849,-14.941,3.421,-1.365056,-1.111076,4.480772,99770.01,+159,-109,-52
61051,16.378,-11.090,7.609,-1.189991,-0.988158,4.167360,99769.80,+172,-101,-54
61062,13.722,-3.153,7.044,-1.030891,-0.839167,3.319176,99765.71,+184,-96,-56
61071,11.273,3.262,4.721,-0.815386,-0.751369,2.680645,99764.93,+194,-91,-56
61081,3.679,-0.795,3.134,-0.504102,-0.680599,2.339562,99768.04,+194,-91,-56
61091,2.740,-7.011,6.932,0.093989,-0.637498,2.093728,99768.04,+203,-88,-57
61102,8.767,-2.064,4.640,0.899604,-1.061057,1.076334,99765.33,+209,-89,-55
61112,7.347,1.909,1.823,0.961506,-0.890073,-0.072491,99765.02,+212,-93,-52
61121,5.796,1.176,1.251,0.726668,-0.536929,-0.584913,99766.72,+212,-93,-52
61131,4.357,-0.243,0.381,0.495200,-0.381553,-0.996234,99765.06,+213,-97,-50
61142,3.151,-0.600,-0.305,0.337164,-0.299076,-1.421389,99765.06,+213,-104,-49
61152,2.063,-0.322,-0.086,0.274375,-0.217663,-1.857719,99766.16,+210,-111,-49
61161,1.696,-0.061,0.627,0.377604,-0.124544,-2.329169,99766.37,+210,-111,-49
61171,1.814,-0.196,1.306,0.581934,-0.057498,-2.803278,99766.05,+206,-119,-48
61181,2.449,-0.533,1.439,0.827769,-0.025040,-3.222049,99763.37,+199,-130,-46
61192,3.102,-1.237,0.973,1.027842,-0.009608,-3.600379,99763.37,+190,-142,-44
61201,3.727,-1.894,0.685,1.134796,0.004227,-3.943058,99763.50,+190,-142,-44
61211,4.354,-2.303,0.402,1.192264,0.026575,-4.264984,99759.34,+179,-154,-41
61221,4.827,-2.671,0.323,1.207163,0.074465,-4.569350,99761.89,+165,-166,-38
61232,5.300,-2.980,0.393,1.216209,0.117566,-4.844983,99761.05,+149,-178,-34
61241,5.877,-3.294,0.576,1.231640,0.165456,-5.100928,99761.05,+149,-178,-34
61251,6.416,-3.853,0.779,1.239622,0.228777,-5.322818,99763.47,+130,-189,-31
61261,6.859,-4.609,0.968,1.239622,0.297419,-5.499478,99760.52,+109,-197,-28
61272,7.352,-5.187,1.163,1.222594,0.372446,-5.667093,99760.41,+87,-205,-23
61281,7.957,-5.795,1.362,1.213016,0.458116,-5.837900,99760.61,+87,-205,-23
61291,8.929,-6.377,1.365,1.189603,0.543786,-6.010303,99760.61,+63,-210,-19
61301,10.111,-7.057,1.035,1.158209,0.615089,-6.188028,99763.27,+39,-211,-15
61312,11.299,-8.024,0.961,1.159273,0.697033,-6.351386,99763.89,+14,-211,-11
61322,12.333,-9.141,1.221,1.204502,0.768336,-6.458872,99764.25,+14,-211,-11
61331,13.015,-10.290,1.587,1.261970,0.781107,-6.551991,99761.45,-9,-207,-6
61341,13.711,-11.450,1.914,1.382759,0.738538,-6.630744,99761.45,-32,-201,-2
61351,14.240,-12.856,2.329,1.526961,0.652336,-6.682358,99766.06,-55,-192,+3
61362,14.634,-14.891,2.539,1.562612,0.586887,-6.672780,99763.58,-55,-192,+3
61371,14.754,-17.043,2.781,1.415218,0.594868,-6.594028,99765.50,-75,-182,+6
61381,14.179,-18.314,3.343,1.087970,0.690116,-6.412046,99764.45,-92,-172,+12
61391,12.996,-18.443,4.515,0.718154,0.864648,-6.055001,99764.45,-110,-161,+15
61402,11.520,-18.869,5.538,0.486686,1.081749,-5.520231,99767.83,-110,-161,+15
61411,9.318,-20.511,5.201,0.362173,1.278097,-4.852965,99767.98,-122,-150,+18
61421,7.192,-22.745,2.558,0.213182,1.451565,-4.121314,99767.98,-132,-141,+21
61431,5.395,-24.111,-1.128,-0.001790,1.504776,-3.377425,99766.00,-140,-132,+25
61442,3.850,-24.275,-3.016,-0.186965,1.321730,-2.619700,99766.00,-140,-132,+25
61452,1.794,-23.906,-2.969,-0.476964,1.035455,-1.653389,99772.15,-146,-128,+28
61461,0.440,-23.697,-2.162,-0.740359,0.682134,-0.481151,99773.24,-147,-126,+27
61467,0.521,-22.296,-1.498,-0.783460,0.366061,0.415986,99766.80,-147,-126,+27
61476,1.340,-20.798,-0.813,-0.607331,0.016465,1.246077,99766.80,-146,-128,+26
61487,8.690,-15.140,3.039,-0.188561,-0.429975,2.058076,99768.30,-142,-133,+25
61497,13.523,-3.994,6.013,0.449971,-0.805112,2.314021,99768.30,-137,-139,+25
61506,26.478,19.595,4.962,1.056044,-1.148323,1.602590,99768.87,-137,-139,+25
61516,19.181,11.043,-8.222,-0.528047,-0.383149,0.964591,99769.05,-133,-142,+23
61527,9.065,-15.801,-6.035,-0.525918,-0.438489,2.503984,99769.23,-128,-146,+22
61537,18.769,-15.060,5.037,0.652173,-0.940800,3.396333,99769.23,-119,-154,+21
61546,18.399,-12.752,-4.941,0.129641,-0.884397,3.251066,99769.23,-119,-154,+21
61556,11.963,-10.515,-1.801,-0.848377,-0.123480,3.431984,99772.36,-111,-161,+19
61566,11.004,-6.257,3.243,-0.365753,-0.003223,3.360681,99770.08,-101,-168,+18
61577,9.069,-4.029,3.507,0.284485,-0.249590,3.026516,99768.63,-93,-174,+19
61586,6.290,-4.955,4.678,0.851182,-0.395388,2.770039,99769.77,-93,-174,+19
61596,5.028,-6.864,7.816,1.268356,-0.459773,2.549214,99769.77,-85,-179,+22
61606,6.713,-10.045,7.410,1.550906,-0.468819,2.373617,99770.38,-78,-183,+25
61617,10.090,-11.236,2.176,1.291236,-0.707736,2.277838,99769.66,-71,-186,+27
61627,9.235,-9.188,-0.256,0.677714,-0.651865,2.132572,99770.18,-71,-186,+27
61636,8.695,-7.301,1.330,0.041311,-0.338984,1.976664,99770.18,-64,-190,+28
61646,8.220,-6.801,1.092,-0.568487,-0.180416,1.760095,99772.12,-59,-192,+27
61657,7.924,-5.912,0.814,-1.024505,-0.021315,1.499361,99771.55,-54,-194,+23
61667,7.979,-5.289,0.686,-1.251184,0.179291,1.262572,99771.55,-54,-194,+23
61676,8.482,-4.117,0.632,-1.212872,0.336263,1.093894,99769.05,-50,-195,+20
61686,9.023,-3.454,0.637,-0.893074,0.366593,1.021527,99771.20,-46,-196,+17
61697,9.366,-3.121,1.256,-0.434396,0.300080,1.026848,99771.20,-44,-197,+17
61707,9.334,-3.112,2.023,-0.033717,0.192593,1.081655,99770.61,-39,-198,+17
61716,8.727,-3.633,2.468,0.161035,0.092557,1.132738,99768.22,-39,-198,+17
61726,8.285,-4.110,2.628,0.184980,0.056905,1.110921,99769.72,-37,-199,+19
61736,8.107,-4.628,2.599,0.071641,0.087236,1.030040,99769.05,-33,-201,+18
61747,8.068,-5.072,2.823,-0.138543,0.176630,0.917765,99770.00,-30,-202,+18
61757,8.182,-4.827,3.216,-0.401937,0.276667,0.799637,99770.67,-30,-202,+18
61766,8.294,-4.237,3.485,-0.603074,0.330410,0.729930,99768.08,-28,-203,+16
61776,8.542,-3.885,2.994,-0.666395,0.336263,0.724609,99768.45,-24,-203,+14
61787,8.812,-3.632,2.277,-0.600414,0.296887,0.783141,99768.45,-23,-203,+13
61797,8.842,-3.661,1.727,-0.438120,0.207492,0.887967,99768.45,-23,-203,+13
61806,8.712,-3.871,1.519,-0.261460,0.111713,1.012481,99770.52,-19,-204,+12
61816,8.489,-4.542,1.873,-0.172065,0.048924,1.097618,99766.88,-16,-205,+11
61821,8.212,-4.940,2.419,-0.187497,0.044667,1.126884,99769.27,-16,-205,+11
61832,8.141,-5.162,2.698,-0.260928,0.065419,1.124756,99767.55,-11,-206,+11
61842,7.992,-5.381,2.717,-0.389698,0.105859,1.098150,99767.55,-8,-206,+9
61851,8.128,-5.230,2.508,-0.487607,0.135658,1.073673,99770.50,-8,-206,+9
61861,8.320,-5.003,2.277,-0.516340,0.135126,1.076334,99769.72,-3,-207,+9
61872,8.399,-5.029,2.003,-0.486542,0.102135,1.103472,99768.06,-1,-207,+6
61882,8.384,-5.194,1.847,-0.452487,0.083511,1.131673,99769.16,+3,-207,+5
61891,8.337,-5.598,1.684,-0.421625,0.076593,1.143912,99769.16,+3,-207,+5
61901,8.070,-5.775,1.859,-0.423221,0.077658,1.143912,99771.29,+7,-207,+4
61912,7.958,-5.665,2.164,-0.453019,0.104795,1.136994,99770.82,+10,-208,+3
61922,7.978,-5.726,2.259,-0.487607,0.136190,1.137527,99767.29,+14,-209,+1
61932,8.107,-5.802,2.167,-0.513680,0.147364,1.149765,99768.79,+14,-209,+1
61942,8.186,-5.638,2.281,-0.541882,0.155346,1.186835,99768.79,+19,-208,+0
61952,8.243,-5.699,2.262,-0.555717,0.152153,1.235435,99769.78,+23,-208,-1
61962,8.387,-5.668,2.140,-0.574873,0.151621,1.304077,99769.27,+27,-208,-3
61972,8.572,-5.634,2.301,-0.583386,0.121823,1.387618,99769.47,+33,-208,-5
61981,8.733,-5.732,2.854,-0.582854,0.072337,1.486058,99765.78,+33,-209,-5
61991,9.279,-6.091,2.920,-0.597221,0.045199,1.583434,99765.78,+37,-208,-6
62002,10.141,-6.579,2.047,-0.640322,0.015933,1.650480,99772.05,+44,-208,-8
62012,10.163,-6.649,1.433,-0.680762,-0.018654,1.726040,99769.77,+49,-207,-11
62021,10.312,-6.518,1.199,-0.694597,-0.053773,1.821288,99770.13,+49,-207,-11
62031,10.557,-6.551,0.943,-0.665331,-0.093682,1.920792,99769.34,+55,-206,-12
62042,10.688,-6.803,1.065,-0.630744,-0.150617,2.011251,99769.34,+62,-205,-15
62052,10.810,-6.816,1.355,-0.605735,-0.196379,2.102774,99771.37,+71,-205,-17
62061,11.119,-6.633,1.796,-0.588707,-0.226709,2.192168,99770.32,+71,-205,-17
62071,11.550,-6.770,2.425,-0.590304,-0.276727,2.284223,99766.95,+78,-203,-19
62082,12.102,-7.044,2.944,-0.640322,-0.317168,2.374150,99767.68,+86,-201,-20
62092,12.885,-7.491,3.330,-0.713753,-0.340581,2.481636,99767.68,+94,-198,-22
62102,14.408,-7.696,3.980,-0.771753,-0.423590,2.643397,99768.58,+94,-198,-22
62111,15.836,-7.043,4.706,-0.870726,-0.478929,2.778021,99767.17,+103,-195,-25
62121,16.627,-6.685,4.652,-1.025570,-0.393259,2.873801,99765.30,+114,-192,-28
62132,17.847,-6.475,3.776,-1.314505,-0.215535,2.903599,99766.75,+123,-187,-33
62142,20.804,-4.942,3.957,-1.789679,-0.038874,2.863691,99766.75,+123,-187,-33
62151,25.342,-1.464,5.975,-2.349991,0.186208,2.812608,99770.11,+132,-180,-38
62161,26.503,0.879,7.451,-2.876247,0.377235,2.910516,99767.61,+141,-174,-47
62172,21.364,-2.325,4.971,-3.094944,0.199511,3.172314,99766.36,+149,-165,-56
62182,15.872,-10.876,1.859,-2.689477,-0.318764,3.717727,99768.03,+149,-165,-56
62191,12.874,-16.759,1.429,-1.922707,-0.958360,4.411598,99768.03,+163,-156,-61
62201,12.252,-18.279,3.261,-1.272468,-1.224415,4.503121,99770.03,+178,-145,-63
62212,13.931,-12.969,6.084,-0.885625,-1.094048,3.906626,99767.95,+189,-137,-64
62222,12.986,-3.622,5.620,-0.619038,-1.032855,2.954681,99765.67,+189,-137,-64
62232,9.680,1.767,3.051,-0.416304,-1.152580,2.238994,99766.20,+196,-131,-63
62241,1.736,-4.193,1.873,-0.533900,-0.866837,2.173012,99766.20,+202,-126,-62
62252,4.541,-4.787,3.167,-0.274231,-0.878544,1.909086,99770.61,+208,-120,-62
62262,5.462,0.259,2.379,0.192962,-1.034984,0.842206,99768.94,+208,-120,-62
62272,3.998,1.565,1.365,0.295127,-0.738067,0.054683,99767.95,+210,-120,-60
62281,2.349,0.418,0.796,0.094522,-0.457645,-0.471573,99765.47,+208,-121,-58
62291,1.145,-0.086,-0.284,-0.078946,-0.283113,-0.927591,99765.47,+207,-123,-58
62302,0.664,0.230,-0.492,-0.067772,-0.155939,-1.361793,99767.57,+207,-123,-58
62312,0.254,0.886,-0.200,0.072173,-0.046324,-1.818343,99765.29,+203,-126,-58
62322,0.435,1.318,-0.164,0.266393,0.046263,-2.286600,99763.88,+198,-130,-57
62331,0.959,1.371,-0.223,0.464870,0.117034,-2.735700,99766.02,+190,-137,-57
62342,1.696,1.190,-0.338,0.694209,0.167584,-3.141168,99766.02,+190,-137,-57
62352,2.480,0.661,-0.370,0.953879,0.191529,-3.535461,99764.34,+181,-144,-55
62362,2.878,-0.130,-0.387,1.156613,0.220795,-3.922305,99765.13,+169,-152,-53
62371,2.893,-1.050,-0.277,1.280594,0.292630,-4.252745,99761.59,+157,-160,-50
62382,3.069,-1.760,0.025,1.371585,0.393199,-4.542745,99761.69,+157,-160,-50
62392,3.598,-2.391,0.209,1.475878,0.480997,-4.818910,99761.69,+142,-169,-47
62402,4.212,-3.178,0.158,1.582833,0.535272,-5.080708,99763.63,+127,-177,-44
62411,4.449,-4.616,-0.314,1.574319,0.597529,-5.342506,99763.05,+109,-184,-40
62422,4.516,-6.536,-0.796,1.392869,0.736410,-5.616010,99761.44,+109,-184,-40
62432,4.811,-8.289,-1.061,1.045402,0.940740,-5.859184,99761.80,+89,-190,-38
62442,5.087,-9.561,-1.154,0.598430,1.190299,-6.060854,99761.80,+67,-194,-37
62452,5.968,-10.226,-0.614,0.282356,1.468060,-6.224744,99763.04,+45,-195,-36
62461,7.579,-9.674,-0.501,0.114210,1.644189,-6.340744,99763.30,+45,-195,-36
62472,9.398,-9.955,0.136,0.115274,1.683033,-6.339148,99763.91,+22,-195,-36
62482,10.804,-11.584,1.014,0.371751,1.523932,-6.213037,99761.48,+0,-192,-36
62492,11.302,-13.861,1.459,0.814466,1.248831,-6.002322,99761.48,-21,-188,-33
62501,11.781,-17.136,1.490,1.363603,0.994483,-5.711790,99768.14,-40,-184,-28
62512,12.365,-20.013,1.088,1.802062,0.734813,-5.313772,99768.41,-40,-184,-28
62522,12.297,-22.104,0.072,2.052685,0.504410,-4.841259,99768.67,-56,-178,-22
62532,9.923,-23.927,-0.406,2.008343,0.343003,-4.280060,99768.05,-69,-175,-17
62541,6.518,-24.691,-0.050,1.741401,0.280392,-3.736067,99768.05,-80,-169,-12
62552,2.930,-24.603,1.494,1.373713,0.292630,-3.062416,99767.64,-80,-169,-12
62562,0.819,-23.852,2.857,1.082649,0.325089,-2.381315,99769.67,-87,-165,-9
62572,0.675,-21.791,3.343,0.890026,0.311786,-1.743848,99769.20,-90,-163,-6
62582,1.497,-19.538,2.294,0.774558,0.285713,-1.142564,99766.77,-94,-161,-4
62592,4.207,-17.721,1.681,0.610136,0.303272,-0.597151,99766.77,-94,-161,-4
62602,3.422,-17.594,-1.080,0.368558,0.293162,-0.103353,99769.70,-94,-160,-2
62612,2.409,-17.767,-3.127,0.064191,0.129272,0.425564,99772.05,-93,-161,-3
62622,4.305,-16.279,-4.510,-0.130029,-0.101663,0.851251,99769.77,-90,-163,-3
62631,11.283,-4.762,1.471,0.071641,-0.517241,1.039086,99768.47,-90,-163,-3
62642,19.895,9.835,2.763,0.362173,-0.697626,0.608609,99768.47,-87,-164,-3
62652,17.924,-0.698,0.543,-0.500377,0.192061,0.695343,99773.45,-86,-165,-4
62662,15.654,-12.932,4.825,-0.211442,0.297419,2.028278,99770.02,-79,-169,-3
62671,16.151,-17.050,4.247,1.137989,-0.020783,2.665746,99769.34,-79,-169,-3
62682,14.322,-11.449,-4.310,1.133200,-0.604507,2.532186,99770.54,-72,-174,+0
62692,6.047,-5.262,-3.010,0.529787,-0.286305,2.100113,99770.54,-65,-177,+0
62702,5.428,-4.936,1.427,0.555329,0.173437,1.996352,99769.88,-59,-180,+2
62711,5.508,-6.080,2.045,0.379732,0.036153,1.727104,99769.57,-59,-180,+2
62722,6.928,-7.052,2.454,0.043971,0.150025,1.495104,99768.32,-54,-182,+4
62732,8.559,-6.480,3.214,-0.268377,0.193125,1.255655,99768.38,-50,-184,+2
62742,9.331,-4.769,3.536,-0.312542,0.140447,1.063031,99768.38,-48,-184,+2
62752,9.406,-4.606,2.776,-0.301368,0.099474,0.935857,99770.35,-48,-184,+2
62761,9.447,-4.063,2.461,-0.295515,0.078722,0.888499,99769.32,-44,-185,+1
62768,9.251,-4.129,2.589,-0.293919,0.084043,0.881050,99768.65,-42,-186,+0
62777,8.994,-4.362,2.351,-0.249753,0.049988,0.859765,99768.65,-42,-186,+0
62787,8.870,-4.286,2.295,-0.192286,0.016997,0.810279,99768.34,-39,-187,+0
62797,8.885,-4.277,2.496,-0.175258,0.004759,0.776756,99768.34,-36,-188,+0
62807,8.713,-4.551,2.192,-0.196010,0.013805,0.741105,99774.10,-34,-188,+0
62817,8.513,-4.584,1.858,-0.227937,0.033493,0.701729,99770.16,-34,-188,+0
62827,8.471,-4.256,2.029,-0.235919,0.041474,0.673527,99767.62,-32,-189,-1
62837,8.344,-4.168,2.353,-0.219423,0.045731,0.654371,99767.62,-30,-190,-2
62846,8.308,-4.147,2.517,-0.189625,0.030832,0.655967,99767.62,-27,-190,-3
62857,8.267,-4.313,2.313,-0.149185,-0.001095,0.660756,99768.52,-27,-190,-3
62867,8.064,-4.770,2.028,-0.115662,-0.036214,0.651178,99770.59,-25,-191,-2
62877,7.898,-5.237,1.712,-0.151845,-0.013865,0.617123,99768.56,-23,-192,-3
62887,7.977,-5.308,1.668,-0.255252,0.046086,0.574909,99769.71,-21,-192,-4
62897,8.229,-4.921,1.756,-0.325313,0.087236,0.546353,99769.71,-21,-192,-4
62907,8.415,-4.651,1.702,-0.348194,0.104795,0.539435,99768.87,-19,-191,-4
62917,8.465,-4.538,1.688,-0.320524,0.089896,0.559655,99768.77,-17,-193,-5
62927,8.478,-4.492,1.786,-0.275827,0.052649,0.603288,99768.10,-16,-192,-6
62938,8.486,-4.416,2.146,-0.244964,0.009548,0.651710,99768.87,-16,-192,-6
62947,8.544,-4.490,2.390,-0.219423,-0.028232,0.702793,99771.40,-14,-192,-6
62957,8.534,-4.654,2.358,-0.227405,-0.058030,0.765582,99768.02,-12,-194,-7
62967,8.567,-4.624,2.089,-0.248157,-0.093682,0.835820,99768.02,-8,-194,-8
62977,8.696,-4.502,2.157,-0.267845,-0.130929,0.923086,99767.15,-8,-194,-8
62987,8.930,-4.265,2.163,-0.267845,-0.167113,1.025783,99769.70,-5,-194,-10
62997,9.205,-4.032,2.174,-0.257203,-0.216067,1.164132,99769.70,-1,-194,-11
63007,9.614,-3.867,2.538,-0.195301,-0.294110,1.334407,99771.06,+3,-195,-11
63016,9.780,-4.085,2.736,-0.142267,-0.371975,1.502022,99771.06,+3,-195,-11
63027,9.976,-4.574,2.568,-0.128965,-0.435828,1.682939,99767.98,+8,-195,-11
63037,10.304,-5.174,2.362,-0.169937,-0.435296,1.835122,99767.30,+15,-196,-12
63047,10.648,-5.820,2.085,-0.290726,-0.406562,1.989434,99767.30,+22,-196,-13
63057,11.638,-5.990,1.573,-0.480689,-0.359737,2.108095,99768.77,+22,-196,-13
63067,12.613,-6.173,1.162,-0.675973,-0.335259,2.250168,99768.97,+30,-196,-15
63077,13.549,-5.915,0.947,-0.886689,-0.335792,2.448113,99768.30,+38,-196,-18
63087,15.078,-5.284,1.493,-1.072927,-0.344837,2.684370,99768.30,+48,-195,-20
63097,18.197,-4.544,2.926,-1.183074,-0.371443,2.947232,99768.30,+48,-195,-20
63107,22.464,-5.695,4.488,-1.179881,-0.420929,3.163800,99772.07,+58,-194,-24
63117,26.421,-7.491,4.312,-1.072927,-0.557149,3.318644,99770.15,+69,-192,-28
63127,27.135,-6.914,3.559,-1.001092,-0.746580,3.513929,99769.68,+81,-189,-30
63137,21.881,-4.271,2.638,-0.988854,-0.860984,3.650149,99766.93,+81,-189,-30
63148,13.865,-4.099,2.223,-0.848909,-0.823204,3.638974,99766.93,+95,-187,-32
63157,6.599,-8.977,2.242,-0.525386,-0.788085,3.585763,99770.41,+107,-182,-34
63167,3.405,-12.473,1.961,-0.194414,-0.917920,3.546387,99767.09,+120,-179,-33
63177,4.799,-5.787,0.829,0.140283,-1.111076,2.885507,99768.59,+120,-179,-33
63187,5.317,0.901,1.282,0.162632,-1.023810,2.002205,99768.59,+128,-177,-31
63198,4.366,1.917,1.594,0.207329,-0.932819,1.400389,99769.11,+134,-175,-30
63207,5.634,2.036,0.973,0.429219,-1.031259,0.885839,99769.11,+138,-174,-28
63217,4.840,1.737,0.266,0.566503,-1.029131,0.227619,99768.38,+138,-174,-28
63227,3.162,0.381,0.055,0.402613,-0.870562,-0.241170,99766.88,+139,-175,-25
63237,2.072,0.573,0.276,0.216375,-0.711993,-0.690271,99766.56,+138,-175,-23
63247,1.832,1.203,0.640,0.121127,-0.563002,-1.160123,99766.56,+135,-177,-23
63257,1.997,1.326,0.585,0.047164,-0.488507,-1.612417,99768.49,+130,-179,-22
63267,2.020,0.866,0.193,0.002467,-0.474140,-2.011499,99768.49,+130,-179,-22
63278,2.136,0.194,-0.307,0.020558,-0.470947,-2.335022,99765.32,+124,-182,-22
63287,2.487,-0.522,-0.427,0.070577,-0.456581,-2.619168,99765.82,+116,-185,-20
63297,3.089,-1.256,-0.131,0.124852,-0.461902,-2.892673,99767.01,+107,-188,-20
63307,3.746,-1.930,0.141,0.208925,-0.503406,-3.162985,99764.62,+107,-188,-20
63318,4.260,-2.635,0.322,0.337164,-0.572048,-3.405094,99764.88,+96,-191,-19
63327,4.562,-3.553,0.310,0.519677,-0.657186,-3.598783,99764.88,+85,-194,-17
63337,4.911,-4.398,0.297,0.760723,-0.746580,-3.727021,99764.62,+73,-196,-12
63347,5.480,-4.901,0.498,1.109255,-0.829057,-3.800452,99764.62,+73,-196,-12
63357,5.956,-6.023,1.011,1.584961,-0.935479,-3.846214,99769.39,+61,-199,-8
63367,5.815,-8.235,0.875,2.083548,-1.061589,-3.820140,99768.19,+48,-202,-2
63377,5.537,-10.159,0.829,2.370355,-1.148855,-3.727553,99766.22,+35,-203,+5
63387,5.877,-11.327,1.725,2.642795,-1.216965,-3.619535,99766.27,+35,-203,+5
63397,6.678,-13.200,2.395,2.892355,-1.326580,-3.481186,99766.27,+24,-204,+14
63408,7.405,-14.963,2.832,2.962593,-1.541020,-3.333792,99768.92,+13,-204,+23
63417,7.887,-16.463,3.732,2.849254,-1.660745,-3.108177,99766.84,+3,-203,+30
63427,7.429,-17.460,5.155,2.604483,-1.669791,-2.801682,99768.19,+3,-203,+30
63437,6.041,-17.509,6.297,2.258612,-1.575607,-2.458471,99768.19,-7,-201,+37
63447,4.421,-17.023,7.168,1.892520,-1.343075,-2.043958,99768.19,-13,-199,+42
63457,2.769,-16.223,7.690,1.614759,-1.029663,-1.641683,99767.73,-19,-198,+46
63467,1.835,-15.981,7.181,1.510466,-0.719975,-1.271866,99772.04,-19,-198,+46
63477,2.426,-16.496,5.401,1.381695,-0.461369,-0.948344,99767.12,-23,-195,+50
63488,2.318,-17.706,3.122,0.970906,-0.125608,-0.635995,99768.73,-26,-195,+53
63497,1.673,-17.366,2.410,0.374943,0.202703,-0.283739,99768.73,-26,-195,+54
63507,4.699,-13.239,-0.533,-0.279552,0.321896,-0.019812,99769.74,-26,-195,+54
63517,9.801,-6.060,-1.435,-0.892010,0.353823,0.000408,99770.37,-26,-195,+52
63527,13.980,-2.365,-1.902,-0.855294,0.271346,0.116408,99766.38,-26,-195,+50
63538,16.342,-4.205,1.723,-0.246561,0.298483,0.558591,99766.38,-24,-195,+50
63547,17.817,-3.716,3.046,0.481365,0.111713,0.864554,99771.13,-24,-195,+50
63557,11.256,-6.037,-2.476,0.772961,-0.148489,1.067820,99771.13,-20,-196,+52
63567,6.460,-5.400,-1.439,0.992723,-0.263957,1.130077,99769.52,-17,-197,+55
63578,6.056,-5.780,0.267,1.157677,-0.238416,0.978958,99768.47,-13,-197,+58
63587,7.053,-7.029,1.099,0.995383,-0.205957,0.786334,99768.06,-13,-197,+58
63598,8.305,-7.394,2.806,0.504956,-0.030183,0.607900,99769.32,-11,-197,+60
63607,9.176,-6.018,2.829,0.155182,0.050520,0.526664,99769.32,-9,-198,+61
63618,9.036,-5.072,2.289,0.033329,0.026043,0.470793,99765.79,-7,-199,+61
63628,8.648,-5.126,1.367,0.074301,-0.047388,0.425564,99767.04,-7,-199,+61
63637,8.678,-4.990,0.699,0.138687,-0.094214,0.372353,99766.88,-6,-198,+61
63647,8.745,-5.033,0.671,0.195090,-0.107517,0.326591,99771.30,-5,-198,+61
63657,8.785,-5.277,0.291,0.229677,-0.128269,0.294133,99769.12,-5,-198,+63
63668,8.951,-5.173,0.505,0.250962,-0.129333,0.263270,99768.96,-5,-198,+63
63677,8.963,-5.054,1.015,0.247237,-0.127205,0.246775,99768.96,-3,-198,+63
63687,8.687,-5.387,1.063,0.216375,-0.130929,0.220701,99766.68,-3,-199,+63
63697,8.438,-5.574,1.055,0.123255,-0.110709,0.184518,99766.68,-3,-197,+63
63708,8.419,-5.144,0.987,0.017366,-0.077718,0.145142,99772.50,-3,-197,+63
63717,8.431,-4.594,1.051,-0.016689,-0.069737,0.129179,99771.27,-3,-198,+65
63727,8.524,-4.343,1.148,0.001934,-0.079315,0.140885,99768.72,-3,-199,+63
63737,8.510,-4.450,1.151,0.038650,-0.105920,0.156848,99770.80,-1,-199,+64
63748,8.541,-4.526,1.469,0.065256,-0.134122,0.168555,99770.80,-1,-199,+64
63758,8.544,-4.621,1.423,0.052485,-0.149021,0.180261,99770.42,-1,-199,+65
63767,8.402,-4.780,0.904,0.032265,-0.157535,0.195160,99766.73,-1,-198,+64
63777,8.405,-4.741,0.847,0.013109,-0.161260,0.218573,99767.14,+0,-199,+64
63788,8.590,-4.553,0.895,0.014705,-0.174562,0.240922,99767.14,+0,-199,+65
63797,8.718,-4.677,0.949,0.033861,-0.196911,0.264334,99767.14,+0,-199,+65
63807,8.659,-4.869,0.987,0.051953,-0.228305,0.274977,99770.43,+0,-199,+63
63817,8.567,-4.885,1.020,0.040246,-0.240012,0.289876,99770.12,+1,-199,+65
63827,8.605,-4.991,1.084,0.005659,-0.258104,0.304775,99769.07,+2,-199,+63
63838,8.769,-4.903,1.123,-0.028928,-0.285773,0.324463,99770.37,+2,-199,+63
63847,8.918,-4.814,1.235,-0.055533,-0.317700,0.355857,99770.37,+5,-199,+63
63857,9.010,-4.870,1.087,-0.070965,-0.359204,0.388316,99769.25,+4,-199,+63
63867,8.917,-5.098,0.995,-0.081607,-0.396984,0.412261,99771.08,+6,-199,+63
63878,8.765,-5.283,0.965,-0.107148,-0.429975,0.432481,99768.27,+6,-199,+63
63888,8.669,-5.619,0.777,-0.166744,-0.445938,0.444188,99768.27,+7,-201,+62
63897,8.676,-5.739,0.651,-0.257203,-0.444874,0.439931,99770.23,+8,-201,+61
63907,8.665,-5.701,0.807,-0.367882,-0.436892,0.438334,99771.11,+10,-201,+59
63918,8.712,-5.628,0.697,-0.488139,-0.424122,0.446316,99771.11,+10,-201,+59
63927,8.787,-5.414,0.473,-0.590304,-0.412948,0.465472,99769.39,+11,-201,+58
63937,8.854,-5.162,0.643,-0.654157,-0.435296,0.502720,99769.97,+13,-201,+56
63947,9.175,-5.191,0.717,-0.683423,-0.461369,0.540499,99769.97,+14,-202,+54
63952,9.004,-5.690,0.334,-0.702579,-0.484250,0.560719,99771.71,+14,-202,+54
63963,8.994,-5.855,0.093,-0.750469,-0.502874,0.587857,99771.40,+17,-203,+52
63972,8.912,-5.668,-0.230,-0.862212,-0.498617,0.621912,99770.77,+17,-203,+52
63982,9.084,-5.180,-0.025,-0.961184,-0.509259,0.677252,99769.59,+19,-203,+49
63992,9.316,-4.814,0.393,-0.989918,-0.565131,0.759196,99769.59,+21,-203,+45
64003,9.630,-4.723,0.194,-0.973423,-0.652929,0.848059,99769.84,+24,-204,+42
64013,10.213,-5.077,-0.534,-0.951074,-0.741791,0.919361,99770.98,+24,-204,+42
64022,10.678,-5.526,-0.898,-0.952670,-0.818415,0.973105,99771.29,+27,-205,+39
64032,10.887,-6.020,-1.276,-0.974487,-0.890250,1.014609,99769.68,+31,-203,+36
64043,10.941,-6.217,-1.895,-1.002157,-0.971131,1.038022,99769.68,+34,-205,+33
64053,11.171,-6.215,-1.443,-1.017588,-1.073828,1.043343,99770.49,+37,-205,+30
64062,11.733,-5.887,-0.508,-0.998432,-1.194617,1.042279,99770.49,+37,-205,+30
64072,12.549,-5.814,0.469,-0.962781,-1.306892,1.047600,99768.41,+41,-203,+27
64082,13.247,-5.553,1.459,-0.948414,-1.395222,1.072077,99768.05,+44,-203,+23
64093,13.224,-5.335,1.331,-0.983533,-1.439387,1.132205,99768.05,+49,-204,+20
64102,13.057,-5.371,0.308,-1.077184,-1.462800,1.198187,99772.16,+49,-204,+20
64112,13.810,-4.887,-0.365,-1.188395,-1.487809,1.192334,99769.09,+53,-203,+17
64122,14.875,-3.810,-0.366,-1.237349,-1.545809,1.158811,99769.88,+58,-202,+14
64133,15.379,-2.606,1.220,-1.122414,-1.689479,1.151361,99765.36,+63,-202,+11
64142,16.053,-1.842,2.455,-0.759515,-1.962983,1.184352,99765.36,+63,-202,+11
64152,15.807,-2.131,4.044,-0.393955,-2.432304,1.206701,99769.29,+67,-201,+9
64162,14.544,-2.587,9.872,0.222228,-2.892579,1.307802,99767.79,+72,-201,+11
64173,13.238,-4.446,14.089,1.020393,-3.195349,1.560022,99763.74,+78,-200,+15
64183,10.857,-8.666,14.182,1.606245,-3.285808,2.055948,99765.51,+78,-200,+15
64192,10.208,-12.385,11.365,1.891456,-3.283148,2.643397,99765.51,+88,-199,+23
64202,11.448,-11.751,8.983,2.110685,-3.374671,2.824847,99768.78,+97,-198,+31
64212,11.598,-11.923,5.406,2.092062,-3.335827,2.700333,99768.11,+105,-194,+39
64223,8.969,-11.848,2.374,1.727566,-3.304964,2.594975,99768.20,+105,-194,+39
64232,6.204,-11.524,1.131,1.632319,-3.328909,2.488553,99766.13,+114,-192,+47
64242,8.223,-9.494,4.994,2.013309,-3.267716,2.506113,99766.13,+121,-190,+54
64252,10.917,-4.708,6.008,2.426226,-3.291129,2.190572,99767.78,+126,-186,+65
64263,10.912,-1.672,6.628,2.707181,-3.124579,1.820223,99769.86,+126,-186,+65
64273,9.583,-0.717,7.063,2.823180,-2.894707,1.589820,99768.52,+131,-182,+76
64282,7.629,-0.850,7.021,2.867346,-2.729753,1.432315,99768.63,+132,-178,+85
64292,6.009,-1.452,6.463,2.857235,-2.575974,1.200315,99768.63,+134,-175,+97
64303,5.512,-1.805,5.891,2.753474,-2.366323,0.895417,99766.52,+134,-175,+97
64313,5.621,-2.010,5.513,2.586391,-2.122084,0.488885,99765.85,+133,-171,+105
64322,5.626,-2.138,5.047,2.392171,-1.894873,0.040848,99765.02,+132,-169,+114
64332,5.561,-2.139,4.283,2.178263,-1.689479,-0.405592,99763.46,+129,-166,+121
64343,5.401,-2.130,3.445,1.958502,-1.522396,-0.847775,99763.46,+129,-166,+121
64353,5.220,-2.246,2.884,1.750979,-1.373938,-1.276655,99766.73,+124,-165,+127
64362,5.382,-2.326,2.807,1.579640,-1.239846,-1.699151,99765.70,+117,-165,+132
64372,5.826,-2.263,2.926,1.474814,-1.123314,-2.120049,99763.41,+110,-165,+137
64382,6.192,-2.228,3.023,1.465768,-1.038176,-2.529242,99760.34,+110,-165,+137
64393,6.285,-2.400,2.995,1.539199,-0.967406,-2.897994,99760.34,+100,-166,+141
64403,6.267,-2.660,2.942,1.642961,-0.887589,-3.228434,99767.99,+89,-165,+146
64412,6.459,-2.892,2.827,1.755236,-0.800323,-3.532801,99762.16,+78,-165,+152
64422,6.817,-3.373,2.745,1.885603,-0.731681,-3.835039,99765.96,+78,-165,+152
64433,7.147,-3.889,2.786,2.006924,-0.677406,-4.127699,99762.27,+65,-163,+157
64442,7.640,-4.201,2.841,2.129309,-0.621002,-4.402268,99762.27,+51,-160,+162
64452,8.015,-4.684,2.741,2.254355,-0.561406,-4.653424,99763.70,+37,-157,+168
64462,8.267,-5.240,2.741,2.349071,-0.484250,-4.874249,99762.80,+37,-157,+168
64473,8.641,-5.729,2.733,2.409199,-0.395920,-5.074855,99761.98,+23,-152,+173
64483,9.169,-6.273,2.618,2.431548,-0.300140,-5.258965,99762.60,+5,-146,+179
64492,10.007,-6.851,2.390,2.454428,-0.203296,-5.414340,99762.60,-7,-139,+184
64502,11.076,-7.588,2.139,2.490612,-0.129333,-5.546836,99763.47,-7,-139,+184
64513,11.750,-8.420,2.126,2.523071,-0.078250,-5.664432,99764.72,-23,-130,+190
64523,12.090,-9.665,2.458,2.539566,-0.005884,-5.759680,99762.91,-37,-119,+194
64533,12.295,-11.167,2.924,2.548612,0.063291,-5.830983,99764.72,-51,-104,+199
64542,12.489,-12.097,3.202,2.534245,0.122887,-5.898028,99764.72,-63,-104,+203
64552,12.818,-12.839,3.487,2.544355,0.188336,-5.961882,99767.58,-63,-90,+203
64563,13.367,-14.269,3.584,2.543291,0.243144,-5.989019,99765.97,-73,-72,+206
64573,13.346,-16.093,3.483,2.368227,0.299015,-5.933680,99764.20,-81,-55,+209
64582,12.107,-17.469,3.633,2.006924,0.419272,-5.752230,99764.94,-85,-40,+211
64592,10.842,-18.401,4.427,1.570594,0.634245,-5.399442,99764.94,-85,-40,+211
64603,9.700,-19.392,5.192,1.162466,0.874758,-4.875845,99769.17,-89,-26,+214
64613,8.456,-20.730,5.041,0.802227,1.075364,-4.247956,99767.19,-89,-16,+216
64622,6.798,-22.122,3.515,0.505842,1.206262,-3.570581,99769.02,-87,-9,+217
64632,5.267,-22.805,0.571,0.202008,1.270116,-2.891077,99765.33,-87,-9,+217
64643,3.745,-23.084,-1.066,-0.125240,1.236593,-2.213701,99765.33,-84,-5,+220
64653,2.000,-23.272,-1.084,-0.415772,1.076428,-1.462362,99773.97,-83,-3,+221
64663,0.685,-22.602,0.229,-0.716414,0.881143,-0.577995,99769.30,-80,-5,+222
64672,0.866,-20.625,1.368,-0.844120,0.650740,0.376610,99771.58,-80,-5,+222
64683,3.501,-18.322,2.308,-0.720138,0.367125,1.289178,99770.64,-78,-9,+222
64693,9.010,-14.070,2.544,-0.439717,0.051584,1.920260,99770.64,-77,-14,+223
64703,11.822,-6.953,1.521,-0.239111,-0.395388,2.260810,99768.84,-77,-17,+222
64712,22.080,13.418,0.993,0.322265,-0.827461,1.893654,99768.01,-77,-17,+222
64722,20.155,14.165,-6.716,-0.433331,-0.442746,1.140187,99767.63,-78,-20,+221
64733,9.043,-6.493,-4.681,-0.372671,-0.363993,1.943673,99770.34,-77,-25,+221
64743,12.589,-11.230,2.523,0.896943,-0.737002,2.915305,99770.34,-77,-26,+221
64753,16.507,-9.771,-1.282,1.023053,-0.941865,2.881250,99770.68,-77,-26,+221
64762,13.565,-10.746,-2.520,0.337164,-0.565131,2.897213,99770.16,-76,-30,+220
64773,12.477,-9.067,1.806,0.404742,-0.171902,3.019599,99768.30,-74,-33,+221
64783,11.007,-6.438,5.149,0.921952,-0.187865,2.834957,99768.66,-71,-34,+222
64792,7.803,-5.425,6.141,1.343915,-0.375700,2.601360,99768.66,-71,-34,+222
64802,6.879,-6.916,5.898,1.678612,-0.467223,2.507709,99770.93,-70,-34,+222
64813,8.217,-8.599,2.535,1.549310,-0.644415,2.452902,99771.71,-69,-33,+223
64823,7.748,-9.561,0.843,1.006026,-0.585883,2.296994,99769.85,-68,-33,+224
64833,8.061,-11.344,1.046,0.338228,-0.326746,2.102774,99769.59,-68,-33,+224
64842,8.707,-9.074,0.416,-0.542946,-0.036746,1.862792,99769.59,-67,-35,+223
64852,8.352,-6.304,0.108,-1.208083,0.197382,1.554700,99769.42,-64,-43,+222
64863,8.324,-5.070,0.488,-1.315037,0.317107,1.321636,99769.02,-63,-48,+222
64873,8.604,-4.134,0.962,-1.103258,0.326685,1.176903,99770.16,-63,-48,+222
64882,8.980,-3.457,0.980,-0.734505,0.306465,1.121031,99768.86,-59,-52,+221
64892,9.230,-3.158,0.923,-0.275827,0.241547,1.131673,99768.86,-58,-56,+221
64903,9.162,-3.456,1.355,0.153054,0.145768,1.164132,99771.68,-56,-56,+221
64913,8.693,-4.172,1.958,0.394631,0.057438,1.158811,99769.60,-56,-56,+221
64923,8.372,-4.465,2.568,0.440925,-0.006416,1.089637,99771.05,-53,-56,+222
64932,8.095,-4.852,2.726,0.289806,0.005291,0.982150,99769.80,-52,-57,+222
64943,8.034,-5.108,2.797,0.025879,0.074997,0.857105,99769.80,-51,-58,+223
64953,7.979,-4.964,3.281,-0.272634,0.171841,0.727270,99770.69,-51,-58,+223
64963,8.098,-4.520,3.456,-0.538157,0.255382,0.631490,99769.23,-49,-60,+222
64972,8.192,-4.046,3.017,-0.664799,0.302208,0.598499,99768.81,-48,-62,+222
64983,8.501,-3.620,2.218,-0.639790,0.315511,0.615527,99766.73,-46,-65,+222
64993,8.860,-3.253,1.645,-0.504634,0.293694,0.690554,99766.73,-46,-65,+222
65003,8.968,-3.205,1.347,-0.284873,0.233566,0.808683,99772.29,-44,-67,+221
65012,8.784,-3.682,1.599,-0.040634,0.141511,0.936921,99769.07,-42,-69,+221
65018,8.389,-4.210,2.338,0.077494,0.073401,1.013013,99769.32,-42,-69,+221
65028,8.051,-4.808,2.877,0.092925,0.039878,1.043343,99769.32,-40,-70,+221
65038,7.763,-5.320,3.091,0.001934,0.050520,1.024187,99767.24,-39,-71,+222
65048,7.796,-5.385,2.790,-0.163020,0.113309,0.966719,99767.24,-36,-73,+222
65058,8.149,-5.206,2.613,-0.330102,0.184612,0.923618,99771.94,-36,-73,+222
65068,8.287,-4.950,2.406,-0.431203,0.228777,0.913508,99768.58,-34,-74,+221
65078,8.536,-4.988,1.743,-0.455148,0.261236,0.935325,99767.56,-32,-77,+221
65088,8.729,-5.145,1.544,-0.452487,0.267621,0.971508,99767.56,-30,-79,+220
65097,8.900,-5.199,2.031,-0.433331,0.263364,1.003967,99767.56,-30,-79,+220
65107,8.853,-5.423,2.479,-0.450359,0.274006,1.033233,99772.08,-27,-81,+220
65118,8.639,-5.734,2.576,-0.511019,0.309658,1.053985,99771.39,-24,-84,+219
65128,8.548,-5.641,2.492,-0.584983,0.350630,1.069416,99770.31,-22,-87,+219
65138,8.602,-5.484,2.371,-0.651496,0.385749,1.100811,99769.63,-22,-87,+219
65147,8.850,-5.404,2.209,-0.671184,0.385749,1.161471,99769.63,-19,-89,+219
65158,8.959,-5.270,2.073,-0.672249,0.350098,1.258315,99770.36,-14,-92,+217
65168,9.295,-5.132,2.226,-0.651496,0.285713,1.379104,99769.73,-12,-95,+216
65178,9.369,-5.486,2.668,-0.633405,0.213346,1.516921,99770.78,-12,-95,+216
65188,9.537,-5.515,2.774,-0.653625,0.167584,1.644627,99769.11,-8,-97,+216
65198,10.356,-6.135,1.971,-0.705239,0.103199,1.738811,99771.86,-4,-101,+216
65208,11.026,-6.278,1.758,-0.751533,0.023382,1.814370,99771.34,+0,-104,+214
65218,11.290,-6.024,1.402,-0.725992,-0.047920,1.911746,99771.34,+0,-104,+214
65227,11.531,-6.340,1.038,-0.652561,-0.143168,2.026150,99769.94,+2,-107,+212
65238,11.969,-6.748,1.112,-0.602010,-0.213406,2.111820,99769.16,+7,-109,+211
65248,12.282,-6.744,1.350,-0.584983,-0.249058,2.188443,99769.16,+11,-112,+211
65258,12.510,-6.742,1.539,-0.603606,-0.277260,2.259746,99768.05,+11,-112,+211
65268,12.503,-6.976,2.054,-0.658946,-0.334727,2.360315,99772.05,+16,-114,+209
65278,12.862,-7.051,2.377,-0.719606,-0.400709,2.525269,99766.40,+20,-116,+208
65288,13.869,-6.548,2.680,-0.868597,-0.403370,2.682241,99766.04,+25,-119,+206
65298,15.437,-5.812,3.360,-1.059625,-0.401773,2.782810,99769.08,+31,-123,+203
65308,17.128,-4.695,4.895,-1.191056,-0.447003,2.863691,99767.27,+31,-123,+203
65318,18.226,-3.944,6.311,-1.332065,-0.377828,2.963195,99764.72,+37,-126,+201
65328,19.108,-3.760,6.015,-1.688578,-0.106984,3.058975,99764.88,+44,-130,+198
65338,20.399,-2.027,6.086,-2.281348,0.252722,3.072278,99764.88,+53,-134,+193
65348,21.928,0.657,6.550,-2.913495,0.579437,3.017470,99764.88,+53,-134,+193
65358,22.532,0.824,6.280,-3.240210,0.657657,3.046204,99766.77,+62,-140,+185
65368,20.927,-5.619,4.548,-2.995440,0.194190,3.516057,99768.74,+73,-145,+179
65374,19.129,-10.224,3.600,-2.467055,-0.405498,4.156717,99766.35,+73,-145,+179
65383,18.517,-11.805,2.683,-1.758285,-0.963149,4.588258,99766.26,+83,-146,+174
65393,16.662,-13.777,3.297,-1.100597,-1.317002,4.588790,99766.26,+94,-145,+174
65403,15.795,-11.699,7.488,-0.876579,-1.167479,4.308369,99768.77,+94,-145,+174
65413,12.770,-5.732,7.132,-0.736102,-0.934415,3.416553,99767.68,+104,-143,+172
65423,11.280,0.852,5.581,-0.391827,-0.948250,2.679580,99765.82,+111,-141,+171
65433,2.347,-0.681,3.300,-0.222084,-1.031259,2.257617,99766.45,+114,-140,+172
65442,5.051,-3.497,7.048,0.362705,-0.991883,1.966021,99766.45,+114,-140,+172
65453,10.268,1.943,3.517,1.008686,-1.270176,0.654903,99769.12,+118,-136,+174
65463,7.863,3.207,1.191,0.857035,-0.999332,-0.270436,99766.62,+117,-134,+178
65473,5.871,1.420,0.578,0.567035,-0.700287,-0.720601,99765.12,+115,-133,+180
65483,4.315,0.057,-0.292,0.312687,-0.548103,-1.140435,99767.60,+115,-133,+180
65494,3.295,-0.093,-0.476,0.145959,-0.388116,-1.679817,99767.60,+111,-135,+180
65503,2.385,0.153,-0.132,0.144008,-0.244269,-2.196673,99764.83,+106,-138,+182
65513,2.078,-0.025,0.309,0.203072,-0.081975,-2.756985,99765.44,+101,-140,+182
65523,2.633,-0.267,0.454,0.354191,0.005291,-3.233755,99763.00,+101,-140,+182
65532,3.422,-0.589,0.328,0.600558,0.020190,-3.628581,99761.23,+92,-142,+185
65543,4.214,-0.820,0.148,0.890026,0.010080,-3.974984,99761.23,+84,-145,+186
65553,4.834,-1.182,-0.044,1.198649,-0.003755,-4.281479,99761.32,+73,-145,+190
65563,5.232,-1.864,-0.153,1.487585,-0.011205,-4.551791,99761.07,+60,-145,+194
65573,5.670,-2.661,0.007,1.669566,-0.006416,-4.825295,99759.09,+60,-145,+194
65583,6.036,-3.583,0.129,1.684998,0.025511,-5.099332,99759.46,+46,-143,+197
65593,6.483,-4.575,0.457,1.630722,0.069676,-5.357937,99759.46,+33,-141,+202
65603,7.007,-5.444,0.780,1.540264,0.142043,-5.610689,99759.30,+18,-138,+206
65613,7.721,-6.151,0.574,1.407768,0.239951,-5.838964,99760.70,+18,-138,+206
65623,8.628,-6.644,0.045,1.209291,0.376171,-6.040634,99760.45,+3,-134,+209
65633,9.691,-6.871,-0.457,0.917695,0.520905,-6.199203,99759.98,-10,-129,+213
65643,11.220,-6.916,-1.009,0.721347,0.637437,-6.350854,99759.98,-26,-124,+214
