120001,9.596,-0.648,2.125,-0.000513,0.001802,-0.009533,100050.20,-88,-186,+97
120010,9.650,-0.634,2.167,-0.002642,0.001270,-0.009001,100050.20,-88,-186,+97
120020,9.665,-0.631,2.123,-0.006899,0.000738,-0.007405,100049.71,-88,-186,+97
120031,9.642,-0.601,2.105,-0.008495,0.000738,-0.007405,100050.60,-88,-186,+97
120041,9.630,-0.600,2.093,-0.001578,0.001802,-0.007405,100050.45,-88,-186,+97
120051,9.600,-0.667,2.058,0.000551,0.001802,-0.005276,100048.29,-88,-186,+97
120060,9.573,-0.648,2.080,-0.003706,0.002866,-0.003148,100048.29,-88,-186,+97
120071,9.599,-0.661,2.124,-0.002110,0.002334,-0.004212,100049.84,-88,-186,+97
120081,9.623,-0.637,2.138,-0.003174,0.002866,-0.002616,100050.57,-88,-186,+97
120091,9.638,-0.630,2.150,-0.003706,0.001802,-0.003148,100048.20,-88,-186,+97
120100,9.676,-0.617,2.111,-0.002642,0.001802,-0.004212,100049.41,-88,-186,+97
120111,9.642,-0.644,2.100,-0.001578,0.002866,-0.004212,100049.41,-88,-186,+98
120121,9.623,-0.649,2.105,-0.001578,0.003398,-0.004212,100052.96,-87,-186,+98
120131,9.624,-0.636,2.118,0.000019,0.004995,-0.005808,100052.18,-87,-186,+98
120141,9.614,-0.619,2.138,0.000551,0.004463,-0.005276,100049.91,-88,-186,+98
120151,9.603,-0.643,2.136,0.002679,0.003398,-0.006340,100053.80,-87,-186,+97
120161,9.598,-0.644,2.148,0.004808,0.003931,-0.006340,100053.80,-87,-186,+98
120171,9.612,-0.662,2.130,0.006404,0.002866,-0.006872,100051.00,-87,-186,+98
120181,9.633,-0.652,2.151,0.005872,0.003931,-0.007937,100053.42,-87,-186,+97
120190,9.641,-0.654,2.113,0.008000,0.004463,-0.009533,100049.38,-88,-186,+97
120201,9.634,-0.641,2.109,0.008532,0.006591,-0.010065,100049.06,-88,-186,+98
120211,9.633,-0.623,2.143,0.009597,0.007123,-0.011661,100049.06,-88,-186,+98
120221,9.636,-0.640,2.148,0.010129,0.006059,-0.012194,100050.95,-88,-186,+99
120230,9.642,-0.597,2.125,0.005872,0.006059,-0.011661,100051.31,-88,-186,+97
120241,9.638,-0.565,2.141,0.005340,0.006059,-0.007937,100049.11,-87,-186,+98
120251,9.650,-0.580,2.157,0.007468,0.007655,-0.003680,100048.53,-87,-186,+98
120261,9.638,-0.614,2.113,0.009064,0.008187,0.000045,100048.53,-88,-186,+99
120271,9.622,-0.610,2.127,0.008000,0.009252,0.001641,100052.55,-88,-186,+98
120281,9.646,-0.607,2.153,0.009597,0.011380,0.003238,100049.13,-88,-186,+99
120291,9.641,-0.612,2.141,0.010661,0.011912,0.004302,100051.77,-88,-186,+98
120297,9.617,-0.623,2.160,0.009597,0.013508,0.005898,100049.97,-88,-186,+98
120306,9.629,-0.629,2.161,0.011193,0.013508,0.004302,100049.97,-88,-186,+99
120315,9.663,-0.648,2.169,0.008532,0.012976,0.001641,100049.97,-88,-186,+99
120326,9.648,-0.644,2.118,0.008000,0.014041,0.001109,100051.50,-87,-186,+98
120336,9.639,-0.630,2.123,0.008000,0.014573,0.002173,100053.61,-88,-186,+99
120346,9.604,-0.593,2.121,0.008000,0.014573,0.002173,100049.17,-88,-186,+99
120356,9.644,-0.577,2.179,0.014386,0.014573,0.002173,100049.17,-88,-186,+99
120367,9.653,-0.601,2.174,0.025028,0.015637,0.003238,100049.95,-88,-185,+98
120376,9.616,-0.557,2.190,0.037266,0.016701,0.004834,100049.95,-87,-186,+99
120386,9.645,-0.513,2.174,0.060679,0.016169,0.003770,100051.28,-87,-186,+98
120396,9.682,-0.543,2.198,0.082496,0.019362,0.003238,100051.38,-87,-186,+98
120406,9.644,-0.581,2.111,0.083028,0.020426,0.003770,100048.86,-88,-186,+99
120416,9.580,-0.622,2.137,0.080367,0.025747,0.004302,100048.86,-88,-186,+99
120426,9.565,-0.653,2.084,0.068661,0.028408,0.008559,100051.41,-87,-186,+99
120436,9.539,-0.630,2.105,0.061743,0.031068,0.009091,100051.50,-87,-186,+99
120446,9.622,-0.582,2.141,0.061743,0.035325,0.006430,100051.03,-87,-185,+100
120456,9.616,-0.601,2.173,0.066532,0.040114,0.004834,100050.16,-87,-185,+100
120466,9.635,-0.676,2.210,0.071853,0.042775,0.000577,100052.31,-86,-185,+100
120476,9.569,-0.806,2.112,0.068129,0.045967,-0.005276,100049.80,-86,-185,+100
120486,9.513,-0.793,2.091,0.049505,0.052352,-0.014322,100051.38,-87,-185,+102
120496,9.506,-0.667,2.139,0.049505,0.056077,-0.025496,100051.38,-87,-186,+100
120506,9.535,-0.782,2.119,0.065468,0.059802,-0.037735,100053.06,-88,-184,+102
120516,9.553,-0.751,2.181,0.069725,0.064059,-0.050505,100053.06,-87,-184,+102
120526,9.542,-0.769,2.156,0.076642,0.065655,-0.064872,100052.02,-87,-184,+102
120536,9.517,-0.852,2.105,0.074514,0.072041,-0.078707,100051.29,-88,-185,+102
120546,9.408,-0.810,2.130,0.060147,0.081619,-0.093606,100048.80,-88,-184,+102
120556,9.362,-0.818,1.992,0.048441,0.092793,-0.111166,100050.12,-88,-184,+102
120566,9.385,-0.853,2.012,0.044184,0.103435,-0.129790,100050.12,-88,-184,+102
120577,9.333,-0.734,2.033,0.050037,0.111949,-0.145221,100048.61,-89,-185,+102
120586,9.292,-0.649,2.065,0.064936,0.123655,-0.158524,100051.06,-88,-183,+104
120596,9.318,-0.707,2.114,0.080367,0.131105,-0.169698,100049.58,-89,-184,+102
120606,9.395,-0.783,2.168,0.090477,0.138554,-0.188322,100049.58,-89,-184,+102
120616,9.325,-0.710,2.196,0.089413,0.151857,-0.209074,100049.58,-90,-182,+104
120626,9.271,-0.589,2.072,0.091009,0.167288,-0.227166,100051.08,-90,-182,+104
120636,9.350,-0.647,2.026,0.105908,0.181123,-0.244725,100049.45,-90,-182,+104
120646,9.404,-0.442,2.068,0.135707,0.194426,-0.259092,100052.03,-90,-182,+104
120656,9.530,-0.292,2.232,0.178275,0.204536,-0.267074,100051.19,-91,-181,+106
120666,9.735,-0.288,2.491,0.215523,0.208793,-0.272395,100051.19,-91,-180,+106
120676,9.695,-0.140,2.616,0.237872,0.207196,-0.282505,100051.25,-92,-179,+107
120686,9.622,-0.271,2.592,0.251174,0.207196,-0.287294,100051.63,-92,-179,+107
120696,9.499,-0.355,2.572,0.229890,0.207196,-0.291551,100049.72,-93,-179,+109
120707,9.381,-0.178,2.599,0.203285,0.206132,-0.294744,100049.72,-93,-178,+110
120716,9.256,-0.155,2.530,0.181468,0.209857,-0.296340,100051.94,-95,-177,+110
120726,9.413,-0.326,2.519,0.160716,0.215710,-0.301661,100051.94,-95,-177,+110
120736,9.593,-0.264,2.440,0.130386,0.218903,-0.311771,100053.03,-95,-176,+111
120747,9.723,-0.071,2.546,0.116551,0.225820,-0.322414,100051.52,-95,-176,+112
120756,9.696,0.110,2.631,0.129321,0.226352,-0.325074,100048.72,-96,-175,+113
120766,9.891,0.185,2.836,0.149541,0.213582,-0.320285,100048.72,-96,-175,+113
120776,10.163,0.115,3.050,0.160184,0.188040,-0.314964,100051.81,-97,-174,+113
120786,10.120,0.098,3.202,0.123468,0.155582,-0.310175,100049.45,-97,-173,+113
120797,9.901,0.177,3.277,0.051101,0.119398,-0.303258,100048.61,-99,-173,+114
120806,9.719,0.277,3.235,-0.034569,0.078958,-0.286762,100048.98,-99,-173,+114
120816,9.836,0.380,3.134,-0.100018,0.031600,-0.269203,100050.80,-98,-172,+114
120826,9.883,0.560,3.156,-0.131945,0.000738,-0.237808,100047.69,-99,-172,+113
120837,9.925,0.344,3.135,-0.131945,-0.037574,-0.208542,100051.38,-100,-172,+113
120846,10.112,0.032,3.109,-0.108000,-0.089721,-0.202157,100051.38,-100,-172,+113
120856,10.107,0.079,3.011,0.015450,-0.141868,-0.231955,100050.80,-101,-171,+112
120866,9.859,0.386,2.733,0.133578,-0.170601,-0.271863,100050.80,-102,-171,+113
120877,9.574,0.360,2.619,0.054294,-0.182308,-0.260157,100050.63,-103,-170,+112
120886,9.718,0.358,2.771,-0.005302,-0.190822,-0.231423,100051.05,-103,-170,+112
120896,9.853,0.095,2.774,0.034606,-0.218491,-0.242597,100051.20,-103,-170,+112
120906,9.539,0.123,2.564,0.023964,-0.229134,-0.241533,100050.47,-104,-170,+112
120916,9.216,0.380,2.579,-0.089908,-0.208381,-0.193111,100050.47,-105,-168,+111
120927,9.263,0.625,2.665,-0.180367,-0.200932,-0.149478,100052.27,-106,-168,+110
120936,9.359,0.602,2.601,-0.214422,-0.199335,-0.120744,100048.75,-106,-168,+110
120946,9.454,0.343,2.458,-0.201119,-0.196675,-0.106909,100049.11,-106,-168,+110
120956,9.548,0.150,2.448,-0.201651,-0.196675,-0.101588,100049.11,-107,-168,+109
120966,9.609,-0.028,2.329,-0.224532,-0.195079,-0.112230,100049.11,-108,-168,+108
120976,9.530,0.220,2.330,-0.279339,-0.189757,-0.120212,100050.47,-108,-169,+108
120986,9.417,0.607,2.332,-0.309669,-0.175390,-0.126597,100049.05,-108,-168,+107
120996,9.415,0.524,2.464,-0.299027,-0.162620,-0.126065,100049.09,-110,-170,+105
121007,9.393,0.529,2.500,-0.291045,-0.157831,-0.123937,100050.16,-110,-168,+104
121016,9.499,0.299,2.419,-0.264972,-0.162088,-0.125533,100050.16,-110,-168,+104
121026,9.555,0.525,2.466,-0.256990,-0.162088,-0.125001,100051.30,-109,-169,+104
121036,9.428,0.729,2.487,-0.259119,-0.154106,-0.125001,100049.15,-110,-169,+102
121047,9.377,0.780,2.370,-0.258055,-0.145592,-0.119148,100050.10,-111,-169,+102
121057,9.367,0.919,2.471,-0.234110,-0.136546,-0.105313,100050.10,-111,-169,+102
121066,9.410,0.824,2.424,-0.222403,-0.125904,-0.086689,100054.02,-111,-170,+100
121076,9.550,0.681,2.307,-0.225064,-0.125372,-0.070193,100054.02,-112,-170,+100
121086,9.617,0.674,2.232,-0.221339,-0.117923,-0.053166,100050.92,-112,-169,+99
121097,9.669,0.747,2.208,-0.220807,-0.106748,-0.038799,100049.61,-112,-169,+99
121106,9.603,0.834,2.234,-0.214954,-0.094510,-0.021771,100049.23,-112,-169,+100
121117,9.497,0.834,2.354,-0.189412,-0.084400,-0.002970,100052.41,-113,-169,+97
121126,9.495,0.672,2.343,-0.160679,-0.080143,0.013880,100052.41,-112,-170,+97
121137,9.542,0.537,2.350,-0.145247,-0.081207,0.030907,100052.47,-112,-170,+97
121147,9.582,0.557,2.258,-0.148972,-0.079611,0.044742,100050.89,-112,-170,+97
121156,9.600,0.591,2.203,-0.167596,-0.080675,0.058045,100051.52,-112,-170,+95
121166,9.545,0.658,2.214,-0.177174,-0.071097,0.070816,100052.19,-112,-171,+96
121177,9.464,0.676,2.315,-0.170256,-0.060455,0.086779,100049.52,-112,-171,+96
121187,9.525,0.534,2.362,-0.166000,-0.058326,0.104871,100049.94,-112,-170,+95
121196,9.670,0.429,2.344,-0.180899,-0.060987,0.117641,100049.94,-112,-171,+95
121206,9.565,0.470,2.253,-0.207504,-0.056730,0.124559,100051.19,-112,-172,+94
121217,9.618,0.623,2.291,-0.215486,-0.054069,0.135201,100051.19,-112,-172,+94
121227,9.712,0.549,2.271,-0.200055,-0.054602,0.153825,100050.44,-110,-172,+93
121236,9.675,0.572,2.348,-0.185156,-0.051409,0.172449,100052.28,-110,-173,+93
121246,9.584,0.546,2.457,-0.178770,-0.048216,0.191072,100047.86,-110,-174,+93
121256,9.529,0.542,2.542,-0.194201,-0.054069,0.213953,100051.06,-110,-174,+93
121267,9.598,0.629,2.445,-0.201651,-0.065244,0.245880,100051.06,-110,-174,+92
121277,9.577,0.744,2.443,-0.208568,-0.062583,0.292173,100050.80,-108,-175,+91
121286,9.662,0.891,2.439,-0.205376,-0.057262,0.350173,100049.20,-108,-176,+90
121296,9.638,1.000,2.251,-0.189945,-0.047684,0.425733,100049.36,-108,-176,+90
121307,9.318,1.258,2.121,-0.170256,-0.023739,0.512999,100049.36,-106,-176,+90
121316,9.465,1.287,2.190,-0.100018,-0.019482,0.619421,100049.36,-105,-178,+89
121326,10.059,1.179,2.215,-0.009559,-0.040235,0.732228,100050.14,-102,-179,+90
121336,10.545,1.249,2.397,0.050569,-0.061519,0.842375,100050.14,-102,-179,+90
121347,10.696,1.176,2.524,0.071853,-0.079079,0.956246,100052.77,-99,-181,+90
121352,10.556,1.175,2.581,0.054294,-0.090785,1.043512,100048.92,-97,-183,+89
121361,10.485,1.221,2.676,0.033542,-0.103556,1.124925,100048.92,-97,-183,+89
121371,10.746,1.216,2.651,-0.005835,-0.118987,1.244650,100052.25,-93,-185,+90
121381,11.501,1.215,2.641,-0.038293,-0.142932,1.367035,100049.41,-90,-188,+90
121392,12.732,1.298,3.140,-0.081926,-0.179115,1.483567,100051.72,-85,-191,+89
121402,13.458,0.754,2.961,-0.230385,-0.159959,1.570833,100049.94,-85,-191,+89
121411,14.401,-0.757,1.418,-0.528366,-0.083335,1.610209,100049.94,-80,-193,+87
121421,16.272,-1.965,-0.413,-0.905632,-0.012565,1.582539,100052.97,-75,-197,+85
121432,17.633,-0.792,-1.852,-1.271724,0.002334,1.582007,100051.81,-69,-200,+81
121442,18.115,1.904,-1.512,-1.448916,-0.038638,1.647989,100049.19,-69,-200,+81
121451,17.677,3.887,-0.989,-1.291944,-0.069501,1.758136,100050.50,-64,-203,+77
121461,17.042,3.708,-0.535,-1.031210,-0.062583,1.861365,100050.50,-58,-207,+73
121472,16.050,2.218,-0.106,-0.496440,-0.156767,1.754411,100050.04,-51,-209,+72
121482,12.581,0.997,-0.567,-0.072880,-0.250418,1.687897,100049.26,-51,-209,+72
121491,10.037,-2.444,1.742,0.005872,-0.182308,1.880521,100049.84,-47,-211,+72
121501,10.386,-5.435,3.200,0.517761,-0.122712,1.904998,100047.73,-40,-213,+72
121511,10.787,-7.057,2.680,0.681119,-0.123776,1.854980,100047.73,-34,-216,+75
121522,9.633,-6.772,3.619,0.472532,-0.128565,1.712374,100050.04,-34,-216,+75
121532,8.547,-6.180,5.386,0.372495,-0.093978,1.565512,100050.24,-29,-216,+75
121541,7.597,-7.530,7.783,0.479450,0.026279,1.572961,100049.29,-22,-217,+77
121551,8.318,-5.460,5.733,0.486367,0.078426,1.405347,100047.20,-18,-218,+78
121562,7.681,-4.770,3.783,0.230422,0.106628,1.328191,100047.20,-18,-218,+78
121572,6.428,-6.610,3.863,0.067064,0.160371,1.282962,100049.79,-13,-218,+79
121581,5.865,-8.204,4.374,-0.121835,0.201875,1.187714,100051.01,-8,-219,+78
121587,5.444,-8.179,4.394,-0.323504,0.210389,1.085017,100050.52,-8,-219,+78
121596,5.139,-6.922,3.953,-0.508146,0.213050,0.962099,100050.52,-3,-220,+77
121607,4.913,-5.154,2.964,-0.610311,0.222096,0.828540,100049.05,-1,-222,+76
121617,4.694,-4.525,2.023,-0.559229,0.235930,0.749256,100049.05,+1,-222,+74
121627,4.369,-4.628,1.440,-0.452275,0.236462,0.697641,100049.47,+1,-222,+74
121636,3.942,-4.711,1.233,-0.352770,0.221031,0.633788,100048.86,+4,-222,+73
121647,3.495,-4.487,1.153,-0.262311,0.193894,0.566210,100048.86,+5,-223,+72
121657,2.921,-4.025,1.100,-0.154825,0.165692,0.506613,100048.86,+8,-224,+71
121666,2.449,-3.582,1.037,-0.021798,0.142279,0.469366,100048.86,+8,-224,+71
121676,2.055,-3.094,1.011,0.150074,0.123123,0.427329,100049.64,+10,-223,+72
121687,1.809,-2.600,0.922,0.338440,0.105563,0.373586,100049.64,+11,-223,+72
121697,1.567,-2.034,1.206,0.580550,0.089600,0.294302,100050.28,+12,-222,+75
121707,1.467,-2.679,0.232,0.943981,0.068848,0.233641,100049.59,+12,-222,+75
121716,1.538,-2.263,0.710,0.769449,0.026811,0.205971,100049.59,+13,-222,+78
121726,1.478,-2.184,0.655,0.701339,-0.021611,0.144247,100052.48,+14,-222,+80
121737,1.354,-2.039,0.569,0.662495,-0.061519,0.058045,100049.91,+14,-222,+83
121747,1.419,-1.937,0.571,0.636954,-0.104620,-0.032414,100047.44,+14,-222,+83
121757,1.562,-1.965,0.534,0.635890,-0.145592,-0.134047,100047.44,+14,-220,+84
121766,1.759,-2.100,0.611,0.618862,-0.171666,-0.241001,100049.02,+12,-221,+86
121777,2.002,-2.164,0.830,0.569376,-0.203592,-0.355936,100049.17,+11,-220,+87
121787,2.374,-2.237,1.147,0.512972,-0.236583,-0.482046,100049.17,+11,-220,+87
121797,2.957,-2.162,1.434,0.486899,-0.277556,-0.624652,100046.59,+9,-219,+90
121806,3.822,-2.177,1.621,0.473064,-0.320656,-0.787477,100048.06,+6,-219,+91
121817,4.671,-2.318,1.641,0.426771,-0.362693,-0.954560,100048.06,+2,-218,+92
121827,5.242,-2.353,1.644,0.333651,-0.405794,-1.106211,100049.34,-1,-218,+94
121837,5.622,-2.177,1.538,0.233083,-0.435060,-1.249881,100052.66,-1,-218,+94
121846,6.033,-1.859,1.590,0.194239,-0.457941,-1.386101,100049.30,-7,-216,+94
121857,6.490,-1.833,1.781,0.245321,-0.457941,-1.499440,100046.56,-12,-215,+94
121867,6.994,-1.973,1.878,0.331523,-0.436656,-1.613844,100048.66,-20,-214,+95
121877,7.632,-2.180,2.057,0.403890,-0.410583,-1.736761,100049.62,-20,-214,+95
121887,8.579,-2.368,2.317,0.439009,-0.404730,-1.880963,100049.04,-26,-211,+96
121896,9.772,-2.512,2.452,0.418789,-0.426546,-2.036339,100049.04,-33,-209,+98
121907,10.982,-2.464,2.554,0.349615,-0.467519,-2.177880,100050.20,-42,-206,+98
121917,12.099,-2.658,2.757,0.237872,-0.515941,-2.284302,100050.20,-42,-206,+98
121927,12.991,-3.015,3.020,0.152734,-0.547867,-2.353477,100052.15,-50,-204,+98
121936,12.772,-18.361,13.541,0.176679,-0.252546,-1.977275,100048.88,-57,-201,+99
121947,22.638,-17.428,8.395,1.689999,-0.113666,-1.799018,100045.52,-64,-196,+104
121957,19.056,-7.992,4.798,0.322477,-0.280748,-1.967697,100047.73,-64,-196,+104
121967,16.955,-0.492,3.034,-0.558165,-0.511684,-1.513275,100047.73,-69,-195,+100
121977,26.544,14.904,-5.388,-0.402256,-0.921940,-1.604798,100049.95,-75,-193,+98
121987,38.842,21.352,-2.119,-0.693852,-0.623959,-1.412706,100049.77,-80,-191,+95
121997,25.768,12.410,-1.521,-0.390550,-0.190822,-0.268138,100047.95,-80,-191,+95
122007,6.753,-2.596,-1.536,0.274055,0.580737,0.633788,100047.95,-79,-191,+96
122016,1.831,-5.278,1.872,0.459761,0.691948,0.499696,100047.95,-77,-192,+99
122027,0.377,-1.706,1.559,0.159652,0.211453,0.159678,100050.88,-76,-192,+99
122037,6.039,-2.490,0.177,0.793394,-0.029592,-0.030285,100049.45,-76,-192,+99
122047,8.713,-2.922,2.038,1.214293,0.006059,0.065495,100049.70,-75,-191,+102
122057,8.228,-2.580,3.847,1.018477,0.156823,0.107354,100050.23,-76,-190,+105
122066,8.861,-2.823,3.266,0.799780,0.209325,0.030375,100050.23,-75,-188,+108
122077,8.455,-2.659,2.305,0.467743,0.156646,-0.057423,100050.54,-75,-188,+108
122087,9.446,-1.893,2.552,0.071853,0.094389,-0.080304,100048.43,-74,-188,+109
122097,11.055,-2.016,1.823,-0.127156,0.117802,-0.100524,100050.85,-75,-188,+108
122107,11.772,-1.980,0.848,-0.253266,0.214646,-0.151606,100050.12,-76,-188,+109
122117,11.616,-1.537,0.581,-0.404917,0.308829,-0.176615,100049.96,-76,-188,+109
122127,10.836,-0.593,0.823,-0.488458,0.374811,-0.171294,100050.74,-75,-189,+108
122137,9.924,0.622,2.016,-0.425669,0.412059,-0.114359,100050.74,-75,-189,+107
122146,9.397,0.951,3.176,-0.164935,0.408334,-0.026028,100050.90,-75,-190,+107
122157,9.243,0.121,3.436,0.086753,0.357251,0.066027,100047.96,-75,-190,+107
122167,9.563,-0.994,3.175,0.169762,0.302444,0.109660,100047.96,-73,-189,+108
122172,9.713,-1.341,2.909,0.125597,0.268921,0.131476,100050.41,-73,-190,+109
122182,9.939,-1.274,2.757,0.023964,0.236995,0.150100,100050.63,-73,-190,+109
122191,10.209,-1.281,2.556,-0.090972,0.205600,0.163403,100048.05,-73,-189,+109
122202,10.121,-1.414,2.100,-0.148972,0.208261,0.161806,100048.41,-72,-191,+109
122212,9.883,-1.174,1.723,-0.205908,0.230609,0.177238,100048.41,-71,-191,+109
122222,9.888,-0.442,1.933,-0.241027,0.251894,0.216614,100051.80,-71,-191,+109
122231,9.859,0.174,2.494,-0.179834,0.256683,0.278338,100053.01,-70,-192,+109
122242,9.597,-0.278,2.844,-0.052128,0.247637,0.362412,100047.32,-68,-192,+108
122252,9.399,-1.044,2.959,0.008532,0.227949,0.424136,100048.48,-68,-192,+109
122262,9.427,-1.189,3.137,-0.046807,0.200279,0.452338,100048.48,-68,-192,+109
122272,9.298,-1.110,3.071,-0.135137,0.177930,0.462980,100051.27,-66,-193,+109
122281,9.223,-1.105,2.792,-0.192073,0.167820,0.474155,100050.80,-64,-194,+109
122292,9.322,-0.944,2.702,-0.219211,0.162499,0.487458,100051.76,-62,-196,+109
122302,9.501,-0.723,2.555,-0.199523,0.159839,0.507678,100048.23,-62,-196,+109
122312,9.300,-0.762,2.415,-0.125559,0.171545,0.538008,100048.23,-60,-196,+108
122321,9.214,-1.035,2.418,-0.040422,0.192297,0.563017,100049.95,-58,-196,+108
122332,9.219,-1.286,2.561,0.002679,0.209857,0.575256,100050.91,-56,-198,+108
122342,9.275,-1.542,2.628,0.020239,0.216242,0.591751,100047.95,-56,-198,+108
122352,9.380,-1.777,2.623,0.004808,0.210921,0.643898,100050.33,-54,-199,+108
122361,9.575,-1.679,2.668,-0.021798,0.201875,0.665182,100050.33,-51,-200,+109
122372,9.550,-1.596,2.536,-0.011156,0.201875,0.690723,100049.24,-49,-200,+109
122382,9.434,-1.581,2.503,0.014386,0.217839,0.722118,100051.93,-49,-200,+109
122392,9.523,-2.334,2.266,0.014386,0.213582,0.758834,100051.35,-46,-201,+109
122402,9.726,-2.407,2.344,-0.062238,0.208261,0.782246,100048.24,-43,-202,+109
122407,9.895,-2.215,2.555,-0.120238,0.208261,0.794485,100048.24,-43,-202,+109
122417,9.881,-2.366,2.591,-0.155357,0.207196,0.812045,100048.24,-41,-204,+109
122427,9.758,-2.342,2.525,-0.219211,0.217839,0.838650,100052.86,-38,-204,+109
122437,9.742,-2.281,2.414,-0.282532,0.230077,0.866320,100051.66,-34,-205,+108
122447,9.910,-2.353,2.391,-0.296367,0.238059,0.902503,100049.28,-34,-205,+108
122458,10.043,-2.642,2.346,-0.286256,0.236462,0.953586,100050.93,-32,-208,+107
122467,10.116,-2.760,2.315,-0.286789,0.240719,1.009457,100054.13,-27,-207,+106
122477,10.017,-2.715,2.470,-0.307541,0.232206,1.069586,100050.29,-23,-209,+105
122487,10.276,-2.456,2.811,-0.337871,0.219967,1.119604,100050.29,-23,-209,+105
122497,10.787,-2.700,2.704,-0.357559,0.210389,1.172815,100049.77,-20,-210,+105
122507,11.347,-2.520,2.508,-0.392146,0.214646,1.219108,100049.29,-14,-212,+104
122517,11.164,-2.509,2.601,-0.374587,0.223692,1.275512,100049.29,-9,-213,+102
122527,11.390,-2.702,2.546,-0.394275,0.214114,1.368631,100051.06,-9,-213,+102
122536,11.765,-2.258,2.507,-0.435779,0.200279,1.463879,100051.02,-4,-215,+102
122547,11.910,-2.063,2.512,-0.469302,0.183252,1.584136,100050.06,+0,-216,+100
122557,12.294,-1.600,2.645,-0.449614,0.165160,1.732594,100044.08,+7,-218,+99
122567,12.966,-1.610,2.587,-0.409706,0.165692,1.890099,100051.45,+7,-218,+99
122577,13.230,-1.935,2.367,-0.476752,0.166224,2.082723,100048.41,+13,-219,+97
122587,13.436,-2.124,1.878,-0.443229,0.140683,2.224264,100050.14,+22,-219,+97
122597,13.811,-2.089,1.607,-0.486862,0.074169,2.371126,100046.92,+31,-221,+94
122607,15.005,-1.844,1.386,-0.476220,0.000738,2.485530,100046.92,+31,-221,+94
122617,16.060,-1.262,0.914,-0.543798,-0.017886,2.594080,100046.92,+40,-222,+93
122627,17.050,-1.417,-0.282,-0.682678,-0.014161,2.656869,100050.80,+49,-222,+90
122637,18.300,-1.510,-1.113,-1.008329,-0.073758,2.664319,100048.80,+59,-222,+87
122643,19.737,-1.432,-1.875,-1.333448,-0.162088,2.598337,100048.22,+59,-222,+87
122652,21.137,-0.126,-2.647,-1.921430,-0.249886,2.437108,100049.44,+68,-223,+81
122662,21.576,4.464,-1.312,-3.025025,-0.337684,2.222135,100049.44,+75,-224,+70
122672,20.069,10.270,2.334,-2.753649,-0.419629,2.215218,100048.74,+75,-224,+70
122682,18.783,6.405,4.142,-0.636917,-0.288730,2.661658,100051.32,+84,-224,+66
122692,21.044,-6.481,6.420,0.486367,0.018830,3.895621,100050.16,+97,-221,+66
122702,21.472,-9.394,6.907,0.812550,0.106096,4.403786,100047.21,+113,-217,+68
122712,18.368,-5.840,5.805,0.756147,0.191233,4.300024,100047.21,+113,-217,+68
122722,14.963,-1.405,5.039,0.572037,0.172077,4.147309,100049.27,+129,-212,+71
122732,12.351,2.760,4.720,0.650257,0.120995,3.726942,100051.05,+141,-207,+72
122742,8.985,2.020,5.558,0.624715,0.069380,3.227291,100047.05,+152,-202,+73
122753,6.520,-4.565,7.359,0.533193,0.108756,2.949529,100046.42,+152,-202,+73
122762,7.866,-3.064,5.644,0.486367,-0.091317,2.194998,100046.42,+161,-197,+75
122772,8.998,2.048,3.590,0.279908,-0.241372,1.349475,100049.74,+167,-195,+76
122782,7.861,4.732,1.768,0.002679,-0.397812,0.976466,100047.74,+169,-194,+75
122792,6.047,4.571,0.848,-0.057449,-0.534032,0.632724,100046.85,+169,-194,+75
122802,3.815,3.792,0.815,0.060679,-0.643115,0.258118,100047.38,+169,-192,+77
122812,3.341,3.183,1.171,0.116551,-0.796895,-0.007405,100047.38,+168,-194,+78
122822,3.729,2.649,1.331,0.200092,-0.956528,-0.363386,100050.88,+167,-192,+80
122832,3.670,1.792,1.504,0.290551,-1.097005,-0.714046,100048.94,+167,-192,+80
122842,3.149,0.936,1.856,0.376752,-1.210344,-1.034909,100048.67,+163,-194,+82
122852,2.880,1.015,2.051,0.454972,-1.343371,-1.393018,100046.67,+158,-196,+85
122862,3.221,1.626,2.205,0.586936,-1.481188,-1.772945,100046.67,+149,-198,+90
122872,3.828,2.007,2.378,0.802972,-1.595059,-2.126798,100045.96,+149,-198,+90
122877,4.321,1.958,2.449,0.998257,-1.667958,-2.373697,100043.34,+140,-200,+94
122887,4.671,1.702,2.574,1.185559,-1.728087,-2.600908,100043.34,+129,-202,+100
122897,5.148,1.224,2.843,1.396275,-1.798857,-2.882394,100045.38,+129,-202,+100
122907,5.733,0.670,3.274,1.547394,-1.857389,-3.151109,100042.12,+116,-204,+106
122917,6.255,0.253,3.817,1.601137,-1.913261,-3.412375,100042.12,+102,-205,+113
122928,6.478,0.087,4.220,1.651687,-1.954766,-3.676833,100041.73,+86,-206,+119
122937,6.694,0.071,4.583,1.716073,-1.965408,-3.942888,100040.10,+86,-206,+119
122947,7.321,-0.002,4.832,1.759706,-1.955830,-4.198301,100037.73,+69,-205,+126
122957,8.191,-0.053,5.105,1.785247,-1.930821,-4.455842,100037.73,+51,-204,+131
122968,9.162,-0.310,5.287,1.750128,-1.905811,-4.703805,100037.73,+33,-200,+136
122977,10.065,-0.646,5.407,1.648495,-1.870692,-4.940062,100039.51,+33,-200,+136
122987,10.860,-1.013,5.513,1.481944,-1.829720,-5.162484,100042.88,+12,-197,+141
122997,11.658,-1.373,5.542,1.277082,-1.797793,-5.357768,100039.77,-7,-192,+142
123008,12.579,-1.706,5.569,1.031247,-1.774380,-5.531236,100042.09,-29,-186,+144
123018,13.521,-1.862,5.382,0.755082,-1.752032,-5.695126,100042.09,-29,-186,+144
123027,14.477,-1.831,5.206,0.505523,-1.713720,-5.830281,100043.73,-50,-178,+143
123037,15.169,-1.880,4.962,0.325138,-1.654656,-5.956391,100043.09,-70,-169,+142
123047,15.355,-2.411,4.826,0.142624,-1.599848,-6.056960,100042.93,-90,-158,+139
123058,15.520,-3.289,5.233,0.001615,-1.574307,-6.143162,100042.93,-90,-158,+139
123067,16.402,-3.757,6.378,0.071853,-1.524289,-6.248519,100046.70,-108,-146,+136
123077,17.712,-4.802,8.027,0.358661,-1.337518,-6.325675,100046.70,-126,-133,+134
123087,19.098,-9.169,7.675,0.384734,-0.995904,-6.299602,100045.59,-141,-116,+131
123098,18.780,-11.739,6.165,-0.213357,-0.967702,-6.168171,100043.27,-141,-116,+131
123107,17.983,-10.565,5.635,-0.418220,-0.841592,-6.004813,100045.01,-154,-100,+128
123117,18.635,-10.082,5.688,-0.263376,-0.633005,-5.648300,100045.01,-166,-84,+125
123127,18.181,-10.832,6.254,0.122936,-0.396216,-5.109272,100048.18,-174,-69,+123
123138,16.359,-13.481,6.813,0.437413,-0.166877,-4.528209,100051.96,-174,-69,+123
123148,14.260,-16.702,7.689,0.502330,0.043839,-3.815182,100047.80,-180,-55,+124
123157,11.742,-20.514,7.815,0.462422,0.277967,-2.888779,100045.71,-183,-44,+124
123167,8.901,-23.267,7.310,0.333651,0.476444,-1.721330,100049.49,-185,-38,+125
123177,7.506,-23.053,6.824,0.358661,0.564242,-0.411808,100048.71,-183,-37,+127
123187,8.482,-19.948,7.186,0.674734,0.614793,0.834393,100048.71,-183,-37,+127
123197,12.728,-14.856,7.535,1.227064,0.730260,1.876264,100046.60,-180,-41,+131
123207,14.487,-3.259,2.311,1.654348,0.769104,2.454135,100050.02,-177,-44,+134
123217,14.538,20.451,-6.008,1.838990,0.563178,2.067823,100050.02,-173,-48,+137
123228,15.290,39.145,-11.419,0.710917,0.372150,0.723714,100050.36,-173,-48,+137
123237,10.268,4.507,-5.319,1.402660,0.517949,2.156154,100052.77,-172,-50,+140
123247,15.750,-18.785,2.658,4.566052,1.033563,3.211859,100051.30,-165,-51,+147
123257,22.577,-9.806,-2.264,3.638053,1.005893,2.824484,100049.72,-161,-54,+153
123268,18.827,-6.872,-3.550,0.470404,0.926077,2.905896,100049.72,-161,-54,+153
123278,12.711,-7.100,-1.238,-0.328293,1.066022,2.986777,100050.01,-154,-62,+156
123287,13.140,-1.654,2.165,-0.431522,1.123489,2.565346,100051.45,-149,-70,+158
123297,10.720,3.332,6.541,-0.202183,1.143178,2.369530,100051.09,-143,-76,+160
123308,7.114,2.370,12.172,0.477853,1.285783,2.323236,100051.09,-143,-76,+160
123317,8.675,0.554,9.746,1.456935,1.302810,2.105071,100051.09,-136,-80,+166
123327,11.390,-2.907,4.319,1.786843,1.037820,2.004503,100050.91,-131,-82,+171
123337,11.791,-4.117,1.990,1.547394,0.831361,2.026851,100049.27,-126,-83,+174
123347,11.416,-3.960,1.500,1.184495,0.692835,1.804074,100050.53,-126,-83,+174
123358,12.040,-5.778,-0.387,0.791798,0.521141,1.694815,100050.53,-121,-85,+178
123368,11.905,-6.241,-0.764,0.133578,0.432279,1.587860,100050.53,-118,-87,+179
123377,11.298,-3.696,-0.522,-0.536348,0.437600,1.384062,100051.72,-114,-92,+179
123387,10.570,-1.388,0.119,-0.965761,0.450371,1.202081,100050.39,-114,-92,+179
123398,10.082,0.463,0.463,-0.747596,0.516884,0.995622,100050.19,-112,-96,+178
123408,9.805,1.018,0.674,-0.428330,0.578609,0.885476,100050.19,-108,-100,+179
123417,9.762,1.467,1.380,-0.134073,0.605747,0.858338,100050.86,-105,-102,+180
123427,9.871,1.673,2.176,0.111230,0.590315,0.871641,100050.86,-105,-102,+180
123438,9.720,1.048,2.209,0.310771,0.564774,0.847164,100048.91,-102,-103,+181
123448,9.521,0.488,1.792,0.381541,0.558921,0.803531,100051.06,-99,-104,+183
123457,9.344,-0.257,1.789,0.217119,0.523270,0.805659,100050.17,-97,-105,+184
123467,9.231,-0.814,2.321,-0.108532,0.471655,0.781714,100050.17,-97,-105,+184
123478,9.317,-0.272,2.815,-0.504954,0.407270,0.747659,100052.48,-93,-106,+184
123488,9.253,1.179,2.597,-0.768880,0.359912,0.750320,100051.99,-91,-110,+183
123498,9.214,1.574,1.541,-0.780054,0.354059,0.834393,100047.84,-90,-114,+182
123507,9.405,0.941,0.553,-0.547522,0.395031,0.886540,100051.35,-90,-114,+182
123517,9.481,0.490,0.076,-0.235174,0.453031,0.957843,100051.62,-86,-116,+183
123528,9.714,-0.054,0.538,0.012789,0.509435,1.038723,100050.57,-82,-118,+184
123538,9.735,-0.644,1.572,0.062808,0.544554,1.084485,100046.99,-79,-120,+184
123547,9.634,-0.905,2.543,-0.097890,0.543490,1.095659,100046.99,-79,-120,+184
123557,9.600,-1.342,3.005,-0.352770,0.512627,1.075971,100048.24,-75,-121,+185
123568,9.889,-1.299,2.858,-0.640642,0.473783,1.025953,100048.24,-72,-124,+184
123578,10.300,-0.698,2.683,-0.914678,0.456224,0.971145,100050.30,-69,-128,+183
123587,10.082,0.171,2.388,-0.907229,0.441857,0.984448,100048.41,-69,-128,+183
123597,10.285,-0.306,1.689,-0.694917,0.420040,1.049898,100047.88,-66,-131,+183
123608,10.335,-1.025,1.420,-0.526238,0.449306,1.077567,100045.30,-61,-134,+181
123618,10.035,-1.349,1.586,-0.469834,0.474848,1.108430,100045.30,-58,-137,+182
123628,9.976,-1.132,1.900,-0.453339,0.483894,1.146209,100049.73,-54,-140,+181
123637,10.108,-0.664,2.531,-0.452807,0.504646,1.183457,100046.91,-54,-140,+181
123648,10.576,-0.959,2.467,-0.427266,0.510499,1.232411,100049.18,-50,-142,+181
123658,10.498,-1.578,2.041,-0.392678,0.526994,1.287751,100049.18,-45,-144,+181
123667,10.392,-1.711,2.042,-0.392678,0.534444,1.336705,100049.18,-42,-148,+179
123677,10.274,-1.925,2.058,-0.371926,0.508371,1.391512,100050.38,-42,-148,+179
123687,10.452,-2.083,2.115,-0.391082,0.490279,1.443127,100050.70,-36,-150,+179
123698,10.730,-2.322,2.063,-0.453339,0.477863,1.493322,100046.77,-31,-152,+179
123707,10.786,-2.529,1.671,-0.512403,0.448242,1.582539,100046.77,-25,-155,+178
123717,11.971,-1.904,1.566,-0.604458,0.398756,1.659695,100046.77,-25,-155,+178
123727,12.518,-1.097,2.176,-0.544330,0.349270,1.769310,100050.66,-20,-157,+177
123738,12.754,-1.809,1.746,-0.415559,0.334371,1.925218,100048.82,-14,-160,+176
123748,12.936,-2.159,1.230,-0.402256,0.327453,2.066227,100046.77,-7,-164,+175
123758,13.727,-1.852,1.037,-0.337871,0.269453,2.181163,100046.77,-7,-164,+175
123767,14.081,-1.741,0.677,-0.230385,0.251894,2.306209,100049.47,+0,-164,+175
123778,14.116,-1.490,0.504,-0.210697,0.248169,2.480209,100049.47,+7,-166,+174
123788,14.586,-0.872,0.577,-0.206972,0.202407,2.670172,100048.63,+14,-169,+174
123798,15.423,-0.653,0.817,-0.258587,0.155582,2.867584,100045.83,+14,-169,+174
123807,16.612,-0.116,1.455,-0.429394,0.098646,3.045309,100049.63,+23,-170,+174
123817,17.989,0.888,2.287,-0.627871,0.008187,3.164502,100049.63,+34,-172,+171
123828,19.496,2.124,1.965,-0.941284,-0.026400,3.242190,100051.21,+42,-174,+169
123838,20.750,2.705,-0.013,-1.474990,-0.001391,3.246447,100047.70,+42,-174,+169
123848,21.919,4.989,-2.223,-2.387026,-0.060455,3.153327,100047.16,+53,-177,+164
123857,22.570,10.376,-3.001,-3.363979,-0.210510,2.975071,100048.18,+62,-183,+154
123868,20.403,16.463,-1.430,-3.595979,-0.330767,2.715401,100049.49,+69,-188,+144
123878,20.312,12.230,1.908,-2.337539,-0.404198,2.869713,100050.59,+69,-188,+144
123888,23.456,0.273,4.827,-0.400660,-0.358968,3.990868,100048.23,+80,-190,+140
123897,23.507,-6.244,5.771,0.647064,-0.354711,4.860336,100048.23,+95,-186,+141
123908,20.973,-4.310,8.465,0.668881,-0.447831,4.708152,100047.49,+108,-181,+142
123918,22.417,0.130,8.021,1.308477,-0.489867,4.571400,100047.49,+108,-181,+142
123928,18.530,2.461,7.263,2.699411,-0.199868,4.156887,100050.42,+121,-173,+148
123933,12.337,2.279,4.961,3.169264,-0.107813,3.594446,100051.89,+133,-164,+156
123942,9.304,4.523,2.783,2.942586,-0.361629,3.101181,100051.00,+133,-164,+156
123953,5.857,-1.910,5.538,2.414733,-0.605867,2.831401,100047.53,+139,-154,+162
123963,6.284,-10.058,8.538,2.466347,-0.737831,2.615896,100047.53,+146,-146,+169
123973,8.774,-4.361,3.590,2.298733,-1.054968,1.375549,100050.35,+147,-140,+174
123982,7.585,1.437,3.150,1.369137,-1.115096,0.536944,100049.35,+147,-140,+174
123993,5.217,4.179,2.562,0.858312,-1.242271,0.286852,100050.13,+145,-136,+176
124003,3.188,4.003,1.905,0.817339,-1.384876,0.045806,100049.09,+143,-134,+179
124013,1.838,1.923,1.736,0.870550,-1.553023,-0.203753,100049.09,+139,-133,+184
124022,1.488,0.335,1.857,0.843413,-1.738197,-0.525679,100048.05,+139,-133,+184
124033,1.532,0.342,2.154,0.779559,-1.916454,-0.922633,100048.47,+133,-132,+188
124043,1.607,0.858,2.554,0.681119,-2.089389,-1.378119,100047.31,+126,-132,+189
124053,2.159,1.119,2.983,0.597578,-2.233591,-1.778266,100050.84,+117,-132,+193
124062,2.729,1.707,2.963,0.548624,-2.369811,-2.177348,100050.84,+117,-132,+193
124072,3.130,2.110,2.895,0.589596,-2.475701,-2.541311,100048.16,+105,-134,+196
124083,3.476,1.756,2.951,0.715174,-2.551793,-2.883990,100046.63,+93,-133,+199
124093,3.978,1.044,3.174,0.854587,-2.625756,-3.213898,100045.95,+79,-132,+201
124102,4.485,0.372,3.426,0.948238,-2.695462,-3.529971,100040.90,+79,-132,+201
124112,4.761,-0.213,3.644,0.979101,-2.742820,-3.825824,100040.90,+65,-131,+205
124123,4.811,-0.491,3.927,0.929614,-2.769425,-4.123806,100045.70,+47,-131,+208
124133,5.067,-0.416,4.094,0.842880,-2.770490,-4.437218,100044.38,+31,-129,+209
124143,5.615,-0.237,4.320,0.741780,-2.736435,-4.753291,100043.65,+31,-129,+209
124152,6.225,-0.193,4.461,0.658238,-2.673114,-5.060851,100040.65,+13,-126,+210
124163,7.014,-0.333,4.263,0.629504,-2.585848,-5.355639,100040.65,-4,-122,+211
124173,7.947,-0.855,4.040,0.650257,-2.485279,-5.622226,100043.43,-22,-118,+211
124183,9.003,-1.429,3.911,0.584275,-2.402270,-5.875511,100042.16,-22,-118,+211
124192,10.264,-1.719,3.720,0.477321,-2.357040,-6.125602,100043.05,-40,-111,+211
124203,11.608,-1.689,3.876,0.392184,-2.320857,-6.351217,100044.68,-58,-103,+210
124213,13.138,-1.765,4.330,0.371963,-2.252747,-6.578428,100044.68,-76,-94,+210
124223,14.515,-2.316,5.208,0.506055,-2.147389,-6.783290,100045.81,-76,-94,+210
124233,16.235,-2.676,6.909,0.809358,-2.032985,-6.965271,100047.17,-93,-82,+209
124242,18.708,-3.210,8.965,1.199394,-1.841958,-7.144060,100045.48,-108,-66,+210
124253,21.588,-4.140,10.177,1.439376,-1.601445,-7.253675,100042.13,-123,-48,+211
124263,23.747,-5.201,10.366,1.480880,-1.289628,-7.215363,100042.13,-123,-48,+211
124273,24.795,-9.535,8.567,1.191412,-0.926197,-6.896629,100046.68,-134,-28,+213
124282,22.767,-14.333,7.562,0.355468,-0.852766,-6.373565,100044.57,-141,-10,+213
124293,20.927,-15.037,7.875,-0.419816,-0.674509,-5.828685,100046.10,-147,+4,+215
124303,20.269,-13.917,8.695,-0.922128,-0.447299,-5.115126,100046.48,-151,+14,+216
124313,17.850,-16.599,9.328,-1.142953,-0.240840,-4.304723,100046.48,-151,+14,+216
124322,13.620,-20.934,10.933,-1.487228,-0.093446,-3.573072,100046.73,-153,+23,+216
124333,10.382,-23.270,12.952,-1.668145,0.188040,-2.690302,100046.99,-153,+26,+218
124343,8.365,-24.252,12.220,-1.642604,0.458884,-1.396743,100044.21,-150,+24,+221
124353,15.827,-17.820,9.265,-1.285026,0.665875,0.127751,100048.30,-150,+24,+221
124362,11.149,-12.988,2.508,-0.738018,0.798370,1.520283,100048.30,-147,+19,+223
124372,13.801,6.512,-5.487,0.333119,0.521141,1.905530,100053.05,-145,+16,+226
124383,17.214,31.549,-11.019,-0.943412,0.140151,0.502889,100049.47,-144,+11,+226
124393,12.343,7.084,-7.036,-0.559761,0.477508,1.153659,100051.16,-144,+11,+226
124403,16.675,-11.087,-2.010,2.943650,0.998976,2.552576,100048.16,-138,+11,+230
124412,21.814,-2.132,-5.015,2.826054,1.108590,2.140190,100048.16,-134,+14,+235
124423,17.781,-5.031,-3.701,0.862568,1.166058,2.610043,100049.10,-129,+11,+238
124433,13.450,-6.967,-2.067,0.802972,1.235232,2.679750,100047.05,-129,+11,+238
124443,14.928,-4.206,2.491,0.781688,1.253856,2.201383,100049.15,-124,+8,+242
124452,14.040,-1.585,12.989,0.865229,1.535342,1.958741,100045.68,-118,+7,+246
124463,14.009,1.462,12.889,1.682018,1.603452,1.685237,100045.68,-111,+10,+250
124473,12.004,2.067,5.301,2.340237,1.356021,1.630961,100048.74,-111,+10,+250
124483,7.866,-1.163,2.573,2.023100,1.181489,1.793787,100046.38,-106,+14,+253
124493,8.901,-2.588,2.318,1.384568,0.965453,1.677787,100049.48,-102,+17,+255
124503,9.296,-2.122,3.247,0.748165,0.703123,1.472393,100048.85,-99,+16,+256
124513,10.106,0.584,2.440,0.336844,0.509967,1.255292,100048.85,-99,+16,+256
124523,10.430,1.965,0.133,0.060679,0.486554,1.182393,100050.48,-97,+15,+257
124533,9.982,0.572,-1.834,0.031413,0.507306,1.212723,100048.01,-94,+12,+259
124542,11.410,-0.008,-2.760,0.240000,0.534976,1.180797,100049.48,-92,+11,+259
124553,12.055,0.957,-2.088,0.411339,0.651508,1.244650,100048.01,-92,+11,+259
124563,10.569,0.980,-0.701,0.427303,0.771765,1.353732,100048.01,-88,+10,+261
124573,9.430,0.578,0.662,0.232018,0.809545,1.353732,100049.56,-85,+9,+263
124582,9.126,0.665,2.106,-0.089376,0.761655,1.311163,100050.20,-82,+6,+263
124593,8.809,1.245,2.730,-0.419284,0.663215,1.263274,100048.88,-82,+6,+263
124603,8.895,1.593,2.521,-0.657669,0.570627,1.262741,100046.63,-79,+3,+264
124613,9.165,2.122,1.826,-0.710880,0.516884,1.296264,100046.63,-76,-2,+265
124623,9.347,2.341,1.248,-0.578385,0.522738,1.354796,100046.39,-73,-6,+265
124633,9.422,2.042,0.557,-0.388954,0.548279,1.442062,100049.64,-73,-6,+265
124643,9.754,1.427,0.206,-0.183559,0.580737,1.541567,100048.86,-70,-9,+266
124653,9.720,0.504,0.542,-0.146312,0.628627,1.629897,100047.59,-67,-12,+267
124663,9.854,0.208,1.734,-0.134073,0.656297,1.612338,100047.59,-63,-15,+268
124673,9.324,-0.166,2.038,-0.087247,0.633416,1.567640,100050.29,-63,-15,+268
124683,9.365,-0.173,2.196,-0.144183,0.609471,1.513897,100049.24,-59,-18,+268
124693,9.822,-0.237,2.109,-0.196330,0.572756,1.475053,100047.71,-57,-19,+269
124703,9.951,-0.552,2.015,-0.211761,0.549343,1.455365,100047.35,-53,-22,+270
124712,10.000,-0.711,2.044,-0.213889,0.539765,1.427696,100047.35,-53,-22,+270
124723,10.075,-0.817,2.062,-0.241027,0.516884,1.409072,100048.59,-49,-26,+271
124733,10.060,-0.474,2.112,-0.311798,0.514756,1.392576,100049.38,-47,-29,+270
124743,10.029,-0.090,2.205,-0.341064,0.519545,1.388319,100049.85,-44,-30,+271
124753,10.075,-0.325,2.154,-0.300801,0.518303,1.409958,100050.43,-40,-34,+270
124763,10.077,-0.678,1.961,-0.255926,0.522738,1.433017,100050.43,-40,-34,+270
124773,10.225,-1.298,1.929,-0.285724,0.523270,1.450576,100051.09,-36,-36,+272
124783,10.411,-1.778,1.840,-0.359155,0.516352,1.463347,100049.66,-33,-40,+271
124793,10.649,-2.021,1.968,-0.465045,0.519013,1.456962,100047.20,-30,-43,+272
124803,10.614,-1.723,2.417,-0.568275,0.515288,1.462283,100047.51,-30,-43,+272
124813,10.800,-1.425,2.562,-0.604458,0.521141,1.464943,100047.51,-26,-46,+270
124823,10.918,-1.705,2.259,-0.626275,0.523270,1.494741,100051.45,-22,-50,+271
124833,10.933,-1.760,1.719,-0.674164,0.526462,1.541567,100050.19,-18,-54,+270
124843,11.157,-1.994,0.940,-0.703963,0.513692,1.624044,100049.50,-18,-54,+270
124853,12.362,-2.306,-0.124,-0.772073,0.465802,1.728870,100047.92,-14,-58,+270
124863,13.065,-1.815,0.036,-0.741210,0.423765,1.852319,100047.92,-11,-62,+269
124873,13.110,-1.020,0.862,-0.628403,0.385453,2.011420,100049.85,-7,-65,+268
124883,13.584,-0.820,1.189,-0.458128,0.363105,2.157218,100050.70,-7,-65,+268
124893,13.921,-0.995,1.262,-0.290513,0.338095,2.309933,100049.59,-2,-68,+270
124903,13.965,-1.196,0.996,-0.194201,0.305105,2.453603,100048.27,+1,-70,+269
124913,13.853,-0.879,0.576,-0.148972,0.279031,2.590887,100048.27,+7,-73,+269
124923,14.185,-0.931,-0.092,-0.092036,0.243380,2.748924,100049.77,+7,-73,+269
124933,14.946,-1.169,-0.649,-0.142055,0.201875,2.926116,100051.77,+10,-73,+269
124943,15.937,-0.704,-0.630,-0.327761,0.166756,3.089474,100048.50,+14,-75,+269
124953,17.483,0.435,0.151,-0.636385,0.100774,3.234208,100050.34,+20,-78,+268
124963,19.831,2.588,1.031,-1.027485,0.025747,3.301786,100050.34,+20,-78,+268
124974,21.952,4.822,0.364,-1.559063,-0.032253,3.318814,100050.30,+24,-83,+267
124983,22.802,9.145,0.028,-2.381705,-0.023739,3.275181,100048.92,+28,-92,+263
124993,21.884,14.258,-0.268,-3.192108,-0.070565,3.215584,100050.72,+31,-102,+258
125003,19.483,18.337,0.961,-3.414530,-0.148785,3.035199,100049.88,+31,-102,+258
125014,19.834,12.701,3.166,-2.120439,-0.233390,3.291144,100049.88,+34,-112,+252
125023,22.305,-0.106,5.543,-0.170789,-0.076418,4.483602,100048.14,+39,-114,+249
125033,22.227,-7.297,6.654,1.072752,0.021490,5.300391,100046.41,+47,-110,+248
125043,20.692,-7.073,7.063,1.386697,0.032664,5.152464,100051.78,+47,-110,+248
125053,21.132,-2.359,5.027,1.266972,0.021490,4.817235,100050.14,+54,-105,+248
125063,16.875,2.564,5.465,2.000751,0.089068,3.927015,100050.14,+60,-98,+246
125073,11.560,4.586,3.680,2.475925,-0.151978,2.960171,100053.50,+62,-92,+245
125083,8.904,1.846,4.231,2.146017,-0.497849,2.449878,100052.13,+62,-92,+245
125093,5.056,-6.229,8.002,2.010861,-0.600546,2.235438,100052.50,+63,-86,+242
125104,8.279,-2.493,3.892,1.911889,-0.971959,1.108430,100051.72,+64,-82,+240
125113,7.865,2.758,2.670,1.098293,-1.053904,0.136797,100051.72,+62,-81,+237
125123,5.102,4.735,2.042,0.473064,-1.120417,-0.277716,100051.60,+62,-81,+237
125133,2.360,4.191,1.465,0.270330,-1.247060,-0.635294,100050.09,+59,-84,+234
125144,1.075,2.409,1.186,0.274587,-1.402968,-0.943386,100051.51,+56,-86,+230
125153,1.096,0.961,1.207,0.333651,-1.549298,-1.255734,100051.13,+51,-88,+228
125163,1.415,0.293,1.403,0.382073,-1.678068,-1.655348,100051.13,+46,-88,+228
125173,1.658,-0.069,1.759,0.326734,-1.801518,-2.089018,100050.45,+46,-90,+228
125184,2.078,0.055,2.203,0.232018,-1.914857,-2.468944,100049.88,+38,-91,+226
125193,2.559,0.926,2.370,0.178275,-1.999463,-2.871751,100047.23,+31,-92,+225
125203,3.261,1.796,2.350,0.267670,-2.067040,-3.255935,100046.56,+20,-94,+226
125213,4.054,2.019,2.382,0.484771,-2.128765,-3.588503,100046.56,+20,-94,+226
125223,4.921,1.467,2.566,0.755260,-2.172398,-3.920007,100045.11,+7,-92,+226
125233,5.503,0.783,2.731,0.909926,-2.201132,-4.178081,100043.48,-4,-90,+228
125243,6.088,0.167,2.929,1.008899,-2.226141,-4.446264,100042.17,-17,-84,+228
125253,6.549,-0.339,3.046,1.041358,-2.237848,-4.703273,100039.11,-17,-84,+228
125263,6.912,-0.715,3.262,1.028055,-2.230930,-4.971988,100039.11,-33,-79,+228
125274,7.357,-0.866,3.535,0.996128,-2.218160,-5.249750,100046.62,-47,-72,+229
125283,7.938,-0.814,3.820,0.961009,-2.195811,-5.533896,100041.48,-63,-62,+228
125293,8.943,-0.685,3.978,0.932807,-2.155371,-5.842520,100039.99,-63,-62,+228
125303,10.303,-0.635,4.009,0.929614,-2.102692,-6.151144,100039.68,-78,-51,+227
125314,11.999,-0.561,4.158,1.013156,-2.060123,-6.429969,100039.68,-92,-37,+226
125323,13.885,-0.849,4.559,1.164807,-1.998931,-6.666758,100041.32,-104,-21,+225
125333,15.908,-1.776,5.205,1.257926,-1.940399,-6.901418,100042.27,-104,-21,+225
125343,17.895,-2.677,6.057,1.343064,-1.895701,-7.127565,100042.23,-115,-2,+221
125353,20.373,-3.611,7.387,1.461192,-1.822802,-7.291987,100039.96,-125,+18,+219
125363,23.542,-5.329,8.954,1.446293,-1.682857,-7.346794,100039.96,-132,+40,+216
125373,25.979,-8.047,9.484,1.232917,-1.393922,-7.254739,100044.01,-132,+40,+216
125383,25.656,-12.219,8.970,0.376752,-1.203426,-6.959950,100044.65,-136,+60,+213
125393,21.672,-12.832,8.728,-0.430458,-1.131060,-6.660905,100042.85,-137,+77,+211
125404,18.765,-11.341,10.232,-0.970550,-0.797427,-6.252244,100042.38,-136,+90,+210
125413,18.392,-10.732,10.542,-1.195100,-0.407390,-5.589236,100042.38,-136,+90,+210
125423,17.552,-13.615,9.005,-1.256292,-0.044491,-4.820869,100045.74,-132,+102,+210
125433,14.090,-18.559,8.373,-1.471265,0.149729,-4.055696,100047.10,-129,+109,+211
125444,10.505,-22.973,8.328,-1.460623,0.340224,-3.076082,100047.74,-126,+112,+213
125453,8.090,-26.537,7.862,-1.070054,0.527526,-1.700578,100046.21,-126,+112,+213
125459,8.068,-26.064,6.994,-0.575724,0.587123,-0.520890,100046.21,-123,+112,+215
125468,10.304,-21.231,6.316,0.045248,0.647251,0.595476,100046.21,-123,+111,+217
125478,16.526,-12.599,6.536,0.805101,0.911178,1.811879,100050.09,-123,+111,+217
125489,12.149,-3.224,1.768,0.942385,1.092095,2.225328,100048.82,-121,+109,+218
125499,11.850,22.297,-7.260,0.675266,0.654701,1.239329,100051.13,-121,+108,+220
125508,13.812,24.872,-10.041,-0.634788,0.468462,0.248540,100046.73,-120,+106,+221
125518,13.355,-7.384,-3.002,1.462788,0.865416,1.745897,100050.67,-120,+106,+221
125529,20.122,-10.340,-1.979,4.070658,1.054847,2.290777,100051.14,-118,+110,+221
125538,25.607,-3.183,-4.495,1.915614,1.044205,2.017805,100051.14,-117,+112,+222
125548,18.018,-9.426,-4.927,0.068661,1.187343,2.722318,100051.67,-115,+107,+225
125558,12.966,-7.214,-2.462,-0.144715,1.265031,2.387621,100050.52,-115,+107,+225
125569,14.656,-3.000,2.737,-0.442165,1.220333,1.973640,100050.52,-114,+101,+228
125579,12.293,0.486,13.092,-0.034569,1.365599,1.726741,100051.34,-112,+96,+230
125588,12.713,3.329,11.680,1.025926,1.350168,1.494741,100046.56,-108,+97,+232
125598,12.374,0.677,4.209,1.723522,1.100077,1.510705,100048.19,-108,+97,+232
125608,9.702,-3.575,1.287,1.413302,0.950022,1.544227,100049.66,-106,+99,+233
125619,10.646,-3.495,1.410,0.788605,0.788792,1.321806,100051.76,-104,+99,+234
125629,10.777,-3.920,1.698,0.076110,0.569563,1.183457,100051.18,-104,+97,+235
125638,11.136,-0.070,1.123,-0.571467,0.398224,0.953054,100048.29,-104,+97,+235
125648,9.992,3.879,0.769,-0.898183,0.395563,0.948265,100049.60,-103,+93,+237
125659,9.064,4.551,0.618,-0.711944,0.403013,1.049365,100049.60,-103,+88,+238
125668,9.815,3.818,0.394,-0.330954,0.413123,1.152063,100049.60,-103,+85,+240
125678,10.422,3.514,0.606,-0.023394,0.479105,1.299989,100051.74,-103,+85,+240
125688,9.647,2.718,1.323,0.077175,0.531783,1.413329,100048.90,-101,+82,+240
125693,9.093,1.836,1.999,-0.010624,0.526462,1.458558,100048.90,-99,+78,+242
125704,8.831,0.852,2.433,-0.292642,0.465802,1.493677,100050.90,-99,+78,+242
125713,9.470,1.721,3.111,-0.863596,0.354591,1.445787,100050.90,-99,+73,+243
125723,9.008,2.486,2.574,-0.866788,0.292866,1.330319,100052.32,-99,+67,+243
125733,9.063,2.305,1.671,-0.750788,0.281160,1.318081,100050.05,-99,+64,+245
125744,9.386,2.209,0.796,-0.540073,0.306701,1.323402,100048.59,-99,+64,+245
125754,9.502,2.030,0.439,-0.284660,0.364701,1.371824,100048.32,-98,+58,+246
125763,9.517,1.042,0.416,-0.046275,0.425894,1.411732,100048.32,-97,+56,+246
125773,9.562,0.277,0.806,0.038331,0.470591,1.414393,100051.98,-95,+53,+248
125784,9.618,0.113,1.570,-0.028183,0.487086,1.406943,100049.98,-95,+53,+248
125794,9.533,0.319,2.020,-0.109596,0.478040,1.387255,100050.66,-94,+50,+249
125803,9.395,0.645,2.382,-0.145247,0.468994,1.361714,100050.93,-92,+47,+249
125813,9.345,0.464,2.618,-0.103743,0.451967,1.345751,100050.93,-91,+43,+249
125824,9.477,0.056,2.419,-0.057449,0.432279,1.341494,100049.34,-91,+43,+249
125834,9.582,-0.046,2.230,-0.071816,0.430683,1.335640,100048.45,-90,+41,+251
125843,9.693,-0.167,2.111,-0.109064,0.440260,1.321274,100045.82,-88,+39,+252
125853,9.833,-0.581,1.852,-0.155890,0.446114,1.310631,100046.82,-86,+35,+252
125863,10.200,-0.725,1.558,-0.234110,0.440793,1.310099,100046.82,-86,+35,+252
125874,10.177,-0.397,1.659,-0.309137,0.444517,1.315420,100049.08,-85,+32,+254
125884,10.025,0.071,1.675,-0.302220,0.445049,1.372888,100050.08,-82,+28,+254
125893,10.022,-0.188,1.564,-0.258055,0.416316,1.456429,100050.03,-80,+24,+254
125903,10.246,-0.397,1.277,-0.220807,0.404077,1.542631,100048.45,-80,+24,+254
125914,10.308,-0.476,1.325,-0.192605,0.418444,1.613402,100048.45,-79,+22,+255
125924,10.223,-0.727,1.566,-0.148972,0.430150,1.674594,100053.23,-77,+19,+256
125929,10.161,-0.953,1.786,-0.117046,0.432811,1.717163,100048.12,-77,+19,+256
125938,10.417,-1.235,1.983,-0.099486,0.436004,1.745365,100048.12,-75,+15,+258
125948,10.559,-1.656,2.320,-0.130348,0.429086,1.765585,100049.02,-72,+11,+258
125959,10.856,-2.134,2.245,-0.210165,0.413655,1.756007,100046.54,-69,+8,+258
125969,10.656,-2.081,1.931,-0.333082,0.400884,1.774099,100046.54,-69,+8,+258
125979,10.881,-1.912,1.544,-0.428330,0.359380,1.834759,100048.81,-68,+4,+259
125988,11.415,-1.792,1.579,-0.483137,0.326389,1.926814,100050.08,-66,+0,+259
125999,12.075,-1.820,1.650,-0.471963,0.309362,2.013016,100049.55,-64,-6,+259
126009,12.580,-1.627,1.871,-0.474091,0.302444,2.085383,100049.55,-64,-6,+259
126018,13.037,-1.560,1.881,-0.433119,0.285417,2.166264,100049.55,-62,-10,+260
126028,12.910,-1.401,1.530,-0.336807,0.252958,2.272154,100053.14,-59,-16,+260
126039,13.168,-1.539,1.161,-0.232513,0.220499,2.389218,100051.92,-56,-20,+260
126049,13.534,-1.315,0.843,-0.195266,0.199747,2.525438,100049.66,-56,-20,+260
126059,14.191,-0.446,1.084,-0.194734,0.177398,2.688263,100049.77,-53,-24,+260
126068,14.986,0.136,1.712,-0.242091,0.163563,2.878759,100049.77,-49,-28,+260
126078,15.755,0.487,2.076,-0.329889,0.148664,3.078832,100052.50,-46,-33,+260
126089,16.553,0.753,2.352,-0.399596,0.105031,3.228355,100050.73,-46,-33,+260
126099,18.340,1.648,2.281,-0.586366,0.027343,3.322006,100049.61,-43,-39,+260
126108,19.767,2.839,1.583,-0.915210,0.041710,3.360318,100049.61,-39,-46,+259
126118,20.311,3.748,-0.646,-1.346219,0.124719,3.330520,100050.57,-34,-54,+257
126129,21.308,4.432,-2.851,-1.982622,0.085875,3.244850,100050.57,-34,-54,+257
126139,22.567,7.067,-3.541,-3.017576,-0.106216,3.047438,100052.37,-29,-66,+255
126148,20.361,14.493,-0.197,-3.681649,-0.248290,2.664319,100050.21,-27,-80,+250
126158,21.683,11.068,4.134,-2.089576,-0.230198,2.904300,100050.99,-23,-90,+247
126169,22.351,-0.124,4.534,0.061743,-0.166345,4.243088,100050.99,-23,-90,+247
126179,19.951,-5.815,5.618,0.660367,-0.257335,4.988042,100049.64,-14,-93,+248
126189,20.890,-4.907,7.732,1.007835,-0.363225,4.834262,100051.48,-6,-93,+249
126198,21.388,-0.859,7.323,1.519724,-0.213170,4.294171,100047.59,+0,-91,+252
126209,15.369,4.110,5.514,2.039063,-0.092381,3.275181,100049.90,+0,-91,+252
126219,12.554,9.074,2.920,2.128458,-0.447831,2.572796,100055.79,+4,-86,+255
126229,5.889,2.358,5.567,1.970421,-0.561170,2.376979,100051.38,+5,-80,+257
126238,5.913,-5.356,7.171,2.435485,-0.725592,2.233842,100051.38,+8,-72,+260
126248,9.134,-1.346,2.981,2.425375,-1.025170,0.936558,100049.23,+8,-72,+260
126259,7.947,3.220,1.834,1.661265,-1.161390,0.120302,100052.05,+5,-64,+263
126269,5.645,4.539,2.089,1.101486,-1.282711,-0.164377,100052.05,+0,-60,+263
126279,3.701,3.545,2.367,0.876403,-1.437023,-0.450652,100053.45,-5,-56,+263
126288,2.469,1.771,2.301,0.718899,-1.684986,-0.800248,100049.87,-13,-53,+263
126299,2.342,0.710,2.519,0.631101,-1.905279,-1.246688,100050.02,-13,-53,+263
126309,3.006,0.249,3.206,0.595449,-2.067573,-1.687807,100051.18,-23,-50,+262
126319,3.453,0.004,3.674,0.503927,-2.219224,-2.123605,100051.18,-33,-46,+260
126329,3.785,0.079,3.775,0.332587,-2.337352,-2.547697,100049.13,-44,-40,+258
126339,4.138,0.821,3.636,0.215523,-2.425683,-2.959017,100046.59,-44,-40,+258
126349,4.656,1.357,3.504,0.259688,-2.491664,-3.336283,100040.77,-57,-36,+255
126359,5.321,0.988,3.639,0.442202,-2.493793,-3.676301,100040.77,-69,-30,+252
126368,5.825,-0.089,3.832,0.589596,-2.429940,-3.966833,100040.77,-81,-20,+249
126379,5.992,-0.830,4.148,0.652385,-2.369279,-4.218521,100043.66,-81,-20,+249
126389,6.104,-1.231,4.567,0.656110,-2.306490,-4.489365,100043.61,-93,-11,+246
126399,6.466,-1.408,4.969,0.570440,-2.247958,-4.783621,100045.72,-103,+0,+242
126408,6.958,-1.284,5.410,0.443798,-2.171334,-5.065639,100039.77,-114,+12,+238
126418,7.470,-1.037,5.940,0.287890,-2.059059,-5.341272,100039.77,-114,+12,+238
126429,8.342,-0.859,6.435,0.171890,-1.922307,-5.621162,100042.08,-122,+25,+234
126439,9.594,-0.734,6.409,0.083028,-1.793004,-5.875511,100042.77,-128,+40,+229
126449,10.771,-0.980,6.514,0.119743,-1.634435,-6.083566,100039.27,-134,+56,+225
126458,12.021,-2.255,6.572,0.294807,-1.447133,-6.234685,100039.27,-134,+56,+225
126469,12.945,-4.075,6.742,0.680587,-1.259830,-6.312905,100044.47,-137,+73,+221
126479,13.446,-6.047,7.353,1.078605,-1.076252,-6.326208,100044.47,-137,+94,+216
126489,14.116,-7.621,7.836,1.334550,-0.908106,-6.314501,100044.41,-134,+114,+213
126498,15.076,-9.010,7.918,1.327633,-0.777739,-6.274593,100041.63,-134,+114,+213
126509,15.325,-8.857,7.396,1.204715,-0.670253,-6.256501,100041.63,-130,+134,+209
126519,15.936,-8.884,6.965,1.119045,-0.496785,-6.238410,100041.63,-122,+154,+206
126529,17.033,-10.255,5.617,0.812550,-0.403133,-6.082501,100046.07,-114,+171,+203
126539,16.847,-12.503,5.123,0.332587,-0.328638,-5.807933,100048.80,-114,+171,+203
126548,15.143,-12.447,5.435,-0.123431,-0.307886,-5.520594,100046.54,-104,+184,+201
126559,14.777,-10.665,7.099,-0.270825,-0.257335,-5.174722,100048.92,-93,+195,+200
126569,15.712,-10.603,9.081,-0.056917,-0.094510,-4.692631,100047.83,-85,+205,+199
126579,15.750,-12.814,9.822,0.197431,0.151325,-4.050906,100047.14,-85,+205,+199
126589,14.653,-15.558,8.448,0.360257,0.374811,-3.299568,100049.72,-75,+212,+198
126599,12.902,-16.931,6.358,0.632697,0.494536,-2.491825,100049.72,-68,+218,+198
126609,11.513,-18.371,5.776,1.015816,0.572224,-1.626082,100049.45,-62,+224,+196
126619,10.375,-20.837,7.074,1.275486,0.677581,-0.707129,100049.45,-62,+224,+196
126628,9.427,-22.699,8.708,1.286128,0.830829,0.217678,100051.48,-59,+228,+194
126639,11.273,-20.665,9.364,1.090844,1.006425,1.040852,100051.11,-59,+230,+193
126649,17.451,-1.490,-2.108,0.953027,1.016003,1.549016,100050.00,-60,+231,+192
126659,17.910,32.220,-18.313,0.845541,0.439728,0.721054,100048.59,-60,+231,+192
126669,14.966,46.232,-13.441,-0.543798,0.235930,-0.474065,100048.59,-58,+232,+193
126679,12.464,-5.711,-1.958,1.271761,0.795710,1.350007,100050.61,-59,+231,+192
126689,18.160,-23.959,0.032,5.301428,1.454462,2.242356,100049.92,-60,+240,+181
126699,20.474,-2.102,-8.062,2.749962,1.155948,1.632026,100049.66,-62,+242,+179
126709,17.875,-5.750,-6.112,-0.441632,1.068150,2.320044,100049.66,-62,+242,+179
126718,15.159,-3.521,-3.923,-0.321908,1.300150,2.295034,100049.66,-66,+236,+184
126729,13.332,0.164,4.935,-0.600733,1.331012,1.912980,100054.26,-68,+232,+186
126739,8.063,1.014,20.305,-0.346385,1.616223,1.784209,100051.15,-67,+228,+189
126749,12.325,5.792,18.432,1.026991,1.535342,1.610209,100047.57,-67,+228,+189
126758,15.548,3.197,3.457,2.003944,1.017600,1.904466,100048.15,-68,+230,+186
126769,9.380,-5.387,0.662,1.608586,0.977691,2.073145,100048.15,-71,+230,+185
126779,9.731,-4.505,0.825,0.923229,0.793581,1.883181,100053.23,-73,+230,+184
126789,9.440,-1.237,1.852,0.291083,0.591912,1.679383,100051.08,-73,+230,+184
126799,10.533,2.000,1.048,-0.092568,0.503582,1.490484,100047.23,-76,+227,+184
126809,9.964,2.224,-0.081,-0.217614,0.494536,1.551145,100047.23,-79,+224,+186
126819,9.885,1.322,-0.349,0.038863,0.504114,1.627237,100051.68,-80,+221,+188
126829,11.780,0.603,-0.541,0.412404,0.567435,1.521347,100051.68,-80,+221,+188
126839,11.072,-0.253,0.803,0.525211,0.639270,1.469732,100048.90,-83,+220,+188
126849,9.883,0.271,1.495,0.365578,0.628627,1.369696,100048.99,-84,+218,+188
126859,8.998,0.749,1.838,0.088881,0.592444,1.299989,100048.95,-86,+216,+188
126869,9.272,0.676,1.931,-0.213889,0.512095,1.193035,100048.95,-86,+216,+188
126879,9.804,1.757,1.959,-0.372990,0.455160,1.150466,100052.74,-87,+213,+191
126889,9.486,3.310,1.796,-0.335211,0.472719,1.153659,100050.59,-89,+210,+191
126899,9.207,2.934,1.380,-0.105871,0.508903,1.236136,100052.26,-90,+207,+192
126909,9.440,1.528,0.982,0.063340,0.544022,1.351604,100047.96,-90,+207,+192
126919,9.575,0.429,1.182,0.010129,0.579141,1.421310,100052.07,-92,+204,+194
126929,9.506,-0.441,1.437,-0.198990,0.586591,1.438870,100048.76,-93,+201,+196
126939,9.533,-0.114,1.892,-0.384165,0.576481,1.408540,100050.01,-95,+197,+197
126949,9.456,0.421,2.072,-0.462385,0.551471,1.380870,100050.01,-95,+197,+197
126959,9.457,0.384,1.947,-0.426201,0.538701,1.383530,100049.18,-96,+194,+199
126969,9.621,0.173,1.768,-0.373522,0.527526,1.388851,100049.18,-98,+189,+201
126979,9.896,-0.253,1.655,-0.356495,0.523802,1.387255,100049.75,-99,+185,+202
126985,9.952,-0.676,1.501,-0.387357,0.525398,1.381934,100050.39,-99,+185,+202
126994,9.883,-0.810,1.420,-0.469302,0.529123,1.372888,100050.17,-100,+181,+204
127004,9.883,-0.635,1.394,-0.603926,0.542958,1.359585,100049.70,-101,+176,+206
127014,9.921,-0.336,1.820,-0.667247,0.558921,1.344686,100049.70,-101,+176,+206
127024,9.745,-0.361,2.129,-0.609779,0.556260,1.340962,100051.02,-102,+172,+208
127034,9.831,-0.898,1.996,-0.523577,0.546150,1.339365,100050.91,-103,+168,+211
127044,9.988,-1.466,1.674,-0.505486,0.530187,1.343622,100047.76,-103,+162,+212
127054,9.975,-1.425,1.526,-0.529431,0.534976,1.336173,100049.02,-103,+162,+212
127064,9.851,-0.939,2.029,-0.544330,0.554132,1.337769,100049.02,-103,+158,+215
127074,9.774,-0.237,2.598,-0.474091,0.559453,1.344154,100052.28,-104,+154,+216
127084,10.027,-0.406,2.576,-0.338935,0.554132,1.390448,100050.75,-105,+150,+218
127094,10.435,-1.372,2.178,-0.284660,0.555196,1.440998,100047.59,-105,+150,+218
127105,10.374,-1.468,2.097,-0.320844,0.554664,1.493145,100048.17,-105,+147,+220
127114,10.389,-1.370,2.111,-0.391614,0.555196,1.556466,100048.17,-106,+141,+221
127124,10.796,-1.857,1.935,-0.420348,0.536572,1.639475,100052.84,-106,+136,+223
127134,11.207,-2.210,1.785,-0.462917,0.514224,1.723549,100049.99,-106,+136,+223
127144,11.837,-2.165,1.689,-0.549119,0.482829,1.803897,100049.68,-107,+131,+225
127154,12.526,-2.132,1.835,-0.584770,0.451967,1.868282,100048.52,-107,+126,+226
127164,12.743,-2.081,1.641,-0.592220,0.423765,1.961402,100048.52,-108,+119,+228
127174,12.693,-1.364,1.693,-0.560293,0.408334,2.061970,100049.77,-108,+119,+228
127184,12.761,-1.147,1.815,-0.413431,0.362040,2.172117,100051.72,-109,+114,+229
127194,12.958,-1.432,1.433,-0.233045,0.324793,2.316851,100048.56,-110,+107,+229
127204,13.066,-1.849,1.242,-0.166532,0.329582,2.463713,100046.14,-112,+101,+230
127214,13.473,-1.429,1.431,-0.196330,0.308829,2.598337,100046.14,-112,+101,+230
127220,13.910,-1.037,1.583,-0.220275,0.276371,2.697309,100053.06,-112,+95,+231
127229,14.664,-0.938,1.640,-0.263908,0.250829,2.792025,100053.06,-114,+88,+232
127240,16.380,-0.458,2.089,-0.395339,0.181123,2.924520,100050.33,-114,+88,+232
127249,18.562,0.434,2.142,-0.668311,0.145472,3.030942,100048.22,-115,+79,+233
127259,20.364,0.714,0.560,-1.082293,0.144940,3.117676,100049.95,-115,+69,+233
127269,21.932,2.417,-1.672,-1.746366,0.085875,3.132575,100051.95,-117,+56,+235
127280,23.032,7.052,-3.549,-2.715338,0.015105,3.063933,100053.27,-117,+56,+235
127289,23.259,12.186,-4.380,-3.310768,-0.008308,2.999016,100050.48,-117,+40,+234
127299,20.836,16.134,-3.741,-3.129319,-0.056198,2.875566,100050.48,-116,+22,+233
127309,18.088,11.839,-0.475,-1.924090,-0.178051,2.893126,100050.64,-116,+10,+233
127319,21.002,0.167,4.353,0.134642,-0.199868,3.604557,100050.64,-116,+10,+233
127329,21.320,-6.753,6.771,1.371266,-0.097702,4.413363,100051.41,-115,+4,+233
127339,19.326,-8.372,7.860,1.526109,-0.063647,4.473492,100051.83,-112,+0,+234
127349,19.467,-7.305,6.010,1.415431,-0.073225,4.290978,100050.45,-110,-4,+234
127360,18.042,-2.008,5.896,1.695320,-0.073225,3.743437,100048.41,-110,-4,+234
127370,12.946,3.877,5.012,1.621357,-0.385574,2.819695,100048.41,-108,-6,+235
127379,7.703,6.633,4.028,1.163743,-0.738895,2.210429,100051.13,-108,-6,+234
127389,3.258,-1.455,9.385,1.348917,-0.730913,2.183291,100047.03,-110,-6,+232
127399,7.227,-1.072,5.435,1.723522,-1.061885,1.485163,100051.08,-110,-6,+232
127410,7.540,3.349,2.374,1.127027,-1.252381,0.455531,100051.08,-112,-3,+231
127419,5.721,5.753,2.094,0.371963,-1.301867,0.130944,100051.08,-116,-1,+228
127429,3.839,5.343,2.218,0.012257,-1.470546,-0.072854,100053.65,-121,-1,+224
127439,2.497,3.811,1.850,0.010661,-1.706270,-0.340505,100052.91,-121,-1,+224
127450,2.152,1.859,1.698,0.121872,-1.890380,-0.692230,100051.76,-125,+0,+220
127455,2.183,0.850,2.054,0.186257,-2.008508,-1.011496,100049.87,-132,+3,+215
127464,2.490,0.445,2.637,0.214991,-2.105352,-1.324908,100049.87,-132,+3,+215
127474,2.995,0.526,3.156,0.212863,-2.227206,-1.708559,100052.91,-139,+7,+210
127484,3.329,1.134,3.346,0.251174,-2.329371,-2.082100,100051.33,-146,+14,+205
127495,3.665,1.864,3.433,0.412404,-2.398013,-2.455109,100050.22,-153,+22,+198
127504,4.196,2.025,3.588,0.686972,-2.449627,-2.796192,100046.48,-153,+22,+198
127514,4.877,1.676,3.813,1.007302,-2.483150,-3.114926,100046.48,-160,+32,+191
127524,5.571,1.015,4.088,1.265908,-2.500710,-3.405457,100052.76,-165,+44,+184
127535,6.062,0.338,4.360,1.384568,-2.528380,-3.687476,100048.55,-169,+59,+177
127544,6.395,-0.065,4.635,1.406385,-2.547536,-3.959916,100047.45,-169,+59,+177
127554,6.714,-0.309,5.051,1.365412,-2.536893,-4.233952,100044.02,-174,+74,+169
127564,6.930,-0.263,5.562,1.290385,-2.501774,-4.511714,100044.02,-177,+90,+160
127575,7.358,0.020,6.054,1.254733,-2.444306,-4.803309,100046.78,-176,+109,+152
127584,8.279,0.286,6.491,1.270165,-2.355444,-5.098098,100047.14,-176,+109,+152
127594,9.469,0.225,6.667,1.307412,-2.242105,-5.376924,100042.67,-174,+127,+144
127604,10.729,-0.166,6.685,1.329229,-2.125041,-5.628080,100044.30,-171,+146,+136
127614,11.911,-0.543,6.579,1.338275,-2.021811,-5.865401,100044.30,-165,+168,+128
127625,13.205,-0.928,6.723,1.360623,-1.918582,-6.087822,100042.06,-165,+168,+128
127634,14.416,-1.672,6.818,1.393082,-1.803646,-6.284171,100045.59,-156,+187,+120
127644,15.639,-2.666,6.743,1.381376,-1.723298,-6.468281,100045.55,-145,+206,+112
127654,17.148,-3.242,6.736,1.297302,-1.672747,-6.643877,100046.48,-131,+226,+105
127665,19.007,-3.733,7.073,1.136605,-1.595591,-6.798189,100046.48,-131,+226,+105
127674,20.839,-4.464,7.859,0.876935,-1.466289,-6.887051,100050.26,-115,+245,+99
127684,22.133,-5.972,9.197,0.517761,-1.227371,-6.898758,100048.52,-97,+260,+94
127690,22.654,-7.418,10.039,0.170294,-0.998564,-6.847675,100046.79,-97,+260,+94
127699,21.496,-8.861,10.499,-0.313926,-0.752730,-6.742850,100046.79,-77,+274,+93
127710,18.980,-10.710,11.635,-0.955651,-0.292987,-6.519363,100047.79,-57,+284,+94
127719,19.399,-14.917,9.033,-1.957613,0.070444,-6.127199,100047.79,-38,+290,+101
127729,18.768,-14.958,5.123,-2.737686,-0.025336,-5.441309,100048.62,-38,+290,+101
127739,17.280,-12.929,5.297,-2.382769,-0.010436,-4.800117,100050.20,-22,+293,+109
127750,14.622,-16.714,9.643,-1.647393,0.201875,-3.904576,100047.82,-8,+294,+113
127760,10.748,-27.092,11.867,-1.156788,0.592976,-2.590265,100047.82,+0,+294,+117
127769,7.676,-31.277,9.976,-1.260017,0.772297,-1.113661,100047.82,+0,+294,+117
127779,9.828,-22.608,6.685,-0.819430,0.770169,0.443825,100048.25,+1,+293,+122
127790,17.255,-13.161,5.983,0.173486,0.917563,1.821457,100051.89,-2,+292,+122
127800,15.400,0.961,-4.554,0.726348,0.945233,2.240227,100044.78,-8,+290,+121
127809,13.560,29.286,-13.242,0.629504,0.558389,1.014246,100047.89,-8,+290,+121
127819,11.705,28.999,-15.246,-0.444825,0.293930,0.126155,100047.89,-7,+292,+121
127830,13.331,-10.440,-5.715,1.917210,0.651508,1.833695,100053.66,-11,+292,+117
127840,17.558,-15.254,-0.735,4.822529,1.058040,2.300888,100050.23,-18,+296,+104
127850,19.505,-0.540,-4.180,2.813815,0.937783,1.858704,100048.66,-18,+296,+104
127859,18.021,-4.847,-3.761,0.943981,0.878719,2.347713,100048.66,-23,+296,+100
127869,16.554,-6.350,-5.387,0.732202,1.087306,2.382300,100054.98,-29,+293,+100
127880,14.987,-4.044,0.161,0.026092,1.227783,1.943842,100049.66,-34,+292,+102
127889,9.987,0.337,8.097,-0.288917,1.303343,1.827842,100049.66,-34,+292,+102
127899,9.168,4.464,15.250,0.050037,1.314517,1.663952,100049.13,-38,+288,+104
127909,12.752,5.992,10.803,1.090312,1.113379,1.616062,100048.02,-42,+287,+103
127920,11.516,-0.218,4.963,1.514935,0.945233,1.734723,100048.02,-47,+287,+99
127925,9.021,-4.585,3.101,1.222807,0.882976,1.686301,100051.25,-47,+287,+99
127934,8.935,-3.914,1.542,0.784881,0.718022,1.508576,100051.20,-51,+286,+99
127944,10.149,-1.302,0.012,0.268202,0.510499,1.294136,100048.09,-54,+285,+99
127954,11.559,0.870,-0.956,-0.042550,0.449838,1.192503,100047.42,-54,+285,+99
127965,10.812,2.069,-0.981,-0.294770,0.476976,1.276044,100047.42,-58,+282,+100
127975,10.103,2.824,-0.524,-0.195266,0.514224,1.348411,100052.02,-61,+280,+102
127984,10.357,2.822,-0.041,0.185725,0.580205,1.392576,100048.09,-66,+278,+102
127994,10.118,2.576,1.165,0.462954,0.653637,1.469200,100050.60,-66,+278,+102
128005,9.587,1.773,2.441,0.478385,0.650976,1.511237,100050.35,-69,+276,+103
128015,9.027,0.990,3.002,0.191578,0.554132,1.513365,100050.35,-73,+274,+102
128024,8.734,1.603,3.055,-0.212825,0.429618,1.473457,100052.23,-77,+270,+104
128034,8.668,2.225,2.733,-0.580513,0.334371,1.440466,100048.96,-77,+270,+104
128045,9.258,3.160,2.635,-0.786440,0.288077,1.459622,100048.65,-80,+267,+107
128055,9.307,2.879,1.286,-0.344789,0.303508,1.404283,100049.45,-85,+263,+108
128064,9.666,1.974,0.465,-0.040422,0.355123,1.466540,100049.45,-89,+261,+109
128074,10.328,0.307,0.092,0.124532,0.378004,1.553273,100051.63,-89,+261,+109
128084,10.520,-0.969,0.304,0.081431,0.406205,1.575090,100049.73,-92,+258,+109
128095,10.066,-1.004,0.904,-0.090972,0.443985,1.520283,100049.58,-97,+254,+110
128105,9.755,-1.004,1.488,-0.263908,0.442389,1.437274,100049.58,-99,+252,+112
128114,9.724,-0.421,2.238,-0.357027,0.412591,1.363842,100049.58,-99,+252,+112
128124,9.808,0.033,2.430,-0.375119,0.387050,1.310631,100049.67,-103,+248,+114
128135,9.902,-0.387,2.305,-0.361284,0.374279,1.276576,100050.09,-106,+244,+116
128145,9.928,-0.781,2.121,-0.404385,0.367361,1.240925,100049.09,-108,+241,+117
128154,9.812,-0.763,1.801,-0.494311,0.372683,1.205274,100047.83,-108,+241,+117
128164,9.699,-0.583,1.605,-0.590091,0.388646,1.179732,100047.83,-111,+238,+119
128175,9.842,-0.338,1.571,-0.655008,0.403013,1.181861,100051.02,-114,+234,+122
128185,9.810,0.068,1.687,-0.706623,0.418444,1.218576,100051.22,-116,+230,+124
128194,9.712,0.227,1.819,-0.682678,0.427490,1.284558,100050.75,-116,+230,+124
128204,9.793,0.057,1.866,-0.607119,0.429086,1.350007,100046.86,-119,+226,+127
128215,9.713,-0.045,1.705,-0.511871,0.424829,1.419182,100046.86,-121,+222,+129
128225,9.821,-0.099,1.623,-0.396935,0.428554,1.484099,100052.37,-124,+217,+132
128235,9.960,-0.185,1.670,-0.261247,0.431747,1.553805,100049.95,-124,+217,+132
128244,10.258,-0.832,1.578,-0.126091,0.420572,1.632558,100051.74,-127,+213,+132
128254,10.634,-1.306,1.364,-0.042018,0.399288,1.703860,100051.41,-130,+209,+134
128265,10.733,-1.445,1.652,-0.035101,0.394499,1.765053,100051.41,-133,+204,+135
128275,10.810,-1.692,1.670,-0.050532,0.374279,1.820925,100051.59,-136,+204,+136
128284,11.287,-1.903,1.470,-0.078734,0.341820,1.862429,100052.52,-136,+200,+136
128294,11.701,-1.972,1.352,-0.087779,0.301912,1.925218,100049.16,-139,+194,+137
128305,12.005,-1.828,1.334,-0.077669,0.274774,1.993860,100051.16,-143,+188,+139
128315,12.248,-1.757,1.313,-0.082990,0.251362,2.071548,100051.16,-147,+182,+139
128324,12.643,-1.618,1.208,-0.060642,0.217839,2.163071,100050.88,-147,+182,+139
128334,12.960,-1.324,1.403,-0.015945,0.182719,2.277475,100050.52,-150,+177,+141
128345,13.170,-1.162,1.637,0.026092,0.146536,2.407842,100050.30,-155,+170,+141
128355,13.511,-0.976,1.607,0.023431,0.119398,2.551511,100049.52,-158,+163,+142
128364,13.738,-0.806,1.523,-0.014348,0.101307,2.714869,100049.52,-158,+163,+142
128374,13.964,-0.404,1.633,-0.073413,0.069912,2.881419,100049.69,-163,+154,+142
128385,14.704,-0.023,1.725,-0.160679,0.033197,3.049566,100050.42,-167,+144,+142
128395,16.509,0.390,1.884,-0.317651,-0.034914,3.209731,100048.33,-171,+134,+143
128405,18.891,0.721,2.229,-0.594348,-0.106216,3.352336,100049.58,-171,+134,+143
128414,21.369,1.862,0.480,-1.187650,-0.100363,3.445456,100049.58,-176,+123,+144
128424,23.551,5.024,-1.339,-2.101815,-0.067904,3.438006,100049.38,-180,+108,+146
128435,24.874,8.881,-2.690,-2.888273,-0.174326,3.392777,100050.02,-182,+92,+149
128445,23.696,12.924,-2.961,-3.723153,-0.217959,3.367235,100049.38,-182,+92,+149
128454,19.345,15.668,-1.217,-3.933869,-0.327042,3.073511,100050.86,-185,+74,+150
128464,20.432,9.321,3.882,-2.179503,-0.364822,3.217180,100050.86,-186,+60,+150
128475,22.117,-1.707,5.604,0.307046,-0.363225,4.526171,100049.40,-187,+46,+149
128485,20.300,-5.403,7.032,1.495247,-0.390895,5.307308,100050.40,-187,+46,+149
128495,19.481,-2.312,7.568,1.894329,-0.379189,5.176941,100049.34,-189,+32,+149
128504,19.111,3.677,5.066,2.272660,-0.325978,4.623547,100046.71,-187,+20,+149
128510,18.006,6.256,2.234,2.882989,-0.168473,3.866887,100046.71,-187,+20,+149
128520,12.967,6.130,4.433,3.136274,-0.195079,3.233676,100046.71,-186,+16,+149
128530,7.483,2.107,3.357,2.604164,-0.597886,2.631328,100053.41,-187,+12,+150
128540,5.765,-5.385,5.722,2.114091,-0.784124,2.392943,100051.88,-187,+9,+148
128549,2.790,-8.998,7.332,2.308843,-1.003353,1.617127,100051.26,-187,+9,+148
128560,6.539,-4.191,3.424,2.087485,-1.343371,0.582173,100050.95,-189,+10,+146
128570,6.144,0.846,3.418,1.241963,-1.352417,-0.204285,100051.32,-191,+14,+142
128580,2.930,3.961,2.941,0.606092,-1.490234,-0.565056,100051.84,-194,+18,+137
128589,0.639,4.634,2.870,0.403890,-1.659445,-0.871019,100051.84,-194,+18,+137
128600,0.309,3.689,3.049,0.524679,-1.842490,-1.096633,100051.57,-196,+22,+133
128610,0.813,1.960,2.815,0.792330,-2.021279,-1.375991,100050.10,-200,+28,+127
128620,1.682,0.670,2.897,0.997192,-2.113866,-1.735697,100050.10,-203,+35,+121
128629,2.658,0.071,3.541,1.002513,-2.178252,-2.064009,100052.23,-203,+35,+121
128640,3.088,0.456,4.025,0.857780,-2.275628,-2.439146,100050.72,-206,+46,+115
128650,3.457,1.374,4.329,0.744972,-2.345334,-2.841953,100050.45,-209,+57,+106
128660,4.107,1.950,4.480,0.749761,-2.396416,-3.225604,100047.92,-211,+70,+98
128670,4.984,1.800,4.414,0.862568,-2.437921,-3.585310,100047.55,-211,+70,+98
128679,5.765,0.930,4.360,0.991871,-2.427811,-3.875310,100049.82,-211,+85,+89
128690,6.265,0.049,4.399,1.035504,-2.403866,-4.132319,100046.02,-211,+100,+80
128700,6.519,-0.419,4.488,0.984954,-2.370343,-4.388796,100045.98,-208,+118,+72
128710,6.900,-0.553,4.623,0.885981,-2.327774,-4.663897,100045.98,-208,+118,+72
128719,7.382,-0.690,4.854,0.802972,-2.264453,-4.937933,100045.98,-205,+136,+63
128730,7.834,-0.776,5.160,0.774770,-2.179316,-5.196007,100047.45,-198,+154,+55
128740,8.470,-0.585,5.431,0.777431,-2.079811,-5.459933,100046.82,-191,+174,+47
128745,9.196,-0.436,5.466,0.800312,-2.004252,-5.668520,100046.13,-191,+174,+47
128755,10.237,-0.270,5.507,0.834899,-1.931885,-5.880832,100042.18,-179,+194,+39
128764,11.831,-0.291,5.553,0.895027,-1.844619,-6.134116,100042.18,-165,+213,+32
128775,13.531,-0.643,5.622,0.953559,-1.769591,-6.353878,100047.01,-165,+213,+32
128785,15.223,-1.259,5.813,0.986550,-1.688179,-6.577363,100047.21,-149,+234,+25
128795,17.005,-2.050,6.093,1.002513,-1.613683,-6.789675,100045.59,-132,+252,+18
128804,18.917,-3.491,6.787,0.999853,-1.528546,-6.964739,100044.05,-111,+270,+12
128815,20.896,-5.543,7.802,0.930679,-1.375298,-7.067969,100044.05,-111,+270,+12
128825,22.682,-9.408,6.970,0.489560,-1.136913,-7.007308,100047.91,-88,+286,+7
128835,22.192,-11.002,6.338,-0.325633,-1.189060,-6.842354,100047.54,-64,+299,+5
128844,20.755,-8.831,7.000,-0.613504,-1.049115,-6.664629,100049.38,-40,+308,+5
128855,19.077,-8.699,9.771,-0.602330,-0.673445,-6.287896,100047.23,-40,+308,+5
128865,18.266,-9.876,10.636,-0.466110,-0.318528,-5.705235,100047.23,-18,+316,+6
128875,18.351,-12.465,9.354,-0.267633,0.059802,-4.971456,100050.35,+0,+322,+6
128885,16.807,-15.293,6.767,-0.192605,0.302976,-4.158925,100049.62,+15,+326,+7
128894,14.052,-18.862,4.447,-0.043614,0.390774,-3.313935,100048.66,+15,+326,+7
128905,10.946,-23.557,4.222,0.143688,0.475912,-2.356669,100047.09,+27,+327,+8
128915,8.638,-27.602,5.647,0.357064,0.594572,-1.090248,100047.09,+32,+328,+6
128925,9.080,-25.301,6.955,0.527871,0.614793,0.243751,100049.07,+31,+327,+5
128934,11.373,-18.478,8.053,0.865761,0.724407,1.455365,100048.34,+31,+327,+5
128945,15.323,-5.672,4.893,1.183431,0.961728,2.207236,100047.18,+23,+326,+1
128955,12.804,15.587,-4.567,0.871614,0.727068,1.646925,100048.71,+15,+326,-1
128965,13.025,36.104,-9.414,-0.253266,0.442389,0.070816,100048.71,+15,+325,+0
128975,10.971,5.224,-4.512,0.069725,0.614793,1.001476,100051.34,+15,+325,+0
128980,13.678,-19.235,0.975,2.633962,1.028774,2.230117,100050.34,+9,+324,-4
128990,19.658,-13.791,-2.625,3.959447,1.063361,1.994925,100050.34,+1,+321,-15
129000,22.806,-1.788,-4.635,1.346256,0.932994,1.779420,100050.07,+1,+321,-15
129010,17.397,-5.375,-4.503,-0.481541,1.034627,2.339732,100048.80,-6,+319,-13
129020,15.180,-4.401,-2.412,-0.487394,1.165526,2.195530,100048.80,-15,+317,-11
129030,13.647,-0.832,2.952,-0.711412,1.177233,1.907658,100051.76,-23,+315,-7
129040,10.013,2.130,10.498,-0.369798,1.235232,1.715567,100046.80,-23,+315,-7
129050,10.432,3.993,14.455,0.636954,1.315581,1.550081,100045.29,-29,+314,-5
129060,13.610,2.990,6.295,1.734164,1.099545,1.566576,100045.29,-35,+311,-10
129070,11.117,-3.353,1.131,1.651155,0.954811,1.675659,100045.29,-41,+309,-14
129080,9.742,-4.888,0.837,0.911523,0.858499,1.504851,100049.77,-41,+309,-14
129090,10.368,-2.543,1.160,0.181468,0.640866,1.301585,100051.98,-46,+306,-14
129100,10.674,0.682,1.336,-0.338935,0.521673,1.144081,100050.93,-50,+305,-13
129110,10.018,3.094,0.420,-0.583706,0.511563,1.145145,100048.51,-55,+303,-10
129120,9.392,3.573,0.582,-0.412366,0.523802,1.232943,100048.51,-55,+303,-10
129130,9.948,3.289,0.484,0.048441,0.552536,1.257420,100050.78,-60,+302,-8
129140,10.273,2.658,0.990,0.404422,0.624903,1.322870,100048.97,-64,+299,-9
129150,9.688,1.786,1.876,0.454972,0.657361,1.388851,100051.63,-69,+298,-8
129160,8.961,1.307,2.284,0.255963,0.605747,1.388319,100051.63,-69,+298,-8
129170,9.049,1.204,2.455,-0.075009,0.512095,1.378741,100048.80,-73,+294,-9
129180,9.312,1.496,2.496,-0.387357,0.420040,1.359585,100048.80,-78,+292,-6
129190,8.979,1.905,2.029,-0.667779,0.354059,1.391512,100049.27,-84,+290,-3
129200,9.444,3.136,1.961,-0.709284,0.358848,1.381402,100050.80,-84,+290,-3
129210,9.168,2.808,0.886,-0.231981,0.408866,1.388851,100049.23,-88,+288,-1
129220,9.518,1.763,0.481,0.118147,0.476444,1.450044,100049.23,-92,+284,-1
129230,9.875,0.730,0.516,0.288954,0.539765,1.514961,100050.88,-98,+282,-1
129241,9.768,-0.235,1.116,0.258624,0.584994,1.537310,100048.94,-98,+282,-1
129250,9.653,-0.356,2.101,0.109633,0.584462,1.508576,100047.72,-103,+277,+0
129260,9.457,-0.230,2.477,-0.059046,0.552536,1.464943,100046.55,-108,+274,+1
129270,9.549,-0.222,2.439,-0.197394,0.513160,1.423439,100050.28,-112,+271,+3
129281,10.034,-0.763,1.971,-0.308073,0.480169,1.403751,100051.91,-112,+271,+3
129290,10.286,-1.316,1.586,-0.444293,0.469527,1.377145,100051.91,-116,+268,+5
129300,10.303,-1.239,1.503,-0.616165,0.472719,1.335108,100046.91,-121,+265,+7
129310,10.065,-0.699,1.740,-0.750788,0.488150,1.289347,100049.13,-125,+263,+11
129320,9.910,-0.399,2.054,-0.822091,0.487618,1.271255,100049.13,-125,+263,+11
129330,9.958,-0.286,2.100,-0.837522,0.480169,1.275512,100052.93,-128,+259,+15
129340,9.855,0.144,2.254,-0.824219,0.487086,1.298925,100052.15,-132,+255,+17
129350,9.837,0.289,2.366,-0.734293,0.480701,1.349475,100051.93,-136,+252,+21
129360,10.011,-0.210,2.204,-0.600201,0.464738,1.402154,100049.93,-140,+248,+23
129371,10.180,-0.863,1.921,-0.539541,0.457288,1.452173,100049.93,-140,+248,+23
129380,10.320,-0.966,2.160,-0.541669,0.476444,1.484631,100051.21,-143,+245,+25
129390,10.401,-0.984,2.581,-0.562954,0.481765,1.505916,100049.02,-147,+240,+28
129400,10.699,-1.047,2.515,-0.553908,0.471123,1.535714,100050.60,-151,+235,+31
129410,10.926,-1.644,2.331,-0.562954,0.455692,1.574026,100050.60,-151,+235,+31
129420,11.029,-1.740,2.112,-0.644366,0.448242,1.622980,100050.60,-156,+230,+33
129430,10.968,-1.430,1.651,-0.711412,0.440260,1.687365,100053.99,-160,+225,+36
129440,11.305,-1.341,0.861,-0.671504,0.397692,1.771971,100048.32,-164,+221,+39
129451,12.239,-1.379,0.755,-0.574660,0.348383,1.901273,100048.90,-164,+221,+39
129460,12.617,-1.156,1.103,-0.458660,0.321068,2.030044,100048.90,-169,+214,+42
129470,13.048,-1.328,1.337,-0.372990,0.299784,2.171053,100048.90,-174,+206,+43
129480,13.471,-1.382,1.201,-0.345853,0.287013,2.321640,100052.86,-178,+200,+45
129490,13.412,-0.963,1.263,-0.303816,0.260407,2.484465,100051.50,-178,+200,+45
129501,13.633,-0.628,1.171,-0.226660,0.221563,2.658998,100050.50,-183,+192,+46
129510,14.184,-0.363,1.171,-0.190477,0.206132,2.856942,100050.50,-189,+182,+47
129520,14.951,0.173,1.465,-0.215486,0.196554,3.073511,100051.89,-194,+172,+49
129530,16.566,0.959,1.640,-0.318183,0.161967,3.283162,100051.89,-194,+172,+49
129541,19.077,1.330,2.186,-0.466642,0.058206,3.467804,100047.69,-201,+160,+50
129550,20.815,2.190,2.332,-0.699174,-0.005115,3.584336,100049.16,-206,+148,+52
129560,21.384,3.756,0.671,-1.251503,0.099710,3.598171,100049.89,-211,+134,+53
129570,22.111,6.389,-1.096,-2.023595,0.159839,3.493345,100049.89,-211,+134,+53
129581,23.482,10.104,-2.693,-2.727044,0.059270,3.370428,100051.72,-215,+122,+58
129591,21.649,14.659,-2.641,-3.169759,-0.027464,3.208667,100051.14,-218,+108,+59
129600,17.307,13.609,0.677,-2.473228,-0.064180,3.057548,100049.25,-220,+96,+62
129610,19.729,1.213,4.330,-0.650752,-0.044491,3.780153,100050.01,-220,+96,+62
129620,21.200,-7.853,6.180,0.498605,-0.045556,4.854483,100050.96,-223,+80,+62
129631,19.676,-7.488,7.621,0.807229,-0.110473,4.867253,100048.79,-225,+62,+62
129640,20.507,-2.794,6.498,1.037101,-0.126436,4.296299,100048.21,-226,+47,+62
129650,18.929,3.032,6.299,1.375522,0.032132,3.625841,100048.21,-226,+47,+62
129660,12.665,5.597,4.508,1.635192,-0.183904,2.976135,100047.79,-226,+36,+63
129670,8.972,6.661,2.797,1.393082,-0.529776,2.429126,100047.79,-226,+28,+60
129680,3.507,-0.787,5.770,1.312733,-0.550528,2.395071,100049.75,-226,+20,+60
129686,3.299,-6.963,5.883,1.584642,-0.679298,2.131145,100047.91,-226,+20,+60
129695,7.227,-5.925,2.900,1.695320,-0.933115,1.466540,100050.81,-226,+16,+57
129705,7.292,-1.540,2.117,1.189284,-1.050179,0.460852,100050.02,-226,+16,+55
129715,5.215,1.820,2.105,0.587468,-1.182674,0.009091,100050.02,-226,+16,+55
129725,3.463,3.019,1.995,0.244257,-1.365720,-0.292083,100052.35,-226,+17,+50
129735,2.542,2.982,1.957,0.202220,-1.520032,-0.594854,100052.30,-228,+19,+45
129745,2.254,1.868,1.857,0.414532,-1.666362,-0.922633,100048.20,-228,+23,+39
129756,2.423,0.688,2.039,0.644404,-1.778105,-1.293514,100049.62,-228,+23,+39
129765,2.715,0.067,2.238,0.708789,-1.906343,-1.722926,100049.62,-229,+30,+33
129775,2.992,0.022,2.457,0.635890,-2.031921,-2.125733,100051.02,-229,+38,+26
129785,3.159,0.446,2.696,0.558734,-2.129297,-2.524284,100048.28,-229,+48,+18
129796,3.399,0.932,2.917,0.532128,-2.199004,-2.921770,100048.13,-229,+48,+18
129805,4.100,1.095,3.152,0.603431,-2.251683,-3.301164,100047.28,-228,+60,+10
129815,4.946,0.805,3.471,0.711981,-2.287334,-3.646503,100047.28,-226,+74,+2
129825,5.515,0.122,3.897,0.801908,-2.291591,-3.939696,100046.86,-222,+90,-6
129836,5.790,-0.684,4.329,0.816807,-2.277756,-4.206283,100046.02,-222,+90,-6
129846,5.964,-1.006,4.494,0.758275,-2.266050,-4.481383,100042.91,-218,+105,-15
129855,6.267,-0.866,4.517,0.672605,-2.230930,-4.769787,100045.97,-213,+122,-23
129865,6.798,-0.455,4.638,0.605560,-2.174527,-5.056062,100045.97,-204,+140,-31
129875,7.644,0.039,4.723,0.624715,-2.116527,-5.338612,100046.96,-204,+140,-31
129886,8.852,0.287,4.815,0.734862,-2.049481,-5.596153,100045.43,-195,+160,-39
129895,10.134,-0.035,4.944,0.909926,-1.950509,-5.819639,100043.80,-182,+178,-47
129905,11.290,-0.746,4.965,1.094036,-1.841958,-6.014924,100047.74,-167,+196,-55
129915,12.434,-1.515,5.078,1.183431,-1.746179,-6.192648,100047.74,-167,+196,-55
129926,13.580,-2.023,5.225,1.148844,-1.667426,-6.390593,100047.21,-152,+213,-63
129935,14.925,-2.192,5.514,1.039761,-1.601977,-6.610887,100045.43,-133,+230,-70
129945,16.468,-2.351,6.129,0.943449,-1.540784,-6.822134,100044.16,-113,+246,-75
129955,18.429,-3.149,6.949,0.804036,-1.460436,-7.022739,100044.38,-113,+246,-75
129966,20.524,-4.487,8.012,0.489560,-1.344436,-7.160556,100044.38,-90,+260,-80
129976,21.925,-6.206,9.321,0.047908,-1.145427,-7.185565,100048.13,-67,+274,-84
129985,22.032,-7.912,10.750,-0.470366,-0.838931,-7.062647,100045.97,-43,+285,-84
129995,20.714,-10.146,12.163,-0.903504,-0.413244,-6.822134,100043.97,-43,+285,-84
130006,19.356,-13.178,10.769,-1.284494,0.060334,-6.488501,100047.55,-19,+296,-82
130016,19.824,-17.547,7.332,-2.274218,0.215710,-5.863272,100047.55,+1,+304,-76
130025,18.412,-14.574,4.585,-2.358824,0.209857,-5.068832,100049.79,+18,+311,-68
130035,17.008,-14.067,5.698,-1.400494,0.365765,-4.262686,100050.05,+32,+311,-68
130045,14.074,-20.455,7.640,-0.239431,0.562646,-3.236779,100049.32,+32,+314,-65
130056,9.802,-27.807,8.693,0.459229,0.803159,-2.002284,100048.43,+40,+315,-66
130065,7.175,-28.855,7.015,0.945046,0.932462,-0.498542,100048.43,+42,+315,-69
130075,8.646,-25.139,5.065,1.732568,1.033031,1.076503,100051.98,+34,+312,-76
130085,13.898,-19.097,4.530,2.382274,1.213948,2.266833,100048.09,+34,+312,-76
130096,17.682,6.374,-9.901,2.254036,1.009086,2.343988,100049.56,+23,+307,-83
130106,14.863,45.942,-15.787,1.130752,0.524866,0.474687,100050.25,+20,+304,-86
130115,9.572,29.003,-8.303,0.450716,0.438132,0.036228,100050.25,+18,+304,-89
130125,14.568,-20.021,-0.572,3.726383,1.058040,1.879989,100051.17,+18,+304,-89
130136,20.744,-16.121,-4.792,5.148180,1.327287,2.182227,100053.59,+9,+293,-105
130146,21.417,-4.383,-7.380,0.941321,0.937783,2.017273,100052.64,+0,+288,-107
130155,18.508,-7.341,-4.928,-0.716201,1.086242,2.769144,100051.59,-11,+287,-104
130165,16.304,-2.713,-1.044,-0.886476,1.270352,2.348245,100051.59,-11,+287,-104
130176,11.528,-0.437,8.370,-0.963100,1.292168,2.067291,100050.41,-20,+287,-99
130186,9.794,2.809,20.183,-0.127688,1.434242,1.787402,100047.52,-29,+286,-97
130195,14.434,4.958,13.022,1.199394,1.278865,1.723016,100050.15,-35,+281,-100
130205,13.504,-0.641,2.473,1.997559,1.055912,1.875732,100044.41,-35,+281,-100
130215,9.495,-6.897,-0.449,1.514403,1.020792,1.683108,100044.41,-44,+275,-104
130226,10.771,-6.872,0.734,0.584807,0.773361,1.509108,100051.72,-51,+271,-104
130236,11.804,-2.887,0.954,-0.150568,0.467398,1.248907,100050.20,-54,+271,-104
130245,11.991,1.482,0.831,-0.653944,0.380664,1.065861,100049.14,-54,+271,-104
130255,9.664,4.176,0.976,-0.817834,0.395031,1.119072,100048.05,-58,+270,-100
130266,8.808,4.653,0.518,-0.503357,0.384921,1.216980,100048.05,-63,+269,-99
130276,10.462,3.533,0.218,-0.014880,0.435472,1.329787,100052.89,-67,+268,-97
130285,10.527,2.365,1.541,0.159119,0.486022,1.443127,100051.95,-67,+268,-97
130295,9.392,1.612,2.932,-0.014348,0.440793,1.467072,100049.06,-73,+264,-97
130306,8.701,2.079,3.388,-0.375119,0.326921,1.429292,100048.00,-77,+262,-95
130316,8.667,2.705,3.007,-0.686935,0.242848,1.340429,100048.00,-82,+261,-94
130326,8.795,2.566,2.246,-1.005137,0.214646,1.321806,100051.38,-82,+261,-94
130335,9.149,2.860,1.360,-0.826880,0.218371,1.260613,100048.55,-86,+260,-90
130345,9.418,2.060,0.286,-0.388954,0.267857,1.270723,100049.38,-90,+258,-88
130356,9.942,0.841,-0.112,-0.115449,0.306701,1.340962,100047.18,-94,+256,-87
130366,10.045,0.386,0.393,-0.005835,0.362040,1.369163,100047.18,-94,+256,-87
130375,9.599,0.094,1.152,-0.028183,0.400884,1.349475,100051.98,-99,+254,-86
130385,9.164,0.094,1.724,-0.105871,0.409930,1.300521,100049.92,-103,+250,-86
130396,8.986,0.446,2.051,-0.160146,0.401949,1.258485,100048.56,-106,+248,-85
130406,9.162,0.592,2.272,-0.146312,0.380132,1.246778,100047.77,-106,+248,-85
130415,9.381,0.256,2.279,-0.095229,0.364701,1.249439,100047.77,-111,+246,-84
130425,9.548,0.184,2.212,-0.066495,0.362040,1.248907,100050.57,-115,+242,-82
130436,9.489,0.141,2.023,-0.065963,0.375875,1.246246,100049.52,-119,+240,-82
130446,9.606,-0.562,1.683,-0.137798,0.373215,1.251567,100048.57,-119,+240,-82
130455,9.976,-0.647,1.315,-0.238367,0.368426,1.259549,100046.63,-123,+237,-79
130465,10.374,-0.892,1.067,-0.352238,0.365233,1.270723,100046.63,-126,+234,-78
130476,10.456,-0.755,1.221,-0.437908,0.364169,1.285090,100051.58,-130,+232,-76
130486,10.296,-0.266,1.544,-0.473559,0.378536,1.303714,100050.75,-134,+232,-76
130496,9.973,0.112,1.866,-0.477284,0.397160,1.342026,100051.00,-134,+228,-73
130505,9.742,0.261,1.938,-0.455999,0.403013,1.402154,100048.95,-138,+226,-72
130515,9.623,0.101,1.804,-0.408642,0.402481,1.478246,100048.95,-143,+223,-70
130526,9.780,-0.102,1.729,-0.354899,0.397160,1.560723,100052.61,-147,+219,-68
130536,10.085,-0.375,1.783,-0.299559,0.388646,1.642136,100050.39,-147,+219,-68
130545,10.223,-0.916,1.734,-0.240495,0.380664,1.720356,100047.77,-152,+214,-66
130555,10.359,-1.148,1.805,-0.230917,0.381728,1.771971,100050.66,-156,+210,-64
130566,10.539,-1.455,2.015,-0.231449,0.367361,1.821457,100050.66,-161,+205,-63
130576,10.865,-1.893,1.886,-0.230917,0.335967,1.860833,100050.87,-161,+205,-63
130586,11.161,-1.842,1.663,-0.258587,0.286481,1.912447,100049.51,-164,+200,-62
130595,11.700,-1.822,1.905,-0.260715,0.241784,1.962998,100048.09,-169,+194,-60
130606,11.973,-1.800,1.641,-0.219211,0.204536,2.020998,100047.51,-173,+188,-60
130616,12.227,-1.818,1.547,-0.216018,0.179527,2.086979,100047.51,-173,+188,-60
130626,12.707,-1.713,1.334,-0.180367,0.131637,2.172117,100047.13,-178,+182,-58
130635,12.963,-1.667,1.115,-0.119174,0.099178,2.273750,100048.55,-182,+174,-58
130646,12.927,-1.425,1.058,-0.075541,0.076830,2.405713,100050.28,-187,+166,-57
130656,13.052,-1.266,1.003,-0.036165,0.040114,2.556832,100048.17,-187,+166,-57
130666,13.550,-0.737,1.432,-0.009027,-0.016822,2.720190,100048.17,-190,+158,-56
130675,14.343,-0.111,2.081,0.005872,-0.084932,2.899511,100047.77,-195,+148,-57
130685,15.831,0.186,2.737,-0.004770,-0.166877,3.074575,100050.50,-200,+137,-57
130696,17.724,0.365,3.256,-0.176642,-0.227005,3.225162,100048.56,-200,+137,-57
130706,19.272,0.204,2.388,-0.548587,-0.199335,3.332648,100046.41,-203,+128,-56
130715,21.559,3.033,0.254,-1.242990,-0.166345,3.371492,100046.41,-207,+117,-55
130725,24.331,8.355,-0.085,-1.802237,-0.238179,3.390648,100053.38,-209,+108,-54
130736,24.926,13.365,-0.692,-1.870347,-0.298308,3.555602,100049.16,-209,+108,-54
130742,24.116,14.688,-1.056,-1.995393,-0.239776,3.746630,100050.53,-212,+98,-53
130751,22.637,14.668,-1.120,-2.264641,-0.232326,3.856244,100050.53,-215,+86,-53
130761,19.192,12.320,1.811,-2.272090,-0.306289,3.841345,100051.31,-215,+86,-53
130770,19.913,-0.265,3.934,-1.018439,-0.396216,4.519785,100051.31,-217,+73,-53
130781,20.459,-10.116,6.964,0.052697,-0.468583,5.475987,100050.43,-217,+54,-54
130791,20.320,-7.835,8.604,0.898220,-0.428675,5.210996,100049.35,-217,+34,-54
130801,20.945,-0.689,8.169,2.157724,-0.211042,4.296299,100049.59,-217,+34,-54
130810,17.506,3.584,5.884,2.981430,0.135894,3.410336,100049.59,-217,+18,-53
130821,8.625,5.383,3.527,2.782421,-0.180179,2.663786,100049.59,-215,+6,-52
130831,4.978,0.161,2.374,2.287026,-0.416968,2.358887,100052.18,-214,-5,-52
130841,5.005,-8.454,4.139,2.068861,-0.642051,2.205640,100049.98,-214,-5,-52
130850,8.072,-6.282,0.625,1.731504,-1.019849,1.388319,100050.87,-211,-13,-53
130861,7.709,-0.346,1.087,0.726881,-1.212472,0.464577,100051.91,-211,-15,-56
130871,5.437,4.167,1.894,0.202752,-1.350821,0.052724,100051.91,-209,-15,-60
130881,3.079,5.651,2.199,0.129853,-1.474802,-0.316028,100052.97,-209,-15,-60
130891,1.637,4.836,2.320,0.348018,-1.605169,-0.652322,100052.44,-206,-14,-64
130900,0.959,2.940,2.224,0.609284,-1.746179,-1.000853,100051.78,-204,-10,-70
130911,1.369,1.468,2.293,0.808825,-1.881866,-1.462725,100051.78,-204,-6,-75
130921,2.387,0.548,2.296,0.863101,-2.021811,-1.895862,100049.23,-204,-6,-75
130931,2.970,0.408,2.518,0.836495,-2.142068,-2.275256,100048.07,-201,+0,-82
130940,3.366,0.860,2.645,0.813082,-2.249554,-2.637623,100048.07,-198,+8,-89
130951,3.973,1.343,2.882,0.851926,-2.334692,-2.989348,100044.76,-195,+16,-95
130961,4.684,1.525,3.250,0.970587,-2.408655,-3.335751,100044.80,-195,+16,-95
130971,5.403,1.435,3.706,1.139266,-2.456013,-3.661402,100044.80,-191,+26,-103
130976,5.818,1.211,4.156,1.260055,-2.463995,-3.872118,100048.23,-187,+37,-110
130985,5.984,0.528,4.495,1.297834,-2.454417,-4.064209,100044.43,-187,+37,-110
130996,5.960,-0.190,4.890,1.237174,-2.435793,-4.315897,100046.49,-183,+48,-117
131006,6.007,-0.269,5.351,1.170128,-2.395352,-4.586209,100042.65,-176,+60,-125
131016,6.508,-0.053,5.641,1.200458,-2.328839,-4.883126,100042.65,-169,+73,-132
131025,7.334,0.149,6.083,1.216954,-2.246894,-5.166740,100043.28,-169,+73,-132
131036,8.482,0.330,6.468,1.228660,-2.166013,-5.436520,100047.48,-161,+85,-139
131046,9.495,0.269,6.588,1.246220,-2.071830,-5.690868,100042.70,-151,+98,-146
131056,10.564,-0.065,6.484,1.229192,-1.968068,-5.949474,100041.70,-141,+112,-152
131065,11.772,-0.626,6.266,1.172256,-1.857921,-6.195841,100041.70,-141,+112,-152
131076,13.097,-1.434,6.462,1.096165,-1.732876,-6.437951,100047.46,-129,+126,-157
131086,14.553,-2.509,6.769,0.980165,-1.612619,-6.688042,100044.88,-117,+138,-163
131096,16.201,-3.861,6.924,0.766789,-1.516307,-6.950372,100045.20,-103,+153,-167
131106,18.149,-5.317,7.115,0.393248,-1.426913,-7.210042,100044.04,-103,+153,-167
131116,19.959,-6.535,7.984,-0.023926,-1.297610,-7.402133,100044.04,-87,+168,-169
131126,21.266,-7.391,9.200,-0.434715,-1.056564,-7.446299,100046.41,-69,+182,-172
131136,22.229,-8.648,10.711,-0.848164,-0.676638,-7.353712,100047.36,-54,+196,-171
131146,21.983,-12.700,9.074,-1.345687,-0.210510,-7.074886,100044.47,-54,+196,-171
131155,19.212,-16.613,6.575,-2.366806,-0.127501,-6.584281,100046.63,-38,+211,-168
131166,18.689,-11.993,4.601,-2.334879,-0.082271,-5.988318,100046.63,-23,+226,-164
131176,21.146,-10.456,4.905,-1.257357,0.155050,-5.130557,100048.49,-11,+233,-161
131186,19.356,-14.969,6.297,0.104312,0.397160,-4.023769,100049.76,-11,+233,-161
131195,14.365,-23.235,7.039,1.114257,0.587655,-2.913256,100047.34,-3,+235,-163
131206,9.289,-29.406,7.478,1.508018,0.726003,-1.719202,100048.45,+0,+232,-166
131212,7.170,-31.367,6.623,1.709155,0.829765,-0.643276,100048.45,+0,+232,-166
131221,7.788,-30.333,5.986,1.867724,0.912242,0.501292,100048.45,-3,+228,-168
131231,15.538,-20.523,4.279,1.845375,1.000040,1.794319,100050.05,-10,+222,-171
131241,15.422,2.326,-6.558,1.492586,0.770701,2.129016,100047.89,-16,+215,-174
131251,15.545,38.278,-11.579,0.525211,0.377472,0.597604,100048.89,-16,+215,-174
131261,10.533,24.192,-7.803,-1.095595,0.273710,0.075072,100048.48,-16,+218,-172
131271,13.997,-16.215,-0.938,1.742146,0.745159,1.818796,100048.55,-23,+212,-174
131281,21.469,-10.838,-4.053,3.632200,0.937783,2.138062,100048.23,-30,+201,-179
131291,20.787,-2.609,-4.786,0.362385,0.765912,1.872539,100048.23,-30,+201,-179
131301,17.334,-5.593,-2.076,-0.704495,0.951086,2.475952,100050.44,-37,+199,-176
131311,15.736,-0.962,0.653,-0.479944,1.102737,2.121567,100049.70,-45,+198,-175
131321,11.786,0.915,6.238,-0.291045,1.175636,1.897548,100049.70,-51,+196,-172
131326,9.160,1.087,9.967,0.176679,1.219269,1.742704,100049.82,-51,+196,-172
131336,10.015,2.047,13.123,0.776899,1.253856,1.559659,100045.02,-58,+192,-172
131346,13.636,1.744,8.455,1.603797,1.125618,1.508044,100048.93,-58,+192,-172
131356,13.562,-1.089,1.990,2.027889,0.962792,1.535714,100047.93,-66,+184,-173
131365,10.092,-3.962,0.566,1.631999,0.951086,1.425567,100047.93,-70,+176,-175
131376,9.055,-3.611,0.979,0.923761,0.789325,1.274980,100048.64,-75,+171,-175
131386,10.318,-0.164,1.337,0.382606,0.604150,1.063732,100048.11,-79,+171,-174
131396,10.674,3.065,1.256,0.014918,0.550939,1.008393,100050.06,-79,+168,-174
131406,8.839,4.504,1.098,-0.173981,0.547747,1.156319,100044.33,-81,+167,-173
131416,8.882,4.930,0.899,0.060679,0.566903,1.255824,100044.33,-86,+165,-172
131426,9.663,4.071,1.074,0.441670,0.635013,1.359053,100050.90,-90,+161,-171
131436,9.922,2.413,1.761,0.598642,0.681306,1.481971,100047.96,-90,+161,-171
131446,9.656,0.961,2.482,0.438477,0.639270,1.533053,100047.96,-94,+156,-171
131456,9.447,0.832,2.258,0.141028,0.548279,1.516026,100049.21,-98,+152,-170
131466,9.211,1.052,1.975,-0.206972,0.453031,1.495273,100049.21,-102,+150,-169
131476,9.375,1.066,1.537,-0.410770,0.379068,1.469200,100047.77,-102,+150,-169
131486,9.723,0.972,1.406,-0.486862,0.342352,1.442595,100049.61,-104,+148,-167
131496,9.964,1.212,1.180,-0.511871,0.317875,1.437806,100048.50,-107,+146,-166
131506,9.859,1.512,0.720,-0.439504,0.333306,1.452173,100047.19,-111,+144,-165
131516,9.615,1.521,0.255,-0.250605,0.385453,1.471328,100047.19,-111,+144,-165
131526,9.503,1.369,0.538,-0.020734,0.457288,1.485163,100051.20,-114,+142,-163
131536,9.506,0.735,1.143,0.130386,0.511031,1.508044,100047.62,-117,+138,-162
131546,9.375,0.009,1.802,0.149009,0.522205,1.501127,100047.51,-121,+134,-161
131556,9.408,-0.425,2.199,0.062275,0.495600,1.466007,100044.55,-121,+134,-161
131566,9.606,-1.255,2.088,-0.310201,0.461013,1.456429,100044.55,-123,+132,-159
131576,9.926,-0.881,2.173,-0.470899,0.443453,1.339365,100047.44,-126,+129,-159
131587,9.751,-0.482,1.851,-0.522513,0.438132,1.272319,100047.91,-129,+127,-157
131596,9.853,-0.041,1.869,-0.587431,0.440260,1.251035,100047.27,-129,+127,-157
131606,9.992,0.025,1.951,-0.545394,0.437068,1.259017,100046.28,-131,+126,-156
131616,9.895,0.148,2.099,-0.519320,0.439196,1.277640,100046.28,-134,+124,-154
131627,9.635,0.312,2.133,-0.491651,0.438664,1.306907,100048.55,-137,+122,-152
131636,9.664,0.307,2.132,-0.458128,0.440793,1.349475,100048.24,-137,+122,-152
131646,9.891,0.210,1.984,-0.427266,0.435472,1.405879,100046.71,-139,+120,-151
131656,10.131,-0.017,2.071,-0.360220,0.437600,1.466540,100047.82,-142,+118,-150
131666,10.306,-0.515,1.929,-0.309669,0.435472,1.520283,100047.82,-144,+113,-148
131676,10.310,-0.786,1.878,-0.292110,0.444517,1.567640,100048.39,-144,+113,-148
131686,10.286,-0.957,2.257,-0.293174,0.458352,1.607549,100049.23,-147,+110,-146
131696,10.363,-1.019,2.445,-0.304348,0.463141,1.625640,100045.08,-150,+106,-146
131706,10.310,-1.567,2.194,-0.343192,0.449306,1.667677,100044.33,-152,+102,-144
131716,10.659,-1.828,1.763,-0.441100,0.430683,1.699604,100044.33,-152,+102,-144
131726,10.760,-1.602,1.781,-0.512935,0.414719,1.754943,100050.56,-154,+99,-142
131736,11.299,-1.553,2.130,-0.539541,0.392903,1.825714,100047.23,-157,+94,-141
131746,11.731,-1.451,2.309,-0.543798,0.362572,1.942246,100044.66,-159,+91,-139
131757,12.368,-1.746,1.712,-0.560825,0.343949,2.026851,100048.77,-159,+91,-139
131766,13.048,-1.806,1.055,-0.567743,0.322664,2.127952,100048.77,-161,+86,-137
131776,13.048,-1.764,0.811,-0.513999,0.302976,2.249805,100050.99,-163,+80,-136
131786,13.183,-1.956,0.513,-0.409706,0.270517,2.389218,100047.46,-165,+75,-135
131796,13.503,-1.745,0.473,-0.326165,0.232206,2.535016,100050.93,-165,+75,-135
131806,14.017,-1.399,0.709,-0.245816,0.186976,2.701034,100046.57,-167,+68,-134
131816,14.692,-0.685,1.323,-0.206440,0.140683,2.868649,100046.57,-168,+61,-134
131826,15.841,-0.085,2.107,-0.134073,0.062995,3.017107,100051.58,-170,+52,-133
131836,17.328,0.319,2.919,-0.117046,-0.008840,3.160777,100049.22,-169,+43,-134
131847,18.530,0.681,3.195,-0.348513,0.018297,3.265070,100046.58,-169,+43,-134
131856,19.801,0.783,2.740,-0.818898,0.067252,3.338502,100047.69,-169,+34,-132
131866,23.646,5.333,2.141,-1.661760,-0.001923,3.361382,100047.69,-169,+28,-132
131876,26.978,12.988,2.855,-2.346585,-0.059391,3.408740,100049.70,-167,+24,-132
131887,26.579,16.198,0.094,-2.534952,-0.056198,3.614666,100047.54,-167,+24,-132
131896,23.644,15.166,-1.236,-2.969154,0.011380,3.773767,100046.80,-167,+19,-132
131906,18.296,10.819,-0.422,-2.739282,-0.146657,3.657768,100047.85,-165,+16,-134
131916,18.209,-4.246,0.529,-1.558531,-0.345666,4.351639,100047.85,-162,+6,-135
131927,19.390,-11.295,6.093,-1.095595,-0.565427,4.972611,100047.23,-162,+6,-135
131936,20.961,-5.713,9.609,0.514037,-0.603207,4.682611,100045.65,-158,-6,-136
131946,21.084,1.716,7.154,2.288623,-0.254143,4.099951,100048.59,-154,-22,-134
131956,14.360,6.609,6.101,2.844677,0.222096,3.391713,100046.32,-152,-37,-131
131966,6.166,8.128,2.910,2.491889,-0.045024,2.632924,100046.32,-152,-37,-131
131977,3.349,1.090,2.022,2.166770,-0.172730,2.194998,100050.73,-149,-48,-128
131986,2.339,-6.927,3.830,2.169430,-0.406858,1.738448,100046.15,-147,-58,-125
131996,6.784,-5.338,0.226,2.037467,-0.814986,0.849292,100045.82,-144,-64,-125
132006,6.129,0.605,0.478,1.105211,-0.900124,-0.193643,100044.41,-144,-64,-125
132017,3.423,4.891,1.192,0.410275,-0.995372,-0.767257,100044.41,-142,-64,-126
132026,1.465,5.986,1.183,0.191578,-1.138509,-1.165807,100047.94,-143,-61,-127
132032,0.775,5.042,1.367,0.275651,-1.222050,-1.412706,100044.45,-143,-61,-127
132041,0.664,3.311,1.507,0.500734,-1.334326,-1.641514,100044.45,-141,-58,-130
132051,0.687,1.212,1.596,0.830110,-1.478527,-1.970890,100044.30,-140,-55,-132
132062,1.115,0.180,1.833,0.972183,-1.582821,-2.364119,100042.09,-139,-50,-134
132071,2.020,0.166,2.034,0.943449,-1.713188,-2.792999,100042.09,-139,-50,-134
132081,2.833,0.889,2.153,0.851394,-1.840362,-3.193146,100043.85,-138,-44,-138
132091,3.536,1.940,2.117,0.836495,-1.944123,-3.560833,100042.63,-138,-38,-141
132102,4.403,2.275,2.306,1.007835,-2.017554,-3.900320,100041.95,-137,-30,-145
132111,5.388,1.448,2.491,1.262183,-2.062784,-4.205218,100041.95,-137,-30,-145
132121,6.129,0.094,2.746,1.401064,-2.103756,-4.447860,100041.95,-136,-22,-149
132131,6.560,-0.802,3.040,1.394146,-2.153242,-4.648466,100046.19,-134,-14,-154
132142,7.114,-0.910,3.290,1.344660,-2.190490,-4.848539,100045.61,-131,-6,-157
132152,7.892,-0.555,3.462,1.337743,-2.195279,-5.062447,100040.66,-131,-6,-157
132161,8.946,-0.278,3.587,1.373394,-2.180380,-5.293383,100041.56,-128,+3,-161
132171,10.169,-0.382,3.805,1.392550,-2.164417,-5.506227,100041.56,-125,+12,-165
132182,11.594,-0.723,4.279,1.419688,-2.167609,-5.696722,100044.40,-120,+23,-169
132192,13.083,-1.059,4.802,1.504293,-2.189426,-5.875511,100044.24,-120,+23,-169
132201,14.499,-1.698,5.831,1.588898,-2.178252,-6.033547,100041.05,-115,+33,-174
132211,15.961,-2.465,7.227,1.656476,-2.141536,-6.175621,100041.05,-109,+41,-179
132221,17.084,-3.211,8.364,1.739486,-2.072362,-6.301731,100040.91,-102,+50,-183
132232,18.491,-5.622,8.076,1.639449,-1.956362,-6.378887,100040.91,-102,+50,-183
132241,20.042,-7.858,6.916,1.121706,-1.935610,-6.398574,100042.96,-95,+59,-187
132251,20.920,-8.259,6.098,0.587468,-1.819610,-6.427309,100043.43,-88,+70,-191
132261,20.726,-8.580,6.712,0.138367,-1.618472,-6.299602,100042.43,-80,+82,-193
132267,18.974,-8.672,7.824,-0.167064,-1.484913,-6.097401,100042.43,-80,+82,-193
132277,17.268,-8.190,9.262,-0.442697,-1.335922,-5.885621,100048.02,-71,+94,-196
132286,16.432,-7.594,10.914,-0.713008,-1.017188,-5.597217,100045.33,-64,+94,-198
132296,16.547,-9.047,11.247,-0.932770,-0.563298,-5.215694,100046.17,-64,+106,-198
132306,15.865,-11.939,9.081,-1.236072,-0.181776,-4.749034,100045.97,-58,+118,-198
132317,13.920,-14.239,6.633,-1.607485,0.026811,-4.237145,100045.97,-53,+129,-197
132327,11.930,-14.761,5.131,-1.640476,0.151325,-3.585843,100049.12,-50,+139,-194
132336,10.847,-17.285,4.991,-1.183393,0.351930,-2.680724,100045.70,-50,+139,-194
132346,10.046,-21.511,5.278,-0.743339,0.484958,-1.513807,100047.96,-48,+144,-193
132357,9.705,-20.620,5.814,-0.294238,0.545618,-0.243661,100046.96,-49,+146,-193
132367,10.175,-16.750,6.910,0.466679,0.671728,0.934962,100046.96,-53,+143,-193
132376,13.950,-8.641,6.546,1.184495,0.917031,1.823053,100048.48,-53,+143,-193
132386,11.953,4.450,-0.562,1.514935,0.860095,1.955016,100047.27,-59,+136,-192
132397,14.917,29.615,-7.069,1.021137,0.619582,0.600797,100047.21,-62,+130,-193
132407,13.034,12.635,-6.039,0.709853,0.661086,0.754577,100048.43,-66,+126,-193
132416,13.808,-14.616,-1.925,3.011228,1.048462,2.149236,100048.43,-66,+126,-193
132426,23.299,-6.825,-5.017,3.295907,1.050058,1.827842,100050.02,-72,+110,-194
132436,21.555,-4.318,-6.060,0.286294,1.001104,2.148704,100052.18,-77,+104,-193
132447,13.876,-6.576,-4.894,-0.693320,1.175636,2.547786,100050.29,-83,+102,-191
132457,13.847,-2.907,-0.926,-0.821027,1.182554,2.238099,100048.98,-83,+102,-191
132466,12.230,0.708,6.032,-0.731100,1.173508,1.933200,100048.98,-88,+101,-187
132476,10.960,2.327,16.381,0.214459,1.357618,1.738980,100048.02,-93,+98,-186
132487,14.171,3.166,9.546,1.678293,1.265031,1.672466,100046.80,-99,+89,-184
132497,12.945,-2.472,1.494,2.067265,1.002701,1.744301,100048.07,-99,+89,-184
132502,9.390,-5.881,1.164,1.548458,0.931930,1.662888,100047.38,-102,+80,-183
132511,10.138,-4.275,2.181,0.916312,0.818591,1.489952,100047.38,-105,+74,-181
132521,10.252,-3.094,1.762,0.137835,0.600426,1.303182,100047.38,-105,+74,-181
132532,10.333,0.234,1.195,-0.507614,0.457820,1.071714,100047.32,-108,+74,-181
132542,9.837,3.950,1.239,-0.687999,0.453031,1.038191,100049.79,-109,+73,-181
132551,9.179,4.033,0.502,-0.343192,0.447710,1.092466,100047.85,-110,+71,-179
132561,10.285,2.511,-0.002,0.116019,0.475380,1.154191,100047.85,-110,+71,-179
132572,10.969,1.862,0.468,0.353872,0.531251,1.248374,100052.13,-114,+67,-178
132582,9.735,0.677,1.206,0.225101,0.550939,1.354264,100052.13,-115,+64,-177
132591,9.477,0.919,2.720,-0.255394,0.505710,1.334576,100050.13,-117,+62,-175
132601,9.209,1.393,2.964,-0.360220,0.422169,1.168026,100048.87,-117,+62,-175
132612,9.119,2.055,3.002,-0.634256,0.318939,1.151531,100048.71,-119,+61,-175
132622,9.014,2.953,2.495,-0.733229,0.248169,1.179732,100048.71,-120,+60,-173
132632,9.185,3.050,1.614,-0.622550,0.245508,1.237200,100050.07,-121,+59,-174
132641,9.421,2.651,0.885,-0.409174,0.285417,1.315420,100045.98,-121,+59,-174
132652,9.650,1.886,0.583,-0.178238,0.349802,1.397897,100047.07,-122,+56,-172
132662,9.831,0.724,0.941,-0.052660,0.401416,1.447384,100048.06,-124,+54,-172
132672,9.748,0.249,1.651,-0.122367,0.417912,1.446851,100048.17,-124,+50,-170
132681,9.507,0.150,2.014,-0.246880,0.410994,1.414393,100047.86,-124,+50,-170
132691,9.476,-0.066,2.323,-0.341064,0.388114,1.371292,100048.28,-126,+48,-169
132702,9.520,-0.128,2.355,-0.391614,0.353527,1.322338,100048.28,-128,+46,-169
132712,9.691,-0.364,2.117,-0.423009,0.321600,1.281897,100048.86,-128,+44,-168
132721,9.895,-0.467,1.977,-0.464513,0.309362,1.239861,100048.86,-128,+44,-168
132731,9.908,-0.598,1.781,-0.542201,0.314150,1.199420,100050.00,-129,+42,-167
132742,9.687,-0.632,1.675,-0.639577,0.337563,1.168558,100048.31,-130,+42,-166
132752,9.518,-0.418,1.580,-0.714605,0.360444,1.137164,100047.16,-131,+41,-166
132762,9.702,-0.263,1.742,-0.724715,0.373215,1.113219,100046.94,-131,+41,-166
132771,9.760,0.180,2.066,-0.655008,0.371618,1.122797,100046.94,-132,+40,-164
132782,9.731,0.289,2.137,-0.552311,0.362572,1.174943,100049.42,-133,+38,-163
132792,9.786,0.004,2.176,-0.466642,0.359380,1.231879,100047.84,-134,+38,-163
132802,9.978,-0.150,2.162,-0.426733,0.357783,1.287751,100044.31,-134,+38,-163
132811,9.939,-0.015,2.153,-0.392146,0.364701,1.340962,100044.31,-136,+35,-163
132822,9.933,-0.267,2.062,-0.315522,0.366829,1.398962,100044.31,-136,+32,-163
132832,10.209,-0.582,2.069,-0.260715,0.351398,1.466540,100048.91,-137,+30,-160
132842,10.559,-1.141,2.296,-0.247945,0.335435,1.521347,100048.02,-137,+30,-160
132851,10.659,-1.432,2.339,-0.288385,0.335967,1.563383,100047.87,-136,+26,-160
132861,10.638,-1.551,2.396,-0.359688,0.334903,1.589989,100047.49,-138,+22,-159
132872,10.641,-1.698,2.240,-0.426201,0.297655,1.630429,100047.49,-138,+20,-159
132882,10.699,-1.383,2.033,-0.460788,0.261472,1.697475,100047.44,-138,+20,-159
132892,11.121,-1.075,1.932,-0.458660,0.219435,1.792723,100047.86,-139,+18,-157
132901,11.813,-1.219,1.974,-0.437376,0.169949,1.917236,100048.28,-139,+12,-158
132912,12.444,-1.334,1.556,-0.418220,0.149196,2.031108,100048.28,-139,+10,-157
132922,12.760,-1.024,1.245,-0.404917,0.134297,2.156686,100049.70,-139,+10,-157
132932,13.185,-0.743,1.291,-0.340000,0.090132,2.299823,100049.70,-137,+4,-156
132941,13.554,-0.971,1.037,-0.218146,0.042775,2.477548,100047.91,-137,+0,-157
132952,13.880,-1.117,0.770,-0.156422,0.028408,2.674429,100049.55,-135,-6,-157
132962,14.481,-0.711,0.858,-0.180367,0.013508,2.882483,100046.55,-132,-6,-156
132972,15.917,0.189,1.383,-0.251492,-0.029415,3.108098,100050.63,-132,-13,-156
132981,17.504,0.784,1.893,-0.343724,-0.064180,3.278373,100050.63,-130,-19,-156
132992,18.737,1.133,1.628,-0.403321,-0.069501,3.416722,100048.98,-128,-26,-156
133002,18.701,1.162,0.521,-0.485265,-0.004051,3.493878,100045.56,-123,-33,-157
133012,18.750,2.385,-0.865,-0.822091,0.033729,3.498135,100046.72,-123,-33,-157
133022,19.961,5.067,-1.135,-1.218513,-0.020547,3.426300,100046.97,-121,-38,-157
133031,20.988,7.528,-1.610,-1.498402,-0.097170,3.368832,100049.95,-117,-42,-160
133042,20.320,8.729,-1.467,-1.852255,-0.109941,3.298061,100049.86,-112,-43,-162
133052,16.429,10.825,0.923,-2.062439,-0.133354,3.050630,100049.86,-112,-43,-162
133062,16.024,5.873,4.219,-1.105173,-0.205189,3.090539,100047.44,-108,-44,-163
133071,19.457,-5.258,5.229,0.431560,-0.252014,3.971180,100047.44,-104,-53,-164
133082,18.683,-9.389,5.712,0.723156,-0.273831,4.552244,100045.00,-96,-64,-163
133092,18.753,-6.356,7.768,0.964202,-0.381317,4.248410,100045.17,-96,-64,-163
133102,19.559,-3.994,7.652,1.595284,-0.066308,3.762593,100045.53,-90,-74,-160
133112,13.746,0.601,5.691,1.593687,-0.031189,3.024025,100044.11,-85,-85,-158
133122,10.754,7.501,1.608,1.546330,-0.355244,2.390814,100044.11,-80,-93,-156
133132,4.265,3.404,3.596,1.239302,-0.452088,2.198190,100044.72,-80,-93,-156
133142,3.773,-3.872,5.813,1.663926,-0.588308,2.271089,100045.42,-75,-100,-154
133152,7.430,0.942,1.833,1.739486,-0.878840,1.022760,100045.33,-70,-107,-152
133161,6.628,5.329,1.583,1.147779,-0.948546,0.313458,100045.33,-68,-110,-151
133172,4.951,5.604,2.244,0.783816,-1.059225,0.073476,100045.33,-68,-110,-151
133182,3.434,3.811,2.390,0.794458,-1.196509,-0.213331,100046.27,-64,-112,-151
133192,2.840,1.606,2.290,0.788073,-1.344436,-0.563991,100045.47,-62,-112,-151
133201,3.006,0.642,2.574,0.733798,-1.482252,-0.966266,100049.42,-60,-112,-152
133212,3.350,0.748,3.031,0.667284,-1.611555,-1.399404,100045.78,-60,-112,-152
133222,3.571,0.914,3.012,0.577358,-1.743518,-1.785715,100045.78,-58,-112,-154
133232,3.629,1.144,2.911,0.484771,-1.861646,-2.177348,100046.44,-58,-110,-156
133242,3.899,1.592,2.854,0.465083,-1.949444,-2.569513,100046.13,-57,-106,-157
133252,4.513,1.720,2.680,0.548092,-2.017022,-2.935072,100038.22,-57,-106,-157
133262,5.067,1.139,2.587,0.675266,-2.066509,-3.268705,100038.22,-58,-103,-159
133272,5.578,0.312,2.709,0.773706,-2.104820,-3.566154,100041.71,-58,-102,-160
133282,5.973,-0.339,2.951,0.812550,-2.136747,-3.849237,100041.71,-60,-97,-162
133292,6.295,-0.780,3.326,0.792330,-2.148985,-4.130191,100039.51,-60,-97,-162
133302,6.711,-0.836,3.729,0.773174,-2.139940,-4.414869,100041.29,-62,-92,-164
133312,7.143,-0.732,4.083,0.787541,-2.091518,-4.696887,100039.62,-64,-87,-166
133322,7.612,-0.725,4.425,0.826917,-2.006380,-4.974117,100039.62,-66,-80,-168
133332,8.444,-0.491,4.674,0.864165,-1.922839,-5.235383,100038.95,-66,-80,-168
133342,9.581,-0.193,5.035,0.947706,-1.841958,-5.468979,100040.95,-68,-75,-169
133352,10.932,-0.289,5.272,1.062642,-1.783958,-5.688740,100037.10,-71,-68,-171
133362,12.501,-0.601,5.411,1.037101,-1.733940,-5.860611,100037.37,-73,-61,-172
133372,13.991,-1.053,5.701,0.903009,-1.649335,-6.023969,100041.39,-73,-61,-172
133382,15.269,-2.219,6.014,0.837027,-1.520564,-6.212336,100039.55,-76,-53,-174
133392,16.381,-3.861,6.518,0.820000,-1.382748,-6.361327,100040.50,-79,-45,-176
133402,17.815,-5.047,7.295,0.742312,-1.235885,-6.477859,100040.50,-80,-36,-179
133412,19.449,-5.466,8.143,0.686972,-1.050711,-6.601840,100035.39,-84,-36,-179
133422,20.866,-6.199,8.666,0.656642,-0.797959,-6.713583,100035.39,-84,-26,-179
133432,21.231,-9.023,7.452,0.502330,-0.461133,-6.717841,100042.08,-85,-16,-181
133442,20.651,-14.046,5.469,-0.424605,-0.310546,-6.498079,100041.77,-88,-4,-183
133452,17.401,-12.880,4.483,-1.332916,-0.369611,-6.144758,100041.39,-88,+10,-184
133463,16.201,-10.613,5.415,-1.486164,-0.219556,-5.781327,100044.55,-88,+10,-184
133472,17.318,-11.035,6.008,-1.100384,-0.074290,-5.320520,100044.55,-88,+24,-185
133482,17.271,-13.558,6.673,-0.603394,0.051288,-4.719769,100046.77,-89,+34,-185
133492,14.965,-16.713,7.601,-0.159614,0.241784,-4.023769,100046.06,-89,+40,-186
133502,11.594,-20.387,7.876,0.184661,0.455160,-3.077146,100047.06,-89,+40,-186
133512,7.867,-25.203,6.127,0.611945,0.661086,-1.777734,100047.06,-90,+44,-184
133522,7.668,-27.108,4.343,0.956220,0.752077,-0.320817,100047.06,-92,+40,-183
133532,9.465,-23.206,4.447,1.178110,0.758462,1.004136,100049.66,-94,+35,-181
133542,15.106,-12.784,3.849,1.357963,0.854774,1.951824,100048.08,-94,+35,-181
133552,11.816,4.567,-2.181,1.478752,0.758994,2.027383,100049.03,-95,+25,-179
133558,12.023,28.313,-5.784,1.255798,0.619049,0.965824,100047.45,-95,+25,-179
133567,12.737,35.135,-8.552,-0.177706,0.443453,-0.192579,100047.45,-96,+20,-179
133577,12.287,1.345,-5.331,0.565651,0.554664,1.029677,100054.19,-98,+20,-178
133587,18.572,-13.804,-3.014,3.788640,0.879783,2.089108,100051.50,-100,+4,-174
133597,25.915,-3.529,-6.390,2.225302,0.838811,1.738980,100051.77,-100,+4,-174
133607,19.752,-8.180,-5.501,-0.556568,0.934590,2.413695,100049.39,-101,-3,-172
133617,14.523,-6.417,-0.346,-0.841247,1.104866,2.314190,100049.39,-102,-7,-171
133627,14.643,-0.992,6.532,-0.762495,1.139453,1.874668,100049.93,-103,-9,-169
133637,12.597,0.326,15.388,-0.089376,1.338462,1.688429,100047.09,-106,-9,-166
133647,13.704,2.034,9.146,1.132880,1.212884,1.477714,100047.24,-106,-12,-166
133657,11.952,-0.405,1.741,1.568146,0.997912,1.408007,100047.71,-108,-20,-163
133667,9.141,-3.467,1.270,1.147779,0.895214,1.436209,100047.71,-109,-27,-159
133677,10.395,-3.186,1.704,0.603963,0.644591,1.294668,100048.29,-109,-31,-157
133687,10.747,-2.187,2.154,0.114422,0.404077,1.091934,100049.82,-109,-31,-157
133697,10.965,1.002,2.793,-0.304880,0.275306,0.930705,100047.66,-109,-34,-157
133707,8.918,4.516,2.914,-0.647027,0.267325,0.946136,100047.51,-108,-33,-157
133716,7.915,5.421,1.579,-0.518788,0.262004,1.042980,100047.51,-109,-34,-157
133727,9.448,4.661,0.560,-0.051596,0.320004,1.114283,100049.18,-109,-34,-157
133737,10.015,4.010,1.066,0.185193,0.391306,1.280833,100049.18,-108,-38,-157
133747,9.037,2.982,1.896,0.123468,0.409398,1.444191,100047.91,-108,-41,-156
133757,8.674,1.361,2.293,-0.117578,0.359380,1.481971,100048.45,-106,-44,-155
133767,9.828,2.042,2.935,-0.572531,0.264664,1.427163,100048.45,-106,-44,-155
133777,9.152,2.195,2.362,-0.517724,0.216242,1.297861,100047.27,-106,-46,-154
133787,9.080,2.134,1.510,-0.479944,0.189637,1.273916,100047.54,-106,-46,-155
133792,9.447,2.066,0.776,-0.356495,0.193362,1.276576,100047.34,-106,-46,-155
133801,9.642,1.864,0.320,-0.200055,0.222096,1.301053,100047.34,-104,-48,-154
133812,9.682,1.547,0.211,0.000551,0.272114,1.332980,100045.07,-104,-51,-154
133822,9.626,0.795,0.732,0.146349,0.325857,1.340962,100045.07,-104,-51,-154
133832,9.582,0.210,1.328,0.167101,0.351398,1.317549,100049.31,-103,-54,-152
133842,9.520,0.334,1.919,0.092606,0.350334,1.284558,100049.02,-102,-57,-152
133853,9.446,0.455,2.204,0.012789,0.331710,1.246778,100047.05,-101,-60,-152
133862,9.482,0.450,2.159,-0.035101,0.310958,1.223365,100047.05,-101,-62,-151
133872,9.464,0.651,2.155,-0.031908,0.305637,1.203145,100047.05,-101,-62,-151
133882,9.458,0.445,1.908,0.032477,0.314683,1.191971,100050.70,-99,-64,-150
133892,9.392,0.428,1.827,0.107505,0.342352,1.177072,100048.59,-99,-67,-150
133902,9.193,0.536,2.017,0.175615,0.384389,1.161641,100046.23,-98,-71,-148
133912,9.240,0.128,2.184,0.220844,0.414187,1.163769,100048.48,-98,-71,-148
133922,9.612,-0.569,1.986,0.168165,0.404609,1.183989,100048.48,-97,-74,-147
133933,10.265,-1.026,1.637,-0.017009,0.368958,1.218044,100047.73,-96,-76,-147
133943,10.344,-0.440,1.510,-0.181431,0.375875,1.234540,100049.24,-95,-77,-146
133952,10.170,-0.340,1.544,-0.251137,0.396095,1.257420,100048.55,-95,-77,-146
133962,10.103,-0.273,1.462,-0.312862,0.397160,1.311163,100048.55,-95,-79,-146
133972,10.090,0.125,1.447,-0.327229,0.413655,1.385127,100048.73,-92,-82,-146
133983,9.940,-0.043,1.566,-0.302220,0.439728,1.462815,100047.41,-91,-84,-146
133992,9.799,-0.448,1.611,-0.285192,0.458352,1.538374,100047.41,-91,-84,-146
134002,9.815,-0.604,1.773,-0.294238,0.467930,1.608081,100047.46,-90,-86,-144
134012,10.047,-0.886,1.819,-0.314990,0.459949,1.683640,100052.04,-88,-88,-145
134022,10.233,-1.297,1.747,-0.363944,0.440260,1.760264,100052.04,-85,-91,-145
134028,10.443,-1.399,1.894,-0.437376,0.429618,1.805493,100052.14,-85,-91,-145
134037,10.662,-1.584,2.018,-0.510275,0.412059,1.837420,100048.41,-84,-93,-145
134047,10.945,-1.815,2.083,-0.571999,0.381728,1.876796,100047.50,-84,-93,-145
134057,11.167,-1.843,2.154,-0.610311,0.359912,1.915108,100049.45,-80,-94,-144
134067,11.446,-1.801,2.125,-0.578385,0.330114,1.970980,100049.45,-79,-96,-145
134077,11.930,-2.001,1.777,-0.548587,0.283820,2.019402,100051.79,-75,-99,-146
134087,12.007,-1.830,1.291,-0.450678,0.243380,2.103475,100050.26,-71,-101,-146
134097,12.266,-1.651,1.418,-0.330954,0.214114,2.184888,100046.95,-71,-101,-146
134108,12.542,-1.607,1.580,-0.214954,0.161967,2.296631,100045.48,-68,-103,-146
134117,12.942,-1.612,1.851,-0.177706,0.120463,2.434979,100045.48,-63,-108,-146
134127,13.045,-1.528,2.184,-0.212293,0.085343,2.606318,100048.64,-57,-110,-146
134137,13.770,-1.298,2.531,-0.278275,0.019362,2.765419,100048.17,-57,-110,-146
134148,15.078,-0.715,3.241,-0.361284,-0.090253,2.924520,100048.48,-51,-114,-146
134157,16.434,0.238,3.633,-0.474623,-0.150913,3.096392,100049.38,-44,-117,-147
134167,18.202,-0.288,2.496,-0.613504,-0.116858,3.241658,100049.38,-36,-120,-148
134177,20.429,0.109,0.592,-1.044513,-0.146657,3.342226,100050.87,-36,-120,-148
134188,23.800,4.777,0.132,-1.617595,-0.278620,3.401291,100051.34,-28,-120,-151
134197,26.089,9.591,-0.097,-1.760200,-0.362161,3.552410,100050.23,-18,-119,-154
134207,25.590,12.642,-0.422,-1.811815,-0.284473,3.800905,100046.87,-9,-118,-157
134217,24.142,12.593,-1.305,-2.065099,-0.276491,3.969052,100046.87,-9,-118,-157
134227,20.672,12.147,0.315,-2.157686,-0.341941,3.906795,100048.30,+1,-115,-161
134238,17.889,4.401,2.853,-1.274916,-0.528179,4.005767,100049.92,+12,-114,-163
134247,17.753,-6.028,5.565,-0.115981,-0.663335,4.784244,100049.41,+25,-118,-162
134257,18.254,-8.414,9.163,1.067431,-0.622895,5.034336,100049.03,+25,-118,-162
134263,19.419,-5.134,7.841,2.395577,-0.568620,4.677822,100049.03,+38,-125,-157
134273,18.636,-1.596,6.697,3.299099,-0.107280,4.045676,100049.03,+38,-125,-157
134283,14.604,2.503,5.694,3.268769,0.218371,3.271456,100051.57,+47,-138,-148
134292,8.316,2.867,3.289,2.475925,-0.047152,2.571199,100049.84,+54,-146,-140
134302,3.567,-1.826,2.054,1.732568,-0.229134,2.091769,100051.26,+60,-152,-135
134312,2.801,-6.789,4.615,1.702770,-0.423354,1.906062,100047.39,+66,-158,-129
134323,6.277,-2.415,1.479,1.618697,-0.774014,1.150998,100048.66,+66,-158,-129
134333,5.830,2.679,1.037,0.949835,-0.934711,0.273549,100049.81,+70,-162,-124
134342,4.210,4.769,1.329,0.543835,-1.058161,-0.082432,100049.81,+72,-164,-121
134352,2.299,4.014,1.845,0.519358,-1.162986,-0.383606,100048.66,+74,-168,-119
134363,1.075,2.336,1.995,0.645468,-1.320491,-0.673074,100045.81,+74,-168,-119
134372,0.880,0.956,2.167,0.771578,-1.500344,-1.006707,100045.81,+73,-171,-114
134382,1.233,0.288,2.649,0.901945,-1.614215,-1.423881,100048.21,+73,-174,-110
134392,2.014,-0.144,2.849,0.871614,-1.726490,-1.851697,100045.63,+70,-179,-107
134403,2.602,0.171,2.685,0.750293,-1.877077,-2.250247,100046.12,+70,-179,-107
134413,2.876,0.909,2.613,0.665156,-1.990949,-2.618467,100046.59,+66,-182,-104
134423,3.469,1.386,2.655,0.705064,-2.061187,-2.976045,100047.91,+60,-185,-100
134432,4.146,1.217,2.676,0.851926,-2.103224,-3.311806,100043.49,+55,-189,-96
134443,4.738,0.440,2.830,0.961541,-2.147389,-3.605531,100042.29,+55,-189,-96
134453,5.176,-0.365,3.008,0.955688,-2.188362,-3.876907,100043.80,+44,-192,-92
134462,5.449,-0.783,3.278,0.867357,-2.212839,-4.149347,100043.80,+34,-194,-89
134472,5.684,-0.767,3.740,0.793926,-2.218160,-4.419658,100043.80,+23,-196,-86
134482,6.021,-0.726,4.137,0.759871,-2.175591,-4.687310,100042.84,+23,-196,-86
134493,6.609,-0.765,4.486,0.776899,-2.106949,-4.954429,100045.53,+10,-196,-83
134502,7.313,-0.775,4.657,0.813614,-2.037242,-5.204520,100040.84,-4,-194,-82
134512,8.324,-0.686,4.960,0.828514,-1.987224,-5.437052,100043.64,-19,-193,-80
134522,9.452,-0.547,5.138,0.864697,-1.945188,-5.680226,100043.64,-19,-193,-80
134533,10.744,-0.588,5.288,0.875871,-1.899426,-5.914887,100043.89,-35,-189,-78
134543,12.159,-0.890,5.427,0.842348,-1.864307,-6.128795,100045.36,-52,-184,-78
134552,13.826,-1.487,5.890,0.748697,-1.820142,-6.342703,100044.63,-69,-176,-77
134562,15.592,-2.428,6.480,0.640679,-1.747775,-6.570978,100044.63,-69,-176,-77
134573,17.045,-3.782,6.919,0.590128,-1.670087,-6.794996,100044.63,-86,-166,-79
134583,18.597,-5.487,7.871,0.568312,-1.542380,-6.974318,100047.47,-104,-154,-80
134592,20.451,-7.234,9.196,0.462954,-1.328472,-7.066372,100045.94,-120,-140,-82
134602,22.000,-8.563,9.791,0.192110,-1.024638,-7.028593,100045.47,-120,-140,-82
134612,23.001,-11.078,7.847,-0.597541,-0.688344,-6.827455,100046.89,-136,-124,-84
134623,20.222,-13.602,7.147,-1.716035,-0.564363,-6.453914,100046.89,-148,-105,-89
134633,17.321,-12.019,7.160,-2.192806,-0.344069,-6.125602,100046.19,-158,-84,-94
134642,17.653,-10.355,7.651,-2.076806,-0.084400,-5.546667,100047.41,-158,-84,-94
134652,18.169,-11.709,7.069,-1.532457,0.161967,-4.744778,100047.50,-167,-65,-97
134663,15.275,-16.718,7.240,-1.084953,0.394499,-3.846044,100044.16,-173,-51,-97
134673,11.255,-21.072,7.775,-0.844972,0.550939,-2.920173,100047.16,-177,-41,-97
134683,8.156,-23.702,7.171,-0.391614,0.736114,-1.708027,100049.47,-177,-41,-97
134692,8.233,-24.955,5.366,0.325138,0.844664,-0.205349,100049.47,-180,-35,-95
134703,10.710,-22.386,4.265,1.030183,0.912242,1.255824,100047.89,-181,-40,-92
134713,17.559,-12.068,3.901,1.393614,1.105398,2.348245,100044.42,-181,-50,-87
134722,14.195,12.519,-7.885,1.073816,0.846792,2.067823,100044.42,-181,-50,-87
134732,11.302,43.592,-12.352,0.002679,0.526994,0.300155,100052.66,-180,-56,-84
134743,10.321,23.086,-11.521,-0.352770,0.342884,0.278870,100049.30,-180,-55,-84
134753,15.144,-17.229,-3.056,3.324641,0.852646,1.972044,100051.08,-180,-64,-77
134763,17.902,-12.125,-3.206,4.629374,1.051123,2.048668,100047.98,-179,-77,-68
134772,17.456,-1.576,-5.248,1.221743,0.700994,1.692686,100047.98,-179,-77,-68
134782,18.205,-4.008,-4.438,0.034074,0.717490,2.113053,100049.90,-177,-82,-67
134793,16.893,-3.793,-1.706,-0.194734,0.973967,2.005034,100047.45,-175,-88,-64
134803,12.989,-1.966,7.452,-0.530495,1.102737,1.806558,100046.62,-174,-92,-62
134812,9.916,0.061,18.639,-0.051596,1.381563,1.649585,100046.62,-174,-92,-62
134822,14.692,4.349,9.950,1.189816,1.104866,1.497402,100046.62,-172,-99,-56
134833,13.334,0.104,1.811,1.564953,0.826572,1.550081,100050.03,-171,-105,-51
134843,8.826,-5.031,1.279,0.992403,0.809545,1.538374,100049.14,-169,-109,-48
134852,9.689,-3.953,1.362,0.417725,0.586059,1.284558,100049.03,-169,-109,-48
134862,10.678,-2.063,0.690,-0.005835,0.354059,0.986576,100047.30,-168,-113,-45
134873,11.345,0.852,0.934,-0.352238,0.292334,0.809384,100047.30,-166,-114,-46
134883,9.891,4.079,1.353,-0.545926,0.302976,0.886008,100051.30,-164,-117,-46
134893,8.704,5.098,0.906,-0.319247,0.324793,0.967953,100049.69,-164,-117,-46
134902,9.820,4.053,0.384,0.236807,0.399288,1.029677,100048.19,-163,-120,-45
134913,10.107,3.243,0.811,0.557138,0.503049,1.163769,100048.19,-161,-123,-43
134923,9.362,2.388,2.317,0.481578,0.540297,1.282429,100050.04,-158,-128,-40
134933,8.680,1.377,3.386,0.193707,0.464738,1.300521,100050.04,-158,-128,-40
134942,8.796,1.932,3.684,-0.159082,0.338095,1.231347,100049.93,-156,-130,-39
134952,8.790,2.930,3.520,-0.429394,0.223160,1.197292,100049.71,-154,-134,-39
134963,8.668,3.287,2.951,-0.475155,0.157710,1.200485,100050.77,-152,-136,-40
134973,8.836,3.366,2.035,-0.346917,0.154518,1.213787,100050.77,-152,-136,-40
134983,8.952,3.335,1.115,-0.102146,0.201875,1.243053,100049.02,-148,-138,-39
134992,9.331,2.200,0.424,0.155927,0.265196,1.332980,100049.75,-145,-142,-39
135003,9.463,0.531,-0.317,0.293743,0.320536,1.429292,100050.22,-141,-147,-38
135013,10.320,0.137,0.941,0.039395,0.372683,1.498998,100049.48,-141,-147,-38
135023,10.229,-0.309,1.055,0.127725,0.382261,1.409072,100049.68,-139,-150,-36
135032,9.926,-0.376,1.541,0.025560,0.393435,1.376081,100051.46,-136,-153,-35
135043,9.787,-0.275,1.870,-0.090440,0.378004,1.320741,100051.46,-132,-157,-35
135053,9.788,-0.410,1.890,-0.168660,0.345545,1.282429,100048.63,-132,-157,-35
135063,9.924,-0.284,1.802,-0.220275,0.334371,1.236136,100047.68,-130,-159,-34
135072,9.839,-0.138,1.643,-0.284660,0.346077,1.197824,100047.68,-126,-162,-35
135083,9.641,-0.034,1.542,-0.358623,0.373747,1.158980,100049.70,-123,-164,-33
135093,9.676,-0.167,1.593,-0.394275,0.381196,1.145145,100050.02,-123,-164,-33
135103,9.986,-0.254,1.743,-0.444293,0.366829,1.148870,100048.08,-120,-166,-35
135113,10.192,-0.046,1.864,-0.485265,0.348738,1.165365,100048.81,-118,-168,-35
135122,10.005,0.452,2.097,-0.459192,0.346609,1.184521,100048.81,-115,-171,-35
135133,9.751,0.644,2.397,-0.417155,0.348206,1.229751,100049.58,-115,-171,-35
135143,9.599,0.439,2.244,-0.345853,0.338628,1.285090,100049.89,-112,-173,-36
135153,9.681,0.028,2.101,-0.264440,0.330114,1.349475,100049.05,-109,-174,-36
135162,9.703,-0.246,2.154,-0.206972,0.323196,1.404283,100049.05,-105,-178,-36
135173,9.638,-0.449,2.151,-0.171853,0.318939,1.458558,100049.05,-105,-178,-36
