169849,9.319,0.826,3.077,0.003424,-0.004721,-0.007602,100077.30,-12,+120,+257
169860,9.291,0.870,3.037,-0.000833,-0.006317,-0.007070,100080.24,-13,+119,+258
169870,9.315,0.931,3.022,0.000231,-0.006317,-0.005474,100077.05,-13,+119,+258
169880,9.339,0.830,3.006,0.009809,-0.007381,-0.002813,100079.20,-14,+119,+258
169889,9.339,0.807,2.985,0.012470,-0.004721,-0.003878,100079.20,-13,+119,+257
169900,9.356,0.851,3.021,0.008745,-0.005785,-0.003878,100079.20,-12,+120,+258
169910,9.304,0.844,3.053,0.003956,-0.007913,-0.004410,100078.84,-12,+120,+258
169920,9.249,0.903,3.068,0.000763,-0.008978,-0.002813,100077.88,-13,+120,+257
169929,9.264,0.895,3.043,0.003424,-0.008978,0.000379,100078.62,-12,+119,+257
169939,9.310,0.839,3.013,0.007149,-0.008978,0.005168,100076.15,-13,+119,+258
169950,9.346,0.850,3.035,0.007681,-0.008978,0.004636,100076.15,-13,+119,+258
169960,9.340,0.877,2.994,0.007681,-0.007913,0.005700,100079.53,-14,+119,+257
169970,9.295,0.868,3.007,0.011938,-0.007913,0.006765,100083.00,-12,+120,+258
169979,9.293,0.797,3.064,0.015662,-0.005253,0.006765,100077.11,-14,+119,+258
169990,9.313,0.794,3.046,0.013534,-0.006849,0.004636,100075.90,-14,+119,+258
170000,9.335,0.832,3.065,0.010341,-0.009510,0.003572,100079.21,-14,+120,+259
170010,9.319,0.887,3.052,0.007681,-0.009510,0.004636,100079.26,-14,+120,+257
170019,9.316,0.888,3.033,0.007681,-0.010042,0.006765,100079.26,-13,+120,+257
170030,9.351,0.843,3.070,0.008213,-0.011106,0.006233,100075.21,-13,+120,+257
170040,9.323,0.828,3.062,0.007149,-0.011106,0.005168,100077.32,-13,+120,+258
170049,9.305,0.868,3.042,0.007681,-0.011106,0.004636,100077.32,-14,+119,+257
170059,9.318,0.809,3.005,0.011938,-0.011106,0.004636,100079.33,-13,+119,+258
170070,9.311,0.800,3.022,0.010873,-0.010574,0.003040,100080.69,-13,+120,+257
170080,9.291,0.881,3.030,0.010873,-0.011106,0.001444,100080.33,-13,+120,+257
170090,9.287,0.900,3.027,0.014598,-0.011106,0.005700,100078.48,-14,+120,+257
170100,9.288,0.885,3.053,0.016195,-0.010574,0.006765,100077.05,-14,+120,+257
170109,9.347,0.862,3.018,0.014066,-0.010574,0.008361,100078.41,-13,+120,+257
170120,9.335,0.822,2.997,0.012470,-0.008978,0.010489,100078.95,-13,+120,+257
170130,9.298,0.881,3.023,0.013534,-0.007381,0.012086,100074.43,-13,+120,+257
170139,9.336,0.859,3.043,0.018855,-0.005253,0.011554,100074.43,-14,+120,+257
170149,9.352,0.789,3.046,0.022048,-0.007381,0.010489,100074.43,-14,+120,+257
170160,9.345,0.812,3.052,0.016195,-0.008978,0.009957,100078.61,-14,+120,+257
170170,9.341,0.791,3.052,0.013002,-0.010574,0.006765,100078.25,-13,+120,+257
170175,9.342,0.821,3.033,0.007149,-0.011106,0.006765,100080.19,-13,+120,+257
170184,9.328,0.862,3.021,0.004488,-0.011106,0.005700,100074.41,-14,+120,+257
170194,9.319,0.882,3.042,0.008745,-0.010574,0.006233,100074.41,-13,+120,+257
170205,9.285,0.821,3.007,0.010873,-0.011106,0.006233,100078.96,-14,+120,+257
170215,9.348,0.809,2.993,0.006617,-0.010042,0.004104,100078.80,-14,+120,+257
170225,9.368,0.792,3.007,0.005552,-0.008445,0.001976,100077.59,-14,+120,+258
170234,9.330,0.827,2.987,0.001828,-0.008445,-0.001217,100075.76,-14,+120,+257
170245,9.367,0.826,3.010,0.000763,-0.008978,-0.002281,100075.76,-14,+120,+257
170255,9.319,0.795,2.999,0.000231,-0.008445,-0.001217,100078.53,-14,+120,+257
170265,9.263,0.804,2.980,-0.002429,-0.008445,-0.001217,100079.86,-14,+120,+257
170274,9.310,0.822,2.958,-0.006154,-0.008978,-0.000153,100078.80,-13,+120,+257
170285,9.325,0.855,2.994,-0.008815,-0.008445,-0.000153,100074.75,-14,+120,+257
170295,9.331,0.913,3.028,-0.004558,-0.006849,-0.000153,100074.75,-14,+120,+257
170305,9.317,0.879,3.031,0.001828,-0.005253,0.002508,100078.35,-14,+120,+259
170314,9.317,0.832,3.010,0.003956,-0.004721,0.002508,100076.46,-13,+120,+257
170324,9.309,0.770,2.974,0.001295,-0.005253,0.001976,100077.26,-14,+120,+257
170335,9.282,0.790,3.037,-0.007218,-0.004721,-0.002281,100076.30,-14,+120,+258
170345,9.300,0.850,3.033,-0.009347,-0.005785,-0.003345,100076.30,-14,+120,+258
170355,9.312,0.858,3.024,-0.002961,-0.006317,-0.002281,100079.64,-13,+120,+257
170364,9.368,0.855,3.010,0.001828,-0.005253,-0.000153,100076.75,-14,+119,+257
170375,9.360,0.839,3.023,-0.000301,-0.006849,0.000379,100078.06,-14,+120,+257
170385,9.311,0.844,3.024,-0.006154,-0.006849,0.000911,100077.91,-14,+120,+257
170395,9.277,0.895,3.015,-0.011475,-0.006849,0.001444,100077.91,-14,+120,+257
170404,9.341,0.827,3.017,-0.008283,-0.006317,0.001976,100081.10,-13,+119,+257
170415,9.333,0.807,3.012,-0.007218,-0.004721,0.001444,100078.05,-14,+120,+257
170425,9.277,0.900,3.058,-0.005622,-0.004721,0.001444,100074.59,-14,+120,+257
170435,9.325,0.875,3.013,0.002892,-0.002592,0.001976,100074.48,-14,+120,+257
170444,9.305,0.755,2.964,0.002892,0.000068,0.000911,100074.48,-13,+120,+258
170455,9.321,0.768,2.967,-0.006686,-0.000996,0.000911,100076.02,-14,+119,+258
170465,9.331,0.826,3.017,-0.009347,-0.000996,-0.000685,100077.70,-14,+119,+258
170475,9.318,0.852,3.003,-0.004558,0.001133,-0.000153,100075.44,-13,+120,+259
170485,9.292,0.853,3.011,-0.000833,0.002197,0.001444,100075.44,-13,+120,+257
170494,9.313,0.796,3.016,0.000231,0.003261,0.002508,100075.44,-13,+121,+257
170505,9.282,0.826,3.021,-0.000301,0.004325,0.001444,100081.88,-13,+121,+257
170515,9.311,0.853,3.035,0.000763,0.003793,0.002508,100080.72,-14,+120,+258
170525,9.330,0.867,3.064,0.002892,0.003793,0.003572,100078.25,-13,+120,+257
170534,9.368,0.862,3.037,0.006617,0.002729,0.004104,100075.36,-13,+120,+257
170545,9.340,0.846,3.031,0.007149,0.002729,0.005168,100075.36,-13,+120,+257
170555,9.311,0.861,3.046,0.005552,0.002729,0.006233,100079.73,-14,+120,+257
170565,9.309,0.832,3.011,0.005020,0.000600,0.005700,100078.84,-14,+120,+258
170575,9.321,0.833,3.041,0.005020,0.001665,0.006233,100079.06,-13,+120,+258
170585,9.297,0.838,3.010,0.005552,0.001133,0.005700,100076.48,-13,+120,+258
170595,9.301,0.853,3.018,0.009809,0.003261,0.007297,100076.48,-14,+120,+257
170605,9.305,0.849,3.022,0.013534,0.003793,0.007829,100081.24,-14,+119,+258
170615,9.307,0.856,3.059,0.017259,0.004325,0.007829,100076.84,-13,+120,+257
170625,9.310,0.827,3.041,0.020451,0.005389,0.007829,100077.30,-13,+120,+257
170635,9.328,0.828,2.983,0.019387,0.005921,0.007297,100078.57,-12,+120,+257
170645,9.318,0.808,2.999,0.018146,0.006986,0.007829,100078.57,-13,+120,+257
170655,9.297,0.804,3.023,0.018855,0.008050,0.007297,100078.70,-12,+120,+257
170664,9.323,0.877,3.011,0.021516,0.008050,0.006233,100079.12,-12,+120,+257
170675,9.321,0.797,2.989,0.026837,0.009114,0.007297,100077.45,-12,+121,+258
170685,9.293,0.784,3.018,0.022048,0.008582,0.006233,100076.45,-13,+121,+258
170695,9.329,0.830,3.034,0.013534,0.005389,0.004104,100076.45,-14,+120,+257
170705,9.347,0.840,3.021,0.014598,0.006454,0.003040,100077.39,-14,+120,+257
170715,9.339,0.845,3.025,0.014598,0.006454,0.001444,100078.08,-13,+120,+257
170725,9.336,0.801,3.015,0.014066,0.008582,-0.001217,100076.88,-12,+120,+257
170735,9.347,0.814,3.072,0.015130,0.010178,-0.002813,100076.50,-13,+120,+258
170745,9.349,0.853,3.060,0.016195,0.011243,-0.004410,100076.50,-13,+120,+258
170755,9.339,0.845,3.068,0.018323,0.011243,-0.004942,100078.12,-13,+120,+259
170761,9.299,0.864,3.092,0.019919,0.011243,-0.007070,100077.87,-12,+120,+257
170770,9.304,0.850,3.072,0.019387,0.010710,-0.004942,100077.87,-12,+120,+257
170780,9.293,0.826,3.100,0.019919,0.009114,-0.004942,100077.76,-13,+120,+258
170790,9.323,0.842,3.068,0.017259,0.010178,-0.005474,100076.12,-12,+121,+257
170800,9.319,0.868,3.041,0.016195,0.010178,-0.006006,100076.12,-13,+120,+257
170810,9.360,0.893,3.046,0.016195,0.010178,-0.004942,100078.85,-13,+120,+257
170820,9.343,0.910,3.004,0.016727,0.010710,-0.001749,100075.73,-13,+121,+257
170830,9.307,0.962,3.078,0.022048,0.013371,0.004104,100075.41,-12,+120,+257
170840,9.300,1.009,3.076,0.032158,0.013371,0.008893,100075.41,-12,+120,+258
170850,9.313,1.003,3.127,0.046525,0.016032,0.014214,100075.41,-12,+120,+258
170860,9.285,0.998,3.131,0.061956,0.017628,0.019003,100081.32,-12,+121,+257
170870,9.287,0.954,3.056,0.076323,0.018160,0.021132,100078.80,-12,+121,+257
170880,9.276,0.892,2.976,0.081644,0.021885,0.022196,100076.59,-12,+122,+257
170890,9.274,0.904,2.981,0.086433,0.024545,0.023260,100077.07,-12,+122,+257
170900,9.304,0.976,3.011,0.102928,0.028802,0.026985,100077.07,-12,+121,+257
170910,9.336,0.924,3.005,0.124213,0.034123,0.030177,100078.00,-12,+122,+257
170920,9.286,0.856,3.055,0.141240,0.034655,0.032306,100078.31,-12,+122,+257
170931,9.250,0.808,3.150,0.147094,0.031995,0.031242,100077.70,-12,+122,+257
170940,9.188,0.646,3.047,0.145497,0.031995,0.020600,100077.70,-11,+122,+257
170950,8.965,0.645,2.951,0.138580,0.034655,0.009425,100081.33,-12,+124,+257
170960,8.809,0.785,2.629,0.151350,0.044766,0.003572,100081.33,-12,+125,+256
170970,8.821,0.783,2.588,0.197644,0.069775,0.002508,100079.66,-11,+125,+256
170980,8.990,0.816,2.748,0.249791,0.088931,0.006233,100077.81,-11,+125,+257
170990,9.198,0.669,2.858,0.299277,0.107554,-0.000153,100076.34,-10,+126,+256
170995,9.294,0.170,2.939,0.315772,0.120857,-0.014520,100076.34,-10,+126,+256
171005,9.225,-0.281,2.932,0.275332,0.125646,-0.048043,100079.11,-10,+128,+256
171015,8.979,-0.241,2.960,0.172103,0.121389,-0.112960,100076.44,-9,+128,+256
171025,9.018,0.144,3.362,0.074194,0.107022,-0.175217,100077.48,-8,+128,+256
171035,9.408,0.536,3.655,0.034286,0.079885,-0.232153,100077.80,-8,+128,+256
171045,9.609,0.662,3.734,0.052910,0.055940,-0.281639,100077.80,-8,+130,+256
171056,9.434,0.464,3.622,0.061424,0.034655,-0.331657,100077.17,-8,+129,+256
171065,9.354,0.299,3.333,0.035883,0.012307,-0.389657,100078.33,-8,+130,+256
171075,9.390,0.473,3.140,-0.000301,-0.002060,-0.445529,100076.22,-8,+130,+256
171085,9.416,0.711,3.144,-0.026374,-0.008978,-0.489694,100078.06,-7,+130,+256
171095,9.650,0.888,3.337,-0.026374,-0.019088,-0.524281,100078.06,-7,+130,+256
171105,9.868,1.149,3.432,-0.021053,-0.040904,-0.547694,100078.03,-6,+131,+256
171115,9.622,1.533,3.447,-0.023714,-0.062189,-0.553015,100077.45,-6,+131,+256
171125,9.396,1.867,3.339,-0.035952,-0.079216,-0.532795,100076.94,-5,+131,+256
171136,9.365,2.193,3.310,-0.053512,-0.097840,-0.489162,100075.41,-5,+132,+256
171145,9.225,2.619,3.325,-0.056704,-0.109014,-0.421052,100075.41,-5,+132,+257
171155,8.915,2.801,3.341,-0.037549,-0.115400,-0.336978,100079.71,-5,+132,+257
171165,9.117,2.579,3.240,-0.005090,-0.120721,-0.249712,100077.66,-5,+132,+255
171175,9.424,2.280,3.074,0.008745,-0.120721,-0.174685,100078.60,-5,+131,+255
171185,9.323,2.017,3.039,-0.002429,-0.116996,-0.118813,100078.35,-5,+132,+256
171195,9.215,1.927,3.165,-0.012007,-0.118592,-0.077309,100078.35,-5,+132,+256
171205,9.277,1.755,3.231,-0.009347,-0.123913,-0.046978,100080.02,-6,+132,+256
171215,9.232,1.504,3.198,-0.016264,-0.132427,-0.033144,100079.71,-6,+132,+256
171226,9.115,1.447,3.064,-0.046062,-0.139877,-0.028355,100079.45,-7,+132,+255
171231,9.026,1.554,3.073,-0.065218,-0.144133,-0.027290,100075.82,-7,+132,+255
171240,9.052,1.615,2.994,-0.062558,-0.145198,-0.020905,100075.82,-7,+132,+255
171250,9.097,1.568,2.839,-0.041805,-0.137748,-0.012923,100075.82,-8,+131,+255
171260,9.147,1.523,2.883,-0.013072,-0.126042,-0.005474,100081.05,-8,+131,+255
171271,9.204,1.334,2.860,0.009809,-0.116996,-0.003345,100077.63,-8,+132,+256
171280,9.177,1.141,2.793,0.002892,-0.109014,-0.014520,100077.79,-8,+131,+255
171290,9.274,1.233,2.807,-0.024246,-0.104225,-0.037400,100077.79,-8,+132,+255
171300,9.274,1.369,2.776,-0.032227,-0.096244,-0.058153,100080.18,-8,+132,+255
171311,9.220,1.373,2.750,-0.024778,-0.086133,-0.068263,100080.18,-8,+132,+255
171320,9.333,1.386,2.667,-0.027971,-0.082409,-0.074648,100079.71,-9,+132,+254
171330,9.319,1.425,2.763,-0.023714,-0.066978,-0.083162,100078.91,-9,+131,+255
171340,9.164,1.448,2.830,-0.032760,-0.059528,-0.084758,100078.18,-9,+131,+255
171351,9.209,1.590,2.903,-0.046062,-0.058996,-0.084226,100078.18,-10,+131,+254
171361,9.336,1.548,2.942,-0.073200,-0.069638,-0.078905,100077.48,-10,+131,+255
171370,9.317,1.429,2.763,-0.122686,-0.077088,-0.075712,100078.73,-10,+130,+255
171380,9.250,1.561,2.750,-0.176429,-0.071767,-0.076244,100075.58,-10,+130,+255
171390,9.230,1.715,2.855,-0.208356,-0.066978,-0.069327,100078.46,-9,+130,+256
171401,9.240,1.919,2.985,-0.207824,-0.063785,-0.053896,100078.51,-10,+130,+255
171410,9.134,2.019,2.903,-0.176429,-0.062189,-0.028887,100079.62,-10,+129,+256
171420,9.307,1.821,2.977,-0.161530,-0.064849,0.005700,100079.62,-10,+129,+256
171430,9.324,1.846,2.989,-0.178026,-0.073363,0.033370,100079.62,-11,+129,+256
171441,9.230,1.914,2.924,-0.211548,-0.079216,0.059444,100075.73,-10,+127,+256
171450,9.087,1.918,2.837,-0.239750,-0.080812,0.089774,100075.73,-10,+126,+256
171460,9.021,1.931,2.876,-0.251989,-0.077620,0.125425,100080.29,-12,+125,+256
171470,9.037,1.865,2.885,-0.261567,-0.077620,0.160012,100078.76,-12,+125,+256
171481,9.243,1.915,2.875,-0.252521,-0.080280,0.197792,100079.02,-12,+125,+257
171491,9.346,1.833,2.962,-0.241879,-0.080812,0.237168,100078.24,-13,+124,+257
171500,9.231,1.911,2.933,-0.237090,-0.084005,0.279205,100078.24,-13,+122,+257
171510,9.230,1.824,2.901,-0.237090,-0.084005,0.323370,100078.14,-13,+122,+257
171521,9.293,1.811,2.834,-0.247200,-0.083473,0.366471,100077.67,-13,+122,+257
171531,9.380,2.116,2.835,-0.239750,-0.081345,0.412764,100076.78,-14,+120,+257
171540,9.555,2.144,3.114,-0.185475,-0.076556,0.467040,100076.78,-15,+118,+257
171550,9.815,1.987,3.442,-0.096081,-0.093051,0.525040,100076.78,-15,+118,+257
171560,9.875,1.920,3.772,-0.054044,-0.136684,0.583040,100078.30,-16,+118,+257
171571,9.604,1.905,3.747,-0.078521,-0.178721,0.637315,100074.04,-16,+118,+257
171581,9.364,1.922,3.435,-0.179444,-0.223595,0.711278,100076.52,-19,+116,+258
171590,9.479,2.170,3.068,-0.259438,-0.255344,0.795883,100076.52,-19,+116,+258
171600,10.165,2.881,3.241,-0.238686,-0.298445,0.926250,100076.52,-21,+114,+257
171611,11.261,3.655,3.819,-0.165255,-0.359638,1.125259,100079.90,-23,+113,+257
171621,11.708,3.367,2.126,-0.183879,-0.387308,1.364709,100075.49,-25,+110,+257
171630,11.495,2.337,0.674,-0.504741,-0.326647,1.607351,100076.51,-25,+110,+257
171640,11.965,2.588,0.607,-0.920319,-0.247363,1.782947,100076.51,-29,+105,+258
171651,12.941,3.207,1.318,-1.194355,-0.148390,1.901075,100077.27,-30,+100,+258
171661,13.925,2.856,1.567,-1.277896,-0.070170,1.975571,100077.27,-32,+93,+260
171670,15.402,2.301,1.422,-1.254484,0.038912,1.975039,100078.80,-32,+93,+260
171680,16.891,1.934,1.353,-0.938942,0.186307,1.865424,100079.27,-32,+87,+260
171691,15.923,1.017,1.061,-0.612227,0.311352,1.796250,100079.96,-32,+82,+261
171701,13.252,-0.058,1.973,-0.551034,0.382655,1.755809,100079.96,-32,+78,+261
171711,11.630,-1.597,3.514,-0.484521,0.373609,1.732397,100079.15,-32,+78,+261
171720,11.459,-3.840,5.521,-0.416943,0.353389,1.736653,100079.52,-32,+75,+262
171730,11.876,-5.298,7.039,-0.411622,0.305499,1.721222,100076.95,-32,+70,+262
171741,12.863,-4.991,7.596,-0.430778,0.333169,1.707919,100078.27,-30,+67,+263
171751,12.689,-3.233,5.815,-0.538796,0.372545,1.706323,100078.54,-30,+67,+263
171760,11.781,-2.743,4.689,-0.430246,0.425224,1.765919,100079.32,-30,+64,+263
171770,11.851,-4.247,5.331,-0.280723,0.498123,1.860103,100075.90,-28,+60,+264
171781,11.164,-5.885,5.453,-0.338191,0.520472,1.903736,100075.90,-26,+57,+264
171791,9.632,-5.539,5.082,-0.493035,0.527389,1.818598,100077.27,-26,+57,+264
171800,8.196,-4.519,4.465,-0.568594,0.552930,1.703663,100077.27,-24,+53,+265
171810,7.278,-4.319,3.693,-0.490906,0.581664,1.616397,100081.11,-23,+49,+266
171815,6.718,-4.563,3.267,-0.404704,0.606141,1.563718,100077.06,-23,+49,+266
171826,6.079,-4.757,2.928,-0.330209,0.620508,1.509443,100077.22,-20,+45,+267
171836,5.241,-4.527,2.519,-0.240282,0.629554,1.420580,100073.95,-17,+43,+266
171845,4.515,-3.973,2.058,-0.138117,0.630618,1.320011,100073.95,-16,+43,+267
171855,3.851,-3.492,1.615,-0.009347,0.626894,1.222635,100077.56,-16,+43,+267
171866,3.148,-3.357,1.250,0.112506,0.618380,1.147076,100077.61,-14,+41,+268
171876,2.434,-3.267,1.080,0.208286,0.597095,1.075773,100079.50,-10,+41,+267
171885,1.901,-3.114,1.027,0.288103,0.568362,0.987443,100076.19,-8,+42,+268
171895,1.466,-2.854,1.024,0.350892,0.526857,0.891663,100076.19,-8,+42,+268
171906,1.154,-2.564,0.869,0.407827,0.475242,0.785773,100078.58,-7,+43,+269
171916,0.944,-2.320,0.741,0.453057,0.418307,0.669773,100077.17,-5,+43,+269
171925,0.913,-2.054,0.641,0.484451,0.354453,0.552709,100078.48,-3,+45,+269
171935,0.918,-1.865,0.583,0.480726,0.286343,0.432985,100077.02,-3,+45,+269
171945,0.904,-1.726,0.534,0.452525,0.208655,0.307407,100077.02,-2,+47,+269
171956,1.043,-1.640,0.511,0.412616,0.128307,0.163205,100077.71,-1,+48,+269
171966,1.403,-1.591,0.575,0.391332,0.056472,-0.002281,100075.77,-1,+50,+269
171975,1.883,-1.725,0.677,0.380158,-0.006317,-0.192777,100076.13,-1,+50,+269
171985,2.334,-2.000,1.053,0.314708,-0.078684,-0.386464,100075.40,-1,+51,+269
171996,2.746,-1.919,1.286,0.251919,-0.151583,-0.597712,100075.40,-2,+53,+269
172006,3.177,-1.682,1.483,0.207222,-0.230867,-0.814281,100081.02,-3,+53,+269
172015,3.594,-1.542,1.600,0.169442,-0.311748,-1.009033,100077.91,-3,+53,+269
172025,3.898,-1.474,1.737,0.130066,-0.393161,-1.179308,100078.34,-4,+55,+268
172036,4.345,-1.438,2.023,0.126341,-0.464996,-1.334684,100076.24,-5,+56,+268
172046,4.867,-1.449,2.371,0.151883,-0.526720,-1.471436,100076.24,-7,+59,+269
172055,5.566,-1.407,2.819,0.201369,-0.584720,-1.598611,100078.23,-7,+59,+269
172065,6.580,-1.275,3.177,0.279589,-0.637931,-1.723656,100078.30,-8,+61,+267
172076,7.704,-1.228,3.314,0.372176,-0.695931,-1.832739,100078.03,-11,+63,+267
172086,9.040,-1.324,3.675,0.429644,-0.748078,-1.909363,100077.03,-14,+66,+267
172096,10.180,-1.398,4.142,0.463699,-0.768830,-1.972684,100077.03,-14,+66,+267
172105,10.674,-1.556,4.391,0.498286,-0.770959,-2.032812,100079.79,-16,+70,+266
172115,11.099,-1.908,4.486,0.516910,-0.761381,-2.090812,100078.41,-18,+74,+266
172126,11.500,-2.168,4.459,0.478598,-0.751803,-2.157326,100076.57,-20,+77,+265
172136,11.868,-2.087,4.412,0.375369,-0.741161,-2.228096,100075.57,-20,+77,+265
172145,12.282,-1.710,4.246,0.229571,-0.732647,-2.291950,100075.57,-21,+81,+265
172155,12.664,-1.312,3.973,0.071534,-0.701784,-2.348885,100081.34,-23,+84,+263
172166,13.128,-1.151,3.689,-0.099628,-0.645026,-2.418237,100080.23,-24,+87,+262
172176,11.532,-9.014,11.531,-0.310521,-0.327179,-2.344628,100080.08,-24,+87,+262
172186,16.518,-10.779,16.197,0.715919,-0.057400,-1.943950,100074.88,-24,+87,+262
172195,25.189,-10.999,4.346,1.126176,-0.316005,-1.082464,100074.88,-23,+94,+262
172206,36.236,7.478,-7.211,0.368983,-0.740096,-0.235345,100080.70,-25,+96,+261
172216,28.322,23.641,-5.567,-0.665970,-0.028134,-0.852060,100079.12,-24,+95,+262
172226,4.582,9.983,0.134,-0.061493,0.590710,-0.593987,100076.85,-24,+95,+262
172235,0.469,0.197,4.586,1.187900,0.814728,0.363278,100078.90,-21,+97,+261
172246,6.408,-4.920,4.809,1.464597,0.284747,0.496306,100078.90,-21,+101,+261
172256,7.957,-5.263,2.920,1.014432,0.083077,0.139792,100080.68,-20,+105,+260
172266,9.401,-2.661,4.301,1.050084,0.190031,-0.080501,100080.10,-20,+105,+260
172275,8.858,-1.540,5.250,1.060726,0.200674,-0.000685,100079.15,-19,+109,+259
172285,8.357,-2.787,4.284,0.799992,0.188435,-0.100722,100079.95,-17,+112,+259
172296,8.455,-2.492,3.302,0.315772,0.075096,-0.296538,100079.95,-17,+114,+259
172306,8.317,-1.338,3.345,-0.178026,-0.022280,-0.358263,100079.82,-17,+114,+259
172316,9.426,-0.915,2.663,-0.389805,-0.026005,-0.415730,100079.13,-16,+113,+260
172325,10.257,-0.673,1.464,-0.414814,0.029334,-0.478519,100077.76,-17,+111,+259
172336,10.475,-0.591,1.126,-0.375970,0.137353,-0.518428,100078.13,-15,+111,+259
172346,10.284,0.178,0.795,-0.309457,0.254949,-0.526409,100078.13,-15,+111,+259
172356,10.483,1.691,1.521,-0.130668,0.367756,-0.455639,100079.21,-14,+111,+262
172365,10.308,2.235,3.459,0.157204,0.453958,-0.330593,100079.79,-12,+111,+261
172376,9.322,1.070,5.031,0.247130,0.466196,-0.230556,100077.99,-10,+112,+261
172386,8.708,0.116,5.789,0.129534,0.384784,-0.191712,100076.63,-10,+112,+261
172396,8.631,0.159,5.600,-0.102466,0.241114,-0.184263,100076.63,-9,+112,+261
172401,8.976,0.666,4.821,-0.249328,0.141077,-0.173088,100079.69,-8,+111,+261
172410,9.389,1.112,4.124,-0.291365,0.097444,-0.153932,100079.69,-8,+111,+261
172421,9.682,0.863,3.410,-0.230704,0.092655,-0.129455,100078.84,-8,+111,+262
172431,9.838,0.521,2.991,-0.109383,0.119793,-0.101254,100077.27,-8,+111,+262
172441,9.870,0.660,2.940,0.011406,0.146931,-0.067199,100076.58,-8,+110,+262
172451,9.572,0.636,3.224,0.076855,0.175132,-0.026226,100079.73,-8,+110,+262
172461,9.249,0.511,3.477,0.039075,0.178857,0.022728,100079.57,-7,+112,+261
172471,8.928,0.834,3.717,-0.075328,0.156509,0.071150,100078.04,-6,+111,+262
172481,8.714,1.047,3.884,-0.170576,0.125646,0.129150,100078.04,-6,+111,+262
172490,8.648,1.058,3.799,-0.217402,0.109151,0.190343,100078.37,-6,+111,+262
172500,8.740,1.117,3.831,-0.191860,0.110747,0.240893,100078.37,-6,+109,+262
172511,8.957,0.958,3.662,-0.067879,0.120857,0.280269,100078.26,-6,+109,+262
172521,9.014,0.891,3.405,0.010341,0.147995,0.315388,100077.57,-5,+108,+263
172531,8.914,0.557,3.339,0.015662,0.171408,0.342526,100077.57,-5,+108,+263
172541,8.993,0.049,3.355,-0.024778,0.184710,0.376049,100078.10,-5,+108,+263
172551,9.227,0.051,3.459,-0.096613,0.179921,0.399462,100078.10,-4,+107,+263
172561,9.197,0.114,3.302,-0.145035,0.193756,0.414361,100079.59,-4,+107,+263
172571,9.216,0.232,3.422,-0.187604,0.206527,0.435645,100077.50,-4,+107,+263
172581,9.218,0.446,3.587,-0.200374,0.211848,0.460654,100076.08,-3,+105,+264
172591,9.163,0.114,3.645,-0.172704,0.233664,0.481939,100076.08,-3,+105,+264
172601,9.146,-0.143,3.849,-0.163126,0.243242,0.498434,100076.08,-2,+104,+264
172611,9.100,-0.075,3.855,-0.128007,0.233132,0.505351,100082.88,-2,+104,+264
172621,8.969,0.061,3.589,-0.096613,0.228875,0.533021,100078.09,-1,+102,+265
172631,8.945,0.615,3.625,-0.094484,0.253353,0.573462,100076.78,-2,+101,+265
172641,9.007,0.810,3.814,-0.066815,0.272508,0.636250,100078.47,-1,+101,+265
172651,9.022,0.407,3.792,-0.006154,0.298582,0.701700,100078.47,-1,+101,+265
172661,9.003,-0.063,3.814,0.030029,0.327316,0.747461,100080.61,+0,+101,+266
172670,8.993,-0.277,3.951,0.016195,0.341151,0.772471,100078.23,+0,+100,+266
172681,9.134,-0.069,3.976,-0.022117,0.336894,0.804397,100077.72,+0,+100,+266
172691,9.218,-0.018,3.971,-0.043402,0.347536,0.841113,100077.72,+0,+100,+266
172701,9.234,-0.409,4.049,-0.061493,0.364563,0.881553,100077.91,+1,+99,+266
172710,9.011,-0.323,3.970,-0.098209,0.380527,0.912415,100077.91,+2,+97,+266
172721,8.760,0.193,4.115,-0.087567,0.408729,0.942214,100080.98,+3,+97,+267
172731,8.729,-0.098,4.352,-0.041273,0.434802,0.985315,100077.24,+3,+97,+267
172741,9.145,-1.071,4.166,-0.032227,0.442784,1.035333,100077.18,+4,+95,+267
172750,9.622,-1.581,4.261,-0.124282,0.444912,1.063535,100077.18,+5,+95,+267
172761,9.848,-1.956,4.276,-0.270613,0.430545,1.063535,100079.80,+5,+93,+269
172771,9.720,-1.706,4.292,-0.400980,0.425756,1.057149,100077.43,+5,+93,+269
172781,9.554,-1.823,4.270,-0.464833,0.413518,1.060874,100077.54,+5,+90,+269
172791,9.731,-2.351,3.867,-0.513787,0.401811,1.075241,100076.34,+7,+88,+268
172802,10.023,-2.200,3.867,-0.578172,0.394362,1.087479,100079.24,+8,+85,+270
172811,10.470,-1.862,3.959,-0.607438,0.377334,1.111957,100079.35,+8,+85,+270
172821,10.982,-1.887,4.172,-0.629787,0.371481,1.134837,100076.09,+8,+83,+271
172831,11.431,-2.158,4.367,-0.672355,0.370417,1.146012,100076.09,+9,+79,+271
172840,11.620,-1.941,4.303,-0.734080,0.367756,1.155057,100078.15,+10,+76,+271
172851,11.757,-1.719,4.275,-0.780374,0.360307,1.167828,100078.15,+11,+76,+271
172861,11.829,-1.871,4.231,-0.796869,0.363499,1.190709,100077.82,+11,+72,+272
172871,12.103,-1.933,4.122,-0.846355,0.343811,1.227424,100079.18,+12,+69,+273
172880,12.402,-1.547,4.035,-0.917658,0.333169,1.254030,100079.91,+12,+65,+273
172891,12.334,-1.597,3.997,-0.962887,0.342215,1.279039,100077.07,+13,+61,+274
172901,11.656,-1.603,3.917,-0.989493,0.318802,1.306177,100077.07,+13,+61,+274
172911,11.588,-1.579,3.811,-1.011842,0.285279,1.337039,100079.47,+14,+55,+274
172921,11.767,-1.772,3.736,-1.034190,0.258674,1.350874,100079.78,+15,+51,+274
172932,11.844,-1.605,3.436,-1.098043,0.194820,1.360984,100073.73,+16,+45,+274
172941,12.262,-1.142,3.508,-1.201273,0.111811,1.379076,100073.73,+16,+45,+274
172951,13.085,-0.111,3.732,-1.351328,-0.011638,1.405681,100073.73,+16,+40,+275
172961,13.393,1.165,3.643,-1.525327,-0.075491,1.415791,100078.34,+15,+33,+274
172971,12.656,1.448,2.728,-1.693474,-0.070170,1.417388,100079.28,+15,+27,+274
172981,12.443,1.408,1.303,-1.878116,-0.115932,1.443461,100078.86,+15,+27,+274
172987,12.957,2.126,0.634,-1.984006,-0.176060,1.481773,100078.19,+15,+19,+274
172996,13.357,3.622,0.930,-1.994648,-0.207455,1.540305,100078.19,+15,+19,+274
173006,13.175,4.813,2.410,-1.895676,-0.193620,1.696213,100078.59,+14,+11,+272
173016,13.874,5.009,5.007,-1.493933,-0.099436,1.937791,100078.02,+14,+3,+271
173026,15.653,2.365,6.668,-0.691511,0.112343,2.351772,100077.64,+17,+0,+272
173036,17.883,-1.723,8.175,-0.009879,0.391701,2.986047,100075.97,+17,+0,+272
173046,20.112,-2.946,8.220,0.274268,0.631150,3.383001,100075.97,+20,+0,+272
173057,20.420,-3.000,7.345,0.180616,0.756196,3.506450,100076.92,+26,+0,+272
173066,18.452,-0.911,7.347,-0.030631,0.801426,3.526139,100078.13,+32,-2,+272
173076,15.877,3.140,6.911,0.020451,0.840802,3.364909,100076.50,+35,-2,+272
173086,14.104,2.407,5.793,0.217864,0.776949,3.246781,100077.39,+35,-2,+272
173096,12.620,-0.255,5.525,0.381222,0.719481,3.058414,100077.39,+40,-2,+272
173106,11.676,-2.496,6.185,0.346635,0.697664,2.791827,100080.58,+44,-1,+272
173116,11.924,-0.320,5.130,0.332268,0.610930,2.598139,100080.33,+48,+0,+272
173126,11.380,2.341,1.980,0.050782,0.425756,2.208103,100078.42,+48,+0,+272
173136,9.499,3.395,1.003,-0.196649,0.265591,1.747296,100077.69,+51,+0,+272
173146,7.734,3.722,0.808,-0.275402,0.083610,1.370030,100077.69,+51,-1,+272
173156,6.236,3.336,0.414,-0.251457,-0.098904,0.991168,100079.98,+51,-3,+272
173166,5.228,2.319,0.300,-0.131200,-0.226610,0.586232,100078.73,+51,-3,+272
173176,4.494,1.311,0.504,-0.032760,-0.331436,0.190875,100076.62,+49,-3,+272
173187,3.942,1.050,0.608,0.014066,-0.464464,-0.215657,100076.88,+48,-3,+271
173196,3.710,1.410,0.657,0.060360,-0.638996,-0.661033,100076.88,+45,-3,+272
173206,3.873,1.946,0.608,0.124745,-0.827895,-1.124501,100079.38,+45,-3,+272
173216,4.251,2.307,0.514,0.239149,-0.988592,-1.562427,100079.11,+40,-2,+272
173227,4.555,2.321,0.422,0.388139,-1.120555,-1.966830,100076.33,+33,-1,+271
173236,4.772,2.079,0.394,0.525956,-1.231234,-2.348353,100076.64,+28,+1,+272
173246,5.102,1.942,0.523,0.644084,-1.334463,-2.713912,100076.64,+28,+1,+272
173256,5.515,1.857,0.849,0.740928,-1.425986,-3.073087,100078.91,+21,+3,+271
173266,5.917,1.677,1.240,0.838836,-1.505270,-3.430132,100076.91,+13,+8,+271
173276,6.389,1.436,1.791,0.934084,-1.570188,-3.765893,100073.55,+5,+13,+271
173286,6.936,1.286,2.295,1.037845,-1.636701,-4.088352,100070.55,+5,+13,+271
173296,7.673,1.173,2.658,1.159698,-1.700554,-4.401233,100070.55,-2,+21,+270
173306,8.479,0.934,2.997,1.283680,-1.757490,-4.686443,100076.73,-10,+28,+269
173317,9.151,0.517,3.212,1.392763,-1.802720,-4.936535,100074.20,-17,+38,+267
173326,9.807,0.096,3.370,1.460340,-1.841564,-5.168535,100072.66,-17,+38,+267
173336,10.526,-0.152,3.467,1.489074,-1.878279,-5.384572,100072.15,-24,+50,+265
173346,11.406,-0.283,3.623,1.489606,-1.913931,-5.596351,100072.15,-31,+62,+262
173357,12.440,-0.380,3.806,1.468322,-1.954371,-5.796957,100076.16,-37,+74,+260
173366,13.568,-0.485,3.975,1.441717,-1.987362,-5.983195,100075.74,-37,+74,+260
173376,14.789,-0.839,4.426,1.391698,-2.002793,-6.140699,100072.34,-39,+87,+256
173386,15.797,-1.360,5.048,1.329974,-2.021417,-6.265745,100069.60,-42,+100,+253
173396,16.356,-2.069,5.682,1.261863,-2.036848,-6.367910,100069.60,-44,+112,+248
173407,16.810,-2.842,6.375,1.185240,-2.051215,-6.465818,100070.59,-44,+112,+248
173416,17.446,-3.591,7.285,1.056469,-2.049618,-6.550956,100068.86,-44,+126,+244
173426,18.484,-4.450,7.876,0.825534,-2.061857,-6.594589,100069.19,-43,+136,+241
173436,19.526,-5.362,7.983,0.531277,-2.041637,-6.567451,100070.17,-40,+148,+238
173447,20.136,-6.384,8.150,0.248727,-1.942664,-6.487635,100070.17,-40,+148,+238
173456,20.527,-7.645,8.740,0.055571,-1.755362,-6.258296,100074.93,-37,+157,+234
173466,19.500,-9.079,9.637,-0.004026,-1.449931,-5.788975,100072.20,-33,+165,+233
173476,17.359,-10.151,10.324,0.089094,-1.051913,-5.198333,100071.46,-27,+170,+231
173487,16.281,-12.032,10.724,0.189130,-0.657619,-4.566186,100073.24,-27,+170,+231
173496,15.037,-15.705,9.819,0.209350,-0.349528,-3.840389,100073.24,-21,+176,+230
173506,13.719,-19.640,9.073,0.111442,-0.134555,-2.917178,100073.21,-16,+180,+229
173516,11.078,-22.603,9.151,0.104525,0.119261,-1.724188,100074.37,-12,+182,+229
173527,9.497,-23.953,9.996,0.073662,0.364563,-0.401364,100078.01,-12,+182,+229
173536,9.548,-21.762,11.129,-0.004026,0.559316,0.911883,100075.16,-10,+182,+231
173546,10.179,-18.098,11.921,0.157204,0.825903,2.045809,100075.16,-11,+182,+230
173556,12.457,-7.924,8.752,0.447203,1.039279,2.808322,100078.05,-13,+180,+231
173566,16.489,16.817,-1.999,0.401974,0.768435,2.427864,100079.05,-14,+180,+231
173577,16.729,43.316,-13.176,-0.113108,0.395426,0.932636,100080.45,-14,+180,+231
173586,7.400,11.222,-7.424,0.645680,0.924875,1.231149,100079.05,-13,+179,+232
173596,10.380,-15.749,7.333,3.260468,1.746452,2.604524,100079.05,-12,+186,+228
173606,18.964,-11.637,6.365,2.292560,1.253187,3.426102,100079.58,-15,+188,+225
173617,19.292,0.931,-0.492,0.175295,0.862618,2.494910,100079.69,-15,+188,+225
173626,16.638,1.650,1.128,0.440286,1.260104,2.402855,100079.80,-16,+186,+226
173636,15.954,-3.080,4.179,0.963882,1.539462,2.944543,100079.38,-16,+186,+226
173646,11.058,-4.671,5.533,0.598323,1.562343,2.672635,100079.38,-17,+184,+226
173657,11.503,-1.019,5.578,0.183277,1.525627,2.435313,100078.64,-17,+184,+226
173666,10.083,0.378,7.275,0.038543,1.521370,2.459259,100078.86,-16,+183,+228
173676,8.398,-1.127,10.003,0.122084,1.560746,2.394341,100076.59,-16,+181,+229
173686,9.968,-1.593,6.683,0.046525,1.381957,2.262910,100078.91,-15,+178,+231
173697,10.437,-2.703,3.903,-0.439824,1.123884,2.083589,100078.91,-15,+178,+231
173707,9.978,-2.455,3.234,-0.785695,0.925939,1.936727,100081.13,-16,+175,+233
173716,11.260,-1.393,2.506,-0.917658,0.749279,1.839883,100082.60,-17,+170,+235
173726,11.317,-0.947,2.536,-0.999603,0.673187,1.755277,100077.60,-17,+164,+238
173736,10.409,0.329,2.979,-0.915530,0.680105,1.587131,100076.35,-17,+164,+238
173747,10.108,0.535,2.714,-0.650539,0.680105,1.414195,100076.35,-17,+160,+240
173756,9.924,0.054,2.869,-0.317970,0.718416,1.276911,100080.14,-17,+158,+241
173766,9.594,-0.224,3.505,-0.191328,0.717884,1.146012,100080.78,-16,+156,+241
173776,9.644,-0.572,3.729,-0.246668,0.642325,1.019902,100076.63,-16,+156,+241
173787,9.682,0.105,3.869,-0.305732,0.556655,0.865058,100078.98,-16,+154,+243
173796,9.261,0.849,4.129,-0.274870,0.497591,0.752250,100078.98,-15,+152,+243
173807,8.996,0.709,4.025,-0.231591,0.452539,0.678642,100079.60,-16,+151,+244
173816,9.178,0.434,4.120,-0.305732,0.392233,0.633058,100079.34,-16,+151,+244
173827,9.322,0.877,4.097,-0.478135,0.318270,0.571333,100082.38,-15,+150,+244
173837,9.067,1.395,3.739,-0.579768,0.282086,0.523443,100075.23,-15,+146,+246
173846,8.811,1.028,2.864,-0.545713,0.289536,0.523443,100075.23,-14,+144,+247
173856,9.082,0.648,2.317,-0.432906,0.335830,0.548985,100081.88,-14,+144,+247
173867,9.228,1.114,2.337,-0.281255,0.389573,0.581975,100078.99,-14,+142,+248
173877,9.292,1.232,2.813,-0.149824,0.436398,0.662324,100078.79,-14,+142,+249
173886,9.377,0.542,3.369,-0.133860,0.484288,0.709150,100075.79,-12,+140,+249
173896,9.075,-0.147,3.557,-0.287108,0.499187,0.705425,100075.79,-12,+140,+249
173906,8.710,0.306,3.940,-0.460044,0.485884,0.685205,100076.94,-12,+138,+250
173917,8.800,0.959,3.762,-0.548374,0.459279,0.695847,100079.52,-11,+136,+251
173927,9.430,0.468,3.370,-0.540392,0.465664,0.751718,100075.20,-10,+133,+253
173936,9.904,-0.338,2.986,-0.570190,0.480563,0.799076,100076.73,-10,+133,+253
173946,9.869,-0.245,3.007,-0.655328,0.506637,0.821957,100076.73,-10,+130,+253
173957,9.811,0.223,3.138,-0.715988,0.536967,0.846966,100077.72,-9,+127,+254
173967,9.838,0.394,3.508,-0.725566,0.574215,0.884214,100078.14,-8,+124,+256
173976,10.069,0.232,3.689,-0.711199,0.602949,0.927315,100077.52,-8,+124,+256
173986,10.130,-0.158,3.802,-0.735677,0.606141,0.975737,100077.36,-6,+120,+257
173997,10.156,-0.345,3.871,-0.798465,0.605077,1.015113,100077.36,-6,+118,+257
174007,10.198,-0.247,3.733,-0.880410,0.617848,1.043314,100080.12,-5,+114,+259
174016,10.433,-0.296,3.545,-0.924043,0.640196,1.098654,100080.45,-3,+110,+260
174026,10.913,-0.156,3.113,-0.944264,0.647646,1.173681,100080.12,-3,+110,+260
174036,11.303,0.527,3.235,-0.901163,0.640728,1.293406,100077.65,-2,+105,+262
174047,11.718,0.883,3.431,-0.788888,0.656160,1.443461,100077.65,-1,+102,+263
174057,12.404,0.591,3.285,-0.692044,0.672655,1.602562,100078.59,+0,+97,+264
174066,12.883,0.072,2.977,-0.659585,0.691279,1.754213,100077.80,+0,+97,+264
174076,12.710,0.146,2.702,-0.671291,0.688618,1.902672,100077.49,+1,+94,+265
174087,12.597,0.539,2.794,-0.657988,0.694472,2.059644,100077.49,+1,+90,+266
174097,12.753,0.770,2.873,-0.607970,0.696600,2.232580,100077.49,+3,+86,+266
174106,12.921,1.240,3.243,-0.593071,0.704049,2.405515,100079.69,+3,+86,+266
174116,13.470,1.878,3.510,-0.623933,0.711499,2.570469,100077.75,+5,+82,+267
174127,14.408,1.822,3.483,-0.728227,0.753004,2.708818,100080.00,+6,+78,+268
174137,14.840,2.016,3.358,-0.961291,0.776416,2.808322,100076.44,+7,+72,+269
174146,15.440,2.917,3.068,-1.259273,0.733848,2.883882,100076.44,+7,+72,+269
174156,17.122,4.618,2.964,-1.625896,0.615719,2.937625,100079.36,+10,+65,+270
174167,18.870,6.292,2.657,-2.146300,0.526325,2.921130,100079.41,+10,+56,+271
174177,19.834,6.218,0.917,-2.951914,0.489077,2.820561,100077.98,+12,+42,+272
174187,20.561,6.883,-0.245,-4.065619,0.377334,2.608249,100077.36,+12,+42,+272
174196,20.509,10.532,1.111,-4.920720,0.211316,2.433185,100077.36,+12,+25,+272
174206,18.614,12.462,5.497,-4.427986,0.232600,2.684873,100079.34,+14,+5,+271
174217,19.273,8.601,8.337,-2.313914,0.406600,3.496340,100079.23,+19,-3,+269
174227,22.125,2.059,7.759,-0.270081,0.587517,4.200322,100076.80,+19,-3,+269
174236,21.168,-2.944,7.791,0.042268,0.596563,4.326432,100077.23,+24,-3,+270
174246,19.083,-0.316,7.388,-0.239750,0.524729,3.977900,100077.23,+30,-5,+269
174257,16.925,5.289,6.490,-0.071071,0.624233,3.486763,100080.40,+34,-6,+269
174267,12.225,7.457,4.946,0.447736,0.631150,2.969020,100081.55,+34,-6,+269
174277,9.439,2.555,5.603,1.068176,0.357114,2.592818,100077.76,+38,-4,+270
174286,7.163,-6.558,9.450,1.566230,0.407664,2.281534,100078.13,+41,+0,+272
174297,7.902,-3.123,5.939,1.289533,0.143206,1.566910,100078.13,+43,+4,+271
174307,8.187,0.753,1.748,0.647277,-0.124978,0.732030,100080.66,+43,+4,+271
174317,5.485,3.147,1.308,0.399846,-0.207987,-0.075712,100080.33,+42,+7,+271
174326,4.509,3.263,0.191,0.245534,-0.468188,-0.484373,100079.17,+42,+8,+271
174337,3.693,1.754,-0.556,0.196580,-0.711895,-0.879730,100079.66,+38,+10,+270
174347,3.065,0.205,-0.396,0.186470,-0.923142,-1.269235,100079.66,+38,+10,+270
174357,2.728,-0.271,0.244,0.180616,-1.112041,-1.661932,100076.76,+35,+11,+270
174366,2.466,-0.016,1.057,0.247130,-1.243472,-2.095601,100080.27,+30,+14,+269
174376,2.211,0.616,1.323,0.397717,-1.362133,-2.531931,100077.18,+23,+17,+269
174387,2.580,1.059,1.275,0.605772,-1.468555,-2.932610,100076.07,+23,+17,+269
174392,3.309,1.123,1.136,0.802121,-1.531876,-3.214628,100076.07,+17,+21,+268
174402,4.037,0.869,1.108,0.993148,-1.582426,-3.478022,100076.07,+12,+27,+267
174412,4.727,0.303,1.343,1.206524,-1.643087,-3.794627,100075.94,+12,+27,+267
174422,5.009,-0.512,1.732,1.257074,-1.702151,-4.076646,100076.52,+5,+34,+267
174432,5.442,-0.925,1.557,1.123515,-1.843692,-4.346426,100075.78,+0,+43,+265
174442,5.899,-0.639,1.649,1.055405,-1.940536,-4.636425,100072.08,-5,+50,+262
174452,6.638,-0.395,1.961,1.055937,-1.953839,-4.910994,100071.34,-5,+50,+262
174461,7.345,-0.412,2.306,1.078818,-1.947986,-5.160553,100071.92,-12,+59,+260
174472,8.139,-0.377,2.562,1.089460,-1.949582,-5.404792,100071.92,-15,+69,+258
174482,9.121,-0.437,2.600,1.093717,-1.954903,-5.642645,100072.72,-18,+80,+256
174492,10.190,-0.801,2.618,1.099570,-1.935747,-5.870388,100071.45,-18,+80,+256
174501,11.272,-1.161,2.712,1.127772,-1.942664,-6.090149,100071.45,-19,+90,+253
174512,12.925,-1.474,2.876,1.155974,-1.967674,-6.279580,100073.33,-20,+100,+249
174522,14.824,-2.099,3.362,1.154909,-1.954903,-6.405158,100073.28,-19,+111,+246
174532,16.006,-2.678,4.110,1.106487,-1.968206,-6.492424,100073.64,-19,+111,+246
174542,17.277,-3.248,5.149,1.026671,-2.020885,-6.601506,100073.33,-16,+120,+243
174552,19.103,-4.578,6.665,0.948451,-2.051747,-6.689837,100075.00,-14,+129,+239
174562,20.565,-6.513,7.769,0.814359,-2.075692,-6.689837,100073.33,-10,+136,+236
174572,21.083,-8.344,8.057,0.580231,-2.081013,-6.569580,100075.33,-10,+136,+236
174582,20.712,-9.425,8.806,0.304598,-2.005453,-6.337580,100073.17,-6,+142,+234
174592,19.345,-9.112,10.299,0.117827,-1.787820,-5.994369,100073.17,-3,+146,+233
174602,17.192,-8.830,12.195,0.069938,-1.419068,-5.502168,100073.17,+0,+147,+233
174612,16.090,-10.043,13.510,0.065681,-0.952408,-4.936535,100076.88,+0,+147,+233
174622,15.401,-12.926,12.145,-0.051916,-0.533106,-4.295343,100075.77,+4,+149,+233
174627,14.186,-15.785,10.558,-0.181218,-0.281418,-3.743545,100073.98,+9,+149,+233
174637,13.070,-18.736,8.428,-0.233897,-0.159565,-3.076811,100078.08,+9,+149,+233
174647,11.435,-21.690,7.566,-0.256246,-0.011638,-1.976408,100078.08,+11,+148,+234
174657,9.617,-22.037,8.550,-0.275402,0.168747,-0.701473,100078.44,+13,+146,+234
174667,9.040,-19.824,9.420,-0.250392,0.380527,0.578251,100080.59,+14,+143,+234
174676,9.841,-15.469,9.799,0.001828,0.641793,1.730268,100078.08,+14,+143,+234
174687,12.366,-4.553,7.876,0.515846,0.859958,2.470433,100074.92,+14,+142,+234
174697,15.557,18.946,-1.129,0.880873,0.707774,2.400726,100074.92,+13,+141,+235
174707,16.491,34.523,-10.306,-0.055640,0.502912,1.080562,100084.41,+14,+140,+236
174716,6.874,3.286,-1.579,1.557716,1.350563,1.661094,100080.69,+14,+140,+236
174727,14.462,-10.111,5.690,3.544614,1.733150,3.131313,100077.73,+17,+146,+233
174737,23.201,-7.146,1.375,1.758322,1.170178,3.451643,100078.16,+16,+151,+232
174747,19.362,-2.878,-0.549,0.055039,1.074398,2.596543,100078.16,+16,+147,+231
174757,14.017,0.281,4.869,0.279057,1.325022,2.891864,100083.84,+16,+147,+231
174767,13.138,2.217,8.066,0.867570,1.518177,3.179735,100079.37,+16,+146,+232
174777,9.068,-0.656,11.276,1.234726,1.765608,2.869515,100079.52,+18,+148,+231
174787,9.136,-2.473,9.817,1.529515,1.949186,2.720524,100073.59,+20,+152,+231
174796,10.918,-4.654,4.655,1.242175,1.731021,2.638047,100073.59,+20,+152,+231
174807,10.314,-4.980,4.840,0.767001,1.554361,2.497038,100082.91,+21,+152,+230
174817,11.026,-4.363,3.698,0.368451,1.289370,2.300690,100078.22,+23,+153,+230
174827,12.900,-7.112,2.347,-0.299347,0.940838,2.157552,100076.95,+23,+150,+231
174837,12.623,-5.247,2.250,-1.091126,0.732251,1.946305,100075.59,+23,+150,+231
174846,10.886,-1.862,2.520,-1.678575,0.586985,1.600965,100075.59,+22,+145,+234
174857,9.561,0.458,2.450,-1.629621,0.535903,1.275846,100081.43,+21,+138,+236
174863,9.881,1.506,2.123,-1.307162,0.556123,1.101846,100079.65,+21,+138,+236
174872,10.056,2.298,2.557,-0.935750,0.617848,1.006067,100079.65,+22,+134,+238
174882,9.908,2.082,3.328,-0.587750,0.663077,1.011388,100074.91,+23,+132,+238
174893,9.813,0.625,3.631,-0.398851,0.645517,1.000746,100079.70,+24,+129,+238
174902,9.837,0.558,3.528,-0.324888,0.583261,0.898581,100079.70,+24,+129,+238
174912,9.576,1.369,3.584,-0.233897,0.548673,0.786838,100079.82,+24,+129,+240
174922,9.064,0.859,3.628,-0.121622,0.530582,0.720856,100079.82,+26,+128,+240
174932,8.906,-0.304,3.849,-0.190796,0.486417,0.663388,100075.30,+27,+126,+241
174942,8.783,-0.486,4.019,-0.460576,0.400747,0.553774,100075.30,+27,+126,+241
174952,8.983,0.569,3.939,-0.751108,0.318270,0.439370,100075.30,+27,+125,+241
174962,8.985,1.345,3.545,-0.864447,0.270380,0.379241,100083.13,+28,+122,+243
174972,9.072,1.313,2.725,-0.776649,0.275169,0.368599,100082.29,+28,+120,+243
174982,9.254,0.687,1.810,-0.604778,0.312417,0.386159,100079.35,+28,+120,+243
174992,9.515,0.825,1.561,-0.377035,0.370417,0.425003,100080.82,+29,+118,+245
175002,9.382,0.895,2.190,-0.152484,0.443316,0.479810,100080.82,+30,+117,+244
175012,9.261,0.195,3.250,-0.125347,0.485884,0.520251,100082.29,+31,+116,+244
175023,9.209,0.226,4.045,-0.321163,0.473114,0.496838,100078.05,+31,+116,+244
175032,8.796,1.069,4.363,-0.528154,0.438527,0.463315,100076.77,+32,+114,+245
175042,8.686,1.281,4.081,-0.579768,0.425224,0.479810,100076.77,+33,+112,+246
175052,8.953,1.017,3.368,-0.542521,0.428949,0.532489,100080.49,+34,+110,+246
175062,9.608,0.567,2.896,-0.520172,0.447573,0.606984,100080.49,+34,+110,+246
175072,9.923,0.503,2.904,-0.571787,0.488545,0.660195,100079.60,+35,+108,+247
175082,9.880,0.730,2.987,-0.670759,0.527389,0.710746,100078.76,+37,+106,+248
175092,9.872,0.639,2.925,-0.744190,0.558251,0.777792,100076.60,+37,+103,+248
175101,9.877,0.452,2.823,-0.817621,0.594435,0.858140,100076.60,+37,+103,+248
175112,9.847,0.773,2.724,-0.867108,0.615719,0.957113,100080.44,+39,+100,+249
175122,9.728,1.766,3.422,-0.837309,0.639664,1.074177,100079.92,+40,+96,+250
175132,9.663,1.689,3.926,-0.704814,0.654031,1.223168,100076.92,+42,+94,+251
175142,10.327,0.879,3.950,-0.606374,0.672655,1.359920,100077.59,+44,+91,+252
175153,10.755,0.864,4.316,-0.637236,0.673719,1.473259,100081.59,+44,+91,+252
175162,10.825,1.290,4.361,-0.681933,0.675848,1.588195,100079.63,+44,+88,+252
175172,11.712,0.974,3.693,-0.652135,0.668398,1.729204,100079.63,+46,+86,+252
175182,12.494,0.694,3.401,-0.622337,0.680637,1.881387,100077.01,+46,+83,+253
175192,12.754,0.308,2.956,-0.594135,0.693939,2.023461,100077.90,+46,+83,+253
175202,13.113,-0.095,2.688,-0.552631,0.701921,2.175112,100077.90,+47,+80,+254
175213,13.488,-0.047,2.709,-0.535958,0.704049,2.328892,100078.44,+49,+79,+254
175222,13.520,0.267,2.963,-0.566998,0.710435,2.444891,100078.44,+51,+75,+255
175233,13.386,0.711,3.230,-0.634044,0.719481,2.577387,100078.77,+51,+75,+255
175242,13.520,1.288,3.393,-0.736741,0.723205,2.714671,100079.45,+52,+72,+255
175252,14.218,2.017,3.479,-0.868172,0.720013,2.856212,100079.45,+53,+69,+256
175262,15.755,3.088,3.814,-1.020887,0.685958,3.004671,100080.75,+55,+65,+257
175272,17.949,4.532,3.820,-1.289071,0.657756,3.138231,100079.69,+55,+65,+257
175283,19.824,5.030,3.359,-1.817456,0.700325,3.161111,100076.91,+56,+59,+257
175292,21.543,5.989,1.657,-2.699162,0.616251,3.062671,100076.91,+57,+49,+258
175302,22.909,9.329,0.205,-3.963454,0.385848,2.898249,100076.91,+58,+32,+258
175312,23.160,13.548,0.149,-5.175068,0.238453,2.721589,100080.99,+58,+32,+258
175322,20.367,14.784,2.008,-5.358114,0.223554,2.717864,100079.26,+58,+11,+257
175332,17.505,9.005,5.392,-3.883106,0.353921,3.145148,100081.35,+60,-3,+256
175342,18.506,2.659,7.183,-1.435933,0.489609,3.810817,100079.88,+65,-9,+256
175352,19.995,-0.419,6.787,0.060360,0.456618,4.220542,100079.88,+65,-9,+256
175363,18.402,-0.322,7.306,0.265754,0.440655,4.044946,100078.99,+69,-7,+257
175372,15.925,3.181,6.242,0.517442,0.693939,3.528799,100080.27,+74,-7,+257
175382,12.421,4.957,5.851,0.711130,0.917958,2.826414,100079.40,+79,-5,+258
175392,9.890,5.204,5.264,0.683992,0.433738,2.170855,100079.40,+79,-5,+258
175403,6.796,-2.415,6.310,0.956965,0.242178,1.793057,100079.93,+81,-5,+259
175412,4.602,-1.872,6.255,1.224084,0.205463,1.122067,100079.93,+81,-1,+259
175422,7.490,2.692,1.734,0.729222,-0.176592,0.420214,100080.13,+81,+0,+260
175432,5.288,4.096,0.686,0.575442,-0.268115,-0.434354,100079.09,+81,+0,+260
175442,3.868,4.657,0.241,0.440286,-0.474574,-1.057987,100078.71,+78,+0,+262
175448,3.902,3.644,-0.312,0.361534,-0.692207,-1.320317,100078.71,+74,+0,+262
175457,3.486,2.035,-0.330,0.382286,-0.842794,-1.541675,100079.17,+74,+0,+262
175467,2.625,0.542,0.310,0.556286,-0.964647,-1.850298,100080.48,+69,+0,+263
175477,2.272,-0.198,1.054,0.754231,-1.095014,-2.213729,100079.38,+63,+0,+264
175488,2.268,-0.566,1.626,0.859589,-1.227509,-2.627179,100078.64,+56,+1,+266
175497,2.703,-0.303,1.715,0.893111,-1.373307,-3.056591,100078.64,+56,+1,+266
175507,3.685,0.338,1.468,0.913332,-1.506334,-3.458866,100081.32,+48,+3,+266
175517,4.745,0.657,1.402,0.960157,-1.608500,-3.810591,100080.80,+40,+6,+267
175527,5.272,0.412,1.348,1.019754,-1.699490,-4.102187,100075.60,+32,+11,+268
175538,5.334,0.081,1.553,1.045827,-1.758022,-4.368774,100074.07,+32,+11,+268
175547,5.802,-0.152,1.725,1.022946,-1.823472,-4.618865,100074.07,+21,+15,+268
175557,6.814,-0.227,1.707,1.083075,-1.853802,-4.865232,100076.52,+12,+21,+267
175567,7.909,-0.176,1.968,1.201735,-1.842628,-5.085526,100073.63,+4,+29,+267
175578,8.802,-0.093,2.641,1.327313,-1.833582,-5.281342,100075.58,+4,+29,+267
175587,9.825,-0.187,3.322,1.468322,-1.838903,-5.462259,100076.05,-3,+38,+267
175597,10.846,-0.708,3.833,1.532707,-1.860187,-5.647434,100076.05,-10,+48,+266
175607,11.947,-1.219,4.066,1.536964,-1.895307,-5.869323,100078.97,-18,+59,+264
175618,13.252,-1.462,4.084,1.485882,-1.934151,-6.091213,100077.19,-18,+59,+264
175627,14.526,-1.505,4.191,1.436396,-1.950114,-6.255103,100077.08,-24,+71,+262
175637,15.541,-1.495,4.294,1.468322,-1.953839,-6.353011,100077.77,-28,+83,+259
175647,17.011,-2.300,4.527,1.479496,-1.984169,-6.400369,100077.77,-32,+95,+256
175657,19.081,-3.806,4.971,1.339552,-2.073563,-6.400901,100078.53,-32,+95,+256
175668,20.727,-5.362,5.558,1.016029,-2.178921,-6.334387,100081.06,-35,+108,+253
175677,21.397,-6.409,6.778,0.643020,-2.237453,-6.202956,100077.17,-37,+118,+249
175687,20.821,-6.507,8.437,0.319497,-2.196481,-6.015121,100076.70,-39,+127,+246
175697,18.221,-5.795,10.597,0.164121,-1.944793,-5.776736,100076.70,-39,+127,+246
175708,15.797,-5.734,12.668,0.149754,-1.483986,-5.495250,100076.98,-38,+135,+244
175717,15.202,-8.751,12.617,-0.102466,-1.014133,-5.096168,100077.09,-36,+142,+243
175727,14.290,-13.463,10.425,-0.678741,-0.652298,-4.580554,100075.05,-32,+146,+243
175737,13.605,-17.016,7.682,-1.357713,-0.452757,-3.901582,100079.36,-32,+146,+243
175748,11.882,-18.127,6.509,-1.687621,-0.304298,-2.933674,100079.36,-29,+145,+243
175758,9.647,-18.730,7.091,-1.674850,-0.155840,-1.758243,100076.72,-26,+142,+245
175767,8.921,-18.133,8.042,-1.514153,0.005389,-0.437015,100080.41,-26,+137,+247
175777,9.001,-14.969,8.694,-0.992153,0.267720,0.805993,100078.52,-26,+137,+247
175788,9.553,-12.559,8.976,-0.132264,0.601352,1.895754,100078.09,-27,+133,+248
175798,11.319,-6.692,9.207,0.670690,0.917426,2.714671,100078.09,-27,+132,+249
175807,14.147,9.248,3.668,1.089992,0.992985,2.699240,100080.56,-26,+132,+248
175817,17.631,35.289,-8.461,0.618011,0.668398,1.431222,100079.31,-26,+132,+248
175827,12.118,13.545,-8.250,0.512121,0.928068,1.215186,100081.52,-24,+133,+250
175838,12.712,-8.233,3.095,3.055073,1.729957,2.722121,100080.09,-23,+137,+248
175847,22.010,-7.347,2.809,2.599587,1.400581,3.613405,100080.09,-21,+144,+246
175857,21.799,-6.674,-0.817,0.605772,1.136655,2.882818,100080.50,-21,+141,+247
175867,15.875,-3.448,1.134,-0.062026,1.148893,2.715735,100078.83,-21,+141,+247
175878,13.380,-0.317,5.965,0.154543,1.329811,3.009992,100074.88,-22,+138,+248
175887,9.483,0.751,10.607,0.630781,1.549572,2.725313,100077.61,-18,+137,+248
175897,8.428,-0.530,12.863,1.227808,1.840104,2.489057,100077.61,-15,+140,+249
175907,11.451,-2.468,5.985,1.422561,1.696966,2.442763,100080.34,-15,+140,+249
175918,11.423,-4.832,3.402,1.087864,1.475077,2.368800,100079.03,-13,+142,+249
175928,10.906,-3.480,4.191,0.769662,1.369719,2.190543,100077.72,-11,+142,+249
175937,11.660,-4.925,3.047,0.294488,1.080783,1.964396,100075.88,-10,+141,+249
175947,11.964,-5.485,2.585,-0.450998,0.817389,1.793589,100075.88,-10,+141,+249
175958,11.785,-2.786,2.614,-1.169878,0.617316,1.591920,100082.38,-10,+137,+251
175968,10.842,-0.176,2.690,-1.526392,0.492802,1.371626,100080.02,-10,+130,+254
175977,9.967,1.337,2.557,-1.424759,0.461940,1.140690,100077.80,-10,+124,+256
175987,9.742,2.464,2.312,-0.983108,0.543352,0.953388,100077.69,-10,+124,+256
175997,9.741,2.225,2.890,-0.573915,0.632215,0.924654,100077.69,-8,+121,+256
176008,9.724,1.302,3.384,-0.389805,0.629554,0.929975,100080.70,-8,+118,+257
176018,9.682,1.334,3.762,-0.340319,0.596031,0.879425,100081.55,-6,+118,+258
176027,9.370,1.104,3.606,-0.309457,0.556123,0.776727,100079.81,-6,+118,+258
176033,9.311,0.833,3.449,-0.288704,0.536967,0.700636,100078.02,-5,+116,+259
176043,9.248,0.525,3.721,-0.334466,0.503444,0.650617,100078.02,-5,+116,+259
176053,9.085,0.747,4.200,-0.502612,0.426288,0.588893,100078.02,-4,+114,+261
176063,8.943,1.380,4.770,-0.767603,0.341683,0.500030,100078.23,-3,+111,+261
176072,8.671,1.915,4.432,-0.941071,0.275169,0.406379,100078.10,-2,+107,+262
176082,8.535,2.215,3.383,-0.931493,0.251756,0.365939,100078.76,-3,+104,+262
176093,8.747,2.158,2.404,-0.743126,0.292197,0.421278,100078.76,-3,+104,+262
176103,9.234,1.548,2.207,-0.454190,0.366692,0.534085,100082.02,-1,+103,+264
176112,9.537,0.831,2.675,-0.260503,0.418839,0.618159,100082.02,-1,+100,+264
176122,9.190,0.984,3.519,-0.252521,0.436930,0.633590,100080.09,+0,+99,+264
176133,8.754,0.932,4.255,-0.351493,0.434270,0.622948,100079.46,+0,+99,+264
176143,8.525,1.043,4.407,-0.495163,0.408196,0.608049,100078.20,+1,+97,+264
176152,8.575,1.404,4.106,-0.582961,0.389573,0.606452,100078.20,+2,+94,+265
176162,8.750,1.244,3.808,-0.592007,0.393830,0.637315,100077.08,+2,+93,+267
176173,8.880,0.982,3.539,-0.556356,0.410325,0.679351,100076.55,+2,+93,+267
176183,8.936,1.085,3.388,-0.507401,0.432674,0.728838,100077.28,+3,+89,+267
176193,9.206,1.228,3.478,-0.449934,0.462472,0.778856,100075.85,+5,+87,+267
176202,9.626,0.784,3.514,-0.424392,0.505040,0.835792,100078.90,+6,+85,+267
176212,9.683,0.463,3.575,-0.474411,0.550270,0.872507,100078.80,+6,+85,+267
176223,9.412,0.755,3.630,-0.560080,0.576343,0.902838,100078.12,+8,+82,+268
176232,9.368,1.110,3.677,-0.582961,0.592306,0.962966,100078.12,+10,+79,+269
176242,9.542,1.096,3.744,-0.556356,0.627958,1.052892,100076.16,+11,+77,+269
176252,9.598,0.876,3.757,-0.562741,0.663077,1.144415,100076.16,+11,+77,+269
176263,9.892,1.067,3.747,-0.579768,0.673719,1.246048,100079.56,+14,+75,+271
176273,10.464,1.080,3.747,-0.580833,0.676380,1.370562,100077.56,+16,+71,+272
176283,10.913,0.876,3.911,-0.606906,0.696600,1.492947,100077.14,+18,+69,+272
176292,11.279,0.777,3.601,-0.657988,0.701389,1.621718,100075.63,+18,+69,+272
176303,11.581,0.962,3.526,-0.678209,0.704049,1.766984,100075.63,+19,+65,+272
176313,11.905,0.928,3.558,-0.661713,0.708838,1.926617,100078.68,+22,+62,+272
176323,12.325,0.602,3.510,-0.658521,0.722141,2.088910,100077.16,+24,+58,+272
176332,12.959,0.400,3.335,-0.675016,0.728527,2.234708,100077.43,+24,+58,+272
176343,13.570,0.419,3.241,-0.695768,0.730655,2.381038,100077.43,+26,+55,+273
176353,13.492,0.601,3.152,-0.753768,0.749279,2.518323,100077.43,+29,+51,+274
176363,13.168,1.202,3.161,-0.831988,0.772692,2.662524,100080.63,+32,+47,+274
176372,13.324,1.606,3.085,-0.904887,0.778545,2.830671,100079.74,+32,+47,+274
176382,14.257,1.529,2.854,-1.025144,0.775352,2.999350,100078.26,+34,+43,+274
176393,16.149,1.984,2.791,-1.247566,0.715224,3.139827,100078.43,+37,+38,+274
176403,18.618,3.294,2.902,-1.617382,0.585921,3.236139,100078.43,+40,+31,+274
176413,20.750,5.322,1.853,-2.218667,0.563573,3.216983,100083.77,+40,+31,+274
176422,21.918,6.998,-0.400,-3.115272,0.591774,3.080230,100081.19,+42,+21,+273
176433,23.255,9.482,-2.457,-4.264628,0.437463,2.940818,100079.63,+46,+6,+272
176443,23.618,12.883,-2.271,-5.235197,0.209187,2.842377,100079.63,+47,-12,+270
176453,20.563,12.988,1.610,-5.062793,0.150123,2.967423,100080.16,+47,-12,+270
176462,18.049,6.281,7.688,-3.264794,0.259206,3.452175,100080.16,+50,-29,+266
176473,19.860,-2.192,9.588,-1.358245,0.080949,4.195533,100077.16,+55,-35,+265
176483,20.326,-3.056,10.739,-0.195053,0.048490,4.498835,100080.84,+60,-35,+264
176493,18.776,1.818,8.115,0.658983,0.292197,4.222138,100077.69,+60,-35,+264
176502,16.720,6.000,6.729,1.375735,0.610930,3.910854,100077.69,+65,-31,+265
176513,12.724,6.337,7.085,1.912102,0.537499,3.412267,100081.42,+71,-24,+266
176523,7.758,0.976,6.349,1.861551,0.229408,2.788634,100080.67,+74,-17,+267
176533,6.280,-4.944,8.086,1.793973,0.141609,2.230983,100079.31,+76,-17,+267
176543,7.763,-2.860,6.109,1.469386,-0.166482,1.560525,100079.73,+76,-9,+267
176552,8.608,0.279,2.864,0.989423,-0.492133,0.887406,100079.70,+75,-5,+268
176563,6.793,2.380,1.886,0.694634,-0.667729,0.144581,100082.74,+73,-2,+269
176573,5.011,2.703,1.412,0.403038,-0.944959,-0.347620,100082.05,+69,+0,+269
176582,3.215,1.955,1.415,0.184341,-1.267949,-0.657308,100082.05,+69,+0,+269
176592,2.108,0.578,1.522,0.120488,-1.511123,-0.989877,100083.01,+62,+0,+269
176603,1.932,-0.538,1.577,0.162525,-1.682463,-1.430996,100083.01,+56,+0,+268
176613,2.227,-1.113,1.870,0.156139,-1.849545,-1.928519,100083.44,+48,+0,+269
176618,2.430,-0.864,1.744,0.131662,-1.989490,-2.290885,100084.38,+48,+0,+269
176627,2.510,-0.322,1.616,0.119956,-2.084206,-2.605362,100081.11,+37,+1,+269
176637,2.746,0.382,1.700,0.199240,-2.162958,-2.983160,100081.33,+37,+1,+269
176648,3.164,0.590,1.823,0.342378,-2.216701,-3.332756,100081.33,+28,+3,+268
176658,3.857,0.328,1.998,0.467956,-2.250756,-3.651490,100078.62,+17,+6,+267
176668,4.399,0.183,2.378,0.555754,-2.252352,-3.933508,100077.35,+6,+11,+267
176677,4.424,0.232,2.730,0.656323,-2.235325,-4.180407,100077.15,+6,+11,+267
176688,4.599,0.141,3.164,0.776579,-2.194885,-4.451251,100074.52,-2,+17,+266
176698,5.157,-0.121,3.339,0.847350,-2.172536,-4.767324,100074.52,-12,+23,+265
176708,5.740,-0.222,3.538,0.879277,-2.145930,-5.064241,100076.73,-21,+33,+262
176717,6.375,0.139,3.859,0.919185,-2.094848,-5.328700,100076.25,-21,+33,+262
176728,7.356,0.607,4.043,1.055937,-2.010775,-5.567085,100076.36,-29,+41,+261
176738,8.525,0.643,4.068,1.309221,-1.889986,-5.777268,100074.16,-36,+53,+258
176748,9.832,0.174,4.009,1.606671,-1.783564,-5.966167,100074.16,-40,+67,+256
176758,11.439,-0.509,4.049,1.844524,-1.725564,-6.115158,100074.89,-40,+67,+256
176768,12.960,-1.390,4.439,2.059496,-1.643087,-6.224773,100076.14,-42,+83,+254
176778,14.080,-2.374,5.069,2.184010,-1.582426,-6.305121,100076.36,-44,+98,+249
176788,15.210,-3.389,5.823,2.163790,-1.615417,-6.376424,100075.52,-44,+114,+246
176798,16.829,-4.323,6.746,1.973294,-1.743123,-6.443470,100075.52,-42,+114,+241
176807,18.535,-5.644,7.656,1.561973,-1.886793,-6.533396,100080.13,-42,+130,+241
176818,20.088,-7.785,8.147,0.877148,-2.044297,-6.611084,100077.33,-40,+144,+237
176828,21.084,-9.621,8.708,0.123681,-2.113472,-6.536589,100079.44,-37,+151,+235
176838,20.440,-10.300,10.021,-0.429181,-1.988426,-6.288094,100076.02,-33,+158,+233
176847,18.144,-9.901,11.823,-0.671823,-1.662243,-5.908167,100076.02,-33,+158,+233
176854,16.980,-9.637,13.136,-0.698429,-1.331802,-5.518663,100077.00,-29,+163,+233
176863,16.249,-10.223,14.166,-0.665438,-0.946023,-5.031783,100077.00,-29,+163,+233
176873,14.778,-12.440,12.582,-0.625530,-0.497986,-4.306517,100076.75,-24,+166,+232
176883,13.327,-16.317,9.672,-0.581365,-0.160629,-3.448756,100077.42,-19,+168,+233
176893,11.946,-20.357,7.252,-0.454723,0.059132,-2.294078,100073.06,-14,+169,+234
176903,10.221,-22.403,7.384,-0.324356,0.283151,-0.895161,100079.60,-14,+169,+234
176913,9.611,-21.464,8.494,-0.231769,0.513554,0.543663,100078.40,-12,+168,+236
176923,10.093,-18.444,9.426,-0.089695,0.768435,1.817534,100078.98,-13,+166,+235
176932,13.133,-6.992,7.604,0.021516,0.932857,2.665717,100078.98,-12,+164,+236
176943,16.622,20.894,-3.161,-0.265292,0.602949,2.223002,100076.29,-12,+164,+236
176953,16.442,49.236,-11.511,-0.670227,0.480031,0.508012,100076.29,-14,+162,+238
176963,8.114,13.932,-5.329,0.599387,1.125480,1.085883,100077.48,-12,+160,+238
176973,10.889,-16.525,8.805,3.775550,2.090195,2.779057,100078.06,-10,+169,+234
176983,19.345,-12.905,5.367,2.546908,1.465499,3.599038,100076.86,-10,+169,+234
176993,20.355,-1.338,-2.230,-0.022117,0.954141,2.472561,100080.17,-11,+172,+235
177003,15.967,2.204,0.727,-0.052448,1.186673,2.296433,100080.17,-10,+170,+234
177013,13.551,1.268,5.670,0.607901,1.445811,2.912616,100077.55,-10,+168,+235
177024,9.218,-1.936,7.514,0.716451,1.557021,2.626341,100076.99,-9,+168,+235
177033,9.747,-1.979,9.887,0.682396,1.667700,2.313993,100078.05,-9,+168,+235
177043,10.799,-1.592,9.755,0.597258,1.699627,2.258653,100078.05,-7,+168,+236
177053,12.745,-3.801,5.031,0.454121,1.522434,2.219277,100078.05,-5,+168,+236
177063,13.150,-4.809,3.667,0.063020,1.327150,2.157020,100080.17,-5,+166,+238
177073,10.494,-3.321,3.983,-0.357879,1.159535,1.849461,100079.75,-5,+166,+238
177083,9.912,-2.975,3.511,-0.730355,0.892416,1.616929,100077.53,-5,+162,+239
177093,10.817,-2.310,2.754,-1.028869,0.673719,1.454635,100079.33,-4,+158,+241
177102,11.366,-0.539,2.986,-1.154447,0.552930,1.275846,100079.33,-5,+154,+243
177114,10.625,0.952,2.766,-1.091658,0.495995,1.094929,100078.97,-5,+154,+243
177123,10.047,1.579,2.105,-0.864447,0.529517,0.945938,100080.23,-4,+149,+246
177133,9.951,1.278,2.045,-0.567530,0.615719,0.875168,100077.84,-4,+147,+246
177143,10.068,1.001,2.554,-0.410025,0.639664,0.864526,100077.84,-3,+144,+247
177154,10.014,0.800,2.955,-0.356282,0.633279,0.798544,100078.52,-3,+144,+247
177163,9.839,0.794,3.210,-0.340319,0.606141,0.700636,100078.52,-1,+142,+249
177173,9.445,0.990,3.489,-0.341915,0.556123,0.613370,100078.09,-1,+141,+249
177183,8.958,1.268,3.796,-0.379163,0.495995,0.548452,100077.52,+0,+140,+250
177192,8.750,1.627,4.260,-0.487181,0.433206,0.496838,100076.98,+0,+140,+250
177203,8.547,2.343,4.643,-0.618080,0.356050,0.450012,100076.98,+0,+137,+252
177213,8.517,2.198,4.102,-0.704282,0.306031,0.427131,100080.88,+1,+134,+253
177223,8.818,1.788,3.077,-0.685126,0.310288,0.436177,100079.66,+1,+132,+253
177233,9.198,2.027,2.345,-0.569658,0.336894,0.495241,100079.30,+1,+132,+253
177244,9.183,2.525,2.284,-0.380759,0.395426,0.588361,100076.20,+1,+130,+254
177253,9.081,2.061,3.043,-0.245071,0.453958,0.678819,100080.00,+3,+128,+254
177263,8.971,1.508,3.789,-0.263163,0.464068,0.718728,100079.36,+3,+126,+255
177273,8.709,1.334,4.036,-0.356814,0.450233,0.713406,100078.89,+3,+126,+255
177283,8.481,1.117,4.189,-0.435567,0.439591,0.717131,100078.89,+4,+125,+256
177293,8.550,1.707,3.921,-0.491970,0.412453,0.742140,100072.16,+4,+123,+257
177303,8.833,2.157,3.661,-0.442484,0.425224,0.785241,100072.16,+5,+120,+257
177313,8.935,1.590,3.369,-0.355218,0.472050,0.847498,100074.88,+5,+120,+257
177324,9.043,1.034,3.068,-0.296686,0.512490,0.904434,100072.88,+6,+119,+258
177333,9.196,0.622,3.106,-0.285512,0.543884,0.967223,100073.25,+7,+118,+259
177343,9.473,0.353,3.248,-0.334466,0.577407,1.016709,100073.41,+9,+116,+259
177353,9.486,0.372,3.248,-0.429713,0.606141,1.054489,100073.41,+9,+116,+259
177363,9.389,0.923,3.369,-0.488246,0.639132,1.102911,100078.24,+10,+113,+259
177374,9.141,1.289,3.565,-0.474943,0.681169,1.183791,100076.41,+11,+112,+261
177383,9.281,1.244,3.918,-0.430246,0.725866,1.274250,100076.51,+12,+109,+261
177393,9.859,0.524,4.224,-0.399383,0.764178,1.344489,100076.51,+12,+109,+261
177403,10.506,-0.510,4.231,-0.446209,0.782270,1.380140,100076.51,+14,+107,+261
177413,11.060,-0.849,3.905,-0.555823,0.764178,1.388654,100080.11,+16,+104,+262
177423,11.059,-0.693,3.707,-0.639365,0.764710,1.403021,100074.75,+17,+101,+264
177433,11.194,-0.676,3.450,-0.693640,0.769499,1.452507,100077.59,+17,+101,+264
177438,11.346,-0.670,3.224,-0.718649,0.766838,1.505186,100075.70,+19,+99,+266
177448,11.636,-0.496,3.197,-0.737273,0.763114,1.580213,100075.70,+21,+94,+265
177458,12.022,-0.200,3.331,-0.762814,0.763114,1.686103,100077.19,+21,+94,+265
177468,12.415,0.006,3.289,-0.809640,0.770031,1.795718,100078.34,+23,+90,+266
177478,12.969,0.130,3.319,-0.853273,0.765242,1.923424,100078.88,+24,+87,+267
177488,13.356,0.594,3.365,-0.879878,0.749811,2.054855,100077.72,+26,+83,+268
177498,13.427,0.780,3.145,-0.938410,0.760453,2.197460,100077.72,+26,+83,+268
177508,13.357,0.826,2.914,-1.068245,0.789719,2.358158,100078.71,+27,+78,+269
177518,13.621,0.980,2.861,-1.275236,0.780673,2.524708,100079.13,+30,+73,+269
177528,14.486,1.170,2.375,-1.548208,0.736508,2.684873,100079.18,+32,+67,+269
177539,16.026,2.010,2.106,-1.891951,0.659884,2.814708,100077.51,+32,+67,+269
177548,18.193,4.402,2.099,-2.247401,0.516747,2.917937,100077.51,+33,+59,+271
177558,20.594,7.584,1.554,-2.672556,0.426820,2.989240,100077.20,+33,+47,+271
177568,21.677,9.910,0.124,-3.255749,0.495995,2.997221,100074.10,+36,+34,+271
177579,21.888,11.823,-1.355,-4.018261,0.477371,2.977533,100074.21,+36,+34,+271
177588,22.043,14.451,-0.712,-4.565803,0.353921,2.981258,100075.15,+37,+17,+271
177598,20.772,12.720,2.863,-4.052317,0.339022,3.195698,100075.15,+40,+1,+269
177608,20.207,4.298,7.086,-2.306465,0.533242,3.756010,100074.62,+45,-7,+268
177618,21.452,-2.356,8.622,-0.965016,0.571554,4.214157,100073.13,+45,-7,+268
177629,20.270,-2.975,8.860,-0.702686,0.361371,4.063037,100072.98,+49,-9,+267
177638,19.701,1.458,7.707,-0.146631,0.237921,3.853918,100073.93,+53,-12,+266
177648,18.013,6.267,8.211,1.210249,0.639132,3.655441,100073.93,+58,-6,+267
177658,12.663,7.839,7.746,1.723203,0.636472,3.230285,100078.53,+58,-6,+267
177669,7.440,4.450,5.341,1.778010,0.275169,2.578983,100078.33,+63,+0,+267
177678,4.847,-3.612,8.550,1.975955,0.234729,2.035699,100077.95,+65,+6,+267
177688,5.954,-1.042,6.407,1.705643,-0.046757,1.231149,100077.95,+65,+14,+269
177698,6.606,2.234,2.227,1.166616,-0.347932,0.376049,100077.95,+65,+14,+269
177709,4.939,3.790,1.440,0.824469,-0.504372,-0.418923,100078.23,+65,+17,+269
177718,3.972,3.667,0.778,0.578635,-0.792775,-0.856849,100079.80,+62,+21,+268
177728,2.771,2.399,0.425,0.484983,-1.082243,-1.160152,100080.49,+57,+22,+269
177738,2.037,0.723,0.529,0.480726,-1.303601,-1.490592,100075.96,+53,+24,+269
177748,2.055,-0.573,0.972,0.477002,-1.506867,-1.915216,100075.96,+53,+24,+269
177759,2.413,-1.071,1.467,0.446139,-1.706408,-2.382408,100078.38,+46,+27,+269
177768,3.027,-0.928,1.754,0.388671,-1.863912,-2.825656,100079.42,+38,+29,+269
177778,3.415,-0.512,1.995,0.324818,-1.993215,-3.211435,100074.75,+30,+31,+268
177788,3.442,0.079,2.228,0.316304,-2.115600,-3.585508,100073.42,+30,+31,+268
177799,3.873,0.361,2.080,0.385479,-2.213508,-3.992040,100073.42,+22,+34,+267
177808,4.703,0.191,2.157,0.430708,-2.275765,-4.361856,100070.63,+13,+38,+266
177818,5.368,-0.086,2.344,0.392928,-2.316738,-4.669948,100068.21,+5,+43,+266
177828,5.957,-0.213,2.275,0.358873,-2.298114,-4.962076,100069.05,+5,+43,+266
177839,6.621,-0.192,2.282,0.434433,-2.185839,-5.252076,100065.54,-1,+49,+264
177848,7.349,-0.406,2.927,0.514781,-2.072499,-5.504296,100065.54,-8,+55,+262
177858,8.329,-0.824,3.358,0.560543,-2.009710,-5.728847,100065.28,-14,+63,+261
177868,9.354,-1.121,3.647,0.527020,-1.957031,-5.955525,100061.39,-14,+63,+261
177879,10.295,-0.880,3.845,0.537130,-1.897967,-6.185397,100062.97,-19,+70,+259
177889,11.678,-0.072,4.151,0.673882,-1.841031,-6.415800,100061.34,-23,+79,+257
177898,13.534,-0.119,4.135,0.921313,-1.762811,-6.541378,100061.34,-24,+89,+254
177908,15.006,-1.280,4.157,1.233130,-1.672353,-6.557342,100064.58,-24,+89,+254
177918,17.177,-3.158,4.613,1.451827,-1.609564,-6.581819,100067.09,-25,+102,+253
177929,19.565,-5.082,5.241,1.437992,-1.603711,-6.579690,100068.25,-25,+114,+249
177938,20.304,-6.657,5.818,1.285276,-1.659582,-6.449855,100068.73,-24,+125,+246
177948,20.284,-7.827,6.291,1.112873,-1.747912,-6.220516,100068.73,-24,+125,+246
177958,20.640,-8.476,7.231,0.922377,-1.808041,-5.932644,100069.75,-23,+135,+243
177969,19.404,-8.485,8.947,0.702084,-1.756958,-5.604333,100073.59,-21,+143,+240
177978,17.243,-8.079,10.876,0.602047,-1.508995,-5.208443,100071.70,-18,+150,+237
177988,15.710,-8.596,12.335,0.581827,-1.112041,-4.764664,100071.23,-18,+150,+237
177998,14.682,-10.740,11.865,0.382818,-0.714555,-4.237875,100071.23,-14,+156,+236
178009,13.555,-13.798,10.004,0.049717,-0.405931,-3.615307,100078.26,-10,+161,+234
178019,12.449,-16.991,8.017,-0.373310,-0.238849,-2.842151,100075.52,-7,+161,+234
178024,11.164,-18.064,7.684,-0.617548,-0.142005,-2.144023,100075.90,-7,+161,+234
178033,9.835,-18.201,8.390,-0.736209,-0.023345,-1.378849,100075.90,-5,+160,+235
178043,9.362,-18.058,9.390,-0.860190,0.138417,-0.321015,100073.37,-3,+157,+237
178054,9.766,-16.022,10.050,-0.843695,0.333169,0.677223,100073.37,-3,+157,+237
178064,10.088,-12.668,10.200,-0.526025,0.611462,1.547754,100077.27,-3,+153,+238
178073,11.913,-5.334,7.467,-0.155677,0.850380,2.106470,100077.58,-3,+151,+240
178083,15.476,13.880,-1.543,0.189130,0.676380,2.066561,100079.63,-3,+150,+240
178094,18.451,31.934,-12.563,-0.601053,0.316674,0.896452,100079.63,-3,+150,+240
178104,9.960,7.681,-5.472,0.563203,0.982343,1.279571,100079.63,-3,+148,+241
178113,13.012,-8.258,4.445,2.726229,1.574049,2.608249,100082.70,-1,+154,+238
178123,21.199,-5.656,3.267,1.704579,1.141444,3.142487,100076.41,-1,+156,+238
178134,19.503,-3.050,-0.633,0.103461,0.916893,2.383167,100076.08,-1,+156,+238
178144,14.297,0.225,3.049,0.147094,1.135591,2.501295,100073.14,-1,+155,+239
178153,12.790,2.729,7.498,0.739864,1.371847,2.794488,100073.14,-1,+154,+239
178163,9.659,1.251,8.520,1.087864,1.520306,2.540671,100075.95,+0,+156,+238
178173,8.364,-0.796,9.538,1.137882,1.658122,2.385827,100075.01,+0,+156,+238
178184,8.667,-0.322,7.829,1.193221,1.683131,2.392213,100075.35,+2,+158,+237
178194,10.202,-2.146,5.118,1.078818,1.477737,2.358690,100075.35,+3,+159,+236
178204,10.613,-3.050,4.971,0.710598,1.263297,2.223534,100078.23,+5,+160,+237
178213,10.637,-3.050,4.707,0.269479,1.035022,1.997919,100079.80,+5,+160,+237
178224,11.614,-3.596,2.566,-0.202503,0.740765,1.815938,100079.80,+4,+159,+237
178234,12.097,-2.486,1.779,-0.544117,0.585921,1.675993,100081.01,+3,+156,+239
178243,11.319,-0.921,2.190,-0.688319,0.559848,1.484433,100076.45,+3,+154,+239
178253,10.199,-0.086,2.013,-0.686722,0.549738,1.301388,100076.45,+3,+154,+239
178259,9.570,0.639,1.922,-0.627126,0.574215,1.193369,100079.19,+3,+150,+241
178269,9.431,1.176,1.922,-0.488246,0.619976,1.105039,100077.88,+4,+147,+243
178279,9.765,1.326,2.223,-0.228576,0.688618,1.032140,100076.78,+4,+147,+243
178288,9.914,1.064,2.936,-0.006154,0.728527,0.956048,100078.36,+5,+146,+243
178298,9.714,0.584,3.333,0.095479,0.721077,0.852287,100078.36,+7,+146,+243
178309,9.432,0.105,3.704,-0.000833,0.653499,0.753847,100079.34,+7,+146,+243
178319,9.097,-0.038,3.861,-0.220062,0.539095,0.650085,100079.14,+7,+146,+243
178328,8.982,0.110,3.750,-0.473346,0.427885,0.539407,100076.25,+8,+144,+244
178338,9.158,0.457,3.847,-0.765475,0.321995,0.451076,100076.14,+8,+141,+246
178349,9.096,1.469,3.284,-0.985236,0.254949,0.378177,100076.14,+8,+138,+247
178359,9.081,2.393,2.483,-1.009713,0.256013,0.358489,100078.66,+8,+138,+247
178369,8.991,2.768,2.008,-0.784099,0.338490,0.404783,100078.20,+9,+135,+249
178378,9.082,2.228,1.606,-0.440888,0.444380,0.507480,100074.99,+10,+132,+249
178388,9.249,1.403,1.967,-0.151420,0.553462,0.634122,100077.88,+11,+132,+249
178399,9.451,0.616,3.219,-0.125347,0.597095,0.704893,100077.88,+11,+132,+249
178409,9.335,0.239,4.279,-0.350961,0.564105,0.686801,100073.63,+13,+130,+250
178418,8.818,0.782,4.621,-0.629255,0.507701,0.630929,100076.90,+14,+128,+250
178428,8.493,1.475,4.528,-0.798998,0.457151,0.598471,100075.37,+14,+124,+251
178439,8.856,1.732,3.954,-0.785163,0.433206,0.619223,100074.16,+14,+124,+251
178449,9.452,1.052,3.296,-0.689915,0.442252,0.683608,100074.16,+15,+122,+253
178458,9.815,0.418,2.897,-0.665438,0.469921,0.746929,100076.24,+16,+120,+253
178468,9.959,0.245,2.821,-0.749511,0.507169,0.783645,100077.09,+17,+118,+255
178479,9.741,1.304,3.049,-0.852209,0.538031,0.820360,100077.71,+17,+118,+255
178489,9.092,2.681,4.072,-0.823475,0.575279,0.893792,100078.87,+18,+113,+256
178498,9.400,1.773,3.787,-0.660649,0.614655,1.029480,100078.87,+19,+111,+256
178508,9.868,0.101,3.575,-0.609567,0.655095,1.128984,100080.77,+21,+107,+257
178519,9.898,-0.218,3.516,-0.698429,0.654031,1.183259,100077.93,+21,+107,+257
178529,10.150,-0.226,3.689,-0.824539,0.664141,1.202947,100075.73,+21,+105,+259
178539,10.437,0.272,3.869,-0.924576,0.672655,1.227424,100078.20,+23,+101,+259
178548,10.156,1.264,4.480,-0.945860,0.677444,1.287021,100078.20,+24,+98,+259
178558,10.054,1.073,4.371,-0.867640,0.691279,1.400360,100077.36,+24,+98,+259
178569,10.682,0.123,3.735,-0.830924,0.693939,1.540305,100078.36,+26,+93,+261
178579,11.742,0.253,3.222,-0.838906,0.662545,1.682910,100077.89,+28,+90,+261
178588,12.082,0.813,3.291,-0.804319,0.676912,1.823919,100076.56,+28,+87,+262
178598,12.269,0.469,3.042,-0.708007,0.716820,1.983020,100076.56,+28,+87,+262
178609,12.858,-0.133,2.951,-0.626062,0.749279,2.129350,100078.93,+31,+83,+262
178619,13.199,-0.317,2.788,-0.600521,0.748747,2.263442,100076.20,+32,+81,+263
178629,13.436,-0.274,2.859,-0.655860,0.743958,2.379974,100078.46,+33,+77,+264
178638,13.763,-0.154,2.799,-0.759089,0.743426,2.493314,100078.46,+33,+77,+264
178649,14.126,0.321,2.822,-0.884667,0.743958,2.610910,100078.46,+35,+73,+265
178659,14.485,1.304,2.762,-1.004392,0.744490,2.719992,100079.81,+37,+69,+264
178669,15.389,2.496,3.033,-1.095383,0.711499,2.842910,100078.14,+39,+64,+265
178678,16.884,3.540,3.259,-1.222025,0.655627,2.980726,100077.03,+41,+59,+264
178689,18.818,3.814,2.722,-1.621107,0.651371,3.044579,100076.19,+41,+59,+264
178699,20.841,4.646,1.327,-2.482061,0.598692,2.958377,100076.19,+42,+52,+266
178709,22.355,8.554,0.484,-3.744225,0.354986,2.771075,100080.00,+43,+38,+264
178718,22.076,12.852,0.337,-5.012242,0.122986,2.611974,100079.16,+43,+19,+264
178728,19.818,14.366,1.348,-5.689618,0.044233,2.571534,100077.53,+43,+19,+264
178739,17.472,11.271,4.610,-4.955839,0.071903,2.855148,100077.16,+44,-1,+261
178749,18.217,5.495,7.720,-2.584226,0.235261,3.547423,100077.16,+47,-12,+259
178759,20.785,1.440,7.611,-0.296154,0.343279,4.255129,100077.05,+53,-11,+259
178768,19.553,-0.372,7.353,0.456249,0.363499,4.449881,100077.12,+53,-11,+259
178779,16.910,2.107,5.549,0.560011,0.361903,4.132212,100075.63,+57,-9,+258
178789,15.270,5.831,4.372,0.878744,0.530582,3.523478,100072.23,+62,-6,+259
178799,11.311,6.023,5.430,1.256542,0.496527,2.825350,100072.23,+65,-1,+258
178808,8.356,1.806,5.078,1.541753,0.159169,2.309204,100076.89,+65,-1,+258
178819,6.809,-6.096,8.491,1.858891,0.141609,2.052195,100075.27,+67,+5,+258
178829,5.733,-3.663,7.141,1.822707,-0.030794,1.297663,100077.38,+68,+12,+257
178839,7.458,0.826,2.994,1.295386,-0.345803,0.573994,100076.42,+67,+17,+257
178844,5.454,2.471,2.429,1.209717,-0.361234,-0.085822,100076.42,+67,+17,+257
178853,4.045,3.464,1.749,1.132029,-0.471381,-0.544501,100076.42,+65,+21,+257
178864,3.455,2.743,0.873,1.035717,-0.729454,-0.872813,100077.23,+62,+21,+257
178874,3.054,1.061,0.792,1.066579,-0.968904,-1.134611,100081.74,+62,+24,+256
178884,2.748,-0.205,1.037,1.167680,-1.168977,-1.437381,100078.85,+58,+29,+256
178894,2.758,-0.970,1.482,1.162359,-1.357344,-1.837528,100077.86,+54,+34,+254
178904,2.902,-1.087,1.809,1.010176,-1.569123,-2.287161,100076.75,+48,+37,+254
178914,2.861,-0.481,1.961,0.828194,-1.808041,-2.743179,100077.91,+48,+37,+254
178924,3.158,0.400,1.932,0.748910,-1.989490,-3.194940,100077.91,+42,+42,+253
178934,4.021,0.719,1.796,0.755295,-2.114536,-3.602536,100074.81,+35,+45,+251
178944,4.808,0.421,1.885,0.806910,-2.211912,-3.936701,100075.97,+30,+50,+249
178954,5.109,0.077,2.143,0.858524,-2.279490,-4.231490,100075.97,+30,+50,+249
178964,5.310,-0.062,2.305,0.901093,-2.320462,-4.521490,100073.72,+23,+55,+247
178974,5.915,-0.386,2.406,0.923974,-2.317270,-4.795526,100071.88,+17,+61,+245
178984,6.886,-0.796,2.478,0.878212,-2.306628,-5.050406,100068.45,+13,+67,+243
178994,7.581,-0.661,2.720,0.854267,-2.296517,-5.280810,100064.78,+13,+67,+243
179004,8.365,-0.315,3.255,0.898433,-2.271508,-5.511745,100067.90,+10,+73,+239
179014,9.355,-0.360,3.726,0.939937,-2.257674,-5.732039,100067.68,+7,+79,+237
179024,10.238,-0.670,3.809,0.967607,-2.234261,-5.972021,100068.52,+5,+85,+234
179034,11.643,-0.652,3.879,0.947387,-2.226811,-6.241800,100066.90,+5,+85,+234
179044,13.744,-0.858,3.952,0.957497,-2.195416,-6.461030,100066.90,+5,+90,+233
179054,15.231,-1.562,3.997,1.033588,-2.152316,-6.592993,100066.90,+4,+96,+231
179064,17.073,-2.926,4.623,1.133093,-2.120389,-6.690901,100070.95,+4,+101,+228
179074,19.696,-5.145,5.700,1.100634,-2.122518,-6.723892,100068.70,+4,+101,+228
179080,21.466,-6.833,6.246,0.977717,-2.162958,-6.664827,100070.28,+4,+107,+228
179089,22.571,-8.355,6.779,0.812763,-2.201270,-6.532332,100068.97,+4,+107,+228
179099,22.798,-9.881,8.154,0.537130,-2.186371,-6.272663,100068.97,+3,+110,+225
179109,20.311,-9.938,9.992,0.224782,-2.084206,-5.941158,100073.27,+0,+112,+225
179119,16.711,-8.301,12.303,0.090158,-1.776646,-5.567617,100075.27,+0,+116,+224
179129,15.215,-7.837,14.744,0.190194,-1.262096,-5.072223,100070.45,-1,+116,+225
179139,15.001,-10.779,14.169,0.147094,-0.760317,-4.482646,100074.07,-1,+117,+225
179149,13.722,-14.948,11.457,-0.211548,-0.401675,-3.853160,100074.07,+0,+120,+224
179159,12.631,-18.117,8.433,-0.619144,-0.216500,-3.082665,100074.55,+1,+119,+226
179169,11.552,-19.938,7.522,-0.803254,-0.069106,-2.104647,100077.18,+0,+118,+228
179179,9.725,-20.822,8.605,-0.831456,0.114472,-0.931345,100076.07,+0,+118,+228
179189,9.052,-19.008,9.823,-0.712264,0.328380,0.314856,100075.34,+0,+115,+229
179198,10.817,-12.511,9.204,-0.291897,0.586453,1.359388,100075.34,+1,+111,+231
179209,11.414,-4.732,9.548,0.379625,0.907315,2.210763,100076.64,+1,+111,+230
179219,17.432,24.655,-4.641,0.018323,0.464068,1.831369,100074.95,+1,+111,+230
179229,15.208,20.654,-9.013,-0.783034,0.560912,0.968819,100080.00,+0,+106,+232
179239,9.221,-1.613,1.248,1.716817,1.492104,2.174580,100078.84,+3,+109,+231
179249,20.985,-3.672,1.638,2.485716,1.428783,3.415460,100078.84,+3,+114,+231
179259,24.300,-9.191,0.236,0.732414,1.096746,3.146744,100076.34,+3,+114,+231
179269,16.915,-4.822,2.591,-0.130136,1.147829,2.816304,100077.97,+4,+112,+233
179279,13.940,2.507,5.933,-0.026374,1.234563,3.082891,100079.33,+5,+109,+234
179289,10.141,3.591,7.106,0.591937,1.382489,2.969552,100077.23,+5,+109,+234
179299,6.471,0.322,9.747,1.165020,1.640031,2.740745,100077.23,+5,+109,+234
179309,6.473,-1.295,8.581,1.388506,1.690581,2.532690,100077.30,+9,+112,+235
179319,8.917,-3.060,5.424,1.146396,1.454324,2.319314,100076.24,+12,+114,+234
179329,11.205,-3.164,4.260,0.814891,1.275535,2.175644,100077.66,+14,+114,+235
179339,12.580,-3.344,3.018,0.532341,1.108985,2.004837,100077.40,+14,+114,+235
179349,12.531,-5.145,2.557,0.019919,0.907315,1.847332,100077.40,+16,+114,+235
179359,11.712,-3.868,2.367,-0.596796,0.714692,1.673332,100081.77,+16,+112,+235
179369,11.358,-2.107,2.189,-1.131566,0.542288,1.502525,100077.77,+15,+107,+238
179379,10.200,-0.354,2.564,-1.360373,0.460875,1.282764,100077.14,+15,+107,+238
179389,9.682,0.955,2.108,-1.228942,0.440655,1.034268,100079.14,+15,+103,+239
179399,9.887,1.622,1.992,-0.858062,0.522068,0.857608,100079.14,+17,+99,+240
179409,9.906,2.100,2.499,-0.537200,0.604545,0.803865,100077.46,+18,+97,+241
179419,9.760,1.958,3.384,-0.336594,0.623169,0.818232,100077.55,+18,+97,+241
179429,9.621,1.407,3.608,-0.156741,0.593903,0.788434,100075.41,+20,+95,+241
179439,9.221,1.384,3.624,-0.057237,0.568894,0.717131,100078.73,+21,+95,+241
179449,8.821,1.063,3.620,-0.049255,0.528453,0.652214,100078.73,+23,+95,+242
179460,8.858,0.399,3.632,-0.155677,0.465664,0.612306,100077.86,+23,+95,+242
179469,9.017,0.355,3.853,-0.410558,0.384252,0.535150,100078.06,+23,+93,+242
179479,9.160,0.932,3.940,-0.700557,0.313481,0.448416,100077.06,+24,+91,+243
179489,8.979,1.541,3.310,-0.822943,0.281554,0.402122,100076.64,+24,+87,+244
179499,9.038,1.608,2.463,-0.768667,0.290600,0.417021,100076.64,+24,+87,+244
179509,9.098,1.563,1.847,-0.555823,0.353389,0.494177,100081.67,+26,+86,+244
179519,9.497,1.190,1.904,-0.342447,0.415646,0.601131,100079.58,+26,+85,+244
179529,9.805,0.276,2.354,-0.267420,0.456618,0.675095,100077.63,+28,+83,+244
179539,9.687,-0.035,3.249,-0.386080,0.488013,0.662324,100079.47,+28,+83,+244
179549,9.079,-0.053,3.979,-0.606906,0.470453,0.605388,100079.47,+29,+81,+245
179559,8.699,0.553,4.042,-0.786759,0.421499,0.557498,100081.43,+30,+78,+245
179569,9.013,1.041,3.723,-0.789952,0.388508,0.566012,100077.59,+32,+75,+246
179579,9.558,0.974,3.243,-0.699493,0.384784,0.613370,100076.07,+32,+75,+246
179589,9.825,0.564,3.143,-0.659053,0.432674,0.663920,100074.85,+32,+73,+247
179599,9.722,0.545,3.192,-0.715988,0.468325,0.691058,100074.85,+33,+70,+247
179609,9.633,1.049,3.289,-0.758025,0.489609,0.722984,100080.77,+35,+68,+247
179619,9.583,1.307,3.444,-0.753236,0.527389,0.779920,100076.94,+35,+65,+248
179630,9.699,1.044,3.556,-0.759089,0.556123,0.860801,100078.25,+35,+65,+248
179639,9.838,0.728,3.344,-0.776649,0.559848,0.943278,100078.98,+39,+63,+248
179649,10.023,0.780,3.411,-0.791016,0.581664,1.023626,100078.98,+39,+59,+249
179659,10.002,0.838,3.398,-0.806447,0.596031,1.110360,100079.28,+40,+56,+249
179670,10.185,1.067,3.714,-0.812300,0.612527,1.211993,100078.02,+40,+56,+249
179679,10.368,1.217,3.930,-0.793676,0.624233,1.326929,100077.64,+42,+53,+250
179689,10.792,0.898,3.442,-0.744190,0.611995,1.471663,100076.75,+45,+50,+249
179699,11.583,0.474,3.175,-0.695236,0.601352,1.622250,100076.75,+46,+48,+249
179709,11.727,0.506,2.985,-0.664374,0.618912,1.766984,100078.81,+46,+48,+249
179720,11.667,0.937,2.958,-0.617548,0.635407,1.922892,100076.97,+48,+45,+250
179729,12.432,0.682,2.912,-0.510594,0.643389,2.102745,100077.34,+51,+43,+250
179739,12.988,0.124,2.726,-0.465365,0.675848,2.261314,100077.77,+52,+41,+251
179749,12.942,0.290,2.802,-0.502612,0.692343,2.403387,100077.77,+52,+41,+251
179760,12.735,0.907,3.088,-0.532411,0.701389,2.564616,100078.44,+55,+40,+251
179769,12.696,1.288,3.331,-0.580833,0.724802,2.737020,100077.13,+56,+37,+251
179779,13.082,1.709,3.638,-0.707475,0.747683,2.905166,100078.13,+60,+35,+251
179789,14.114,2.180,3.663,-0.930429,0.780141,3.059478,100077.19,+60,+35,+251
179800,15.960,2.714,3.777,-1.215107,0.779609,3.182928,100077.19,+63,+32,+252
179809,18.410,4.031,4.246,-1.567364,0.701389,3.275515,100078.17,+65,+28,+252
179819,20.688,5.699,3.311,-2.156942,0.712031,3.267533,100079.06,+67,+19,+251
179829,22.623,6.797,1.351,-3.150923,0.753536,3.130781,100078.84,+67,+19,+251
179840,24.125,9.942,-0.131,-4.462573,0.543884,2.983387,100076.11,+71,+7,+251
179849,23.843,14.256,0.448,-5.427288,0.275701,2.939754,100076.11,+73,-9,+249
179859,20.536,13.191,3.247,-4.949986,0.198013,3.147809,100078.02,+74,-26,+246
179869,17.850,4.022,7.005,-2.867841,0.246967,3.711313,100076.98,+74,-26,+246
179879,19.072,-4.855,8.390,-0.976190,0.118197,4.255129,100078.49,+78,-32,+245
179890,18.791,-6.681,9.657,-0.134393,0.103830,4.432322,100074.82,+82,-32,+245
179900,17.474,0.945,8.842,0.672641,0.450056,4.091949,100074.82,+87,-29,+247
179909,16.121,5.888,5.995,1.308157,0.697664,3.726212,100079.17,+87,-29,+247
179919,10.637,6.001,4.663,1.611992,0.492270,3.288818,100079.80,+92,-23,+248
179930,5.582,-1.692,4.220,1.879111,0.360839,2.749258,100080.17,+96,-17,+251
179939,4.928,-6.315,5.952,1.957331,0.229940,2.209699,100076.11,+96,-10,+252
179949,6.914,-4.648,3.101,1.472047,-0.231932,1.550947,100076.11,+96,-10,+252
179959,5.778,-1.638,1.108,0.893644,-0.534702,0.720324,100077.80,+95,-6,+253
179970,4.039,1.126,0.698,0.415809,-0.723069,-0.060813,100079.12,+93,-5,+255
179980,2.854,2.308,0.187,0.218396,-0.935913,-0.559400,100078.65,+88,-5,+256
179989,1.158,1.784,0.367,0.324286,-1.096610,-0.898354,100076.65,+88,-5,+256
179999,0.129,0.332,0.440,0.575974,-1.229105,-1.217620,100076.65,+83,-5,+259
180009,-0.024,-0.992,0.565,0.782433,-1.350426,-1.594354,100078.30,+77,-5,+259
180020,0.355,-1.499,0.726,0.798396,-1.474408,-2.015252,100077.84,+69,-3,+261
180029,1.027,-0.913,0.957,0.722304,-1.613821,-2.436683,100077.41,+69,-3,+261
180039,1.727,0.096,1.020,0.677075,-1.734077,-2.830977,100075.41,+62,-1,+262
180049,2.333,0.549,1.063,0.672286,-1.819215,-3.193343,100075.41,+53,+0,+263
180060,2.508,0.670,1.136,0.696231,-1.895307,-3.548261,100076.84,+43,+1,+264
180069,3.054,0.505,1.185,0.709534,-1.960756,-3.906903,100072.95,+33,+5,+264
180079,3.613,0.126,1.337,0.712194,-2.002793,-4.228297,100075.80,+33,+5,+264
180089,4.052,-0.284,1.433,0.648341,-2.044297,-4.511911,100073.16,+23,+7,+265
180100,4.509,-0.274,1.369,0.572781,-2.078352,-4.777434,100073.16,+12,+11,+264
180110,5.244,-0.189,1.645,0.581295,-2.031527,-5.045618,100075.89,+2,+16,+264
180119,6.312,-0.266,2.095,0.624396,-1.967142,-5.305819,100074.58,+2,+16,+264
180129,7.282,-0.324,2.354,0.668029,-1.911270,-5.555911,100073.95,-7,+21,+262
180140,8.255,-0.255,2.544,0.717515,-1.855931,-5.807599,100073.47,-15,+29,+261
180149,9.493,-0.150,2.563,0.814359,-1.805912,-6.049177,100073.47,-23,+39,+261
180159,10.811,-0.207,2.743,0.997937,-1.748444,-6.269470,100072.12,-23,+39,+261
180169,12.870,-0.620,3.199,1.184175,-1.739931,-6.477525,100074.96,-30,+49,+259
180179,15.482,-1.583,3.868,1.245900,-1.790481,-6.653653,100074.70,-35,+62,+256
180190,17.672,-3.016,4.938,1.223019,-1.852206,-6.764332,100071.54,-39,+74,+253
180199,19.887,-4.502,6.311,1.219295,-1.903288,-6.789873,100071.54,-39,+74,+253
180209,22.331,-6.821,7.429,1.107020,-1.934683,-6.711121,100074.14,-44,+88,+251
180219,24.114,-9.843,8.072,0.722836,-2.004389,-6.529140,100071.94,-46,+99,+247
180230,23.680,-12.312,9.153,0.260965,-1.948518,-6.266277,100070.67,-49,+109,+244
180240,19.482,-12.380,11.380,-0.202503,-1.753765,-5.983195,100073.36,-49,+109,+244
180249,16.059,-10.044,14.108,-0.528686,-1.420665,-5.513342,100073.36,-49,+115,+244
180259,15.046,-9.172,15.450,-0.601585,-0.904518,-4.884388,100075.92,-48,+120,+241
180270,14.213,-11.669,13.512,-0.789420,-0.422959,-4.166572,100072.83,-45,+123,+241
180280,12.544,-15.872,9.597,-1.111878,-0.131363,-3.310408,100075.08,-45,+123,+241
180289,10.388,-18.500,6.793,-1.194887,0.024545,-2.316959,100075.14,-43,+124,+243
180299,9.219,-19.279,6.964,-1.057603,0.125114,-1.137803,100075.14,-40,+122,+244
180310,9.112,-17.578,8.385,-0.706943,0.290068,0.138728,100075.49,-41,+120,+245
180320,10.476,-13.167,7.638,-0.178558,0.525793,1.238599,100074.96,-41,+120,+245
180329,10.971,-4.748,5.485,0.617479,0.730123,2.153827,100073.96,-40,+118,+245
180339,15.274,26.196,-8.419,0.429112,0.242178,1.808488,100075.07,-40,+117,+245
180349,12.653,28.198,-11.106,-0.709603,0.216637,0.621884,100075.07,-40,+115,+246
180360,6.346,1.348,-0.627,1.695533,1.126545,1.535516,100080.03,-40,+115,+246
180370,16.747,-3.044,-0.279,3.296651,1.361205,2.770543,100077.30,-37,+121,+245
180379,21.647,-3.780,-1.894,1.662542,1.036618,2.727442,100077.30,-37,+126,+244
180389,15.088,-3.564,5.040,0.147626,1.116435,2.013350,100076.94,-35,+123,+246
180400,10.162,-1.840,24.950,0.368451,2.049223,2.219809,100076.94,-35,+123,+246
180410,18.265,2.971,11.892,1.610927,1.889590,2.429460,100073.01,-30,+122,+247
180419,20.642,-5.112,-1.710,1.501313,1.253187,2.601864,100080.99,-28,+125,+246
180429,9.825,-7.900,-1.075,0.865974,1.585755,2.675827,100078.05,-26,+125,+247
180440,5.991,-1.856,3.760,0.642488,1.473480,2.248011,100076.26,-26,+125,+247
180450,6.571,-3.261,4.894,0.398781,1.063756,2.041020,100076.26,-24,+125,+248
180460,10.939,-3.834,4.310,-0.356282,0.682233,1.743039,100077.30,-23,+122,+249
180469,12.020,-2.452,2.416,-1.041640,0.368288,1.440800,100079.83,-24,+118,+251
180480,12.170,0.481,2.466,-1.233731,0.295921,1.139094,100077.67,-24,+118,+251
180486,11.830,1.808,2.238,-1.152851,0.265591,0.970948,100076.72,-23,+112,+253
180495,10.524,3.116,1.953,-0.880410,0.322527,0.836324,100076.72,-23,+109,+253
180504,9.160,3.692,2.717,-0.478668,0.431077,0.830471,100076.72,-23,+109,+253
180514,8.977,2.418,2.992,-0.209420,0.425224,0.926250,100078.35,-23,+107,+254
180525,9.459,1.647,2.843,-0.056704,0.413518,0.907627,100079.66,-22,+106,+255
180535,9.718,1.585,2.514,-0.009347,0.387444,0.863993,100075.88,-21,+104,+254
180545,9.503,1.624,2.517,0.019919,0.396490,0.804929,100075.88,-21,+104,+254
180555,9.191,1.027,3.143,-0.034356,0.390105,0.744801,100077.23,-21,+104,+255
180564,9.001,0.764,3.489,-0.229640,0.328912,0.665517,100077.23,-21,+102,+255
180575,8.888,0.791,3.710,-0.468557,0.234197,0.570801,100079.27,-20,+101,+256
180585,8.833,1.177,3.296,-0.584025,0.185242,0.475553,100079.70,-20,+101,+256
180594,8.662,1.604,2.688,-0.573915,0.173536,0.428728,100075.76,-19,+98,+257
180604,8.920,2.114,2.031,-0.448337,0.186307,0.438838,100075.76,-19,+96,+257
180615,9.328,1.754,1.668,-0.233365,0.246435,0.495774,100078.11,-18,+94,+257
180625,9.649,0.935,1.899,-0.080117,0.311885,0.539407,100076.33,-18,+94,+257
180635,9.465,0.882,2.389,-0.065218,0.343811,0.540471,100077.48,-17,+93,+259
180644,8.934,1.290,2.998,-0.110448,0.349664,0.525572,100078.43,-17,+93,+258
180655,8.766,1.430,3.379,-0.154613,0.331573,0.531957,100079.01,-16,+91,+259
180665,8.984,1.381,3.308,-0.182282,0.304435,0.545260,100080.12,-16,+91,+259
180675,9.286,1.422,3.076,-0.184411,0.289004,0.569737,100080.16,-15,+90,+259
180684,9.305,1.571,2.867,-0.167915,0.295921,0.606452,100080.16,-14,+90,+260
180695,9.190,1.634,2.707,-0.178026,0.321995,0.646893,100076.60,-14,+88,+260
180705,9.182,1.597,2.719,-0.168980,0.347004,0.699572,100076.60,-14,+88,+260
180715,9.374,1.727,2.653,-0.129071,0.367224,0.755443,100079.05,-12,+87,+262
180720,9.443,1.609,2.611,-0.074796,0.399683,0.812379,100080.05,-12,+86,+261
180729,9.349,1.250,2.665,-0.049255,0.437995,0.869847,100077.54,-12,+86,+261
180740,9.252,1.031,2.745,-0.085971,0.468857,0.937425,100077.85,-10,+85,+261
180750,9.197,1.499,2.950,-0.156741,0.486949,1.008195,100077.85,-9,+83,+262
180760,9.251,1.833,3.025,-0.191328,0.493334,1.117278,100078.77,-8,+82,+262
180769,9.447,1.987,3.079,-0.163659,0.508765,1.258819,100079.61,-8,+82,+262
180780,9.530,1.899,3.242,-0.143971,0.536967,1.409406,100078.72,-7,+80,+263
180790,9.398,1.816,3.376,-0.162594,0.565701,1.552011,100077.08,-5,+79,+263
180800,9.434,1.731,3.598,-0.203035,0.589114,1.689296,100077.08,-4,+76,+264
180809,9.523,1.545,3.570,-0.235493,0.605609,1.831901,100079.96,-4,+76,+264
180819,9.619,1.324,3.620,-0.266356,0.630618,1.977167,100080.49,-3,+75,+265
180830,9.823,1.104,3.794,-0.306796,0.645517,2.118708,100077.18,-1,+71,+266
180835,10.369,0.800,3.859,-0.337658,0.650838,2.223534,100079.16,-1,+71,+266
180845,10.959,0.390,3.740,-0.373310,0.658820,2.322506,100079.16,+0,+68,+267
180854,11.600,0.177,3.736,-0.462172,0.687022,2.436378,100079.16,+1,+65,+266
180865,12.234,0.218,4.000,-0.575512,0.716820,2.533754,100079.76,+3,+60,+267
180875,13.624,0.006,4.099,-0.704814,0.721077,2.624745,100076.85,+3,+60,+267
180885,15.662,-0.139,3.866,-0.844759,0.754600,2.716799,100077.35,+5,+55,+267
180895,17.624,-1.003,3.454,-1.048025,0.830159,2.799809,100077.35,+8,+51,+268
180904,20.142,0.206,2.804,-1.399217,0.815793,2.944543,100081.82,+10,+43,+269
180915,23.285,4.278,3.510,-1.702520,0.690215,3.145148,100081.82,+10,+43,+269
180925,26.918,8.843,3.963,-1.753603,0.511958,3.432487,100078.24,+12,+34,+269
180935,29.663,10.679,4.402,-1.644520,0.424160,3.730469,100079.45,+14,+27,+270
180944,28.182,9.251,1.834,-1.570025,0.407664,3.837423,100076.45,+17,+19,+269
180956,22.682,6.266,-0.436,-2.173437,0.332637,3.550616,100082.05,+17,+19,+269
180965,16.589,4.223,1.965,-3.016831,0.034655,3.203680,100082.05,+18,+8,+268
180975,10.218,0.694,4.407,-2.671492,-0.073363,3.054689,100077.63,+19,-3,+267
180985,7.086,-4.506,5.871,-1.597694,0.250692,3.193038,100076.67,+23,-11,+266
180995,7.351,-6.376,7.014,-0.404172,0.648178,3.197827,100075.30,+23,-11,+266
181005,6.724,-3.130,6.050,0.298213,0.819517,2.859405,100077.68,+28,-12,+266
181015,5.478,-0.227,5.229,0.777112,0.864747,2.392745,100076.79,+32,-11,+266
181025,4.815,1.729,3.058,0.931955,0.654563,1.880323,100074.26,+35,-7,+267
181035,3.062,-1.942,2.298,0.671754,0.457151,1.395571,100074.26,+35,-7,+267
181045,1.918,-3.590,1.414,0.411020,0.321463,0.985847,100075.79,+38,-5,+267
181055,1.482,0.021,-1.384,0.069406,-0.078152,0.331884,100075.79,+37,-5,+267
181065,0.524,2.783,-0.822,-0.141842,-0.266519,-0.367841,100081.61,+35,-6,+267
181074,0.783,3.450,0.045,-0.164191,-0.376133,-0.840354,100078.19,+35,-6,+267
181085,0.555,2.638,-0.103,-0.035952,-0.478298,-1.101620,100077.81,+33,-7,+267
181095,-0.109,1.538,0.024,0.265754,-0.453289,-1.345858,100077.97,+30,-6,+267
181105,-0.328,0.836,0.707,0.600451,-0.413913,-1.668849,100077.97,+27,-3,+266
181115,0.225,0.411,1.002,0.857992,-0.489473,-2.019509,100076.41,+27,-3,+266
181125,1.428,-0.080,1.094,0.941001,-0.629950,-2.370170,100078.09,+24,+0,+267
181135,2.124,-0.318,1.227,0.860121,-0.795436,-2.716573,100076.63,+18,+3,+267
181145,2.253,0.130,1.250,0.776047,-0.963582,-3.052866,100076.63,+13,+7,+267
181154,3.102,0.486,0.872,0.787222,-1.112041,-3.366279,100076.63,+13,+7,+267
181165,4.232,0.456,0.648,0.869699,-1.195582,-3.621692,100077.16,+7,+12,+267
181175,5.048,0.166,0.899,0.934084,-1.236555,-3.826554,100077.78,+1,+17,+266
181185,5.604,-0.411,1.786,0.896836,-1.269546,-4.017049,100074.73,-5,+23,+266
181195,6.290,-1.105,2.936,0.770726,-1.314243,-4.237343,100072.69,-5,+23,+266
181204,7.347,-2.020,3.689,0.552561,-1.332335,-4.518829,100072.69,-11,+29,+266
181215,8.557,-3.339,4.165,0.166782,-1.335527,-4.821599,100076.42,-17,+35,+263
181225,9.149,-4.299,4.299,-0.265824,-1.280720,-5.123305,100076.27,-23,+37,+262
181235,9.614,-4.577,4.731,-0.668631,-1.143436,-5.395746,100073.41,-28,+41,+261
181245,10.236,-5.125,5.121,-1.074098,-1.018390,-5.602736,100073.41,-28,+41,+261
181255,11.072,-6.126,5.682,-1.505639,-0.921014,-5.740553,100073.35,-32,+43,+259
181265,12.586,-7.612,6.267,-2.062758,-0.826298,-5.852296,100073.35,-35,+42,+258
181275,14.326,-8.975,6.605,-2.778446,-0.720940,-5.883158,100073.02,-40,+39,+257
181285,14.948,-10.100,6.562,-3.437198,-0.553858,-5.784186,100076.40,-40,+39,+257
181295,14.947,-11.043,6.545,-3.961326,-0.343675,-5.544204,100075.87,-42,+33,+256
181306,13.740,-11.883,6.270,-4.317839,-0.090922,-5.146896,100077.59,-44,+25,+255
181315,12.383,-12.136,6.119,-4.488647,0.118729,-4.717306,100077.59,-46,+15,+254
181325,12.183,-12.517,5.653,-4.548775,0.328380,-4.119747,100077.44,-46,+15,+254
181336,11.814,-13.606,4.987,-4.606775,0.506637,-3.464720,100077.55,-47,+5,+253
181345,10.878,-14.479,3.750,-4.759490,0.604545,-2.843747,100074.43,-47,-7,+251
181355,10.083,-14.387,2.041,-4.976591,0.625297,-2.282372,100078.21,-48,-20,+248
181365,9.068,-14.006,1.130,-5.127710,0.560380,-1.783785,100075.52,-48,-20,+248
181376,6.778,-13.366,8.531,-4.802591,0.817921,-1.229326,100073.96,-47,-36,+245
181385,13.398,-3.153,-4.255,-2.586886,0.134160,-0.821198,100073.96,-48,-45,+243
181395,12.057,-3.737,-2.053,-0.766539,0.047958,0.375517,100075.16,-47,-47,+243
181405,18.852,27.925,0.057,0.767534,-0.521931,0.264838,100075.16,-47,-47,+243
181415,36.980,34.656,8.230,1.346469,-0.132427,0.151499,100079.01,-49,-44,+244
181425,30.089,5.781,-4.075,3.952210,0.523132,1.673332,100077.34,-46,-34,+246
181435,9.667,-20.364,-2.013,3.880375,0.997774,2.584836,100077.80,-39,-24,+250
181445,1.441,-10.603,4.476,1.087864,0.556655,1.706855,100075.27,-39,-24,+250
181455,4.093,0.071,5.305,-0.315842,0.256545,0.701168,100075.27,-37,-26,+251
181466,6.444,0.071,7.300,-0.707475,0.000600,0.662856,100074.77,-37,-29,+251
181475,10.582,-0.011,6.626,-1.102300,-0.100500,0.530893,100076.54,-37,-32,+249
181485,10.938,2.022,4.874,-0.919254,-0.154776,0.305810,100074.70,-37,-32,+249
181495,8.982,3.715,4.080,-0.372246,-0.110078,0.298361,100074.70,-37,-36,+249
181505,9.601,2.514,4.535,0.127405,0.011243,0.351040,100074.70,-37,-35,+249
181515,10.108,-0.609,3.185,0.204561,0.004325,0.357957,100076.66,-35,-35,+248
181525,9.633,-1.953,2.360,-0.051383,0.001133,0.184489,100080.80,-35,-35,+248
181535,9.837,-0.255,3.388,-0.374906,-0.027601,-0.019841,100075.51,-36,-35,+249
181540,9.613,1.056,3.837,-0.489842,-0.051546,-0.099657,100078.65,-35,-37,+249
181550,9.430,1.574,4.319,-0.486649,-0.045693,-0.147015,100078.65,-35,-37,+249
181560,9.133,1.618,4.855,-0.490906,-0.068042,-0.186923,100079.46,-36,-39,+248
181570,8.519,2.271,4.718,-0.501016,-0.110611,-0.211932,100079.30,-37,-40,+248
181580,8.152,2.154,4.528,-0.428117,-0.127638,-0.199162,100076.88,-38,-41,+246
181591,8.450,1.238,4.158,-0.383420,-0.142537,-0.178410,100074.99,-38,-41,+246
181600,8.697,1.245,4.097,-0.427585,-0.141473,-0.209804,100074.99,-39,-42,+245
181610,8.578,1.632,4.288,-0.466429,-0.145198,-0.251309,100077.52,-39,-44,+246
181620,8.679,1.399,4.220,-0.452594,-0.149987,-0.274189,100072.74,-40,-45,+245
181630,8.775,0.982,4.002,-0.475475,-0.147326,-0.303455,100079.68,-40,-45,+245
181640,8.678,1.340,4.176,-0.530282,-0.148922,-0.347620,100077.37,-41,-45,+244
181650,8.541,1.490,4.215,-0.565401,-0.156372,-0.380079,100077.37,-42,-49,+243
181656,8.504,1.475,4.201,-0.582429,-0.155840,-0.398703,100077.15,-42,-49,+243
181665,8.618,1.620,4.236,-0.602649,-0.159565,-0.412006,100077.15,-43,-49,+243
181676,8.718,1.694,4.088,-0.647878,-0.159565,-0.426373,100078.04,-44,-51,+242
181685,8.723,1.600,4.023,-0.718649,-0.159033,-0.434886,100075.52,-46,-51,+241
181695,8.801,1.432,3.845,-0.801126,-0.171271,-0.429033,100076.99,-46,-53,+241
181705,8.808,1.391,3.611,-0.872429,-0.170739,-0.414134,100081.34,-47,-55,+239
181715,8.346,2.100,3.647,-0.929365,-0.159033,-0.386997,100077.49,-48,-58,+239
181726,8.121,2.632,3.988,-0.894245,-0.152115,-0.324208,100074.09,-49,-60,+238
181735,8.746,2.719,4.023,-0.813897,-0.158500,-0.248648,100074.09,-49,-60,+238
181745,9.234,2.632,4.127,-0.745787,-0.157968,-0.190648,100078.45,-49,-61,+236
181755,9.181,2.265,4.027,-0.694172,-0.147326,-0.148079,100078.45,-50,-65,+235
181766,8.971,2.294,4.013,-0.684062,-0.141473,-0.126795,100078.55,-51,-66,+234
181775,8.935,1.986,3.970,-0.665970,-0.145198,-0.110299,100077.49,-51,-66,+234
181785,9.060,1.630,3.818,-0.646282,-0.144666,-0.100189,100078.13,-51,-68,+233
181795,9.171,1.738,3.696,-0.656924,-0.146262,-0.094336,100075.91,-52,-70,+232
181806,9.183,1.770,3.679,-0.653199,-0.138812,-0.088483,100075.91,-53,-73,+231
181816,9.352,1.422,3.643,-0.636704,-0.121785,-0.077841,100079.86,-53,-73,+231
181825,9.143,1.203,3.553,-0.657456,-0.097308,-0.086887,100076.28,-53,-73,+230
181835,8.689,1.278,3.504,-0.693108,-0.078152,-0.100722,100078.17,-53,-75,+229
181846,8.796,1.482,3.673,-0.704814,-0.076023,-0.085290,100078.17,-54,-79,+228
181855,8.933,2.018,3.793,-0.713860,-0.059528,-0.066134,100078.17,-54,-79,+228
181865,8.930,1.683,3.958,-0.715456,-0.037712,-0.044850,100080.09,-54,-80,+226
181875,8.870,1.890,4.003,-0.727163,-0.012170,-0.027290,100079.71,-55,-82,+226
181885,8.538,2.431,4.389,-0.710667,-0.005253,-0.009731,100075.24,-54,-85,+225
181891,8.669,2.109,4.172,-0.653732,-0.013234,0.021664,100075.30,-54,-85,+225
181900,8.800,1.609,3.836,-0.604778,0.004857,0.041884,100075.30,-54,-85,+224
181910,8.708,1.360,3.712,-0.586154,0.036784,0.052526,100077.89,-54,-85,+224
181920,8.718,1.334,3.628,-0.587750,0.048490,0.065829,100076.47,-54,-89,+223
181931,8.977,0.941,3.466,-0.596264,0.069243,0.077535,100075.11,-53,-90,+223
181940,9.057,0.565,3.320,-0.660649,0.083077,0.082324,100074.84,-53,-92,+221
181950,8.909,0.525,3.356,-0.755365,0.090527,0.087645,100074.84,-53,-92,+220
181960,8.774,1.747,3.517,-0.813365,0.126178,0.092966,100074.88,-53,-95,+220
181970,8.715,2.490,4.080,-0.786227,0.165554,0.121700,100078.25,-52,-98,+219
181981,8.938,1.381,4.033,-0.672888,0.207591,0.158948,100077.92,-51,-99,+218
181990,8.849,1.597,4.099,-0.676612,0.267187,0.169058,100076.41,-50,-102,+217
182000,8.736,1.870,4.625,-0.701089,0.296986,0.157884,100076.41,-50,-102,+217
182010,8.966,0.889,4.353,-0.693108,0.316674,0.154159,100077.86,-49,-103,+216
182021,8.987,0.530,4.249,-0.763346,0.340619,0.124361,100077.70,-48,-105,+216
182030,8.750,0.676,4.074,-0.833053,0.338490,0.090838,100078.59,-47,-108,+214
182040,8.631,0.721,3.991,-0.839970,0.362435,0.074343,100077.66,-47,-108,+214
182050,8.872,0.722,4.017,-0.842098,0.390637,0.067425,100077.66,-46,-111,+214
182061,9.022,0.881,3.941,-0.850612,0.408729,0.070086,100078.00,-44,-113,+212
182070,8.869,0.887,4.197,-0.870832,0.433738,0.072746,100074.95,-43,-116,+211
182080,8.800,0.668,4.255,-0.909144,0.466729,0.065829,100077.06,-43,-116,+211
182090,8.946,0.713,4.410,-0.951181,0.499719,0.023792,100077.58,-42,-118,+210
182100,8.739,0.254,4.656,-0.961291,0.538563,-0.007602,100077.58,-40,-121,+208
182111,8.429,0.004,4.091,-0.988961,0.558784,-0.041657,100077.82,-39,-124,+206
182120,8.735,0.522,4.134,-0.988429,0.565701,-0.054960,100076.35,-39,-124,+206
182130,8.965,1.299,4.458,-0.910741,0.588582,-0.043786,100077.82,-38,-126,+207
182140,8.905,1.015,4.334,-0.781970,0.621040,-0.006006,100077.87,-36,-128,+205
182151,8.850,0.385,3.989,-0.721310,0.649774,0.020600,100077.87,-33,-130,+204
182160,8.808,0.057,4.240,-0.736741,0.680105,0.028581,100079.03,-33,-130,+204
182170,8.728,0.390,4.450,-0.779842,0.704049,0.011554,100076.92,-32,-132,+204
182180,8.794,0.451,4.699,-0.791016,0.715756,0.006765,100078.72,-30,-134,+202
182191,8.797,-0.025,4.713,-0.787291,0.725866,0.001976,100076.77,-28,-136,+201
182200,8.710,-0.111,4.663,-0.799530,0.750343,-0.016116,100076.77,-28,-136,+201
182210,8.602,0.036,4.776,-0.841566,0.757793,-0.028887,100075.88,-27,-138,+200
182220,8.679,-0.332,4.663,-0.856465,0.764710,-0.058153,100076.56,-24,-140,+198
182231,8.666,-0.643,4.758,-0.879346,0.778013,-0.089015,100077.88,-23,-142,+198
182241,8.636,-0.737,5.008,-0.926172,0.769499,-0.122006,100079.08,-23,-142,+198
182250,8.547,-0.830,5.440,-0.986832,0.760985,-0.191712,100079.08,-21,-146,+195
182260,8.589,-1.269,5.634,-1.085805,0.733848,-0.240666,100078.27,-19,-147,+194
182270,8.720,-1.443,5.488,-1.264062,0.694472,-0.320483,100075.95,-18,-150,+191
182281,9.209,-0.789,5.259,-1.451896,0.647646,-0.400299,100076.91,-18,-150,+191
182290,10.190,-0.069,5.021,-1.619511,0.589114,-0.452446,100076.22,-19,-154,+189
182300,11.217,0.460,4.777,-1.775951,0.552398,-0.444464,100076.22,-19,-157,+185
182310,11.242,0.224,4.351,-2.020190,0.518875,-0.406685,100079.72,-18,-162,+180
182321,11.995,-0.145,3.175,-2.338923,0.434802,-0.399767,100078.77,-18,-162,+180
182331,13.694,0.111,2.410,-2.802391,0.302839,-0.365712,100079.98,-18,-167,+175
182340,14.858,0.894,1.414,-3.287675,0.175665,-0.371565,100076.25,-19,-174,+167
182350,14.824,1.720,1.170,-3.647913,0.127243,-0.419455,100076.25,-20,-180,+156
182361,14.304,2.212,1.369,-3.931528,0.089463,-0.441804,100079.32,-20,-180,+156
182371,13.440,2.774,1.966,-4.049124,0.076692,-0.466281,100078.74,-21,-187,+147
182380,13.115,2.346,3.253,-4.081583,0.083610,-0.372097,100075.16,-22,-194,+134
182390,13.084,1.858,5.069,-3.948023,0.218233,-0.137437,100078.01,-22,-201,+122
182401,12.920,2.379,5.689,-3.971968,0.328912,0.036563,100078.01,-21,-201,+122
182411,12.700,1.706,6.316,-4.040078,0.505040,0.170654,100080.91,-21,-206,+111
182420,12.094,-0.444,7.315,-4.054445,0.725334,0.338269,100079.54,-19,-210,+100
182430,12.441,-2.920,7.740,-4.011344,0.968508,0.535150,100078.18,-15,-215,+87
182440,14.509,-6.490,8.685,-3.962390,1.239884,0.773535,100076.98,-10,-218,+76
182451,17.321,-9.970,7.225,-3.894280,1.450067,1.173681,100076.98,-10,-218,+76
182461,17.492,-9.847,7.611,-4.189601,1.565535,1.387589,100077.82,-5,-222,+64
182470,14.517,-8.957,7.997,-4.499821,1.654397,1.556268,100077.77,+1,-225,+49
182476,13.214,-5.875,6.655,-4.722243,1.638434,1.513699,100077.73,+1,-225,+49
182486,12.480,-2.632,5.543,-4.821215,1.627260,1.411534,100077.73,+8,-227,+34
182496,11.333,0.168,4.850,-4.740335,1.617150,1.328525,100077.04,+13,-226,+20
182506,10.240,1.770,3.892,-4.443417,1.534673,1.252434,100077.04,+13,-226,+20
182515,9.570,2.587,1.914,-4.119362,1.368122,1.142287,100077.48,+18,-226,+6
182525,8.752,2.823,0.537,-3.904922,1.180820,1.018837,100081.10,+21,-225,-6
182536,7.760,3.576,-0.299,-3.695803,0.990857,0.870911,100078.12,+24,-222,-18
182546,6.867,4.757,-0.985,-3.393565,0.823242,0.655406,100078.12,+24,-222,-18
182555,6.304,5.844,-1.319,-2.968409,0.685958,0.366471,100078.12,+27,-220,-28
182565,6.015,6.352,-1.446,-2.523033,0.552398,0.027517,100081.02,+27,-219,-37
182576,5.666,6.118,-1.579,-2.132997,0.415114,-0.357198,100079.87,+26,-216,-43
182586,5.443,5.745,-1.927,-1.804153,0.262931,-0.770648,100077.76,+26,-216,-43
182595,5.486,5.054,-2.127,-1.574814,0.103830,-1.175051,100078.38,+23,-214,-49
182605,5.669,4.542,-2.345,-1.384318,-0.071767,-1.585308,100078.38,+17,-212,-54
182616,6.003,4.314,-2.521,-1.225750,-0.250555,-2.007803,100078.63,+12,-209,-57
182626,6.504,3.800,-2.503,-1.085273,-0.413913,-2.401564,100078.89,+4,-208,-61
182636,7.071,2.843,-2.490,-0.984704,-0.562372,-2.760738,100078.42,+4,-208,-61
182645,7.391,1.700,-2.085,-0.889988,-0.698060,-3.082133,100078.42,-3,-204,-64
182656,7.495,1.010,-1.685,-0.776649,-0.821509,-3.376389,100081.18,-12,-200,-67
182666,7.580,0.863,-1.030,-0.639365,-0.901858,-3.655747,100075.45,-23,-197,-70
182676,7.788,1.141,-0.365,-0.449402,-0.948151,-3.924994,100075.45,-23,-197,-70
182685,8.066,1.589,0.229,-0.189732,-0.957729,-4.178278,100078.38,-35,-193,-72
182695,8.442,1.991,0.789,0.165717,-0.941234,-4.393783,100075.91,-47,-188,-72
182706,9.085,2.049,1.343,0.575974,-0.907179,-4.575765,100075.91,-60,-184,-72
182716,9.884,1.790,1.952,0.985699,-0.890151,-4.723159,100076.28,-60,-184,-72
182726,10.807,1.368,2.450,1.336891,-0.902922,-4.856186,100077.33,-73,-178,-70
182735,11.848,0.821,2.909,1.583790,-0.935381,-4.987617,100075.33,-86,-173,-67
182746,12.871,0.227,3.327,1.697129,-0.996573,-5.104150,100074.44,-99,-166,-65
182756,13.714,-0.532,3.818,1.688083,-1.073729,-5.205250,100078.41,-99,-166,-65
182766,14.293,-1.117,4.220,1.610395,-1.143436,-5.287195,100074.09,-112,-158,-62
182775,14.632,-1.562,4.481,1.466726,-1.187069,-5.359030,100078.34,-124,-148,-61
182786,14.892,-1.842,4.517,1.277295,-1.238151,-5.444700,100078.34,-136,-137,-62
182796,15.318,-2.123,4.426,0.985699,-1.309454,-5.521856,100075.56,-136,-137,-62
182806,15.775,-2.514,4.535,0.621203,-1.380224,-5.559636,100075.56,-147,-124,-63
182815,16.327,-3.302,4.910,0.215736,-1.440885,-5.567085,100078.49,-156,-111,-67
182825,17.083,-4.510,5.342,-0.223787,-1.503142,-5.535159,100078.02,-165,-95,-72
182836,17.716,-5.677,5.922,-0.636172,-1.547307,-5.440975,100075.35,-165,-95,-72
182846,18.408,-6.516,6.538,-0.906484,-1.545178,-5.262186,100075.24,-170,-78,-77
182856,17.892,-8.501,8.524,-0.991089,-1.322757,-4.922700,100075.24,-176,-62,-84
182865,14.664,-10.263,10.141,-0.980447,-0.973160,-4.437948,100076.70,-179,-46,-87
182876,11.900,-11.916,11.343,-0.852209,-0.563968,-3.868591,100075.63,-179,-46,-87
182886,10.886,-13.974,11.369,-0.773456,-0.215436,-3.141197,100074.64,-183,-33,-89
182896,10.601,-15.747,9.680,-0.835713,-0.008445,-2.355271,100074.64,-185,-25,-90
182905,10.752,-16.210,8.494,-0.744722,0.194820,-1.472501,100074.64,-186,-19,-90
182916,10.414,-16.077,7.434,-0.323292,0.430013,-0.453510,100078.59,-186,-19,-90
182926,10.973,-15.834,5.813,0.192855,0.599224,0.554306,100079.16,-187,-19,-89
182936,13.665,-12.445,1.472,0.912799,0.634343,1.604690,100077.85,-188,-24,-86
182946,17.364,12.702,-8.784,1.259735,0.248564,2.151167,100074.60,-186,-33,-84
182956,12.957,23.372,-5.688,0.746249,0.443316,1.777626,100074.60,-186,-33,-84
182966,5.379,7.720,0.588,1.782267,1.135591,1.822855,100082.76,-185,-40,-81
182976,14.596,-7.925,2.609,2.423991,1.486783,2.410304,100076.40,-186,-51,-74
182986,21.381,-11.456,0.814,1.046359,1.205829,2.656671,100078.02,-185,-62,-69
182995,18.629,-4.374,4.500,-0.698961,1.071737,2.219277,100078.02,-185,-62,-69
183006,13.355,3.126,15.824,-0.505805,1.523499,2.142121,100077.09,-183,-65,-66
183016,13.865,6.905,9.041,0.658451,1.574049,2.309736,100075.87,-182,-74,-61
183025,10.501,-4.423,2.584,0.711662,1.335664,2.435313,100075.87,-181,-83,-56
183035,6.590,-6.941,3.704,0.276396,1.307994,2.284726,100075.35,-181,-83,-56
183046,8.734,-3.084,4.869,-0.295622,1.026508,1.997919,100077.09,-178,-89,-52
183056,11.478,-4.143,3.016,-0.947456,0.686490,1.833497,100077.09,-176,-95,-51
183066,11.508,-1.285,2.855,-1.462006,0.557719,1.616397,100081.04,-174,-98,-52
183076,10.476,1.899,2.853,-1.560979,0.461407,1.376947,100079.15,-172,-98,-52
183086,9.888,2.746,2.790,-1.107089,0.494930,1.196030,100077.62,-172,-100,-52
183096,9.158,2.681,2.836,-0.513787,0.596031,1.066195,100076.20,-170,-103,-54
183106,8.793,2.606,3.495,-0.104594,0.651371,1.075773,100079.69,-169,-105,-51
183116,9.034,1.533,3.716,0.063020,0.643921,1.099718,100077.11,-167,-109,-49
183126,9.640,0.576,3.399,0.039075,0.613059,1.048635,100078.73,-167,-109,-49
183136,9.862,0.632,3.359,-0.064686,0.575811,0.951792,100077.73,-167,-111,-49
183146,9.457,0.980,3.619,-0.196117,0.535903,0.850691,100077.73,-165,-113,-47
183156,9.039,1.113,4.567,-0.390869,0.464600,0.774067,100077.73,-164,-115,-47
183165,8.884,1.642,5.095,-0.624466,0.339554,0.691590,100079.09,-164,-115,-47
183176,8.565,2.319,4.743,-0.714392,0.248564,0.616562,100077.09,-163,-116,-47
183186,8.200,2.582,4.108,-0.607438,0.223554,0.590489,100078.87,-162,-116,-48
183196,8.440,2.047,3.452,-0.407897,0.238986,0.614966,100079.18,-161,-118,-47
183206,9.055,1.051,2.653,-0.246668,0.277297,0.673498,100079.18,-161,-118,-47
183216,9.835,0.530,2.535,-0.188668,0.304435,0.724581,100080.25,-161,-120,-47
183226,9.987,0.657,2.944,-0.204099,0.331573,0.735223,100078.52,-159,-122,-47
183236,9.463,0.512,3.675,-0.295622,0.354453,0.710214,100076.83,-158,-124,-46
183246,8.699,0.452,4.061,-0.411622,0.336362,0.677755,100076.83,-158,-124,-46
183256,8.351,1.020,4.092,-0.471750,0.306563,0.662324,100076.83,-156,-125,-47
183266,8.513,1.372,3.838,-0.432906,0.290068,0.697443,100081.29,-156,-126,-47
183276,8.892,1.435,3.544,-0.355750,0.305499,0.763425,100080.60,-154,-128,-47
183286,9.288,1.260,3.578,-0.290833,0.347004,0.819828,100078.82,-154,-128,-47
183296,9.191,0.927,3.618,-0.284980,0.372013,0.851223,100074.82,-152,-130,-46
183306,8.970,1.154,3.712,-0.256246,0.401811,0.859737,100074.82,-151,-132,-46
183316,8.929,0.654,3.754,-0.181218,0.432141,0.887406,100082.18,-149,-134,-45
183326,9.343,-0.666,3.612,-0.196117,0.431077,0.936893,100079.29,-149,-134,-45
183336,9.750,-0.746,3.502,-0.314246,0.415646,0.947003,100077.87,-148,-136,-45
183346,9.872,-0.069,3.656,-0.445677,0.423628,0.929975,100076.31,-147,-138,-45
183356,9.765,0.089,3.619,-0.510062,0.443316,0.940085,100080.88,-144,-140,-45
183366,9.839,0.093,3.389,-0.539860,0.473646,0.970948,100077.20,-144,-140,-45
183375,9.848,-0.029,3.666,-0.582429,0.495462,1.000214,100077.20,-142,-142,-45
183386,9.872,-0.192,3.610,-0.598924,0.495462,1.047571,100077.63,-140,-143,-45
183396,10.009,0.065,3.726,-0.613291,0.524729,1.092801,100077.78,-138,-146,-45
183406,10.114,0.071,4.031,-0.615420,0.559848,1.135369,100077.78,-138,-146,-45
183416,10.706,-0.484,3.745,-0.624998,0.563573,1.189113,100080.35,-137,-148,-46
183426,11.249,-0.836,3.519,-0.675016,0.574215,1.238599,100078.84,-134,-150,-45
183436,11.052,-0.469,3.359,-0.746319,0.593903,1.292874,100080.84,-131,-152,-46
183446,10.973,0.065,3.307,-0.761750,0.580068,1.393975,100079.09,-131,-152,-46
183456,11.346,0.255,3.236,-0.695236,0.575811,1.533920,100079.32,-128,-154,-46
183467,11.722,0.527,3.441,-0.651071,0.596563,1.673864,100080.21,-123,-158,-46
183476,12.160,0.569,3.491,-0.592007,0.599224,1.819663,100077.95,-120,-161,-47
183486,12.558,0.364,3.137,-0.535071,0.613591,1.971846,100078.32,-120,-161,-47
183496,12.529,0.509,3.045,-0.546778,0.650306,2.126690,100078.32,-115,-166,-47
183505,12.258,1.238,3.394,-0.602117,0.642325,2.304415,100078.32,-110,-170,-47
183516,12.868,1.350,3.296,-0.651071,0.632747,2.500231,100077.70,-103,-175,-47
183526,13.978,1.166,2.859,-0.776117,0.654031,2.674231,100077.37,-103,-175,-47
183531,14.954,1.618,2.748,-0.931493,0.629554,2.785442,100079.21,-96,-179,-48
183541,16.185,2.739,3.011,-1.108153,0.561444,2.889203,100077.79,-88,-182,-51
183550,17.777,4.082,2.784,-1.399750,0.505040,2.998818,100077.79,-88,-182,-51
183561,18.760,4.597,1.498,-1.879712,0.519407,3.025423,100079.27,-79,-186,-54
183571,19.993,6.290,0.382,-2.615088,0.426288,2.968488,100078.42,-70,-187,-61
183581,22.012,9.422,-0.055,-3.438262,0.174068,2.892396,100077.06,-62,-187,-71
183591,23.043,11.838,0.030,-4.184280,0.043169,2.855148,100077.06,-62,-187,-71
183601,20.819,11.535,2.827,-4.361472,0.134160,2.932836,100077.06,-53,-184,-83
183611,18.702,6.975,7.323,-3.165290,0.255481,3.356928,100078.58,-43,-181,-93
183621,20.172,3.276,9.104,-1.063988,0.360839,3.945973,100077.22,-32,-184,-94
183631,20.503,0.768,8.570,0.297148,0.398618,4.189680,100078.11,-32,-184,-94
183641,18.410,-1.462,5.739,0.653662,0.411389,4.072615,100076.42,-19,-188,-92
183651,16.632,1.383,4.954,0.782433,0.484288,3.807092,100076.42,-8,-192,-90
183661,14.368,4.655,3.394,1.072965,0.559848,3.296799,100081.04,+1,-196,-86
183671,9.437,4.020,4.428,1.242175,0.324655,2.726910,100079.46,+1,-196,-86
183682,7.470,-3.207,6.183,1.452359,0.171940,2.310268,100078.04,+7,-200,-82
183691,6.049,-5.631,8.430,1.476836,0.087866,1.776030,100074.99,+14,-204,-77
183701,7.230,-0.599,3.829,0.927699,-0.250023,1.067259,100074.99,+18,-205,-75
183711,5.600,2.915,2.141,0.582359,-0.354849,0.225994,100082.66,+18,-205,-75
183721,4.366,4.122,1.685,0.449332,-0.522464,-0.342831,100079.97,+18,-206,-74
183731,3.527,3.106,0.920,0.466359,-0.784794,-0.691895,100077.19,+17,-206,-72
183741,2.550,1.381,0.843,0.495093,-0.990720,-1.002648,100080.81,+15,-206,-70
183751,2.015,0.121,1.097,0.537130,-1.174298,-1.327767,100080.81,+15,-206,-70
183761,1.750,-0.457,1.503,0.562139,-1.361601,-1.731106,100079.48,+12,-206,-69
183771,1.933,-0.420,1.984,0.571185,-1.545178,-2.177546,100078.75,+8,-206,-69
183781,2.392,0.096,2.063,0.561607,-1.740463,-2.637289,100079.02,+1,-206,-68
183791,3.051,0.570,2.035,0.574910,-1.879343,-3.059252,100077.69,+1,-206,-68
183801,3.920,0.620,1.862,0.619607,-1.983637,-3.435453,100077.69,-5,-205,-66
183812,4.333,0.296,1.894,0.679203,-2.055472,-3.751527,100076.33,-16,-204,-66
183821,4.457,-0.041,1.983,0.744653,-2.117728,-4.030352,100077.22,-25,-202,-66
183831,4.900,-0.231,2.201,0.809570,-2.174664,-4.309177,100073.86,-38,-199,-64
183841,5.519,-0.387,2.386,0.880873,-2.197013,-4.567251,100073.08,-38,-199,-64
183852,6.139,-0.459,2.596,1.003258,-2.159765,-4.819471,100073.08,-50,-195,-65
183861,6.833,-0.427,3.013,1.130965,-2.096976,-5.073287,100075.04,-62,-190,-64
183871,7.817,-0.490,3.525,1.168212,-2.075692,-5.318590,100069.99,-75,-184,-64
183881,8.868,-0.437,3.849,1.154909,-2.084738,-5.561764,100070.21,-75,-184,-64
183891,9.963,-0.412,4.097,1.129900,-2.080481,-5.825690,100072.99,-90,-176,-64
183901,11.419,-0.467,4.434,1.083075,-2.082609,-6.094938,100072.99,-105,-166,-64
183911,13.228,-0.547,4.714,1.023478,-2.083673,-6.324277,100072.29,-118,-154,-66
183921,14.720,-1.160,5.130,0.969203,-2.060261,-6.487635,100074.09,-118,-154,-66
183931,15.945,-2.212,5.837,1.003790,-2.059729,-6.605763,100071.29,-131,-140,-68
183942,17.776,-3.913,6.951,1.070836,-2.043765,-6.678130,100071.35,-144,-125,-71
183951,20.346,-6.393,7.649,0.921845,-2.058664,-6.653653,100071.35,-154,-110,-74
183961,21.825,-8.630,7.517,0.542983,-2.106554,-6.531800,100075.63,-154,-110,-74
183971,22.159,-10.342,7.626,0.071002,-2.078352,-6.363653,100076.89,-163,-92,-80
183982,20.446,-11.054,8.861,-0.422264,-1.989490,-6.120479,100075.47,-169,-73,-86
183991,17.128,-9.821,11.069,-0.794209,-1.760151,-5.751727,100072.38,-174,-56,-92
184001,15.109,-8.692,13.632,-0.849016,-1.276463,-5.246223,100072.38,-174,-56,-92
184011,14.600,-9.894,14.442,-0.798465,-0.709766,-4.696022,100076.20,-178,-38,-95
184022,13.569,-13.373,11.680,-0.896906,-0.305895,-4.055361,100077.36,-181,-23,-97
184031,12.821,-17.066,8.499,-1.004924,-0.072299,-3.205582,100075.36,-183,-12,-99
184041,11.445,-19.527,7.127,-0.772392,0.118729,-2.083363,100075.25,-183,-12,-99
184051,9.825,-20.883,8.080,-0.418539,0.314013,-0.798850,100075.25,-185,-6,-99
184061,9.274,-20.144,9.439,-0.173769,0.527389,0.472361,100075.24,-184,-6,-96
184072,10.333,-16.599,9.885,0.001828,0.751939,1.589259,100076.71,-185,-12,-94
184081,12.154,-7.128,7.082,0.344506,0.923811,2.294837,100075.02,-185,-12,-94
184091,14.472,16.478,-3.221,0.881937,0.667334,2.227259,100079.23,-185,-19,-90
184101,14.942,36.454,-12.813,-0.300411,0.388508,0.886342,100079.23,-185,-25,-89
184112,6.026,9.869,-5.180,1.025607,0.940838,1.218379,100081.63,-185,-30,-85
184117,8.442,-6.323,5.065,3.280688,1.686324,2.266103,100077.16,-185,-30,-85
184126,17.101,-5.292,2.809,3.669660,1.538398,3.069056,100077.16,-185,-45,-76
184136,21.706,-5.194,-1.123,1.558249,1.068545,2.756176,100078.74,-183,-55,-72
184146,16.020,-5.337,0.905,0.267350,1.155279,2.121369,100076.59,-183,-55,-72
184157,14.522,-3.648,15.363,0.312048,1.661847,2.447552,100076.59,-182,-63,-67
184167,17.172,0.707,15.379,1.124047,2.115205,2.615167,100076.07,-181,-72,-61
184176,19.276,-1.443,-0.161,1.050084,1.599590,2.435313,100077.46,-179,-81,-54
184186,10.843,-7.126,0.316,0.453589,1.613957,2.638047,100077.24,-179,-81,-54
184197,5.200,-0.490,5.211,0.430708,1.630985,2.504488,100077.24,-178,-90,-49
184206,6.768,-2.631,5.813,0.199772,1.255847,2.174048,100077.24,-174,-98,-44
184216,10.227,-5.513,4.299,-0.281255,0.916361,1.919699,100078.79,-172,-103,-42
184226,11.917,-3.472,2.654,-1.021420,0.582728,1.658965,100075.16,-172,-103,-42
184237,12.725,-0.152,2.311,-1.335364,0.440123,1.437076,100079.52,-170,-105,-43
184246,11.393,1.396,2.597,-1.202337,0.448637,1.234874,100078.99,-168,-108,-44
184256,9.277,2.330,2.009,-0.863383,0.523132,1.044379,100078.99,-166,-110,-44
184266,9.040,3.541,2.362,-0.494631,0.619976,1.020966,100079.38,-166,-110,-44
184276,9.230,2.825,3.400,-0.183347,0.665738,1.094929,100076.62,-165,-113,-44
184287,9.726,1.336,3.636,-0.002961,0.635407,1.082690,100078.01,-163,-115,-42
184296,10.078,0.510,3.690,-0.014136,0.557719,1.005002,100078.01,-163,-119,-41
184306,9.664,0.326,3.369,-0.102466,0.500251,0.871443,100077.91,-163,-119,-41
184316,9.258,0.239,3.493,-0.229108,0.455554,0.760232,100077.91,-160,-120,-39
184327,9.141,0.569,4.123,-0.417475,0.371481,0.681480,100078.64,-160,-122,-39
184336,9.130,1.263,4.263,-0.652135,0.277297,0.585700,100076.59,-158,-123,-40
184346,8.893,2.279,4.092,-0.795273,0.228875,0.508544,100078.69,-158,-123,-40
184351,8.724,2.715,3.672,-0.810172,0.213444,0.478214,100078.69,-157,-123,-41
184361,8.754,2.478,3.144,-0.696833,0.235793,0.487792,100077.69,-156,-123,-41
184372,8.884,1.824,2.471,-0.469090,0.290600,0.550581,100079.42,-156,-123,-41
184381,9.165,1.203,2.579,-0.278594,0.337958,0.626673,100075.73,-156,-125,-41
184391,9.251,0.695,3.351,-0.232833,0.352857,0.650617,100077.11,-154,-127,-41
184401,9.015,0.610,3.853,-0.332337,0.339022,0.621884,100077.11,-153,-128,-41
184412,8.799,0.934,4.081,-0.455787,0.318802,0.572397,100080.12,-153,-128,-41
184422,8.685,1.150,3.963,-0.564337,0.292197,0.561223,100078.16,-152,-129,-41
184431,8.832,1.351,3.550,-0.607438,0.287940,0.589957,100078.59,-151,-130,-42
184441,8.971,1.441,3.181,-0.582961,0.308692,0.630397,100080.43,-150,-130,-42
184452,9.124,1.507,3.040,-0.537732,0.335297,0.678287,100080.43,-150,-130,-42
184462,9.234,1.889,3.328,-0.461640,0.374141,0.729370,100079.51,-149,-132,-41
184467,9.215,2.116,3.583,-0.397255,0.405004,0.768746,100077.66,-147,-134,-42
184476,9.233,1.799,3.717,-0.341915,0.433206,0.813443,100077.66,-147,-134,-42
184486,9.321,0.881,3.649,-0.343512,0.465132,0.879957,100079.91,-146,-135,-42
184497,9.445,0.364,3.430,-0.446741,0.485884,0.926782,100075.93,-144,-137,-41
184507,9.485,0.514,3.163,-0.552099,0.500251,0.962966,100075.93,-144,-140,-41
184517,9.463,0.774,2.979,-0.580301,0.528453,1.034801,100078.23,-144,-140,-41
184526,9.614,0.825,2.887,-0.569658,0.578472,1.125791,100076.50,-140,-142,-41
184537,10.060,0.797,2.906,-0.559016,0.625829,1.226360,100075.19,-138,-144,-41
184547,10.370,1.156,3.029,-0.529218,0.674251,1.338103,100075.19,-136,-146,-41
184556,10.281,1.501,3.486,-0.444080,0.727994,1.460488,100075.19,-136,-146,-41
184566,10.193,1.393,4.049,-0.346704,0.783866,1.589791,100080.09,-133,-150,-39
184577,10.368,0.739,4.199,-0.308392,0.806747,1.727608,100080.09,-128,-154,-38
184587,11.356,-0.235,3.776,-0.370649,0.799829,1.852831,100076.57,-124,-158,-38
184596,12.042,-0.401,3.286,-0.512190,0.796104,1.919167,100076.57,-124,-158,-38
184606,12.218,-0.061,2.740,-0.626062,0.793976,1.997919,100076.57,-120,-162,-38
184616,12.323,0.357,2.445,-0.628722,0.801958,2.130415,100078.99,-115,-166,-38
184627,12.420,0.327,2.691,-0.592007,0.818985,2.290580,100077.49,-110,-170,-38
184637,12.510,-0.072,2.770,-0.606374,0.829095,2.447020,100077.21,-110,-170,-38
184646,12.698,0.165,2.915,-0.733016,0.836545,2.581644,100077.21,-103,-174,-37
184656,13.112,0.715,3.114,-0.922979,0.839737,2.714139,100081.56,-95,-179,-38
184667,13.850,1.560,3.261,-1.127841,0.819517,2.849827,100081.56,-88,-183,-40
184677,15.699,3.043,3.772,-1.291731,0.711499,3.003607,100075.58,-88,-183,-40
184686,18.129,4.080,3.965,-1.512557,0.648710,3.145148,100080.94,-79,-186,-42
184696,20.371,4.410,2.482,-2.100538,0.721077,3.171221,100075.16,-69,-190,-47
184701,22.379,7.262,1.922,-2.809840,0.734912,3.094065,100075.16,-69,-190,-47
184712,23.497,12.213,1.713,-3.422831,0.596563,3.031276,100077.55,-61,-190,-56
184722,22.910,15.988,0.673,-3.952812,0.440655,3.154194,100081.04,-51,-190,-66
184731,21.870,13.831,1.118,-3.984207,0.409261,3.328194,100077.46,-40,-190,-66
184741,20.910,6.590,3.849,-3.367491,0.495995,3.547955,100078.04,-40,-188,-76
184752,21.084,-1.285,7.695,-2.076061,0.559316,3.956083,100078.04,-29,-186,-82
184762,21.624,-2.484,9.432,-1.247034,0.346472,4.149239,100076.83,-16,-188,-85
184771,18.994,0.681,8.218,-0.669163,0.235793,3.900744,100076.09,-4,-189,-86
184781,17.032,3.506,5.568,0.236488,0.416710,3.751753,100078.41,-4,-189,-86
184792,16.039,5.521,4.377,1.175662,0.667866,3.514432,100076.98,+6,-192,-84
184802,11.583,4.173,4.929,1.680102,0.626361,3.008928,100076.98,+16,-196,-77
184812,7.578,-2.079,4.165,1.634872,0.348068,2.449681,100079.70,+23,-199,-72
184821,5.072,-7.055,7.713,1.425753,0.194288,1.793589,100077.70,+23,-199,-72
184832,6.200,-0.793,3.915,0.938873,-0.187766,0.958177,100075.61,+28,-202,-68
184842,5.757,3.692,1.008,0.433901,-0.396353,0.065829,100075.97,+29,-202,-66
184852,3.962,5.005,0.897,0.277993,-0.503840,-0.692428,100075.97,+28,-202,-65
184861,3.269,3.399,0.374,0.233295,-0.803417,-1.104813,100079.73,+28,-202,-65
184871,2.504,0.822,0.392,0.270543,-1.065747,-1.407583,100077.41,+25,-202,-64
184882,1.882,-0.710,0.804,0.340249,-1.229105,-1.722060,100079.10,+23,-200,-62
184892,1.307,-0.844,1.138,0.347699,-1.418004,-2.166904,100076.57,+17,-200,-62
184901,1.596,-0.085,1.187,0.362066,-1.618610,-2.658041,100076.57,+17,-200,-62
184911,2.686,0.709,1.129,0.407827,-1.772921,-3.095967,100073.69,+11,-200,-61
184922,3.612,0.697,0.971,0.461570,-1.891582,-3.462059,100071.06,+3,-198,-59
184932,4.219,0.231,0.981,0.518506,-1.962353,-3.786114,100072.75,-5,-196,-57
184937,4.482,-0.098,1.213,0.575442,-1.986297,-4.009600,100071.28,-5,-196,-57
184946,4.677,-0.339,1.416,0.635038,-2.000664,-4.209141,100071.28,-17,-194,-56
184956,4.988,-0.642,1.632,0.682928,-1.998536,-4.460297,100071.28,-27,-194,-56
184967,5.520,-0.602,1.845,0.736671,-1.990554,-4.716774,100069.45,-27,-192,-55
184977,6.298,-0.364,2.214,0.814891,-1.967142,-4.959948,100066.51,-39,-188,-54
184987,7.092,-0.334,2.586,0.968139,-1.931490,-5.180241,100066.87,-52,-183,-51
184996,7.768,-0.590,3.131,1.113937,-1.898499,-5.395746,100066.87,-65,-178,-50
185007,8.638,-0.917,3.671,1.202267,-1.881472,-5.603801,100069.27,-65,-178,-50
185017,9.583,-0.972,3.966,1.304964,-1.863380,-5.817177,100069.27,-79,-170,-48
185027,10.690,-1.006,4.067,1.431607,-1.839967,-6.026828,100068.84,-94,-163,-46
185036,12.344,-1.310,4.403,1.482689,-1.835178,-6.197635,100069.58,-107,-152,-45
185047,14.012,-1.937,4.668,1.424157,-1.865509,-6.309910,100070.38,-107,-152,-45
185057,15.081,-2.785,5.323,1.316139,-1.892646,-6.373764,100070.38,-122,-141,-44
185067,16.172,-3.886,6.408,1.248561,-1.895839,-6.415268,100074.61,-135,-128,-45
185077,17.593,-5.406,7.386,1.124047,-1.890518,-6.406754,100071.30,-148,-113,-46
185086,19.114,-7.292,7.813,0.894176,-1.887857,-6.315231,100071.88,-148,-113,-46
185097,20.419,-9.298,7.798,0.499350,-1.884664,-6.146553,100073.16,-160,-99,-49
185107,20.133,-10.515,8.417,-0.054576,-1.897967,-5.922002,100074.95,-169,-81,-54
185117,17.897,-9.455,9.852,-0.572851,-1.817087,-5.626681,100074.47,-175,-64,-61
185126,15.381,-7.565,11.975,-0.660649,-1.462701,-5.229196,100074.00,-175,-64,-61
185137,13.952,-8.030,13.775,-0.527622,-0.947087,-4.790737,100074.00,-181,-47,-63
185147,13.277,-11.289,12.718,-0.620741,-0.505968,-4.258627,100072.38,-185,-32,-66
185157,12.488,-14.967,9.851,-0.933621,-0.179785,-3.594022,100072.38,-188,-19,-67
185166,12.020,-17.705,6.860,-1.231603,0.007518,-2.676133,100079.05,-188,-19,-67
