70069,9.508,-1.307,2.502,0.005196,-0.005278,-0.010016,99947.77,+96,+140,+182
70079,9.531,-1.286,2.494,0.004664,-0.004746,-0.010548,99947.46,+95,+140,+179
70088,9.533,-1.299,2.475,0.002004,-0.004746,-0.011080,99945.41,+97,+144,+185
70098,9.492,-1.283,2.496,0.002004,-0.004213,-0.012676,99945.41,+95,+139,+182
70109,9.502,-1.304,2.485,0.000408,-0.005278,-0.011612,99946.79,+96,+140,+179
70119,9.495,-1.293,2.520,-0.001189,-0.004746,-0.012676,99947.21,+96,+140,+179
70129,9.506,-1.285,2.482,-0.001189,-0.005810,-0.011612,99947.95,+97,+143,+186
70138,9.487,-1.256,2.493,-0.000657,-0.005278,-0.011612,99946.95,+95,+139,+181
70149,9.504,-1.292,2.459,0.001472,-0.005278,-0.010548,99946.95,+95,+140,+180
70159,9.504,-1.281,2.512,0.003068,-0.004213,-0.008419,99946.77,+95,+140,+180
70169,9.519,-1.310,2.536,0.003600,-0.004213,-0.009484,99949.17,+97,+143,+187
70178,9.505,-1.297,2.493,0.004664,-0.003149,-0.010548,99945.08,+95,+140,+181
70189,9.486,-1.280,2.519,0.004132,-0.004213,-0.009484,99945.70,+95,+140,+180
70199,9.477,-1.250,2.540,0.003600,-0.004746,-0.009484,99945.70,+95,+140,+180
70209,9.500,-1.259,2.518,0.003068,-0.004213,-0.010016,99949.91,+97,+142,+187
70218,9.499,-1.273,2.452,0.003600,-0.004746,-0.010016,99947.13,+95,+140,+181
70228,9.514,-1.291,2.477,0.003068,-0.004746,-0.009484,99946.55,+95,+140,+180
70239,9.523,-1.271,2.493,0.003600,-0.004213,-0.008951,99947.09,+95,+140,+180
70249,9.526,-1.274,2.455,0.003068,-0.003681,-0.008951,99947.09,+97,+144,+186
70259,9.521,-1.265,2.479,0.003068,-0.004213,-0.008419,99945.68,+95,+139,+180
70268,9.523,-1.260,2.490,0.003600,-0.004213,-0.007887,99948.73,+96,+140,+181
70279,9.519,-1.262,2.494,0.004132,-0.003681,-0.006823,99945.73,+96,+140,+181
70289,9.541,-1.287,2.516,0.007857,-0.003681,-0.007887,99942.21,+97,+143,+187
70299,9.514,-1.298,2.487,0.008389,-0.003149,-0.008419,99942.21,+94,+139,+180
70308,9.514,-1.291,2.475,0.007325,-0.002617,-0.009484,99945.30,+95,+140,+181
70319,9.514,-1.289,2.493,0.006793,-0.002617,-0.012144,99947.45,+95,+140,+181
70329,9.509,-1.297,2.510,0.006261,-0.003149,-0.013208,99947.77,+97,+143,+186
70339,9.501,-1.286,2.500,0.006793,-0.004213,-0.015337,99945.66,+95,+139,+180
70348,9.498,-1.279,2.466,0.006793,-0.004746,-0.016401,99945.66,+96,+141,+182
70359,9.489,-1.271,2.466,0.006793,-0.004213,-0.016933,99947.38,+96,+141,+182
70369,9.499,-1.268,2.509,0.006261,-0.004213,-0.016933,99944.06,+97,+142,+187
70379,9.514,-1.259,2.534,0.008389,-0.003681,-0.016933,99946.38,+95,+140,+179
70389,9.509,-1.279,2.515,0.008921,-0.004213,-0.016933,99944.59,+96,+140,+182
70398,9.531,-1.271,2.491,0.009985,-0.003149,-0.016933,99944.59,+96,+140,+182
70409,9.514,-1.266,2.508,0.009985,-0.003681,-0.017465,99947.21,+97,+143,+187
70419,9.494,-1.261,2.501,0.009453,-0.003681,-0.016933,99946.32,+95,+139,+179
70429,9.512,-1.250,2.501,0.006793,-0.003681,-0.017465,99945.95,+96,+141,+182
70438,9.515,-1.220,2.488,0.005729,-0.004213,-0.016401,99946.68,+96,+141,+182
70449,9.515,-1.213,2.510,0.005196,-0.003681,-0.016401,99946.68,+97,+142,+187
70459,9.517,-1.238,2.471,0.004132,-0.003681,-0.015514,99947.49,+95,+139,+179
70469,9.512,-1.225,2.473,0.005196,-0.002617,-0.014273,99946.45,+96,+141,+183
70478,9.529,-1.271,2.458,0.005196,-0.002085,-0.012144,99944.46,+96,+141,+183
70489,9.507,-1.247,2.483,0.006793,-0.002085,-0.013208,99945.45,+97,+142,+186
70499,9.521,-1.261,2.500,0.007325,-0.001021,-0.013208,99945.45,+95,+139,+179
70509,9.511,-1.263,2.527,0.006261,-0.002085,-0.011612,99947.30,+97,+142,+183
70519,9.508,-1.250,2.526,0.008921,-0.003681,-0.010548,99946.72,+97,+142,+183
70529,9.523,-1.178,2.530,0.007325,-0.003149,-0.010548,99945.83,+98,+142,+185
70539,9.545,-1.284,2.489,0.004132,-0.001553,-0.011612,99944.98,+95,+139,+179
70549,9.567,-1.278,2.506,0.002536,-0.001553,-0.010548,99944.98,+97,+141,+183
70559,9.551,-1.213,2.490,0.000408,-0.001021,-0.010016,99945.78,+98,+141,+186
70568,9.531,-1.251,2.512,0.000408,-0.001021,-0.011080,99948.19,+98,+142,+186
70579,9.536,-1.257,2.552,-0.003317,-0.001021,-0.010548,99947.45,+95,+139,+178
70589,9.573,-1.217,2.531,-0.005446,-0.002085,-0.011612,99943.89,+97,+141,+183
70599,9.562,-1.229,2.538,-0.010767,-0.001553,-0.011080,99943.89,+97,+142,+186
70609,9.536,-1.223,2.501,-0.017684,-0.000489,-0.008419,99950.54,+97,+142,+186
70619,9.543,-1.225,2.500,-0.020877,0.001108,-0.008419,99949.12,+95,+139,+179
70629,9.555,-1.230,2.532,-0.021409,0.000043,-0.007355,99944.35,+97,+142,+183
70639,9.561,-1.259,2.478,-0.025666,0.001108,-0.004695,99948.07,+97,+141,+185
70649,9.496,-1.271,2.472,-0.028859,0.003236,-0.005227,99948.07,+97,+141,+185
70659,9.463,-1.278,2.454,-0.029391,0.004832,-0.007355,99946.85,+94,+139,+179
70669,9.498,-1.254,2.484,-0.026198,0.006961,-0.009484,99944.65,+97,+141,+183
70679,9.539,-1.263,2.470,-0.019813,0.007493,-0.013208,99943.60,+97,+141,+184
70689,9.507,-1.305,2.494,-0.014492,0.009089,-0.014273,99945.70,+97,+141,+184
70694,9.507,-1.363,2.476,-0.013959,0.010154,-0.017997,99945.70,+95,+138,+179
70704,9.482,-1.346,2.459,-0.017684,0.011218,-0.023850,99945.70,+95,+138,+179
70714,9.460,-1.376,2.455,-0.025134,0.013878,-0.031832,99946.98,+97,+142,+185
70724,9.480,-1.360,2.496,-0.032051,0.016007,-0.041942,99947.76,+97,+141,+184
70734,9.519,-1.340,2.487,-0.035776,0.017071,-0.052052,99944.99,+95,+138,+179
70745,9.469,-1.412,2.465,-0.041097,0.019199,-0.058970,99946.25,+95,+138,+179
70754,9.410,-1.374,2.457,-0.049611,0.020796,-0.062162,99945.98,+98,+141,+185
70764,9.416,-1.214,2.552,-0.043758,0.026649,-0.073337,99945.34,+97,+140,+184
70774,9.442,-1.316,2.483,-0.037372,0.025053,-0.075997,99945.34,+96,+138,+179
70784,9.465,-1.194,2.483,-0.034180,0.025585,-0.078126,99943.67,+96,+138,+179
70794,9.422,-1.262,2.479,-0.027794,0.027713,-0.079722,99946.08,+98,+140,+187
70804,9.404,-1.285,2.496,-0.030455,0.030374,-0.078658,99946.08,+97,+140,+184
70814,9.387,-1.193,2.416,-0.033115,0.036759,-0.079722,99947.43,+96,+137,+179
70823,9.407,-1.151,2.441,-0.023005,0.043144,-0.080786,99947.27,+99,+140,+186
70834,9.506,-1.055,2.479,-0.006510,0.047933,-0.080254,99945.34,+99,+140,+186
70844,9.593,-0.949,2.549,0.020096,0.053787,-0.081318,99944.60,+98,+139,+183
70854,9.605,-1.213,2.539,0.050426,0.055383,-0.081318,99948.05,+96,+138,+179
70864,9.464,-1.370,2.463,0.057343,0.058576,-0.083979,99944.79,+99,+141,+187
70875,9.324,-1.401,2.325,0.048297,0.065493,-0.096217,99944.85,+99,+141,+187
70884,9.238,-1.328,2.230,0.055747,0.078264,-0.110584,99945.70,+99,+140,+183
70894,9.213,-1.211,2.238,0.080224,0.089438,-0.121759,99945.70,+98,+137,+179
70904,9.229,-1.129,2.242,0.132903,0.099548,-0.127612,99945.70,+100,+141,+187
70914,9.340,-1.206,2.319,0.191435,0.107530,-0.133465,99945.28,+100,+141,+187
70924,9.341,-1.292,2.358,0.231875,0.116043,-0.140383,99948.22,+99,+140,+182
70930,9.308,-1.382,2.344,0.245710,0.124025,-0.148896,99948.02,+99,+140,+182
70939,9.262,-1.469,2.441,0.241985,0.129878,-0.165392,99945.23,+99,+139,+178
70949,9.286,-1.389,2.575,0.230279,0.133603,-0.190401,99945.23,+103,+143,+185
70959,9.252,-1.304,2.718,0.220701,0.132539,-0.214346,99948.98,+101,+142,+181
70969,9.141,-1.217,2.739,0.218040,0.130942,-0.237759,99946.27,+101,+142,+181
70979,9.178,-1.146,2.776,0.231875,0.124557,-0.259043,99948.05,+101,+141,+178
70989,9.268,-1.001,2.753,0.243050,0.118704,-0.270217,99945.16,+104,+145,+185
70999,9.396,-0.819,2.866,0.251031,0.116043,-0.280860,99945.16,+103,+143,+180
71009,9.668,-0.536,3.138,0.261141,0.106465,-0.288309,99946.38,+103,+143,+180
71019,9.842,-0.182,3.249,0.270187,0.089438,-0.280860,99945.45,+103,+144,+179
71029,9.877,-0.266,3.228,0.262738,0.070814,-0.262236,99946.43,+105,+146,+184
71040,9.843,-0.501,3.105,0.225490,0.055383,-0.238823,99943.34,+104,+144,+179
71049,9.869,-0.430,3.140,0.167490,0.039420,-0.220731,99943.34,+104,+144,+177
71059,9.865,-0.320,3.170,0.113215,0.021860,-0.197318,99948.42,+104,+144,+177
71069,9.882,-0.328,3.238,0.080756,-0.001553,-0.172309,99946.55,+107,+148,+184
71079,9.936,-0.524,3.235,0.046701,-0.028690,-0.151557,99943.39,+104,+145,+178
71089,9.840,-0.685,3.029,-0.012363,-0.048911,-0.135061,99943.50,+104,+144,+177
71099,9.782,-0.665,2.970,-0.066106,-0.064342,-0.124951,99943.50,+104,+144,+177
71109,9.719,-0.470,2.929,-0.110803,-0.077645,-0.116438,99946.60,+107,+147,+183
71119,9.565,-0.294,2.840,-0.140069,-0.086690,-0.096750,99945.55,+104,+144,+179
71130,9.559,-0.260,2.817,-0.152840,-0.090415,-0.078126,99946.02,+104,+144,+178
71139,9.536,-0.431,2.757,-0.159225,-0.092012,-0.059502,99946.34,+104,+144,+178
71149,9.459,-0.478,2.720,-0.173060,-0.093076,-0.040878,99946.34,+107,+146,+185
71159,9.416,-0.489,2.694,-0.183170,-0.092544,-0.031832,99946.27,+104,+142,+179
71170,9.363,-0.483,2.605,-0.186895,-0.087223,-0.025447,99944.38,+103,+142,+179
71179,9.421,-0.513,2.680,-0.172528,-0.081901,-0.020658,99945.07,+103,+142,+179
71189,9.460,-0.647,2.680,-0.150180,-0.085626,-0.016933,99946.70,+106,+144,+185
71199,9.439,-0.774,2.692,-0.132620,-0.088287,-0.014805,99946.70,+103,+140,+179
71209,9.373,-0.846,2.679,-0.125703,-0.092012,-0.020658,99947.77,+104,+142,+180
71219,9.381,-0.849,2.664,-0.122510,-0.095736,-0.032896,99949.08,+104,+142,+180
71229,9.429,-0.810,2.575,-0.119849,-0.097333,-0.045135,99945.14,+105,+144,+187
71239,9.482,-0.787,2.612,-0.108143,-0.095204,-0.058438,99946.72,+103,+140,+179
71249,9.556,-0.803,2.603,-0.098033,-0.095204,-0.067483,99946.72,+103,+140,+182
71260,9.509,-0.794,2.552,-0.093776,-0.094140,-0.073337,99947.69,+103,+140,+182
71269,9.482,-0.629,2.502,-0.092180,-0.091479,-0.077061,99947.11,+104,+142,+187
71279,9.488,-0.472,2.560,-0.081537,-0.087223,-0.075997,99947.75,+103,+139,+179
71289,9.541,-0.479,2.520,-0.075684,-0.084562,-0.069080,99943.77,+103,+140,+182
71300,9.605,-0.412,2.572,-0.075152,-0.077112,-0.055777,99943.77,+103,+140,+182
71309,9.598,-0.394,2.585,-0.067703,-0.076048,-0.040346,99948.00,+105,+142,+187
71319,9.502,-0.387,2.589,-0.060253,-0.078177,-0.019594,99950.14,+102,+138,+180
71329,9.492,-0.315,2.513,-0.056528,-0.077112,-0.004162,99947.11,+103,+140,+183
71340,9.598,-0.327,2.477,-0.045354,-0.074984,0.015526,99946.00,+103,+140,+183
71349,9.633,-0.326,2.513,-0.027794,-0.071259,0.040535,99946.00,+104,+142,+187
71359,9.611,-0.325,2.586,-0.016088,-0.070195,0.065544,99944.96,+101,+138,+179
71369,9.681,-0.343,2.731,-0.014492,-0.072323,0.088425,99947.43,+103,+140,+183
71379,9.593,-0.473,2.696,-0.036308,-0.079773,0.112370,99947.54,+103,+140,+183
71390,9.471,-0.521,2.513,-0.066106,-0.084562,0.130993,99944.76,+103,+141,+187
71400,9.533,-0.383,2.577,-0.084553,-0.086336,0.148730,99944.76,+101,+138,+180
71409,9.660,-0.416,2.545,-0.088987,-0.090947,0.167709,99946.09,+101,+139,+185
71419,9.599,-0.442,2.592,-0.100161,-0.092544,0.199636,99944.62,+101,+139,+185
71430,9.567,-0.429,2.664,-0.115060,-0.095204,0.226241,99945.66,+102,+140,+187
71439,9.489,-0.368,2.648,-0.137941,-0.099461,0.254443,99946.35,+99,+137,+180
71449,9.356,-0.172,2.478,-0.153904,-0.097865,0.285837,99946.35,+100,+139,+185
71459,9.419,-0.121,2.305,-0.133152,-0.093076,0.322021,99948.46,+100,+139,+185
71470,9.729,0.068,2.469,-0.058657,-0.092544,0.368314,99946.09,+101,+140,+188
71479,10.066,0.247,2.759,0.047765,-0.106379,0.426846,99947.40,+97,+137,+180
71489,10.195,0.034,2.917,0.143013,-0.130323,0.498681,99944.68,+98,+140,+185
71499,10.119,-0.260,3.087,0.155251,-0.157993,0.574241,99944.68,+98,+140,+187
71510,10.012,-0.285,3.081,0.088206,-0.182470,0.635433,99948.60,+98,+141,+187
71520,10.228,-0.109,3.006,0.027545,-0.204287,0.682259,99945.91,+94,+138,+180
71529,10.678,0.158,2.953,-0.011831,-0.221846,0.750369,99942.66,+94,+141,+185
71539,10.966,0.189,2.758,-0.066106,-0.221846,0.850938,99942.93,+93,+141,+185
71549,10.839,-0.455,2.020,-0.145391,-0.176085,0.958424,99942.93,+93,+141,+185
71560,10.808,-1.131,1.130,-0.262455,-0.100525,1.058461,99946.15,+90,+139,+179
71569,10.844,-1.330,0.674,-0.376858,-0.003681,1.153176,99945.10,+91,+140,+185
71579,11.003,-1.399,0.718,-0.451886,0.091566,1.243103,99944.85,+90,+140,+187
71589,11.591,-1.878,1.002,-0.533831,0.190539,1.302699,99947.15,+90,+140,+187
71600,12.524,-2.077,1.804,-0.703042,0.270355,1.285672,99947.15,+87,+135,+180
71610,13.666,-1.409,1.318,-0.899922,0.273016,1.225543,99947.29,+88,+136,+188
71619,14.173,-1.351,1.032,-0.983463,0.253860,1.238314,99946.87,+87,+132,+188
71629,13.861,-1.576,1.821,-0.877574,0.274080,1.314938,99945.66,+87,+132,+188
71634,13.386,-1.698,2.306,-0.769555,0.304942,1.322919,99945.66,+83,+128,+183
71645,12.842,-2.241,3.058,-0.704106,0.337933,1.303763,99945.66,+83,+128,+183
71655,12.204,-2.963,4.186,-0.697720,0.384227,1.284607,99945.66,+84,+128,+190
71664,11.669,-4.004,5.036,-0.783922,0.434777,1.258002,99947.52,+82,+125,+190
71674,11.169,-5.760,5.691,-0.929720,0.480006,1.230864,99945.11,+80,+121,+183
71685,10.774,-6.853,6.344,-1.063812,0.532153,1.275029,99944.88,+80,+121,+183
71695,10.555,-6.796,6.065,-1.181408,0.586428,1.351653,99944.88,+81,+118,+193
71704,10.665,-6.139,5.217,-1.274528,0.638043,1.376130,99946.50,+79,+114,+192
71714,10.240,-5.415,4.549,-1.341573,0.698171,1.339947,99946.50,+76,+107,+187
71725,9.472,-5.109,4.129,-1.371372,0.734355,1.295782,99945.19,+77,+107,+195
71735,8.847,-5.149,3.874,-1.335720,0.757768,1.261727,99946.50,+77,+104,+195
71744,8.255,-5.178,3.639,-1.244197,0.779052,1.231928,99942.92,+77,+100,+193
71754,7.616,-4.892,3.257,-1.122876,0.789694,1.195213,99942.92,+73,+93,+187
71764,6.935,-4.458,2.670,-0.965372,0.787566,1.141470,99947.35,+76,+92,+196
71775,6.362,-3.914,2.076,-0.771152,0.771603,1.072296,99943.84,+76,+92,+196
71785,5.893,-3.507,1.558,-0.559372,0.741272,1.012167,99944.88,+75,+88,+193
71794,5.371,-3.358,1.219,-0.340675,0.698171,0.963745,99942.93,+73,+85,+187
71804,4.822,-3.242,1.104,-0.127831,0.654538,0.906277,99945.40,+74,+85,+195
71815,4.355,-3.142,0.970,0.056811,0.607181,0.824865,99946.18,+74,+85,+195
71825,3.985,-3.055,0.888,0.193031,0.552906,0.730681,99945.91,+74,+84,+192
71834,3.677,-2.982,0.829,0.285618,0.491713,0.635433,99945.91,+73,+83,+186
71844,3.421,-2.961,0.702,0.343086,0.431584,0.530608,99945.29,+75,+85,+193
71855,3.216,-2.960,0.682,0.358517,0.369328,0.413544,99945.29,+75,+85,+193
71865,3.067,-3.012,0.718,0.350004,0.311328,0.297012,99944.05,+74,+85,+191
71874,2.972,-3.084,0.732,0.316481,0.253328,0.169305,99943.36,+73,+83,+185
71884,2.946,-3.206,0.621,0.260609,0.191071,0.036810,99943.73,+76,+87,+193
71895,2.887,-3.320,0.605,0.193563,0.127218,-0.094621,99944.83,+76,+87,+193
71905,2.952,-3.291,0.662,0.123857,0.064961,-0.230309,99944.83,+75,+87,+189
71915,3.086,-3.368,0.763,0.056811,-0.002617,-0.367061,99945.69,+75,+86,+185
71924,3.268,-3.452,0.954,0.004664,-0.071259,-0.501153,99947.58,+79,+89,+193
71934,3.446,-3.597,1.240,-0.027794,-0.138837,-0.636309,99947.27,+79,+89,+193
71945,3.744,-3.673,1.550,-0.031519,-0.200562,-0.762419,99947.27,+77,+87,+188
71955,4.194,-3.637,1.860,-0.002253,-0.259094,-0.881079,99947.27,+78,+88,+186
71964,4.923,-3.588,2.038,0.069050,-0.314433,-0.985905,99947.10,+81,+91,+192
71974,5.812,-3.531,2.144,0.158444,-0.369773,-1.077428,99947.84,+81,+91,+192
71985,6.556,-3.452,2.165,0.261141,-0.429901,-1.154584,99943.38,+79,+91,+187
71995,7.139,-3.424,2.283,0.373416,-0.487369,-1.216841,99946.70,+81,+93,+185
72004,7.790,-3.638,2.459,0.476646,-0.544837,-1.270584,99946.70,+84,+96,+192
72014,8.434,-3.907,2.645,0.576150,-0.596452,-1.305703,99945.93,+84,+96,+192
72025,8.978,-4.026,2.855,0.671398,-0.626782,-1.325923,99946.09,+82,+98,+186
72035,9.422,-4.066,3.007,0.726737,-0.647534,-1.338694,99944.49,+84,+101,+183
72045,9.726,-4.089,3.140,0.751746,-0.666158,-1.349868,99944.49,+87,+105,+190
72054,9.961,-4.134,3.348,0.737380,-0.679993,-1.359978,99948.09,+87,+105,+190
72065,10.151,-4.018,3.693,0.697471,-0.689571,-1.364235,99948.09,+86,+106,+185
72075,10.425,-3.898,3.939,0.673526,-0.685846,-1.377006,99945.32,+88,+108,+183
72085,10.780,-3.844,4.010,0.653838,-0.669351,-1.384455,99946.62,+91,+112,+190
72094,11.033,-3.819,3.943,0.605948,-0.647002,-1.369556,99944.41,+91,+112,+190
72105,11.236,-3.692,3.910,0.528793,-0.617381,-1.348981,99946.75,+90,+113,+183
72115,11.334,-3.503,3.830,0.455361,-0.584213,-1.330712,99946.75,+90,+115,+183
72125,11.343,-3.321,3.751,0.370756,-0.541644,-1.300914,99946.02,+93,+119,+190
72135,11.405,-3.139,3.673,0.278169,-0.491626,-1.270584,99945.38,+93,+119,+190
72144,11.436,-3.011,3.528,0.171747,-0.435222,-1.247703,99947.42,+93,+116,+183
72155,11.281,-2.930,4.020,0.063729,-0.363387,-1.228547,99946.88,+94,+118,+183
72165,10.614,-2.004,8.770,0.212719,-0.080837,-1.217373,99944.43,+97,+120,+189
72175,13.533,-1.212,4.626,0.411728,-0.086158,-1.291868,99947.41,+97,+120,+189
72184,16.721,-1.802,-2.368,0.149930,-0.422984,-1.163098,99947.41,+97,+119,+181
72195,19.175,-1.466,-2.875,-0.188491,-0.402232,-0.873630,99946.52,+98,+120,+183
72205,16.499,0.627,0.351,-0.082070,-0.123938,-0.545318,99946.52,+99,+120,+188
72215,11.891,1.668,1.866,0.022756,0.163401,-0.387814,99948.14,+99,+118,+181
72224,8.567,0.542,1.657,0.219637,0.228851,-0.197850,99946.14,+99,+118,+181
72235,7.486,-0.980,2.026,0.342554,0.218741,-0.076529,99949.50,+99,+120,+183
72245,8.236,-1.532,2.338,0.427160,0.192135,-0.124951,99944.47,+101,+122,+187
72255,9.130,-1.861,2.100,0.559123,0.183621,-0.152621,99944.47,+99,+120,+180
72265,9.089,-1.922,2.343,0.694279,0.197988,-0.091428,99945.79,+99,+120,+180
72274,8.591,-1.797,2.873,0.657563,0.213952,-0.052584,99943.55,+102,+124,+182
72285,8.145,-1.715,3.068,0.493673,0.228319,-0.068016,99946.65,+103,+125,+186
72295,8.120,-1.940,2.943,0.301582,0.233640,-0.118566,99946.65,+102,+124,+178
72304,8.668,-1.971,2.890,0.140884,0.217144,-0.142511,99946.65,+102,+124,+178
72314,9.171,-1.269,2.648,0.132903,0.208630,-0.161135,99944.64,+104,+126,+181
72325,9.589,-1.189,2.372,0.266462,0.227254,-0.178694,99948.11,+106,+127,+185
72335,9.763,-1.473,2.060,0.378738,0.261309,-0.170713,99947.00,+104,+126,+176
72340,9.914,-1.674,1.925,0.392572,0.293236,-0.172309,99945.75,+104,+126,+176
72349,10.079,-1.794,2.039,0.387251,0.315052,-0.177630,99945.75,+108,+129,+179
72359,10.245,-1.746,2.331,0.395233,0.338465,-0.166988,99945.97,+108,+129,+179
72370,10.119,-1.552,2.862,0.368095,0.366667,-0.165924,99947.59,+110,+130,+183
72380,9.624,-1.511,3.387,0.289875,0.373585,-0.177630,99945.55,+108,+128,+175
72390,9.487,-1.283,3.608,0.207398,0.346979,-0.194126,99946.13,+110,+132,+179
72399,9.709,-1.202,3.394,0.183985,0.315052,-0.217006,99946.13,+110,+132,+179
72410,9.798,-1.451,3.193,0.188242,0.293236,-0.227116,99947.95,+113,+132,+183
72420,9.877,-1.621,3.268,0.166426,0.271419,-0.241483,99947.74,+112,+130,+175
72430,10.085,-1.241,3.504,0.122793,0.242685,-0.265428,99944.38,+114,+132,+180
72439,10.174,-1.036,3.644,0.090334,0.208098,-0.275538,99942.49,+114,+132,+182
72450,9.891,-1.120,3.534,0.072774,0.173511,-0.261704,99942.49,+114,+134,+182
72460,9.495,-0.858,3.492,0.028609,0.144777,-0.245208,99946.41,+112,+131,+174
72470,9.277,-0.301,3.480,-0.020345,0.119768,-0.212217,99946.52,+115,+132,+179
72479,9.240,-0.101,3.222,-0.026730,0.108594,-0.159538,99944.38,+116,+132,+181
72489,9.215,0.214,3.127,-0.066106,0.106465,-0.082383,99943.58,+116,+132,+181
72500,9.277,0.500,3.162,-0.081537,0.115511,0.019250,99943.58,+113,+130,+174
72510,9.143,0.446,3.046,-0.086858,0.124557,0.136315,99944.87,+117,+132,+180
72520,9.178,0.399,2.950,-0.102822,0.142649,0.250186,99945.38,+117,+132,+180
72529,9.316,0.220,3.075,-0.104950,0.166062,0.349158,99945.29,+117,+132,+180
72540,9.304,-0.214,3.101,-0.073024,0.185750,0.427911,99944.65,+114,+129,+174
72550,9.203,-0.682,3.211,-0.025666,0.196392,0.485911,99944.65,+116,+132,+180
72560,9.247,-0.958,3.228,0.009453,0.197456,0.523158,99947.84,+116,+132,+180
72569,9.282,-1.205,3.369,0.015839,0.200649,0.534865,99946.27,+116,+132,+180
72576,9.234,-1.432,3.283,0.008389,0.195328,0.540718,99941.91,+114,+131,+174
72585,9.191,-1.490,3.160,-0.001189,0.197456,0.538589,99941.91,+114,+131,+174
72595,9.187,-1.418,3.243,-0.016088,0.204906,0.528479,99943.91,+117,+133,+180
72605,9.120,-1.487,3.202,-0.019813,0.208098,0.522094,99943.91,+117,+133,+179
72615,9.080,-1.439,3.201,-0.009170,0.212355,0.519434,99944.61,+115,+132,+173
72625,9.289,-1.560,3.114,-0.002785,0.217676,0.519434,99944.22,+115,+132,+173
72635,9.350,-1.887,3.266,-0.014492,0.231511,0.513580,99944.55,+118,+135,+180
72645,9.207,-1.843,3.414,-0.032051,0.235236,0.502406,99944.55,+118,+134,+177
72654,9.113,-1.676,3.456,-0.027262,0.230447,0.489103,99944.55,+115,+134,+172
72665,9.138,-1.703,3.415,-0.009170,0.226190,0.483782,99945.56,+119,+134,+179
72675,9.153,-1.995,3.374,-0.002785,0.223530,0.478993,99947.34,+119,+136,+179
72685,9.275,-1.919,3.400,-0.006510,0.223530,0.472608,99948.55,+117,+136,+177
72695,9.313,-1.662,3.516,-0.010235,0.224594,0.471544,99942.89,+115,+134,+171
72705,9.246,-1.517,3.667,-0.007574,0.225126,0.485911,99942.89,+119,+138,+179
72715,9.233,-1.528,3.650,-0.003849,0.222997,0.503470,99943.96,+119,+138,+179
72725,9.240,-1.898,3.556,-0.009170,0.226722,0.521030,99945.27,+117,+137,+175
72735,9.192,-2.148,3.475,-0.038437,0.233108,0.536461,99946.01,+116,+136,+171
72744,9.099,-1.942,3.524,-0.077281,0.238429,0.552956,99946.01,+119,+139,+178
72755,9.250,-1.746,3.579,-0.102290,0.245346,0.575837,99946.31,+119,+139,+178
72765,9.250,-1.742,3.661,-0.121446,0.248007,0.610424,99943.69,+118,+138,+174
72775,9.152,-1.637,3.657,-0.128895,0.257052,0.654589,99943.69,+117,+136,+169
72784,9.113,-1.728,3.706,-0.123042,0.270355,0.692901,99943.47,+120,+140,+179
72795,9.167,-2.051,3.712,-0.119317,0.276741,0.728021,99942.84,+120,+140,+179
72805,9.203,-2.306,3.758,-0.126767,0.284722,0.755690,99942.84,+118,+138,+174
72815,9.302,-2.537,3.705,-0.156565,0.286319,0.774314,99945.18,+117,+137,+169
72825,9.249,-2.617,3.761,-0.184235,0.285786,0.792406,99945.91,+120,+142,+177
72835,9.071,-2.494,3.832,-0.199134,0.285786,0.814754,99945.71,+120,+142,+177
72845,8.944,-2.385,3.893,-0.184235,0.282062,0.837635,99941.24,+117,+140,+173
72855,8.952,-2.325,4.055,-0.136877,0.273548,0.859984,99945.09,+117,+138,+170
72865,9.100,-2.785,4.000,-0.084730,0.263438,0.875415,99943.57,+119,+142,+177
72876,9.277,-3.349,3.899,-0.069299,0.257052,0.889782,99944.73,+119,+142,+177
72885,9.402,-3.429,3.861,-0.101225,0.252263,0.897764,99942.84,+116,+140,+172
72895,9.492,-3.283,3.888,-0.128363,0.249603,0.903617,99942.84,+115,+140,+169
72905,9.677,-3.324,3.674,-0.142730,0.252796,0.919580,99942.84,+119,+143,+176
72915,9.988,-3.338,3.504,-0.166675,0.266098,0.935543,99947.34,+119,+143,+176
72925,10.507,-3.182,3.723,-0.193813,0.277805,0.954167,99946.87,+115,+140,+171
72935,10.886,-3.100,3.696,-0.215629,0.301750,0.986626,99945.71,+114,+140,+169
72945,11.181,-3.072,3.667,-0.227868,0.318777,1.044626,99946.60,+117,+143,+176
72955,11.512,-2.812,3.789,-0.209776,0.315052,1.118589,99946.60,+117,+143,+176
72965,11.699,-2.762,3.766,-0.170932,0.321438,1.203195,99948.18,+114,+140,+171
72975,11.665,-2.743,3.584,-0.163482,0.357089,1.292057,99946.27,+114,+140,+171
72985,11.658,-2.567,3.625,-0.171464,0.395401,1.370809,99944.30,+114,+143,+176
72995,11.920,-2.451,3.741,-0.180510,0.415089,1.463928,99944.30,+114,+143,+176
73005,12.295,-2.178,3.941,-0.236381,0.438502,1.557048,99944.30,+110,+139,+170
73015,12.737,-2.060,3.976,-0.309280,0.478410,1.635268,99947.23,+111,+140,+171
73025,13.134,-1.980,3.861,-0.416767,0.519915,1.709763,99945.56,+112,+140,+177
73035,13.385,-1.764,3.705,-0.551390,0.557694,1.787983,99947.77,+112,+140,+177
73044,13.796,-1.505,3.697,-0.715280,0.606649,1.858222,99944.83,+108,+136,+172
73055,14.117,-1.247,3.447,-0.926528,0.666777,1.906112,99944.83,+108,+134,+174
73065,14.281,-1.408,3.060,-1.213335,0.730098,1.906112,99947.00,+110,+132,+180
73075,14.764,-0.971,2.739,-1.575170,0.804061,1.875781,99944.48,+110,+132,+180
73085,14.975,0.623,2.868,-1.933812,0.911547,1.877910,99943.86,+108,+124,+177
73096,14.499,0.628,3.497,-2.215297,1.027015,1.916754,99945.05,+110,+118,+179
73105,13.250,-1.702,4.470,-2.269041,1.100446,2.002424,99944.27,+114,+114,+187
73115,13.429,-4.332,4.735,-2.056197,1.114813,2.159396,99944.38,+112,+114,+181
73125,14.088,-5.897,4.859,-1.872619,1.050428,2.341910,99944.38,+112,+103,+181
73135,13.784,-5.220,5.533,-1.727353,0.916336,2.540919,99946.52,+115,+98,+183
73145,12.754,-3.525,6.316,-1.409151,0.860997,2.667029,99944.20,+119,+94,+190
73155,12.068,-1.160,5.812,-0.910032,0.861529,2.690441,99944.20,+116,+86,+182
73165,11.159,0.344,4.320,-0.480620,0.825346,2.607965,99943.88,+116,+86,+182
73175,9.742,-0.214,2.885,-0.152840,0.763089,2.508460,99943.15,+119,+84,+184
73185,8.018,-0.917,3.606,0.015839,0.754575,2.309983,99944.30,+123,+83,+188
73195,5.980,-3.263,3.951,0.050958,0.740740,2.011469,99942.15,+123,+77,+182
73205,7.822,-1.265,2.072,0.082352,0.547052,1.630479,99945.66,+123,+77,+182
73216,8.413,1.296,0.939,-0.013427,0.462979,1.000461,99945.23,+127,+75,+184
73225,7.740,2.269,0.600,-0.131556,0.317181,0.493892,99942.77,+130,+71,+189
73235,6.504,2.068,0.065,-0.186895,0.102209,0.088425,99945.33,+128,+63,+183
73245,5.499,1.283,-0.069,-0.111868,-0.076048,-0.256382,99945.33,+128,+63,+183
73255,5.109,0.635,0.038,0.066921,-0.249516,-0.565538,99945.33,+132,+61,+187
73265,5.207,0.239,0.177,0.281894,-0.417663,-0.861923,99946.73,+134,+56,+192
73275,5.375,0.181,0.181,0.511765,-0.581553,-1.138088,99945.62,+130,+49,+186
73285,5.488,0.313,0.437,0.774627,-0.737993,-1.397226,99942.79,+130,+49,+186
73295,5.572,0.232,0.578,1.053985,-0.904011,-1.656895,99942.99,+132,+47,+193
73306,5.751,-0.285,0.851,1.316315,-1.072690,-1.925079,99942.99,+132,+44,+198
73315,6.100,-0.794,1.143,1.522774,-1.249350,-2.173042,99944.89,+127,+37,+193
73325,6.457,-1.006,1.298,1.696773,-1.424946,-2.399188,99941.06,+127,+37,+193
73335,6.944,-1.380,1.623,1.833526,-1.585644,-2.625867,99940.17,+125,+37,+200
73346,7.373,-1.934,1.893,1.893654,-1.752726,-2.858931,99940.17,+120,+35,+208
73356,7.697,-2.379,2.156,1.898443,-1.907038,-3.088803,99943.59,+110,+29,+206
73365,8.045,-2.834,2.512,1.828205,-2.040066,-3.313353,99943.59,+110,+29,+206
73375,8.462,-3.046,2.812,1.714333,-2.160854,-3.539500,99942.45,+104,+31,+215
73385,8.996,-3.307,2.969,1.585030,-2.257698,-3.752876,99939.83,+93,+29,+222
73395,9.694,-3.700,3.132,1.428058,-2.324744,-3.950820,99942.03,+79,+24,+219
73405,10.391,-3.899,3.402,1.247141,-2.379551,-4.124820,99942.03,+79,+24,+219
73415,10.986,-3.972,3.615,1.073141,-2.418928,-4.288710,99943.57,+68,+29,+227
73425,11.613,-4.059,3.879,0.898609,-2.451918,-4.460582,99942.35,+53,+29,+233
73436,12.256,-4.098,4.214,0.702792,-2.484377,-4.623939,99941.52,+37,+29,+230
73445,12.744,-4.261,4.514,0.497398,-2.503533,-4.760692,99940.29,+37,+29,+230
73455,13.152,-4.442,4.900,0.338829,-2.504065,-4.879352,99939.87,+26,+37,+238
73465,13.624,-4.595,5.362,0.289343,-2.484909,-4.990563,99945.21,+11,+42,+240
73476,14.191,-5.063,5.771,0.278169,-2.461496,-5.056544,99945.21,-5,+46,+234
73485,14.598,-5.630,5.846,0.205802,-2.438084,-5.061334,99940.45,-5,+46,+234
73495,14.954,-5.711,5.666,0.065857,-2.394451,-5.038453,99942.23,-13,+59,+238
73505,15.272,-5.613,5.384,-0.123574,-2.327937,-5.005994,99942.23,-25,+67,+237
73516,15.296,-5.320,5.282,-0.290657,-2.246524,-4.962893,99944.49,-35,+75,+228
73525,15.074,-5.021,5.416,-0.377390,-2.143827,-4.895847,99944.07,-35,+75,+228
73535,14.839,-5.219,5.641,-0.405592,-2.004414,-4.808049,99941.51,-38,+87,+231
73545,14.624,-6.004,5.870,-0.460932,-1.817644,-4.724508,99943.40,-44,+96,+228
73555,14.160,-6.866,6.008,-0.669519,-1.589368,-4.609040,99943.40,-45,+106,+218
73566,12.840,-6.905,6.030,-0.846179,-1.304690,-4.372252,99945.13,-45,+106,+218
73575,11.694,-7.124,5.782,-0.871188,-0.993938,-4.042875,99942.57,-39,+114,+224
73585,10.568,-8.544,5.170,-0.783922,-0.708727,-3.567701,99945.20,-38,+120,+222
73595,9.298,-10.166,4.759,-0.623225,-0.476727,-2.935023,99945.20,-34,+124,+213
73606,8.092,-11.362,4.947,-0.376858,-0.288360,-2.124088,99945.20,-34,+124,+213
73615,6.668,-12.035,5.401,-0.027794,-0.132984,-1.189171,99948.16,-27,+128,+221
73625,5.875,-11.521,5.635,0.388316,0.015475,-0.244144,99944.59,-25,+132,+218
73635,6.492,-10.293,5.789,0.825178,0.175640,0.577966,99945.42,-25,+134,+212
73646,7.436,-9.564,5.992,1.192333,0.345915,1.245763,99945.89,-20,+138,+217
73656,7.950,-9.206,6.249,1.395599,0.515126,1.778937,99945.89,-20,+138,+217
73665,9.853,-6.371,5.781,1.487122,0.622080,2.125341,99948.05,-22,+141,+213
73675,13.364,4.092,3.765,1.158278,0.725841,1.850240,99946.51,-22,+143,+207
73686,15.728,18.327,-2.559,0.378738,0.750318,1.208516,99948.01,-16,+144,+213
73696,10.106,8.588,-0.770,-0.280546,0.823217,0.604571,99948.01,-16,+144,+213
73705,7.576,-7.213,1.848,0.887434,0.794483,0.953103,99946.27,-16,+144,+210
73715,13.510,-7.500,1.433,1.268957,0.732759,1.762442,99946.27,-15,+147,+203
73725,16.623,-0.096,0.158,0.416517,0.847694,1.734240,99949.43,-11,+148,+211
73736,14.618,1.486,-0.165,-0.148583,1.011052,1.497983,99947.90,-11,+148,+211
73745,13.392,-3.277,0.623,0.229747,1.051492,1.684222,99947.59,-11,+146,+209
73755,14.811,-5.026,1.340,0.233472,1.075969,1.830020,99947.59,-10,+146,+205
73765,13.565,-3.066,2.594,-0.151244,1.151529,1.678369,99948.31,-5,+147,+212
73776,12.162,-0.161,4.894,-0.025134,1.247841,1.529378,99947.73,-5,+147,+212
73786,11.273,1.612,7.109,0.473453,1.310630,1.502772,99946.31,-5,+144,+210
73795,10.167,1.922,7.319,0.949159,1.339896,1.536295,99945.25,-3,+146,+205
73805,9.494,0.976,4.493,1.054517,1.227621,1.567690,99946.05,+0,+150,+211
73816,8.267,-0.197,4.274,0.948627,1.130777,1.563965,99949.03,+0,+150,+211
73825,7.977,-1.020,4.498,0.843269,1.027015,1.451690,99949.03,-1,+150,+207
73835,9.255,-2.773,3.602,0.477178,0.864722,1.263323,99946.78,+0,+150,+203
73845,10.616,-3.348,2.574,-0.023005,0.752447,1.122314,99945.83,+3,+151,+210
73856,11.108,-2.309,1.720,-0.484344,0.704557,1.045690,99945.83,+3,+151,+210
73866,10.897,-1.426,1.462,-0.775409,0.681676,0.990351,99950.73,+0,+147,+208
73875,10.343,-0.749,1.580,-0.846179,0.665713,0.935011,99949.46,+1,+144,+207
73885,10.149,-0.196,1.876,-0.798289,0.656135,0.870094,99947.05,+5,+143,+214
73895,9.994,0.355,2.126,-0.591831,0.681676,0.813158,99946.59,+5,+143,+214
73906,9.620,0.723,2.396,-0.300767,0.713071,0.783892,99946.59,+3,+140,+211
73916,9.448,0.733,2.605,-0.063978,0.728502,0.771654,99947.23,+5,+139,+210
73925,9.597,0.444,2.768,0.083949,0.729034,0.759415,99947.50,+9,+142,+217
73935,9.702,-0.095,3.090,0.106829,0.715731,0.754626,99946.03,+9,+142,+217
73946,9.579,-0.915,3.205,-0.037372,0.665713,0.759415,99946.03,+6,+138,+212
73955,9.477,-1.370,3.229,-0.326308,0.605584,0.741323,99946.03,+9,+138,+210
73965,9.322,-1.084,3.163,-0.639188,0.560355,0.672681,99947.50,+13,+138,+218
73975,9.399,-0.556,3.092,-0.865335,0.516722,0.585415,99947.03,+13,+138,+218
73986,9.558,-0.060,2.793,-0.923512,0.478410,0.513758,99947.50,+9,+132,+215
73996,9.627,0.669,2.648,-0.805739,0.486392,0.488039,99947.50,+11,+130,+214
74005,9.410,0.683,2.800,-0.588638,0.526832,0.497617,99947.50,+14,+130,+222
74015,9.386,0.544,2.980,-0.337482,0.541731,0.545507,99950.51,+14,+130,+222
74025,9.348,0.092,3.180,-0.132088,0.549713,0.582755,99951.09,+11,+127,+217
74036,9.320,-0.660,3.652,-0.054400,0.535878,0.599782,99947.51,+14,+128,+217
74046,9.154,-1.131,4.097,-0.150712,0.494373,0.598186,99947.51,+17,+128,+223
74055,9.028,-1.159,4.238,-0.332693,0.439034,0.550828,99949.36,+14,+128,+223
74065,9.227,-0.765,3.945,-0.474766,0.382630,0.494424,99949.36,+14,+124,+218
74076,9.450,-0.197,3.441,-0.493390,0.352832,0.474204,99947.58,+16,+124,+218
74086,9.556,0.057,3.077,-0.405060,0.362410,0.491232,99946.80,+19,+124,+224
74095,9.581,-0.212,2.995,-0.286932,0.391676,0.553489,99945.38,+16,+120,+219
74105,9.594,-0.617,3.149,-0.212436,0.422539,0.618938,99945.38,+16,+120,+219
74116,9.420,-0.793,3.506,-0.235317,0.446484,0.648204,99948.59,+19,+122,+220
74126,9.294,-0.576,3.833,-0.313537,0.454465,0.659378,99947.27,+22,+121,+225
74136,9.235,-0.455,3.901,-0.375794,0.457126,0.684388,99948.85,+18,+117,+220
74145,9.231,-0.446,3.746,-0.381115,0.465640,0.730681,99946.18,+18,+117,+220
74156,9.093,-0.524,3.573,-0.358767,0.482135,0.789213,99949.63,+22,+118,+222
74166,9.065,-0.405,3.536,-0.328968,0.506612,0.845617,99950.84,+24,+118,+227
74176,9.311,-0.495,3.575,-0.300767,0.535878,0.908938,99947.54,+20,+113,+221
74185,9.523,-0.783,3.617,-0.287996,0.569401,0.979176,99947.54,+20,+113,+221
74195,9.429,-0.898,3.745,-0.283207,0.603456,1.039837,99947.34,+25,+115,+223
74206,9.286,-1.041,3.906,-0.283207,0.630594,1.091984,99947.34,+27,+112,+227
74216,9.363,-1.565,3.941,-0.306620,0.650814,1.149984,99951.24,+23,+110,+222
74221,9.292,-1.648,3.862,-0.333225,0.667841,1.193084,99948.77,+23,+110,+222
74230,9.373,-1.427,3.984,-0.350785,0.688594,1.230332,99948.77,+28,+112,+223
74241,9.723,-1.612,4.070,-0.373666,0.705621,1.275561,99946.04,+28,+112,+223
74251,10.039,-2.453,3.989,-0.446033,0.717327,1.318130,99946.04,+30,+108,+228
74261,10.239,-2.967,3.776,-0.529042,0.725309,1.368149,99948.03,+26,+106,+222
74270,10.508,-3.029,3.584,-0.610454,0.712006,1.420295,99949.03,+31,+106,+225
74280,10.835,-2.808,3.516,-0.661537,0.700832,1.463396,99946.05,+31,+106,+225
74291,11.170,-2.607,3.230,-0.678032,0.719988,1.523525,99943.89,+33,+102,+228
74301,11.521,-2.471,3.014,-0.679097,0.737015,1.592167,99943.89,+30,+99,+223
74310,11.469,-2.257,2.999,-0.639188,0.749786,1.701249,99950.01,+35,+99,+227
74320,11.528,-1.831,3.366,-0.582253,0.773199,1.808203,99946.12,+36,+99,+227
74331,12.161,-1.949,3.611,-0.539152,0.796080,1.893341,99948.43,+36,+96,+232
74341,12.617,-2.625,3.569,-0.526913,0.848226,1.983800,99946.54,+33,+93,+225
74350,12.593,-2.732,3.382,-0.599280,0.898245,2.072130,99946.54,+40,+94,+228
74360,12.769,-2.257,3.210,-0.700913,0.922722,2.166313,99951.02,+42,+91,+232
74371,13.634,-2.032,3.000,-0.748803,0.920593,2.263690,99945.88,+42,+91,+232
74381,15.223,-1.389,2.970,-0.755720,0.875896,2.373304,99947.02,+40,+87,+226
74391,16.678,-0.422,3.007,-0.833408,0.862061,2.504203,99944.99,+46,+88,+230
74400,17.305,0.247,2.655,-1.095739,0.958905,2.594130,99944.99,+47,+83,+232
74411,17.923,0.292,1.747,-1.535261,1.041914,2.589341,99947.30,+47,+83,+232
74421,19.862,1.987,0.776,-2.067371,1.032336,2.525487,99947.62,+46,+76,+227
74431,21.457,5.912,0.571,-2.590435,1.027547,2.496221,99945.73,+53,+73,+232
74440,20.385,9.241,0.923,-2.938435,1.117474,2.614882,99947.41,+57,+64,+234
74450,17.975,8.744,3.059,-2.889481,1.190373,2.781964,99947.41,+57,+64,+234
74457,16.826,3.833,6.278,-2.354178,1.159511,2.966074,99944.77,+58,+57,+228
74466,17.705,-3.125,8.124,-1.278252,1.038722,3.315670,99944.77,+58,+57,+228
74476,19.040,-9.228,8.002,-0.141134,0.840245,3.871193,99945.88,+68,+59,+232
74486,18.574,-8.718,6.912,0.151527,0.861529,4.092019,99942.30,+69,+61,+233
74496,17.653,-4.801,6.771,0.153123,0.972208,3.873853,99946.40,+71,+61,+227
74506,15.779,1.725,4.801,0.244114,1.088740,3.380056,99944.16,+71,+61,+227
74516,11.736,6.798,2.970,0.405343,0.948795,2.882533,99945.99,+82,+67,+231
74526,8.079,5.963,3.298,0.807618,0.421474,2.418533,99943.27,+85,+67,+231
74535,3.858,-3.045,7.028,1.228517,0.094759,1.907708,99943.27,+84,+69,+226
74546,5.863,-1.474,3.978,1.052921,-0.185131,1.360167,99944.68,+84,+69,+226
74556,7.243,2.715,0.155,0.558591,-0.380947,0.426314,99944.68,+89,+77,+231
74566,6.136,4.602,-0.425,0.315416,-0.541644,-0.371318,99948.43,+89,+73,+233
74575,5.564,4.265,-0.457,0.270719,-0.853461,-0.764015,99946.23,+86,+69,+228
74586,4.666,1.893,-0.402,0.366499,-1.184965,-1.069446,99948.27,+88,+71,+236
74596,3.858,-0.624,0.046,0.453765,-1.446763,-1.384455,99945.38,+88,+71,+236
74606,3.666,-1.703,0.807,0.470793,-1.677166,-1.728730,99945.38,+82,+65,+239
74616,3.871,-1.644,1.506,0.446848,-1.867662,-2.106528,99945.11,+74,+61,+237
74626,4.356,-1.114,1.797,0.462811,-2.032616,-2.498161,99942.53,+69,+59,+244
74636,4.891,-0.769,1.826,0.516554,-2.183735,-2.853610,99941.38,+69,+59,+244
74646,5.517,-0.816,1.607,0.594242,-2.301863,-3.145206,99941.38,+58,+53,+248
74655,6.143,-0.988,1.497,0.773031,-2.380616,-3.389445,99941.38,+44,+52,+245
74665,6.608,-1.542,2.091,0.966719,-2.441808,-3.569298,99941.36,+34,+56,+253
74676,7.069,-2.383,2.856,1.039618,-2.546102,-3.736380,99940.31,+34,+56,+253
74686,7.399,-3.097,3.636,0.998645,-2.659973,-3.957206,99941.52,+18,+57,+253
74695,7.813,-3.364,4.153,0.957673,-2.731808,-4.201976,99941.98,+4,+61,+248
74705,8.273,-3.178,4.537,0.935324,-2.761074,-4.438233,99941.98,-6,+70,+254
74716,9.020,-2.592,4.531,0.936389,-2.797258,-4.687260,99942.35,-6,+70,+254
74726,10.258,-2.431,4.194,0.914572,-2.824927,-4.927242,99943.62,-21,+75,+251
74736,11.877,-3.042,3.893,0.870939,-2.846744,-5.118801,99941.98,-31,+84,+245
74745,13.478,-4.164,3.854,0.792719,-2.860047,-5.232673,99941.98,-41,+96,+249
74756,14.307,-5.547,4.159,0.686297,-2.852597,-5.265664,99944.95,-41,+96,+249
74766,14.401,-6.331,4.796,0.564976,-2.843019,-5.278434,99944.06,-53,+105,+244
74776,14.948,-6.540,6.030,0.346279,-2.818542,-5.359847,99944.06,-60,+114,+237
74785,15.506,-6.871,7.414,0.105765,-2.789808,-5.429554,99944.48,-67,+126,+240
74796,15.398,-7.063,8.127,-0.018748,-2.723294,-5.437535,99943.02,-67,+126,+240
74806,15.327,-6.972,8.138,-0.086326,-2.633900,-5.408269,99943.02,-75,+136,+232
74816,15.576,-6.425,7.749,-0.148051,-2.528542,-5.354526,99941.84,-79,+145,+225
74826,15.572,-6.039,7.411,-0.232124,-2.398707,-5.288012,99946.16,-82,+160,+230
74835,15.145,-6.045,7.271,-0.344400,-2.240671,-5.185315,99942.48,-82,+160,+230
74846,14.634,-6.401,7.401,-0.472638,-2.020377,-5.061866,99942.11,-84,+170,+221
74856,14.234,-7.452,7.250,-0.681225,-1.737827,-4.924581,99945.10,-84,+178,+215
74866,13.763,-8.678,6.863,-0.981335,-1.441442,-4.785701,99947.46,-81,+191,+221
74876,12.987,-9.422,6.351,-1.302729,-1.160488,-4.575517,99944.79,-81,+191,+221
74886,11.529,-9.565,5.909,-1.383078,-0.884855,-4.165261,99944.79,-77,+197,+215
74896,9.999,-10.433,5.576,-1.264950,-0.628910,-3.582068,99945.73,-71,+203,+213
74906,8.602,-11.831,5.433,-1.078711,-0.406488,-2.814234,99945.73,-67,+209,+220
74915,7.224,-12.424,5.688,-0.759445,-0.206947,-1.919758,99945.08,-67,+209,+220
74926,6.310,-12.341,6.192,-0.297574,-0.043590,-0.952382,99946.77,-66,+213,+214
74936,6.380,-11.659,6.536,0.223361,0.116575,-0.014273,99947.55,-64,+215,+213
74946,7.083,-10.967,6.909,0.694279,0.301750,0.786553,99948.97,-65,+220,+218
74956,7.647,-10.758,7.393,0.990132,0.490117,1.445837,99948.97,-65,+220,+218
74966,8.093,-10.231,8.087,1.095489,0.661988,1.948148,99948.98,-69,+222,+209
74976,8.575,-8.991,8.459,1.100278,0.840245,2.292423,99945.97,-73,+223,+208
74986,12.966,0.919,3.500,1.016737,0.848759,2.250387,99946.63,-77,+226,+215
74996,17.790,19.703,-6.467,0.390444,0.804061,1.460204,99946.63,-77,+226,+215
75005,15.721,19.871,-7.662,-0.374730,0.772135,0.687048,99946.63,-79,+225,+210
75016,7.801,-6.650,-1.750,0.914572,0.871639,0.749305,99949.86,-77,+227,+210
75026,12.809,-14.034,3.350,2.267727,0.904098,2.213139,99948.39,-80,+234,+210
75036,19.541,-2.492,2.412,1.280663,0.902502,2.660643,99949.81,-85,+231,+204
75045,18.117,3.052,0.461,0.401086,1.155786,1.972093,99949.66,-85,+231,+204
75056,14.734,-4.764,1.649,0.909783,1.261144,2.204625,99949.66,-86,+231,+204
75066,15.689,-6.722,1.360,1.017269,1.318079,2.677139,99951.27,-88,+233,+208
75076,12.859,-2.355,3.196,0.716095,1.479841,2.471744,99949.59,-92,+227,+202
75086,9.489,1.939,5.691,0.843801,1.562850,2.253579,99947.16,-92,+227,+202
75096,7.689,2.597,6.593,1.109324,1.510171,2.139176,99947.16,-92,+228,+203
75106,6.707,-0.074,7.780,1.190737,1.419712,1.977946,99948.63,-92,+229,+207
75116,8.006,-1.530,9.067,1.198719,1.397896,1.816185,99947.16,-94,+227,+201
75126,11.075,-2.517,5.186,0.950223,1.227621,1.683690,99947.16,-94,+227,+201
75136,11.898,-5.362,3.216,0.421838,1.075437,1.651231,99946.80,-93,+227,+203
75146,10.723,-4.833,2.991,0.012646,0.997217,1.595892,99947.32,-95,+226,+208
75156,10.874,-3.021,2.126,-0.382711,0.879089,1.450626,99947.32,-98,+219,+205
75161,10.908,-2.689,2.023,-0.592895,0.800869,1.320791,99947.99,-98,+219,+205
75171,10.610,-2.434,1.996,-0.652491,0.742337,1.219158,99948.30,-97,+217,+210
75181,10.375,-1.874,1.872,-0.627482,0.692850,1.084534,99947.88,-97,+217,+210
75191,10.285,-1.195,1.866,-0.510950,0.671566,0.960020,99948.10,-97,+215,+215
75201,10.145,-0.569,2.265,-0.290657,0.681144,0.864241,99948.10,-99,+209,+211
75211,10.002,-0.805,2.612,-0.083666,0.693382,0.769525,99950.02,-96,+209,+215
75220,9.957,-0.774,2.672,0.021160,0.692850,0.708332,99948.70,-96,+209,+215
75231,9.761,-0.831,2.601,0.044041,0.685401,0.666828,99946.19,-97,+209,+220
75241,9.387,-1.052,2.792,-0.000657,0.669970,0.623727,99949.48,-97,+204,+214
75251,9.080,-1.266,2.911,-0.165079,0.640704,0.590736,99949.48,-95,+204,+220
75261,9.050,-1.472,2.963,-0.415702,0.595474,0.539122,99948.96,-95,+204,+220
75271,9.241,-0.832,3.047,-0.648766,0.560887,0.480057,99947.18,-95,+204,+225
75281,9.202,0.228,2.910,-0.800418,0.545456,0.451856,99944.98,-97,+197,+220
75291,9.184,0.888,2.666,-0.828619,0.542263,0.452388,99946.29,-93,+196,+227
75301,9.238,1.186,2.566,-0.685482,0.558227,0.465158,99946.29,-94,+196,+227
75311,9.398,1.405,2.554,-0.427941,0.577915,0.498681,99949.29,-94,+194,+231
75321,9.332,1.199,2.534,-0.150180,0.608777,0.565195,99950.70,-94,+189,+226
75331,9.191,0.090,2.809,0.070114,0.647089,0.641287,99949.65,-92,+191,+230
75341,9.076,-0.976,3.146,0.137160,0.674227,0.713121,99947.98,-92,+190,+233
75351,9.100,-1.585,3.619,0.004664,0.673162,0.759947,99947.98,-92,+190,+233
75361,9.191,-1.517,3.849,-0.215629,0.657731,0.784424,99946.50,-92,+186,+229
75371,9.313,-0.786,3.606,-0.402400,0.649749,0.796663,99948.59,-90,+186,+235
75381,9.440,-0.033,3.334,-0.435390,0.672098,0.799323,99947.23,-91,+184,+238
75392,9.526,-0.060,3.031,-0.337482,0.696575,0.841892,99944.88,-91,+184,+238
75401,9.672,-0.741,3.046,-0.200198,0.718924,0.911066,99944.88,-91,+178,+234
75411,9.689,-1.231,3.350,-0.127831,0.737015,0.983433,99949.53,-88,+178,+240
75421,9.594,-1.366,3.582,-0.163482,0.745529,1.035048,99946.44,-88,+176,+241
75431,9.543,-1.429,3.734,-0.259794,0.744465,1.064314,99946.80,-88,+176,+241
75441,9.396,-1.187,3.909,-0.336418,0.751915,1.087727,99947.53,-89,+170,+239
75451,9.357,-1.199,3.887,-0.364088,0.756704,1.115929,99947.53,-87,+171,+246
75461,9.368,-1.493,3.873,-0.351849,0.764153,1.129231,99950.16,-87,+166,+248
75471,9.560,-2.037,3.784,-0.357702,0.770006,1.146791,99948.32,-87,+166,+248
75481,9.767,-2.332,3.988,-0.401335,0.788630,1.159029,99948.27,-88,+160,+244
75491,9.808,-2.190,4.252,-0.486473,0.808318,1.174993,99946.96,-84,+161,+251
75501,9.943,-2.213,4.220,-0.588638,0.829603,1.184571,99946.96,-84,+154,+251
75511,10.036,-2.378,4.033,-0.672711,0.861529,1.207984,99949.10,-84,+154,+251
75522,10.024,-2.252,3.870,-0.744546,0.884942,1.263323,99948.84,-84,+148,+249
75531,10.101,-1.838,3.978,-0.784986,0.914208,1.308020,99943.65,-80,+147,+257
75541,10.878,-2.502,3.411,-0.772748,0.908887,1.401672,99947.48,-81,+140,+258
75551,11.664,-3.173,3.117,-0.709427,0.917401,1.481488,99947.48,-81,+140,+258
75561,11.999,-3.091,3.138,-0.653023,0.935492,1.592699,99951.20,-79,+133,+256
75571,12.184,-2.846,3.127,-0.598748,0.961566,1.690075,99947.74,-75,+132,+263
75581,12.502,-3.063,3.314,-0.550858,0.982850,1.803946,99947.85,-75,+125,+262
75591,12.592,-3.015,3.453,-0.564161,1.001474,1.930056,99946.38,-75,+125,+262
75601,12.675,-2.504,3.633,-0.647702,1.029676,2.033818,99946.38,-73,+118,+259
75612,12.885,-1.982,3.761,-0.742950,1.065859,2.122148,99951.96,-68,+115,+266
75621,13.317,-1.712,3.670,-0.861078,1.102575,2.201433,99947.82,-68,+107,+264
75631,14.191,-1.552,3.520,-1.011133,1.127052,2.276992,99945.40,-68,+107,+264
75641,15.818,-0.841,3.527,-1.121812,1.092465,2.362662,99943.35,-66,+99,+261
75651,17.347,0.457,3.251,-1.245261,1.078098,2.478130,99943.35,-60,+94,+268
75661,17.668,0.770,2.193,-1.513445,1.168024,2.553157,99948.86,-58,+83,+266
75671,18.299,0.657,0.818,-2.014692,1.226024,2.493029,99947.39,-58,+83,+266
75681,20.079,2.132,-0.822,-2.670251,1.182391,2.372772,99948.39,-53,+73,+261
75692,21.897,5.773,-1.325,-3.281113,1.161639,2.302001,99948.13,-47,+62,+268
75701,20.768,10.200,0.902,-3.485976,1.231345,2.340845,99948.13,-43,+45,+264
75711,16.867,5.839,6.026,-2.978343,1.143547,2.552625,99947.95,-43,+45,+264
75721,16.229,-4.761,9.115,-1.731078,0.906758,3.094845,99947.10,-38,+35,+258
75731,18.351,-10.124,9.018,-0.600877,0.726373,3.627487,99945.90,-31,+31,+263
75741,19.380,-9.121,9.722,-0.243831,0.826410,3.609927,99944.79,-27,+26,+256
75751,17.961,-3.971,8.562,-0.013427,1.068520,3.404001,99944.79,-27,+26,+256
75761,14.497,1.915,6.000,0.350004,1.173345,3.179982,99946.70,-18,+24,+253
75771,10.978,5.565,3.901,0.545288,0.830135,2.796863,99944.86,-9,+27,+258
75782,5.949,1.909,4.689,0.952884,0.450208,2.169506,99946.50,-7,+28,+252
75791,4.296,-2.978,4.760,1.218407,0.183089,1.744882,99947.48,-3,+31,+248
75801,7.308,-0.307,1.054,0.781545,-0.064342,1.156901,99947.48,-3,+31,+248
75811,6.426,2.425,-0.553,0.363838,-0.180342,0.333195,99948.16,-1,+37,+252
75822,5.461,3.594,0.187,0.214316,-0.397975,-0.156878,99949.58,-2,+35,+246
75831,4.528,2.516,0.333,0.296793,-0.689039,-0.456988,99947.95,-3,+37,+243
75841,3.563,0.129,0.015,0.450572,-0.931149,-0.777850,99945.95,-3,+37,+243
75851,3.301,-1.862,0.189,0.450572,-1.148249,-1.141281,99945.95,-3,+42,+248
75862,3.444,-2.465,0.490,0.303710,-1.363222,-1.522272,99949.95,-8,+40,+240
75867,3.514,-2.330,0.675,0.163765,-1.501038,-1.829299,99945.55,-8,+40,+240
75876,3.530,-1.978,0.557,0.095655,-1.589900,-2.103868,99945.55,-13,+44,+237
75886,3.783,-1.102,0.249,0.204738,-1.653754,-2.414619,99944.28,-15,+48,+240
75896,4.591,-1.037,0.728,0.360646,-1.703772,-2.689720,99943.92,-15,+48,+240
75907,5.163,-1.302,0.905,0.472921,-1.807001,-2.927573,99945.16,-21,+47,+232
75917,5.591,-1.654,1.388,0.526132,-1.896928,-3.144142,99945.05,-26,+53,+228
75926,6.159,-1.842,2.053,0.567104,-1.975148,-3.385188,99941.33,-29,+59,+231
75936,6.790,-2.045,2.473,0.620847,-2.058689,-3.641133,99938.66,-29,+59,+231
75947,7.483,-2.443,2.755,0.700132,-2.140634,-3.881114,99938.66,-38,+60,+222
75956,8.057,-2.863,3.110,0.789526,-2.222047,-4.051389,99938.66,-44,+68,+217
75966,8.729,-3.231,3.327,0.903930,-2.311974,-4.175371,99941.85,-48,+77,+217
75976,9.374,-3.522,3.309,1.044939,-2.392854,-4.302013,99943.90,-57,+77,+217
75986,9.981,-3.844,3.344,1.149232,-2.465221,-4.435040,99945.01,-57,+82,+207
75997,10.492,-3.995,3.444,1.189673,-2.549294,-4.559554,99942.96,-60,+94,+200
76006,11.051,-3.959,3.732,1.208829,-2.630707,-4.687260,99942.96,-63,+106,+199
76016,11.689,-4.049,4.235,1.217342,-2.713717,-4.806985,99943.08,-68,+115,+187
76026,12.381,-4.140,4.834,1.214150,-2.795661,-4.913407,99945.45,-68,+115,+187
76037,12.891,-4.351,5.337,1.175838,-2.851533,-5.020361,99943.23,-69,+130,+181
76047,13.195,-5.124,5.891,1.001306,-2.884524,-5.109223,99943.23,-68,+146,+179
76056,13.602,-5.433,6.527,0.710774,-2.956358,-5.199682,99943.05,-68,+155,+166
76066,14.234,-5.288,7.502,0.427160,-2.992010,-5.285352,99943.05,-68,+155,+166
76077,15.187,-5.762,8.608,0.178132,-2.969129,-5.333241,99945.41,-63,+171,+162
76087,15.944,-6.395,9.080,-0.030455,-2.881331,-5.297590,99942.21,-57,+186,+162
76096,16.029,-6.828,9.141,-0.236913,-2.696157,-5.185315,99943.95,-50,+192,+152
76102,16.728,-6.307,8.433,-0.384308,-2.522689,-5.086875,99943.95,-50,+192,+152
76111,15.697,-6.721,9.348,-0.547133,-2.207680,-5.001205,99942.77,-38,+205,+152
76122,13.471,-7.531,10.177,-0.672179,-1.787313,-4.731957,99943.55,-38,+205,+152
76131,12.069,-8.996,9.202,-0.915886,-1.431864,-4.515921,99939.88,-27,+214,+156
76141,11.352,-10.821,8.887,-1.260161,-1.096103,-4.322765,99945.64,-15,+215,+152
76151,10.327,-10.679,8.022,-1.468215,-0.789607,-3.949756,99945.64,-1,+220,+158
76162,9.532,-10.211,7.650,-1.482050,-0.470342,-3.486289,99948.32,-1,+220,+158
76172,8.624,-11.557,7.574,-1.319757,-0.150544,-2.880216,99946.16,+9,+221,+166
76181,7.577,-13.474,7.724,-1.040931,0.100080,-2.046932,99948.37,+18,+218,+163
76191,6.754,-13.931,8.155,-0.591831,0.291108,-1.074767,99943.60,+27,+220,+169
76201,6.431,-12.860,8.478,0.024352,0.467768,-0.111116,99943.60,+27,+220,+169
76212,7.984,-9.452,7.747,0.726205,0.663052,0.654057,99949.01,+31,+222,+172
76221,8.554,-8.736,7.117,1.499893,0.898777,1.298442,99946.71,+31,+222,+162
76231,13.853,-2.727,-0.329,2.223030,0.871639,1.831084,99950.23,+34,+230,+161
76241,19.540,9.244,-7.931,2.254425,0.718924,1.955066,99949.01,+33,+230,+161
76252,14.371,2.031,-4.117,2.315617,0.882814,2.070534,99949.01,+33,+235,+160
76262,12.636,-4.466,1.526,3.060571,1.285089,2.429176,99950.52,+30,+237,+147
76271,17.813,-9.048,-0.076,2.168755,1.256355,2.709597,99947.79,+32,+244,+146
76281,17.353,-12.278,-0.093,0.609141,1.355327,2.614882,99952.20,+28,+245,+149
76292,15.700,-8.296,2.593,-0.127299,1.528263,2.655854,99949.21,+28,+245,+149
76302,14.691,-1.093,6.540,-0.194877,1.654905,2.588809,99949.21,+24,+241,+145
76311,11.743,2.645,9.171,0.193031,1.753345,2.418533,99948.49,+25,+243,+149
76321,8.772,1.630,9.953,0.702260,1.708648,2.290827,99948.18,+22,+244,+149
76332,7.490,-1.643,10.442,1.066755,1.595309,2.143433,99946.76,+22,+244,+149
76342,9.505,-3.373,5.986,1.096021,1.330850,1.995506,99946.76,+19,+242,+142
76351,11.196,-4.248,4.200,0.753343,1.176006,1.935378,99946.76,+20,+247,+144
76361,10.808,-5.806,2.798,0.329783,1.066391,1.850240,99947.79,+15,+246,+146
76371,10.652,-5.963,2.303,-0.139005,0.947731,1.730515,99949.77,+15,+246,+146
76382,10.989,-4.206,2.434,-0.748803,0.886538,1.570882,99946.43,+11,+241,+142
76392,10.230,-2.379,2.843,-1.192050,0.820025,1.370277,99947.26,+13,+243,+150
76401,9.785,-1.327,2.563,-1.272931,0.710942,1.164351,99947.26,+10,+238,+154
76411,10.114,-0.314,2.515,-0.946216,0.656667,0.968002,99952.62,+10,+238,+154
76422,10.499,0.237,2.551,-0.436455,0.656667,0.817415,99952.24,+7,+234,+152
76432,10.304,-0.439,2.877,-0.097501,0.658795,0.789745,99948.73,+10,+237,+156
76441,9.960,-0.909,3.213,0.019563,0.624208,0.812626,99947.90,+8,+234,+157
76451,9.689,-0.901,3.049,0.078628,0.578447,0.762076,99947.90,+8,+234,+157
76462,9.293,-0.989,2.542,0.146738,0.548117,0.682791,99952.03,+6,+233,+152
76472,8.991,-1.451,2.378,0.145673,0.528961,0.630112,99950.41,+8,+237,+157
76481,9.074,-1.624,2.572,-0.004914,0.515126,0.568920,99946.69,+5,+234,+158
76491,9.210,-1.004,3.123,-0.277354,0.497566,0.499213,99950.05,+5,+234,+158
76502,9.203,-0.027,3.350,-0.507757,0.478942,0.439085,99950.05,+5,+231,+154
76512,9.198,0.489,3.010,-0.602473,0.472557,0.409819,99952.30,+9,+234,+161
76522,8.977,0.211,2.579,-0.545005,0.486392,0.399709,99949.21,+6,+229,+162
76531,9.098,-0.417,2.173,-0.383244,0.509805,0.398645,99948.16,+6,+229,+162
76541,9.348,-0.370,2.249,-0.165611,0.544924,0.429507,99948.54,+5,+228,+158
76552,9.436,-0.788,2.904,-0.051739,0.574190,0.486975,99948.54,+8,+231,+164
76562,9.359,-1.594,3.556,-0.165079,0.585896,0.510920,99947.32,+7,+228,+164
76571,9.146,-1.386,3.776,-0.370473,0.565676,0.494957,99949.79,+7,+228,+164
76581,9.192,-0.769,3.820,-0.454014,0.528428,0.491232,99946.85,+6,+227,+161
76592,9.492,-0.612,3.698,-0.441244,0.495438,0.490700,99948.79,+8,+229,+167
76602,9.793,-0.800,3.351,-0.385372,0.482135,0.503470,99948.79,+6,+225,+167
76612,9.882,-0.950,3.347,-0.336950,0.489584,0.533268,99951.58,+6,+225,+167
76621,9.741,-1.141,3.393,-0.376326,0.508208,0.572112,99946.17,+6,+223,+164
76632,9.596,-1.049,3.281,-0.434858,0.538539,0.609892,99947.48,+8,+225,+171
76642,9.605,-0.522,3.255,-0.510950,0.555566,0.651397,99949.53,+5,+221,+170
76651,9.747,0.028,3.219,-0.492326,0.577383,0.725360,99949.53,+5,+221,+170
76661,9.713,-0.232,3.114,-0.441244,0.604520,0.813690,99948.74,+5,+220,+169
76672,9.395,-0.588,3.117,-0.403996,0.639107,0.919580,99947.96,+7,+221,+175
76682,9.337,-0.594,3.351,-0.418895,0.676355,1.005250,99945.23,+4,+216,+175
76692,9.385,-0.331,3.620,-0.428473,0.708814,1.087195,99948.90,+4,+216,+175
76701,9.506,-0.348,3.927,-0.404528,0.727970,1.185635,99948.90,+4,+215,+173
76711,9.633,-0.838,4.061,-0.382711,0.742337,1.278222,99949.55,+5,+217,+179
76722,9.617,-1.238,4.180,-0.403996,0.758832,1.377195,99945.30,+1,+211,+177
76732,10.069,-1.737,4.226,-0.490730,0.788630,1.416571,99947.20,+1,+211,+177
76741,9.919,-1.602,4.197,-0.575335,0.820025,1.470846,99946.57,+1,+211,+177
76751,10.194,-1.625,4.252,-0.628546,0.841841,1.535763,99946.57,+2,+211,+185
76762,10.897,-2.219,3.535,-0.661537,0.859401,1.578332,99948.32,+0,+204,+183
76772,11.603,-2.978,2.928,-0.639720,0.864190,1.646974,99947.10,-1,+203,+182
76782,11.516,-2.818,2.707,-0.564693,0.891859,1.766699,99949.05,-1,+203,+182
76791,11.497,-2.665,2.580,-0.474234,0.924318,1.906112,99950.15,+0,+203,+189
76802,11.646,-2.578,2.746,-0.368877,0.948263,2.065212,99950.15,-4,+195,+188
76808,11.633,-2.402,3.170,-0.307684,0.970080,2.190258,99948.29,-4,+195,+188
76817,11.738,-2.183,3.603,-0.306620,0.998814,2.299341,99948.29,-5,+196,+187
76827,12.114,-1.921,3.947,-0.347060,1.050428,2.414277,99948.18,-5,+195,+194
76836,12.836,-1.490,4.360,-0.423684,1.085547,2.530808,99946.87,-5,+195,+194
76847,14.035,-0.586,4.882,-0.522124,1.104703,2.662240,99946.37,-8,+187,+192
76857,15.707,0.275,5.379,-0.663133,1.158446,2.795799,99947.30,-9,+187,+192
76867,17.485,0.586,5.108,-0.868528,1.281896,2.898496,99946.10,-8,+185,+200
76877,19.110,0.566,4.478,-1.155335,1.400024,2.928827,99947.15,-8,+185,+200
76887,21.629,2.215,3.192,-1.489500,1.490483,2.910735,99947.15,-11,+175,+199
76897,24.140,4.815,1.623,-1.903481,1.594244,2.853799,99945.21,-8,+172,+201
76907,24.287,6.763,0.515,-2.423352,1.672464,2.844221,99945.21,-4,+166,+210
76916,22.104,3.981,1.044,-3.163517,1.579877,2.843689,99947.84,-3,+166,+212
76922,19.235,-0.996,2.935,-3.697223,1.466006,2.813891,99944.48,-3,+152,+212
76932,16.295,-7.573,5.670,-3.959553,1.452703,2.894772,99947.11,+0,+144,+216
76942,15.707,-11.658,10.426,-3.766929,1.445254,3.089524,99944.44,+0,+144,+216
76952,15.865,-7.117,11.434,-2.926196,1.418648,3.179982,99944.44,+5,+136,+225
76961,15.581,-1.346,9.639,-1.712454,1.512299,3.114001,99945.63,+8,+126,+222
76972,13.217,1.631,5.691,-0.596088,1.329786,2.937872,99947.42,+14,+128,+222
76982,9.314,0.858,3.208,0.016371,0.956245,2.615414,99947.52,+14,+128,+222
76992,5.431,-4.413,3.152,0.345215,0.797676,2.213671,99942.80,+20,+132,+227
77001,6.602,-1.177,-0.070,0.340426,0.460318,1.747011,99942.80,+23,+132,+219
77011,6.440,3.209,-1.819,0.160040,0.291640,0.931819,99945.72,+29,+138,+218
77022,4.864,4.588,-1.442,0.110554,0.154887,0.202828,99949.44,+29,+138,+218
77032,3.899,2.944,-1.859,0.142481,-0.073388,-0.270217,99945.52,+36,+144,+222
77042,3.326,0.593,-2.232,0.223361,-0.266544,-0.609703,99945.41,+40,+144,+213
77051,3.149,-0.423,-1.872,0.312756,-0.434690,-0.911410,99945.41,+47,+152,+213
77062,3.258,-0.363,-1.089,0.417582,-0.602837,-1.239189,99947.30,+47,+152,+213
77072,3.415,-0.294,-0.232,0.556462,-0.770984,-1.578675,99943.01,+54,+157,+216
77082,3.579,-0.295,0.448,0.760792,-0.962543,-1.910180,99944.99,+59,+160,+208
77091,4.065,-0.476,1.055,1.044939,-1.159956,-2.222528,99944.16,+68,+171,+208
77102,4.720,-1.046,1.362,1.358884,-1.360029,-2.514124,99944.16,+68,+171,+208
77112,5.220,-1.745,1.504,1.558957,-1.552121,-2.782840,99946.20,+76,+176,+210
77122,5.801,-1.971,1.428,1.589287,-1.740488,-3.039316,99941.95,+83,+180,+202
77131,6.302,-1.595,1.421,1.551507,-1.910231,-3.303243,99943.53,+95,+188,+202
77142,6.788,-1.235,1.716,1.544058,-2.045387,-3.565041,99943.91,+95,+188,+202
77152,7.275,-1.362,2.196,1.588223,-2.164579,-3.780013,99943.91,+104,+191,+207
77162,7.830,-1.858,2.770,1.644627,-2.276854,-3.962527,99942.50,+113,+190,+200
77172,8.369,-2.625,3.139,1.620682,-2.398707,-4.146637,99941.28,+126,+195,+204
77181,8.807,-3.326,3.304,1.513728,-2.493423,-4.309463,99940.77,+132,+195,+204
77192,9.141,-3.940,3.481,1.334407,-2.550891,-4.425462,99940.19,+132,+191,+210
77202,9.656,-4.304,3.613,1.117838,-2.593460,-4.537737,99940.19,+139,+186,+208
77212,10.510,-4.159,3.642,0.897545,-2.634964,-4.673426,99941.72,+148,+183,+216
77221,11.425,-3.828,3.654,0.715563,-2.679129,-4.814435,99943.77,+150,+175,+225
77232,12.311,-3.489,3.936,0.587857,-2.715845,-4.950122,99942.34,+150,+175,+225
77242,13.153,-3.166,4.581,0.537306,-2.744579,-5.074636,99944.55,+151,+164,+226
77252,13.777,-3.105,5.370,0.599563,-2.772781,-5.176269,99944.55,+154,+158,+236
77262,14.437,-3.500,6.284,0.683104,-2.793533,-5.248104,99940.72,+150,+149,+244
77272,15.233,-4.090,7.109,0.709710,-2.808432,-5.292269,99943.19,+150,+149,+244
77282,16.061,-4.541,7.760,0.654370,-2.788744,-5.316746,99941.63,+147,+138,+244
77292,16.787,-4.834,8.288,0.585728,-2.717441,-5.310893,99942.41,+143,+132,+255
77302,17.208,-5.283,8.577,0.508572,-2.586010,-5.258746,99942.41,+135,+124,+260
77312,16.997,-5.563,8.830,0.405343,-2.400836,-5.151260,99943.04,+135,+124,+260
77322,16.101,-5.529,9.000,0.310095,-2.158726,-5.000141,99944.71,+128,+114,+258
77332,15.016,-5.969,9.172,0.193563,-1.885221,-4.806985,99944.98,+122,+111,+267
77342,14.090,-7.112,9.098,-0.028859,-1.581387,-4.574453,99942.82,+112,+106,+271
77351,12.786,-9.061,8.695,-0.452950,-1.253075,-4.357884,99942.82,+112,+106,+271
77362,11.181,-10.852,8.344,-1.104252,-0.934341,-4.161004,99943.97,+107,+96,+267
77372,9.365,-11.274,8.321,-1.665096,-0.584745,-3.828435,99947.38,+104,+91,+275
77382,7.902,-12.157,8.161,-1.938601,-0.248452,-3.293665,99945.64,+100,+82,+277
77392,6.750,-14.035,8.017,-1.875279,0.035695,-2.367794,99945.80,+100,+82,+277
77402,5.939,-14.155,7.846,-1.474601,0.208098,-1.349868,99945.80,+99,+72,+273
77412,5.830,-12.479,7.463,-0.746675,0.377309,-0.204768,99946.66,+100,+71,+280
77422,6.883,-11.149,7.052,0.086077,0.550777,0.762608,99947.19,+101,+74,+280
77432,7.635,-11.128,6.822,0.811343,0.714667,1.543213,99947.77,+101,+74,+280
77442,8.296,-11.089,6.864,1.310462,0.857804,2.161524,99943.89,+103,+76,+274
77452,11.382,-4.951,4.130,1.670168,0.891859,2.375432,99943.89,+108,+85,+280
77462,16.107,8.435,-3.795,1.872370,0.772667,2.106717,99946.95,+108,+94,+278
77472,18.442,20.063,-9.608,1.315783,0.673694,1.525121,99950.98,+108,+94,+278
77481,9.803,-0.500,-3.501,1.797342,0.864722,1.290461,99949.25,+112,+96,+272
77492,11.054,-10.473,3.012,3.125488,1.041914,2.178020,99948.36,+117,+113,+275
77502,19.623,-6.529,2.315,2.287415,0.953584,2.680331,99948.36,+117,+123,+271
77512,19.942,-4.296,-0.797,0.792719,1.051492,2.248258,99949.23,+117,+123,+271
77521,15.608,-7.539,0.534,0.514426,1.210061,2.377029,99949.02,+119,+126,+266
77532,14.044,-5.384,4.435,0.580407,1.392043,2.533469,99947.34,+123,+134,+271
77542,11.634,-0.455,8.422,0.621912,1.571364,2.259433,99945.98,+125,+136,+266
77552,9.616,1.035,11.683,0.827838,1.666611,1.944423,99945.98,+125,+136,+266
77562,9.854,-1.669,7.927,0.993324,1.472923,1.803414,99945.94,+128,+140,+261
77572,10.246,-4.204,4.821,0.728866,1.245180,1.795433,99950.28,+133,+150,+265
77582,10.112,-4.360,4.036,0.350536,1.156850,1.764038,99945.88,+133,+150,+260
77592,9.647,-5.007,3.292,-0.064510,0.991896,1.586846,99946.78,+133,+150,+260
77602,10.340,-5.253,2.892,-0.646106,0.858337,1.379323,99946.78,+136,+149,+257
77612,11.085,-3.786,2.767,-1.301133,0.814703,1.219690,99949.26,+138,+151,+264
77622,10.631,-1.138,2.911,-1.657647,0.757236,1.065378,99949.52,+136,+144,+263
77628,9.962,0.450,2.959,-1.627316,0.684869,0.941929,99946.85,+136,+144,+263
77637,9.846,1.282,2.859,-1.315500,0.622080,0.834975,99946.85,+139,+139,+261
77647,10.134,1.521,2.410,-0.701445,0.589089,0.740791,99947.63,+141,+142,+267
77658,10.320,1.075,2.313,-0.140602,0.616759,0.764736,99947.63,+141,+142,+267
77667,10.102,0.360,2.695,0.140884,0.632190,0.852002,99949.34,+140,+140,+262
77677,9.635,0.313,3.073,0.255820,0.619951,0.884993,99947.69,+143,+140,+260
77687,9.172,0.005,3.241,0.317013,0.606649,0.848809,99946.09,+145,+147,+265
77698,8.760,-0.911,2.957,0.292536,0.577915,0.820608,99946.09,+145,+147,+265
77707,8.771,-1.528,3.218,0.052022,0.545988,0.765268,99946.09,+143,+146,+260
77717,8.984,-0.637,3.757,-0.349721,0.497566,0.685984,99947.77,+147,+145,+258
77727,8.961,0.821,3.656,-0.669519,0.457126,0.641819,99949.71,+147,+148,+264
77737,8.887,1.320,3.141,-0.748803,0.451273,0.619470,99949.76,+147,+148,+264
77747,9.087,0.972,2.429,-0.598216,0.469896,0.606700,99948.82,+145,+142,+260
77757,9.340,0.480,1.919,-0.304491,0.521511,0.620534,99948.82,+149,+141,+258
77767,9.398,-0.555,2.102,-0.023005,0.586960,0.670021,99949.68,+150,+146,+263
77777,9.419,-1.630,2.981,0.038187,0.619419,0.721103,99948.95,+150,+146,+263
77788,9.274,-1.363,3.866,-0.139005,0.620483,0.712057,99945.96,+150,+143,+258
77797,9.035,-0.852,3.939,-0.357702,0.604520,0.684388,99945.96,+153,+143,+258
77807,9.129,-0.690,3.757,-0.440711,0.581107,0.676938,99947.49,+155,+146,+263
77817,9.409,-0.683,3.469,-0.385372,0.559291,0.701415,99946.24,+155,+146,+263
77827,9.634,-0.828,3.226,-0.275757,0.555566,0.730681,99946.24,+153,+142,+257
77837,9.724,-1.254,3.171,-0.211904,0.563016,0.768993,99948.91,+156,+144,+257
77847,9.659,-1.425,3.205,-0.214565,0.575254,0.808369,99946.51,+158,+147,+262
77857,9.537,-1.450,3.404,-0.249152,0.600263,0.823268,99946.51,+156,+147,+262
77862,9.562,-1.301,3.488,-0.290657,0.614630,0.829121,99947.82,+156,+143,+256
77872,9.608,-0.901,3.637,-0.311409,0.624740,0.847745,99947.82,+160,+144,+256
77882,9.536,-0.862,3.770,-0.298106,0.634318,0.879140,99948.24,+160,+144,+256
77892,9.422,-1.222,3.760,-0.284803,0.641768,0.917452,99947.13,+162,+148,+260
77902,9.433,-1.483,3.772,-0.325776,0.663052,0.949910,99947.13,+160,+144,+254
77913,9.541,-1.334,3.805,-0.410913,0.699768,0.965874,99949.67,+164,+145,+255
77922,9.292,-0.799,3.919,-0.472638,0.735419,0.999397,99948.67,+164,+145,+255
77932,9.689,-1.183,3.766,-0.480088,0.759896,1.053672,99946.89,+164,+148,+259
77942,9.854,-1.742,3.699,-0.509354,0.802465,1.095708,99944.42,+163,+143,+253
77953,9.730,-1.558,3.642,-0.564161,0.829070,1.195213,99944.42,+168,+146,+253
77962,9.964,-1.280,4.060,-0.590766,0.850887,1.269708,99946.96,+168,+146,+253
77972,10.334,-1.515,3.876,-0.592895,0.868447,1.358571,99947.90,+168,+147,+258
77982,10.825,-2.281,3.540,-0.592895,0.888135,1.457011,99947.85,+168,+143,+250
77992,11.158,-2.537,3.309,-0.583317,0.911015,1.546405,99945.29,+172,+146,+252
78002,11.268,-2.574,3.253,-0.556711,0.937621,1.645378,99945.29,+172,+146,+252
78012,11.522,-2.632,3.262,-0.515739,0.957841,1.732112,99946.89,+170,+148,+256
78022,11.918,-2.727,3.413,-0.484877,0.971144,1.842258,99946.53,+170,+145,+250
78032,12.004,-2.705,3.508,-0.501372,1.001474,1.960387,99947.11,+173,+148,+250
78043,12.021,-2.659,3.672,-0.566289,1.041914,2.067341,99944.02,+173,+148,+250
78052,12.395,-2.377,3.946,-0.649831,1.067988,2.153011,99944.02,+172,+151,+253
78062,13.037,-2.393,3.809,-0.755188,1.112685,2.220057,99948.81,+171,+148,+247
78072,13.811,-2.237,3.631,-0.876509,1.157914,2.281781,99948.44,+174,+150,+250
78083,14.845,-1.510,3.621,-0.996234,1.146208,2.353084,99945.56,+174,+150,+250
78092,15.836,-0.303,3.498,-1.136179,1.162171,2.444075,99947.23,+173,+151,+253
78098,16.299,-0.089,3.180,-1.296344,1.232942,2.495689,99947.23,+171,+146,+248
78107,16.873,-0.595,2.435,-1.579959,1.290410,2.490900,99947.23,+171,+146,+248
78117,19.168,0.451,1.334,-2.142398,1.273914,2.460038,99951.09,+175,+146,+252
78128,22.716,4.690,0.720,-2.819774,1.236134,2.419065,99946.10,+172,+140,+257
78138,23.767,8.406,0.469,-3.350820,1.270722,2.431836,99945.59,+172,+128,+254
78147,21.150,7.295,0.047,-3.576434,1.261144,2.530277,99945.43,+172,+128,+254
78157,17.219,1.720,3.690,-3.210343,1.244648,2.702148,99948.79,+176,+122,+260
78168,16.424,-5.969,7.203,-2.214765,1.079694,3.085267,99947.37,+174,+116,+265
78177,18.819,-9.452,7.701,-1.319757,0.762025,3.524257,99947.37,+174,+112,+260
78187,19.146,-6.284,8.091,-0.851500,0.620483,3.597157,99946.26,+174,+112,+260
78197,18.260,-0.898,7.894,-0.302895,0.703493,3.480092,99944.01,+175,+116,+266
78208,15.666,4.350,5.392,0.340958,0.853015,3.266716,99944.01,+174,+118,+268
78218,10.553,7.207,3.469,0.880517,0.780648,2.965542,99949.27,+174,+122,+261
78227,7.206,4.401,3.837,1.479141,0.401786,2.513781,99945.85,+174,+122,+261
78237,3.884,-4.953,6.539,1.963892,0.139456,1.992845,99944.29,+176,+132,+266
78247,5.858,-3.893,3.767,1.608443,-0.180874,1.439983,99945.12,+174,+136,+268
78258,7.456,0.724,-0.066,0.751746,-0.342635,0.484314,99951.98,+174,+136,+264
78268,5.566,4.362,-0.270,0.414389,-0.420855,-0.400052,99947.84,+174,+136,+264
78277,4.732,5.078,-0.165,0.411728,-0.708195,-0.802859,99950.52,+176,+138,+273
78287,4.076,2.877,-0.170,0.592114,-1.023204,-1.089666,99946.73,+172,+134,+278
78298,3.654,-0.041,0.259,0.713435,-1.274359,-1.370088,99946.73,+171,+130,+277
78307,3.672,-1.508,0.727,0.705453,-1.478157,-1.701060,99946.73,+171,+130,+277
78317,3.914,-1.463,1.285,0.600627,-1.652157,-2.103335,99944.30,+169,+132,+290
78327,4.363,-0.919,1.491,0.502187,-1.837332,-2.491243,99944.88,+164,+126,+297
78332,4.762,-0.683,1.360,0.484095,-1.962909,-2.763684,99941.20,+164,+126,+297
78343,5.174,-0.804,1.305,0.488352,-2.078377,-3.015372,99942.52,+160,+121,+299
78352,5.687,-1.206,1.456,0.476646,-2.220983,-3.306436,99942.52,+154,+120,+313
78362,6.052,-1.338,1.537,0.466536,-2.352946,-3.560252,99944.78,+143,+114,+321
78372,6.304,-1.335,1.617,0.472389,-2.454047,-3.791720,99942.89,+143,+114,+321
78383,6.842,-1.673,1.863,0.516022,-2.517900,-4.019995,99940.59,+135,+107,+326
78393,7.509,-2.040,2.130,0.595306,-2.567918,-4.248802,99942.89,+124,+109,+340
78402,8.158,-2.484,2.603,0.652242,-2.621661,-4.449407,99942.89,+109,+106,+346
78412,8.828,-2.714,3.068,0.719820,-2.691368,-4.629792,99943.85,+109,+106,+346
78423,9.718,-2.724,3.512,0.727269,-2.758414,-4.823481,99941.38,+96,+103,+348
78433,10.899,-2.949,3.819,0.646389,-2.827588,-5.035260,99940.55,+81,+109,+360
78442,12.367,-3.108,4.179,0.492609,-2.889845,-5.245975,99942.27,+62,+108,+361
78452,13.661,-3.269,4.127,0.385655,-2.903147,-5.426361,99942.27,+62,+108,+361
78462,14.559,-4.239,4.122,0.383527,-2.866964,-5.538636,99941.61,+46,+108,+361
78473,15.337,-5.342,4.550,0.422903,-2.823863,-5.603021,99943.08,+29,+121,+366
78482,16.175,-6.258,5.710,0.368095,-2.767992,-5.664746,99942.61,+12,+128,+359
78492,16.217,-7.073,6.887,0.289875,-2.721166,-5.662618,99941.23,+12,+128,+359
78502,16.003,-7.491,7.447,0.284554,-2.684450,-5.607278,99941.23,+1,+136,+353
78513,16.497,-7.462,7.537,0.269123,-2.630707,-5.560985,99945.49,-3,+155,+353
78523,16.941,-7.361,7.526,0.152591,-2.544506,-5.465737,99945.07,-9,+164,+342
78532,16.205,-7.066,7.882,0.032866,-2.400836,-5.309297,99942.98,-9,+164,+342
78542,15.177,-7.129,8.575,0.014242,-2.176286,-5.127847,99943.18,-8,+171,+334
78553,14.628,-8.319,8.830,-0.007042,-1.874579,-4.898508,99943.18,-3,+184,+333
78563,14.015,-9.993,8.752,-0.095372,-1.536690,-4.622343,99947.15,+2,+185,+323
78568,13.314,-11.332,8.404,-0.187427,-1.291387,-4.389811,99945.99,+2,+185,+323
78577,12.472,-12.881,8.275,-0.311409,-1.074286,-4.081187,99945.99,+10,+184,+318
78587,10.818,-14.280,8.174,-0.368345,-0.818873,-3.438931,99944.73,+18,+188,+322
78598,8.244,-15.696,8.525,-0.277354,-0.530470,-2.584363,99943.21,+18,+188,+322
78608,6.008,-17.186,8.959,-0.209244,-0.242067,-1.601556,99943.21,+22,+182,+314
78618,4.928,-16.740,9.548,-0.117721,0.030906,-0.582034,99947.80,+25,+179,+313
78627,5.195,-14.586,10.250,0.146206,0.277273,0.374168,99946.67,+30,+182,+318
78638,5.925,-13.226,10.566,0.539435,0.504484,1.217561,99945.20,+30,+182,+318
78648,8.006,-11.338,9.317,0.851251,0.713071,1.866735,99945.20,+30,+180,+311
78657,10.284,-5.261,7.056,0.935324,0.963162,2.037543,99945.20,+32,+182,+310
78667,18.684,14.039,-8.913,0.708646,0.613566,1.809800,99947.55,+34,+189,+314
78678,17.403,15.661,-7.709,-0.492326,0.800337,1.169140,99951.65,+34,+189,+314
78688,7.767,-6.252,0.241,0.727269,1.120667,1.172864,99951.13,+35,+182,+308
78697,15.329,-11.268,2.774,1.450407,1.090336,2.320093,99949.09,+39,+186,+307
78707,23.271,-5.320,1.040,0.011050,1.057878,2.524423,99949.09,+41,+189,+311
78717,19.457,-3.678,2.411,-0.721665,1.365969,2.155671,99951.65,+41,+189,+311
78728,15.750,-3.956,4.871,-0.165611,1.463345,2.518038,99947.51,+40,+180,+306
78738,13.416,-1.298,5.313,0.178132,1.542630,2.629249,99943.57,+44,+179,+308
78747,9.410,0.379,6.650,0.525068,1.579345,2.355212,99943.57,+48,+186,+311
78757,7.146,-0.071,10.135,0.936389,1.577217,2.103524,99947.30,+49,+186,+311
78768,7.421,-1.036,9.626,1.233838,1.484630,1.854497,99947.30,+49,+184,+303
78778,9.982,-3.304,4.732,1.050260,1.218575,1.626754,99948.92,+53,+190,+303
78787,11.809,-5.796,3.080,0.634682,1.107364,1.582057,99948.50,+56,+197,+306
78797,11.403,-5.427,2.409,0.297857,1.035529,1.538424,99946.50,+55,+190,+299
78802,10.623,-4.777,2.382,-0.066106,0.962630,1.430405,99946.50,+55,+190,+299
78813,10.503,-4.274,2.463,-0.454014,0.899309,1.323451,99948.69,+58,+190,+303
78823,10.428,-2.868,2.534,-0.882895,0.822685,1.173928,99951.36,+58,+190,+303
78832,9.979,-1.623,2.750,-1.173427,0.743933,1.006314,99949.33,+59,+190,+307
78842,9.774,-0.607,2.540,-1.206950,0.660392,0.848809,99948.75,+58,+180,+304
78853,10.002,0.233,2.054,-0.952601,0.615162,0.721635,99948.75,+61,+177,+309
78863,10.559,0.541,1.996,-0.526913,0.628997,0.634901,99948.23,+61,+177,+309
78872,10.504,0.241,2.422,-0.210308,0.656667,0.633305,99948.54,+64,+179,+313
78882,10.059,-0.062,2.795,-0.087923,0.652410,0.668424,99949.12,+63,+173,+306
78893,9.678,-0.166,2.958,-0.034180,0.635915,0.664699,99950.85,+67,+175,+310
78903,9.239,-0.465,2.973,-0.018748,0.608777,0.621599,99950.85,+67,+175,+310
78913,8.804,-0.923,3.019,-0.097501,0.570997,0.561470,99949.65,+69,+178,+312
78922,8.846,-0.865,3.238,-0.314069,0.522575,0.476333,99950.70,+67,+172,+306
78932,9.110,0.100,3.447,-0.571610,0.474685,0.408755,99949.13,+71,+172,+311
78943,9.061,0.774,3.577,-0.712087,0.447016,0.367782,99949.80,+71,+172,+311
78953,9.015,0.803,3.030,-0.714216,0.445419,0.348626,99949.80,+72,+172,+314
78962,9.150,0.645,2.453,-0.616840,0.460318,0.357672,99950.76,+71,+163,+309
78972,9.238,1.089,2.380,-0.362491,0.493841,0.400773,99950.02,+75,+165,+314
78983,9.191,0.798,2.497,-0.035776,0.536410,0.472076,99947.46,+75,+165,+314
78993,9.132,-0.216,3.023,0.173875,0.573126,0.568920,99944.63,+77,+167,+315
79002,9.096,-1.175,3.460,0.082885,0.576850,0.655654,99944.63,+75,+162,+309
79012,9.136,-1.445,3.479,-0.141134,0.563016,0.695562,99948.69,+80,+166,+313
79023,9.353,-0.916,3.473,-0.304491,0.563016,0.695562,99947.69,+81,+166,+313
79033,9.466,-0.393,3.415,-0.370473,0.566208,0.685984,99949.78,+81,+167,+315
79038,9.560,-0.249,3.153,-0.355574,0.568869,0.702479,99946.06,+80,+159,+309
79047,9.583,-0.131,2.934,-0.279482,0.580043,0.746644,99946.06,+80,+159,+309
79057,9.547,-0.173,2.889,-0.140602,0.613034,0.826461,99946.06,+84,+163,+314
79068,9.487,-0.627,3.079,-0.047482,0.649749,0.905213,99946.80,+85,+164,+314
79078,9.480,-1.103,3.230,-0.051739,0.681144,0.971727,99948.27,+84,+158,+309
79088,9.569,-0.981,3.418,-0.132620,0.702428,1.018020,99946.95,+84,+158,+309
79097,9.744,-0.922,3.473,-0.225207,0.707217,1.060589,99946.95,+90,+162,+314
79108,9.878,-0.895,3.524,-0.252345,0.734355,1.110075,99947.30,+91,+162,+314
79118,9.786,-1.207,3.502,-0.260858,0.763089,1.150516,99947.30,+89,+156,+309
79128,9.527,-1.576,3.514,-0.280546,0.784373,1.197341,99947.25,+89,+156,+309
79137,9.513,-1.722,3.720,-0.318858,0.797144,1.253745,99949.67,+94,+160,+314
79148,9.737,-1.702,3.943,-0.383244,0.808850,1.303763,99945.94,+95,+159,+313
79158,9.822,-1.572,3.939,-0.469978,0.829070,1.347396,99945.94,+95,+152,+309
79168,9.895,-1.409,3.861,-0.507757,0.849823,1.418167,99948.91,+95,+152,+309
79178,10.194,-1.548,4.004,-0.528510,0.863658,1.492662,99945.86,+100,+156,+315
79187,10.768,-2.058,3.678,-0.525849,0.874832,1.575671,99947.44,+99,+154,+314
79198,11.481,-3.117,3.303,-0.538620,0.888667,1.652827,99946.96,+100,+148,+310
79208,11.964,-3.395,2.835,-0.535427,0.918465,1.718809,99949.05,+100,+148,+310
79218,11.914,-3.174,2.567,-0.508289,0.947199,1.797561,99947.85,+104,+152,+317
79227,11.785,-2.784,2.855,-0.419427,0.954116,1.912497,99946.49,+104,+149,+314
79238,11.825,-2.818,3.466,-0.352381,0.950924,2.040735,99946.49,+104,+144,+309
79248,11.916,-2.729,4.060,-0.372069,0.959437,2.153543,99948.38,+104,+144,+309
79258,11.938,-2.295,4.470,-0.470510,0.978593,2.247726,99948.38,+109,+149,+316
79267,12.039,-1.799,4.935,-0.633867,1.000942,2.314772,99948.68,+108,+146,+313
79273,12.761,-1.741,4.669,-0.775941,1.021162,2.340313,99946.59,+108,+146,+313
79283,13.747,-2.314,3.901,-0.932381,1.052024,2.341377,99945.27,+110,+141,+309
79293,14.978,-2.451,2.947,-1.119151,1.054685,2.349359,99947.10,+113,+143,+315
79303,16.030,-1.314,2.434,-1.277188,1.004135,2.426515,99947.10,+112,+135,+314
79312,16.753,0.114,1.720,-1.444270,1.013180,2.516974,99949.31,+112,+135,+314
79323,17.628,1.054,0.663,-1.717775,1.100446,2.549432,99947.84,+114,+128,+311
79333,19.485,2.455,-0.467,-2.125903,1.132373,2.529212,99944.95,+118,+126,+318
79343,22.480,6.083,-1.214,-2.570215,1.151529,2.544111,99946.80,+119,+113,+316
79352,22.923,8.420,-0.122,-2.954398,1.230813,2.664368,99946.80,+119,+113,+316
79363,20.036,6.627,2.506,-2.888416,1.255290,2.889983,99950.56,+123,+100,+314
79373,18.496,0.386,7.049,-2.034912,1.145676,3.218294,99944.75,+128,+96,+321
79383,19.052,-4.809,8.488,-0.960051,0.846098,3.650367,99947.38,+128,+92,+318
79393,18.716,-6.826,9.855,-0.347592,0.738612,3.956863,99944.17,+128,+92,+318
79403,19.110,-5.759,9.387,0.188242,0.907823,3.993578,99944.17,+130,+93,+313
79413,17.815,-0.351,6.300,0.660756,1.098318,3.803083,99945.76,+134,+102,+318
79423,14.384,4.979,3.566,1.069948,1.045639,3.552459,99947.49,+136,+106,+312
79433,10.453,5.157,3.688,1.273746,0.655603,3.041634,99950.70,+136,+106,+312
79442,5.289,-1.180,5.327,1.529159,0.285254,2.392992,99944.35,+138,+114,+308
79453,6.279,-1.485,4.094,1.333874,-0.065938,1.723066,99944.35,+139,+127,+313
79463,8.078,1.335,0.741,0.681508,-0.287828,0.824865,99949.27,+136,+124,+308
79473,6.847,4.237,-0.437,0.328187,-0.427773,-0.019062,99950.27,+136,+124,+308
79482,5.789,4.517,-0.294,0.197288,-0.700745,-0.528291,99948.95,+137,+124,+308
79493,4.530,2.513,0.102,0.257417,-1.039699,-0.878419,99946.39,+136,+128,+314
79503,3.704,0.015,0.564,0.402150,-1.340341,-1.214180,99946.39,+130,+120,+311
79509,3.493,-1.339,0.948,0.469196,-1.553185,-1.482363,99947.47,+130,+120,+311
79518,3.388,-1.619,1.230,0.440462,-1.753790,-1.789391,99947.47,+126,+118,+311
79528,3.713,-1.193,1.613,0.320205,-2.006542,-2.244344,99945.63,+121,+118,+319
79538,4.412,-0.506,1.647,0.292536,-2.230561,-2.695574,99945.05,+121,+118,+319
79548,5.329,-0.307,1.651,0.415985,-2.407753,-3.073904,99944.63,+113,+108,+318
79558,6.025,-0.775,1.825,0.543692,-2.547698,-3.377206,99942.29,+104,+105,+321
79568,6.067,-1.187,2.074,0.649581,-2.654652,-3.619316,99943.76,+95,+105,+329
79578,6.223,-1.625,2.163,0.694279,-2.705203,-3.851316,99937.57,+95,+105,+329
79588,7.047,-2.004,2.531,0.654903,-2.777570,-4.113646,99937.57,+82,+96,+328
79598,7.954,-1.941,3.067,0.621912,-2.865900,-4.340857,99940.66,+70,+93,+332
79608,8.678,-2.307,3.505,0.622444,-2.930285,-4.569132,99940.66,+58,+93,+341
79618,9.034,-2.652,4.040,0.578811,-2.954762,-4.804857,99941.07,+58,+93,+341
79628,9.618,-2.959,4.188,0.493141,-2.967001,-5.046434,99939.18,+40,+87,+338
79638,10.531,-3.008,4.134,0.431416,-2.969129,-5.297590,99939.70,+23,+89,+341
79648,12.037,-3.046,3.915,0.341490,-2.964872,-5.541829,99938.96,+9,+89,+347
79659,13.400,-3.632,3.726,0.248903,-2.933478,-5.733920,99938.96,+9,+89,+347
79668,14.530,-4.625,3.830,0.171215,-2.875478,-5.840874,99942.13,-11,+85,+341
79678,15.561,-5.101,4.546,0.088206,-2.814285,-5.923351,99939.62,-30,+89,+339
79688,16.503,-5.502,5.762,-0.048014,-2.752560,-5.985076,99943.40,-49,+94,+339
79698,16.807,-6.555,7.269,-0.095372,-2.651992,-5.993590,99943.40,-49,+94,+339
79708,16.705,-7.601,8.357,-0.075684,-2.553551,-5.934525,99943.40,-69,+96,+326
79718,16.886,-8.021,8.547,-0.092712,-2.459368,-5.853645,99944.15,-83,+108,+318
79728,17.085,-8.020,8.555,-0.137409,-2.322616,-5.747223,99942.46,-95,+122,+311
79738,16.448,-8.275,8.620,-0.228932,-2.157130,-5.548746,99939.74,-105,+132,+295
79744,15.550,-8.687,8.701,-0.304491,-2.012928,-5.333774,99940.26,-105,+132,+295
79753,14.464,-9.092,8.984,-0.347060,-1.826689,-5.090067,99940.26,-106,+146,+287
79763,13.186,-9.822,9.223,-0.403996,-1.539350,-4.754838,99946.70,-106,+146,+287
79773,12.287,-11.204,9.299,-0.554051,-1.235515,-4.405242,99943.60,-107,+159,+283
79783,11.096,-12.788,9.035,-0.792436,-0.944983,-4.038086,99943.60,-106,+166,+271
79793,9.797,-13.959,8.813,-1.054766,-0.693296,-3.573022,99943.18,-101,+174,+268
79803,8.043,-14.263,8.807,-1.126069,-0.428837,-2.883408,99943.18,-101,+174,+268
79813,6.671,-14.757,8.819,-0.996766,-0.142562,-2.037886,99947.14,-98,+178,+271
79823,6.202,-15.097,8.927,-0.741354,0.124025,-1.097116,99949.97,-97,+178,+264
79833,6.061,-14.514,9.320,-0.348124,0.366135,-0.161667,99948.03,-94,+181,+266
79843,6.245,-13.549,10.003,0.087674,0.583768,0.713121,99944.56,-94,+181,+266
79853,6.857,-12.509,10.381,0.484627,0.806190,1.469782,99944.56,-95,+183,+270
79863,9.881,-8.366,7.949,0.827306,0.979125,1.964644,99945.06,-99,+182,+263
79873,13.757,2.091,-0.323,1.193398,0.923786,1.921011,99947.42,-99,+185,+266
79883,21.461,25.652,-14.814,1.336003,0.578979,1.580460,99948.47,-99,+185,+266
79893,15.086,10.259,-8.383,1.024719,0.611438,1.104754,99948.00,-102,+189,+268
79903,8.156,-11.254,3.000,3.294699,1.056813,1.852901,99948.00,-104,+194,+258
79913,17.305,-11.654,4.277,3.292571,1.058942,3.150184,99947.96,-105,+203,+256
79923,22.370,-4.488,-1.758,1.392939,1.146208,2.687781,99948.80,-105,+203,+256
79933,16.520,-9.630,-0.297,0.371288,1.410134,2.367983,99949.27,-108,+203,+260
79943,15.119,-8.560,3.333,0.281361,1.543694,2.734074,99946.12,-110,+196,+254
79953,13.574,-0.373,6.630,0.159508,1.711841,2.534001,99946.12,-107,+194,+261
79963,9.810,4.510,12.613,0.619783,1.865088,2.260497,99951.97,-107,+193,+263
79973,8.879,3.614,10.419,1.352498,1.807088,2.180148,99945.36,-107,+193,+263
79983,9.014,-2.737,4.532,1.422737,1.502721,2.209414,99944.36,-107,+191,+258
79993,8.742,-5.097,4.580,1.207232,1.420776,2.296148,99948.61,-103,+194,+263
80003,9.168,-3.380,4.488,0.911912,1.271254,2.157268,99948.61,-106,+192,+265
80013,9.426,-5.690,2.861,0.276572,1.047768,1.922075,99950.11,-106,+192,+265
80023,11.105,-6.442,1.876,-0.452418,0.944006,1.817249,99947.22,-107,+186,+263
80033,11.876,-4.175,2.226,-1.140436,0.908887,1.708699,99946.59,-104,+182,+270
80044,10.373,-1.081,2.742,-1.508656,0.845034,1.532038,99946.64,-107,+172,+276
80053,9.201,-0.753,2.362,-1.355408,0.746061,1.298974,99946.64,-107,+172,+276
80063,9.927,-0.896,1.792,-0.811060,0.732759,1.060589,99951.27,-106,+162,+273
80073,10.543,0.001,2.000,-0.257666,0.792887,0.944589,99952.23,-103,+162,+280
80083,10.197,0.070,3.067,0.033398,0.815236,1.008975,99945.99,-104,+160,+281
80093,9.760,-0.504,3.550,0.141417,0.769474,1.058993,99946.40,-104,+160,+281
80103,9.780,-0.903,3.442,0.131307,0.706153,1.005250,99946.40,-103,+156,+278
80113,9.580,-0.902,3.140,0.089802,0.648685,0.934479,99949.41,-99,+158,+284
80123,8.962,-1.176,3.091,0.036591,0.609309,0.870094,99948.72,-102,+154,+285
80133,8.737,-1.674,3.271,-0.116125,0.578979,0.805709,99949.72,-102,+154,+285
80143,9.015,-1.904,3.419,-0.411978,0.549713,0.738131,99948.05,-101,+150,+282
80153,9.380,-1.457,3.254,-0.666326,0.534282,0.655654,99948.05,-97,+151,+288
80163,9.494,-0.431,2.929,-0.716344,0.542263,0.594461,99949.95,-99,+144,+290
80174,9.365,0.005,2.701,-0.550858,0.558759,0.591800,99947.02,-99,+144,+290
80183,9.385,-0.697,2.419,-0.277354,0.568869,0.618406,99948.22,-97,+140,+287
80193,9.383,-1.078,2.372,0.019031,0.581107,0.644479,99944.50,-93,+142,+294
80203,9.280,-1.172,2.696,0.232939,0.601860,0.671617,99944.50,-94,+140,+293
80214,9.071,-1.743,3.366,0.261673,0.618355,0.689177,99947.35,-94,+140,+293
80223,8.806,-2.095,4.085,0.049894,0.613034,0.674810,99947.98,-92,+138,+290
80233,8.692,-1.724,4.201,-0.225739,0.589621,0.612021,99949.07,-89,+139,+296
80243,8.982,-1.224,3.903,-0.365684,0.561419,0.554021,99944.93,-90,+134,+296
80253,9.429,-0.865,3.589,-0.376858,0.536410,0.560406,99944.93,-90,+134,+296
80264,9.687,-0.819,3.166,-0.318858,0.532685,0.617342,99946.47,-88,+131,+293
80273,9.743,-1.392,2.785,-0.216693,0.565144,0.695562,99948.14,-84,+132,+301
80283,9.678,-1.888,2.994,-0.157097,0.613034,0.751966,99945.94,-86,+127,+299
80293,9.654,-1.807,3.310,-0.198602,0.650814,0.788149,99946.25,-86,+127,+299
80304,9.500,-1.533,3.661,-0.292253,0.679016,0.814754,99946.25,-84,+124,+298
80313,9.562,-1.229,3.896,-0.342271,0.700832,0.841892,99948.35,-79,+125,+304
80323,9.505,-1.423,4.027,-0.345464,0.722649,0.877543,99947.30,-81,+120,+304
80329,9.486,-1.688,4.034,-0.350253,0.741272,0.896167,99947.46,-81,+120,+304
80338,9.611,-2.002,3.898,-0.382179,0.758832,0.912663,99947.46,-77,+116,+302
80349,9.852,-2.277,3.891,-0.435390,0.784905,0.933947,99944.52,-73,+116,+309
80358,9.963,-2.264,3.814,-0.511482,0.808850,0.977580,99944.52,-73,+116,+309
80368,10.222,-2.195,3.894,-0.604601,0.838648,1.003121,99947.98,-73,+109,+309
80378,10.353,-1.874,3.903,-0.656748,0.860997,1.087195,99945.61,-69,+104,+308
80389,10.853,-1.996,3.496,-0.695592,0.882281,1.168607,99944.69,-65,+103,+316
80399,11.499,-2.261,3.193,-0.725922,0.907823,1.287268,99944.69,-65,+103,+316
80408,11.598,-1.855,3.049,-0.696124,0.950391,1.425084,99944.69,-65,+94,+314
80418,11.761,-1.990,3.022,-0.609922,0.970612,1.608662,99949.55,-60,+90,+313
80429,12.314,-2.739,3.054,-0.538088,0.977529,1.764038,99949.98,-55,+88,+320
80438,12.564,-2.798,3.149,-0.519464,0.990300,1.917818,99947.13,-55,+88,+320
80448,12.626,-2.421,3.163,-0.540216,1.015841,2.067341,99946.77,-55,+79,+316
80458,12.816,-1.983,3.328,-0.577464,1.048300,2.207818,99946.77,-49,+76,+315
80468,13.327,-1.533,3.693,-0.623757,1.086612,2.341910,99946.87,-44,+73,+322
80479,14.024,-1.259,3.545,-0.690803,1.139823,2.461634,99948.70,-44,+73,+322
80488,15.084,-1.046,3.404,-0.808399,1.185584,2.569653,99945.48,-41,+64,+318
80498,16.571,0.087,3.647,-0.943023,1.174410,2.681396,99945.48,-35,+58,+316
80508,18.101,1.420,3.901,-1.109041,1.193566,2.789946,99946.84,-27,+53,+322
80519,19.199,1.476,2.970,-1.492692,1.318611,2.813891,99947.73,-27,+53,+322
80528,20.680,3.189,1.645,-2.191885,1.431419,2.743120,99947.73,-25,+41,+316
80538,22.441,8.147,0.839,-2.948013,1.460685,2.695230,99947.37,-16,+30,+314
80548,22.261,11.324,1.269,-3.363590,1.470263,2.773451,99944.68,-8,+16,+319
80559,20.062,7.601,2.951,-3.222049,1.430354,2.955964,99944.68,-8,+16,+319
80568,17.827,-0.339,6.953,-2.351517,1.421309,3.260863,99946.98,-2,+0,+310
80578,17.647,-7.534,7.451,-1.560803,1.197290,3.678037,99946.14,+5,-3,+308
80588,18.145,-8.083,7.840,-1.020179,1.015841,3.781266,99945.72,+14,-6,+311
80599,18.271,-5.073,8.613,-0.571610,1.112153,3.411450,99945.20,+14,-6,+311
80609,16.358,-1.208,6.682,-0.383776,1.272318,3.104955,99945.59,+19,-10,+303
80619,12.355,3.238,4.170,-0.156033,1.117474,2.793671,99945.02,+28,-6,+299
80628,9.494,4.225,4.960,0.310627,0.631126,2.325414,99942.30,+34,-1,+303
80638,4.418,-4.652,7.000,0.734719,0.346447,1.905047,99944.81,+33,+1,+295
80649,7.356,-2.805,2.141,0.578811,0.016007,1.287800,99944.81,+33,+1,+295
80658,7.095,1.901,-0.207,0.160573,-0.088819,0.323085,99944.81,+35,+9,+292
80668,5.498,4.304,-0.233,0.000408,-0.305388,-0.340988,99949.65,+33,+13,+294
80678,4.952,3.101,-0.402,0.013710,-0.664030,-0.679410,99946.40,+29,+13,+285
80689,4.124,0.123,-0.843,0.158976,-0.977442,-0.981116,99946.15,+29,+13,+285
80699,3.541,-1.864,-0.497,0.246242,-1.229130,-1.296125,99944.99,+25,+21,+282
80708,3.502,-2.213,0.271,0.281361,-1.453680,-1.662216,99944.99,+20,+26,+283
80718,3.622,-1.611,0.694,0.323398,-1.644176,-2.095886,99946.00,+13,+28,+273
80729,3.905,-0.993,0.836,0.446315,-1.803277,-2.500821,99945.20,+13,+28,+273
80739,4.423,-0.558,0.644,0.679912,-1.927258,-2.849885,99940.23,+9,+37,+271
80748,5.102,-0.293,0.503,0.970444,-2.037937,-3.140949,99940.23,+3,+44,+271
80758,5.976,-0.555,0.922,1.246076,-2.165643,-3.374013,99940.23,-3,+50,+260
80769,6.421,-1.084,1.635,1.510535,-2.308249,-3.567169,99946.11,-3,+50,+260
80779,6.731,-1.675,2.396,1.667507,-2.440744,-3.773096,99940.66,-6,+62,+257
80788,7.143,-2.738,2.625,1.610572,-2.532267,-4.005628,99941.70,-12,+72,+255
80798,7.658,-2.903,2.709,1.446150,-2.644010,-4.275939,99940.75,-18,+76,+243
80808,8.346,-2.456,2.902,1.379636,-2.732872,-4.511132,99940.75,-18,+76,+243
80819,9.088,-2.680,3.086,1.348241,-2.816414,-4.706416,99942.94,-21,+88,+242
80829,9.812,-3.303,3.056,1.274278,-2.897826,-4.904893,99940.89,-27,+97,+237
80838,10.683,-3.980,2.853,1.123159,-2.962744,-5.116673,99940.98,-30,+103,+225
80848,11.740,-4.607,2.645,0.888499,-3.017551,-5.298122,99937.06,-30,+103,+225
80859,13.021,-5.009,2.734,0.652774,-3.045753,-5.447113,99942.77,-31,+115,+223
80869,13.947,-5.493,3.224,0.450040,-3.040964,-5.559920,99941.94,-33,+122,+219
80878,14.616,-5.417,4.409,0.227086,-3.010634,-5.682305,99941.94,-31,+125,+208
80888,15.338,-5.316,6.348,0.027545,-2.959551,-5.870672,99941.72,-31,+125,+208
80899,16.252,-6.077,8.042,-0.045886,-2.905808,-6.029773,99938.78,-26,+134,+210
80909,17.097,-6.992,8.848,-0.054932,-2.834505,-6.081920,99938.78,-25,+140,+207
80918,17.641,-7.460,8.848,-0.094840,-2.732872,-6.021259,99943.32,-22,+140,+200
80928,17.911,-7.767,8.538,-0.211904,-2.575900,-5.890360,99942.96,-22,+140,+200
80939,17.337,-7.704,8.422,-0.347060,-2.357735,-5.718489,99943.32,-16,+147,+203
80949,16.238,-7.707,8.679,-0.417831,-2.084231,-5.490746,99940.18,-13,+150,+203
80959,15.253,-8.600,8.986,-0.477959,-1.771350,-5.218306,99945.51,-11,+148,+198
80968,14.342,-10.637,9.164,-0.674840,-1.444102,-4.867114,99942.68,-11,+148,+198
80978,12.942,-13.067,9.112,-1.029757,-1.130690,-4.463774,99945.26,-3,+152,+205
80989,10.714,-14.675,9.182,-1.409683,-0.836965,-4.007224,99942.68,+0,+150,+206
80999,8.189,-15.240,9.266,-1.587940,-0.516635,-3.358582,99942.68,+2,+144,+204
81008,6.678,-16.140,9.178,-1.565592,-0.197369,-2.459849,99942.68,+2,+144,+204
81018,5.954,-16.422,8.872,-1.278252,0.074007,-1.375409,99947.25,+8,+141,+212
81029,5.645,-14.943,8.743,-0.715280,0.305474,-0.228713,99947.94,+9,+138,+213
81034,6.026,-13.796,8.856,-0.205519,0.468832,0.589672,99947.58,+9,+138,+213
81044,6.690,-12.924,9.177,0.313288,0.635383,1.295250,99945.22,+7,+133,+209
81053,7.342,-12.119,9.177,0.908187,0.860997,2.070002,99945.22,+11,+134,+215
81063,8.041,-11.245,8.878,1.375379,1.073841,2.664900,99949.53,+10,+136,+213
81074,14.005,0.930,1.535,1.664315,0.993492,2.779836,99944.13,+10,+136,+213
81084,20.573,29.112,-11.243,1.401985,0.840245,1.867800,99947.64,+9,+137,+207
81093,16.920,27.995,-9.150,0.776224,0.788098,0.841892,99949.31,+14,+140,+213
81103,5.727,-7.634,1.219,2.784406,1.148336,0.869030,99949.31,+14,+146,+208
81114,11.664,-19.467,6.828,4.018900,1.146208,2.644680,99948.41,+14,+146,+208
81124,18.871,-5.186,3.259,2.361379,0.937621,2.987359,99947.25,+12,+150,+202
81133,19.305,1.345,-0.759,0.836884,1.197823,1.979011,99951.98,+16,+154,+207
81143,16.264,-6.431,0.875,1.276939,1.338832,2.273268,99946.36,+14,+154,+205
81154,14.525,-7.068,2.186,1.206168,1.419180,2.722900,99946.36,+14,+154,+205
81164,9.809,-3.417,5.300,0.617655,1.605419,2.362662,99946.30,+14,+151,+202
81174,8.727,-1.171,6.661,0.317013,1.632556,1.898662,99949.28,+20,+154,+207
81183,9.531,-1.913,8.880,0.226554,1.595841,1.640057,99946.41,+19,+151,+206
81193,10.884,-2.817,8.738,0.344683,1.524538,1.565029,99946.45,+19,+151,+206
81204,12.985,-3.544,4.317,0.191435,1.314355,1.557048,99946.45,+22,+148,+205
81214,11.948,-5.344,2.822,-0.229464,1.186116,1.618772,99948.84,+25,+152,+211
81223,9.590,-3.619,3.249,-0.443904,1.100446,1.546937,99948.57,+23,+147,+209
81233,9.453,-2.579,3.171,-0.767427,0.954648,1.338350,99949.57,+23,+147,+209
81244,10.297,-2.498,2.973,-1.074986,0.835988,1.172332,99946.16,+24,+142,+210
81254,10.272,-1.328,2.781,-1.221849,0.756704,1.038241,99946.16,+28,+142,+215
81264,10.164,-0.633,2.583,-1.172362,0.692318,0.905745,99948.13,+25,+135,+214
81269,10.197,0.076,2.411,-1.003684,0.662520,0.823800,99947.09,+25,+135,+214
81278,10.270,0.429,2.362,-0.764234,0.652942,0.774314,99947.09,+27,+131,+213
81289,10.284,0.278,2.449,-0.422088,0.658263,0.750369,99947.35,+31,+134,+219
81299,10.156,-0.259,2.606,-0.223079,0.667309,0.737066,99948.24,+31,+134,+219
81309,9.877,-0.629,2.585,-0.169335,0.660392,0.733874,99948.24,+29,+130,+216
81318,9.549,-0.463,2.562,-0.173592,0.656135,0.710461,99949.73,+31,+128,+215
81329,9.104,-0.355,2.821,-0.211372,0.647621,0.659911,99946.56,+34,+131,+221
81339,8.912,-0.682,3.309,-0.310877,0.611970,0.583819,99945.73,+34,+131,+221
81349,9.045,-0.378,3.715,-0.477959,0.556098,0.507195,99945.73,+31,+126,+217
81358,8.970,0.392,3.910,-0.650363,0.503951,0.454516,99945.73,+34,+124,+218
81369,8.810,0.860,3.666,-0.730711,0.467236,0.429507,99949.62,+37,+126,+222
81379,8.953,0.762,3.268,-0.680161,0.458190,0.433232,99947.41,+37,+126,+222
81389,9.187,0.547,2.980,-0.534363,0.472025,0.468883,99948.30,+34,+120,+220
81398,9.281,0.240,2.847,-0.344932,0.495970,0.528479,99947.79,+38,+118,+220
81409,9.283,-0.326,2.817,-0.199666,0.520979,0.604039,99947.79,+40,+120,+225
81419,9.207,-0.728,2.965,-0.161886,0.539603,0.681727,99951.41,+40,+120,+225
81429,9.180,-0.805,3.260,-0.214033,0.556098,0.725892,99948.11,+38,+116,+221
81439,9.249,-0.722,3.425,-0.285868,0.569933,0.742388,99946.38,+41,+116,+221
81448,9.323,-0.399,3.213,-0.346528,0.577915,0.760479,99946.38,+43,+117,+226
81459,9.524,-0.179,2.998,-0.331097,0.596006,0.799855,99947.52,+43,+117,+226
81469,9.605,-0.481,2.926,-0.249684,0.610905,0.876479,99947.52,+42,+112,+222
81479,9.577,-0.736,3.004,-0.169868,0.638575,0.961085,99945.43,+44,+112,+223
81488,9.484,-0.677,3.255,-0.151244,0.679548,1.028663,99948.46,+46,+114,+227
81499,9.438,-0.519,3.521,-0.167739,0.708282,1.097837,99946.48,+46,+114,+227
81509,9.477,-0.690,3.613,-0.187959,0.732226,1.154773,99946.48,+44,+110,+223
81519,9.381,-0.819,3.573,-0.207115,0.773731,1.212773,99949.75,+48,+110,+224
81529,9.470,-1.046,3.702,-0.238510,0.805126,1.259598,99946.97,+50,+112,+228
81539,9.666,-1.462,3.664,-0.273629,0.823749,1.313873,99950.28,+50,+112,+228
81549,9.896,-1.602,3.807,-0.305023,0.850887,1.362828,99948.27,+47,+106,+225
81559,10.171,-1.868,3.941,-0.345996,0.883346,1.404864,99948.90,+53,+106,+226
81569,10.224,-2.050,4.009,-0.405592,0.915804,1.438919,99947.38,+56,+106,+230
81579,10.235,-2.202,4.137,-0.477959,0.939749,1.471378,99947.38,+54,+106,+227
81589,10.279,-2.249,3.945,-0.534895,0.958905,1.535231,99946.54,+54,+100,+227
81599,10.786,-2.777,3.635,-0.602473,0.967951,1.575671,99945.91,+59,+101,+229
81609,11.452,-2.884,3.456,-0.628014,0.980722,1.633671,99945.91,+60,+101,+232
81618,11.826,-2.797,3.151,-0.613647,1.013180,1.709763,99946.91,+60,+94,+228
81629,12.125,-2.827,3.037,-0.561500,1.041382,1.804479,99946.43,+60,+94,+228
81639,12.210,-2.699,3.107,-0.519464,1.057346,1.935910,99946.70,+65,+94,+231
81649,12.076,-2.623,3.396,-0.508289,1.092997,2.065745,99946.43,+67,+94,+233
81659,11.937,-2.475,3.579,-0.531170,1.128648,2.187066,99946.43,+67,+88,+231
81669,11.943,-2.055,3.828,-0.613115,1.160043,2.302001,99948.98,+67,+88,+231
81679,12.794,-1.635,4.143,-0.744546,1.174410,2.399377,99947.17,+73,+89,+233
81689,14.597,-1.613,4.048,-0.884491,1.179731,2.470148,99944.28,+75,+86,+236
81698,16.655,-1.310,3.834,-1.071794,1.187180,2.546772,99944.28,+74,+78,+233
81709,18.569,-0.252,3.257,-1.369243,1.223364,2.622331,99944.28,+74,+78,+233
81719,20.236,0.811,2.056,-1.790674,1.294134,2.635102,99947.34,+81,+75,+238
81729,22.187,2.011,0.338,-2.351517,1.335639,2.582423,99947.77,+82,+69,+241
81739,24.622,6.103,-0.946,-2.978520,1.324110,2.518393,99946.67,+84,+55,+238
81748,24.561,9.101,-0.170,-3.417866,1.367033,2.557946,99946.67,+84,+55,+238
81759,20.877,8.831,2.483,-3.474801,1.386189,2.746313,99946.67,+91,+46,+243
81769,17.064,2.783,7.806,-2.627682,1.304245,2.988423,99946.60,+93,+34,+246
81779,17.579,-5.823,8.678,-1.299005,0.995621,3.384313,99946.02,+95,+26,+243
81789,18.375,-11.412,9.096,-0.837133,0.796080,3.757854,99945.02,+95,+26,+243
81799,19.310,-8.062,8.857,-0.615243,0.858869,3.686551,99945.02,+100,+28,+247
81809,18.410,0.113,6.166,-0.115592,1.023291,3.487542,99946.36,+101,+27,+250
81819,14.914,6.228,4.121,0.588921,0.949327,3.305028,99946.36,+102,+27,+246
81829,8.988,4.096,4.731,1.015673,0.606116,2.814423,99945.25,+102,+27,+246
81839,3.896,-2.680,5.628,1.247141,0.333144,2.253047,99946.92,+106,+37,+251
81849,5.383,-2.397,3.776,0.965655,0.065493,1.526185,99945.67,+103,+38,+253
81859,6.609,0.068,0.328,0.274444,-0.101057,0.633837,99945.67,+101,+37,+249
81869,5.332,2.843,-0.900,-0.134216,-0.238874,-0.157410,99949.48,+101,+37,+249
81880,4.587,3.956,-1.031,-0.416234,-0.467681,-0.705483,99946.91,+103,+39,+254
81889,3.530,2.990,-0.834,-0.469445,-0.756617,-1.098712,99944.07,+98,+34,+256
81899,2.641,1.075,-0.068,-0.421556,-1.009901,-1.421703,99942.97,+93,+28,+255
81909,2.487,-0.255,0.447,-0.314069,-1.216892,-1.736712,99947.80,+93,+28,+255
81920,2.602,-0.512,0.866,-0.184235,-1.358965,-2.102803,99943.70,+92,+29,+261
81929,2.986,-0.139,1.095,-0.067170,-1.502102,-2.484326,99943.75,+82,+23,+263
81939,3.704,0.158,1.127,0.052022,-1.664396,-2.832858,99943.75,+75,+18,+263
81949,4.394,0.044,1.220,0.196224,-1.810726,-3.143610,99941.55,+75,+18,+263
81958,5.048,-0.172,1.435,0.368095,-1.935240,-3.422436,99941.55,+71,+20,+271
81969,5.496,-0.556,1.649,0.535710,-2.040598,-3.675188,99940.26,+57,+16,+275
81975,5.818,-0.750,1.671,0.657563,-2.116157,-3.844931,99939.41,+57,+16,+275
81984,6.222,-0.864,1.765,0.786334,-2.185863,-4.009885,99940.05,+46,+15,+276
81994,6.949,-1.205,1.981,0.970976,-2.269405,-4.238692,99940.10,+36,+19,+285
82003,7.763,-1.697,2.445,1.108792,-2.348157,-4.447811,99940.10,+17,+19,+289
82014,8.484,-1.915,2.782,1.228517,-2.418396,-4.645756,99939.19,+17,+19,+289
82024,9.086,-2.113,3.492,1.335471,-2.475331,-4.840508,99941.48,+2,+25,+290
82034,9.948,-2.250,3.988,1.430186,-2.549827,-5.023554,99940.86,-9,+38,+298
82044,10.984,-2.644,4.197,1.484462,-2.630175,-5.195957,99940.28,-31,+47,+299
82054,12.463,-2.956,4.171,1.448278,-2.714248,-5.384856,99940.28,-31,+47,+299
82064,14.342,-3.316,4.113,1.308865,-2.779698,-5.555664,99943.55,-46,+61,+297
82074,15.730,-4.157,4.128,1.174242,-2.813221,-5.661553,99943.73,-55,+78,+301
82084,16.362,-4.899,4.815,1.060902,-2.805239,-5.707314,99943.55,-75,+92,+298
82094,17.240,-5.634,6.493,0.875196,-2.791937,-5.762122,99940.73,-75,+92,+298
82104,18.082,-7.008,8.126,0.616591,-2.789808,-5.791920,99940.73,-85,+110,+295
82114,18.386,-7.997,9.424,0.453765,-2.751496,-5.740305,99943.31,-90,+130,+296
82124,18.440,-8.924,10.020,0.418646,-2.661037,-5.656232,99942.73,-102,+148,+290
82135,18.318,-9.649,9.804,0.295728,-2.513643,-5.543957,99942.84,-102,+148,+290
82144,17.647,-9.302,9.166,0.105765,-2.298671,-5.366232,99940.59,-101,+166,+283
82154,15.295,-10.085,10.023,-0.126235,-1.925130,-5.156581,99940.59,-95,+182,+283
82164,12.512,-11.732,9.649,-0.368345,-1.594157,-4.766013,99944.24,-95,+196,+278
82174,11.444,-13.683,9.170,-0.642381,-1.262121,-4.380765,99944.71,-95,+196,+278
82184,10.776,-13.501,8.950,-0.923335,-0.907204,-4.019463,99946.40,-84,+204,+275
82194,9.687,-13.525,8.922,-1.057427,-0.563461,-3.490546,99943.66,-73,+210,+281
82204,7.717,-15.206,8.881,-0.961115,-0.275057,-2.646087,99943.66,-71,+215,+279
82209,6.366,-16.456,8.852,-0.808931,-0.086690,-1.897409,99944.50,-71,+215,+279
82219,5.565,-16.529,8.996,-0.581188,0.096887,-1.107226,99944.50,-61,+215,+281
82229,5.449,-15.206,9.412,-0.128895,0.336337,-0.073869,99946.70,-57,+217,+288
82239,6.709,-13.194,9.426,0.439398,0.559823,0.848277,99944.45,-57,+217,+288
82249,8.294,-9.373,9.138,1.013544,0.775859,1.474038,99944.56,-61,+224,+286
82259,10.029,-5.924,6.673,1.632388,0.945070,1.959855,99946.82,-55,+228,+288
82270,18.421,11.010,-8.421,1.722847,0.663052,2.004552,99948.18,-53,+236,+293
82279,17.603,10.730,-7.408,0.915636,0.802465,1.632607,99949.23,-53,+236,+293
82289,9.618,-5.492,0.720,2.036792,1.154722,1.855029,99949.23,-57,+241,+289
82299,17.872,-7.706,1.810,2.262406,1.189309,2.696295,99945.60,-51,+249,+287
82309,23.422,-9.563,-0.974,0.531453,1.179731,2.717047,99945.60,-53,+250,+294
82319,16.995,-8.575,1.372,-0.433262,1.446850,2.629249,99948.65,-53,+250,+294
82325,13.197,-4.020,4.973,-0.453482,1.571364,2.794735,99945.45,-61,+246,+295
82334,11.680,1.302,7.405,-0.118785,1.625107,2.780368,99943.20,-56,+241,+297
82344,9.705,3.599,11.033,0.503251,1.706519,2.498350,99943.04,-56,+241,+297
82354,8.436,0.323,11.331,1.172645,1.736318,2.309983,99943.04,-54,+244,+301
82364,9.136,-4.107,5.563,1.222131,1.498997,2.216332,99946.51,-58,+245,+297
82374,9.688,-5.373,4.201,0.902866,1.365437,2.158332,99946.46,-52,+246,+298
82384,10.310,-3.861,3.821,0.734719,1.281364,2.030625,99947.93,-52,+246,+298
82395,10.332,-5.659,2.490,0.326059,1.095125,1.853433,99946.98,-51,+248,+301
82404,10.580,-6.546,2.402,-0.259262,1.005731,1.723066,99946.98,-56,+244,+300
82414,10.826,-3.700,2.945,-0.802546,0.966887,1.518736,99951.16,-50,+239,+305
82424,10.079,-1.760,3.029,-1.177684,0.870043,1.311213,99946.80,-50,+239,+305
82435,9.748,-0.862,2.843,-1.244729,0.756704,1.150516,99947.07,-51,+233,+313
82445,9.845,-0.491,2.834,-0.993751,0.688416,0.978822,99946.91,-58,+225,+313
82454,10.076,0.019,2.636,-0.606730,0.661456,0.840828,99946.91,-50,+223,+315
82464,10.331,0.116,2.844,-0.183170,0.656667,0.792938,99948.53,-50,+223,+315
82475,10.106,-0.362,3.315,0.080224,0.643364,0.817415,99946.95,-51,+223,+320
82484,9.709,-1.083,3.120,0.159508,0.606649,0.811030,99947.53,-55,+221,+316
82494,9.456,-1.469,2.809,0.140352,0.578447,0.749305,99948.48,-46,+221,+318
82504,9.168,-1.468,2.874,0.070114,0.552906,0.683323,99948.48,-46,+221,+318
82514,9.009,-1.496,3.210,-0.068235,0.520447,0.614149,99949.72,-48,+221,+321
82525,9.098,-1.190,3.419,-0.280546,0.489584,0.548700,99947.89,-52,+217,+318
82534,9.228,-0.812,3.359,-0.508822,0.475217,0.493360,99948.47,-44,+217,+321
82544,9.240,-0.508,3.224,-0.640785,0.473621,0.453984,99945.42,-44,+217,+321
82554,9.268,-0.185,2.870,-0.642381,0.485860,0.433232,99945.42,-46,+213,+326
82565,9.338,-0.187,2.494,-0.517335,0.516190,0.425250,99947.95,-49,+208,+323
82574,9.264,-0.226,2.398,-0.300234,0.545988,0.442278,99947.41,-40,+209,+326
82584,9.221,-0.294,2.621,-0.067170,0.570465,0.490168,99945.32,-40,+209,+326
82594,9.189,-0.489,3.097,0.078628,0.597071,0.545507,99945.27,-42,+207,+329
82605,9.147,-1.253,3.741,0.039252,0.605052,0.584883,99945.27,-44,+206,+327
82615,9.132,-1.642,3.869,-0.114528,0.594942,0.584883,99949.36,-35,+207,+329
82624,9.116,-1.451,3.913,-0.282675,0.576850,0.567856,99945.84,-35,+207,+329
82634,9.304,-1.056,3.686,-0.373134,0.564080,0.555085,99947.47,-38,+205,+333
82644,9.583,-0.835,3.260,-0.376326,0.562483,0.559874,99945.47,-40,+200,+331
82655,9.853,-0.941,3.169,-0.296510,0.573126,0.597654,99945.47,-31,+201,+334
82664,9.865,-1.302,3.170,-0.218822,0.589621,0.655122,99946.55,-31,+201,+334
82674,9.757,-1.550,3.309,-0.191684,0.623676,0.704608,99948.80,-34,+199,+337
82680,9.751,-1.664,3.558,-0.231060,0.644428,0.736534,99947.96,-35,+195,+334
82690,9.610,-1.547,3.581,-0.294913,0.667309,0.763140,99947.96,-35,+195,+334
82700,9.337,-1.182,3.672,-0.367280,0.706153,0.801452,99947.29,-26,+195,+338
82709,9.450,-1.043,3.782,-0.460932,0.723713,0.835507,99947.29,-30,+192,+340
82719,9.596,-1.080,3.712,-0.505629,0.744465,0.884993,99947.81,-30,+186,+338
82729,9.855,-1.254,3.652,-0.548730,0.774263,0.953103,99945.33,-30,+186,+338
82740,9.940,-1.158,3.679,-0.591299,0.807786,1.046222,99946.31,-20,+186,+341
82749,9.883,-0.786,3.885,-0.621629,0.834924,1.157965,99946.31,-24,+180,+345
82759,10.264,-0.983,4.024,-0.651959,0.851419,1.273965,99946.31,-24,+175,+343
82769,10.523,-0.998,4.123,-0.669519,0.874832,1.405928,99946.05,-24,+175,+343
82780,11.140,-1.601,3.790,-0.680161,0.875896,1.547470,99949.52,-14,+173,+346
82789,11.814,-2.282,3.441,-0.664198,0.891859,1.671983,99945.01,-20,+165,+349
82799,12.191,-2.291,3.330,-0.644509,0.921125,1.796497,99946.48,-18,+159,+345
82809,12.530,-2.376,3.360,-0.618968,0.938685,1.930056,99946.48,-18,+159,+345
82820,12.891,-2.510,3.339,-0.610987,0.963162,2.052442,99948.83,-11,+157,+348
82830,12.737,-2.429,3.423,-0.659409,0.998814,2.191323,99948.19,-15,+148,+348
82839,12.580,-1.860,3.660,-0.726987,1.015309,2.345634,99945.05,-13,+141,+343
82849,13.417,-1.690,3.775,-0.787647,1.020098,2.468552,99945.05,-13,+141,+343
82860,14.894,-1.684,3.789,-0.855225,1.016905,2.566992,99947.96,-6,+138,+345
82870,16.380,-0.617,3.767,-0.996766,1.016373,2.687781,99949.85,-11,+126,+344
82879,17.646,0.743,3.360,-1.247922,1.096722,2.806441,99949.85,-9,+117,+338
82889,19.141,1.516,2.494,-1.585280,1.196758,2.859652,99944.93,-9,+117,+338
82899,21.190,3.757,2.021,-1.901353,1.200483,2.864974,99946.65,+0,+109,+337
82910,22.714,5.543,0.666,-2.301499,1.218043,2.870295,99946.65,-1,+91,+334
82919,23.147,6.660,-1.294,-2.757517,1.311694,2.814423,99949.83,+4,+78,+326
82929,21.998,8.649,-0.141,-3.228966,1.401621,2.802185,99946.84,+16,+78,+326
82939,17.961,6.709,4.014,-3.220453,1.368630,2.881469,99944.06,+16,+65,+321
82950,15.151,-2.212,8.058,-2.290857,1.172281,3.145395,99946.00,+18,+47,+314
82960,16.032,-9.699,7.862,-1.414472,0.801933,3.664202,99947.36,+28,+42,+303
82969,17.974,-8.153,9.112,-0.763702,0.756704,3.752532,99946.84,+42,+42,+297
82979,18.191,-2.798,9.359,0.130774,1.133969,3.348129,99945.22,+42,+42,+297
82990,15.740,0.565,6.748,0.596903,1.235602,3.145927,99945.22,+50,+38,+289
83000,11.509,2.731,5.424,0.609141,0.800337,2.780900,99942.59,+63,+42,+281
83009,6.270,3.331,3.055,0.779948,0.379970,2.072662,99942.59,+73,+45,+278
83019,3.180,-2.893,4.695,1.082187,0.249071,1.611323,99947.30,+73,+45,+278
83030,7.219,-0.867,1.289,0.914572,-0.036140,1.132956,99945.20,+77,+41,+276
83040,7.260,1.762,-1.653,0.452169,-0.219718,0.330535,99947.98,+82,+42,+273
83050,5.414,3.412,-1.385,0.223894,-0.358599,-0.297355,99943.31,+87,+40,+276
83059,4.826,2.796,-0.446,0.156848,-0.627314,-0.620346,99943.31,+87,+40,+276
83069,3.935,1.174,0.167,0.317545,-0.886451,-0.900767,99946.13,+83,+29,+279
83080,3.104,-0.550,0.358,0.587857,-1.095571,-1.246107,99945.59,+81,+29,+281
83090,2.955,-1.620,0.817,0.752811,-1.285002,-1.630822,99945.71,+75,+28,+287
83099,3.326,-1.633,0.910,0.751746,-1.472304,-2.035225,99945.71,+75,+28,+287
83109,4.051,-1.080,0.674,0.708113,-1.677699,-2.419409,99945.71,+62,+19,+291
83120,4.941,-0.625,0.548,0.755471,-1.871919,-2.765280,99944.05,+50,+21,+293
83130,5.673,-0.689,0.614,0.867214,-2.044854,-3.053151,99942.47,+35,+25,+300
83139,6.109,-0.898,0.893,0.986939,-2.206616,-3.285151,99939.64,+35,+25,+300
83149,6.241,-1.074,1.164,1.108792,-2.355607,-3.497463,99941.58,+13,+23,+303
83160,6.494,-1.320,1.493,1.229049,-2.487570,-3.720949,99941.58,-4,+35,+299
83170,6.961,-1.778,1.771,1.338131,-2.623790,-3.922619,99943.52,-22,+49,+299
83180,7.655,-2.328,2.053,1.401452,-2.755221,-4.114710,99941.78,-22,+49,+299
83189,8.480,-2.549,2.381,1.404645,-2.879735,-4.303077,99945.39,-44,+58,+291
83200,9.378,-2.524,2.616,1.365801,-3.000524,-4.505279,99941.14,-57,+80,+282
83210,10.289,-2.943,2.842,1.271618,-3.114927,-4.715462,99946.53,-68,+101,+273
83220,11.197,-3.304,3.070,1.108260,-3.224542,-4.924581,99943.19,-68,+101,+273
83229,12.362,-3.665,3.412,0.865086,-3.308615,-5.132104,99943.19,-79,+116,+259
83239,13.405,-4.194,3.879,0.693747,-3.336817,-5.315682,99942.08,-78,+138,+246
83250,14.115,-4.715,4.310,0.646921,-3.340542,-5.455627,99942.77,-75,+158,+235
83260,14.865,-5.250,5.345,0.591581,-3.347459,-5.584929,99942.77,-75,+158,+235
83265,15.639,-5.624,6.381,0.537306,-3.365551,-5.680709,99943.93,-71,+171,+220
83274,16.513,-6.222,7.349,0.493673,-3.374597,-5.745626,99943.40,-57,+187,+211
83284,17.595,-7.012,8.444,0.437270,-3.362890,-5.754673,99941.77,-57,+187,+211
83295,18.246,-7.559,8.874,0.323930,-3.300633,-5.654104,99942.35,-42,+200,+204
83305,18.362,-7.340,9.168,0.164297,-3.129826,-5.525865,99942.35,-33,+201,+197
83314,17.753,-6.755,9.780,0.037655,-2.854726,-5.386453,99943.26,-16,+207,+197
83324,16.309,-6.491,10.587,-0.029391,-2.497680,-5.206599,99944.52,-16,+207,+197
83335,14.911,-7.243,11.186,-0.130491,-2.071460,-4.999609,99940.01,-2,+208,+198
83345,14.081,-9.975,11.187,-0.395482,-1.606928,-4.774526,99941.59,+4,+203,+198
83354,12.691,-13.669,10.354,-0.965904,-1.181240,-4.491976,99941.59,+16,+200,+204
83364,10.318,-15.825,9.369,-1.612949,-0.805039,-4.057242,99947.20,+16,+200,+204
83375,7.769,-16.997,9.126,-2.008307,-0.480984,-3.374013,99946.31,+25,+193,+210
83385,5.825,-17.669,9.745,-2.092380,-0.221846,-2.433243,99945.94,+26,+184,+214
83394,5.028,-16.549,10.757,-1.891243,0.033034,-1.331244,99942.69,+34,+177,+220
83404,5.057,-13.449,11.488,-1.324546,0.321970,-0.214878,99942.69,+34,+177,+220
83415,6.057,-11.047,11.248,-0.471574,0.599199,0.767929,99948.84,+36,+172,+225
83425,6.751,-11.172,10.351,0.343086,0.858337,1.602277,99945.08,+32,+168,+223
83435,9.099,-9.744,7.787,0.872535,1.027015,2.222717,99945.97,+36,+172,+225
83444,14.286,2.881,-1.104,1.021526,0.913144,2.138112,99946.70,+36,+172,+225
83454,21.671,26.641,-14.916,0.809214,0.561951,1.463396,99946.70,+38,+174,+226
83465,15.238,12.011,-8.761,0.130242,0.657199,0.767397,99949.30,+36,+170,+224
83475,7.558,-11.153,1.774,2.305507,1.099914,1.336754,99950.13,+41,+178,+225
83484,15.882,-10.649,1.972,2.780681,1.019566,2.790478,99947.61,+41,+178,+225
83494,20.850,-2.085,-1.830,1.138058,1.049896,2.461634,99948.81,+40,+182,+223
83505,15.901,-5.891,0.213,0.336169,1.345749,2.082240,99948.81,+37,+178,+222
83515,14.651,-7.291,4.897,0.575086,1.525602,2.461102,99948.40,+42,+182,+225
83525,15.271,-2.620,7.608,0.445251,1.652244,2.365322,99947.46,+42,+182,+225
83534,11.723,2.760,14.241,0.790591,1.896483,2.153011,99943.95,+42,+180,+225
83545,10.321,4.811,8.856,1.477012,1.877327,2.164717,99948.20,+41,+181,+222
83555,8.089,-1.906,4.445,1.546718,1.677786,2.190790,99948.20,+47,+189,+222
83565,6.498,-4.591,5.469,1.510003,1.597437,2.226442,99949.24,+47,+189,+222
83574,7.993,-2.317,4.620,1.255654,1.358520,1.996570,99948.98,+46,+191,+220
83585,10.090,-5.539,3.357,0.607545,1.067456,1.673580,99946.51,+45,+190,+218
83595,12.156,-6.002,2.598,-0.007042,0.895052,1.570350,99947.13,+47,+194,+220
83605,12.383,-3.945,2.224,-0.663665,0.805126,1.469782,99947.13,+47,+194,+220
83615,10.671,-2.025,2.187,-1.026564,0.746061,1.323984,99948.04,+46,+189,+221
83624,9.829,-1.080,1.986,-1.027097,0.692318,1.167543,99947.79,+43,+183,+223
83635,9.814,-0.744,1.808,-0.758381,0.686465,1.002589,99948.93,+48,+185,+227
83645,10.412,0.445,1.735,-0.278950,0.728502,0.881268,99948.26,+48,+185,+227
83654,10.659,0.618,2.125,0.190371,0.799804,0.886057,99948.26,+46,+182,+227
83664,10.079,-0.159,2.617,0.440994,0.842373,0.957892,99952.05,+46,+181,+225
83675,9.568,-0.743,2.803,0.477710,0.836520,0.958424,99949.59,+50,+186,+227
83685,9.301,-0.941,2.751,0.420774,0.806722,0.905213,99947.80,+49,+185,+223
83695,8.869,-1.183,2.896,0.323930,0.764685,0.860516,99946.34,+49,+185,+223
83704,8.721,-1.632,3.257,0.108426,0.710942,0.775910,99946.34,+48,+184,+224
83715,8.916,-1.260,3.666,-0.230528,0.649749,0.673745,99949.03,+53,+187,+226
83725,8.949,-0.496,3.643,-0.579592,0.605584,0.597654,99950.19,+51,+183,+225
83735,9.113,-0.063,3.139,-0.780198,0.583413,0.535042,99948.14,+51,+183,+225
83744,9.296,0.137,2.690,-0.725922,0.599731,0.508259,99946.72,+51,+179,+228
83755,9.487,0.172,2.471,-0.501904,0.635915,0.526351,99946.72,+55,+182,+230
83765,9.523,0.111,2.551,-0.218290,0.677419,0.590204,99948.48,+55,+178,+229
83775,9.411,-0.142,2.774,0.004132,0.722649,0.687048,99948.58,+55,+178,+229
83785,9.397,-1.098,3.502,0.020628,0.739144,0.771654,99947.95,+54,+177,+230
83794,9.270,-1.614,4.124,-0.158161,0.725841,0.796663,99944.59,+58,+180,+230
83805,9.026,-1.359,4.372,-0.393354,0.701364,0.756755,99944.59,+57,+175,+230
83815,9.086,-1.089,4.230,-0.558840,0.663052,0.706204,99948.75,+57,+175,+230
83825,9.562,-0.922,3.807,-0.641317,0.627401,0.684388,99948.39,+57,+174,+232
83834,9.925,-0.941,3.109,-0.627482,0.617823,0.708865,99946.86,+61,+174,+234
83845,9.926,-1.403,2.838,-0.533299,0.650814,0.765268,99946.61,+59,+170,+233
83855,9.786,-1.940,3.056,-0.489666,0.694447,0.810498,99946.61,+59,+170,+233
83865,9.623,-1.424,3.409,-0.510418,0.726905,0.826461,99947.62,+59,+168,+236
83874,9.683,-0.759,4.026,-0.498179,0.739676,0.836571,99950.13,+64,+170,+237
83885,9.738,-1.409,4.188,-0.471574,0.745529,0.852534,99948.88,+62,+164,+236
83895,9.626,-2.299,4.009,-0.518932,0.769474,0.857323,99947.57,+62,+164,+236
83905,9.390,-2.038,4.051,-0.636528,0.788098,0.862112,99947.57,+62,+163,+238
83915,9.636,-1.527,4.069,-0.725922,0.800869,0.875415,99947.83,+68,+164,+239
83924,9.817,-1.083,3.996,-0.749335,0.826410,0.912131,99947.30,+66,+156,+240
83935,10.024,-0.877,3.971,-0.730711,0.848759,1.014828,99948.92,+66,+156,+240
83945,9.905,-0.892,3.997,-0.702509,0.873768,1.121782,99947.30,+67,+156,+241
83955,10.364,-1.587,3.516,-0.702509,0.893988,1.257470,99947.30,+70,+156,+242
83964,11.139,-2.201,3.208,-0.714216,0.915272,1.375598,99949.16,+68,+148,+243
83971,11.624,-2.179,3.067,-0.719537,0.938153,1.455947,99946.70,+68,+148,+243
83980,11.709,-2.153,2.945,-0.690803,0.955180,1.562369,99946.70,+70,+148,+245
83990,12.025,-2.309,2.903,-0.637592,0.978061,1.714552,99946.95,+73,+149,+245
84000,12.181,-2.240,3.099,-0.589170,1.007327,1.880038,99946.59,+73,+149,+245
84009,12.422,-2.016,3.392,-0.573739,1.037657,2.039671,99946.59,+71,+141,+245
84020,12.958,-2.159,3.623,-0.598216,1.076501,2.167910,99950.53,+72,+142,+246
84030,13.410,-2.213,3.633,-0.672179,1.114813,2.280185,99948.81,+75,+141,+248
84040,13.765,-1.826,3.471,-0.798821,1.155786,2.402038,99945.56,+75,+141,+248
84049,14.540,-1.302,3.363,-0.929188,1.176006,2.518038,99945.56,+73,+133,+248
84060,16.216,-0.477,3.310,-1.043592,1.157914,2.637230,99945.56,+73,+132,+250
84070,18.074,0.464,2.846,-1.273463,1.230813,2.742056,99946.84,+77,+129,+251
84080,19.711,0.970,1.809,-1.731078,1.384593,2.728753,99946.30,+77,+129,+251
84090,21.498,2.568,0.603,-2.383976,1.454299,2.622864,99947.66,+77,+116,+253
84100,23.191,5.032,-0.747,-3.155535,1.494740,2.517506,99945.52,+79,+107,+257
84110,23.517,7.301,-1.609,-3.828654,1.537841,2.421194,99945.52,+84,+94,+260
84120,21.472,9.570,0.959,-4.078746,1.546887,2.470148,99949.66,+84,+94,+260
84130,18.151,5.262,5.747,-3.269407,1.455896,2.766001,99946.36,+86,+73,+260
84141,17.841,-2.848,8.319,-1.478858,1.237731,3.257670,99942.73,+90,+67,+263
84150,18.797,-7.656,7.597,-0.247556,1.000942,3.706239,99942.73,+93,+67,+263
84160,18.215,-7.085,7.457,-0.009170,1.015309,3.676973,99946.30,+93,+67,+263
84170,17.506,-2.979,6.296,-0.014492,1.076501,3.416771,99946.30,+96,+61,+261
84179,14.996,2.880,5.157,0.319673,1.136098,3.119854,99947.66,+99,+63,+262
84190,11.329,5.983,3.540,0.336169,0.838116,2.751102,99947.97,+101,+64,+263
84200,6.014,3.272,5.400,0.645857,0.326227,2.195579,99944.77,+101,+64,+263
84210,2.688,-4.751,8.664,1.223728,0.249603,1.704442,99944.77,+100,+59,+260
84220,6.826,-0.931,3.803,0.959269,-0.107443,0.902553,99945.61,+99,+65,+261
84230,5.881,2.354,1.352,0.432481,-0.180874,-0.160603,99943.88,+98,+65,+261
84240,4.158,4.011,0.963,0.261673,-0.337846,-0.799134,99945.03,+98,+65,+261
84250,3.872,2.972,0.265,0.259545,-0.651791,-1.060932,99947.20,+95,+57,+260
84260,3.376,0.015,-0.481,0.368095,-0.960947,-1.297721,99947.78,+92,+59,+263
84271,3.095,-1.960,-0.573,0.426627,-1.243497,-1.571226,99946.16,+89,+58,+263
84280,3.179,-2.166,-0.005,0.354261,-1.482946,-1.931464,99946.16,+89,+58,+263
84290,3.514,-1.149,0.551,0.233472,-1.682488,-2.350766,99947.38,+83,+50,+262
84300,3.925,-0.131,0.999,0.213784,-1.857020,-2.777518,99943.22,+79,+51,+266
84310,4.447,0.035,1.192,0.344150,-2.012928,-3.160637,99943.22,+73,+47,+268
84320,5.062,-0.635,1.318,0.519747,-2.151809,-3.449041,99942.76,+64,+47,+268
84330,5.544,-1.327,1.702,0.693747,-2.279515,-3.652307,99943.49,+64,+39,+269
84340,5.888,-1.569,2.159,0.892223,-2.395515,-3.826839,99942.02,+56,+40,+275
84350,6.125,-1.836,2.709,1.042810,-2.478524,-4.010949,99937.87,+46,+36,+279
84360,6.512,-2.338,2.836,1.017801,-2.546634,-4.247737,99937.87,+30,+31,+283
84370,7.051,-2.019,2.779,0.933196,-2.647203,-4.547848,99941.59,+30,+31,+283
84380,7.873,-1.636,2.946,0.982150,-2.712120,-4.820288,99939.53,+13,+35,+289
84390,8.940,-1.708,3.383,1.071544,-2.757349,-5.051223,99937.95,-6,+35,+294
84400,10.186,-2.249,3.818,1.063031,-2.808432,-5.260343,99937.95,-29,+38,+295
84410,11.261,-2.793,3.964,0.945967,-2.867496,-5.466801,99937.95,-29,+38,+295
84420,12.647,-3.035,3.995,0.725141,-2.928689,-5.680177,99942.30,-50,+52,+298
84430,14.061,-3.799,4.115,0.472389,-2.954762,-5.853645,99940.48,-73,+62,+295
84441,14.783,-5.178,4.375,0.304597,-2.942346,-5.960244,99940.37,-93,+77,+289
84450,15.487,-5.730,5.179,0.257417,-2.911129,-6.061700,99940.37,-93,+77,+289
84460,17.164,-6.109,6.412,0.141949,-2.906340,-6.189406,99940.37,-104,+96,+284
84470,18.779,-6.473,7.495,0.110022,-2.914854,-6.245810,99943.16,-117,+114,+275
84481,19.679,-6.543,8.678,0.228683,-2.876542,-6.213883,99939.75,-125,+132,+264
84490,20.277,-7.284,9.454,0.250499,-2.790872,-6.101076,99940.09,-125,+132,+264
84500,19.345,-7.664,10.094,0.128646,-2.609955,-5.896746,99940.09,-123,+154,+258
84510,17.025,-7.587,10.733,0.064261,-2.258230,-5.612067,99944.62,-122,+170,+248
84520,15.495,-9.097,10.811,0.003068,-1.787845,-5.270985,99944.62,-118,+184,+240
84530,14.554,-12.569,9.947,-0.300234,-1.302561,-4.895847,99945.73,-118,+184,+240
84540,12.802,-16.268,9.146,-0.881830,-0.895497,-4.456857,99946.41,-106,+195,+239
84550,10.458,-18.161,8.945,-1.382014,-0.582085,-3.775224,99943.84,-102,+200,+237
84560,7.478,-19.813,9.587,-1.603903,-0.283571,-2.760491,99943.84,-95,+201,+236
84571,4.606,-20.976,9.804,-1.623059,-0.011663,-1.489281,99943.90,-95,+201,+236
84580,4.350,-17.414,10.023,-1.255372,0.274612,-0.203704,99946.48,-89,+199,+241
84590,5.912,-12.446,10.386,-0.409317,0.552906,0.919580,99947.63,-92,+198,+243
84600,7.198,-10.722,10.204,0.560719,0.805126,1.876313,99944.55,-92,+197,+243
84611,10.406,-7.578,7.768,1.303012,0.973804,2.562735,99948.80,-92,+197,+243
84621,15.046,5.796,-0.087,1.568003,0.913676,2.413212,99948.54,-90,+199,+247
84630,21.328,28.234,-11.741,1.305141,0.636979,1.639525,99951.27,-93,+204,+246
84640,13.284,9.592,-7.065,0.716627,0.778520,0.940864,99951.27,-91,+203,+245
84651,8.072,-14.341,1.404,2.919029,1.168556,1.623561,99947.98,-91,+203,+245
84660,16.484,-12.544,2.264,2.760461,0.898777,3.119322,99947.98,-88,+213,+242
84670,20.772,-2.220,0.773,0.892223,0.976997,2.662240,99949.04,-94,+212,+241
84676,18.500,-3.187,0.010,0.045637,1.165896,2.072130,99947.99,-94,+212,+241
84685,15.635,-5.863,1.590,0.230279,1.212189,2.350955,99947.41,-94,+208,+242
84696,13.799,-5.375,2.950,0.247306,1.282428,2.681396,99947.26,-93,+206,+246
84705,10.892,-0.837,5.902,0.221765,1.422905,2.421726,99947.26,-97,+203,+246
84715,9.712,2.048,7.294,0.486224,1.438336,2.096607,99944.28,-97,+203,+246
84725,8.730,0.999,8.614,0.920957,1.412795,1.959855,99945.91,-95,+200,+246
84736,8.208,-0.496,7.972,1.259911,1.367566,1.902387,99946.17,-92,+203,+249
84745,9.835,-2.208,5.015,1.283324,1.226556,1.842258,99944.13,-94,+202,+246
84755,11.006,-3.743,3.729,1.014609,1.091933,1.795433,99944.13,-94,+202,+246
84765,10.324,-3.811,3.214,0.740572,1.003603,1.724662,99948.16,-92,+201,+247
84775,10.333,-4.464,2.588,0.326591,0.856208,1.604405,99947.53,-90,+202,+249
84786,11.071,-5.003,2.068,-0.193813,0.755639,1.487873,99946.33,-93,+197,+250
84795,10.794,-3.536,1.957,-0.675372,0.718392,1.317598,99948.63,-93,+197,+250
84805,10.188,-2.154,2.069,-0.996766,0.675823,1.122846,99948.63,-92,+191,+253
84815,9.803,-0.479,2.440,-0.994638,0.644428,0.975984,99946.41,-90,+189,+258
84826,9.689,0.322,2.544,-0.805207,0.626869,0.880736,99948.45,-93,+182,+258
84835,10.085,0.385,2.512,-0.493922,0.625805,0.825929,99946.94,-93,+182,+258
84845,10.229,0.355,2.642,-0.168271,0.647621,0.813690,99946.20,-90,+178,+260
84855,9.805,0.356,2.716,0.104701,0.671034,0.827525,99946.20,-88,+180,+263
84866,9.304,-0.198,2.665,0.249967,0.674227,0.833378,99949.68,-91,+176,+262
84875,9.201,-1.144,2.629,0.237728,0.654006,0.817947,99950.62,-91,+176,+262
84885,9.213,-1.667,2.855,0.082885,0.632190,0.775378,99947.59,-87,+176,+263
84895,9.215,-1.584,3.091,-0.200730,0.600263,0.711525,99944.23,-86,+176,+266
84905,9.050,-1.284,3.160,-0.551390,0.564080,0.652461,99944.23,-88,+170,+265
84911,8.961,-0.848,3.115,-0.773812,0.544392,0.621599,99950.93,-88,+170,+265
84920,9.152,-0.053,2.926,-0.878638,0.534814,0.599250,99950.93,-85,+166,+270
84930,9.336,0.988,2.728,-0.831812,0.546520,0.588608,99946.68,-84,+165,+273
84940,9.442,1.193,2.519,-0.591299,0.575786,0.618938,99946.16,-84,+165,+273
84951,9.389,0.695,2.169,-0.259262,0.619951,0.687048,99944.07,-85,+159,+272
84961,9.193,-0.015,2.427,0.050958,0.667841,0.763140,99949.20,-82,+160,+275
84970,9.238,-0.894,3.001,0.229747,0.696575,0.816351,99947.99,-80,+160,+276
84980,9.320,-1.487,3.790,0.175472,0.699236,0.847213,99947.46,-80,+160,+276
84990,9.280,-1.426,4.305,-0.079409,0.685401,0.841892,99947.46,-81,+156,+276
85001,9.162,-0.659,4.261,-0.330033,0.659327,0.814222,99947.57,-78,+155,+278
85010,9.205,0.207,3.971,-0.408785,0.641768,0.810498,99947.57,-77,+154,+280
85020,9.445,0.038,3.534,-0.347060,0.641236,0.848277,99948.51,-77,+154,+280
85030,9.814,-1.229,3.054,-0.261390,0.652942,0.911598,99947.30,-77,+148,+280
85041,9.869,-1.828,2.987,-0.206583,0.682740,0.975452,99946.46,-73,+148,+282
85051,9.573,-1.512,3.419,-0.239574,0.717327,1.022809,99947.66,-72,+146,+285
85060,9.439,-1.103,3.746,-0.299702,0.739676,1.039305,99947.66,-72,+146,+285
85070,9.635,-1.493,3.795,-0.340675,0.754575,1.053672,99948.30,-73,+140,+285
85081,9.647,-2.239,3.779,-0.392822,0.766281,1.082406,99947.06,-68,+139,+286
85091,9.513,-2.383,3.692,-0.480620,0.759364,1.110075,99945.17,-67,+136,+290
85100,9.628,-2.204,3.754,-0.551390,0.777456,1.127635,99945.17,-67,+136,+290
85110,9.836,-1.778,4.075,-0.594491,0.804593,1.146259,99945.17,-68,+129,+289
85121,10.024,-1.785,4.275,-0.628014,0.822685,1.192552,99950.13,-62,+128,+292
85131,9.918,-1.736,4.277,-0.671115,0.851951,1.251617,99948.82,-61,+123,+294
85140,10.201,-1.639,4.646,-0.736565,0.869511,1.318662,99947.51,-61,+123,+294
85146,10.441,-2.062,4.468,-0.766363,0.877492,1.379323,99945.41,-61,+114,+294
85155,11.144,-2.692,3.862,-0.811592,0.884942,1.436259,99945.41,-55,+112,+296
85166,11.984,-3.133,3.132,-0.861078,0.880685,1.509158,99948.90,-55,+112,+296
85176,12.333,-3.077,2.700,-0.808931,0.883878,1.632075,99947.96,-55,+106,+298
85185,12.236,-2.847,2.472,-0.705702,0.909419,1.777873,99945.45,-53,+98,+297
85195,12.314,-2.883,2.686,-0.625886,0.926979,1.919414,99945.29,-47,+95,+298
85206,12.470,-2.635,3.228,-0.583317,0.940813,2.081176,99945.29,-47,+95,+298
85216,12.925,-2.212,3.858,-0.639720,0.966355,2.223781,99948.91,-47,+89,+299
85225,13.826,-1.662,4.183,-0.758381,1.020098,2.324882,99944.50,-46,+80,+297
85235,14.736,-1.037,4.216,-0.908968,1.085547,2.405231,99947.53,-39,+75,+298
85245,16.112,-0.560,4.119,-1.034546,1.080226,2.476001,99946.80,-39,+75,+298
85256,17.620,0.301,3.984,-1.148950,1.057346,2.560607,99946.80,-38,+67,+299
85266,18.587,0.830,3.231,-1.388931,1.135034,2.629781,99946.80,-34,+55,+295
85275,19.566,0.942,1.505,-1.908802,1.262740,2.592533,99946.64,-27,+47,+295
85285,21.465,3.843,0.144,-2.636196,1.288281,2.487175,99948.11,-27,+47,+295
85296,23.267,8.064,-0.662,-3.325810,1.245180,2.436625,99944.86,-23,+31,+293
85306,22.793,10.504,-0.060,-3.687113,1.231345,2.505799,99944.86,-18,+14,+286
85315,19.289,9.156,3.407,-3.432232,1.179199,2.702148,99948.20,-9,+1,+283
85325,16.078,-0.361,6.930,-2.372270,1.048832,3.135817,99944.75,-9,+1,+283
85336,17.189,-8.896,7.674,-1.340509,0.773731,3.773285,99943.17,-5,-7,+279
85346,18.530,-7.103,7.763,-0.704638,0.696575,3.939835,99943.70,+1,-14,+271
85355,19.007,-1.898,9.144,-0.065042,0.846098,3.608863,99943.70,+11,-11,+268
85365,15.914,2.171,7.806,0.704921,1.191969,3.222551,99946.38,+11,-11,+268
85376,10.407,4.515,4.864,0.859765,1.089272,2.804313,99944.13,+18,-8,+264
85381,8.947,7.043,3.453,0.991728,0.693382,2.357341,99942.98,+25,-5,+257
85391,4.205,0.826,4.742,1.206700,0.357089,1.883763,99942.98,+25,-5,+257
85401,5.464,-3.038,3.887,1.442957,0.082520,1.458607,99944.60,+32,+3,+255
85410,8.322,1.493,-0.152,0.940113,-0.183534,0.560406,99944.60,+32,+6,+250
85421,6.095,4.681,-1.077,0.697471,-0.354874,-0.355887,99946.40,+34,+9,+244
85431,5.279,5.158,-0.462,0.696407,-0.635296,-0.820951,99946.02,+34,+9,+244
85441,4.788,2.722,-0.025,0.874132,-0.947644,-1.121061,99942.88,+36,+15,+242
85450,4.066,0.047,0.366,1.088572,-1.214763,-1.405207,99942.88,+33,+17,+237
85460,3.753,-1.370,1.222,1.192865,-1.431864,-1.725538,99942.88,+31,+21,+232
85471,3.937,-1.539,1.716,1.169453,-1.638855,-2.129941,99946.81,+31,+21,+232
85481,4.393,-1.388,1.914,1.068884,-1.828286,-2.575849,99943.97,+28,+29,+232
85490,4.931,-1.359,1.738,0.966187,-1.978341,-2.988766,99941.94,+21,+30,+227
85500,5.405,-1.541,1.190,0.856040,-2.062414,-3.321867,99939.52,+19,+33,+222
85511,6.041,-1.529,1.008,0.746425,-2.120946,-3.581004,99939.52,+19,+33,+222
85521,6.873,-1.985,1.215,0.626701,-2.207148,-3.803426,99941.36,+16,+39,+220
85531,7.369,-2.658,1.535,0.521875,-2.302928,-4.014142,99941.89,+9,+39,+215
85540,7.795,-3.140,2.091,0.359049,-2.374763,-4.262105,99938.98,+6,+42,+210
85551,8.377,-3.491,2.525,0.174940,-2.438616,-4.537205,99938.98,+6,+42,+210
85561,8.948,-3.509,2.809,0.039252,-2.479588,-4.797939,99944.16,+2,+47,+210
