49930,9.700,-0.603,2.029,0.009597,0.001270,-0.001551,100048.14,-86,-182,+112
49940,9.666,-0.653,2.052,0.015450,0.000206,-0.004212,100047.76,-86,-182,+112
49950,9.663,-0.641,2.040,0.012257,-0.001923,-0.005276,100047.55,-86,-182,+112
49959,9.630,-0.618,2.056,0.005340,-0.002987,-0.006340,100049.29,-86,-182,+112
49970,9.616,-0.635,2.005,0.002147,-0.003519,-0.008469,100047.60,-86,-182,+113
49980,9.663,-0.619,2.004,-0.006367,-0.002987,-0.009001,100047.60,-86,-182,+113
49990,9.657,-0.631,1.999,-0.004770,-0.005647,-0.011129,100050.52,-86,-182,+113
49999,9.696,-0.629,2.046,-0.002642,-0.004583,-0.010597,100048.59,-86,-182,+112
50010,9.671,-0.619,2.040,0.000551,-0.005115,-0.010065,100050.32,-86,-182,+112
50020,9.694,-0.667,2.003,0.003211,-0.005647,-0.012194,100048.01,-86,-182,+112
50030,9.660,-0.622,2.004,-0.002110,-0.007244,-0.013790,100048.01,-87,-182,+112
50039,9.633,-0.597,2.015,-0.009027,-0.007776,-0.013790,100048.20,-86,-182,+111
50050,9.650,-0.568,2.029,-0.010091,-0.008840,-0.012194,100051.52,-86,-182,+112
50060,9.659,-0.593,1.980,-0.005835,-0.008840,-0.012726,100046.69,-86,-182,+112
50070,9.647,-0.612,1.985,-0.005302,-0.008840,-0.011129,100049.27,-86,-181,+112
50079,9.663,-0.606,1.961,-0.005835,-0.008840,-0.012726,100049.27,-86,-182,+112
50089,9.642,-0.600,1.979,-0.005835,-0.008840,-0.011661,100049.30,-87,-182,+112
50100,9.650,-0.588,2.006,-0.006899,-0.009372,-0.010065,100047.98,-87,-182,+112
50110,9.640,-0.582,1.977,-0.006899,-0.009372,-0.007937,100047.19,-87,-182,+112
50120,9.658,-0.564,1.971,-0.008495,-0.009372,-0.005276,100045.78,-87,-182,+112
50129,9.648,-0.569,1.960,-0.005835,-0.009372,-0.003680,100045.78,-86,-182,+112
50140,9.670,-0.613,1.963,-0.004770,-0.009904,-0.003148,100052.44,-86,-182,+112
50150,9.639,-0.606,1.977,-0.004238,-0.007776,-0.001019,100049.55,-87,-180,+112
50160,9.658,-0.591,1.973,-0.004238,-0.008840,0.000577,100048.45,-87,-182,+112
50169,9.644,-0.577,1.972,-0.004770,-0.009372,0.001641,100046.88,-88,-182,+112
50180,9.653,-0.565,2.015,-0.006367,-0.010969,0.003238,100046.88,-88,-182,+112
50190,9.670,-0.612,2.016,-0.003174,-0.010436,0.005366,100048.41,-86,-182,+112
50200,9.664,-0.612,1.929,-0.002642,-0.011501,0.005366,100047.79,-87,-181,+112
50210,9.642,-0.611,2.015,-0.002110,-0.010969,0.005898,100048.46,-87,-182,+112
50220,9.654,-0.620,1.955,0.000551,-0.011501,0.004302,100048.04,-87,-182,+112
50230,9.678,-0.644,1.993,0.001083,-0.010436,0.001109,100048.04,-87,-181,+112
50240,9.636,-0.613,1.984,-0.002110,-0.012033,0.000577,100049.81,-86,-181,+112
50245,9.651,-0.606,1.987,-0.001046,-0.010969,-0.001551,100048.77,-86,-181,+112
50254,9.657,-0.601,2.002,-0.001578,-0.011501,-0.001551,100048.77,-88,-182,+112
50265,9.622,-0.665,1.951,0.001083,-0.011501,-0.001019,100049.92,-86,-182,+112
50275,9.647,-0.644,1.949,-0.005302,-0.012033,-0.004212,100046.67,-87,-182,+112
50285,9.642,-0.606,1.938,-0.006367,-0.010436,-0.005276,100046.67,-87,-182,+112
50295,9.658,-0.575,1.992,-0.005835,-0.011501,-0.004212,100048.54,-86,-182,+112
50305,9.634,-0.567,2.006,-0.002110,-0.011501,-0.003148,100047.04,-87,-182,+112
50315,9.659,-0.580,1.987,-0.003706,-0.011501,0.000045,100047.04,-88,-181,+111
50325,9.667,-0.604,1.995,0.000019,-0.011501,0.001109,100047.04,-88,-181,+111
50335,9.627,-0.616,1.979,-0.004770,-0.010436,0.001109,100047.04,-87,-182,+111
50344,9.646,-0.603,2.024,-0.005835,-0.012033,0.004302,100048.91,-86,-182,+111
50355,9.663,-0.583,1.987,-0.008495,-0.012565,0.006430,100049.16,-87,-181,+112
50365,9.669,-0.611,1.974,-0.001578,-0.011501,0.007495,100049.80,-87,-181,+112
50375,9.676,-0.619,1.961,0.000019,-0.012033,0.007495,100050.23,-88,-182,+111
50385,9.658,-0.614,2.001,-0.002110,-0.012033,0.005366,100050.23,-87,-181,+112
50395,9.626,-0.622,1.995,-0.004770,-0.013097,0.004834,100051.03,-87,-182,+112
50405,9.645,-0.601,1.955,-0.007963,-0.013097,0.003770,100049.64,-87,-182,+112
50415,9.641,-0.573,1.978,-0.011688,-0.012565,0.004834,100047.56,-86,-182,+110
50425,9.667,-0.601,1.962,-0.010091,-0.013629,0.005366,100047.56,-87,-182,+112
50436,9.652,-0.616,1.896,-0.010624,-0.013097,0.004834,100048.02,-86,-181,+112
50445,9.652,-0.595,1.959,-0.010624,-0.012033,0.006430,100048.02,-86,-181,+112
50455,9.659,-0.600,1.944,-0.008495,-0.010969,0.006430,100048.54,-88,-182,+112
50465,9.656,-0.611,1.989,-0.006899,-0.009904,0.008559,100048.70,-87,-182,+111
50475,9.654,-0.618,1.981,-0.006367,-0.009904,0.008027,100046.80,-86,-182,+111
50485,9.651,-0.626,1.969,-0.006367,-0.009904,0.007495,100046.80,-86,-183,+112
50495,9.657,-0.626,1.931,-0.010624,-0.010436,0.005898,100049.42,-86,-183,+112
50505,9.650,-0.619,1.971,-0.011688,-0.010969,0.006430,100047.89,-87,-182,+112
50515,9.635,-0.611,1.917,-0.012752,-0.010436,0.005898,100045.73,-86,-182,+112
50525,9.641,-0.592,1.954,-0.014348,-0.009904,0.007495,100046.85,-86,-182,+111
50535,9.669,-0.614,1.968,-0.014348,-0.009372,0.007495,100047.95,-86,-182,+111
50545,9.669,-0.617,1.947,-0.015945,-0.009372,0.007495,100049.37,-88,-182,+111
50555,9.646,-0.607,1.931,-0.018073,-0.008308,0.009091,100050.05,-86,-182,+111
50565,9.642,-0.622,1.957,-0.013284,-0.008308,0.010155,100050.05,-86,-182,+110
50575,9.653,-0.606,1.973,-0.010091,-0.007244,0.012284,100047.32,-86,-182,+110
50585,9.667,-0.582,1.986,-0.006899,-0.007244,0.014412,100047.32,-86,-182,+112
50595,9.684,-0.611,1.957,-0.004238,-0.007776,0.016008,100047.32,-86,-182,+110
50600,9.651,-0.608,1.963,-0.006367,-0.007776,0.018669,100048.84,-86,-182,+110
50610,9.657,-0.605,1.974,-0.010091,-0.007244,0.019201,100047.74,-86,-182,+112
50620,9.719,-0.599,1.950,-0.011156,-0.007776,0.020265,100045.74,-87,-182,+111
50630,9.721,-0.573,1.969,-0.010624,-0.007244,0.024522,100045.74,-87,-182,+111
50640,9.696,-0.571,1.991,-0.003706,-0.005647,0.028247,100047.83,-86,-182,+111
50650,9.644,-0.593,1.979,0.003743,-0.005647,0.030907,100050.50,-86,-182,+111
50660,9.599,-0.648,1.901,0.003743,-0.002455,0.031972,100047.30,-86,-182,+111
50670,9.677,-0.636,1.858,0.000551,-0.001391,0.031972,100047.56,-86,-182,+111
50680,9.666,-0.636,1.883,0.005340,0.002334,0.030375,100047.56,-86,-182,+112
50691,9.639,-0.640,1.857,0.013321,0.005527,0.031439,100051.26,-86,-182,+110
50700,9.615,-0.643,1.901,0.014918,0.009252,0.032504,100049.10,-86,-183,+111
50710,9.652,-0.643,1.930,0.019707,0.010848,0.032504,100049.21,-86,-183,+111
50720,9.697,-0.668,1.963,0.025560,0.012444,0.031439,100048.12,-86,-182,+112
50729,9.650,-0.679,1.961,0.024496,0.015105,0.028779,100048.12,-86,-183,+112
50740,9.635,-0.701,1.919,0.021835,0.016169,0.025586,100049.02,-86,-182,+111
50750,9.657,-0.746,1.905,0.019707,0.018830,0.021329,100047.17,-85,-182,+112
50760,9.634,-0.697,1.960,0.019707,0.020958,0.016540,100048.66,-85,-182,+112
50770,9.594,-0.741,1.926,0.021835,0.022554,0.012284,100046.44,-85,-183,+111
50780,9.629,-0.814,1.949,0.018642,0.024683,0.005898,100046.44,-86,-182,+111
50790,9.651,-0.751,1.956,0.014386,0.026811,-0.002616,100050.20,-85,-182,+111
50800,9.647,-0.788,1.941,0.011725,0.030536,-0.011129,100047.88,-85,-182,+111
50810,9.626,-0.811,1.944,0.005872,0.035325,-0.018579,100048.46,-86,-182,+112
50820,9.597,-0.799,1.912,-0.005835,0.038518,-0.027093,100049.04,-86,-182,+112
50830,9.545,-0.800,1.864,-0.015413,0.041710,-0.034010,100049.04,-86,-182,+112
50840,9.569,-0.777,1.917,-0.021266,0.044903,-0.038799,100049.79,-86,-182,+112
50850,9.609,-0.738,1.933,-0.022862,0.047031,-0.045184,100048.59,-86,-182,+112
50861,9.603,-0.747,1.927,-0.026055,0.051288,-0.049973,100048.37,-86,-182,+112
50870,9.626,-0.729,1.962,-0.033504,0.056609,-0.054230,100046.01,-84,-182,+112
50880,9.638,-0.770,1.980,-0.040954,0.058738,-0.060083,100046.01,-84,-182,+112
50890,9.597,-0.775,1.956,-0.053724,0.064059,-0.063808,100051.55,-86,-182,+112
50900,9.560,-0.713,1.927,-0.065431,0.067252,-0.067533,100050.09,-86,-183,+111
50910,9.518,-0.643,1.926,-0.067559,0.070976,-0.067533,100044.84,-86,-182,+111
50920,9.496,-0.576,1.985,-0.065963,0.076297,-0.067001,100046.35,-86,-182,+111
50930,9.438,-0.424,1.945,-0.051064,0.086408,-0.066469,100046.35,-86,-181,+112
50940,9.477,-0.333,1.967,-0.010091,0.096518,-0.066469,100048.65,-86,-182,+112
50950,9.529,-0.447,1.881,0.053230,0.105031,-0.065937,100048.49,-87,-182,+112
50960,9.506,-0.713,1.796,0.104312,0.116738,-0.071258,100050.74,-87,-182,+112
50970,9.462,-0.755,1.773,0.138367,0.129508,-0.082432,100046.71,-86,-182,+113
50980,9.395,-0.571,2.026,0.183596,0.139086,-0.103716,100046.71,-86,-181,+114
50991,9.353,-0.562,2.028,0.252239,0.141747,-0.124469,100049.28,-86,-180,+114
51000,9.156,-0.738,1.748,0.298532,0.157178,-0.144157,100049.55,-86,-180,+114
51010,9.041,-0.834,1.635,0.311835,0.178463,-0.164909,100050.38,-86,-181,+115
51020,9.160,-0.638,1.742,0.339505,0.193894,-0.185661,100048.39,-88,-179,+116
51031,9.383,-0.442,1.986,0.400165,0.207729,-0.209606,100048.39,-88,-179,+117
51040,9.657,-0.490,2.258,0.460826,0.216242,-0.232487,100048.94,-88,-179,+117
51050,9.629,-0.638,2.414,0.486899,0.224224,-0.267074,100046.38,-88,-177,+120
51060,9.563,-0.875,2.344,0.450716,0.225820,-0.305918,100046.64,-89,-176,+121
51070,9.490,-0.725,2.501,0.380477,0.224756,-0.343698,100047.31,-89,-175,+122
51080,9.446,-0.464,2.424,0.336844,0.217839,-0.379349,100047.31,-89,-175,+122
51090,9.554,-0.479,2.337,0.314495,0.221031,-0.405955,100051.14,-90,-174,+124
51100,9.739,-0.491,2.361,0.284165,0.222628,-0.427239,100047.03,-91,-173,+124
51110,9.799,-0.508,2.205,0.239468,0.228481,-0.443735,100049.09,-91,-172,+126
51121,10.021,-0.401,2.388,0.174551,0.228481,-0.457037,100044.78,-91,-172,+126
51130,10.249,0.063,2.866,0.120808,0.204004,-0.461294,100044.78,-93,-170,+127
51140,10.271,0.385,3.133,0.091009,0.168885,-0.445863,100049.88,-94,-170,+127
51150,10.033,0.458,3.286,0.055358,0.126848,-0.410744,100050.29,-95,-169,+127
51161,9.822,0.499,3.284,0.002679,0.077894,-0.374028,100049.55,-96,-169,+128
51170,9.760,0.689,3.216,-0.062770,0.030004,-0.331991,100045.46,-96,-168,+128
51180,9.745,0.876,2.955,-0.109064,-0.010969,-0.276652,100045.46,-97,-168,+127
51190,9.690,0.897,2.668,-0.127688,-0.037042,-0.210138,100047.90,-97,-168,+126
51201,9.799,0.795,2.433,-0.122367,-0.052473,-0.145221,100046.91,-98,-167,+126
51210,9.815,0.626,2.439,-0.104275,-0.059923,-0.087221,100047.07,-98,-167,+126
51220,9.743,0.609,2.491,-0.095229,-0.066840,-0.040395,100048.74,-98,-166,+126
51230,9.610,0.483,2.545,-0.088844,-0.072693,-0.002616,100048.74,-97,-167,+125
51240,9.523,0.317,2.551,-0.095229,-0.083335,0.025054,100047.30,-98,-168,+126
51251,9.478,0.299,2.477,-0.105871,-0.088124,0.041017,100048.50,-98,-168,+126
51260,9.488,0.251,2.453,-0.105871,-0.088657,0.051660,100047.92,-99,-167,+124
51270,9.529,0.188,2.431,-0.095761,-0.089189,0.057513,100047.70,-99,-168,+124
51280,9.474,0.051,2.372,-0.075009,-0.087060,0.054320,100047.70,-98,-168,+124
51291,9.428,-0.016,2.329,-0.068624,-0.079611,0.044210,100050.85,-98,-168,+124
51300,9.420,-0.067,2.307,-0.072348,-0.073225,0.029843,100050.32,-98,-168,+124
51310,9.465,-0.043,2.344,-0.069156,-0.066308,0.011751,100047.01,-98,-169,+124
51320,9.512,-0.027,2.299,-0.065431,-0.062583,-0.005276,100046.43,-99,-168,+123
51331,9.566,0.042,2.297,-0.067027,-0.056730,-0.018579,100046.43,-99,-168,+123
51341,9.571,0.043,2.253,-0.075009,-0.047684,-0.025496,100048.45,-99,-168,+124
51350,9.624,-0.125,2.159,-0.091504,-0.035978,-0.029753,100046.14,-99,-169,+122
51360,9.645,-0.109,2.210,-0.136201,-0.025336,-0.040395,100048.45,-99,-169,+121
51371,9.658,0.122,2.224,-0.175045,-0.017354,-0.045184,100048.92,-99,-169,+121
51381,9.614,0.191,2.315,-0.183559,-0.012565,-0.036671,100048.92,-99,-168,+122
51390,9.633,0.255,2.417,-0.183027,-0.010969,-0.028689,100046.95,-100,-169,+121
51400,9.629,0.314,2.412,-0.189412,-0.010436,-0.012726,100050.15,-99,-169,+121
51410,9.634,0.275,2.562,-0.200587,-0.015225,0.004834,100050.88,-99,-169,+121
51421,9.678,0.391,2.600,-0.218678,-0.024803,0.023990,100048.04,-100,-169,+120
51430,9.605,0.428,2.569,-0.226128,-0.030125,0.051660,100048.04,-99,-170,+120
51440,9.514,0.445,2.411,-0.234642,-0.034381,0.080394,100048.80,-99,-170,+118
51450,9.553,0.299,2.299,-0.247412,-0.033849,0.110192,100047.23,-99,-170,+118
51461,9.729,0.281,2.287,-0.269229,-0.041831,0.140522,100048.29,-99,-170,+119
51471,9.798,0.377,2.362,-0.256458,-0.041299,0.169788,100046.49,-98,-172,+117
51480,9.768,0.154,2.466,-0.230917,-0.041831,0.194265,100046.49,-98,-172,+116
51490,9.671,-0.064,2.501,-0.245816,-0.051409,0.213421,100049.38,-98,-172,+116
51501,9.723,-0.037,2.457,-0.293174,-0.079079,0.222467,100050.75,-97,-174,+116
51511,9.725,0.018,2.344,-0.324568,-0.089189,0.236302,100045.66,-96,-174,+115
51520,9.690,0.149,2.369,-0.334146,-0.087060,0.252265,100046.86,-97,-175,+114
51530,9.650,0.131,2.374,-0.314458,-0.086528,0.274082,100046.86,-97,-175,+114
51540,9.501,0.059,2.370,-0.290159,-0.082271,0.293237,100050.45,-95,-176,+113
51551,9.475,0.051,2.414,-0.276678,-0.083335,0.311329,100049.13,-94,-177,+112
51560,9.557,0.082,2.324,-0.253266,-0.089721,0.333146,100047.62,-93,-178,+111
51570,9.750,0.222,2.525,-0.213357,-0.099299,0.358687,100048.40,-93,-178,+111
51580,10.138,0.384,2.783,-0.166000,-0.134950,0.398595,100048.40,-92,-178,+111
51591,10.294,0.373,2.834,-0.110128,-0.175390,0.448614,100050.26,-91,-180,+110
51601,10.227,0.313,2.890,-0.105339,-0.208913,0.510338,100049.99,-91,-180,+110
51610,10.306,0.487,2.914,-0.152697,-0.245097,0.585898,100051.10,-89,-180,+109
51620,10.473,0.514,2.731,-0.203247,-0.278620,0.674760,100046.70,-89,-183,+109
51631,10.935,0.657,2.708,-0.253798,-0.310546,0.781714,100046.70,-87,-183,+108
51641,11.698,0.882,3.012,-0.303284,-0.355244,0.910485,100047.16,-85,-185,+106
51650,12.035,0.809,2.828,-0.397467,-0.358968,1.042980,100047.72,-81,-188,+105
51660,11.680,0.239,1.917,-0.556036,-0.274363,1.150998,100046.52,-81,-188,+105
51671,11.576,-0.411,1.040,-0.751320,-0.156767,1.223897,100047.89,-78,-190,+102
51681,12.159,-0.672,0.800,-0.883816,-0.067904,1.259017,100047.89,-74,-194,+100
51690,13.299,-0.280,0.501,-0.864660,-0.027464,1.240925,100051.10,-69,-195,+98
51700,14.349,0.046,0.569,-0.486862,-0.005647,1.140356,100051.05,-69,-195,+98
51710,13.756,0.566,0.104,-0.048403,0.009784,1.003072,100046.12,-66,-198,+97
51721,12.450,0.295,-0.194,0.024496,0.057141,1.154723,100048.38,-63,-199,+97
51730,11.873,-0.100,0.717,-0.036165,0.142279,1.288815,100048.38,-58,-201,+97
51740,11.086,-0.992,1.623,0.045248,0.194958,1.372888,100049.98,-58,-201,+97
51750,10.693,-3.040,2.581,0.167633,0.231141,1.435677,100047.82,-53,-202,+98
51761,10.930,-5.622,3.600,0.301725,0.274242,1.497934,100047.46,-49,-204,+99
51771,11.692,-7.483,4.370,0.251174,0.313086,1.527200,100047.73,-42,-206,+100
51776,11.686,-7.884,5.895,0.123468,0.356187,1.566044,100047.73,-42,-206,+100
51785,11.789,-6.323,6.256,0.036734,0.398756,1.552209,100047.73,-37,-208,+101
51795,11.912,-3.963,4.943,-0.018605,0.429618,1.526668,100048.66,-37,-208,+101
51806,11.287,-3.580,4.344,0.005340,0.479105,1.555402,100046.08,-32,-208,+102
51816,10.517,-4.371,4.137,0.004275,0.513692,1.582539,100048.03,-25,-211,+101
51826,9.754,-5.251,4.215,-0.161743,0.514224,1.569237,100046.61,-20,-212,+100
51835,9.159,-5.069,4.337,-0.413963,0.496132,1.481439,100049.50,-13,-213,+100
51846,8.731,-4.231,4.139,-0.617229,0.494536,1.364907,100047.52,-13,-213,+100
51856,8.387,-3.780,3.603,-0.723119,0.510499,1.256356,100047.52,-9,-216,+98
51865,7.648,-3.368,2.956,-0.749724,0.533912,1.148338,100047.98,-3,-216,+95
51875,6.379,-3.496,2.366,-0.749192,0.547747,1.109494,100047.36,+0,-218,+94
51886,5.801,-3.823,1.943,-0.792825,0.518481,1.122265,100047.36,+0,-218,+94
51896,5.619,-3.444,1.584,-0.751320,0.496132,1.016907,100051.61,+4,-219,+92
51906,4.969,-3.321,1.222,-0.698641,0.468994,0.956778,100045.25,+9,-220,+89
51915,4.491,-3.070,0.941,-0.633192,0.431747,0.904632,100047.67,+12,-222,+87
51926,4.297,-2.743,0.764,-0.522513,0.383857,0.845035,100046.05,+12,-222,+87
51936,4.192,-2.422,0.586,-0.408110,0.327985,0.790228,100047.48,+15,-222,+87
51946,4.069,-2.253,0.467,-0.302220,0.267325,0.735953,100048.30,+18,-222,+85
51956,4.021,-2.234,0.481,-0.205908,0.198151,0.691256,100046.16,+22,-222,+84
51965,4.168,-2.274,0.542,-0.111192,0.128976,0.635384,100046.95,+22,-222,+84
51976,4.198,-2.368,0.682,-0.011156,0.065655,0.561421,100046.95,+23,-223,+84
51986,4.089,-2.508,0.644,0.088349,0.007655,0.465109,100046.95,+25,-222,+84
51995,3.979,-2.587,0.571,0.185193,-0.040767,0.344320,100047.91,+26,-222,+85
52005,3.932,-2.542,0.578,0.236807,-0.087592,0.211293,100052.05,+26,-222,+85
52012,3.941,-2.426,0.580,0.249046,-0.131225,0.110192,100050.74,+26,-222,+87
52021,3.984,-2.424,0.681,0.236807,-0.180179,0.013880,100047.87,+26,-222,+87
52031,4.014,-2.361,0.753,0.193174,-0.249354,-0.103184,100047.87,+27,-222,+87
52040,4.004,-2.341,0.846,0.164441,-0.304161,-0.212799,100048.70,+25,-222,+87
52050,4.146,-2.403,1.072,0.167101,-0.331831,-0.326138,100049.96,+23,-222,+88
52061,4.298,-2.501,1.317,0.200092,-0.342473,-0.438413,100046.96,+22,-222,+89
52071,4.466,-2.628,1.525,0.265009,-0.346198,-0.550689,100046.02,+22,-222,+89
52080,4.659,-2.760,1.701,0.335248,-0.345133,-0.670945,100046.02,+18,-221,+90
52090,4.877,-2.811,1.827,0.388991,-0.347262,-0.786413,100049.60,+15,-221,+90
52101,5.089,-2.827,1.894,0.433156,-0.350987,-0.908798,100046.82,+11,-220,+92
52111,5.261,-2.919,1.883,0.450183,-0.354179,-1.029587,100046.09,+11,-220,+92
52121,5.476,-3.015,1.807,0.423578,-0.356840,-1.159954,100047.24,+7,-219,+94
52130,5.905,-3.116,1.736,0.339505,-0.368014,-1.291385,100047.24,+2,-218,+94
52141,6.543,-2.932,1.620,0.226697,-0.398877,-1.433991,100049.80,-2,-218,+95
52151,7.459,-2.670,1.748,0.114954,-0.428143,-1.567550,100046.55,-2,-218,+95
52161,8.427,-2.562,1.871,-0.057449,-0.459537,-1.689936,100047.28,-9,-216,+95
52170,9.270,-2.384,2.384,-0.147376,-0.496253,-1.763367,100046.39,-16,-216,+95
52180,10.048,-2.332,2.950,-0.021798,-0.487207,-1.826156,100046.39,-23,-214,+94
52191,10.742,-2.633,3.134,0.185193,-0.444638,-1.876174,100048.04,-23,-214,+94
52201,11.132,-3.084,3.121,0.346954,-0.406858,-1.930981,100047.21,-30,-212,+94
52210,11.549,-3.488,3.020,0.402826,-0.378656,-1.982596,100047.57,-36,-209,+95
52220,11.979,-3.734,2.806,0.346954,-0.352051,-2.016651,100048.99,-44,-207,+95
52231,11.777,-5.250,4.674,0.245321,-0.286601,-2.027825,100048.99,-44,-207,+95
52241,12.093,-18.600,13.715,0.560330,0.127912,-1.499440,100046.90,-51,-204,+98
52246,18.713,-14.902,4.326,1.478220,0.112481,-1.160486,100050.15,-55,-202,+102
52255,16.207,-9.303,3.291,0.577358,0.101307,-1.407917,100050.15,-55,-202,+102
52265,12.490,-7.274,1.850,-0.340532,0.032132,-0.937000,100046.90,-58,-200,+99
52276,11.923,3.420,-0.188,-0.355431,0.057674,-1.107808,100046.85,-61,-199,+99
52286,13.332,11.282,-0.566,-0.176110,-0.071097,-1.322248,100049.02,-67,-198,+99
52296,14.831,9.253,3.073,0.154863,-0.209978,-1.215826,100048.59,-67,-198,+99
52305,19.348,1.176,2.117,0.904605,-0.214767,-0.869422,100047.64,-70,-196,+100
52316,20.425,-5.047,-2.274,0.748697,0.027343,-0.429368,100046.86,-71,-194,+103
52326,13.284,-3.618,-2.547,-0.131412,0.290206,-0.263349,100046.86,-71,-194,+102
52336,7.942,-1.054,-0.449,-0.510275,0.441857,-0.211735,100046.86,-71,-194,+102
52345,7.103,-0.756,0.943,-0.242623,0.424829,-0.187790,100049.76,-71,-194,+102
52356,7.046,-0.563,3.243,0.031413,0.350866,-0.137239,100051.76,-71,-194,+102
52366,7.829,-0.027,4.888,0.141560,0.256683,-0.094138,100049.13,-71,-194,+104
52376,8.949,-0.282,4.210,0.242129,0.196554,-0.070193,100049.07,-71,-194,+104
52386,8.946,-0.957,3.468,0.258624,0.219967,-0.027093,100049.07,-71,-193,+104
52396,8.340,-0.899,3.436,0.196367,0.224224,0.003770,100048.83,-71,-193,+105
52406,8.535,-0.968,3.213,0.139963,0.197086,0.027715,100047.30,-71,-193,+105
52416,9.718,-1.126,2.946,0.097927,0.172609,0.033568,100048.03,-71,-193,+105
52426,10.885,-1.148,2.487,0.058551,0.149196,0.045274,100048.03,-71,-192,+106
52436,11.175,-1.328,1.966,0.040991,0.161967,0.051660,100048.43,-71,-192,+107
52446,10.480,-1.415,1.807,0.008000,0.215710,0.039953,100048.43,-70,-192,+106
52456,9.855,-1.103,2.093,-0.037229,0.248169,0.039421,100048.85,-70,-192,+106
52466,9.903,-0.889,2.427,-0.046275,0.238059,0.064430,100049.07,-70,-193,+108
52475,10.083,-0.653,2.666,-0.035633,0.215710,0.108595,100047.38,-68,-193,+107
52482,9.993,-0.580,2.873,-0.008495,0.199747,0.144247,100047.38,-68,-193,+107
52491,9.774,-0.738,3.011,0.030881,0.180591,0.181494,100050.53,-68,-193,+107
52501,9.632,-0.884,3.163,0.023431,0.152389,0.230981,100048.17,-68,-194,+108
52511,9.688,-1.030,3.143,-0.030312,0.118334,0.269825,100048.53,-66,-194,+108
52520,9.780,-1.503,2.985,-0.053192,0.088004,0.290577,100047.02,-66,-195,+108
52531,10.120,-1.827,3.418,0.022367,0.060866,0.260779,100047.02,-65,-194,+108
52541,10.373,-1.078,2.921,0.445394,0.007655,0.116577,100046.08,-66,-194,+109
52551,9.456,-1.284,2.290,0.547027,0.033729,0.072412,100048.70,-64,-194,+110
52560,9.003,-1.652,2.612,0.307046,0.035325,0.134669,100047.30,-64,-194,+110
52571,9.124,-1.426,2.728,0.172954,0.025215,0.161806,100046.98,-64,-193,+110
52581,9.137,-1.827,2.769,0.082496,0.024683,0.162338,100046.98,-64,-194,+111
52591,9.222,-1.840,2.700,-0.005302,0.019894,0.140522,100047.09,-63,-194,+111
52601,9.250,-1.924,2.619,-0.077669,0.025747,0.111788,100047.41,-63,-194,+111
52611,9.465,-1.964,2.446,-0.103211,0.024151,0.066559,100050.34,-62,-194,+111
52621,9.423,-1.614,2.360,-0.074477,0.030536,0.023990,100046.94,-62,-194,+110
52631,9.223,-1.537,2.558,-0.061174,0.042775,0.010687,100046.94,-62,-194,+110
52641,9.232,-1.330,2.522,-0.064367,0.045435,0.016540,100050.65,-62,-194,+110
52651,9.235,-1.197,2.773,-0.072880,0.052352,0.033568,100049.12,-63,-194,+111
52661,9.173,-1.235,2.761,-0.089908,0.058206,0.048999,100048.23,-62,-194,+111
52671,9.238,-1.315,2.649,-0.102679,0.065655,0.061238,100049.45,-62,-195,+110
52681,9.295,-1.249,2.661,-0.119706,0.073105,0.074540,100049.45,-62,-195,+110
52690,9.372,-1.227,2.753,-0.132477,0.080554,0.088375,100048.33,-62,-196,+110
52701,9.311,-1.227,2.745,-0.145779,0.090664,0.103274,100049.06,-61,-195,+110
52711,9.184,-1.081,2.758,-0.138862,0.100774,0.121366,100048.39,-61,-196,+109
52716,9.131,-0.903,2.792,-0.113853,0.106096,0.138926,100047.66,-61,-196,+109
52726,9.112,-0.947,2.813,-0.078202,0.109288,0.160742,100047.66,-60,-196,+110
52736,9.189,-1.005,2.890,-0.044679,0.115141,0.191072,100047.66,-60,-196,+109
52746,9.167,-0.790,2.962,-0.019669,0.124719,0.217146,100049.91,-60,-196,+109
52756,9.025,-0.561,3.059,0.031945,0.142811,0.248540,100048.23,-58,-196,+109
52766,9.183,-1.282,3.171,0.059615,0.148664,0.301219,100046.88,-57,-198,+110
52776,9.629,-1.936,2.762,-0.027119,0.136958,0.341659,100046.88,-57,-198,+110
52786,9.585,-1.316,2.583,-0.162807,0.163563,0.342724,100050.70,-57,-198,+110
52796,9.289,-1.242,2.659,-0.175045,0.178463,0.370925,100050.70,-55,-198,+110
52806,9.351,-1.519,2.545,-0.119174,0.176866,0.413494,100051.59,-53,-198,+109
52816,9.733,-2.313,2.485,-0.128220,0.165160,0.450742,100048.23,-51,-200,+109
52826,9.726,-1.991,2.487,-0.192605,0.174206,0.458191,100050.38,-51,-200,+109
52836,9.355,-1.742,2.617,-0.216018,0.198683,0.464045,100050.38,-50,-200,+109
52846,9.470,-1.904,2.715,-0.194201,0.194958,0.482669,100049.54,-48,-201,+108
52856,9.691,-1.892,2.855,-0.196330,0.177398,0.507678,100048.65,-46,-202,+108
52867,9.791,-1.831,2.939,-0.187816,0.169417,0.532155,100048.60,-46,-202,+108
52876,9.629,-2.067,2.974,-0.178238,0.157178,0.561421,100047.61,-44,-203,+109
52886,9.500,-2.146,3.090,-0.209101,0.152389,0.578980,100049.70,-42,-204,+107
52896,9.700,-2.207,3.141,-0.262311,0.148132,0.594944,100051.13,-39,-205,+106
52907,9.757,-2.167,3.095,-0.316055,0.143875,0.613035,100047.41,-39,-205,+106
52916,9.730,-2.013,3.005,-0.344789,0.141215,0.644430,100047.41,-38,-206,+106
52926,9.788,-2.092,2.962,-0.342128,0.130041,0.680081,100048.97,-35,-206,+105
52936,9.867,-2.044,2.976,-0.334678,0.124719,0.720522,100048.97,-33,-208,+104
52946,10.112,-2.266,3.096,-0.318183,0.123655,0.754577,100049.60,-33,-208,+104
52952,10.058,-2.397,2.986,-0.313926,0.128444,0.775329,100051.65,-30,-209,+103
52961,10.047,-2.506,3.071,-0.324036,0.131105,0.787035,100046.98,-27,-209,+102
52971,10.239,-2.459,2.856,-0.343192,0.124719,0.805659,100048.51,-27,-210,+102
52981,10.132,-2.488,2.752,-0.328293,0.124719,0.823751,100048.51,-24,-211,+102
52992,10.183,-2.445,2.668,-0.304880,0.123655,0.857806,100050.76,-20,-213,+100
53001,10.453,-2.556,2.500,-0.292110,0.109288,0.905696,100050.07,-18,-214,+99
53011,10.765,-2.252,2.544,-0.276146,0.099710,0.959439,100047.71,-18,-214,+99
53021,10.957,-2.347,2.615,-0.221871,0.093325,1.022760,100047.76,-14,-214,+99
53031,11.105,-2.317,2.562,-0.183559,0.081619,1.094063,100047.76,-9,-216,+98
53041,11.396,-2.080,2.843,-0.160146,0.058206,1.179200,100049.60,-5,-216,+98
53051,11.729,-1.888,2.980,-0.159082,0.049160,1.281897,100049.45,-5,-216,+98
53061,12.025,-1.807,2.850,-0.186220,0.067252,1.379274,100046.13,+0,-218,+97
53071,12.440,-1.946,2.466,-0.221871,0.065123,1.489420,100048.65,+4,-218,+97
53081,12.884,-1.706,2.137,-0.270825,0.051820,1.613934,100048.65,+11,-219,+96
53091,13.458,-1.596,2.054,-0.317119,0.043307,1.749090,100048.23,+11,-219,+96
53101,14.104,-1.494,1.899,-0.416623,0.035325,1.877328,100047.39,+16,-220,+95
53111,14.536,-1.377,1.653,-0.558165,0.037986,1.992796,100050.66,+24,-221,+92
53122,14.943,-1.315,1.526,-0.743871,0.051288,2.076337,100048.03,+31,-222,+90
53131,15.422,-1.051,1.226,-0.914146,0.055545,2.103475,100048.03,+31,-222,+90
53141,15.959,0.225,0.866,-0.984917,0.079490,2.073677,100046.34,+39,-223,+87
53151,16.061,1.641,1.054,-0.802935,0.116738,2.025255,100046.18,+47,-224,+84
53161,14.954,1.855,1.110,-0.625742,0.165692,2.112521,100050.02,+55,-224,+82
53171,13.970,-0.063,1.898,-0.711412,0.320004,2.436044,100046.76,+55,-224,+82
53181,15.114,-4.564,3.572,-0.654476,0.492407,2.887805,100046.76,+66,-224,+80
53187,16.352,-6.836,3.275,-0.543798,0.554132,3.157052,100049.15,+77,-224,+77
53196,16.121,-6.526,2.917,-0.665651,0.511031,3.238465,100049.15,+77,-224,+77
53207,14.924,-3.886,2.906,-0.789632,0.380132,3.242190,100047.01,+89,-222,+73
53217,14.108,-3.260,2.969,-0.794953,0.238059,3.297529,100048.52,+101,-219,+71
53226,12.301,-3.331,4.414,-0.666715,0.136958,3.291676,100047.95,+113,-217,+69
53236,10.901,-2.688,6.344,-0.432587,0.136426,3.078832,100050.19,+113,-217,+69
53246,9.205,-1.950,5.890,-0.124495,0.112481,2.719658,100045.88,+123,-214,+68
53257,8.366,-2.549,5.233,0.352275,0.124719,2.396135,100044.72,+132,-212,+68
53266,8.868,0.633,3.230,0.577358,-0.004051,1.893291,100044.72,+137,-209,+70
53276,8.196,2.842,2.148,0.495945,-0.092381,1.534117,100045.30,+137,-209,+70
53286,6.893,3.022,2.132,0.416661,-0.183904,1.320741,100045.30,+142,-207,+71
53297,5.466,2.350,2.186,0.411872,-0.264253,1.017971,100049.53,+145,-206,+72
53306,4.626,2.007,2.498,0.368771,-0.366950,0.689659,100047.48,+147,-205,+74
53316,4.083,1.966,2.647,0.320349,-0.493060,0.349641,100046.95,+147,-205,+74
53326,3.742,2.014,2.476,0.296936,-0.635133,-0.011661,100046.13,+147,-204,+75
53337,3.531,2.084,2.036,0.285762,-0.789445,-0.382010,100046.13,+146,-204,+77
53347,3.341,2.105,1.570,0.292679,-0.950142,-0.756615,100045.22,+141,-205,+80
53356,3.265,2.023,1.293,0.336844,-1.102858,-1.133349,100046.38,+141,-205,+80
53366,3.556,1.723,1.202,0.393248,-1.250252,-1.512743,100047.44,+136,-206,+83
53377,4.139,1.459,1.234,0.457101,-1.388601,-1.874578,100047.44,+127,-208,+85
53386,4.787,1.237,1.438,0.539046,-1.510454,-2.207678,100047.44,+118,-210,+89
53396,5.345,0.997,1.605,0.645468,-1.610490,-2.503531,100046.54,+118,-210,+89
53406,5.845,0.766,1.823,0.777431,-1.687114,-2.773843,100043.49,+108,-212,+92
53416,6.253,0.522,2.091,0.945046,-1.751500,-3.028192,100044.49,+94,-214,+96
53427,6.733,0.241,2.387,1.111064,-1.811628,-3.263384,100042.70,+80,-216,+101
53436,7.145,0.004,2.770,1.266440,-1.862710,-3.482081,100042.70,+80,-216,+101
53446,7.456,-0.176,3.115,1.394678,-1.898894,-3.698118,100046.48,+66,-214,+106
53456,7.865,-0.455,3.520,1.474495,-1.910068,-3.913622,100041.50,+51,-214,+111
53467,8.400,-0.598,3.825,1.510678,-1.915921,-4.125934,100042.17,+32,-212,+115
53476,9.114,-0.769,4.040,1.541008,-1.907940,-4.330264,100042.17,+32,-212,+115
53486,10.015,-0.994,4.411,1.505357,-1.883995,-4.525548,100041.96,+14,-209,+119
53496,11.018,-0.990,4.626,1.407981,-1.852600,-4.708062,100043.18,-3,-204,+124
53507,12.062,-0.972,4.771,1.316990,-1.792472,-4.875677,100043.18,-23,-199,+126
53516,13.114,-1.399,4.743,1.258990,-1.707867,-5.016685,100041.70,-23,-199,+126
53526,13.988,-2.035,4.604,1.238238,-1.620601,-5.119383,100043.07,-43,-192,+127
53536,14.631,-2.529,4.754,1.198330,-1.530674,-5.184832,100043.07,-60,-183,+129
53547,15.461,-2.797,5.077,1.107871,-1.454050,-5.250814,100043.98,-79,-174,+129
53557,16.223,-2.914,5.145,0.980165,-1.384344,-5.312539,100045.45,-79,-174,+129
53566,16.372,-3.499,5.157,0.801908,-1.291757,-5.332227,100044.25,-96,-163,+129
53576,16.163,-4.667,5.157,0.581082,-1.203959,-5.283273,100042.89,-112,-151,+128
53586,16.126,-5.845,5.379,0.426239,-1.128931,-5.181640,100047.42,-126,-140,+126
53597,16.426,-6.796,5.732,0.402826,-1.037408,-5.068832,100047.42,-126,-140,+126
53607,16.653,-7.740,6.014,0.443266,-0.913427,-4.901750,100046.16,-140,-126,+126
53616,16.529,-8.536,6.138,0.397505,-0.767629,-4.669750,100046.16,-151,-113,+122
53626,15.879,-8.916,6.506,0.226697,-0.587776,-4.385603,100047.47,-161,-102,+122
53637,14.872,-8.949,6.500,0.065468,-0.396216,-4.049842,100047.47,-3,-102,+122
53647,13.560,-9.699,6.061,-0.057981,-0.194014,-3.662467,100047.98,-169,-89,+121
53656,11.998,-11.014,5.364,-0.215486,-0.018418,-3.223476,100049.94,-174,-78,+120
53666,10.448,-11.746,4.745,-0.421412,0.110885,-2.691366,100049.45,-178,-71,+119
53677,9.201,-11.967,4.431,-0.524109,0.225288,-2.056027,100045.52,-180,-66,+119
53687,8.329,-12.211,4.285,-0.516660,0.310958,-1.336615,100045.52,-180,-66,+119
53697,7.977,-12.020,4.224,-0.411302,0.346609,-0.574634,100050.58,-182,-64,+119
53706,8.189,-11.232,4.468,-0.140990,0.380664,0.184155,100048.53,-180,-64,+119
53716,8.660,-10.747,4.869,0.237340,0.446114,0.876430,100045.02,-179,-67,+122
53727,9.963,-9.906,5.267,0.600771,0.530719,1.476117,100045.02,-179,-67,+122
53736,12.766,-3.006,2.694,0.773174,0.583930,1.736319,100045.02,-175,-71,+124
53746,12.265,8.075,-0.564,0.839156,0.462609,1.564980,100049.63,-172,-75,+127
53756,11.955,23.901,-4.315,0.515633,0.403545,0.758301,100047.32,-171,-76,+128
53767,10.367,16.236,-3.669,0.161780,0.389178,0.822687,100046.90,-171,-76,+128
53777,10.166,-4.666,0.115,1.934770,0.630756,1.939230,100047.70,-167,-78,+131
53786,14.245,-6.942,0.018,2.840420,0.627563,2.059310,100047.70,-163,-80,+137
53796,16.286,-1.440,-1.482,1.657541,0.591380,1.914044,100052.68,-159,-83,+140
53807,13.994,-1.972,-2.760,0.441138,0.619049,2.085383,100051.90,-159,-83,+140
53817,13.832,-4.238,-0.965,0.270862,0.724939,2.248741,100050.71,-154,-88,+142
53826,14.833,-3.337,1.844,0.230954,0.865948,2.015145,100050.71,-149,-93,+145
53836,14.493,-1.152,7.219,0.361321,1.035691,1.881053,100049.02,-143,-98,+149
53847,14.936,-0.291,4.319,0.861504,0.988334,2.028447,100048.60,-143,-98,+149
53857,12.325,0.778,0.821,1.054660,0.879251,2.206704,100048.60,-138,-101,+152
53866,7.154,2.069,2.360,0.942917,0.971838,2.297695,100047.96,-132,-105,+156
53876,5.998,2.565,4.288,1.261651,0.983012,2.242356,100047.60,-125,-107,+161
53886,7.552,-0.725,4.809,1.301027,0.781343,2.101346,100047.60,-125,-107,+161
53892,8.882,-3.917,3.991,1.121706,0.591380,2.064099,100050.95,-119,-110,+164
53902,10.242,-4.071,2.257,0.832238,0.431747,1.991200,100049.69,-114,-113,+167
53911,10.829,-2.814,0.740,0.302789,0.383857,1.831035,100050.31,-114,-113,+167
53921,10.762,-2.167,-0.275,-0.051064,0.432279,1.649053,100045.80,-112,-116,+168
53932,11.358,-1.030,-0.875,-0.126091,0.494536,1.493677,100045.80,-106,-119,+168
53942,10.764,-0.047,0.116,-0.073413,0.597765,1.405879,100050.66,-102,-122,+169
53951,10.031,0.636,1.463,0.085688,0.656297,1.330851,100050.15,-102,-122,+169
53961,9.436,0.573,1.943,0.288954,0.646187,1.284026,100050.09,-98,-124,+171
53971,9.214,-0.190,2.392,0.434752,0.620114,1.228686,100047.73,-94,-126,+174
53982,9.360,-1.043,2.870,0.398037,0.596169,1.151531,100047.73,-90,-126,+175
53992,9.343,-1.661,3.048,0.149009,0.536572,1.075971,100049.88,-90,-126,+175
54001,9.578,-1.473,2.818,-0.198990,0.476976,0.957843,100048.77,-86,-129,+176
54011,9.886,-1.023,1.914,-0.492006,0.453031,0.857629,100048.41,-83,-132,+175
54022,9.894,-0.868,1.125,-0.570935,0.460481,0.814705,100047.04,-80,-134,+176
54032,9.858,-0.755,1.159,-0.525706,0.492939,0.783311,100047.04,-80,-134,+176
54041,9.841,-0.795,1.465,-0.430990,0.511563,0.767879,100049.04,-78,-136,+176
54051,9.597,-0.917,1.856,-0.349577,0.514224,0.757237,100051.71,-74,-138,+174
54062,9.457,-1.103,2.283,-0.309669,0.495600,0.733824,100048.41,-72,-141,+175
54072,9.531,-1.355,2.746,-0.306477,0.451435,0.696045,100048.04,-72,-141,+175
54081,9.565,-1.367,2.843,-0.360752,0.398756,0.651347,100048.04,-69,-142,+175
54091,9.416,-1.116,2.897,-0.393211,0.358848,0.611971,100047.53,-66,-144,+174
54102,9.438,-1.021,2.797,-0.327761,0.321600,0.574724,100047.73,-65,-146,+174
54112,9.681,-1.364,2.367,-0.241559,0.291802,0.554503,100049.73,-65,-146,+174
54122,9.772,-1.631,2.282,-0.209101,0.287013,0.519384,100047.27,-63,-146,+174
54131,9.761,-1.575,2.233,-0.226660,0.272646,0.494907,100047.27,-61,-148,+174
54141,9.770,-1.406,2.363,-0.287321,0.269985,0.485861,100047.02,-59,-149,+174
54152,9.641,-1.340,2.441,-0.351706,0.274242,0.497036,100045.13,-59,-149,+174
54162,9.490,-1.127,2.412,-0.405449,0.281692,0.515659,100046.54,-57,-150,+173
54171,9.587,-0.986,2.254,-0.410770,0.279031,0.551311,100044.55,-55,-152,+172
54181,9.882,-1.197,2.072,-0.362880,0.282224,0.596008,100044.55,-53,-153,+171
54192,9.887,-1.158,2.093,-0.374587,0.302444,0.665182,100049.05,-53,-153,+171
54202,9.833,-1.037,2.334,-0.407045,0.318939,0.739678,100047.90,-50,-155,+172
54211,9.690,-0.398,2.797,-0.433651,0.329050,0.817366,100046.32,-47,-158,+170
54221,9.691,0.348,3.508,-0.355963,0.326921,0.899843,100044.43,-45,-159,+171
54232,10.149,-0.805,3.150,-0.221339,0.312554,1.008925,100044.43,-45,-159,+171
54242,10.318,-2.292,2.680,-0.260715,0.321600,1.079164,100047.58,-41,-162,+170
54252,10.241,-2.244,2.419,-0.354366,0.310426,1.102576,100048.16,-38,-163,+169
54261,10.084,-1.925,2.616,-0.424605,0.326389,1.133971,100046.11,-33,-164,+169
54272,10.334,-2.088,2.648,-0.442165,0.324793,1.173879,100045.38,-33,-164,+169
54282,10.397,-2.107,2.610,-0.478348,0.329582,1.222301,100045.38,-29,-167,+168
54292,10.446,-2.290,2.272,-0.509743,0.312554,1.295200,100049.91,-25,-169,+166
54301,11.057,-2.107,1.973,-0.556036,0.283820,1.373952,100047.40,-20,-172,+165
54311,11.721,-2.288,1.761,-0.557100,0.266261,1.453769,100046.20,-14,-172,+165
54322,12.011,-2.441,1.578,-0.563486,0.263068,1.566576,100047.77,-14,-174,+165
54332,12.695,-2.181,1.513,-0.535284,0.263068,1.661824,100047.77,-9,-176,+163
54342,13.030,-2.350,1.243,-0.472495,0.283820,1.763457,100048.13,-3,-178,+162
54351,12.824,-2.178,1.194,-0.488990,0.299251,1.894888,100046.18,+2,-181,+161
54362,13.036,-1.433,1.416,-0.512403,0.297655,2.041750,100044.04,+2,-181,+161
54372,13.418,-1.214,1.655,-0.503357,0.298719,2.205640,100046.40,+9,-183,+159
54381,13.388,-1.030,2.023,-0.467706,0.266793,2.386025,100046.40,+16,-184,+158
54391,13.811,-0.976,2.524,-0.452275,0.224224,2.552576,100049.45,+25,-186,+157
54402,15.285,-0.922,2.759,-0.532623,0.178995,2.680814,100049.18,+25,-186,+157
54412,16.806,-0.179,2.803,-0.717265,0.167820,2.757438,100046.93,+35,-188,+155
54422,17.469,0.409,1.512,-0.996091,0.248701,2.820759,100044.46,+45,-189,+152
54431,17.372,0.265,-0.372,-1.445724,0.360976,2.846300,100044.46,+55,-192,+147
54441,17.820,1.036,-2.084,-1.967191,0.346609,2.809585,100048.45,+55,-192,+147
54452,18.815,2.879,-2.656,-2.408842,0.275839,2.735621,100046.31,+64,-196,+141
54462,19.342,5.116,-1.869,-2.544530,0.190701,2.636649,100046.36,+73,-199,+132
54471,18.339,5.906,0.609,-1.926751,0.136426,2.609511,100047.09,+82,-200,+127
54481,18.279,0.171,3.536,-0.869981,0.127912,3.112355,100047.09,+82,-200,+127
54492,19.693,-6.794,5.345,-0.129816,0.097050,3.907327,100048.46,+94,-198,+127
54502,20.743,-8.303,5.376,-0.049468,0.024151,4.197327,100044.79,+108,-194,+126
54512,18.877,-4.020,5.847,-0.085651,0.050224,3.979162,100045.46,+121,-190,+125
54521,17.638,1.375,6.739,0.103780,0.041710,3.604024,100044.95,+121,-190,+125
54532,13.489,6.475,6.136,0.624715,0.036921,3.076704,100044.95,+132,-186,+126
54542,8.002,7.486,3.925,1.102550,-0.106216,2.550979,100048.48,+140,-181,+128
54552,4.770,2.263,6.074,1.178110,-0.221684,2.341328,100045.65,+147,-176,+132
54561,4.664,-4.964,7.202,1.209504,-0.421225,2.050796,100045.23,+147,-176,+132
54572,7.521,-3.206,3.929,1.358495,-0.712821,1.243585,100046.07,+150,-172,+135
54582,7.192,1.429,1.747,0.850862,-0.816583,0.470430,100046.07,+151,-169,+137
54592,5.532,3.377,1.325,0.280973,-0.889482,0.177238,100047.80,+150,-168,+140
54601,4.077,3.234,1.304,0.187853,-1.029959,-0.085625,100046.17,+150,-168,+140
54611,2.947,2.080,1.098,0.295340,-1.203426,-0.412340,100046.48,+147,-168,+141
54622,2.368,0.421,1.370,0.411339,-1.336986,-0.711918,100044.59,+143,-168,+144
54632,2.502,-0.608,1.960,0.525211,-1.448197,-1.038633,100044.59,+137,-168,+146
54642,2.761,-0.725,2.319,0.583211,-1.575903,-1.408450,100047.09,+137,-168,+146
54651,3.089,-0.316,2.569,0.627908,-1.690307,-1.774541,100047.94,+130,-169,+149
54662,3.525,0.171,2.700,0.726881,-1.786087,-2.109770,100046.56,+120,-170,+152
54672,3.932,0.548,2.914,0.868954,-1.871224,-2.419458,100041.47,+110,-171,+157
54682,4.339,0.571,3.153,1.041890,-1.932417,-2.724889,100041.47,+110,-171,+157
54691,4.949,0.270,3.404,1.197798,-1.993610,-3.022871,100045.95,+98,-171,+161
54702,5.478,-0.337,3.727,1.311669,-2.036710,-3.292118,100041.97,+84,-170,+164
54712,5.721,-0.994,4.062,1.344660,-2.052674,-3.527311,100041.97,+70,-168,+169
54717,5.765,-1.262,4.341,1.343064,-2.054270,-3.701843,100041.34,+70,-168,+169
54727,5.894,-1.162,4.580,1.324440,-2.056931,-3.880631,100041.34,+55,-166,+173
54736,6.342,-0.818,4.751,1.324972,-2.046288,-4.115824,100041.34,+38,-164,+176
54747,6.963,-0.330,4.923,1.426073,-2.014362,-4.344099,100044.07,+38,-164,+176
54757,7.971,-0.082,5.248,1.582513,-1.978178,-4.539383,100041.45,+22,-160,+179
54767,9.058,-0.410,5.577,1.728311,-1.944655,-4.697952,100043.23,+5,-154,+183
54777,10.028,-0.995,5.700,1.777265,-1.923903,-4.828851,100043.23,-11,-147,+184
54787,10.983,-1.530,5.688,1.696385,-1.920178,-4.964007,100046.05,-11,-147,+184
54797,12.058,-1.922,5.801,1.584642,-1.906343,-5.116722,100046.05,-27,-139,+186
54807,13.103,-2.228,6.050,1.555908,-1.882931,-5.257199,100045.10,-44,-130,+188
54817,14.063,-2.533,6.439,1.571339,-1.841958,-5.356704,100044.27,-60,-120,+189
54827,14.999,-3.764,6.803,1.641045,-1.789279,-5.417364,100045.74,-60,-120,+189
54837,15.726,-5.736,6.959,1.605926,-1.720105,-5.451952,100045.74,-75,-108,+189
54847,15.837,-7.275,7.008,1.326036,-1.673279,-5.443438,100047.49,-88,-96,+189
54857,15.430,-7.679,7.009,1.037633,-1.639757,-5.414172,100047.40,-102,-84,+188
54867,15.415,-7.348,7.384,0.932275,-1.530674,-5.342337,100045.45,-102,-84,+188
54877,15.660,-7.221,7.768,0.990807,-1.358803,-5.199199,100043.96,-113,-72,+186
54887,15.799,-7.385,7.774,1.061578,-1.185867,-5.024135,100046.80,-123,-60,+185
54897,15.558,-7.442,7.915,1.073816,-1.003885,-4.821401,100043.38,-130,-47,+184
54907,15.288,-7.653,7.526,1.044018,-0.808601,-4.582484,100046.12,-130,-47,+184
54917,14.724,-8.433,7.301,1.003046,-0.621831,-4.270135,100046.12,-137,-34,+184
54927,13.696,-10.869,8.219,1.016880,-0.366418,-3.834338,100043.02,-142,-23,+184
54937,12.500,-13.902,8.620,0.962073,-0.089189,-3.301696,100043.02,-145,-13,+184
54947,11.240,-16.249,8.328,0.784881,0.201343,-2.622724,100048.34,-145,-13,+184
54957,9.568,-18.142,7.347,0.570440,0.461545,-1.800614,100046.81,-145,-7,+188
54967,8.171,-18.109,6.317,0.354936,0.614793,-0.871551,100045.66,-145,-2,+188
54977,7.781,-16.815,6.557,0.338440,0.654701,0.078797,100047.19,-144,-3,+191
54987,10.663,-14.209,6.733,0.501266,0.683967,0.890797,100047.19,-141,-3,+191
54998,12.347,-9.157,4.428,0.560862,0.763251,1.468136,100046.26,-141,-6,+193
55007,11.559,-0.199,0.086,0.813082,0.729728,1.792191,100047.57,-138,-8,+196
55017,14.285,22.741,-7.023,0.143156,0.439196,0.854081,100047.57,-136,-10,+198
55027,12.163,15.205,-5.845,-0.434183,0.445582,0.877494,100047.57,-135,-14,+200
55036,13.377,-6.005,-1.897,1.363816,0.728664,2.208833,100047.57,-135,-14,+200
55047,22.401,-9.651,-3.017,2.171026,0.815398,2.407310,100049.57,-130,-15,+204
55057,22.771,-6.798,-1.918,0.240532,0.937251,2.406245,100050.37,-126,-19,+206
55067,14.182,-6.744,3.023,-0.746531,1.137856,2.482337,100049.79,-119,-28,+209
55077,15.335,-4.432,8.071,-0.119706,1.360278,2.229053,100048.10,-119,-28,+209
55087,18.575,-0.010,1.895,0.749761,1.275673,2.230117,100048.10,-114,-32,+212
55097,11.651,-0.363,2.361,0.736991,1.304407,2.506282,100046.89,-108,-35,+215
55107,3.913,-0.995,3.785,0.702936,1.308664,2.379108,100048.38,-102,-38,+219
55117,6.329,0.324,4.637,0.981761,1.013343,2.094429,100045.17,-102,-38,+219
55128,10.057,-1.375,3.420,0.919504,0.663215,1.990135,100045.17,-97,-38,+221
55137,10.473,-3.573,2.228,0.578954,0.505178,1.854447,100049.52,-93,-40,+223
55147,11.104,-3.458,1.020,0.135707,0.405141,1.618723,100049.52,-90,-44,+224
55157,11.588,-2.027,-0.364,-0.257523,0.359380,1.402154,100046.47,-90,-44,+224
55166,11.059,-0.010,-0.809,-0.351706,0.433875,1.220705,100048.20,-88,-46,+225
55177,10.165,0.936,0.003,-0.237302,0.532848,1.121200,100048.53,-85,-50,+225
55188,9.428,0.929,1.153,-0.043614,0.583221,1.074729,100051.09,-82,-52,+226
55197,9.186,0.768,1.474,0.076642,0.563178,1.054687,100051.09,-82,-52,+226
55207,9.483,0.499,1.360,0.176679,0.533912,1.020632,100045.04,-79,-53,+228
55218,9.779,0.164,1.917,0.235211,0.525398,0.972742,100047.62,-77,-54,+228
55227,9.517,-0.286,2.522,0.147945,0.506774,0.945604,100046.68,-73,-56,+230
55237,9.517,-0.485,2.764,-0.112257,0.461545,0.908356,100049.41,-73,-56,+230
55247,9.664,0.088,2.472,-0.350110,0.420572,0.827476,100048.88,-70,-58,+230
55258,9.185,0.494,1.677,-0.347981,0.429086,0.758834,100047.94,-68,-60,+230
55267,9.181,-0.246,1.189,-0.219211,0.455160,0.732228,100047.94,-66,-62,+230
55277,9.842,-1.080,0.860,-0.120770,0.457820,0.741274,100048.14,-66,-62,+230
55287,10.250,-0.874,1.116,-0.095229,0.456224,0.743402,100048.14,-63,-64,+231
55298,9.951,-0.466,1.698,-0.115449,0.450371,0.763623,100047.91,-61,-66,+232
55307,9.532,-0.405,2.084,-0.083523,0.443985,0.730632,100047.59,-58,-66,+232
55317,9.268,-0.799,2.312,-0.020202,0.421637,0.699769,100047.80,-58,-66,+232
55327,9.385,-0.829,2.404,-0.022330,0.382261,0.682210,100044.59,-55,-68,+233
55337,9.861,-0.807,2.452,-0.036697,0.349270,0.667311,100044.59,-54,-68,+234
55348,10.094,-1.124,2.285,-0.044146,0.317343,0.655604,100048.57,-52,-70,+233
55357,10.029,-1.214,2.001,-0.088312,0.300316,0.637513,100047.93,-52,-70,+233
55367,9.908,-1.342,1.616,-0.123963,0.299251,0.614632,100045.77,-51,-71,+235
55377,9.884,-1.200,1.346,-0.127156,0.304040,0.598136,100045.77,-48,-72,+234
55387,9.907,-0.977,1.419,-0.106403,0.307233,0.607714,100045.77,-46,-73,+235
55397,9.810,-0.569,1.954,-0.062770,0.314683,0.634320,100047.18,-46,-73,+235
55407,9.424,-0.150,2.422,-0.017541,0.328517,0.688595,100048.98,-44,-74,+235
55417,9.337,-0.111,2.380,0.042587,0.341288,0.765219,100045.20,-42,-75,+236
55422,9.612,-0.984,2.138,0.043652,0.333839,0.835989,100045.98,-42,-75,+236
55432,9.851,-1.146,1.820,-0.005302,0.327985,0.895054,100045.98,-39,-76,+236
55442,10.085,-0.710,1.711,-0.056385,0.350866,0.970613,100048.51,-36,-78,+236
55452,9.992,-0.641,1.832,-0.057981,0.374279,1.056815,100049.35,-33,-79,+236
55462,9.707,-0.826,1.809,-0.039890,0.393967,1.156319,100047.88,-33,-79,+236
55472,9.724,-0.980,1.898,-0.029247,0.405141,1.253696,100045.73,-30,-80,+237
55482,9.951,-1.716,2.060,-0.044146,0.395563,1.347347,100045.73,-27,-81,+237
55492,10.234,-1.895,2.114,-0.154825,0.384389,1.422374,100048.23,-23,-83,+238
55502,10.538,-1.632,2.162,-0.263908,0.370022,1.488356,100047.44,-23,-83,+238
55513,10.731,-1.539,2.139,-0.311266,0.349270,1.566044,100048.28,-19,-86,+237
55522,11.060,-1.607,2.083,-0.333614,0.337031,1.649053,100046.30,-14,-88,+236
55532,11.387,-2.105,1.905,-0.339467,0.330646,1.720888,100046.30,-11,-91,+238
55542,11.598,-2.563,1.528,-0.375651,0.316279,1.787402,100050.90,-11,-91,+238
55553,11.806,-2.590,1.555,-0.428862,0.306169,1.855512,100050.12,-5,-94,+237
55562,12.144,-2.720,1.465,-0.455467,0.279031,1.926814,100046.80,-1,-97,+236
55572,12.253,-2.591,1.180,-0.449082,0.255618,2.005034,100050.37,+3,-100,+236
55582,12.096,-2.343,1.292,-0.401724,0.239123,2.088576,100050.37,+3,-100,+236
55592,12.132,-2.002,1.693,-0.320311,0.198683,2.175310,100047.80,+8,-103,+236
55602,12.319,-1.828,2.052,-0.248477,0.160371,2.264172,100046.87,+12,-104,+235
55612,12.580,-1.911,2.202,-0.229853,0.140683,2.362080,100049.27,+18,-107,+235
55622,13.226,-1.723,2.199,-0.314458,0.098114,2.477016,100046.91,+18,-107,+235
55632,14.871,-1.135,2.425,-0.452275,-0.001391,2.595144,100046.91,+23,-108,+235
55643,16.728,-0.344,2.375,-0.660330,-0.047152,2.713273,100048.12,+30,-112,+235
55652,17.875,0.567,1.304,-0.925852,-0.031189,2.809052,100048.23,+36,-116,+233
55662,18.707,2.335,0.405,-1.234476,-0.030125,2.902172,100048.16,+36,-116,+233
55672,19.430,4.977,-0.029,-1.413265,-0.085464,3.022429,100046.27,+42,-120,+231
55683,19.937,6.993,0.053,-1.467008,-0.136014,3.188447,100046.27,+50,-125,+228
55692,20.352,8.902,0.891,-1.613870,-0.118987,3.376813,100050.15,+58,-129,+225
55702,19.686,9.854,2.332,-1.565448,-0.088657,3.551346,100048.62,+58,-129,+225
55712,20.271,4.503,4.756,-0.788568,-0.138675,3.858373,100048.04,+67,-134,+225
55723,21.237,-4.190,5.421,0.185725,-0.151446,4.582042,100045.21,+78,-134,+225
55732,20.447,-8.307,4.619,0.569908,-0.046620,4.888005,100045.21,+90,-131,+228
55742,18.409,-7.586,4.640,0.471468,0.083747,4.611309,100049.77,+103,-127,+231
55752,18.302,-3.830,4.663,0.395908,0.178463,4.121768,100050.66,+103,-127,+231
55762,15.969,2.227,5.051,1.081798,0.230077,3.208135,100045.30,+112,-122,+234
55773,8.798,5.242,3.822,1.641577,0.049692,2.550447,100048.81,+118,-115,+239
55778,6.747,4.419,2.892,1.774073,-0.185501,2.070484,100048.81,+118,-115,+239
55787,4.559,-2.747,5.486,1.858146,-0.109941,1.756007,100048.81,+121,-108,+245
55797,5.618,-5.988,5.004,1.797485,-0.374400,1.626172,100049.67,+123,-100,+252
55808,6.961,-0.365,1.333,1.302091,-0.606932,0.680081,100048.16,+123,-100,+252
55818,5.716,3.426,0.621,0.727413,-0.667060,0.170320,100048.97,+120,-95,+256
55827,3.759,3.622,0.692,0.508183,-0.755922,-0.118083,100048.97,+115,-94,+260
55837,2.207,2.110,0.817,0.586404,-0.876711,-0.437881,100048.41,+108,-90,+263
55847,1.567,0.316,0.875,0.644936,-1.010271,-0.787477,100048.73,+108,-90,+263
55858,1.566,-0.522,1.238,0.615670,-1.140105,-1.169000,100048.73,+100,-88,+267
55867,1.797,-0.555,1.497,0.540642,-1.265683,-1.587770,100047.79,+89,-86,+269
55877,2.043,-0.185,1.617,0.454972,-1.394986,-1.991110,100046.15,+77,-83,+270
55887,2.386,0.481,1.443,0.386330,-1.499812,-2.395513,100046.15,+77,-83,+270
55898,2.915,0.678,1.061,0.390055,-1.570050,-2.764797,100049.26,+63,-81,+271
55908,3.475,0.297,0.857,0.441138,-1.622729,-3.090981,100047.37,+48,-78,+268
55917,3.900,-0.316,0.778,0.467211,-1.656252,-3.389494,100045.99,+33,-74,+266
55927,4.312,-0.739,0.900,0.475725,-1.666894,-3.666723,100042.90,+18,-71,+262
55938,4.623,-0.872,1.289,0.537982,-1.641885,-3.938632,100045.99,+18,-71,+262
55948,5.175,-1.055,1.780,0.637486,-1.618472,-4.221181,100042.79,+4,-66,+258
55957,5.836,-1.315,2.236,0.718367,-1.602509,-4.474998,100042.79,-9,-62,+252
55967,6.489,-1.308,2.658,0.710917,-1.602509,-4.716576,100040.37,-21,-56,+246
55977,7.352,-1.096,2.974,0.714642,-1.587078,-4.954961,100040.37,-21,-56,+246
55988,8.583,-0.828,3.111,0.768917,-1.559940,-5.180043,100040.37,-33,-51,+240
55997,9.937,-0.904,3.101,0.861504,-1.522692,-5.354043,100045.26,-44,-46,+235
56007,11.081,-1.506,3.029,0.958880,-1.483316,-5.497713,100044.52,-53,-40,+230
56012,11.892,-1.947,2.904,1.020605,-1.461500,-5.591896,100041.74,-53,-40,+230
56023,12.793,-2.416,2.822,1.078605,-1.452986,-5.687144,100044.52,-63,-32,+228
56033,13.999,-3.349,3.007,1.142458,-1.461500,-5.801548,100044.52,-63,-32,+228
56042,15.172,-4.416,3.393,1.175449,-1.490234,-5.886153,100044.52,-73,-24,+225
56052,16.275,-5.088,3.711,1.161082,-1.539720,-5.967033,100042.16,-82,-15,+221
56062,17.321,-5.660,3.714,1.063174,-1.619004,-6.021309,100045.10,-92,-5,+218
56073,18.453,-6.304,3.678,0.923761,-1.713188,-6.029290,100046.15,-92,-5,+218
56082,19.524,-7.176,4.234,0.756679,-1.791408,-5.960648,100046.15,-101,+6,+215
56092,19.902,-7.967,5.714,0.592257,-1.794600,-5.788245,100048.72,-110,+18,+212
56102,19.129,-8.495,7.410,0.499670,-1.657848,-5.514740,100047.56,-117,+28,+209
56113,17.759,-9.164,9.036,0.499670,-1.370509,-5.214098,100045.20,-117,+28,+209
56123,16.949,-10.212,9.751,0.513505,-0.986858,-4.900154,100046.00,-122,+41,+206
56132,16.344,-11.697,9.182,0.385798,-0.582454,-4.521291,100046.00,-124,+51,+205
56142,15.070,-13.389,6.755,0.042055,-0.278620,-4.107310,100049.40,-126,+60,+206
56153,13.236,-15.205,5.512,-0.251669,-0.082803,-3.639586,100047.77,-126,+60,+206
56163,11.203,-16.701,5.829,-0.268165,0.041178,-3.017550,100046.71,-125,+68,+206
56172,9.469,-18.986,7.329,-0.172385,0.207196,-2.184798,100046.88,-125,+72,+206
56182,9.445,-20.489,7.926,-0.208568,0.327453,-1.203587,100046.88,-123,+74,+207
56193,10.647,-17.777,7.835,-0.218678,0.430150,-0.129790,100051.73,-123,+74,+208
56203,7.783,-15.335,7.662,0.334716,0.547215,0.931237,100048.62,-123,+74,+208
56212,9.217,-8.760,7.070,0.989211,0.657893,1.670870,100046.52,-123,+72,+210
56222,13.835,16.509,-1.853,0.615137,0.408334,1.198356,100047.15,-123,+70,+211
56232,12.345,20.508,-3.665,-0.937027,0.441325,0.370925,100047.15,-120,+66,+213
56243,9.865,-1.539,-1.950,0.049505,0.652572,1.456962,100049.56,-120,+66,+213
56248,17.101,-6.153,-2.612,1.616568,0.676517,1.959805,100048.00,-120,+66,+215
56257,23.895,-2.410,-4.151,1.149908,0.681838,1.814539,100048.00,-120,+66,+215
56267,17.611,-2.270,-2.356,-0.697577,0.818591,2.019934,100049.52,-119,+62,+216
56278,10.069,-2.013,11.240,-1.017907,1.191067,2.216814,100049.05,-116,+54,+218
56288,14.579,-1.424,17.358,0.222973,1.542792,1.809750,100045.84,-112,+49,+223
56298,20.438,-2.925,2.214,1.873045,1.001104,1.445255,100047.36,-112,+49,+223
56307,12.872,-6.271,-1.593,1.679889,0.975031,1.444191,100049.98,-110,+53,+223
56317,8.236,-1.502,-1.806,1.146183,1.069214,1.401090,100047.58,-106,+54,+225
56328,11.373,-0.917,1.392,1.017413,0.914370,1.276576,100047.58,-104,+54,+228
56337,10.103,-2.110,2.567,0.708257,0.720682,1.168026,100047.58,-104,+54,+228
56347,9.462,0.803,2.740,0.400697,0.586591,0.942411,100048.05,-103,+54,+228
56357,9.481,2.749,2.758,0.273523,0.506242,0.883347,100049.41,-101,+53,+230
56368,9.202,1.717,1.651,0.246385,0.425894,0.847164,100046.05,-99,+52,+231
56378,10.055,1.237,0.644,0.232018,0.406738,0.818430,100048.36,-98,+52,+231
56388,9.957,2.353,0.557,0.167101,0.437600,0.883347,100048.36,-98,+52,+231
56397,9.283,4.037,1.055,0.200092,0.503049,0.976466,100054.20,-97,+49,+233
56408,8.862,4.242,1.213,0.284165,0.559453,1.091402,100047.87,-94,+48,+234
56418,9.312,3.273,1.321,0.346422,0.605747,1.211127,100046.41,-93,+46,+235
56428,9.622,1.471,1.931,0.224569,0.613196,1.284558,100046.41,-93,+46,+235
56437,9.379,0.592,2.251,-0.049468,0.547747,1.296264,100050.48,-91,+44,+235
56448,9.332,1.364,2.227,-0.305945,0.483894,1.281897,100050.48,-90,+41,+236
56458,9.366,1.913,1.895,-0.309137,0.460481,1.252099,100048.55,-88,+37,+237
56468,9.767,0.785,1.109,-0.199523,0.449306,1.246778,100051.17,-88,+37,+237
56477,10.223,0.184,0.496,-0.183559,0.450903,1.258485,100048.06,-87,+35,+238
56483,10.194,0.404,0.536,-0.217082,0.476444,1.273384,100048.06,-87,+35,+238
56493,9.979,0.429,0.805,-0.228789,0.510499,1.269659,100050.02,-85,+32,+240
56503,9.611,-0.075,1.477,-0.255926,0.540297,1.232943,100047.93,-83,+28,+241
56513,9.560,-0.319,2.108,-0.360752,0.528059,1.183457,100045.20,-80,+26,+242
56522,10.003,-0.569,2.136,-0.530495,0.482829,1.133439,100048.71,-80,+26,+242
56532,10.338,-1.081,2.083,-0.687999,0.458352,1.066925,100048.71,-79,+20,+242
56543,10.060,-1.092,2.059,-0.901907,0.455160,0.994026,100049.91,-79,+16,+242
56553,8.991,1.295,3.093,-0.954586,0.475380,0.903035,100048.13,-75,+12,+243
56562,8.719,1.623,2.994,-0.659797,0.414187,0.868980,100047.44,-75,+12,+243
56572,9.349,0.330,2.082,-0.404385,0.391306,0.918466,100045.61,-73,+8,+243
56583,9.948,-0.095,1.965,-0.358091,0.393435,0.963696,100045.61,-72,+6,+245
56593,10.024,-0.064,2.109,-0.312330,0.392371,0.984980,100047.14,-69,+3,+245
56602,9.773,-0.139,2.167,-0.346917,0.407802,1.010521,100046.20,-69,+3,+245
56612,9.526,0.281,2.312,-0.355963,0.401949,1.052558,100044.98,-68,+0,+247
56623,9.633,-0.010,2.211,-0.309669,0.401416,1.112687,100045.94,-67,-2,+245
56633,9.800,-0.561,1.828,-0.288917,0.412059,1.166962,100045.94,-64,-4,+246
56643,9.855,-0.533,1.979,-0.299559,0.414719,1.213255,100048.55,-62,-8,+247
56652,9.885,-0.125,2.276,-0.283064,0.427490,1.262209,100046.87,-62,-8,+247
56663,9.907,-0.605,2.507,-0.247945,0.438664,1.301585,100044.82,-60,-10,+247
56673,9.866,-0.908,2.622,-0.270825,0.435472,1.340962,100043.71,-58,-13,+247
56683,9.864,-0.931,2.734,-0.311266,0.430683,1.377677,100043.71,-55,-16,+248
56692,9.776,-0.938,2.938,-0.352770,0.428022,1.421310,100049.27,-55,-16,+248
56702,9.839,-0.847,2.992,-0.382568,0.424297,1.472393,100047.22,-52,-20,+249
56713,9.883,-0.859,3.158,-0.365009,0.415251,1.506448,100047.27,-49,-23,+248
56718,9.952,-0.992,3.175,-0.322440,0.400884,1.542631,100047.11,-49,-23,+248
56727,10.400,-1.807,2.941,-0.299027,0.390242,1.560191,100047.11,-46,-27,+250
56737,10.556,-2.548,2.379,-0.327229,0.382261,1.583604,100047.11,-44,-30,+250
56748,10.905,-2.430,2.172,-0.417155,0.372683,1.602227,100047.55,-44,-30,+250
56758,11.469,-2.506,1.986,-0.472495,0.365233,1.623512,100047.70,-42,-32,+250
56768,11.507,-2.465,1.576,-0.496440,0.371086,1.660227,100046.88,-38,-37,+250
56778,11.610,-2.196,1.190,-0.466642,0.356187,1.724613,100046.88,-36,-40,+250
56787,11.870,-2.247,0.897,-0.376715,0.329582,1.815603,100050.16,-36,-40,+250
56798,12.181,-2.185,1.006,-0.282532,0.311490,1.924686,100050.16,-32,-44,+250
56808,12.454,-2.190,1.526,-0.236770,0.296059,2.051328,100047.22,-29,-46,+250
56818,12.890,-2.153,2.238,-0.265504,0.276903,2.169456,100045.86,-25,-50,+250
56827,13.328,-1.631,2.623,-0.353834,0.267857,2.276411,100048.59,-25,-50,+250
56839,14.058,-1.161,2.603,-0.411834,0.245154,2.395071,100047.20,-20,-54,+250
56848,15.092,-0.702,2.490,-0.440568,0.185912,2.522777,100047.20,-16,-57,+249
56858,16.214,-0.210,2.452,-0.541137,0.153985,2.687731,100046.84,-12,-62,+249
56868,17.336,0.118,1.402,-0.738018,0.187508,2.837786,100045.38,-7,-66,+248
56878,18.835,0.631,-0.370,-1.030678,0.203472,2.968153,100045.16,-7,-66,+248
56888,21.447,3.086,-1.728,-1.457430,0.126316,3.074575,100048.52,-3,-74,+247
56898,23.286,7.133,-2.231,-1.694219,0.043839,3.176740,100049.56,+2,-81,+245
56908,23.082,11.096,-2.046,-1.847466,0.052352,3.324667,100046.05,+8,-89,+243
56918,20.805,11.087,-1.562,-1.949099,0.057141,3.459291,100046.05,+8,-89,+243
56928,17.954,6.542,0.168,-1.712311,0.029472,3.453437,100045.11,+14,-97,+240
56938,19.852,-3.762,3.354,-0.903504,0.004995,3.805694,100045.11,+22,-103,+238
56948,20.183,-7.634,5.548,-0.476220,-0.057794,4.341529,100045.74,+30,-104,+238
56957,19.098,-4.671,7.319,0.073450,-0.114198,4.223401,100045.16,+30,-104,+238
56968,18.637,-2.568,6.299,0.767853,0.001802,4.069088,100046.59,+39,-104,+239
56978,16.196,1.421,4.907,1.303155,0.185380,3.660428,100044.91,+47,-101,+242
56988,10.367,4.919,3.930,1.807595,0.087472,2.778190,100044.91,+51,-96,+245
56998,5.075,5.245,3.172,1.628807,-0.216895,1.936392,100047.69,+51,-96,+245
57008,2.785,-2.881,6.858,1.123302,-0.390363,1.996521,100048.50,+54,-91,+248
57018,5.795,-3.616,4.939,1.312201,-0.722931,1.509108,100046.86,+55,-87,+250
57028,6.429,1.707,2.118,0.926422,-0.963977,0.404448,100046.86,+53,-84,+252
57037,5.362,5.004,1.983,0.419321,-1.059757,-0.087753,100046.86,+53,-84,+252
57048,4.134,5.053,2.211,0.280973,-1.169904,-0.364450,100051.45,+47,-83,+254
57058,2.708,3.317,1.987,0.400165,-1.339647,-0.625184,100053.07,+41,-82,+254
57068,1.589,1.192,1.826,0.423578,-1.505133,-0.867294,100046.66,+35,-82,+255
57077,1.425,0.268,1.983,0.410807,-1.657848,-1.231789,100049.18,+35,-82,+255
57088,2.225,0.484,2.385,0.405486,-1.806307,-1.689936,100049.18,+26,-80,+257
57098,3.232,0.893,2.502,0.368239,-1.956894,-2.097000,100049.72,+14,-78,+256
57108,3.753,1.425,2.301,0.403890,-2.093114,-2.471073,100049.14,+3,-76,+256
57118,4.119,1.611,2.312,0.566715,-2.185169,-2.798852,100044.70,+3,-76,+256
57127,4.746,1.155,2.411,0.829578,-2.246894,-3.101091,100044.70,-9,-70,+256
57138,5.535,0.188,2.497,1.041890,-2.297976,-3.372999,100045.67,-23,-65,+256
57148,6.038,-0.739,2.587,1.147247,-2.344270,-3.616173,100045.67,-38,-56,+255
57158,6.313,-1.093,2.846,1.152036,-2.376729,-3.855090,100042.11,-38,-56,+255
57167,6.688,-0.982,3.272,1.119578,-2.387903,-4.096668,100042.80,-51,-48,+254
57178,7.265,-0.768,3.836,1.131816,-2.364490,-4.336649,100042.69,-64,-37,+252
57188,7.831,-0.708,4.295,1.201522,-2.316068,-4.575035,100042.69,-77,-26,+250
57198,8.564,-0.817,4.591,1.245688,-2.241040,-4.802245,100041.91,-77,-26,+250
57208,9.548,-0.965,4.700,1.261119,-2.158031,-5.029456,100040.95,-89,-13,+248
57218,10.731,-0.965,4.911,1.255798,-2.093114,-5.251878,100040.84,-101,+2,+245
57228,11.935,-0.996,4.980,1.238238,-2.048417,-5.459401,100043.84,-109,+18,+241
57238,13.009,-1.140,5.267,1.197266,-1.990949,-5.641914,100042.31,-109,+18,+241
57248,14.038,-1.499,5.588,1.193009,-1.904215,-5.802612,100041.16,-117,+36,+237
57259,14.947,-2.482,5.844,1.289853,-1.788747,-5.952667,100040.53,-123,+54,+233
57268,16.010,-3.983,5.823,1.372330,-1.673279,-6.076116,100040.53,-126,+72,+229
57278,17.339,-5.800,5.509,1.336678,-1.550894,-6.147419,100038.22,-126,+72,+229
57288,18.646,-7.437,4.683,1.032312,-1.503004,-6.177217,100038.22,-126,+92,+225
57297,19.050,-7.850,3.992,0.718367,-1.513114,-6.193712,100043.72,-125,+110,+220
57309,19.281,-7.895,4.840,0.475725,-1.457952,-6.078954,100045.52,-123,+126,+216
57318,18.980,-8.163,6.833,0.327798,-1.330069,-5.859548,100045.52,-121,+126,+213
57328,17.558,-8.951,9.541,0.182532,-1.094344,-5.538153,100045.77,-121,+141,+213
57338,16.929,-9.699,11.031,0.102184,-0.757519,-5.158227,100045.77,-115,+154,+211
57349,17.021,-11.028,10.316,0.075578,-0.411115,-4.679860,100048.80,-109,+165,+210
57358,15.391,-13.014,8.509,0.006936,-0.144528,-4.071126,100043.52,-103,+174,+210
57368,12.398,-14.806,6.923,0.035670,0.031068,-3.371403,100046.87,-103,+174,+210
57378,10.380,-17.858,6.864,0.271395,0.226352,-2.487036,100046.87,-97,+179,+208
57388,9.159,-22.562,7.991,0.449119,0.439728,-1.389294,100046.87,-94,+184,+210
57398,8.535,-23.338,8.503,0.362385,0.541361,-0.272395,100048.89,-93,+185,+210
57408,9.736,-18.317,8.835,0.333651,0.604150,0.764687,100046.02,-93,+185,+210
57418,13.314,-9.350,7.292,0.593853,0.753673,1.625640,100046.33,-93,+184,+210
57427,10.693,1.770,1.645,0.870018,0.746224,1.875732,100046.91,-95,+182,+210
57438,14.062,28.814,-5.994,0.225633,0.417380,0.630063,100046.91,-94,+182,+211
57448,11.370,21.364,-2.812,-0.530495,0.524866,0.200650,100047.35,-94,+182,+211
57458,10.886,-9.468,0.435,1.659137,0.936187,1.602227,100048.55,-94,+180,+212
57468,19.248,-10.401,-3.323,3.184163,0.899471,1.715567,100046.38,-93,+186,+208
57478,21.425,-1.604,-5.103,0.800844,0.784536,1.511769,100046.38,-95,+184,+210
57488,14.766,-2.810,-4.438,-0.689596,0.932462,2.027915,100050.45,-95,+184,+210
57498,13.560,-2.840,-1.858,-0.647027,1.068682,2.052392,100047.25,-96,+177,+214
57508,12.427,-0.472,4.362,-0.690660,1.204370,1.806026,100047.25,-96,+172,+216
57518,9.630,0.827,15.224,-0.243688,1.497030,1.607549,100046.52,-95,+168,+220
57528,14.045,2.285,8.859,1.125963,1.318774,1.406943,100044.63,-95,+168,+220
57538,14.266,-0.180,1.207,1.899118,1.021856,1.421310,100044.63,-93,+170,+219
57543,9.742,-2.766,-0.340,1.722990,1.056444,1.447916,100048.91,-93,+173,+218
57553,9.982,-1.467,-0.452,1.647963,1.034095,1.421842,100050.80,-93,+173,+218
57563,10.479,-2.340,1.560,1.209504,0.898939,1.339897,100048.48,-91,+174,+218
57573,9.758,-2.430,1.549,0.709853,0.682903,1.180264,100050.22,-92,+174,+218
57583,10.766,0.686,0.973,0.271927,0.569031,1.036063,100050.22,-91,+173,+219
57593,10.005,2.207,0.219,0.011193,0.591380,1.097255,100049.40,-91,+173,+219
57603,9.617,1.277,-0.024,-0.000513,0.607343,1.127053,100049.24,-92,+170,+220
57613,10.521,1.343,0.410,0.060679,0.623838,1.083953,100049.04,-91,+167,+222
57623,10.461,2.014,0.742,0.121872,0.652572,1.104173,100048.51,-92,+166,+223
57633,9.749,1.831,0.916,0.142092,0.677049,1.157916,100048.51,-92,+166,+223
57644,9.184,1.471,1.045,0.031413,0.662682,1.185585,100049.59,-92,+164,+223
57653,9.344,1.366,1.499,-0.146844,0.642462,1.196760,100048.90,-92,+161,+226
57663,9.416,1.206,1.877,-0.349577,0.606811,1.193567,100048.01,-92,+158,+227
57673,9.316,1.257,1.917,-0.468770,0.562114,1.174943,100047.54,-92,+158,+227
57683,9.272,1.824,1.684,-0.462385,0.537637,1.173879,100047.54,-91,+154,+229
57693,9.513,1.796,1.312,-0.313926,0.536572,1.193567,100048.27,-92,+150,+230
57703,9.888,1.022,0.960,-0.154293,0.541893,1.239329,100047.27,-92,+147,+231
57713,9.833,0.524,0.835,-0.119706,0.569031,1.273384,100046.73,-92,+147,+231
57723,9.697,-0.045,1.279,-0.171321,0.590848,1.277640,100046.58,-93,+144,+233
57733,9.849,-0.179,1.811,-0.271357,0.568499,1.254228,100046.58,-92,+142,+234
57743,9.797,0.164,1.972,-0.326697,0.550939,1.204741,100048.98,-91,+137,+236
57753,9.633,0.161,2.076,-0.319779,0.539233,1.157916,100049.77,-91,+137,+236
57763,9.730,-0.231,2.159,-0.291045,0.516884,1.116411,100047.88,-91,+134,+237
57774,9.845,-0.529,2.321,-0.313394,0.495068,1.076503,100048.66,-91,+132,+239
57779,9.828,-0.412,2.397,-0.341596,0.475380,1.042448,100048.66,-91,+132,+239
57788,9.706,-0.216,2.497,-0.375119,0.458884,1.013182,100048.66,-91,+128,+240
57798,9.511,0.062,2.296,-0.418752,0.455160,1.000943,100046.19,-90,+124,+241
57808,9.577,0.015,1.997,-0.463449,0.458352,1.015310,100047.66,-90,+122,+243
57819,9.805,0.158,1.930,-0.464513,0.456224,1.053622,100046.97,-90,+122,+243
57828,9.888,0.385,2.191,-0.403853,0.458352,1.112154,100046.28,-90,+118,+244
57838,9.713,0.219,2.470,-0.312330,0.465802,1.170154,100047.91,-89,+114,+245
57848,9.547,0.220,2.904,-0.246348,0.472187,1.220705,100048.06,-89,+111,+246
57859,9.411,0.089,2.920,-0.182495,0.465802,1.268063,100048.06,-89,+111,+246
57868,9.575,-0.710,2.520,-0.145247,0.451967,1.315952,100048.22,-89,+109,+247
57878,10.031,-1.655,2.080,-0.218678,0.418976,1.364907,100047.59,-89,+104,+247
57888,10.308,-1.474,1.962,-0.370330,0.414187,1.405879,100047.59,-88,+101,+249
57899,10.225,-1.089,2.085,-0.471431,0.442921,1.433017,100048.40,-88,+101,+249
57908,10.127,-0.769,2.199,-0.500165,0.464205,1.473457,100048.73,-88,+96,+251
57918,10.188,-1.011,2.218,-0.445889,0.465802,1.535714,100047.57,-88,+92,+252
57928,10.395,-1.323,2.105,-0.400660,0.461545,1.601163,100048.20,-86,+88,+253
57938,10.540,-1.700,2.021,-0.354899,0.446646,1.666613,100048.20,-86,+88,+253
57949,10.871,-2.463,1.856,-0.321376,0.423765,1.716631,100048.80,-86,+83,+254
57958,11.401,-2.749,1.489,-0.360752,0.407802,1.752815,100048.04,-84,+79,+255
57968,11.849,-2.835,1.441,-0.432587,0.389178,1.792723,100047.84,-85,+73,+255
57978,12.181,-2.409,1.450,-0.464513,0.377472,1.842209,100047.84,-85,+73,+255
57989,12.145,-2.129,1.579,-0.454935,0.350866,1.924154,100047.84,-84,+68,+257
57998,12.299,-2.112,1.396,-0.390018,0.315747,2.010356,100051.16,-85,+63,+257
58008,12.341,-2.204,1.204,-0.336807,0.288077,2.127952,100047.44,-84,+58,+257
58018,12.615,-2.008,1.281,-0.300091,0.256683,2.244484,100052.20,-84,+58,+257
58029,13.211,-1.667,1.629,-0.275082,0.226352,2.363677,100049.06,-83,+52,+258
58039,13.735,-1.220,2.056,-0.271357,0.208261,2.488190,100049.06,-82,+48,+258
58048,14.342,-0.741,2.326,-0.262844,0.177398,2.618557,100049.61,-83,+40,+259
58058,15.673,-0.106,2.793,-0.276678,0.108224,2.764887,100050.14,-83,+40,+259
58068,17.149,0.487,3.006,-0.403321,0.082683,2.919199,100045.67,-83,+34,+259
58079,18.657,0.686,1.870,-0.723119,0.134297,3.059676,100045.67,-82,+28,+259
58088,20.744,1.995,0.048,-1.274916,0.122591,3.139493,100050.02,-81,+18,+259
58098,22.754,6.102,-0.875,-1.743705,0.002334,3.179933,100050.02,-81,+18,+259
58108,23.399,10.280,-1.077,-2.053393,-0.038638,3.296465,100048.40,-79,+4,+258
58119,22.110,12.032,-1.165,-2.231650,0.001802,3.373621,100048.77,-79,-8,+257
58128,19.595,10.191,-0.457,-2.151301,-0.016290,3.341162,100047.55,-77,-21,+255
58138,20.399,0.909,2.056,-1.405815,-0.085464,3.603492,100047.55,-77,-21,+255
58148,22.254,-7.966,3.722,-0.615100,-0.205721,4.367602,100048.16,-73,-32,+255
58159,21.152,-7.232,6.667,-0.224532,-0.345666,4.456996,100047.95,-71,-40,+253
58169,21.665,-5.361,8.376,0.697082,-0.254143,4.354832,100049.10,-67,-44,+254
58178,19.844,-1.175,7.354,1.501100,0.073105,4.134538,100044.63,-67,-44,+254
58188,11.686,3.355,3.737,1.900715,0.138554,3.310300,100053.81,-62,-45,+256
58199,6.003,5.503,2.935,1.873045,-0.072693,2.552043,100052.61,-59,-42,+257
58209,1.749,-3.443,6.321,1.910293,-0.140271,2.268961,100049.19,-57,-38,+259
58218,5.564,-4.865,3.872,1.949137,-0.581390,1.973108,100049.19,-57,-38,+259
58228,6.482,0.189,1.386,1.303688,-0.822968,0.797145,100046.20,-58,-34,+260
58238,5.129,3.584,1.615,0.678991,-0.869262,0.293237,100046.20,-61,-32,+258
58249,3.396,4.418,1.716,0.429431,-0.938968,-0.061148,100048.82,-66,-30,+258
58258,1.915,3.028,1.542,0.487963,-1.052307,-0.363386,100051.66,-69,-28,+256
58268,0.974,1.096,1.316,0.585871,-1.178949,-0.668285,100050.66,-69,-28,+256
58278,0.525,0.392,1.500,0.564055,-1.327940,-1.053532,100048.71,-76,-24,+254
58289,0.942,0.449,1.977,0.492752,-1.485977,-1.518596,100048.71,-83,-20,+252
58299,1.689,0.826,2.089,0.457633,-1.635500,-1.953862,100049.59,-90,-15,+248
58308,2.116,1.182,2.094,0.470936,-1.758949,-2.341770,100047.19,-90,-15,+248
58318,2.413,1.445,2.005,0.558202,-1.851536,-2.696687,100048.75,-97,-6,+245
58329,2.990,1.417,2.024,0.700807,-1.925499,-3.045219,100048.75,-107,+2,+242
58338,3.768,1.083,2.161,0.859376,-2.006380,-3.365549,100048.75,-115,+12,+237
58348,4.304,0.541,2.378,0.984422,-2.084068,-3.639054,100051.59,-115,+12,+237
58358,4.628,0.182,2.947,1.066367,-2.134086,-3.885421,100046.59,-123,+24,+233
58369,4.988,0.004,3.552,1.143700,-2.160692,-4.147396,100045.35,-131,+38,+227
58378,5.415,-0.079,4.086,1.171724,-2.157499,-4.378154,100045.35,-137,+53,+221
58388,5.977,-0.052,4.674,1.235045,-2.144197,-4.646869,100045.35,-137,+53,+221
58398,6.846,-0.126,5.249,1.278146,-2.106949,-4.902814,100049.05,-142,+70,+216
58408,7.861,-0.236,5.629,1.279211,-2.063848,-5.142263,100047.79,-145,+88,+209
58419,8.944,-0.430,5.811,1.225467,-2.014894,-5.377988,100045.77,-147,+104,+203
58429,10.290,-0.630,5.854,1.101486,-1.961683,-5.598281,100045.77,-147,+104,+203
58438,11.768,-0.805,5.963,0.966862,-1.894637,-5.813786,100044.04,-145,+124,+197
58448,13.223,-1.430,6.169,0.945578,-1.799922,-6.011731,100044.04,-142,+143,+189
58459,14.382,-2.762,6.545,1.026458,-1.678601,-6.162850,100042.99,-137,+162,+183
58469,15.619,-4.001,7.043,1.111064,-1.581757,-6.300134,100044.41,-137,+162,+183
58478,17.246,-4.926,7.342,1.172789,-1.487041,-6.474134,100047.62,-128,+182,+177
58488,18.630,-5.682,7.773,1.161614,-1.341775,-6.628978,100047.62,-119,+200,+171
58499,19.721,-8.736,6.587,0.869486,-1.074124,-6.610887,100046.75,-105,+217,+166
58509,20.170,-11.300,4.409,-0.090440,-1.151280,-6.438483,100046.48,-105,+217,+166
58519,19.198,-10.031,4.123,-0.652880,-1.152344,-6.303859,100048.02,-92,+230,+163
58528,18.958,-8.465,6.649,-0.702366,-0.967170,-6.038868,100045.66,-79,+240,+163
58539,18.970,-8.819,9.779,-0.378844,-0.626620,-5.587639,100047.97,-66,+248,+162
58549,19.297,-11.584,10.296,-0.072348,-0.227005,-4.986355,100045.77,-66,+248,+162
58559,17.978,-15.012,8.411,-0.035101,0.075765,-4.237145,100045.34,-53,+256,+161
58568,14.193,-16.917,5.698,0.073450,0.227949,-3.380980,100045.34,-42,+260,+161
58578,10.968,-18.982,4.678,0.599706,0.345013,-2.451385,100046.44,-33,+265,+159
58589,9.508,-23.392,5.069,1.149376,0.485490,-1.310541,100046.44,-33,+265,+159
58599,11.422,-24.929,5.634,1.217486,0.589251,-0.117019,100049.89,-30,+269,+156
58608,10.292,-21.199,5.771,0.918440,0.694609,0.979659,100048.47,-31,+270,+155
58618,9.541,-12.237,5.194,0.973247,0.711104,1.803897,100048.94,-35,+270,+153
58629,14.697,17.510,-2.797,0.648660,0.404077,1.212723,100046.00,-35,+270,+153
58639,12.839,26.849,-4.315,-1.253100,0.379600,0.069219,100046.00,-36,+270,+153
58649,8.759,-1.120,-1.548,-0.685339,0.572224,1.211127,100051.61,-37,+266,+157
58658,17.270,-10.362,-2.455,1.705963,0.650444,1.841145,100049.84,-42,+266,+152
58669,24.902,-3.058,-4.874,0.317156,0.537637,1.524007,100049.80,-42,+266,+152
58679,17.074,-4.694,-3.902,-1.782549,0.583398,1.937457,100049.80,-45,+262,+156
58688,14.090,-2.779,3.453,-1.694219,0.777086,2.023126,100049.80,-50,+256,+162
58698,15.506,-1.010,14.784,-0.975871,1.121893,1.609677,100048.25,-52,+252,+165
58708,16.790,-3.501,7.007,0.227229,1.056976,1.443659,100047.83,-53,+252,+166
58719,14.489,-4.334,-0.919,0.638018,0.797306,1.274980,100047.83,-53,+251,+166
58728,9.567,-2.074,-0.658,0.133046,0.778150,1.129714,100047.45,-55,+250,+166
58738,10.389,0.975,2.408,0.110697,0.652572,1.197824,100047.45,-57,+248,+166
58748,9.969,-1.217,2.597,-0.193669,0.387050,1.115347,100050.91,-59,+246,+168
58759,9.320,0.840,3.376,-0.635853,0.263600,0.994558,100048.86,-59,+246,+168
58769,9.190,5.126,3.075,-0.863063,0.204536,0.857806,100048.20,-60,+242,+171
58778,8.687,4.631,2.642,-0.630531,0.196022,0.842907,100048.20,-62,+239,+173
58788,9.075,4.091,1.955,-0.365541,0.174206,0.943476,100049.27,-65,+237,+174
58799,9.421,4.582,1.106,-0.237302,0.184316,1.102044,100049.27,-65,+237,+174
58809,9.058,2.958,1.212,-0.154825,0.230609,1.249971,100050.16,-68,+235,+174
58818,9.779,1.958,2.142,-0.249541,0.218371,1.288283,100050.25,-71,+231,+175
58828,9.736,1.682,1.956,-0.470366,0.190701,1.265402,100048.05,-73,+228,+177
58840,9.353,1.965,1.512,-0.588140,0.164628,1.234007,100051.72,-73,+228,+177
58849,9.603,2.119,1.356,-0.458660,0.163563,1.190374,100051.72,-76,+225,+178
58859,9.620,1.959,1.348,-0.305412,0.185912,1.182393,100051.66,-78,+222,+179
58868,9.246,1.834,1.374,-0.153229,0.222628,1.170154,100048.52,-80,+220,+180
58878,9.128,0.738,1.335,-0.007431,0.236995,1.174411,100047.30,-80,+220,+180
58889,9.587,0.337,1.407,0.004275,0.217307,1.162705,100052.01,-82,+218,+181
58899,9.845,0.937,1.827,-0.064899,0.222096,1.123329,100049.38,-84,+215,+181
58909,9.736,0.882,1.930,-0.118110,0.232206,1.088742,100048.76,-86,+213,+182
58918,9.592,1.014,2.112,-0.155890,0.239655,1.058943,100048.76,-86,+213,+182
58929,9.544,0.698,2.015,-0.142055,0.240719,1.047237,100048.55,-88,+210,+183
58939,9.469,0.502,2.018,-0.115981,0.238591,1.044576,100048.55,-89,+208,+183
58948,9.445,0.950,2.155,-0.094165,0.238059,1.037659,100050.15,-91,+206,+184
58958,9.384,0.829,2.255,-0.046275,0.248169,1.030742,100047.93,-91,+206,+184
58969,9.511,0.253,2.160,-0.051064,0.256151,1.024888,100048.30,-93,+203,+184
58979,9.752,-0.126,2.003,-0.096293,0.255086,1.013182,100048.68,-95,+202,+186
58989,10.016,-0.351,1.840,-0.183027,0.241251,1.004136,100048.68,-96,+199,+186
58999,10.048,0.075,1.933,-0.261779,0.230609,0.991365,100050.95,-96,+199,+186
59009,10.144,0.304,1.799,-0.295834,0.229545,0.997219,100048.48,-98,+196,+187
59019,9.973,0.763,1.750,-0.273486,0.243912,1.009989,100049.06,-99,+193,+188
59029,9.883,0.851,1.695,-0.199523,0.259875,1.053622,100049.06,-100,+191,+189
59038,9.666,0.625,1.522,-0.090440,0.273710,1.120136,100049.06,-100,+191,+189
59048,9.633,0.707,1.455,0.031413,0.275306,1.196228,100047.63,-101,+188,+189
59059,9.707,0.431,1.481,0.172422,0.274774,1.279769,100050.68,-104,+186,+191
59069,9.812,0.378,1.726,0.284165,0.289673,1.359585,100048.90,-105,+182,+191
59078,9.719,0.361,2.296,0.363450,0.312022,1.425035,100047.37,-105,+182,+191
59088,9.477,0.444,2.746,0.440073,0.338095,1.479842,100047.37,-107,+181,+191
59099,9.284,-0.650,2.751,0.490092,0.340224,1.537310,100051.05,-109,+179,+191
59109,9.424,-1.285,2.598,0.437413,0.315215,1.589457,100045.91,-110,+176,+191
59119,9.967,-0.990,2.573,0.357064,0.301912,1.618723,100046.91,-110,+176,+191
59128,10.102,-1.468,2.329,0.286294,0.306169,1.653310,100046.91,-113,+173,+191
59139,10.171,-1.639,2.179,0.199560,0.311490,1.683640,100047.62,-115,+170,+191
59149,10.419,-1.713,2.028,0.129321,0.302444,1.722484,100046.30,-117,+166,+191
59159,10.654,-1.832,1.985,0.060147,0.288077,1.774099,100046.30,-118,+166,+191
59168,10.970,-1.900,1.833,-0.018605,0.276903,1.829438,100049.77,-118,+162,+193
59179,11.166,-2.141,1.499,-0.085119,0.248701,1.893291,100050.15,-121,+158,+194
59189,11.759,-1.791,1.382,-0.122899,0.222628,1.966191,100050.15,-123,+152,+194
59194,12.076,-1.674,1.271,-0.136201,0.208261,2.032172,100050.04,-123,+152,+194
59204,12.356,-1.868,1.159,-0.177706,0.199747,2.115181,100048.62,-126,+146,+195
59213,12.910,-1.639,1.025,-0.258055,0.185380,2.236502,100048.99,-129,+140,+196
59224,13.390,-1.472,0.960,-0.354366,0.155050,2.382833,100046.95,-129,+140,+196
59234,13.969,-1.496,0.869,-0.490587,0.120995,2.552043,100046.95,-131,+134,+196
59244,15.186,-0.848,0.934,-0.700770,0.053949,2.723383,100052.13,-134,+124,+198
59253,17.228,0.939,1.019,-0.900311,-0.051409,2.883016,100048.66,-138,+115,+199
59264,18.409,1.976,0.186,-1.035999,-0.100895,3.117144,100047.55,-138,+115,+199
59274,18.873,2.894,-1.226,-1.163173,-0.146124,3.378410,100047.39,-141,+104,+199
59284,20.372,4.802,-1.886,-1.244054,-0.268510,3.600832,100047.39,-144,+91,+200
59294,21.940,6.222,-1.970,-1.314825,-0.378656,3.822721,100047.02,-147,+77,+200
59303,22.783,7.533,-1.623,-1.647393,-0.413776,4.013749,100050.48,-147,+77,+200
59314,22.590,8.993,0.068,-1.967723,-0.405794,4.086648,100047.44,-150,+62,+200
59324,21.279,8.834,4.368,-1.515430,-0.420693,4.043547,100048.48,-152,+46,+198
59334,21.439,0.992,7.252,0.141560,-0.474968,4.356428,100048.48,-152,+34,+198
59343,19.041,-6.727,6.520,1.384568,-0.411647,5.058280,100052.15,-152,+34,+198
59354,16.556,-5.395,6.588,1.689999,-0.238179,4.871510,100049.32,-151,+24,+199
59364,15.021,-1.482,4.912,1.844311,-0.136546,4.265969,100048.10,-150,+16,+198
59374,13.347,1.016,5.158,2.459430,0.010848,3.495474,100048.10,-149,+13,+200
59383,8.682,2.096,3.400,2.670677,-0.197207,2.667511,100048.10,-148,+13,+200
59394,5.358,2.815,1.125,2.364182,-0.559574,1.874135,100050.23,-148,+14,+200
59404,2.450,-2.646,5.665,1.706495,-0.693665,1.845934,100050.97,-149,+15,+198
59414,5.225,-1.850,4.953,1.620293,-1.017188,1.477182,100044.45,-150,+15,+196
59424,6.081,4.923,1.841,1.444697,-1.211940,0.432650,100047.30,-153,+17,+193
59429,5.425,7.151,1.872,1.230256,-1.240142,0.085715,100047.30,-153,+17,+193
59439,4.255,5.972,2.433,1.123302,-1.317830,-0.060083,100047.30,-156,+20,+190
59449,2.717,3.056,2.439,1.005706,-1.529078,-0.276120,100049.14,-156,+20,+190
59459,2.260,0.846,2.169,0.880128,-1.770656,-0.587936,100048.61,-160,+24,+186
59469,2.545,0.097,2.514,0.789137,-1.931353,-0.960413,100045.16,-165,+29,+181
59479,3.010,-0.107,3.186,0.693358,-2.055334,-1.362156,100044.29,-169,+33,+176
59489,3.374,-0.271,3.517,0.549688,-2.209114,-1.756981,100048.23,-169,+33,+176
59499,3.613,0.097,3.636,0.404422,-2.354380,-2.151807,100048.76,-174,+41,+169
59509,4.123,0.780,3.781,0.352275,-2.453884,-2.534926,100048.76,-178,+49,+163
59518,5.101,1.162,3.842,0.412404,-2.531040,-2.889843,100048.60,-183,+59,+154
59529,6.044,0.833,3.905,0.557670,-2.565627,-3.192081,100044.45,-183,+59,+154
59539,6.586,-0.034,3.979,0.674734,-2.566159,-3.451219,100044.45,-187,+70,+147
59549,6.902,-0.782,4.241,0.741780,-2.537958,-3.690668,100045.67,-189,+84,+139
59558,7.261,-1.317,4.395,0.783816,-2.474104,-3.921072,100043.56,-190,+98,+131
59569,7.608,-1.461,4.562,0.819468,-2.362361,-4.140833,100041.09,-190,+98,+131
59579,8.097,-1.226,4.791,0.858312,-2.256472,-4.368576,100041.56,-190,+114,+124
59589,8.755,-0.960,5.132,0.877468,-2.168674,-4.596851,100043.14,-188,+130,+116
59599,9.719,-0.649,5.631,0.937064,-2.077683,-4.816080,100043.25,-184,+146,+108
59609,10.640,-0.428,6.158,0.997724,-1.950509,-5.000722,100044.09,-178,+164,+101
59619,11.432,-0.490,6.377,1.058385,-1.802582,-5.166740,100041.25,-178,+164,+101
59629,12.051,-0.938,6.348,1.100954,-1.641353,-5.325309,100041.25,-170,+182,+94
59638,12.752,-1.445,6.255,1.123834,-1.487573,-5.478557,100041.25,-162,+198,+87
59649,13.667,-2.011,5.953,1.119578,-1.344968,-5.630208,100044.19,-149,+218,+82
59659,14.432,-2.933,5.677,1.081798,-1.195977,-5.768024,100044.67,-149,+218,+82
59664,14.805,-3.723,5.782,1.048275,-1.086895,-5.838795,100042.98,-137,+234,+77
59674,15.247,-4.297,6.142,1.008899,-0.992711,-5.895731,100042.61,-137,+234,+77
59683,16.201,-5.086,6.953,0.941321,-0.835207,-5.980868,100042.61,-121,+250,+72
59694,17.255,-5.769,7.322,0.736459,-0.671849,-6.028226,100046.46,-104,+264,+68
59704,17.819,-6.253,7.287,0.389523,-0.489867,-5.997364,100044.04,-86,+278,+66
59714,17.799,-7.658,5.723,-0.045211,-0.263189,-5.903713,100046.82,-86,+278,+66
59724,17.016,-11.428,3.653,-0.966825,-0.275959,-5.634465,100044.46,-67,+290,+66
59734,14.815,-10.178,3.420,-1.614934,-0.388234,-5.359896,100044.46,-49,+296,+70
59744,14.819,-6.938,5.533,-1.609613,-0.295647,-5.042759,100047.66,-33,+302,+75
59754,16.108,-6.819,7.001,-1.081760,-0.116858,-4.545236,100045.92,-33,+302,+75
59764,15.698,-10.266,6.690,-0.519320,0.065123,-3.945017,100046.72,-17,+306,+77
59773,13.422,-14.124,6.565,-0.195266,0.207729,-3.339476,100047.92,-3,+310,+78
59784,11.268,-16.121,7.059,-0.039357,0.350334,-2.590265,100047.92,+5,+312,+78
59794,9.211,-19.353,6.077,0.177211,0.543490,-1.543605,100048.00,+5,+312,+78
59804,8.156,-22.675,4.542,0.293211,0.657893,-0.370836,100048.94,+9,+314,+78
59814,9.134,-21.230,4.252,0.225101,0.640866,0.709347,100047.05,+9,+314,+78
59824,15.473,-13.111,4.824,0.160184,0.695141,1.556466,100045.48,+3,+312,+77
59834,12.314,-0.790,-0.476,0.242129,0.634481,1.805493,100045.48,-1,+312,+77
59844,11.874,23.852,-3.985,0.221376,0.484426,0.815769,100050.46,-1,+311,+77
59854,11.707,28.373,-7.204,-1.190311,0.400352,-0.211203,100049.41,-1,+312,+80
59864,10.974,-2.505,-3.195,0.496477,0.557325,1.384062,100050.66,-4,+310,+80
59874,15.992,-8.696,-2.232,3.411374,0.766444,1.966723,100051.20,-9,+312,+69
59884,19.753,1.169,-4.728,1.908164,0.718554,1.606484,100051.20,-9,+312,+69
59894,16.578,-1.977,-3.962,0.053762,0.732389,2.174245,100052.88,-16,+311,+68
59899,15.200,-4.449,-2.617,-0.128752,0.805288,2.437640,100050.88,-16,+311,+68
59909,14.849,-2.328,1.324,-0.211761,0.965453,2.188080,100050.88,-24,+308,+70
59919,12.071,0.414,14.993,0.011193,1.331544,1.894888,100050.15,-30,+306,+72
59929,13.691,0.516,12.184,1.235045,1.288443,1.762925,100045.85,-35,+304,+68
59939,14.856,-2.181,1.511,2.073650,0.863820,1.662888,100045.85,-35,+304,+68
59950,9.767,-4.333,-1.001,1.509082,0.868077,1.589989,100050.20,-40,+303,+65
59959,10.922,-2.323,0.827,1.035504,0.806884,1.490484,100048.25,-44,+302,+61
59969,10.957,-3.926,0.742,0.478917,0.582866,1.345218,100049.98,-49,+302,+62
59979,10.850,-2.081,0.951,-0.096825,0.426958,1.123861,100049.98,-49,+302,+62
59988,10.690,2.955,0.867,-0.445889,0.391306,1.033934,100049.98,-52,+299,+63
59999,9.399,3.830,0.773,-0.435779,0.414187,1.145677,100052.70,-55,+297,+65
60009,9.445,2.876,0.916,-0.127156,0.438664,1.196760,100050.08,-60,+296,+66
60019,9.901,2.844,1.346,0.151670,0.464205,1.236668,100047.61,-63,+296,+66
60029,9.912,2.670,1.773,0.337908,0.501453,1.277108,100048.50,-63,+293,+67
60039,9.047,1.534,2.088,0.263413,0.506242,1.269659,100048.50,-67,+291,+66
60049,8.819,1.099,2.665,-0.054257,0.445049,1.246778,100051.27,-71,+289,+67
60059,9.288,1.729,3.271,-0.450678,0.346609,1.219108,100049.03,-74,+287,+69
60069,9.017,2.266,2.945,-0.698641,0.271050,1.182393,100047.58,-74,+287,+69
60080,8.877,2.758,2.068,-0.726311,0.239655,1.171219,100047.58,-78,+284,+72
60089,9.275,3.113,1.192,-0.567210,0.250297,1.203677,100047.83,-82,+281,+73
60099,9.519,2.418,0.545,-0.270293,0.302976,1.286686,100047.83,-86,+279,+75
60109,9.743,1.406,0.395,-0.050000,0.360976,1.366503,100050.92,-86,+279,+75
60120,9.697,0.635,0.982,-0.046807,0.398224,1.422907,100049.03,-90,+276,+76
60129,9.767,0.225,1.798,-0.116513,0.414187,1.395237,100046.30,-93,+274,+78
60139,9.374,0.568,2.403,-0.094697,0.410462,1.309567,100046.30,-97,+269,+78
60149,9.013,1.073,2.691,-0.036697,0.401416,1.254760,100050.58,-97,+269,+78
60160,8.989,0.838,2.510,0.068661,0.388114,1.238264,100048.06,-100,+268,+79
60170,9.190,0.729,2.373,0.166037,0.389178,1.230815,100046.06,-103,+266,+80
60179,9.310,0.461,2.266,0.226165,0.410462,1.235072,100047.45,-107,+262,+80
60189,9.313,0.249,2.317,0.237340,0.436004,1.242521,100052.96,-107,+262,+80
60199,9.348,0.028,2.412,0.227762,0.443453,1.252099,100047.12,-110,+259,+82
60210,9.402,-0.289,2.194,0.189450,0.438664,1.274980,100047.60,-113,+258,+81
60219,9.784,-0.763,1.658,0.087285,0.428554,1.305842,100047.60,-117,+254,+82
60229,10.162,-0.800,1.450,-0.028183,0.424297,1.337769,100046.54,-117,+254,+82
60239,10.333,-0.549,1.329,-0.100550,0.428554,1.370760,100046.54,-120,+250,+84
60250,10.322,-0.658,1.321,-0.136201,0.443985,1.411732,100051.16,-123,+247,+84
60259,10.222,-0.567,1.789,-0.156954,0.459416,1.451108,100047.80,-126,+244,+86
60269,10.016,-0.529,2.205,-0.138330,0.468994,1.483567,100049.58,-126,+244,+86
60279,9.809,-0.496,2.445,-0.088844,0.463673,1.511769,100047.69,-130,+240,+87
60290,9.711,-0.547,2.940,-0.043614,0.458352,1.549016,100047.69,-134,+236,+89
60300,9.853,-0.987,3.098,-0.013816,0.452499,1.577218,100048.65,-137,+232,+91
60309,10.041,-2.089,2.776,-0.087779,0.440260,1.589457,100048.62,-137,+232,+91
60319,10.204,-2.108,2.498,-0.266036,0.436536,1.594778,100047.26,-141,+227,+92
60329,10.442,-2.008,2.607,-0.422477,0.450371,1.596374,100047.26,-145,+222,+94
60339,10.578,-1.857,2.570,-0.501761,0.457288,1.585200,100047.26,-147,+218,+96
60349,10.679,-1.834,2.562,-0.526770,0.452499,1.626172,100051.52,-147,+218,+96
60359,10.909,-1.853,2.449,-0.515064,0.436004,1.685769,100049.63,-151,+212,+98
60369,11.401,-1.955,1.864,-0.516660,0.410462,1.757071,100050.79,-154,+206,+101
60379,12.245,-2.227,1.105,-0.485798,0.377472,1.819860,100051.63,-158,+200,+104
60389,12.658,-2.560,1.058,-0.446954,0.365233,1.890631,100051.63,-158,+200,+104
60399,12.632,-2.605,0.949,-0.433651,0.356719,1.994925,100049.46,-161,+194,+105
60409,12.689,-2.053,0.994,-0.399064,0.352462,2.091236,100048.51,-165,+188,+107
60420,12.931,-2.021,1.057,-0.297963,0.329050,2.214686,100047.07,-169,+180,+109
60430,13.085,-1.962,1.262,-0.235174,0.308297,2.348245,100047.07,-169,+180,+109
60439,13.630,-1.876,1.562,-0.219211,0.289673,2.460521,100051.16,-173,+173,+111
60449,14.170,-1.405,1.802,-0.259119,0.263600,2.573860,100051.16,-176,+165,+111
60460,15.013,-0.820,2.093,-0.340000,0.241251,2.703163,100047.84,-182,+156,+112
60469,16.495,0.028,2.649,-0.439504,0.202407,2.820759,100048.31,-185,+156,+112
60479,17.947,0.706,2.662,-0.652880,0.207729,2.952190,100048.42,-185,+146,+115
60490,19.554,0.993,1.169,-1.146146,0.267147,3.050630,100050.60,-189,+136,+117
60499,21.490,2.547,-0.595,-1.801705,0.189637,3.071915,100050.60,-192,+122,+119
60510,22.816,6.887,-2.192,-2.719062,0.090664,3.040520,100050.82,-195,+109,+122
60519,21.666,11.300,-3.303,-3.460823,0.114609,3.019236,100048.29,-195,+109,+122
60529,18.915,13.450,-3.725,-3.575759,0.068316,2.909089,100048.45,-198,+92,+126
60539,18.035,8.009,-1.044,-2.618494,-0.056198,2.953254,100050.12,-199,+78,+127
60550,20.973,-3.614,2.144,-1.070586,-0.115262,3.868483,100047.38,-201,+64,+128
60560,20.878,-6.108,5.267,-0.237834,-0.188161,4.433584,100051.74,-201,+64,+128
60569,20.370,-2.266,8.351,0.431560,-0.250418,4.169125,100051.74,-202,+50,+127
60579,19.621,-1.144,7.340,1.649559,-0.141335,3.746098,100048.59,-202,+39,+127
60590,15.898,0.804,6.755,2.108238,0.150261,3.554006,100048.59,-202,+32,+128
60599,10.477,3.069,4.607,2.020972,-0.118987,2.910153,100052.47,-202,+32,+128
60609,7.549,4.376,2.928,1.730972,-0.477097,2.250869,100050.95,-202,+26,+127
60619,2.138,-3.375,7.177,1.664990,-0.546271,2.134337,100051.31,-202,+22,+127
60630,5.818,-4.695,6.099,2.291283,-0.771886,1.560191,100047.53,-204,+21,+124
60640,7.731,0.045,3.059,1.853889,-0.975684,0.448614,100047.53,-204,+21,+124
60650,5.830,3.484,2.319,1.185027,-1.055500,-0.067533,100049.47,-204,+23,+124
60659,3.771,4.302,1.939,0.829046,-1.148087,-0.296340,100049.03,-206,+26,+120
60669,2.314,2.991,1.993,0.854587,-1.252913,-0.502799,100048.97,-209,+30,+115
60680,1.439,1.138,1.720,0.956752,-1.432766,-0.785881,100048.97,-209,+30,+115
60689,1.467,-0.137,1.977,0.927486,-1.590270,-1.176450,100048.97,-211,+35,+111
60699,2.201,-0.461,2.561,0.808293,-1.718509,-1.609587,100053.67,-213,+41,+106
60709,2.813,-0.145,2.947,0.607688,-1.853665,-2.033146,100049.94,-215,+51,+99
60720,3.202,0.663,3.192,0.476789,-1.978710,-2.447128,100048.22,-215,+51,+99
60725,3.534,1.321,3.240,0.469339,-2.053206,-2.741917,100051.42,-216,+61,+92
60734,3.974,1.587,3.147,0.549688,-2.119187,-3.006907,100051.42,-217,+73,+85
60744,4.750,1.270,3.134,0.701339,-2.190490,-3.333623,100050.52,-217,+73,+85
60754,5.468,0.470,3.137,0.810422,-2.251683,-3.632136,100046.73,-217,+88,+77
60765,5.876,-0.260,3.163,0.831174,-2.305426,-3.893402,100045.73,-215,+103,+68
60774,6.058,-0.661,3.284,0.785945,-2.349591,-4.140833,100046.94,-214,+120,+59
60784,6.359,-0.866,3.465,0.723688,-2.366086,-4.397842,100046.94,-214,+120,+59
60794,6.864,-0.974,3.760,0.677926,-2.344802,-4.659640,100049.38,-208,+136,+50
60805,7.438,-0.937,4.122,0.663559,-2.296912,-4.917181,100047.84,-202,+154,+41
60815,8.146,-0.849,4.444,0.653449,-2.223481,-5.166740,100044.80,-194,+174,+33
60824,9.165,-0.618,4.738,0.671541,-2.130362,-5.414704,100043.64,-194,+174,+33
60834,10.634,-0.389,4.848,0.764128,-2.059059,-5.644575,100043.64,-184,+192,+26
60845,12.406,-0.731,4.742,0.861504,-2.007977,-5.834538,100041.56,-171,+211,+16
60855,13.947,-1.496,4.510,0.887578,-1.969665,-6.014924,100045.97,-156,+229,+10
60864,15.148,-2.171,4.611,0.942917,-1.898362,-6.194777,100042.77,-156,+229,+10
60874,15.985,-3.110,5.107,1.068495,-1.809500,-6.326740,100043.28,-138,+248,+2
60884,16.767,-3.918,5.703,1.212697,-1.739793,-6.405492,100043.28,-119,+264,-6
60895,18.181,-4.509,6.546,1.374990,-1.666894,-6.471474,100045.88,-98,+279,-15
60904,19.705,-5.306,8.047,1.527706,-1.514711,-6.510850,100045.55,-98,+279,-15
60914,20.453,-6.685,8.881,1.478752,-1.285371,-6.411877,100045.82,-75,+292,-21
60924,20.103,-8.379,8.524,1.087651,-1.102858,-6.184134,100045.51,-53,+301,-27
60935,18.770,-8.841,8.057,0.615670,-0.973023,-5.944685,100045.51,-31,+309,-30
60945,17.664,-9.240,8.881,0.261817,-0.743684,-5.624355,100051.69,-31,+309,-30
60954,17.470,-10.343,10.023,0.033009,-0.443042,-5.190685,100048.06,-11,+316,-31
60964,17.221,-12.311,9.462,-0.192605,-0.159427,-4.637824,100045.81,+6,+319,-31
60975,15.041,-16.183,8.039,-0.526770,0.082683,-3.974815,100048.23,+21,+322,-29
60985,12.136,-19.894,7.241,-0.824751,0.229545,-3.269769,100048.23,+21,+322,-29
60994,9.945,-21.583,7.856,-0.767284,0.400884,-2.280577,100049.09,+31,+324,-26
61004,8.820,-23.438,8.434,-0.343192,0.541893,-0.936468,100046.87,+36,+326,-25
61015,9.872,-21.651,7.937,0.186257,0.627031,0.437971,100049.13,+34,+325,-25
61025,12.367,-16.525,7.803,0.758807,0.780811,1.627237,100047.66,+34,+325,-25
61034,13.086,-4.554,2.422,0.917376,0.928205,2.234374,100047.66,+26,+324,-28
61044,12.779,19.602,-7.131,0.528936,0.548811,1.392576,100048.32,+19,+322,-30
61054,13.675,36.716,-8.072,-0.955118,0.342884,-0.092542,100050.57,+18,+324,-26
61065,11.419,2.218,-3.777,-0.195266,0.595104,0.988705,100049.21,+18,+324,-26
61075,16.533,-19.368,-0.685,3.026127,0.975031,2.053457,100049.68,+12,+322,-30
61080,21.287,-9.120,-5.229,3.019209,0.820187,1.576686,100049.68,+5,+318,-39
61089,20.714,-2.209,-6.224,0.419321,0.636077,1.513897,100049.68,+5,+318,-39
61100,16.659,-2.784,-4.950,-0.876898,0.721214,2.071016,100050.83,+0,+318,-35
61110,15.046,-1.199,-3.051,-0.618825,0.907985,1.969915,100053.08,-9,+316,-33
61120,12.051,-0.419,1.684,-0.739614,1.001104,1.740576,100047.66,-16,+314,-29
61129,9.377,-0.240,12.997,-0.396935,1.201177,1.590521,100047.66,-16,+314,-29
61139,14.030,0.541,12.355,0.576826,1.243746,1.448448,100046.90,-22,+312,-28
61150,16.942,0.229,3.274,1.377651,0.939912,1.406943,100047.74,-28,+311,-32
61160,11.248,-3.543,-0.390,1.023266,0.878719,1.380870,100047.74,-33,+308,-33
61169,9.617,-3.679,1.434,0.418789,0.773893,1.312760,100048.59,-33,+308,-33
61179,9.779,-2.305,1.620,-0.301688,0.453563,1.178136,100046.21,-39,+307,-32
61190,10.574,1.783,1.358,-0.781119,0.268921,1.029145,100046.21,-42,+306,-30
61200,9.705,4.234,1.536,-0.963100,0.289141,1.103109,100048.65,-47,+304,-26
61210,8.887,5.007,0.891,-0.728440,0.328517,1.159512,100045.91,-47,+304,-26
61219,9.393,3.662,0.505,-0.282532,0.389710,1.194099,100046.87,-50,+304,-25
61230,9.803,3.061,0.849,0.064936,0.439196,1.226558,100047.29,-55,+301,-23
61240,9.500,3.082,1.657,0.112826,0.451435,1.294668,100047.94,-60,+300,-23
61250,8.693,1.974,2.295,-0.045743,0.421637,1.346815,100048.31,-60,+300,-23
61259,8.900,1.434,2.708,-0.303816,0.352995,1.293604,100050.20,-65,+298,-23
61270,9.064,2.710,2.757,-0.532623,0.312554,1.199420,100048.14,-69,+296,-20
61280,8.636,3.378,1.975,-0.526238,0.297655,1.184521,100048.14,-73,+294,-18
61290,9.136,2.524,1.033,-0.277211,0.291802,1.234540,100048.14,-73,+294,-18
61299,9.826,1.838,0.509,-0.039890,0.300848,1.314356,100052.30,-77,+292,-17
61309,9.711,1.288,0.538,0.072386,0.337031,1.370760,100047.21,-82,+289,-16
61315,9.541,1.020,0.953,0.091541,0.361508,1.382998,100047.68,-82,+289,-16
61325,9.476,0.876,1.336,0.174019,0.376407,1.338833,100047.10,-87,+287,-16
61334,9.360,1.027,1.810,0.250110,0.382261,1.294668,100047.10,-91,+284,-16
61344,9.298,1.076,2.209,0.283101,0.381728,1.271255,100051.05,-95,+281,-16
61355,9.324,0.944,2.386,0.319284,0.369490,1.262741,100048.52,-95,+281,-16
61365,9.532,0.756,2.293,0.353339,0.354059,1.244118,100044.43,-99,+278,-16
61375,9.678,0.235,1.704,0.311303,0.339692,1.228686,100042.96,-104,+275,-16
61384,9.732,-0.047,1.333,0.257560,0.360976,1.221237,100042.96,-108,+272,-16
61394,9.573,0.463,1.437,0.258624,0.395031,1.200485,100046.59,-108,+272,-16
61405,9.266,1.051,1.850,0.356532,0.442389,1.197824,100047.53,-112,+268,-16
61415,8.888,1.284,2.159,0.492220,0.478572,1.229218,100047.53,-115,+266,-16
61424,9.337,-0.205,1.955,0.513505,0.467930,1.318613,100047.42,-120,+263,-16
61434,10.127,-0.929,1.445,0.386330,0.436004,1.379274,100047.42,-120,+263,-16
61445,10.359,-0.616,1.403,0.258624,0.464205,1.400026,100049.93,-123,+259,-16
61455,10.089,-0.407,1.473,0.224569,0.495600,1.408540,100049.10,-128,+254,-15
61465,9.705,-0.407,1.692,0.245321,0.507838,1.456962,100047.04,-132,+252,-15
61474,9.535,0.131,1.977,0.320881,0.519013,1.522943,100045.37,-132,+252,-15
61485,9.693,-0.600,2.143,0.409743,0.511563,1.600631,100045.37,-137,+248,-14
61495,9.942,-1.704,2.021,0.340037,0.481233,1.665549,100046.90,-142,+242,-13
61505,10.078,-2.058,1.732,0.112294,0.470059,1.697475,100047.21,-147,+238,-13
61514,10.224,-2.051,1.935,-0.121302,0.473251,1.697475,100044.34,-147,+238,-13
61524,10.344,-2.027,2.264,-0.308073,0.472187,1.686833,100045.96,-150,+233,-11
61535,10.509,-1.938,2.311,-0.460788,0.448774,1.686833,100045.96,-156,+229,-8
61545,10.827,-2.031,2.334,-0.551247,0.424829,1.691090,100049.48,-160,+224,-6
61550,11.030,-1.882,2.447,-0.607651,0.416848,1.696943,100047.37,-160,+224,-6
61559,11.044,-2.043,2.323,-0.644366,0.409398,1.706521,100047.37,-163,+219,-3
61570,10.978,-2.037,2.165,-0.664586,0.396628,1.737915,100046.16,-168,+214,-1
61580,11.489,-1.587,2.188,-0.692256,0.371086,1.805493,100045.07,-168,+214,-1
61590,12.112,-1.280,1.740,-0.621486,0.340224,1.882649,100045.07,-173,+208,+1
61600,12.507,-1.595,0.875,-0.479412,0.316811,1.984282,100047.84,-178,+203,+3
61609,12.956,-1.858,0.463,-0.378844,0.305637,2.118906,100045.81,-182,+196,+5
61620,13.289,-1.809,0.358,-0.255926,0.281160,2.270025,100045.70,-182,+196,+5
61630,13.629,-1.757,0.513,-0.146312,0.258279,2.437640,100045.70,-187,+188,+6
61639,13.952,-1.353,0.918,-0.101614,0.235930,2.620686,100045.70,-192,+180,+8
61649,14.669,-0.920,1.489,-0.093633,0.193894,2.807988,100048.68,-196,+170,+8
61660,15.774,-0.093,2.356,-0.125027,0.131105,2.991566,100047.12,-196,+170,+8
61670,17.383,0.781,3.314,-0.207504,0.077894,3.167694,100048.01,-204,+160,+10
61680,19.108,1.586,3.296,-0.449082,0.101307,3.328392,100046.05,-207,+148,+11
61689,21.090,2.091,1.779,-0.801339,0.146004,3.438006,100046.05,-211,+136,+13
61700,23.542,3.836,0.224,-1.203081,0.031600,3.475254,100047.91,-211,+136,+13
61710,25.019,8.242,-0.061,-1.793723,-0.032253,3.467804,100048.39,-217,+124,+15
61720,24.897,12.270,-0.894,-2.315191,-0.004583,3.496006,100045.97,-220,+112,+17
61730,22.120,14.643,-0.574,-2.693521,0.015637,3.547621,100045.97,-224,+99,+19
61740,18.439,11.191,1.584,-2.077870,-0.110473,3.576355,100049.94,-224,+99,+19
61750,19.061,-3.067,2.643,-0.570403,-0.121115,4.342593,100049.94,-226,+86,+20
61760,18.497,-10.198,4.795,-0.118642,-0.030657,4.920996,100048.78,-229,+67,+20
61770,18.187,-4.005,7.852,0.540110,-0.051409,4.259584,100045.84,-231,+51,+20
61779,18.157,-0.054,5.571,1.531963,0.116738,3.483235,100046.53,-231,+51,+20
61790,12.490,0.939,3.423,1.759706,0.354591,2.842575,100046.53,-231,+39,+23
61800,8.085,4.055,1.206,1.677761,0.097050,2.195530,100047.30,-229,+30,+23
61810,2.994,0.134,2.779,1.325504,-0.114730,1.870411,100048.98,-230,+24,+23
61820,3.732,-3.558,4.425,1.465449,-0.382913,1.614466,100045.82,-230,+24,+23
61830,7.267,2.400,0.857,1.185559,-0.675042,0.386357,100046.84,-230,+19,+23
61840,5.339,6.588,0.614,0.634293,-0.757519,-0.334120,100046.69,-230,+20,+19
61850,3.378,6.430,1.079,0.329927,-0.895335,-0.606028,100050.84,-230,+24,+16
61860,2.303,4.133,0.949,0.267670,-1.092748,-0.829514,100050.36,-230,+26,+13
61870,2.096,1.837,0.554,0.292147,-1.273133,-1.174853,100050.36,-230,+26,+13
61880,2.389,0.705,1.113,0.330459,-1.405096,-1.577128,100048.89,-230,+33,+8
61890,2.658,0.540,1.889,0.405486,-1.514711,-1.984192,100048.89,-229,+40,+2
61900,2.925,0.549,2.250,0.409211,-1.641353,-2.354541,100046.77,-228,+50,-3
61910,3.371,0.756,2.100,0.436349,-1.787151,-2.743513,100046.10,-228,+50,-3
61920,4.108,1.277,2.044,0.553945,-1.908472,-3.154834,100045.73,-227,+61,-11
61930,5.245,1.595,2.034,0.781156,-1.998399,-3.520925,100045.30,-224,+75,-18
61940,6.298,0.955,2.111,1.021669,-2.059059,-3.811989,100045.30,-221,+88,-25
61950,6.935,-0.079,2.222,1.157889,-2.108545,-4.055696,100043.03,-221,+88,-25
61960,7.339,-0.608,2.501,1.218018,-2.145261,-4.283970,100041.72,-216,+103,-33
61970,7.860,-0.582,3.048,1.252605,-2.167609,-4.523952,100039.31,-209,+119,-42
61980,8.612,-0.471,3.595,1.320715,-2.180380,-4.765530,100039.31,-202,+134,-51
61989,9.319,-0.465,4.077,1.431394,-2.179316,-4.989548,100039.31,-202,+134,-51
62000,10.127,-0.668,4.493,1.494183,-2.163352,-5.209841,100042.38,-192,+150,-59
62010,11.147,-0.929,4.826,1.462256,-2.135683,-5.434391,100041.63,-181,+167,-69
62020,12.390,-1.128,5.053,1.388293,-2.106949,-5.664263,100041.22,-167,+182,-78
62029,13.570,-1.655,5.145,1.364880,-2.084600,-5.890942,100043.47,-167,+182,-78
62040,14.525,-2.286,5.502,1.346788,-2.045224,-6.096336,100043.47,-150,+198,-85
62050,15.306,-2.758,5.858,1.365944,-1.987756,-6.270336,100044.41,-134,+214,-95
62060,16.026,-3.412,5.995,1.350513,-1.930821,-6.417199,100044.52,-115,+227,-102
62070,17.094,-3.862,6.218,1.223339,-1.864307,-6.533731,100041.85,-115,+227,-102
62080,18.618,-4.244,7.135,1.055192,-1.748839,-6.599180,100041.85,-94,+240,-109
62090,19.899,-5.069,8.591,0.944513,-1.531738,-6.606097,100046.85,-73,+251,-115
62100,20.875,-6.681,9.782,0.783816,-1.242803,-6.516171,100046.85,-52,+260,-119
62110,20.767,-8.330,9.846,0.480514,-0.956528,-6.342703,100045.23,-52,+260,-119
62119,19.477,-11.670,8.778,-0.167596,-0.675574,-6.055364,100046.12,-31,+269,-121
62130,17.410,-13.135,8.119,-0.859339,-0.495188,-5.632869,100043.76,-12,+277,-119
62141,16.822,-10.820,7.101,-0.999283,-0.291213,-5.081426,100046.34,+5,+283,-116
62150,16.661,-12.095,7.537,-0.743871,-0.080143,-4.415401,100046.34,+5,+283,-116
62160,14.380,-18.644,8.605,-0.413963,0.100242,-3.498577,100046.97,+18,+287,-115
62170,11.129,-24.882,10.088,-0.110128,0.348206,-2.486504,100045.88,+26,+289,-115
62180,8.288,-27.215,9.370,0.193707,0.582866,-1.205184,100045.71,+29,+289,-115
62190,8.207,-24.788,7.417,0.666220,0.696205,0.243219,100049.55,+29,+289,-115
62200,11.869,-19.089,7.100,1.207908,0.836150,1.509640,100045.71,+25,+287,-118
62211,13.971,-7.576,3.193,1.394678,1.041545,2.275346,100047.66,+15,+284,-121
62220,12.053,13.365,-5.841,1.279743,0.743563,1.816668,100047.66,+7,+280,-125
62230,13.207,36.011,-8.163,-0.111192,0.494536,0.201715,100048.49,+7,+280,-125
62240,10.872,8.303,-3.805,0.056422,0.643526,0.805659,100048.49,+7,+280,-122
62249,15.467,-15.674,0.785,3.454475,1.092095,2.284924,100049.34,-1,+274,-128
62256,20.777,-8.033,-3.653,4.121741,1.089434,1.941713,100047.66,-1,+274,-128
62265,22.269,-3.332,-5.053,1.685210,0.953214,1.657567,100046.83,-9,+265,-136
62275,17.142,-6.385,-4.718,-0.128220,1.040480,2.337603,100046.61,-16,+263,-134
62285,14.628,-4.613,-2.677,-0.214954,1.168187,2.215750,100046.61,-27,+262,-132
62295,13.267,-2.802,5.321,-0.434183,1.251196,1.914044,100050.11,-27,+262,-132
62305,11.815,-2.238,16.268,0.152734,1.545452,1.642136,100043.86,-34,+260,-131
62315,17.160,0.451,6.445,1.369669,1.298554,1.401622,100042.92,-42,+256,-132
62325,14.534,-3.409,-0.434,1.487797,1.048994,1.456429,100046.64,-48,+250,-134
62334,9.481,-2.770,-0.753,1.006238,1.054315,1.387255,100046.64,-48,+250,-134
62345,10.041,-1.226,2.069,0.656642,0.905324,1.278705,100051.49,-54,+246,-134
62355,9.499,-2.476,2.927,0.133578,0.624370,1.164301,100048.51,-58,+243,-134
62365,9.928,1.642,2.732,-0.422477,0.462077,0.963696,100046.30,-62,+243,-132
62375,8.949,5.016,2.107,-0.684275,0.453386,1.016907,100047.71,-62,+243,-132
62385,8.480,4.747,1.276,-0.529963,0.450903,1.110026,100047.71,-67,+242,-131
62395,9.903,3.471,0.905,-0.296899,0.465270,1.218044,100047.48,-71,+242,-128
62405,10.080,2.717,1.279,-0.182495,0.494004,1.305310,100048.95,-75,+240,-127
62415,9.354,2.302,1.811,-0.245284,0.475912,1.354264,100047.33,-75,+240,-127
62425,9.434,1.858,1.992,-0.369798,0.411527,1.375017,100045.91,-80,+237,-126
62435,9.897,1.082,1.687,-0.517724,0.335967,1.328191,100045.91,-84,+237,-124
62445,9.900,1.297,1.019,-0.633724,0.293398,1.268063,100046.59,-88,+235,-122
62455,9.527,1.980,0.408,-0.629999,0.306701,1.262209,100047.95,-88,+235,-122
62466,9.675,2.445,0.088,-0.466110,0.338628,1.270191,100048.90,-91,+234,-119
62475,9.500,1.896,0.188,-0.226128,0.398756,1.326595,100049.84,-95,+232,-119
62485,9.730,1.028,0.857,-0.079266,0.443985,1.353200,100049.84,-101,+229,-118
62495,9.323,0.736,1.495,0.033009,0.471123,1.312228,100048.47,-104,+229,-118
62505,9.324,0.880,2.296,-0.084587,0.461013,1.318613,100047.16,-104,+226,-116
62515,9.529,0.605,2.507,-0.051064,0.442921,1.257952,100047.05,-108,+224,-115
62525,9.380,0.361,2.351,-0.044679,0.420572,1.219108,100045.89,-112,+222,-114
62535,9.514,0.352,2.285,-0.047871,0.407270,1.195163,100045.89,-116,+218,-113
62545,9.820,-0.176,1.960,-0.031908,0.395563,1.174411,100048.68,-116,+218,-113
62555,9.857,-0.695,1.781,-0.045211,0.394499,1.139824,100049.90,-119,+216,-112
62565,9.760,-0.569,1.872,-0.088844,0.396628,1.102576,100046.16,-123,+214,-112
62575,9.538,-0.121,2.102,-0.122899,0.404609,1.072246,100043.85,-126,+211,-110
62585,9.357,0.325,2.386,-0.131412,0.410994,1.070650,100043.85,-126,+211,-110
62596,9.293,0.170,2.190,-0.146312,0.406205,1.115879,100049.79,-130,+209,-109
62605,9.669,-0.217,1.608,-0.218146,0.375343,1.181861,100048.90,-132,+206,-108
62611,9.976,-0.070,1.327,-0.238367,0.376407,1.228686,100046.96,-132,+206,-108
62620,10.270,-0.197,1.106,-0.227724,0.378536,1.273916,100046.96,-136,+203,-105
62630,10.292,-0.303,0.954,-0.200055,0.380132,1.339897,100044.02,-139,+200,-104
62641,10.379,-0.376,1.044,-0.153229,0.391839,1.404283,100044.02,-139,+200,-104
62650,10.233,-0.543,1.251,-0.104807,0.405141,1.464943,100048.17,-144,+196,-103
62660,10.027,-0.780,1.440,-0.067027,0.410462,1.526136,100046.28,-147,+192,-102
62670,10.060,-0.971,1.609,-0.055853,0.403013,1.584668,100046.66,-151,+188,-100
62681,10.282,-1.182,1.835,-0.062770,0.395031,1.643200,100046.66,-151,+188,-100
62690,10.350,-1.105,2.032,-0.115981,0.387582,1.701732,100046.66,-156,+183,-99
62700,10.535,-1.013,1.981,-0.147908,0.374811,1.764521,100047.85,-158,+179,-97
62710,10.647,-1.444,1.893,-0.160146,0.364169,1.827842,100048.43,-163,+174,-96
62721,10.713,-1.587,1.614,-0.216018,0.354059,1.894888,100047.85,-167,+174,-95
62730,10.890,-1.734,1.473,-0.236238,0.329582,1.962998,100043.96,-167,+169,-95
62740,11.215,-2.146,1.431,-0.220807,0.293930,2.018337,100043.96,-171,+164,-94
62750,11.557,-2.413,1.252,-0.217082,0.254022,2.067291,100047.66,-174,+157,-93
62760,11.879,-2.029,1.511,-0.227192,0.226884,2.119438,100047.45,-178,+150,-92
62771,12.252,-1.406,1.921,-0.167064,0.193362,2.179567,100046.66,-178,+150,-92
62780,12.791,-1.639,1.840,-0.073945,0.163031,2.271089,100046.66,-182,+144,-90
62790,12.914,-1.936,1.335,-0.069156,0.172609,2.376979,100050.02,-185,+136,-90
62800,12.752,-1.654,0.985,-0.112789,0.174738,2.484998,100047.13,-189,+128,-89
62811,13.024,-1.170,0.776,-0.113321,0.126316,2.619089,100047.13,-189,+128,-89
62820,13.972,-0.789,1.163,-0.122367,0.055545,2.784575,100047.87,-191,+120,-88
62830,15.713,-0.254,2.088,-0.209101,-0.038638,2.953786,100047.24,-195,+110,-87
62840,17.604,0.281,2.691,-0.428330,-0.079079,3.097988,100047.24,-196,+100,-87
62845,18.986,0.670,1.659,-0.701302,-0.067372,3.174080,100045.97,-196,+100,-87
62856,20.881,1.832,0.332,-1.088678,-0.118987,3.223566,100049.53,-199,+92,-86
62865,23.464,5.788,0.491,-1.592586,-0.275427,3.258153,100047.33,-199,+92,-86
62875,24.222,10.414,1.122,-1.893760,-0.322785,3.372557,100050.17,-201,+84,-87
62885,23.004,12.114,0.261,-2.202916,-0.244565,3.572630,100050.17,-202,+75,-86
62896,21.357,12.991,1.048,-2.360420,-0.250418,3.615731,100048.52,-203,+67,-86
62905,21.975,6.483,3.241,-1.346751,-0.296179,3.795584,100049.41,-203,+67,-86
62915,21.478,-7.051,4.299,-0.275082,-0.294583,4.854483,100048.09,-204,+55,-86
62925,19.887,-10.597,7.389,0.373028,-0.304161,5.165767,100046.67,-203,+37,-87
62936,20.082,-6.958,7.678,1.388825,-0.125372,4.716134,100046.67,-202,+19,-86
62946,19.235,-1.367,6.250,2.026293,0.196554,4.093033,100049.52,-201,+19,-86
62955,11.728,2.895,3.281,2.338641,0.379068,3.238465,100046.54,-201,+2,-83
62965,4.621,3.058,1.599,1.864531,0.169417,2.519053,100049.90,-200,-9,-80
62976,2.977,-5.477,2.391,1.563889,0.045967,2.013016,100049.37,-200,-18,-79
62985,5.152,-7.679,1.080,1.248880,-0.348858,1.837952,100049.37,-197,-25,-79
62995,6.334,-1.697,0.005,0.286294,-0.651097,0.879090,100047.27,-197,-25,-79
63005,5.195,3.448,1.128,-0.361284,-0.786785,0.306540,100047.68,-195,-26,-82
63015,3.422,4.782,1.657,-0.445889,-0.887885,-0.103184,100044.80,-193,-24,-84
63026,1.920,3.979,1.826,-0.182495,-0.974619,-0.442138,100047.21,-193,-22,-89
63035,1.038,2.573,1.702,0.053762,-1.095940,-0.738523,100047.21,-193,-22,-89
63045,0.927,1.394,1.547,0.258092,-1.223115,-1.078009,100045.74,-192,-20,-92
63055,1.512,0.500,1.476,0.392716,-1.359867,-1.452083,100045.32,-189,-15,-95
63066,2.067,0.234,1.365,0.450716,-1.518435,-1.805936,100044.74,-189,-10,-100
63075,2.473,0.644,1.372,0.520954,-1.665298,-2.152871,100044.63,-189,-10,-100
63085,2.882,1.085,1.699,0.668348,-1.770656,-2.486504,100044.63,-187,-3,-104
63095,3.405,1.223,2.015,0.863101,-1.858986,-2.806302,100045.66,-184,+4,-110
63106,3.970,0.969,2.325,1.052532,-1.927628,-3.100026,100043.66,-182,+11,-115
63116,4.411,0.636,2.755,1.206311,-1.977114,-3.359164,100042.13,-182,+11,-115
63125,4.793,0.383,3.362,1.340403,-2.007977,-3.618301,100041.30,-179,+20,-119
63135,5.278,0.167,3.960,1.430330,-2.027132,-3.884888,100041.30,-175,+29,-126
63145,5.761,-0.053,4.566,1.478220,-2.018086,-4.136576,100043.66,-171,+39,-131
63156,6.304,-0.023,5.242,1.538880,-2.006912,-4.388796,100041.99,-171,+39,-131
63165,7.053,0.034,5.775,1.628807,-1.977114,-4.633034,100040.46,-165,+48,-137
63175,8.032,0.019,6.207,1.726183,-1.935077,-4.870887,100042.30,-160,+59,-142
63185,8.967,-0.264,6.498,1.746403,-1.895701,-5.090117,100042.30,-153,+70,-148
63196,9.831,-0.671,6.644,1.720330,-1.863243,-5.301364,100040.30,-153,+70,-148
63205,10.739,-1.111,6.791,1.620293,-1.833444,-5.514740,100041.82,-146,+80,-154
63215,11.784,-1.458,6.897,1.403724,-1.809500,-5.716410,100042.73,-137,+91,-159
63225,13.050,-1.585,6.954,1.160018,-1.793004,-5.911694,100042.20,-128,+102,-165
63236,14.294,-1.710,7.075,0.972183,-1.741390,-6.095272,100042.20,-128,+102,-165
63246,15.633,-2.351,7.311,0.829578,-1.662637,-6.267675,100042.45,-118,+116,-170
63255,16.679,-3.448,7.543,0.643339,-1.581757,-6.437418,100042.66,-106,+128,-174
63265,17.664,-4.579,8.014,0.384734,-1.490766,-6.586409,100042.60,-92,+140,-177
63276,18.759,-5.702,9.051,0.108037,-1.286436,-6.662501,100042.55,-92,+140,-177
63286,19.527,-6.772,10.480,-0.124495,-0.915023,-6.665694,100042.55,-80,+154,-179
63295,19.779,-10.006,8.799,-0.517724,-0.421225,-6.540116,100046.47,-68,+166,-180
63305,18.513,-14.512,6.734,-1.677723,-0.282877,-6.195309,100044.11,-57,+181,-178
63315,16.759,-12.053,5.225,-2.222604,-0.192418,-5.873382,100045.58,-57,+181,-178
63326,17.796,-8.477,5.352,-1.986347,0.027875,-5.420025,100042.17,-44,+196,-175
63335,18.512,-8.821,5.520,-1.028549,0.267325,-4.709126,100042.17,-34,+207,-172
63345,16.323,-14.964,5.718,-0.082458,0.478572,-3.809329,100047.13,-27,+212,-172
63355,12.888,-21.332,5.982,0.386330,0.638737,-2.877604,100047.02,-27,+212,-172
63366,9.268,-24.918,5.621,0.485835,0.797838,-1.771881,100044.75,-24,+213,-172
63376,10.638,-24.134,3.893,0.682183,0.904792,-0.392120,100044.33,-25,+212,-172
63385,10.583,-20.444,0.560,1.089247,0.932462,0.998815,100044.33,-29,+209,-174
63395,12.909,-7.418,-4.131,2.089082,0.715361,1.868814,100047.45,-35,+209,-174
63406,17.336,25.452,-11.937,1.816641,0.328517,0.979127,100047.24,-35,+199,-176
63416,12.793,20.301,-9.220,0.036734,0.351930,0.523641,100046.02,-36,+198,-178
63425,12.020,-8.424,-2.253,1.678825,0.747820,2.015145,100049.60,-43,+191,-179
63435,21.601,-9.847,-6.163,3.029320,0.846792,2.199255,100049.60,-50,+180,-183
63446,22.245,-5.770,-5.246,0.200092,0.868609,2.192869,100049.73,-50,+180,-183
63456,13.140,-6.258,1.340,-1.612806,0.984609,2.603126,100049.66,-57,+181,-179
63465,14.100,-0.078,13.521,-1.130183,1.163398,2.163071,100046.84,-64,+181,-176
63475,16.674,2.715,19.785,0.367706,1.439563,1.804429,100043.95,-72,+175,-174
63485,17.475,-0.691,5.235,2.238604,1.028242,1.730466,100043.95,-72,+175,-174
63496,9.185,-7.014,-1.386,2.049173,0.903196,1.605420,100050.12,-77,+166,-176
63506,8.486,-1.780,0.376,1.361155,0.898407,1.402686,100048.34,-81,+158,-177
63515,10.959,-2.017,2.193,0.797651,0.654701,1.334044,100046.76,-85,+154,-176
63525,9.910,-2.751,1.341,0.234147,0.431215,1.128650,100047.60,-85,+154,-176
63536,10.369,2.193,2.026,-0.179834,0.380132,0.928044,100047.60,-89,+152,-176
63546,9.226,5.290,1.826,-0.209633,0.389178,0.965292,100050.05,-91,+151,-174
63555,8.430,4.620,0.788,0.120808,0.417380,1.040852,100048.37,-94,+148,-174
63565,9.471,4.090,0.602,0.590660,0.492407,1.135035,100047.27,-94,+148,-174
63576,10.055,3.763,0.499,0.821596,0.571159,1.292007,100046.01,-97,+144,-173
63586,9.593,2.171,1.021,0.797651,0.638205,1.438870,100046.01,-101,+138,-173
63596,9.118,0.938,1.966,0.550220,0.642462,1.449512,100047.84,-105,+133,-172
63605,9.101,0.930,2.809,0.103248,0.578609,1.392576,100048.11,-105,+133,-172
63616,8.887,1.133,2.759,-0.311798,0.467398,1.364907,100048.27,-108,+132,-171
63626,9.264,1.904,2.174,-0.474623,0.376939,1.354264,100044.11,-110,+129,-171
63636,9.804,2.227,1.391,-0.380972,0.364701,1.390448,100044.11,-113,+128,-168
63645,9.676,1.617,0.653,-0.155890,0.404609,1.447384,100051.10,-113,+128,-168
63655,9.662,1.118,0.473,0.064936,0.452499,1.501127,100047.37,-116,+125,-167
63666,9.887,0.723,0.732,0.124000,0.492407,1.543163,100047.10,-119,+121,-166
63676,9.944,0.089,1.370,-0.027119,0.503049,1.589457,100042.90,-122,+117,-165
63685,9.957,-0.070,2.406,-0.220807,0.503049,1.525072,100042.90,-122,+117,-165
63695,9.390,0.275,3.024,-0.340532,0.471655,1.442062,100048.90,-125,+114,-164
63706,9.171,0.427,3.023,-0.364477,0.418976,1.378209,100046.34,-128,+112,-163
63716,9.331,0.046,2.455,-0.301688,0.376939,1.332980,100044.65,-130,+110,-162
63726,9.818,-0.492,1.700,-0.254330,0.364169,1.292540,100047.16,-130,+110,-162
63735,10.133,-0.999,1.439,-0.282000,0.371618,1.256356,100047.16,-132,+107,-161
63746,10.100,-0.818,1.475,-0.344789,0.381196,1.206870,100047.02,-134,+105,-159
63756,9.905,-0.314,1.850,-0.367669,0.398224,1.161641,100047.70,-136,+103,-157
63766,9.750,-0.125,2.154,-0.358623,0.399820,1.145677,100046.97,-136,+103,-157
63775,9.678,-0.020,2.348,-0.374055,0.401416,1.155255,100044.28,-138,+101,-157
63785,9.729,-0.075,2.348,-0.392146,0.400352,1.180797,100044.28,-140,+99,-155
63796,9.816,-0.112,2.261,-0.429926,0.398224,1.224962,100048.55,-142,+96,-154
63806,9.878,-0.060,2.343,-0.432055,0.397160,1.270191,100048.29,-142,+96,-154
63815,9.869,0.026,2.461,-0.349577,0.389710,1.319677,100045.66,-144,+95,-152
63825,9.796,-0.174,2.531,-0.271357,0.377472,1.380870,100046.29,-146,+92,-152
63836,9.815,-0.564,2.352,-0.211229,0.373747,1.437274,100046.29,-148,+88,-151
63846,10.121,-1.055,2.375,-0.192605,0.382793,1.479310,100046.87,-150,+88,-149
63856,10.221,-1.349,2.455,-0.229853,0.394499,1.511237,100045.09,-150,+84,-149
63865,10.476,-1.693,2.583,-0.314990,0.401416,1.523475,100046.13,-151,+82,-147
63876,10.485,-1.676,2.629,-0.403853,0.402481,1.527732,100043.51,-153,+78,-146
63886,10.576,-1.870,2.220,-0.477816,0.399820,1.552209,100043.51,-156,+75,-146
63896,10.612,-2.015,1.682,-0.531559,0.392371,1.614466,100046.93,-156,+75,-146
63905,10.944,-2.179,1.279,-0.569339,0.375875,1.699071,100046.02,-157,+72,-143
63916,11.862,-2.588,0.776,-0.641706,0.349270,1.783677,100044.77,-158,+68,-142
63926,12.643,-1.936,0.799,-0.706091,0.327453,1.857108,100044.55,-160,+65,-142
63936,12.630,-0.798,1.716,-0.557100,0.305105,1.966191,100044.55,-160,+65,-142
63946,12.610,-1.324,1.281,-0.279871,0.285417,2.109860,100046.73,-161,+60,-141
63955,12.637,-2.029,1.056,-0.167596,0.287545,2.252998,100046.27,-163,+54,-139
63966,12.767,-1.699,1.160,-0.094697,0.250297,2.376979,100045.58,-163,+47,-139
63976,13.216,-1.719,1.289,-0.046275,0.220499,2.513199,100045.73,-163,+47,-139
63985,13.853,-1.466,1.634,-0.092568,0.210389,2.662722,100045.73,-164,+39,-138
63995,14.608,-0.869,2.126,-0.173449,0.207729,2.795750,100048.89,-164,+32,-137
64006,15.660,0.009,3.054,-0.250073,0.166756,2.917071,100046.53,-164,+24,-137
64016,17.021,0.314,3.694,-0.340000,0.131637,3.055419,100045.16,-164,+24,-137
64026,18.239,0.039,3.212,-0.729504,0.194958,3.192171,100045.31,-163,+16,-134
64035,20.556,1.764,0.964,-1.423375,0.220499,3.233144,100045.31,-162,+10,-136
64046,24.382,7.519,-0.521,-2.218347,0.156646,3.208135,100050.98,-161,+6,-136
64056,25.961,12.992,-1.823,-2.668512,0.103435,3.294869,100046.82,-161,+6,-136
64066,24.154,15.422,-2.061,-2.956915,0.175802,3.524740,100045.41,-160,+4,-137
64075,20.824,12.922,-1.450,-2.769613,0.077362,3.627437,100045.26,-158,+0,-137
64086,20.446,1.972,0.406,-1.666549,-0.051409,4.080263,100045.26,-156,-7,-137
64096,21.005,-7.913,3.293,-1.133907,-0.160491,4.802868,100047.97,-156,-7,-137
64106,19.972,-6.237,7.526,-0.712476,-0.217427,4.594813,100044.03,-152,-16,-138
64116,20.687,-1.233,7.912,0.678991,-0.200400,4.152630,100042.41,-147,-28,-137
64125,18.963,1.898,7.075,1.932109,0.082151,3.723749,100042.88,-144,-42,-135
64136,11.297,4.189,4.167,2.363118,0.183784,2.891529,100042.88,-144,-42,-135
64142,7.094,6.967,2.528,2.128458,-0.054602,2.278007,100046.14,-142,-54,-131
64151,5.682,2.693,2.418,1.826219,-0.252546,2.201383,100046.14,-139,-64,-129
64161,2.736,-8.076,6.806,1.747999,-0.370675,2.036429,100047.56,-139,-64,-129
64171,7.437,-5.404,2.387,1.914017,-0.846913,1.118540,100044.42,-134,-72,-127
64181,6.866,0.889,1.698,1.071156,-0.978876,-0.060616,100044.89,-132,-75,-127
64191,4.471,4.205,1.863,0.531064,-1.107115,-0.478322,100048.68,-131,-74,-129
64201,2.612,4.707,1.881,0.540110,-1.256637,-0.760340,100043.21,-131,-74,-129
64211,1.660,3.278,1.814,0.877468,-1.403500,-1.063642,100041.65,-129,-73,-130
64221,1.169,0.984,1.649,1.166403,-1.557812,-1.324908,100041.65,-127,-73,-132
64231,1.133,-0.216,1.947,1.253137,-1.721701,-1.684082,100042.65,-126,-71,-133
64241,1.987,-0.211,2.362,1.251541,-1.876545,-2.135844,100042.65,-126,-71,-133
64250,2.936,0.105,2.611,1.139266,-2.036178,-2.571641,100044.80,-125,-69,-136
64261,3.413,0.732,2.615,0.981761,-2.175059,-2.989348,100042.71,-125,-63,-139
64271,3.778,1.343,2.498,0.906734,-2.280416,-3.380980,100042.91,-123,-58,-142
64281,4.417,1.361,2.569,0.950899,-2.360233,-3.732173,100039.98,-123,-58,-142
64291,5.188,0.666,2.739,1.015816,-2.421958,-4.036540,100039.98,-124,-50,-147
64301,5.578,-0.156,3.052,1.005174,-2.462930,-4.303658,100039.95,-122,-42,-150
64311,5.667,-0.496,3.368,0.918440,-2.483150,-4.556411,100037.80,-121,-34,-155
64321,5.971,-0.630,3.764,0.812550,-2.475169,-4.819805,100036.27,-121,-34,-155
64331,6.605,-0.761,4.159,0.713578,-2.429940,-5.080539,100036.27,-119,-24,-160
64340,7.358,-0.793,4.304,0.650789,-2.347462,-5.327438,100036.27,-115,-14,-165
64351,8.375,-0.698,4.516,0.630037,-2.261261,-5.556245,100042.20,-114,-2,-170
64361,9.688,-0.575,4.700,0.619394,-2.198472,-5.782924,100042.29,-114,-2,-170
64371,11.293,-0.428,4.828,0.660367,-2.162288,-5.995768,100043.87,-112,+8,-174
64380,13.018,-0.635,5.269,0.800312,-2.113334,-6.164446,100040.46,-106,+20,-178
64391,14.635,-1.400,6.028,1.056789,-2.053738,-6.275125,100040.46,-102,+30,-183
64401,16.003,-2.587,7.433,1.487265,-1.944655,-6.341107,100040.17,-102,+30,-183
64411,17.804,-4.771,8.439,1.939027,-1.838766,-6.412941,100039.28,-96,+38,-187
64421,19.502,-8.198,8.909,2.080568,-1.671683,-6.426244,100040.75,-91,+45,-190
64431,20.674,-12.497,8.525,1.613908,-1.519500,-6.283107,100040.75,-86,+52,-193
64441,20.502,-12.941,6.752,0.952495,-1.433830,-6.204354,100044.41,-86,+52,-193
64451,19.886,-11.728,6.177,0.430495,-1.243867,-6.097401,100042.73,-80,+61,-196
64461,17.810,-11.798,7.847,-0.061706,-1.036344,-5.740887,100042.73,-75,+71,-198
64471,15.247,-11.637,10.277,-0.417155,-0.897463,-5.324245,100043.46,-69,+81,-200
64481,15.335,-10.799,12.199,-0.470899,-0.703243,-4.948043,100043.57,-69,+81,-200
64491,15.633,-12.788,12.428,-0.481009,-0.362161,-4.451053,100043.57,-64,+91,-200
64501,12.942,-17.322,11.897,-0.882219,0.025215,-3.821035,100046.99,-61,+100,-201
64512,9.581,-19.553,10.225,-1.415925,0.326921,-3.076614,100046.99,-60,+110,-201
64521,8.181,-19.636,8.010,-1.695283,0.508903,-2.131055,100045.16,-60,+118,-199
64531,8.713,-19.265,6.323,-1.504788,0.563178,-0.947110,100043.79,-60,+118,-199
64541,9.604,-17.751,6.454,-0.880091,0.630224,0.307604,100046.60,-61,+122,-198
64551,10.528,-15.765,6.741,-0.090440,0.757398,1.364374,100046.34,-64,+120,-196
64561,16.071,-9.162,6.542,0.495945,0.997379,2.167860,100045.71,-71,+115,-194
64571,15.572,16.550,-7.801,0.524147,0.752609,1.754411,100045.71,-71,+115,-194
64581,12.496,48.969,-10.652,-0.740146,0.668536,-0.178744,100049.27,-73,+114,-194
64591,8.296,25.766,-8.788,-0.604990,0.463673,0.104871,100049.27,-75,+118,-193
64601,13.875,-19.065,1.573,3.685411,1.006957,2.280135,100049.66,-81,+98,-194
64612,20.028,-8.592,-4.151,5.525801,1.192309,1.886374,100046.52,-81,+98,-194
64621,20.796,-0.022,-6.833,1.685210,0.935655,1.874668,100046.52,-86,+82,-193
64631,15.459,-5.813,-5.153,0.080899,1.038352,2.687731,100047.34,-90,+78,-192
64642,14.568,-4.704,0.125,0.137303,1.349636,2.362612,100047.34,-96,+72,-190
64651,12.511,-1.681,15.043,0.122936,1.673691,2.032704,100047.25,-96,+72,-190
64661,13.723,2.328,11.890,1.545265,1.594407,1.874668,100042.50,-102,+67,-186
64671,14.244,0.344,1.881,2.566916,1.151159,1.933200,100044.56,-106,+54,-184
64681,8.499,-2.964,-0.918,2.065669,1.137856,1.984282,100044.56,-110,+44,-182
64691,11.144,-3.733,1.689,1.411706,1.062297,1.912980,100044.56,-110,+44,-182
64701,11.608,-5.608,1.851,0.650257,0.776554,1.801237,100048.88,-114,+36,-178
64711,10.513,-2.569,1.451,-0.175045,0.580737,1.519218,100046.83,-114,+34,-179
64721,10.756,3.118,0.923,-0.655541,0.535508,1.398962,100049.34,-115,+32,-177
64731,9.177,2.510,0.023,-0.559761,0.513692,1.460686,100043.98,-115,+32,-177
64741,10.256,1.289,-0.223,-0.127156,0.529123,1.463879,100043.98,-118,+30,-176
64751,11.255,0.562,0.548,0.108569,0.566903,1.461751,100047.73,-119,+26,-175
64761,10.516,1.168,1.746,0.162844,0.593508,1.403751,100044.69,-120,+23,-174
64772,9.290,0.998,2.381,0.110697,0.570627,1.336173,100051.52,-120,+23,-174
64781,8.803,0.167,2.624,-0.116513,0.494004,1.262209,100046.77,-121,+20,-173
64791,9.254,0.180,2.592,-0.558697,0.398224,1.172815,100048.04,-123,+18,-171
64801,9.617,1.264,2.057,-0.918935,0.333306,1.114283,100047.66,-124,+18,-171
64811,9.590,1.952,1.328,-0.933302,0.333306,1.095127,100047.66,-124,+18,-171
64821,9.581,2.144,0.880,-0.750788,0.380664,1.113751,100045.66,-123,+18,-171
64831,9.568,2.069,1.234,-0.542733,0.439196,1.179732,100046.57,-125,+18,-170
64841,9.293,1.180,1.603,-0.355963,0.476976,1.245714,100046.57,-125,+15,-169
64851,9.050,0.616,2.080,-0.310733,0.495068,1.250503,100046.38,-125,+15,-169
64862,8.972,0.768,2.588,-0.359688,0.492939,1.229218,100045.91,-126,+14,-168
64871,8.997,0.559,2.636,-0.365009,0.472719,1.210063,100045.91,-127,+12,-167
64881,9.136,0.122,2.545,-0.285724,0.457820,1.189310,100046.49,-128,+10,-166
64891,9.263,-0.114,2.337,-0.223467,0.451435,1.170154,100045.60,-128,+10,-166
64902,9.448,-0.406,2.173,-0.151101,0.452499,1.139292,100045.60,-128,+8,-164
64911,9.800,-1.013,1.916,-0.091504,0.450903,1.109494,100046.98,-130,+6,-165
64921,10.078,-1.154,1.801,-0.103211,0.443985,1.079164,100043.71,-131,+3,-163
64931,10.077,-1.160,1.707,-0.145247,0.437068,1.049365,100043.71,-131,+3,-163
64941,10.073,-1.057,1.664,-0.220275,0.431747,1.032870,100043.71,-131,+0,-163
64951,10.304,-1.181,1.678,-0.320311,0.401949,1.036595,100046.02,-132,-1,-162
64961,10.429,-0.788,1.716,-0.413431,0.411527,1.030742,100042.91,-132,-2,-161
64966,10.233,-0.427,1.827,-0.473559,0.430683,1.038191,100045.17,-132,-2,-161
64976,9.972,-0.245,1.971,-0.479944,0.434407,1.070118,100043.48,-134,-4,-161
64986,9.770,0.153,2.143,-0.409174,0.430683,1.146209,100043.48,-134,-5,-159
64996,9.803,0.021,2.287,-0.254330,0.417380,1.240393,100045.05,-134,-5,-159
65006,10.130,-0.783,2.130,-0.149504,0.404077,1.321806,100044.73,-134,-8,-158
65016,10.387,-0.958,2.233,-0.167596,0.414719,1.378741,100046.16,-134,-10,-158
65027,10.444,-1.140,2.446,-0.178770,0.413123,1.419182,100045.89,-135,-14,-156
65036,10.565,-1.685,2.348,-0.188880,0.410462,1.448980,100045.89,-135,-14,-156
65046,10.812,-2.070,2.333,-0.292642,0.413655,1.461218,100046.94,-134,-17,-156
65056,10.734,-1.991,2.385,-0.395871,0.414187,1.493145,100044.42,-134,-20,-155
65067,10.898,-1.808,2.107,-0.471431,0.403013,1.521347,100046.94,-133,-22,-155
65076,11.161,-1.717,1.512,-0.502825,0.372683,1.586264,100045.78,-133,-22,-155
65086,11.067,-1.391,1.404,-0.455999,0.346609,1.684704,100045.78,-134,-24,-154
65096,11.254,-1.245,1.743,-0.346385,0.311490,1.792191,100048.23,-132,-28,-154
65106,11.755,-1.560,1.925,-0.255926,0.269985,1.906062,100046.49,-131,-31,-153
65117,12.214,-1.713,2.072,-0.216018,0.243912,2.013016,100047.29,-131,-31,-153
65126,12.476,-1.676,1.904,-0.219211,0.230077,2.114117,100046.23,-130,-36,-152
65136,12.688,-1.610,1.476,-0.217614,0.222628,2.223200,100046.23,-128,-40,-152
65146,12.974,-1.585,0.807,-0.197394,0.210389,2.347181,100046.44,-126,-46,-152
65157,13.347,-1.437,0.328,-0.144183,0.198683,2.498300,100044.70,-126,-46,-152
65166,13.934,-0.994,0.394,-0.094697,0.171013,2.661126,100045.66,-123,-51,-151
65176,14.986,-0.300,1.349,-0.067027,0.122591,2.837254,100043.97,-121,-58,-151
65186,16.502,0.542,2.539,-0.140990,0.078958,3.005933,100043.97,-116,-64,-151
65197,18.267,0.871,2.931,-0.417688,0.103435,3.150135,100045.98,-112,-64,-151
65202,19.601,0.984,1.980,-0.769412,0.140151,3.219841,100046.76,-112,-68,-151
65211,20.913,2.493,1.085,-1.279173,0.130041,3.239529,100046.76,-107,-72,-153
65221,22.317,6.652,0.571,-2.074145,0.094921,3.223566,100042.66,-107,-72,-153
65231,23.209,10.961,-0.230,-2.774934,0.100242,3.256025,100043.24,-102,-72,-156
65242,22.297,13.566,-1.252,-3.327264,0.114077,3.247511,100043.24,-97,-70,-160
65252,19.230,13.110,-0.239,-3.167099,0.054481,3.068190,100047.66,-92,-66,-165
65261,20.596,1.987,2.333,-1.606421,0.011912,3.692887,100048.09,-92,-66,-165
65271,21.501,-8.694,4.081,-0.256458,-0.018418,4.673565,100045.05,-86,-71,-166
65282,19.866,-9.945,7.465,0.262349,-0.023207,4.897583,100045.05,-78,-80,-166
