150011,9.391,-2.442,2.393,0.026823,-0.008321,0.001075,99941.30,+70,-9,+121
150021,9.371,-2.400,2.374,0.017245,-0.005128,0.000543,99942.03,+67,-6,+119
150031,9.420,-2.405,2.365,0.009796,-0.001403,-0.000521,99942.03,+65,-4,+113
150041,9.427,-2.391,2.381,0.011924,-0.000339,-0.003182,99940.39,+70,-9,+121
150051,9.402,-2.377,2.468,0.021502,-0.000871,-0.004246,99939.14,+70,-9,+121
150061,9.372,-2.449,2.502,0.023098,-0.001936,-0.006906,99937.98,+67,-6,+118
150071,9.365,-2.429,2.527,0.014585,-0.003532,-0.009567,99937.77,+65,-5,+113
150081,9.373,-2.386,2.556,0.009264,-0.005128,-0.011695,99937.77,+70,-9,+121
150091,9.390,-2.361,2.516,0.006071,-0.007789,-0.012227,99942.54,+70,-9,+121
150102,9.395,-2.361,2.386,0.006603,-0.009917,-0.011695,99939.45,+66,-5,+118
150111,9.393,-2.361,2.366,0.012988,-0.010981,-0.011163,99939.13,+66,-4,+113
150121,9.407,-2.391,2.364,0.018309,-0.008853,-0.010631,99939.13,+69,-9,+121
150131,9.417,-2.344,2.393,0.019374,-0.007257,-0.011695,99939.13,+69,-9,+121
150141,9.437,-2.327,2.429,0.029484,-0.006725,-0.010631,99942.80,+66,-5,+118
150151,9.410,-2.351,2.496,0.041190,-0.010449,-0.007438,99938.45,+66,-3,+113
150161,9.410,-2.329,2.512,0.049704,-0.013110,-0.006374,99940.44,+69,-9,+121
150171,9.425,-2.341,2.474,0.053429,-0.013110,-0.005310,99939.23,+69,-9,+121
150181,9.411,-2.332,2.453,0.058750,-0.013642,-0.005842,99939.23,+66,-5,+118
150192,9.407,-2.385,2.481,0.051300,-0.012578,-0.004778,99942.60,+66,-4,+114
150201,9.313,-2.503,2.350,0.024163,-0.010449,-0.008503,99940.49,+69,-9,+121
150211,9.403,-2.441,2.292,-0.001379,-0.001936,-0.013824,99939.13,+69,-9,+121
150221,9.422,-2.296,2.386,-0.004571,0.001257,-0.016484,99939.13,+66,-5,+118
150232,9.419,-2.286,2.388,0.003942,0.000193,-0.013824,99940.73,+67,-4,+114
150241,9.415,-2.340,2.472,0.022566,-0.002468,-0.010099,99939.27,+70,-9,+121
150251,9.393,-2.358,2.505,0.022034,-0.005128,-0.007438,99939.27,+70,-9,+121
150261,9.404,-2.410,2.502,0.012456,-0.005660,-0.006906,99938.80,+66,-4,+117
150272,9.425,-2.328,2.473,0.010860,-0.004064,-0.009035,99942.78,+66,-5,+114
150281,9.421,-2.314,2.393,0.014053,-0.005660,-0.009035,99942.78,+69,-9,+122
150287,9.444,-2.317,2.377,0.019374,-0.005128,-0.005842,99942.98,+69,-9,+122
150296,9.419,-2.412,2.394,0.026291,-0.004064,-0.004246,99938.88,+66,-4,+116
150306,9.383,-2.353,2.413,0.025759,-0.002468,-0.005842,99939.68,+66,-5,+114
150317,9.385,-2.376,2.469,0.020970,-0.000871,-0.007971,99940.09,+66,-5,+114
150326,9.391,-2.377,2.468,0.017245,-0.000871,-0.010099,99940.09,+70,-9,+122
150336,9.386,-2.365,2.474,0.013520,-0.001936,-0.009567,99942.40,+66,-3,+116
150346,9.392,-2.370,2.474,0.012456,-0.003532,-0.008503,99939.66,+66,-4,+114
150356,9.432,-2.352,2.425,0.012456,-0.004064,-0.007438,99941.98,+66,-4,+114
150366,9.432,-2.297,2.399,0.012988,-0.004064,-0.007438,99938.30,+70,-8,+122
150376,9.428,-2.359,2.380,0.020438,-0.004596,-0.005842,99938.30,+65,-4,+116
150386,9.426,-2.364,2.414,0.028420,-0.006192,-0.005310,99941.52,+67,-5,+115
150396,9.397,-2.352,2.457,0.034273,-0.006192,-0.006374,99942.20,+67,-5,+115
150402,9.417,-2.375,2.459,0.036401,-0.008321,-0.006906,99940.16,+69,-9,+122
150411,9.444,-2.341,2.508,0.036933,-0.009385,-0.008503,99940.16,+69,-9,+122
150421,9.449,-2.337,2.497,0.039594,-0.015770,-0.010099,99940.32,+65,-3,+116
150431,9.528,-2.284,2.491,0.040126,-0.029073,-0.009567,99940.32,+67,-5,+116
150441,9.529,-2.314,2.499,0.044383,-0.045569,-0.008503,99941.55,+68,-8,+122
150452,9.507,-2.283,2.502,0.045979,-0.066853,-0.009567,99940.07,+68,-8,+122
150461,9.490,-2.290,2.502,0.044383,-0.089734,-0.010631,99938.99,+65,-3,+116
150471,9.656,-2.328,2.448,0.036933,-0.106761,-0.011695,99938.99,+66,-5,+116
150481,9.623,-2.329,2.321,0.030548,-0.116339,-0.012227,99938.99,+69,-7,+122
150492,9.505,-2.212,2.236,0.024163,-0.124321,-0.009035,99940.99,+65,-4,+116
150501,9.464,-2.045,2.153,0.036933,-0.129110,-0.002117,99941.73,+65,-4,+116
150511,9.422,-1.920,2.234,0.075245,-0.149862,0.010653,99939.99,+66,-5,+117
150521,9.362,-1.863,2.274,0.155594,-0.184981,0.025375,99938.84,+68,-8,+123
150531,9.285,-1.952,2.350,0.230089,-0.219036,0.040984,99938.84,+63,-3,+116
150541,9.106,-2.227,2.336,0.272126,-0.224890,0.060672,99941.82,+63,-3,+116
150551,9.038,-2.534,2.322,0.251906,-0.210523,0.065993,99940.82,+66,-5,+118
150561,9.178,-2.595,2.313,0.196034,-0.181789,0.055350,99940.15,+67,-7,+123
150572,8.977,-2.441,2.273,0.117282,-0.142945,0.052690,99940.15,+64,-1,+116
150582,8.755,-2.467,2.178,0.090676,-0.107293,0.051094,99941.32,+64,-1,+116
150591,8.836,-2.612,2.108,0.088016,-0.080688,0.043112,99941.43,+66,-4,+118
150601,8.960,-2.695,2.129,0.071520,-0.054082,0.026084,99941.43,+67,-5,+124
150611,9.149,-2.675,2.260,0.050768,-0.025880,0.006396,99939.80,+63,-1,+115
150621,9.361,-2.642,2.150,-0.008296,-0.009385,-0.021273,99940.59,+63,-1,+115
150631,9.456,-2.662,1.927,-0.048736,0.010835,-0.052668,99940.59,+66,-4,+118
150641,9.562,-2.417,1.700,-0.047140,0.039569,-0.072888,99940.40,+66,-5,+122
150651,9.577,-2.382,1.408,0.013520,0.053936,-0.092044,99938.15,+64,-1,+115
150662,9.632,-2.733,1.439,0.103979,0.073092,-0.114393,99939.04,+64,-1,+115
150672,9.665,-3.190,1.935,0.159851,0.087459,-0.157493,99938.20,+68,-3,+119
150681,9.634,-3.476,2.528,0.147080,0.107147,-0.230392,99941.51,+68,-5,+123
150691,9.647,-3.640,3.103,0.057686,0.118853,-0.318723,99942.91,+64,+0,+116
150702,9.578,-3.585,3.280,-0.058314,0.124707,-0.409713,99938.73,+64,+0,+116
150712,9.496,-3.038,2.990,-0.175911,0.125239,-0.482080,99938.51,+67,-3,+119
150721,9.530,-2.429,2.514,-0.230718,0.122046,-0.523053,99938.51,+66,-5,+122
150731,9.651,-1.932,1.977,-0.226993,0.113532,-0.537420,99938.51,+63,-1,+115
150742,9.796,-1.618,1.804,-0.184424,0.111936,-0.518796,99941.52,+63,-1,+115
150752,9.775,-1.338,2.159,-0.116314,0.109807,-0.476759,99940.05,+66,-5,+119
150761,9.610,-1.134,2.508,-0.068424,0.097569,-0.418759,99939.00,+65,-5,+122
150771,9.496,-0.953,2.939,-0.033837,0.072560,-0.347457,99940.20,+63,-2,+115
150781,9.428,-0.792,3.158,-0.005635,0.042230,-0.269236,99940.20,+63,-2,+115
150792,9.516,-0.785,3.196,0.006603,0.007110,-0.191548,99941.90,+66,-6,+119
150802,9.589,-0.913,3.008,0.011392,-0.031734,-0.114393,99938.77,+64,-6,+122
150811,9.532,-1.090,2.905,-0.001911,-0.063128,-0.046282,99937.38,+63,-1,+115
150821,9.601,-1.210,2.776,-0.028516,-0.091330,0.007461,99937.38,+63,-1,+115
150832,9.633,-1.374,2.645,-0.027984,-0.117403,0.047369,99940.24,+65,-5,+120
150841,9.628,-1.327,2.529,0.012988,-0.147202,0.082488,99940.24,+64,-5,+122
150851,9.621,-1.445,2.539,0.066731,-0.172211,0.116011,99939.29,+62,-1,+115
150861,9.578,-1.855,2.404,0.095997,-0.182853,0.138360,99940.02,+62,-1,+115
150872,9.581,-1.787,2.261,0.107704,-0.174339,0.151130,99937.24,+65,-6,+120
150881,9.513,-1.876,2.137,0.124199,-0.168486,0.161240,99937.24,+63,-5,+122
150891,9.460,-2.080,1.998,0.141759,-0.165293,0.166561,99943.35,+61,-1,+115
150901,9.469,-2.230,2.025,0.140163,-0.154119,0.160708,99941.04,+61,-1,+115
150912,9.502,-2.321,2.140,0.115153,-0.138156,0.150066,99939.57,+64,-5,+121
150922,9.439,-2.270,2.254,0.077374,-0.120596,0.139424,99939.56,+63,-4,+122
150932,9.393,-2.183,2.417,0.040658,-0.108358,0.129314,99940.45,+62,-1,+115
150941,9.457,-2.265,2.339,-0.003507,-0.105697,0.113883,99939.14,+65,-5,+122
150951,9.568,-2.260,2.074,-0.051397,-0.105165,0.102176,99939.14,+65,-5,+122
150962,9.634,-2.143,2.113,-0.054590,-0.100376,0.093130,99938.88,+63,-4,+121
150971,9.629,-1.972,2.056,-0.041287,-0.092926,0.094195,99938.72,+61,-1,+114
150981,9.619,-1.896,2.066,-0.027984,-0.086541,0.105369,99938.72,+64,-6,+121
150992,9.580,-1.862,2.219,-0.017874,-0.072529,0.126121,99941.52,+64,-6,+121
151002,9.602,-1.769,2.347,-0.016278,-0.054614,0.151130,99941.52,+63,-4,+121
151012,9.666,-1.705,2.335,-0.036498,-0.026945,0.190506,99941.56,+61,-1,+115
151021,9.607,-1.469,2.415,-0.083856,0.003918,0.241589,99936.17,+65,-7,+121
151031,9.620,-1.367,2.374,-0.157819,0.025202,0.304910,99936.17,+65,-7,+121
151042,9.818,-1.159,2.491,-0.216883,0.035312,0.379405,99941.65,+63,-5,+121
151052,9.996,-0.674,2.809,-0.219012,0.005514,0.469864,99941.30,+63,-2,+114
151062,10.132,-0.241,3.080,-0.133874,-0.060468,0.591717,99939.37,+66,-7,+121
151071,10.163,-0.074,3.312,-0.006700,-0.141880,0.754543,99939.37,+66,-7,+121
151081,10.184,-0.135,3.288,0.056089,-0.223293,0.940781,99939.37,+64,-5,+120
151092,10.419,0.084,3.251,0.093337,-0.281293,1.149900,99942.14,+63,-2,+114
151101,10.819,-0.172,2.913,0.057686,-0.323330,1.368065,99941.36,+68,-6,+121
151111,11.512,-0.695,2.589,0.008199,-0.349935,1.565478,99941.09,+68,-6,+121
151121,12.172,-1.664,2.453,-0.108333,-0.360045,1.725643,99937.75,+66,-4,+121
151132,13.618,-2.748,2.546,-0.265305,-0.341954,1.801735,99937.75,+66,-1,+114
151142,15.429,-4.037,2.785,-0.474424,-0.296192,1.824083,99940.63,+71,-7,+121
151151,17.111,-5.042,2.508,-0.784112,-0.219568,1.760230,99940.37,+71,-7,+121
151161,17.841,-3.923,2.621,-1.110295,-0.178064,1.657001,99937.65,+70,-6,+118
151172,17.819,-2.426,2.547,-1.251304,-0.215312,1.580909,99937.65,+71,-7,+113
151182,16.073,-1.323,2.103,-1.169892,-0.289807,1.502689,99940.06,+73,-15,+121
151191,13.681,-0.577,1.537,-0.936828,-0.370688,1.502157,99940.06,+73,-15,+121
151201,11.979,-2.419,1.180,-0.710681,-0.455293,1.572395,99942.27,+71,-14,+118
151212,11.111,-7.171,2.123,-0.416424,-0.506376,1.695313,99941.73,+72,-15,+116
151222,10.801,-9.698,2.723,-0.017342,-0.505311,1.732028,99937.02,+77,-21,+124
151227,10.483,-9.689,2.504,0.047043,-0.462743,1.661790,99937.02,+77,-21,+124
151236,9.826,-9.762,1.527,-0.148241,-0.441458,1.587294,99940.95,+74,-20,+122
151246,8.499,-10.111,1.789,-0.369599,-0.418045,1.575588,99942.16,+73,-22,+118
151257,7.743,-7.405,1.390,-0.361617,-0.418045,1.403717,99940.95,+73,-22,+118
151267,6.492,-6.656,1.299,-0.498369,-0.383990,1.238230,99940.69,+77,-28,+127
151276,4.975,-6.919,1.224,-0.486663,-0.366963,1.203643,99940.69,+74,-28,+124
151286,3.828,-6.716,0.840,-0.371727,-0.347807,1.144579,99940.20,+73,-29,+122
151297,3.323,-6.046,0.416,-0.261580,-0.330779,1.060506,99939.89,+73,-29,+122
151307,3.014,-5.612,0.236,-0.186021,-0.310027,0.976433,99940.31,+77,-34,+130
151317,2.581,-5.309,0.160,-0.129617,-0.286082,0.897148,99937.53,+73,-34,+127
151326,2.108,-4.998,0.203,-0.069489,-0.260009,0.824249,99937.53,+73,-34,+125
151336,1.764,-4.807,0.165,0.000218,-0.241917,0.751882,99943.04,+73,-34,+125
151347,1.625,-4.756,0.048,0.065135,-0.232339,0.677387,99942.57,+77,-39,+132
151357,1.576,-4.606,-0.084,0.110364,-0.219036,0.607148,99939.73,+72,-37,+128
151366,1.579,-4.463,-0.259,0.123667,-0.203073,0.535846,99939.95,+73,-36,+127
151376,1.560,-4.406,-0.337,0.123667,-0.184449,0.456561,99939.95,+73,-36,+127
151387,1.556,-4.248,-0.449,0.110364,-0.166357,0.367167,99942.90,+76,-40,+135
151397,1.546,-4.173,-0.508,0.097062,-0.151458,0.282561,99940.29,+72,-36,+129
151406,1.628,-4.209,-0.517,0.107704,-0.137091,0.199020,99938.45,+73,-36,+128
151416,1.722,-4.265,-0.442,0.121007,-0.117935,0.106433,99938.40,+73,-36,+128
151427,1.873,-4.311,-0.358,0.133777,-0.095055,0.012250,99938.40,+76,-39,+135
151437,2.094,-4.275,-0.182,0.152933,-0.071110,-0.090448,99941.13,+72,-35,+129
151447,2.352,-4.156,-0.059,0.186456,-0.050358,-0.204851,99940.13,+72,-35,+127
151456,2.735,-4.119,0.040,0.224768,-0.034926,-0.328301,99938.46,+72,-35,+127
151467,3.105,-4.247,0.072,0.258291,-0.034926,-0.456539,99937.51,+75,-37,+135
151477,3.376,-4.554,0.068,0.277979,-0.040247,-0.579456,99937.51,+71,-32,+128
151487,3.620,-4.897,0.054,0.281172,-0.041312,-0.697053,99940.98,+71,-30,+127
151496,4.009,-5.171,0.176,0.256162,-0.028009,-0.826355,99940.62,+71,-30,+127
151506,4.666,-5.040,0.419,0.246052,-0.005128,-0.959383,99937.52,+72,-32,+134
151517,5.535,-4.560,0.620,0.269465,0.019881,-1.108906,99938.51,+68,-26,+126
151527,6.438,-4.217,0.728,0.307777,0.043294,-1.263750,99938.51,+70,-25,+126
151537,7.264,-4.122,0.821,0.358328,0.062982,-1.397841,99940.59,+70,-25,+126
151546,7.844,-4.193,0.942,0.422713,0.083734,-1.515970,99939.74,+71,-26,+131
151557,8.308,-4.117,1.050,0.492951,0.124707,-1.621859,99941.27,+66,-20,+123
151567,8.708,-4.116,0.966,0.491887,0.184835,-1.721364,99940.95,+68,-19,+124
151577,9.058,-4.196,0.796,0.428566,0.258798,-1.821933,99940.95,+68,-19,+124
151586,9.578,-4.234,0.756,0.333318,0.345532,-1.936336,99938.59,+69,-18,+128
151597,10.259,-4.167,0.999,0.240199,0.424284,-2.056061,99941.89,+65,-12,+119
151607,10.873,-3.651,1.252,0.176346,0.465257,-2.161419,99940.48,+66,-11,+120
151617,11.569,-3.037,1.589,0.149208,0.509954,-2.257731,99938.59,+66,-11,+120
151626,12.501,-2.337,1.566,0.209869,0.638725,-2.317327,99938.59,+67,-12,+125
151636,11.265,-6.760,4.287,0.218915,0.869660,-2.302960,99940.25,+64,-7,+116
151647,13.868,-14.174,6.988,0.193374,1.076119,-1.755951,99940.83,+68,-7,+117
151657,19.381,-7.092,4.552,1.177245,0.667991,-1.476593,99940.78,+68,-7,+117
151666,30.136,0.406,5.684,0.610016,0.291789,-1.214795,99941.30,+67,-7,+123
151676,30.356,6.450,3.593,0.830841,0.107679,-1.323346,99941.30,+64,-1,+114
151687,14.006,-5.735,-1.337,0.273190,0.200266,-0.992374,99941.70,+66,-3,+117
151697,2.932,-10.686,-2.309,-0.328626,0.351917,-0.740154,99940.08,+66,-6,+123
151707,3.231,-3.586,-0.285,-0.673433,0.542945,-1.120080,99941.64,+66,-6,+123
151716,9.507,2.009,2.688,-0.763360,0.590835,-1.195639,99941.13,+63,-3,+114
151727,12.890,2.210,4.270,-0.159947,0.341807,-0.908300,99941.13,+64,-6,+118
151737,10.533,-2.084,4.897,0.575960,0.111404,-0.661401,99939.19,+64,-7,+122
151747,7.360,-4.943,4.689,0.481777,0.084798,-0.634796,99941.08,+64,-7,+122
151756,7.357,-2.365,2.560,-0.376516,0.193349,-0.621493,99940.03,+62,-3,+115
151767,9.173,0.390,1.127,-0.800075,0.277954,-0.511346,99941.30,+64,-7,+119
151777,10.058,-0.552,0.778,-0.437709,0.236982,-0.405457,99941.30,+64,-9,+122
151787,10.090,-0.994,1.594,-0.047672,0.192285,-0.309677,99941.78,+64,-9,+122
151796,9.506,-2.005,2.132,0.095465,0.156101,-0.225603,99942.45,+61,-4,+114
151806,9.332,-3.187,2.253,0.158786,0.148119,-0.224539,99942.92,+64,-7,+119
151817,9.663,-3.280,2.757,0.016181,0.174193,-0.273493,99940.16,+64,-8,+122
151827,9.723,-2.393,2.520,-0.214755,0.202395,-0.288925,99940.16,+64,-8,+122
151837,9.823,-1.209,2.284,-0.269030,0.193881,-0.255934,99940.04,+61,-4,+113
151846,9.949,-0.603,2.457,-0.113654,0.143863,-0.175585,99940.04,+64,-9,+118
151857,9.919,-0.952,2.684,0.032676,0.081074,-0.071292,99940.04,+63,-9,+121
151867,9.720,-1.532,3.044,0.077906,0.027330,0.019699,99939.30,+63,-9,+121
151877,9.578,-1.361,3.220,0.056089,-0.028009,0.095791,99939.30,+61,-4,+114
151886,9.472,-1.075,3.197,0.016181,-0.083880,0.177736,99940.87,+64,-8,+120
151897,9.536,-0.955,3.014,-0.031177,-0.141348,0.262873,99940.87,+64,-9,+121
151907,9.492,-1.039,2.511,-0.063635,-0.185513,0.356525,99942.91,+64,-9,+121
151917,9.720,-1.458,1.833,-0.058846,-0.215844,0.438469,99940.98,+61,-4,+114
151926,9.896,-2.073,1.769,-0.048204,-0.225422,0.492745,99940.98,+65,-9,+119
151937,9.639,-2.320,2.095,-0.090773,-0.217972,0.518818,99941.34,+64,-8,+121
151947,9.428,-2.142,2.491,-0.182828,-0.210523,0.544891,99940.60,+64,-8,+121
151957,9.556,-1.615,2.916,-0.230718,-0.229146,0.597038,99939.98,+62,-5,+114
151967,9.820,-1.290,3.086,-0.196131,-0.287146,0.684304,99939.02,+65,-9,+119
151976,9.828,-1.052,2.970,-0.149837,-0.358981,0.794983,99939.02,+65,-8,+120
151987,9.812,-0.703,2.709,-0.126957,-0.423899,0.934396,99940.27,+65,-8,+120
151997,9.967,0.001,2.172,-0.083324,-0.469660,1.112653,99939.80,+63,-6,+113
152007,10.482,0.308,2.363,0.050236,-0.513825,1.348377,99939.22,+68,-9,+119
152016,10.835,0.128,2.691,0.338640,-0.587256,1.589423,99940.06,+66,-8,+119
152027,11.059,-0.354,3.012,0.588199,-0.672394,1.812377,99940.06,+66,-8,+119
152037,11.244,-2.927,3.121,0.623850,-0.771366,1.982652,99941.70,+65,-3,+113
152047,12.220,-4.623,3.584,0.412603,-0.804889,2.036395,99938.50,+70,-5,+119
152052,13.262,-4.661,3.850,0.028952,-0.817128,2.032138,99939.59,+70,-5,+119
152061,14.138,-4.366,4.168,-0.421745,-0.813935,2.038523,99939.59,+68,-5,+119
152072,15.397,-3.562,3.961,-0.835195,-0.846394,2.057679,99938.13,+67,-5,+113
152082,17.073,-2.618,3.884,-0.924057,-0.865018,2.047569,99938.13,+71,-10,+119
152092,18.163,-2.830,3.177,-0.967690,-0.919293,2.089606,99939.91,+71,-10,+119
152102,17.524,-2.389,2.466,-0.982589,-0.958669,2.151863,99936.86,+70,-11,+119
152112,16.065,-1.792,2.307,-0.936295,-0.986871,2.169955,99938.75,+68,-11,+113
152122,14.737,-1.410,2.553,-0.829341,-1.035825,2.140157,99938.75,+73,-19,+120
152132,13.333,-1.471,2.668,-0.668112,-1.061366,2.067790,99938.75,+73,-19,+120
152142,11.494,-2.538,2.836,-0.505819,-1.035293,2.003936,99942.81,+71,-19,+119
152152,9.893,-3.807,2.741,-0.329158,-0.975164,1.930505,99937.78,+70,-19,+114
152162,8.232,-4.834,2.960,-0.150901,-0.878320,1.829404,99937.83,+75,-25,+121
152172,6.857,-3.703,3.578,-0.016810,-0.724009,1.638377,99934.00,+75,-25,+121
152182,6.337,-1.022,3.689,0.076842,-0.512761,1.277607,99934.00,+73,-26,+121
152193,6.210,1.735,2.866,0.021502,-0.319605,0.887570,99941.13,+73,-27,+116
152202,5.824,3.333,2.058,-0.073213,-0.155183,0.540102,99938.13,+77,-32,+123
152212,5.257,4.279,1.964,-0.041819,-0.008321,0.178800,99936.61,+77,-32,+123
152222,4.537,5.057,1.971,0.181667,0.171000,-0.228796,99936.61,+76,-34,+122
152232,4.059,4.844,2.232,0.418988,0.365220,-0.622557,99938.60,+75,-34,+115
152242,4.349,4.841,2.384,0.628107,0.522725,-1.045585,99938.23,+79,-39,+123
152252,4.968,4.944,2.168,0.778162,0.644578,-1.531401,99938.23,+79,-39,+123
152262,5.795,4.663,2.018,0.828180,0.751532,-1.975180,99939.49,+77,-39,+120
152272,6.518,3.994,1.862,0.843080,0.840394,-2.365217,99938.02,+77,-39,+115
152282,7.093,3.175,1.704,0.861703,0.924468,-2.719070,99938.02,+78,-46,+122
152292,7.607,2.308,1.556,0.863832,1.003220,-3.048446,99941.07,+78,-46,+122
152302,8.253,1.337,1.393,0.839887,1.063880,-3.356005,99937.98,+75,-46,+119
152312,9.081,0.340,1.271,0.786676,1.105917,-3.639620,99938.49,+72,-48,+113
152323,10.075,-0.638,1.217,0.700474,1.144229,-3.880666,99934.98,+73,-56,+121
152332,10.878,-1.395,1.241,0.580749,1.181476,-4.065307,99938.42,+73,-56,+121
152342,11.531,-1.903,1.236,0.441337,1.248522,-4.191949,99940.16,+66,-56,+116
152352,12.097,-2.110,1.204,0.295007,1.325146,-4.276555,99935.75,+62,-60,+112
152363,12.705,-2.053,1.012,0.207208,1.390064,-4.318059,99936.06,+60,-68,+119
152372,13.344,-1.739,0.744,0.246052,1.404431,-4.307950,99936.06,+60,-68,+119
152382,13.926,-1.584,0.748,0.463153,1.373036,-4.241968,99936.06,+51,-69,+117
152392,14.467,-1.761,0.667,0.770181,1.292687,-4.141931,99939.16,+44,-73,+114
152402,14.818,-2.477,0.568,1.151171,1.152743,-3.993473,99939.00,+40,-79,+125
152412,14.706,-3.549,0.834,1.584841,0.963311,-3.787546,99939.89,+29,-76,+124
152422,14.518,-4.479,1.172,1.952528,0.752064,-3.574702,99939.58,+29,-76,+124
152432,14.194,-5.463,1.471,2.118015,0.558908,-3.352813,99939.58,+22,-75,+126
152442,13.259,-6.398,1.823,2.050437,0.395018,-3.110703,99939.69,+15,-76,+139
152453,11.704,-7.163,2.204,1.815244,0.269973,-2.850501,99939.41,+6,-69,+139
152462,10.615,-7.563,2.341,1.487997,0.196009,-2.548263,99937.59,+6,-69,+139
152472,10.296,-7.823,2.316,1.180969,0.149716,-2.185896,99937.59,+1,-67,+141
152482,10.008,-7.964,2.163,0.961740,0.105551,-1.778300,99937.59,-3,-68,+152
152493,9.504,-7.883,2.113,0.819667,0.054468,-1.337181,99942.15,-9,-63,+149
152502,9.002,-7.709,1.923,0.692492,-0.008853,-0.879034,99940.20,-9,-63,+149
152512,8.793,-7.731,1.761,0.498272,-0.055147,-0.419824,99939.79,-12,-61,+149
152522,9.041,-7.922,1.740,0.254211,-0.131770,0.077876,99942.07,-12,-63,+159
152531,9.180,-7.824,1.568,0.092273,-0.232339,0.469864,99942.07,-16,-60,+153
152542,9.732,-7.956,1.861,0.014585,-0.325458,0.857772,99939.77,-16,-60,+153
152552,10.781,-7.533,2.664,0.108768,-0.348871,1.177038,99942.76,-15,-63,+154
152562,10.128,-8.782,3.060,0.083227,-0.388247,1.536744,99937.51,-14,-67,+162
152572,10.060,-8.174,5.627,0.165704,-0.443055,2.017771,99940.70,-15,-64,+155
152583,11.622,0.772,8.545,0.171025,-0.197752,1.994891,99938.27,-15,-64,+155
152592,15.055,13.172,6.785,-0.276479,0.087459,1.382964,99940.59,-12,-67,+155
152602,16.477,11.356,1.679,-1.221506,-0.089734,1.026451,99940.59,-10,-71,+160
152612,13.939,-1.475,0.257,-1.372625,-0.409532,1.735753,99940.52,-13,-72,+153
152622,11.742,-5.734,1.172,-0.132810,-0.614394,2.270523,99941.95,-13,-72,+153
152632,10.386,-4.979,0.995,0.553080,-0.622376,2.240193,99941.95,-9,-73,+153
152642,10.122,-4.743,1.229,0.538181,-0.509568,2.085881,99942.78,-7,-76,+161
152652,11.150,-3.528,0.329,0.652584,-0.390908,2.051826,99941.89,-8,-73,+156
152663,10.196,-1.736,-0.660,0.722291,-0.312156,1.961900,99941.16,-8,-73,+156
152672,8.257,-1.337,0.281,0.749960,-0.193495,1.835258,99940.84,-4,-73,+158
152682,8.152,-2.772,1.387,0.694621,-0.064725,1.747992,99941.20,+0,-75,+166
152692,10.294,-5.153,1.343,0.221043,0.000725,1.746395,99940.63,-1,-72,+159
152702,12.087,-5.420,0.769,-0.390351,0.051275,1.788432,99942.25,-1,-72,+159
152713,10.755,-3.489,1.168,-0.852222,0.086927,1.679350,99939.36,+3,-75,+160
152722,8.245,-1.594,1.894,-0.996956,0.120450,1.492047,99939.36,+6,-81,+165
152732,7.757,-1.059,2.301,-0.974607,0.149716,1.376047,99939.36,+5,-81,+156
152742,8.719,-1.258,2.538,-0.831470,0.156101,1.314854,99941.89,+5,-81,+156
152752,9.654,-0.946,2.741,-0.569140,0.171000,1.302084,99941.31,+11,-84,+157
152758,9.884,-0.689,2.732,-0.336076,0.167275,1.304212,99941.94,+14,-86,+162
152767,9.648,-0.882,2.878,-0.075874,0.128963,1.293570,99939.73,+14,-86,+162
152777,8.979,-1.902,3.494,0.267337,0.044890,1.243552,99939.73,+12,-84,+155
152787,8.629,-2.660,3.895,0.429630,-0.020559,1.156286,99941.91,+17,-85,+158
152797,8.557,-2.917,3.972,0.317355,-0.047165,1.038157,99940.17,+19,-87,+165
152807,8.717,-3.487,3.593,0.105575,-0.066321,0.917900,99938.08,+19,-87,+165
152817,9.365,-3.901,2.632,-0.046608,-0.115275,0.840212,99938.55,+17,-84,+157
152827,9.751,-3.741,1.853,-0.126424,-0.141880,0.775827,99938.55,+21,-85,+160
152838,9.660,-3.594,1.102,-0.127489,-0.128046,0.723680,99942.23,+22,-87,+164
152847,9.601,-3.844,0.522,-0.112057,-0.108358,0.680047,99941.34,+22,-87,+164
152857,9.402,-3.637,0.737,-0.070021,-0.055679,0.635350,99941.16,+19,-85,+157
152867,9.167,-3.185,1.394,-0.057782,0.039569,0.586928,99942.16,+25,-87,+160
152878,9.156,-2.273,1.617,-0.054590,0.143330,0.559258,99942.16,+25,-88,+164
152887,9.308,-2.296,2.261,-0.006700,0.185899,0.545424,99942.97,+25,-88,+164
152897,9.288,-3.239,2.824,0.086420,0.148652,0.508176,99943.23,+23,-86,+156
152907,9.056,-4.099,2.674,0.039594,0.129496,0.443258,99940.23,+28,-89,+161
152918,9.256,-4.465,2.259,-0.164736,0.129496,0.363442,99937.52,+29,-89,+164
152927,9.434,-3.950,2.602,-0.372259,0.147055,0.281497,99937.52,+29,-89,+164
152937,9.405,-3.398,2.778,-0.514865,0.153973,0.227754,99942.54,+26,-87,+155
152947,9.462,-2.540,2.691,-0.528167,0.145459,0.207534,99939.13,+30,-90,+160
152957,9.451,-1.968,2.489,-0.457929,0.125239,0.225626,99939.49,+31,-92,+162
152968,9.395,-2.344,2.463,-0.278076,0.092780,0.258616,99938.07,+31,-92,+162
152977,9.283,-2.987,2.424,-0.121103,0.061386,0.279901,99938.07,+28,-90,+154
152987,9.130,-3.645,2.432,-0.122168,0.055000,0.276708,99942.75,+33,-92,+159
152997,9.049,-3.975,2.250,-0.257323,0.071496,0.251167,99942.39,+32,-93,+161
153008,9.142,-3.555,2.047,-0.385030,0.095973,0.219772,99937.88,+32,-93,+161
153017,9.371,-2.857,2.149,-0.456332,0.103954,0.209130,99939.19,+29,-90,+153
153027,9.487,-2.417,2.217,-0.468571,0.101826,0.237864,99939.19,+34,-94,+158
153037,9.625,-2.262,2.210,-0.416424,0.105019,0.285222,99941.52,+34,-96,+160
153048,9.633,-2.485,2.219,-0.363213,0.098101,0.351204,99936.75,+34,-96,+160
153057,9.538,-2.629,2.254,-0.318516,0.096505,0.420910,99941.47,+31,-93,+152
153067,9.487,-2.763,2.213,-0.310002,0.103954,0.478910,99938.00,+37,-97,+156
153077,9.446,-2.669,2.372,-0.338204,0.108211,0.540635,99938.00,+36,-98,+156
153088,9.310,-2.468,2.584,-0.370663,0.106083,0.616726,99942.94,+35,-98,+156
153098,9.148,-2.145,2.819,-0.432388,0.095973,0.709313,99942.67,+35,-96,+150
153107,8.985,-1.434,2.856,-0.463250,0.082138,0.825313,99939.91,+41,-98,+155
153117,9.052,-0.965,2.698,-0.407378,0.042762,0.964726,99941.27,+40,-99,+155
153127,9.524,-1.354,2.456,-0.227525,-0.045036,1.124891,99941.27,+40,-98,+147
153138,10.095,-2.022,2.583,-0.042883,-0.132835,1.288781,99942.09,+40,-98,+147
153147,10.309,-2.942,2.900,-0.010957,-0.194027,1.434047,99939.35,+47,-100,+155
153157,10.319,-3.221,2.885,-0.097690,-0.232871,1.546322,99941.60,+47,-100,+155
153167,10.170,-2.705,2.788,-0.171122,-0.287146,1.657001,99940.13,+46,-98,+148
153178,10.405,-2.446,2.740,-0.126957,-0.362706,1.793221,99940.13,+46,-98,+148
153188,11.192,-3.154,2.137,-0.034902,-0.449972,1.929973,99941.75,+54,-100,+156
153197,11.815,-3.925,1.862,-0.008828,-0.520211,2.034799,99939.28,+54,-100,+156
153207,12.216,-4.235,2.279,-0.072149,-0.575550,2.113019,99939.97,+56,-98,+150
153218,12.569,-4.295,2.905,-0.198791,-0.609605,2.190175,99939.44,+56,-98,+150
153228,12.870,-4.543,3.326,-0.348492,-0.659978,2.269814,99939.44,+62,-100,+158
153237,13.225,-4.701,3.511,-0.477617,-0.722944,2.318413,99941.30,+63,-100,+156
153247,13.942,-4.895,3.396,-0.637782,-0.787330,2.363110,99938.84,+63,-98,+151
153257,14.760,-4.932,3.064,-0.827745,-0.849054,2.390248,99938.16,+63,-98,+151
153268,15.989,-4.599,2.338,-1.005470,-0.883641,2.407275,99939.00,+71,-101,+158
153277,17.965,-4.046,1.973,-1.133708,-0.908651,2.434413,99939.00,+70,-101,+155
153287,19.821,-2.485,2.491,-1.235341,-0.947495,2.490817,99941.23,+71,-101,+150
153297,20.194,-0.644,3.106,-1.379543,-0.895348,2.607881,99937.50,+71,-101,+150
153308,21.165,0.631,3.565,-1.553011,-0.821917,2.737716,99939.13,+79,-103,+158
153317,22.031,0.405,3.947,-1.708387,-0.752210,2.928211,99936.98,+79,-105,+154
153327,21.320,0.749,4.363,-1.856845,-0.692614,3.144248,99936.98,+82,-105,+148
153337,19.288,1.064,4.368,-2.111194,-0.682504,3.229917,99939.46,+82,-105,+148
153348,16.346,-1.338,4.251,-2.256992,-0.744761,3.249073,99939.15,+91,-110,+155
153358,14.128,-4.824,5.165,-2.077139,-0.865018,3.376247,99939.62,+92,-111,+152
153367,13.661,-4.361,7.366,-1.728075,-0.933660,3.382633,99937.68,+96,-110,+147
153377,13.101,-2.345,6.462,-1.253433,-0.865018,3.097954,99937.68,+96,-110,+147
153388,12.020,-4.071,4.878,-0.987910,-0.755935,2.942578,99939.50,+104,-114,+156
153398,9.342,-7.230,5.014,-0.700039,-0.722944,2.989936,99940.92,+103,-112,+154
153407,6.832,-6.707,6.629,-0.049268,-0.517550,2.739312,99937.52,+107,-110,+152
153417,4.769,-2.793,6.769,0.385465,-0.282357,2.091202,99938.03,+107,-110,+152
153427,5.594,3.496,3.337,0.024163,-0.101440,1.108396,99938.03,+112,-110,+162
153438,5.844,4.142,2.490,-0.668644,-0.072174,0.393240,99941.09,+108,-110,+160
153448,5.103,2.103,3.566,-0.695250,0.084266,0.258616,99937.84,+106,-110,+155
153457,4.762,3.309,2.407,-0.535617,0.147055,-0.192613,99938.78,+106,-110,+155
153467,3.949,3.470,1.833,-0.521250,0.203991,-0.828484,99941.30,+109,-115,+163
153478,3.331,2.473,1.744,-0.452608,0.317862,-1.253107,99941.30,+101,-116,+160
153488,3.085,1.237,0.646,-0.328094,0.355642,-1.620795,99939.21,+94,-116,+156
153497,3.105,-0.440,0.080,-0.022131,0.358835,-1.951235,99939.63,+94,-116,+156
153507,3.451,-1.610,0.488,0.552548,0.376927,-2.281676,99935.34,+94,-120,+166
153518,3.900,-1.367,0.880,1.151703,0.376394,-2.713749,99935.29,+82,-117,+164
153528,4.489,-0.381,1.015,1.487464,0.425349,-3.176684,99935.29,+73,-112,+165
153537,5.060,0.431,0.922,1.572070,0.507826,-3.542244,99936.74,+73,-112,+165
153547,5.168,0.527,1.005,1.665721,0.579660,-3.803509,99933.59,+68,-111,+176
153558,5.517,0.105,1.364,1.853024,0.657881,-4.054665,99936.32,+55,-104,+175
153568,6.276,-1.065,1.648,1.953061,0.743550,-4.297307,99928.13,+47,-94,+176
153577,6.938,-2.426,1.803,1.980730,0.847312,-4.506426,99928.13,+43,-94,+176
153583,7.378,-3.067,1.688,1.976473,0.928192,-4.682023,99934.28,+43,-89,+187
153592,7.840,-3.492,1.341,1.907831,1.009605,-4.868261,99934.28,+31,-77,+185
153603,8.646,-3.709,0.814,1.764694,1.117091,-5.077380,99936.22,+31,-77,+185
153613,9.762,-3.387,0.542,1.621556,1.201165,-5.262022,99933.44,+27,-65,+186
153623,11.047,-3.231,0.694,1.513006,1.247990,-5.456774,99934.91,+28,-59,+194
153632,12.354,-3.595,0.987,1.407116,1.271403,-5.643545,99932.69,+22,-45,+190
153643,13.419,-4.207,1.193,1.208107,1.293752,-5.795196,99935.89,+22,-45,+190
153653,14.017,-5.116,1.209,0.882456,1.349091,-5.956425,99933.42,+25,-37,+188
153662,14.545,-5.870,1.181,0.566382,1.426779,-6.097967,99933.42,+30,-37,+197
153672,15.462,-6.244,1.309,0.446658,1.495953,-6.159691,99932.22,+27,-32,+191
153682,16.632,-6.501,1.700,0.531263,1.548100,-6.159691,99932.22,+27,-32,+191
153693,17.928,-7.229,1.944,0.691428,1.578430,-6.095306,99936.69,+30,-34,+191
153703,18.821,-9.139,2.277,0.834034,1.550761,-5.932480,99936.22,+28,-40,+200
153713,18.979,-11.588,2.007,0.911190,1.451788,-5.698352,99935.42,+21,-36,+198
153722,18.603,-13.798,1.690,0.882456,1.341109,-5.397178,99936.95,+21,-36,+198
153733,17.817,-15.579,1.793,0.887777,1.216596,-4.968830,99936.95,+17,-39,+201
153743,16.150,-16.847,1.933,0.906933,1.076119,-4.428206,99941.20,+8,-40,+213
153753,14.243,-18.444,1.769,0.812217,0.939899,-3.791271,99942.30,+0,-31,+212
153762,11.795,-21.457,1.341,0.749960,0.796761,-3.101657,99938.89,+0,-31,+212
153773,8.851,-22.595,1.499,0.563190,0.712688,-2.448226,99938.89,-2,-29,+215
153783,7.063,-20.741,1.815,0.001282,0.691936,-1.670814,99938.89,-7,-30,+225
153793,7.489,-17.451,2.273,-0.615433,0.648303,-0.665658,99944.41,-9,-24,+221
153802,8.429,-14.854,1.697,-0.836259,0.451422,0.385259,99943.94,-7,-24,+222
153812,9.243,-14.843,0.712,-0.675562,0.214633,1.357423,99942.20,-7,-29,+222
153823,10.051,-15.578,0.768,-0.391415,-0.018963,2.125257,99937.91,-7,-33,+229
153833,11.857,-11.980,-0.174,-0.000314,-0.171679,2.550413,99937.91,-7,-30,+224
153843,14.098,-7.075,-2.642,-0.457397,-0.500522,2.803165,99942.15,-4,-36,+224
153852,19.039,11.562,0.926,0.067796,-0.808082,2.757404,99941.99,-4,-36,+224
153863,24.750,32.355,-2.487,0.531263,-0.826174,1.105735,99940.96,-6,-37,+231
153873,18.883,7.849,-2.768,-0.219544,-1.019862,1.505350,99940.96,-10,-34,+224
153883,13.069,-14.450,3.860,1.464584,-0.919825,3.188945,99941.64,-7,-31,+228
153892,10.029,-10.428,3.666,4.195371,-1.036889,3.710944,99941.64,-7,-31,+228
153903,7.579,-6.876,1.046,3.558968,-0.735183,3.127220,99940.13,-9,-23,+238
153913,7.773,-8.463,0.845,2.215923,-0.245110,2.753147,99941.95,-9,-13,+232
153923,7.156,-6.373,4.196,1.705097,-0.120064,2.598835,99942.69,-5,-11,+236
153932,8.351,-5.448,4.893,1.263446,-0.091862,2.231679,99942.69,-5,-11,+236
153943,11.078,-4.547,2.681,0.683447,-0.078559,2.113019,99942.21,-5,-11,+242
153953,10.971,-4.548,2.059,0.032144,-0.154651,2.020964,99941.21,-6,-7,+235
153963,9.399,-5.203,1.971,-0.447287,-0.184449,1.936358,99939.95,-2,-13,+237
153973,9.256,-4.287,1.836,-0.702167,-0.166890,1.838450,99939.12,-2,-13,+237
153982,9.402,-3.359,2.316,-0.979396,-0.116871,1.703294,99940.38,-4,-17,+243
153993,9.044,-3.439,2.314,-1.245451,-0.068449,1.610175,99942.27,-3,-19,+233
154003,8.881,-3.027,1.495,-1.117745,-0.140284,1.503753,99940.31,+0,-27,+235
154012,9.342,-1.592,2.105,-0.519653,-0.217440,1.385093,99940.31,+0,-27,+235
154022,9.932,-1.626,2.560,0.044915,-0.337697,1.338799,99940.42,-1,-29,+241
154033,9.604,-3.115,2.348,0.409942,-0.413788,1.301552,99940.42,-3,-25,+232
154043,9.124,-4.819,1.902,0.334383,-0.343018,1.214818,99942.54,+0,-28,+236
154053,9.053,-5.129,2.060,-0.067892,-0.204847,1.029289,99941.73,+0,-28,+236
154062,9.033,-4.529,2.489,-0.447287,-0.101972,0.868414,99941.73,-2,-29,+240
154073,9.131,-3.325,2.190,-0.718663,-0.041844,0.726341,99940.07,-2,-29,+232
154083,9.492,-2.483,1.931,-0.726112,-0.019495,0.659295,99940.07,+0,-34,+235
154093,9.737,-2.169,1.701,-0.577121,-0.017899,0.651846,99942.23,+0,-34,+235
154103,9.705,-2.331,1.607,-0.364810,-0.031734,0.666745,99940.61,+0,-36,+238
154113,9.452,-2.636,1.895,-0.181764,-0.035458,0.677387,99937.98,+0,-34,+231
154123,9.113,-3.383,2.485,-0.119507,-0.032266,0.667277,99937.98,+3,-38,+234
154133,8.892,-3.760,2.763,-0.205709,-0.014706,0.623112,99937.98,+3,-38,+234
154143,8.968,-3.669,2.660,-0.406846,0.022009,0.563515,99940.80,+1,-38,+238
154152,9.123,-3.267,2.358,-0.547855,0.062450,0.514561,99939.58,+0,-38,+229
154163,9.231,-2.945,2.135,-0.607452,0.087991,0.491148,99940.95,+4,-43,+234
154173,9.332,-2.866,2.074,-0.574461,0.093312,0.483167,99942.67,+4,-43,+234
154182,9.371,-2.856,2.012,-0.507415,0.089055,0.485827,99942.67,+3,-45,+236
154193,9.332,-2.989,2.131,-0.467507,0.090652,0.501791,99944.25,+3,-43,+228
154203,9.271,-3.245,2.157,-0.461654,0.100230,0.515625,99942.05,+7,-49,+233
154213,9.238,-3.388,2.093,-0.498369,0.120450,0.527332,99940.50,+7,-49,+233
154223,9.283,-3.276,1.979,-0.535617,0.144927,0.542763,99940.50,+6,-50,+236
154233,9.374,-3.017,2.016,-0.532956,0.152376,0.564580,99941.73,+6,-49,+227
154243,9.231,-2.836,2.157,-0.489855,0.147587,0.606616,99942.11,+11,-54,+231
154253,9.002,-2.730,2.286,-0.445158,0.140138,0.666212,99942.11,+11,-54,+231
154263,8.959,-2.635,2.263,-0.435048,0.139606,0.743368,99941.89,+9,-55,+234
154273,9.085,-2.498,2.246,-0.439305,0.155037,0.846066,99941.27,+10,-55,+226
154283,9.094,-2.120,2.313,-0.414828,0.173661,0.972708,99941.27,+14,-60,+231
154289,9.312,-1.954,2.626,-0.359488,0.159826,1.075405,99941.39,+14,-60,+231
154298,10.099,-2.045,3.067,-0.267433,0.113532,1.169056,99940.03,+13,-61,+232
154308,10.780,-2.762,3.467,-0.146112,0.010835,1.276010,99940.25,+15,-58,+225
154317,10.480,-3.258,3.190,-0.092901,-0.066853,1.376047,99940.41,+15,-58,+225
154328,10.315,-3.424,2.963,-0.161012,-0.100908,1.476084,99940.41,+21,-63,+232
154338,10.577,-2.994,2.659,-0.282333,-0.125917,1.581441,99940.79,+19,-63,+231
154348,11.022,-2.296,2.059,-0.325433,-0.183917,1.713405,99940.63,+21,-61,+224
154358,11.572,-1.951,1.697,-0.231250,-0.279165,1.869845,99940.52,+21,-61,+224
154368,12.342,-2.628,1.835,-0.083856,-0.381862,2.046505,99940.52,+26,-67,+231
154378,13.019,-3.512,2.140,-0.001379,-0.452100,2.204542,99940.52,+24,-66,+231
154388,13.677,-4.132,2.688,-0.041819,-0.491477,2.332248,99942.05,+26,-65,+225
154398,14.024,-4.402,3.049,-0.174846,-0.511165,2.442395,99941.23,+26,-65,+225
154407,14.088,-4.186,3.289,-0.366938,-0.518614,2.546688,99939.60,+31,-69,+232
154418,14.591,-3.706,3.353,-0.572864,-0.539899,2.657899,99939.45,+29,-70,+230
154428,15.464,-3.183,3.279,-0.757507,-0.573421,2.778156,99939.45,+31,-70,+223
154438,17.051,-3.225,3.289,-0.890002,-0.654834,2.892028,99939.74,+31,-70,+223
154447,19.150,-2.977,4.311,-0.950662,-0.744229,2.985147,99941.73,+36,-77,+229
154458,20.515,-2.695,4.629,-1.167763,-0.709642,3.069220,99940.16,+35,-79,+228
154468,22.005,-3.002,4.285,-1.685506,-0.593642,3.093697,99942.15,+37,-82,+219
154478,23.603,-2.624,3.694,-2.379377,-0.488816,3.133605,99942.15,+37,-82,+219
154488,23.474,-0.624,3.286,-3.054092,-0.446247,3.208633,99939.77,+44,-92,+223
154498,21.612,1.135,3.394,-3.519156,-0.496798,3.204908,99938.52,+43,-101,+216
154508,17.675,1.245,3.840,-3.563321,-0.737311,3.240027,99938.25,+46,-108,+205
154518,13.507,-1.547,5.224,-2.906166,-1.096485,3.470963,99935.53,+52,-108,+205
154528,13.112,-1.362,7.981,-1.748827,-1.190669,3.570467,99935.53,+52,-120,+210
154537,14.068,-0.666,8.249,-0.502626,-1.051256,3.346981,99940.14,+52,-121,+205
154548,12.405,-3.302,5.712,0.084823,-1.006559,3.146908,99940.03,+54,-118,+203
154558,9.659,-6.272,6.039,0.109832,-0.790522,2.980890,99938.03,+61,-122,+212
154568,7.909,-5.282,6.830,0.468474,-0.547880,2.557330,99935.63,+61,-122,+212
154577,6.083,-1.573,6.155,0.445061,-0.324394,1.705423,99935.63,+59,-120,+211
154588,5.876,2.016,3.203,-0.047672,-0.077495,0.681112,99941.72,+59,-118,+207
154598,5.503,1.778,2.502,-0.642039,0.100230,0.056415,99939.31,+61,-125,+215
154608,4.667,0.530,3.443,-0.909158,0.334358,-0.195273,99939.31,+61,-125,+215
154618,4.027,1.635,2.483,-0.918736,0.342339,-0.782722,99938.89,+56,-127,+210
154628,3.097,3.201,1.970,-0.839451,0.479624,-1.461694,99938.89,+52,-128,+205
154638,2.915,2.944,1.812,-0.821360,0.661605,-1.858116,99939.16,+49,-136,+213
154648,2.977,1.692,0.839,-0.725048,0.707899,-2.201327,99939.85,+49,-136,+213
154658,2.928,0.135,0.130,-0.423874,0.752596,-2.574336,99939.16,+40,-137,+208
154668,3.140,-0.733,-0.040,0.034273,0.831348,-2.973418,99938.65,+34,-136,+207
154678,3.594,-0.973,0.214,0.402493,0.919679,-3.406556,99938.65,+29,-140,+216
154688,3.944,-0.870,0.488,0.565318,1.020247,-3.804574,99939.16,+29,-140,+216
154698,4.336,-0.097,0.538,0.531795,1.160724,-4.107344,99937.64,+17,-135,+216
154707,4.874,0.095,0.758,0.523282,1.300669,-4.311142,99939.05,+8,-131,+215
154718,5.249,0.256,1.329,0.809557,1.405495,-4.493656,99934.22,+1,-132,+227
154728,5.751,0.291,1.853,1.178841,1.475201,-4.707032,99934.22,+1,-132,+227
154738,6.886,-0.512,1.866,1.521520,1.543843,-4.923600,99937.77,-10,-120,+226
154748,8.245,-1.475,1.663,1.757244,1.649201,-5.121013,99936.25,-17,-112,+231
154758,9.431,-2.400,1.289,1.951464,1.744449,-5.256169,99935.34,-24,-104,+244
154768,10.753,-3.359,0.928,2.148877,1.807770,-5.381215,99934.56,-24,-104,+244
154778,12.180,-4.169,0.749,2.204216,1.813623,-5.538187,99934.56,-33,-86,+245
154788,13.236,-4.744,0.731,2.073849,1.767329,-5.699416,99935.88,-36,-70,+249
154798,14.027,-4.831,1.054,1.823758,1.684852,-5.835637,99936.09,-40,-58,+261
154808,14.883,-5.240,1.618,1.583244,1.557678,-5.933545,99934.52,-40,-58,+261
154818,15.760,-5.875,1.837,1.401795,1.424119,-6.016554,99933.25,-45,-39,+256
154828,17.026,-6.439,1.837,1.268767,1.366651,-6.047948,99933.25,-45,-26,+258
154839,17.966,-7.461,2.127,1.245355,1.350155,-5.979306,99937.91,-44,-15,+266
154848,17.868,-8.884,2.522,1.424143,1.263421,-5.806370,99938.70,-44,-15,+266
154858,18.017,-10.732,2.565,1.790767,1.133587,-5.548830,99936.96,-45,+2,+260
154868,18.327,-13.135,2.618,2.063740,1.027165,-5.228499,99935.60,-42,+15,+260
154878,17.584,-15.059,2.925,2.131317,0.948945,-4.821435,99935.60,-38,+27,+266
154888,16.458,-16.205,3.435,2.031813,0.910633,-4.326573,99938.60,-38,+27,+266
154898,15.331,-17.401,3.026,1.759905,0.885624,-3.775308,99939.02,-37,+40,+257
154908,13.702,-20.391,1.856,1.435318,0.780798,-3.209143,99939.09,-31,+49,+258
154918,10.697,-23.572,1.070,1.116584,0.705770,-2.669052,99940.96,-28,+54,+264
154928,7.545,-22.837,1.211,0.354071,0.708963,-2.066171,99940.96,-28,+54,+264
154938,6.401,-20.292,1.931,-0.652149,0.724926,-1.144025,99942.15,-26,+58,+255
154948,7.463,-17.087,1.971,-1.380607,0.627550,-0.061182,99941.10,-22,+52,+258
154958,8.870,-14.804,1.493,-1.416791,0.410982,0.918965,99942.24,-21,+43,+265
154968,9.750,-14.579,1.215,-1.091139,0.183239,1.728304,99939.37,-21,+43,+265
154978,11.454,-12.915,2.250,-0.664919,-0.015770,2.363110,99939.37,-22,+40,+258
154988,13.255,-9.075,-3.748,-0.564883,-0.314816,2.615863,99942.73,-21,+34,+259
154998,18.183,1.915,-1.173,-0.496773,-0.667605,3.079862,99942.79,-23,+27,+265
155009,25.703,33.833,-1.519,0.947373,-0.822449,1.924652,99940.54,-27,+32,+257
155018,21.920,24.093,-1.377,0.560529,-0.934192,1.045607,99940.85,-27,+32,+257
155028,11.126,-12.207,-0.334,1.041556,-1.091164,2.504652,99940.85,-28,+29,+257
155038,10.055,-18.509,2.982,4.036802,-1.084247,3.791293,99943.36,-32,+36,+263
155048,11.540,-11.682,0.090,3.800546,-0.816596,3.495972,99942.52,-36,+46,+253
155058,12.427,-10.504,-0.788,1.332621,-0.180724,2.842009,99940.69,-36,+46,+253
155068,8.438,-7.184,3.370,0.613208,0.078413,2.785605,99938.48,-33,+44,+257
155078,6.609,-5.347,5.280,0.457832,0.078945,2.412065,99938.48,-34,+42,+262
155088,8.839,-4.396,3.177,0.066199,0.093844,2.197624,99940.80,-35,+40,+253
155099,9.775,-3.622,3.271,-0.519121,0.015624,2.093331,99942.67,-35,+40,+253
155108,9.006,-4.604,3.676,-0.839984,-0.028541,1.961368,99941.11,-32,+34,+257
155118,9.389,-3.534,3.091,-0.933635,-0.007789,1.899111,99939.17,-33,+28,+262
155128,9.336,-2.861,2.899,-1.041653,0.008707,1.795882,99939.17,-34,+23,+252
155139,8.818,-3.267,2.188,-0.893195,-0.035458,1.649019,99942.14,-34,+23,+252
155148,9.301,-2.363,1.884,-0.469635,-0.098780,1.530359,99940.47,-31,+18,+257
155158,9.562,-2.540,2.431,-0.134406,-0.163165,1.466506,99940.72,-33,+15,+260
155168,9.381,-3.340,2.194,0.037998,-0.205734,1.371258,99940.16,-35,+15,+252
155179,9.490,-4.157,1.755,-0.063635,-0.163165,1.261643,99940.16,-35,+15,+252
155188,9.644,-4.976,1.876,-0.223268,-0.118468,1.145643,99944.02,-32,+11,+258
155198,9.715,-4.143,2.321,-0.365874,-0.083348,0.991332,99940.25,-33,+9,+260
155208,9.117,-3.359,2.676,-0.495176,-0.040780,0.860965,99941.34,-34,+8,+252
155218,9.055,-2.970,2.504,-0.509011,-0.040247,0.784341,99940.77,-34,+8,+252
155228,9.295,-2.784,2.520,-0.408975,-0.060468,0.731662,99940.77,-31,+5,+257
155238,9.505,-2.959,2.466,-0.325966,-0.071110,0.696011,99944.83,-32,+2,+259
155248,9.540,-3.250,2.162,-0.353635,-0.045036,0.664084,99941.89,-33,+1,+250
155258,9.567,-3.488,2.115,-0.449947,0.003918,0.622580,99941.11,-33,+1,+250
155269,9.445,-3.385,2.352,-0.544131,0.046486,0.568836,99941.95,-30,-1,+257
155278,9.249,-2.946,2.615,-0.600534,0.062450,0.535313,99941.95,-31,-5,+258
155288,9.071,-2.702,2.734,-0.586699,0.037973,0.523075,99941.98,-32,-5,+250
155298,9.001,-2.884,2.668,-0.538277,-0.000339,0.511369,99939.62,-32,-5,+250
155309,8.952,-3.214,2.698,-0.530296,-0.002468,0.506580,99942.76,-29,-9,+255
155318,8.899,-3.382,2.669,-0.570736,0.017753,0.500726,99942.34,-31,-13,+257
155328,8.985,-3.430,2.624,-0.636718,0.036376,0.489552,99942.34,-31,-13,+249
155338,9.221,-3.257,2.621,-0.691525,0.040101,0.483167,99942.33,-31,-13,+249
155348,9.118,-2.849,2.605,-0.683011,0.012431,0.474121,99942.64,-28,-17,+255
155358,8.809,-2.510,2.420,-0.635653,-0.011514,0.486891,99941.91,-29,-21,+255
155368,8.441,-2.584,2.279,-0.559030,-0.013642,0.541167,99938.72,-29,-21,+247
155378,8.216,-2.687,2.189,-0.441965,-0.054082,0.587992,99938.72,-29,-21,+247
155388,8.284,-2.713,2.211,-0.330222,-0.093991,0.625240,99941.31,-27,-25,+255
155399,8.623,-3.185,2.386,-0.276479,-0.102504,0.684304,99942.88,-29,-27,+254
155408,9.148,-3.604,2.004,-0.248278,-0.117935,0.707717,99939.89,-28,-27,+247
155418,9.528,-3.661,1.663,-0.271158,-0.146669,0.722084,99939.89,-28,-27,+247
155428,9.745,-3.612,1.806,-0.298828,-0.236064,0.721552,99939.89,-26,-30,+255
155439,9.642,-2.813,2.412,-0.306810,-0.288743,0.761460,99944.56,-28,-32,+253
155448,9.572,-2.660,2.872,-0.270626,-0.280761,0.869478,99939.84,-29,-32,+245
155458,9.806,-2.561,3.046,-0.184956,-0.277036,0.997717,99940.00,-26,-32,+245
155468,10.017,-2.759,3.530,-0.162076,-0.267458,1.144579,99941.36,-26,-36,+253
155479,10.272,-2.654,3.619,-0.223268,-0.263201,1.293570,99941.36,-28,-38,+250
155489,10.646,-2.205,3.033,-0.281800,-0.259477,1.462249,99939.84,-28,-38,+245
155498,11.505,-2.231,1.680,-0.275947,-0.282357,1.638377,99942.20,-25,-44,+252
155508,12.410,-2.223,0.537,-0.216883,-0.343550,1.812909,99937.41,-25,-44,+252
155518,12.895,-2.094,0.195,-0.088113,-0.416449,1.991698,99941.71,-24,-46,+249
155529,13.334,-2.437,0.698,0.050768,-0.497862,2.193899,99941.71,-24,-46,+243
155538,13.555,-3.331,1.639,0.119410,-0.562247,2.388119,99939.95,-20,-51,+250
155548,13.638,-4.049,2.384,0.017777,-0.587788,2.549349,99941.41,-20,-51,+250
155558,13.923,-4.104,2.925,-0.201452,-0.594706,2.675991,99938.32,-22,-52,+247
155569,14.914,-3.711,3.309,-0.433984,-0.610669,2.786138,99940.15,-19,-56,+240
155578,16.815,-3.430,4.048,-0.538277,-0.681972,2.869679,99940.15,-15,-62,+247
155584,18.161,-3.007,4.759,-0.547855,-0.764981,2.931404,99938.89,-15,-62,+247
155593,18.736,-3.164,4.990,-0.619690,-0.762320,3.016009,99938.89,-16,-66,+241
155603,20.301,-3.631,5.067,-0.877231,-0.717091,3.063899,99939.36,-16,-66,+241
155614,23.275,-2.076,5.269,-1.361451,-0.641532,3.067092,99939.63,-14,-70,+235
155624,23.464,-0.474,5.831,-1.899414,-0.496266,3.170321,99936.80,-8,-81,+240
155633,22.113,0.946,5.424,-2.273487,-0.351000,3.337403,99938.75,-5,-90,+231
155643,20.226,2.563,4.249,-2.619359,-0.253623,3.401257,99939.44,-5,-90,+231
155654,17.369,2.374,2.863,-2.931175,-0.303642,3.264504,99938.95,-1,-98,+222
155663,13.789,-1.039,3.677,-2.848698,-0.598431,3.097954,99938.95,+4,-111,+224
155673,11.570,-4.648,5.348,-2.415028,-0.699531,2.978229,99936.81,+6,-118,+214
155683,12.420,-6.160,5.412,-1.778625,-0.671330,2.884578,99936.81,+6,-118,+214
155694,12.336,-8.352,4.629,-1.526937,-0.697935,2.929807,99940.05,+9,-120,+208
155704,11.512,-8.406,6.006,-1.028350,-0.525532,2.934064,99941.88,+15,-128,+211
155714,8.927,-4.871,6.748,-0.405782,-0.261605,2.559991,99937.63,+18,-127,+205
155723,6.396,0.481,5.454,-0.314791,-0.028541,1.808652,99937.90,+21,-126,+201
155734,5.885,5.285,2.447,-0.630864,0.111404,0.906194,99937.90,+21,-126,+201
155744,5.777,4.243,1.367,-0.984185,0.144927,0.348543,99942.04,+24,-130,+208
155754,5.223,1.273,2.034,-0.951195,0.232725,0.180396,99936.48,+21,-131,+200
155763,4.673,1.530,1.647,-0.646296,0.274762,-0.298503,99938.52,+19,-129,+197
155773,3.802,2.465,1.712,-0.365874,0.389697,-0.881163,99938.52,+19,-129,+197
155784,3.359,2.385,1.953,-0.196131,0.530706,-1.257364,99938.52,+19,-131,+205
155794,3.141,1.399,1.218,0.029484,0.545605,-1.612281,99937.32,+13,-126,+200
155803,2.945,-0.112,0.611,0.347153,0.538688,-1.965602,99941.73,+7,-120,+199
155813,2.942,-1.250,0.610,0.717502,0.564761,-2.279015,99937.32,+7,-120,+199
155819,3.212,-1.594,0.881,0.986749,0.600413,-2.519529,99936.38,+5,-119,+209
155829,3.609,-1.441,1.224,1.193208,0.651495,-2.779198,99936.38,+5,-119,+209
155839,4.015,-0.721,1.464,1.353373,0.713220,-3.155932,99936.16,-3,-108,+207
155848,4.200,0.110,1.562,1.449153,0.769091,-3.512978,99938.00,-8,-98,+209
155858,4.667,0.553,1.713,1.600272,0.834541,-3.812023,99938.89,-12,-90,+220
155869,5.520,0.049,2.125,1.754051,0.906376,-4.080739,99935.27,-12,-90,+220
155878,6.371,-1.251,2.275,1.803538,0.976614,-4.330830,99935.27,-21,-76,+218
155888,7.020,-2.513,2.255,1.738088,1.062284,-4.573472,99938.53,-25,-60,+221
155898,7.642,-3.161,2.031,1.610382,1.160192,-4.814518,99936.17,-26,-46,+232
155909,8.534,-3.257,1.827,1.467776,1.238412,-5.057160,99935.28,-26,-46,+232
155919,9.761,-3.147,1.505,1.375721,1.311311,-5.270536,99936.64,-30,-27,+228
155928,11.033,-3.090,1.503,1.304419,1.370376,-5.455178,99936.64,-25,-9,+230
155938,12.043,-3.152,1.633,1.226199,1.408155,-5.620664,99937.19,-19,+5,+238
155949,12.943,-3.364,1.690,1.127226,1.441146,-5.770187,99935.52,-13,+5,+231
155959,13.777,-4.001,1.685,0.983024,1.493293,-5.917582,99934.94,-13,+23,+231
155968,14.840,-4.854,1.821,0.799447,1.543311,-6.050076,99935.52,+0,+36,+231
155978,16.006,-5.204,1.585,0.594052,1.540651,-6.170866,99935.52,+12,+43,+236
155988,16.954,-5.453,1.543,0.481777,1.576834,-6.229930,99939.90,+22,+55,+228
155999,18.305,-6.424,1.629,0.570107,1.595990,-6.150114,99939.99,+22,+55,+228
156009,19.338,-7.883,1.380,0.713245,1.593329,-6.014957,99937.16,+38,+60,+225
156018,19.854,-9.662,1.178,0.782951,1.581091,-5.820737,99935.27,+52,+63,+229
156028,19.674,-12.088,1.351,0.849997,1.524155,-5.506793,99935.27,+62,+69,+218
156039,19.058,-14.403,1.677,0.970254,1.434229,-5.114096,99940.95,+62,+69,+218
156049,17.604,-16.058,1.171,1.026657,1.393788,-4.630940,99939.80,+78,+69,+216
156054,16.274,-17.511,0.661,0.964401,1.370908,-4.189289,99939.59,+78,+69,+216
156063,14.473,-20.403,-0.292,0.948437,1.212871,-3.675271,99939.59,+88,+67,+218
156073,11.312,-24.156,-1.250,1.026657,0.936174,-2.963840,99942.84,+95,+71,+206
156084,8.723,-24.317,-1.613,0.882456,0.766431,-2.134813,99942.84,+105,+68,+205
156094,7.612,-22.029,-1.069,0.421649,0.678101,-1.003548,99939.97,+105,+68,+205
156104,8.555,-18.863,-0.618,-0.080131,0.475367,0.260213,99941.33,+110,+65,+207
156113,10.200,-16.118,-0.168,-0.288718,0.174725,1.330818,99945.84,+112,+68,+197
156124,9.684,-16.160,0.576,-0.194534,-0.118468,2.085881,99945.84,+117,+67,+197
156134,10.652,-15.652,2.878,-0.175911,-0.329715,2.710046,99945.84,+117,+67,+197
156144,13.090,-8.554,-2.029,-0.262644,-0.522871,2.968119,99942.49,+115,+68,+200
156153,16.203,2.738,1.992,-0.411103,-0.670798,3.293770,99946.41,+113,+73,+191
156164,25.293,36.436,-0.227,1.144254,-0.762320,2.081624,99941.07,+115,+76,+192
156174,22.423,23.376,-2.178,0.313098,-0.884174,0.902469,99941.76,+113,+75,+196
156183,12.407,-13.805,1.619,0.941520,-0.960797,2.605752,99941.76,+113,+75,+196
156193,9.305,-16.028,4.397,4.416196,-1.104999,3.730633,99945.48,+110,+87,+186
156204,8.017,-8.559,1.540,4.211866,-0.931531,3.224064,99942.49,+112,+98,+186
156214,11.107,-8.363,1.113,2.264877,-0.324926,2.751019,99939.68,+109,+104,+188
156224,9.379,-6.561,3.777,1.874308,-0.209990,2.760596,99939.68,+109,+104,+188
156234,7.148,-5.296,4.623,1.890804,-0.184981,2.447184,99943.05,+106,+112,+179
156243,8.936,-5.496,2.702,1.319850,-0.095587,2.188578,99943.05,+110,+116,+180
156254,9.536,-6.151,2.210,0.551483,-0.136559,2.028413,99943.05,+105,+116,+184
156264,10.071,-6.139,2.169,-0.189213,-0.131238,1.875166,99943.20,+105,+116,+184
156273,10.653,-4.852,2.022,-0.875635,-0.093991,1.754909,99939.80,+103,+118,+176
156283,9.688,-3.321,2.138,-1.291745,-0.066853,1.635716,99939.80,+105,+114,+181
156290,8.907,-2.933,1.623,-1.369433,-0.078559,1.515992,99943.33,+105,+114,+181
156299,8.730,-2.868,1.443,-1.147543,-0.082816,1.418616,99942.75,+102,+112,+185
156309,8.934,-2.651,2.060,-0.643103,-0.066321,1.335074,99939.77,+99,+112,+178
156318,9.545,-2.100,1.993,-0.206241,-0.016835,1.255790,99941.66,+99,+112,+178
156328,9.883,-2.380,2.149,-0.059911,0.039037,1.228120,99941.66,+103,+112,+182
156339,9.475,-3.302,2.439,-0.065232,0.073092,1.177038,99944.45,+99,+112,+186
156349,9.046,-3.892,2.442,-0.171122,0.103422,1.048267,99941.36,+99,+114,+177
156358,8.974,-4.347,2.535,-0.443030,0.116193,0.892891,99942.63,+99,+114,+177
156368,9.299,-3.965,2.748,-0.707488,0.091184,0.725809,99939.42,+101,+113,+182
156379,9.476,-2.875,2.979,-0.837855,0.016156,0.599699,99939.42,+99,+109,+186
156389,9.328,-1.836,2.693,-0.762828,-0.051422,0.528396,99942.77,+98,+110,+179
156399,9.455,-1.563,2.430,-0.554773,-0.078027,0.535313,99943.15,+98,+110,+179
156408,9.613,-1.882,2.319,-0.356296,-0.075367,0.571497,99942.10,+100,+108,+186
156419,9.526,-2.397,2.186,-0.287122,-0.049293,0.600763,99940.48,+97,+107,+186
156429,9.209,-2.826,2.315,-0.329158,-0.004596,0.609277,99940.48,+96,+108,+178
156439,9.141,-2.906,2.626,-0.461121,0.039037,0.600763,99942.88,+99,+107,+186
156448,9.247,-2.668,2.909,-0.601066,0.073092,0.591717,99942.19,+99,+107,+186
156459,9.336,-2.527,2.820,-0.669176,0.070431,0.580543,99941.52,+96,+104,+187
156469,9.383,-2.264,2.747,-0.642571,0.035312,0.578414,99942.56,+96,+104,+180
156479,9.373,-2.322,2.515,-0.580846,-0.006725,0.598635,99942.56,+99,+102,+187
156489,9.383,-2.607,2.411,-0.526039,-0.016835,0.627901,99944.91,+99,+102,+187
156498,9.427,-2.848,2.308,-0.516461,0.004982,0.656635,99944.91,+96,+101,+188
156509,9.402,-2.906,2.213,-0.516461,0.040101,0.681112,99941.08,+94,+102,+181
156519,9.387,-2.948,2.078,-0.495709,0.066707,0.700268,99940.13,+98,+100,+188
156529,9.312,-3.164,2.262,-0.476021,0.085863,0.716763,99940.13,+98,+100,+188
156538,9.104,-3.139,2.654,-0.503690,0.112468,0.735919,99941.17,+94,+98,+188
156549,9.099,-2.829,2.745,-0.584571,0.133752,0.766781,99941.69,+95,+100,+182
156559,9.301,-2.205,2.728,-0.625543,0.134285,0.829570,99941.06,+98,+96,+188
156569,9.444,-1.412,2.740,-0.542534,0.092780,0.938121,99940.33,+98,+96,+188
156578,9.474,-1.052,2.951,-0.353103,0.033716,1.098818,99940.33,+94,+95,+189
156589,9.481,-1.788,2.858,-0.159947,-0.037055,1.263772,99943.30,+94,+98,+182
156599,9.591,-2.242,3.006,-0.051397,-0.099844,1.417552,99940.84,+96,+96,+189
156609,9.866,-2.442,3.408,-0.012021,-0.170082,1.541533,99938.27,+96,+96,+189
156619,10.485,-2.653,3.494,-0.026388,-0.235532,1.661790,99937.27,+92,+98,+188
156628,10.672,-2.964,3.208,-0.065764,-0.278633,1.782579,99937.27,+91,+100,+181
156639,10.699,-2.732,2.815,-0.117911,-0.310559,1.912946,99944.25,+92,+100,+189
156649,11.345,-2.810,2.231,-0.118975,-0.370155,2.045973,99942.78,+92,+100,+189
156659,12.320,-3.256,1.815,-0.072681,-0.430816,2.181661,99939.42,+87,+99,+187
156668,13.024,-3.910,1.765,-0.058846,-0.479770,2.312028,99941.31,+85,+102,+181
156679,13.455,-4.104,2.208,-0.073746,-0.516486,2.433349,99941.31,+87,+102,+189
156689,13.735,-4.527,2.651,-0.150901,-0.532449,2.533386,99943.65,+87,+102,+189
156699,14.008,-4.730,2.814,-0.312131,-0.526064,2.613202,99940.40,+81,+100,+187
156708,14.737,-4.682,2.714,-0.531892,-0.513825,2.683440,99938.51,+80,+102,+182
156719,16.082,-4.244,2.453,-0.754846,-0.506908,2.735587,99939.18,+81,+98,+191
156729,18.345,-3.345,3.300,-0.912883,-0.582467,2.784009,99939.18,+81,+98,+191
156739,19.844,-2.048,4.418,-0.954919,-0.672394,2.871275,99940.77,+77,+95,+189
156749,20.619,-1.310,4.951,-1.116681,-0.665476,2.977165,99941.41,+76,+95,+186
156759,22.645,-0.518,4.835,-1.489690,-0.622908,3.069752,99940.19,+77,+87,+195
156769,23.670,-0.272,4.634,-2.000515,-0.555862,3.226192,99937.20,+77,+87,+195
156779,23.656,0.582,4.042,-2.470900,-0.488816,3.419880,99937.20,+73,+81,+194
156789,22.920,1.756,3.380,-2.831138,-0.457954,3.543862,99941.66,+76,+76,+191
156798,19.723,0.134,3.480,-3.028551,-0.625568,3.522045,99941.39,+80,+63,+202
156809,15.720,-4.345,5.779,-2.742808,-0.996449,3.642302,99938.92,+80,+63,+202
156819,14.715,-3.528,8.338,-1.962735,-1.040614,3.575788,99939.03,+78,+57,+198
156829,15.131,-1.033,8.060,-1.056552,-0.820320,3.364009,99939.03,+80,+55,+195
156838,12.853,-2.243,5.730,-0.473892,-0.753275,3.200651,99938.91,+87,+49,+205
156849,8.828,-4.459,6.625,-0.186553,-0.519678,3.029844,99939.70,+87,+49,+205
156859,5.989,-2.860,6.419,0.121007,-0.241917,2.461551,99939.80,+88,+48,+200
156869,5.107,1.761,3.974,-0.141323,0.002853,1.400524,99937.29,+93,+50,+198
156878,5.418,3.721,2.072,-0.696314,0.136413,0.429424,99937.29,+100,+42,+205
156889,5.235,2.968,2.910,-1.133176,0.371606,0.024488,99942.64,+100,+42,+205
156899,4.502,3.226,2.162,-1.194369,0.375862,-0.468246,99939.95,+103,+38,+200
156909,3.507,4.446,1.179,-1.008662,0.455147,-1.170630,99938.97,+110,+35,+198
156919,3.717,4.129,0.972,-0.983121,0.612119,-1.603236,99935.77,+118,+27,+205
156929,3.966,2.161,0.844,-0.810185,0.664266,-1.824593,99935.77,+120,+23,+199
156939,3.322,0.359,0.524,-0.272755,0.604137,-2.143859,99941.07,+120,+23,+199
156949,3.250,-0.092,0.493,0.480713,0.565826,-2.579125,99938.35,+127,+23,+197
156959,4.295,0.133,0.397,1.098492,0.572743,-3.029290,99937.30,+134,+15,+204
156968,5.177,0.101,0.435,1.414565,0.622761,-3.389528,99936.41,+136,+16,+198
156979,5.304,-0.455,0.712,1.519923,0.700981,-3.657179,99936.41,+136,+16,+198
156989,4.997,-0.950,1.007,1.658272,0.766431,-3.903014,99936.92,+143,+15,+197
156999,5.016,-1.005,1.653,1.810987,0.854229,-4.157895,99934.14,+148,+9,+205
157008,5.533,-1.585,2.277,1.871116,0.941495,-4.420225,99936.39,+149,+7,+199
157019,6.259,-2.344,2.445,1.893996,1.000559,-4.706500,99932.25,+149,+7,+199
157029,7.015,-2.811,2.352,1.856217,1.080376,-4.964573,99932.25,+155,+3,+199
157039,7.771,-3.248,2.285,1.735428,1.178284,-5.174224,99938.63,+158,-5,+207
157049,8.644,-3.719,2.037,1.528969,1.286834,-5.383343,99936.18,+157,-11,+200
157059,9.720,-3.913,1.765,1.293244,1.404963,-5.604169,99935.23,+157,-11,+200
157069,10.844,-3.815,1.745,1.032511,1.504999,-5.805838,99934.96,+160,-21,+202
157079,11.788,-4.027,2.092,0.792529,1.574706,-5.973985,99934.96,+159,-34,+209
157089,12.487,-4.479,2.606,0.504658,1.634302,-6.130425,99939.23,+152,-42,+204
157099,13.598,-5.377,2.801,0.150273,1.729550,-6.277287,99939.30,+152,-42,+204
157109,15.278,-6.576,2.849,-0.032773,1.858852,-6.349123,99936.56,+150,-56,+205
157119,16.966,-7.714,2.764,0.015649,1.949311,-6.323581,99936.63,+143,-68,+213
157129,18.388,-8.697,2.126,0.162511,1.975916,-6.230994,99936.63,+137,-72,+205
157139,19.519,-10.641,1.439,0.290218,1.940797,-6.034646,99941.67,+137,-72,+205
157149,19.898,-13.241,0.935,0.375355,1.844485,-5.724425,99938.00,+133,-82,+207
157159,19.756,-15.543,0.870,0.326401,1.693898,-5.374829,99940.25,+126,-89,+215
157169,18.664,-16.781,0.991,0.236474,1.493825,-4.985325,99940.30,+119,-90,+208
157179,16.262,-16.862,0.984,0.206144,1.301733,-4.513344,99940.30,+119,-90,+208
157189,13.568,-18.237,0.756,0.321612,1.105385,-3.874280,99942.05,+117,-97,+211
157199,11.109,-21.142,0.184,0.525410,0.925532,-3.055363,99940.58,+112,-99,+218
157209,9.213,-22.290,-0.844,0.603098,0.754725,-2.142263,99943.20,+108,-98,+211
157219,8.134,-20.325,-1.434,0.447722,0.625954,-1.107309,99943.25,+108,-98,+211
157229,8.455,-17.836,-1.433,0.343428,0.452486,0.010121,99943.25,+110,-101,+214
157239,9.514,-16.151,-1.165,0.522749,0.209312,1.016873,99941.67,+112,-99,+220
157249,9.951,-16.811,0.027,0.530731,-0.071642,1.875166,99942.89,+115,-93,+213
157259,11.475,-14.594,0.475,0.479649,-0.217440,2.442927,99940.73,+115,-93,+213
157270,12.566,-13.198,-3.643,-0.141323,-0.501587,2.838816,99939.95,+122,-93,+215
157279,17.038,1.805,0.941,0.318419,-0.878320,3.215018,99939.95,+126,-89,+220
157289,25.447,37.206,-0.004,1.784382,-1.054981,1.534616,99943.98,+125,-81,+216
157299,22.490,19.558,-3.021,0.910658,-1.115109,0.915240,99945.23,+125,-81,+216
157309,12.859,-17.859,0.300,1.165006,-1.112449,2.829239,99943.25,+128,-81,+222
157319,10.284,-18.963,4.617,4.797187,-1.151293,3.861531,99942.09,+129,-66,+234
157329,9.578,-8.931,-0.059,3.978802,-0.874596,3.158614,99942.09,+130,-50,+230
157339,9.742,-9.651,0.684,1.367208,-0.049825,2.579147,99945.80,+130,-50,+230
157349,9.914,-7.746,3.299,0.899483,0.114064,2.730266,99941.39,+138,-46,+237
157359,9.232,-5.472,3.502,0.661630,-0.023752,2.400358,99939.41,+139,-39,+241
157369,8.705,-3.904,2.001,0.081098,0.048083,2.119936,99940.92,+140,-37,+232
157379,9.301,-4.417,2.917,-0.557433,0.093844,2.057679,99940.92,+147,-37,+232
157389,9.116,-5.570,3.493,-0.874571,0.046486,1.926780,99944.91,+147,-38,+237
157400,9.336,-3.444,3.177,-1.180002,0.069367,1.792689,99942.71,+147,-37,+239
157409,9.502,-1.687,3.562,-1.444460,0.116725,1.741074,99944.80,+149,-40,+229
157419,9.185,-2.375,3.464,-1.372625,0.045422,1.669239,99940.30,+153,-43,+234
157429,8.771,-2.499,2.321,-0.980993,-0.054082,1.527698,99940.30,+153,-43,+234
157440,9.135,-1.869,1.886,-0.563287,-0.081752,1.415423,99940.71,+152,-42,+236
157449,9.689,-2.799,2.208,-0.300956,-0.146669,1.369130,99943.43,+154,-41,+226
157459,9.696,-3.882,1.982,-0.165801,-0.191899,1.289845,99941.54,+157,-42,+234
157469,9.460,-3.908,2.052,-0.212626,-0.146137,1.174909,99939.98,+157,-42,+234
157479,9.222,-3.964,2.225,-0.361085,-0.085477,1.064763,99939.98,+155,-39,+235
157490,9.024,-3.507,2.439,-0.480277,-0.047697,0.949827,99941.91,+157,-39,+226
157499,9.039,-2.859,2.855,-0.537745,-0.026945,0.859368,99941.18,+160,-40,+232
157509,9.234,-2.619,2.978,-0.484534,-0.038651,0.816800,99942.13,+160,-40,+232
157519,9.280,-2.896,2.755,-0.336608,-0.061532,0.788066,99939.71,+158,-40,+234
157530,9.338,-3.267,2.411,-0.277544,-0.076431,0.755607,99939.71,+159,-40,+225
157539,9.372,-3.364,2.301,-0.261580,-0.066321,0.718359,99945.50,+162,-42,+232
157549,9.183,-3.469,2.417,-0.287122,-0.044504,0.678451,99941.47,+162,-42,+232
157559,9.034,-3.387,2.630,-0.354167,-0.020027,0.636414,99944.25,+161,-39,+234
157570,8.948,-3.194,2.560,-0.398333,0.000725,0.601295,99940.53,+161,-40,+225
157579,9.013,-3.220,2.533,-0.390883,0.007642,0.582139,99940.53,+164,-42,+232
157585,8.982,-3.146,2.588,-0.376516,0.017220,0.577350,99942.42,+164,-42,+232
157594,9.002,-3.160,2.411,-0.416956,0.029459,0.572029,99942.42,+162,-42,+232
157604,9.238,-3.384,2.433,-0.463250,0.042230,0.559791,99942.11,+164,-40,+224
157615,9.344,-3.218,2.620,-0.495709,0.049679,0.550213,99940.48,+164,-40,+224
157625,9.220,-3.048,2.661,-0.518057,0.056597,0.560855,99939.64,+167,-44,+229
157634,9.007,-3.081,2.681,-0.505819,0.060321,0.576818,99942.08,+164,-44,+230
157644,8.897,-3.315,2.620,-0.508479,0.061918,0.592781,99941.44,+167,-42,+221
157655,8.810,-3.401,2.641,-0.556369,0.079477,0.602891,99938.77,+167,-42,+221
157664,8.839,-3.256,2.660,-0.647892,0.095441,0.613534,99938.77,+169,-46,+229
157674,8.980,-2.738,2.660,-0.702699,0.106083,0.644396,99943.44,+168,-46,+227
157684,9.007,-2.191,2.679,-0.658002,0.100762,0.711974,99943.44,+169,-46,+220
157694,8.984,-1.877,2.739,-0.527635,0.068835,0.817332,99941.10,+169,-46,+220
157705,9.100,-2.390,2.725,-0.355232,0.009771,0.943442,99938.88,+174,-48,+227
157714,9.347,-2.964,2.679,-0.254131,-0.029605,1.037093,99938.88,+172,-45,+225
157724,9.475,-3.797,2.659,-0.236039,-0.067385,1.116910,99939.32,+174,-44,+219
157734,9.751,-3.926,2.520,-0.281800,-0.086541,1.170653,99939.32,+174,-44,+219
157745,10.055,-3.862,2.523,-0.358956,-0.096651,1.222267,99941.59,+178,-44,+226
157755,10.331,-3.434,2.587,-0.374388,-0.130706,1.285588,99942.03,+175,-42,+224
157764,10.650,-2.914,2.595,-0.323837,-0.197220,1.383496,99941.69,+178,-41,+218
157774,11.045,-2.927,2.801,-0.242424,-0.271715,1.512267,99941.69,+178,-41,+218
157785,11.664,-3.179,2.819,-0.212626,-0.332908,1.646891,99941.69,+181,-40,+228
157795,12.202,-3.422,2.655,-0.242956,-0.382394,1.780450,99943.60,+178,-36,+225
157804,12.507,-3.427,2.612,-0.274351,-0.437201,1.918799,99941.02,+182,-35,+220
157814,12.802,-3.443,2.625,-0.282865,-0.511165,2.060872,99940.66,+182,-35,+220
157819,13.023,-3.493,2.751,-0.287122,-0.572357,2.171551,99939.77,+184,-35,+230
157830,13.125,-3.701,3.063,-0.315323,-0.620779,2.280101,99939.77,+184,-35,+230
157839,13.304,-4.031,3.196,-0.414828,-0.677183,2.399826,99944.24,+181,-31,+227
157849,13.849,-4.105,3.055,-0.559030,-0.753275,2.488156,99941.55,+183,-29,+223
157859,14.749,-4.157,2.505,-0.716002,-0.831495,2.557863,99940.04,+185,-29,+234
157870,16.462,-3.979,2.588,-0.813378,-0.922485,2.604156,99940.98,+180,-28,+231
157879,18.335,-3.296,3.714,-0.853818,-1.019329,2.633954,99940.98,+180,-28,+231
157889,18.913,-2.294,4.300,-1.013983,-0.971440,2.675991,99942.32,+182,-26,+229
157899,19.833,-1.210,4.302,-1.352937,-0.848522,2.700468,99941.23,+183,-30,+239
157910,20.790,0.006,3.786,-1.712111,-0.750614,2.749422,99939.76,+180,-31,+235
157920,20.574,1.887,3.635,-1.946240,-0.680376,2.848394,99939.29,+180,-31,+235
157929,19.583,2.648,3.680,-2.144717,-0.623972,2.921826,99939.29,+183,-35,+232
157939,18.238,3.180,3.513,-2.238368,-0.655366,2.930871,99940.74,+184,-42,+243
157949,15.565,0.911,4.014,-2.055854,-0.863953,3.000046,99939.74,+182,-45,+237
157960,13.594,-2.313,5.704,-1.547157,-1.187476,3.120835,99939.59,+182,-45,+237
157969,14.274,-3.401,5.390,-0.668112,-1.272082,3.039954,99940.10,+184,-46,+238
157979,14.274,-7.914,5.336,-0.370131,-1.342852,3.063367,99940.10,+184,-49,+250
157989,13.412,-11.216,7.073,-0.019470,-1.198650,3.235770,99941.09,+181,-44,+247
158000,11.593,-7.788,7.981,0.892566,-1.041678,2.854780,99939.09,+181,-44,+247
158010,8.836,-0.954,7.059,1.160749,-0.773495,2.003936,99938.42,+184,-40,+250
158019,7.644,5.920,4.606,0.686639,-0.392504,1.053056,99937.16,+183,-43,+262
158029,7.439,7.822,2.580,-0.065764,-0.219036,0.344818,99937.16,+180,-44,+258
158040,6.450,3.700,3.036,-0.361617,-0.169018,0.128782,99938.26,+180,-44,+258
158050,5.744,2.127,2.217,-0.347782,-0.081752,-0.198998,99940.15,+182,-50,+259
158059,4.860,2.155,1.652,-0.419617,0.000725,-0.835401,99939.10,+181,-58,+269
158069,4.022,2.085,2.032,-0.452608,0.171000,-1.405291,99936.48,+176,-65,+263
158080,3.522,1.415,1.759,-0.441965,0.279551,-1.882061,99936.48,+176,-65,+263
158090,3.535,0.558,1.181,-0.277011,0.322651,-2.350318,99940.37,+176,-74,+265
158099,3.987,-0.026,0.823,0.044915,0.357239,-2.816446,99936.91,+171,-84,+275
158109,4.585,-0.136,0.611,0.361520,0.394486,-3.268207,99937.38,+163,-90,+270
158119,5.072,0.079,0.720,0.536052,0.446101,-3.663033,99934.55,+163,-90,+270
158130,5.325,0.181,0.884,0.575428,0.529642,-3.978574,99934.55,+159,-98,+274
158140,5.474,-0.140,1.156,0.682382,0.609991,-4.232922,99936.20,+150,-107,+285
158149,5.584,-0.553,1.933,0.876070,0.715881,-4.494188,99935.63,+138,-110,+281
158159,5.936,-1.112,2.427,1.035703,0.794101,-4.768756,99936.10,+138,-110,+281
158170,6.886,-1.806,2.618,1.213428,0.880835,-5.020444,99930.12,+131,-114,+287
158180,8.156,-2.279,2.793,1.399666,0.979807,-5.241802,99930.12,+117,-116,+300
158189,9.340,-2.674,2.685,1.577391,1.046321,-5.431233,99934.35,+105,-111,+296
158199,10.377,-2.964,2.500,1.715207,1.111770,-5.614279,99934.93,+105,-111,+296
158210,11.547,-3.011,2.436,1.728510,1.217660,-5.754756,99934.62,+98,-107,+304
158220,12.981,-3.384,2.670,1.592290,1.229366,-5.869691,99930.79,+90,-98,+315
158229,13.956,-3.877,2.909,1.429997,1.155935,-6.039434,99930.79,+82,-90,+310
158239,15.278,-5.102,2.736,1.258125,1.245330,-6.198535,99935.29,+82,-90,+310
158249,16.634,-7.036,2.606,0.979832,1.366119,-6.319324,99934.87,+81,-87,+313
158260,17.633,-8.396,1.935,0.597777,1.481586,-6.417765,99933.98,+78,-83,+319
158270,18.343,-9.100,1.655,0.254566,1.578430,-6.414040,99934.55,+72,-84,+307
158279,18.909,-10.113,1.475,0.075245,1.637495,-6.272499,99934.55,+72,-84,+307
158289,19.039,-12.754,1.188,0.005539,1.639623,-5.993673,99939.55,+71,-88,+307
158300,18.049,-16.131,0.754,-0.014681,1.589605,-5.620664,99940.13,+66,-89,+311
158310,16.569,-18.442,0.819,0.035337,1.488504,-5.138573,99940.13,+58,-88,+299
158319,14.990,-19.228,1.089,0.230621,1.342174,-4.501105,99940.20,+57,-88,+299
158329,13.380,-19.647,0.081,0.472199,1.129862,-3.722097,99940.20,+57,-89,+302
158340,12.474,-22.843,-0.751,0.851061,0.854229,-2.914354,99943.77,+56,-83,+307
158350,9.875,-24.725,-0.489,1.363483,0.617440,-2.208777,99941.05,+52,-77,+299
158359,7.348,-23.297,-0.288,1.155960,0.579128,-1.422850,99941.95,+55,-73,+304
158369,6.760,-21.863,0.529,0.404621,0.533899,-0.281475,99942.68,+55,-73,+304
158380,7.348,-19.856,-0.140,-0.221672,0.371606,0.880121,99942.68,+59,-71,+307
158390,8.709,-17.916,0.834,-0.522314,0.273697,1.793221,99942.31,+62,-73,+296
158400,10.151,-14.305,-1.692,-0.459525,0.006578,2.221569,99944.05,+68,-75,+299
158410,12.881,-10.664,-1.308,-0.782693,-0.360578,3.006963,99942.36,+68,-75,+299
158419,21.016,17.381,1.502,0.691428,-0.975164,2.810083,99941.00,+72,-73,+302
158430,31.178,44.359,1.561,1.791299,-0.896412,0.797644,99941.00,+68,-65,+296
158440,18.119,1.652,-4.361,0.766456,-1.301348,1.976799,99942.80,+71,-62,+302
158449,12.858,-24.515,6.911,3.247152,-0.971440,3.966357,99941.95,+71,-62,+302
158459,8.997,-16.859,2.758,6.201957,-1.100210,4.489421,99942.48,+74,-36,+310
158470,9.291,-11.225,-0.126,3.374858,-0.300981,3.362945,99940.86,+75,-19,+305
158480,8.897,-9.938,1.323,1.229391,0.287532,3.112321,99940.86,+83,-13,+311
158489,6.560,-5.909,5.017,0.997923,0.029459,2.882982,99943.43,+83,-13,+311
158499,7.162,-5.886,3.386,0.785612,-0.173807,2.323202,99941.65,+84,-5,+313
158510,11.269,-5.926,1.425,0.169429,-0.275972,2.209331,99941.23,+83,-5,+304
158520,11.584,-7.414,1.858,-0.655874,-0.417513,2.059808,99940.70,+86,-7,+310
158529,9.147,-5.870,1.873,-1.308240,-0.481366,1.820891,99940.70,+86,-7,+310
158539,8.260,-1.992,1.257,-1.493946,-0.275440,1.688395,99943.73,+84,-11,+311
158550,8.816,-1.462,1.305,-1.362515,-0.058871,1.655405,99942.27,+84,-18,+301
158560,9.044,-2.538,1.145,-0.711213,-0.048761,1.563350,99941.64,+89,-19,+309
158570,9.228,-2.219,1.988,0.012988,-0.045569,1.437240,99938.81,+89,-19,+309
158579,9.401,-3.188,2.024,0.275851,-0.066321,1.352634,99938.81,+88,-17,+309
158589,9.348,-4.643,1.734,0.264144,-0.042376,1.219074,99942.98,+88,-16,+302
158600,9.214,-5.077,1.636,0.019374,0.052872,1.063699,99941.20,+93,-15,+309
158610,9.319,-5.168,2.188,-0.396204,0.166743,0.894488,99938.95,+93,-15,+309
158619,9.317,-4.379,2.633,-0.862864,0.237514,0.721020,99941.31,+92,-16,+308
158629,9.275,-3.203,2.800,-1.128387,0.243899,0.583203,99941.31,+93,-22,+300
158640,9.720,-2.115,2.811,-1.102314,0.181642,0.518286,99942.91,+97,-26,+306
158646,9.944,-1.331,2.540,-0.900112,0.123642,0.511369,99942.02,+97,-26,+306
158655,9.878,-0.875,2.528,-0.599470,0.070963,0.543827,99942.02,+96,-27,+305
158665,9.401,-1.652,2.517,-0.219544,0.003386,0.609277,99941.28,+96,-29,+297
158674,8.940,-3.309,2.441,-0.079067,-0.016835,0.628965,99938.55,+96,-29,+297
158685,8.982,-4.162,2.375,-0.225929,0.010303,0.583736,99938.55,+99,-28,+306
158695,9.073,-3.661,2.377,-0.470167,0.064046,0.522543,99941.20,+98,-29,+304
158705,9.161,-2.750,2.386,-0.629268,0.099697,0.491148,99940.80,+98,-32,+296
158714,9.372,-2.316,2.508,-0.640975,0.098633,0.498066,99942.70,+98,-32,+296
158725,9.513,-2.447,2.576,-0.576057,0.077881,0.520414,99942.70,+102,-33,+304
158735,9.501,-2.656,2.624,-0.512736,0.052340,0.549680,99942.70,+100,-35,+302
158745,9.295,-2.784,2.413,-0.491984,0.034780,0.586396,99942.52,+101,-38,+295
158754,9.232,-2.844,2.080,-0.496773,0.033184,0.625240,99942.37,+101,-38,+295
158765,9.285,-2.819,1.733,-0.487727,0.039037,0.660891,99941.01,+106,-38,+303
158775,9.280,-2.702,1.544,-0.441965,0.044890,0.705057,99941.48,+103,-40,+299
158785,9.338,-2.644,1.429,-0.366406,0.042762,0.754543,99941.48,+104,-42,+293
158795,9.420,-2.608,1.622,-0.262644,0.032119,0.799240,99942.76,+104,-42,+293
158804,9.257,-2.853,2.161,-0.218479,0.023074,0.846066,99941.73,+109,-40,+302
158815,9.138,-3.134,2.284,-0.265837,0.018285,0.886506,99941.02,+106,-40,+298
158825,9.231,-2.984,2.301,-0.324901,0.024670,0.926946,99941.02,+108,-42,+293
158835,9.504,-2.807,2.575,-0.308938,0.029991,0.983882,99941.47,+108,-42,+293
158844,9.488,-2.880,2.724,-0.225929,0.014560,1.054653,99941.47,+113,-42,+301
158855,9.122,-3.124,2.820,-0.112590,-0.002468,1.124359,99941.42,+111,-41,+297
158865,9.212,-3.773,2.606,-0.020002,-0.027477,1.174377,99939.84,+113,-41,+292
158875,9.482,-4.274,2.421,-0.058846,-0.023220,1.214286,99942.25,+113,-41,+292
158884,9.611,-3.956,2.510,-0.209434,-0.006725,1.260579,99942.25,+117,-40,+300
158895,10.061,-3.166,2.763,-0.312131,-0.036523,1.327625,99943.52,+116,-40,+295
158905,10.813,-2.332,3.170,-0.283929,-0.104101,1.447882,99944.30,+119,-40,+290
158915,11.644,-2.539,2.738,-0.188681,-0.189770,1.597405,99943.16,+119,-40,+290
158925,12.014,-3.219,2.247,-0.124828,-0.237128,1.749056,99939.09,+122,-38,+299
158935,12.517,-3.280,1.603,-0.155690,-0.263734,1.892193,99943.23,+121,-38,+294
158945,13.081,-3.153,1.133,-0.171122,-0.303642,2.032138,99943.34,+122,-37,+289
158955,13.288,-2.818,1.032,-0.134406,-0.366431,2.193367,99941.60,+122,-37,+289
158965,13.392,-2.742,1.540,-0.058846,-0.438266,2.374817,99941.60,+126,-34,+299
158974,13.450,-3.184,2.019,-0.034902,-0.476577,2.563716,99940.60,+124,-32,+293
158985,13.786,-3.767,2.189,-0.148773,-0.457954,2.729202,99940.60,+127,-30,+290
158995,14.983,-3.765,2.299,-0.373323,-0.429220,2.864890,99941.77,+131,-30,+290
159000,16.301,-3.170,2.499,-0.532956,-0.421238,2.950560,99940.95,+131,-30,+299
159009,17.964,-2.580,3.738,-0.603195,-0.469660,3.029844,99940.88,+129,-30,+292
159020,19.376,-1.890,5.500,-0.657470,-0.502651,3.130413,99938.26,+129,-30,+292
159030,20.275,-2.440,6.214,-0.923525,-0.399954,3.213954,99938.26,+133,-30,+288
159040,22.410,-2.644,6.010,-1.513635,-0.245642,3.228853,99941.32,+137,-32,+296
159050,22.999,-2.218,5.114,-2.264973,-0.072174,3.300688,99939.63,+140,-38,+285
159059,22.356,-0.602,4.056,-2.919468,0.089587,3.379972,99939.16,+140,-38,+285
159070,20.670,0.867,2.313,-3.427101,0.174725,3.379972,99935.96,+147,-47,+280
159080,17.236,-2.057,2.529,-3.653780,-0.216376,3.409238,99935.96,+153,-60,+284
159090,14.558,-3.244,6.604,-3.280771,-0.664944,3.437440,99940.60,+153,-69,+271
159099,14.322,-0.278,8.299,-2.348515,-0.575550,3.072945,99937.93,+153,-69,+271
159110,14.600,-1.292,5.947,-1.472130,-0.478174,2.886174,99939.34,+158,-72,+268
159120,12.533,-5.859,4.788,-1.266204,-0.478706,2.985679,99939.40,+164,-76,+273
159130,10.715,-7.752,5.520,-0.738883,-0.357385,2.944174,99939.40,+166,-75,+263
159140,8.591,-4.216,5.275,-0.137599,-0.282357,2.396633,99941.39,+166,-75,+263
159150,6.367,0.976,4.119,0.031612,-0.035458,1.483533,99942.08,+170,-73,+261
159160,6.331,3.540,0.559,-0.398333,0.063514,0.530524,99940.30,+173,-78,+266
159170,5.049,1.403,1.894,-0.710149,0.239110,0.151662,99938.88,+172,-83,+256
159180,4.758,1.403,2.558,-0.660131,0.453018,-0.226668,99938.88,+172,-83,+256
159190,4.058,3.154,1.333,-0.500498,0.423220,-0.970557,99942.38,+174,-87,+252
159200,3.151,3.806,1.381,-0.298828,0.578596,-1.482447,99939.49,+174,-94,+257
159210,3.194,3.469,0.661,-0.108333,0.609991,-1.794795,99940.65,+169,-98,+248
159220,3.510,1.812,0.058,0.280107,0.547202,-2.112465,99940.65,+169,-98,+248
159229,3.702,-0.530,0.233,0.849997,0.532835,-2.429070,99940.65,+168,-104,+248
159240,3.971,-1.830,0.659,1.354969,0.558376,-2.772281,99937.23,+165,-108,+256
159250,4.294,-1.772,0.772,1.557703,0.591899,-3.193180,99936.50,+157,-108,+250
159260,4.458,-1.179,0.820,1.494382,0.668523,-3.602372,99935.83,+157,-108,+250
159270,4.505,-0.546,0.870,1.398070,0.758449,-3.931748,99935.98,+154,-112,+253
159280,4.777,-0.057,1.150,1.405520,0.857422,-4.215894,99935.98,+148,-116,+260
159290,5.617,-0.531,1.570,1.394877,0.968100,-4.484610,99935.44,+139,-120,+254
159300,6.456,-1.749,1.812,1.289520,1.058027,-4.730444,99938.22,+133,-125,+258
159310,7.071,-2.754,1.575,1.199061,1.127733,-4.956059,99935.44,+133,-125,+258
159320,7.825,-3.176,1.174,1.094235,1.218192,-5.171564,99931.98,+125,-134,+266
159330,8.705,-3.561,0.816,0.941520,1.317165,-5.387068,99931.98,+111,-142,+260
159340,9.627,-3.809,0.617,0.779759,1.394853,-5.612150,99937.37,+100,-151,+265
159350,10.600,-3.683,0.548,0.644603,1.453917,-5.832976,99934.27,+100,-151,+265
159360,11.705,-3.279,0.974,0.534456,1.502871,-6.031453,99934.49,+82,-162,+273
159370,12.735,-3.074,1.337,0.402493,1.510320,-6.203324,99934.01,+57,-167,+268
159380,13.638,-3.416,1.181,0.273190,1.557146,-6.357636,99934.01,+35,-172,+274
159390,15.101,-4.064,1.143,0.221043,1.651329,-6.458737,99936.62,+35,-172,+274
159400,17.163,-4.749,0.899,0.283832,1.712522,-6.508755,99935.77,+9,-172,+285
159410,19.156,-5.939,0.758,0.463153,1.715183,-6.485875,99934.62,-17,-160,+283
159420,20.357,-7.835,0.944,0.727612,1.656118,-6.373600,99936.35,-35,-147,+292
159430,20.845,-10.260,1.446,1.051134,1.536926,-6.157031,99936.35,-35,-147,+292
159440,20.987,-12.888,2.012,1.310272,1.374632,-5.854260,99937.72,-52,-129,+304
159450,20.534,-15.568,3.026,1.534290,1.217660,-5.428041,99935.98,-64,-104,+302
159460,18.801,-17.986,3.785,1.737556,1.064945,-4.903912,99937.77,-68,-86,+310
159470,15.963,-19.988,3.495,1.708822,0.999495,-4.318592,99939.39,-68,-86,+310
159480,12.894,-23.449,2.131,1.487464,0.929256,-3.634299,99939.39,-72,-66,+320
159490,9.790,-26.963,0.752,1.122969,0.918082,-2.932446,99941.22,-73,-48,+313
159500,6.777,-26.240,0.515,0.209869,0.854761,-2.176850,99941.06,-68,-43,+318
159510,5.781,-22.327,1.554,-0.892662,0.791972,-1.060484,99939.75,-68,-43,+318
159520,7.492,-17.941,2.074,-1.581745,0.567422,0.179864,99938.17,-66,-45,+323
159529,8.968,-15.335,1.064,-1.456167,0.265184,1.330818,99938.17,-64,-49,+315
159540,9.769,-14.552,0.791,-0.699507,-0.013110,2.246578,99942.49,-58,-58,+321
159550,11.743,-11.808,0.833,0.113557,-0.185513,2.868083,99942.65,-58,-58,+321
159560,15.112,-3.877,-4.251,0.061942,-0.681972,3.104872,99943.13,-56,-58,+327
159570,25.152,26.432,-3.641,0.812217,-1.185348,2.839881,99938.26,-57,-59,+320
159580,29.756,39.411,-3.018,1.448088,-1.185348,1.036561,99938.26,-57,-55,+326
159590,16.359,-3.983,-3.601,1.150107,-1.369458,2.222101,99942.61,-57,-55,+326
159600,11.166,-22.483,6.972,3.904839,-1.172577,4.024889,99941.25,-61,-48,+329
159610,8.290,-11.812,1.769,5.834801,-1.178430,4.124394,99940.00,-61,-25,+325
159620,9.268,-7.815,-0.204,3.383372,-0.498926,3.109128,99941.41,-56,-15,+332
159630,8.711,-6.617,2.599,2.127060,0.029459,3.137330,99941.41,-56,-15,+332
159640,5.929,-4.708,7.224,2.019574,-0.032266,2.988339,99942.41,-56,-9,+336
159650,7.066,-5.501,5.314,1.541740,-0.068981,2.550945,99944.14,-53,-4,+328
159661,10.377,-6.814,2.982,0.655245,-0.125385,2.424303,99940.89,-49,-5,+334
159670,10.982,-8.359,2.122,-0.236039,-0.214247,2.226890,99940.98,-49,-5,+334
159680,10.461,-7.084,1.283,-0.995892,-0.285018,1.990634,99940.98,-51,-8,+336
159690,10.192,-4.642,1.131,-1.563121,-0.302045,1.817698,99944.84,-52,-17,+328
159700,9.739,-3.227,1.645,-1.762662,-0.313752,1.696909,99941.48,-49,-29,+332
159710,8.754,-2.470,1.645,-1.601965,-0.405275,1.564414,99943.63,-49,-29,+332
159720,8.007,-2.339,2.152,-1.163506,-0.357385,1.464909,99939.38,-51,-36,+333
159730,8.676,-1.567,1.584,-0.592553,-0.272247,1.394671,99939.38,-51,-40,+323
159740,9.899,-0.675,0.532,0.020438,-0.189770,1.355295,99943.84,-47,-44,+330
159750,10.091,-1.772,1.757,0.594052,-0.149330,1.393607,99943.80,-47,-44,+330
159760,9.268,-3.944,2.151,0.868089,-0.182853,1.313258,99941.44,-50,-42,+332
159770,8.699,-5.805,2.187,0.620658,-0.142945,1.136598,99940.86,-48,-38,+324
159780,8.652,-6.119,2.377,-0.079599,-0.062064,0.913644,99940.86,-45,-42,+331
159791,9.003,-4.439,2.788,-0.764956,0.009771,0.707185,99942.60,-47,-46,+330
159800,9.311,-2.804,2.653,-1.083158,0.035844,0.590653,99942.91,-47,-46,+330
159810,9.653,-1.636,2.066,-0.968754,0.051808,0.549680,99941.13,-45,-51,+321
159820,9.937,-1.163,1.680,-0.592553,0.039037,0.587460,99941.60,-42,-56,+330
159831,9.778,-1.654,1.578,-0.173250,0.000725,0.649717,99941.60,-45,-57,+329
159840,9.475,-2.667,1.677,0.081631,-0.017899,0.681644,99945.68,-45,-57,+329
159850,9.214,-3.586,2.241,0.075245,0.000193,0.673662,99947.30,-43,-55,+321
159860,8.951,-4.201,2.718,-0.164736,0.041165,0.626836,99943.01,-40,-58,+330
159870,8.974,-3.864,2.753,-0.492516,0.095441,0.556066,99939.13,-41,-61,+328
159880,9.200,-3.081,2.309,-0.707488,0.120450,0.503919,99939.13,-41,-61,+328
159890,9.373,-2.496,1.993,-0.662791,0.120450,0.495937,99941.35,-39,-63,+320
159900,9.341,-2.519,1.787,-0.495176,0.102890,0.519882,99942.51,-35,-68,+328
159910,9.420,-2.951,1.810,-0.355232,0.095973,0.552873,99941.20,-38,-69,+326
159921,9.438,-3.325,1.815,-0.338204,0.113000,0.574158,99942.77,-38,-69,+326
159930,9.385,-3.473,1.853,-0.419617,0.135881,0.580543,99942.77,-35,-70,+319
159940,9.215,-3.194,2.368,-0.478149,0.156101,0.596506,99941.28,-31,-75,+327
159950,9.162,-3.120,2.593,-0.512736,0.161422,0.619919,99942.38,-33,-77,+324
159961,9.235,-3.105,2.572,-0.537213,0.139606,0.650781,99942.06,-33,-77,+324
159970,9.227,-3.039,2.504,-0.545195,0.122046,0.693882,99940.55,-30,-79,+318
159980,9.411,-2.561,2.427,-0.526571,0.106083,0.756139,99940.55,-26,-85,+326
159990,9.573,-2.194,2.548,-0.455800,0.074688,0.856708,99943.89,-28,-85,+322
160001,9.766,-2.246,2.761,-0.350975,0.038505,0.974304,99942.16,-28,-85,+322
160010,9.810,-2.673,2.832,-0.312663,0.008175,1.097754,99944.78,-24,-88,+316
160020,9.809,-2.663,2.966,-0.318516,-0.024284,1.211093,99940.69,-20,-91,+325
160030,9.943,-2.408,3.142,-0.308406,-0.087073,1.323900,99940.69,-20,-93,+320
160040,10.150,-2.380,3.212,-0.259452,-0.173275,1.446818,99941.96,-20,-93,+320
160051,10.650,-2.580,2.863,-0.231782,-0.241385,1.580377,99940.07,-17,-94,+314
160060,11.317,-2.644,2.186,-0.236571,-0.285550,1.712872,99940.02,-14,-98,+323
160070,12.225,-2.794,1.266,-0.237635,-0.327055,1.854946,99939.60,-14,-99,+318
160080,12.848,-2.941,0.592,-0.206773,-0.360045,2.012450,99939.60,-14,-99,+318
160091,13.217,-2.884,0.583,-0.159415,-0.402614,2.180597,99942.40,-9,-100,+313
160100,13.423,-2.970,1.309,-0.089709,-0.480302,2.348211,99941.66,-5,-104,+320
160110,13.304,-3.280,2.180,-0.049801,-0.560119,2.512633,99940.51,-6,-104,+315
160120,13.478,-3.807,2.915,-0.091837,-0.605880,2.655239,99940.98,-6,-104,+315
160131,14.176,-4.172,3.433,-0.242956,-0.621843,2.771771,99940.98,-1,-105,+310
160140,15.731,-3.931,3.792,-0.455268,-0.641532,2.868083,99941.41,+3,-110,+317
160150,17.841,-3.518,5.265,-0.579782,-0.716559,2.950560,99942.68,+4,-112,+308
160160,18.908,-3.130,6.590,-0.656938,-0.696871,3.038890,99941.90,+4,-112,+308
160171,20.325,-3.164,6.686,-0.993231,-0.547880,3.068156,99938.49,+11,-114,+302
160180,22.080,-2.465,5.898,-1.580148,-0.374944,3.050064,99938.49,+17,-121,+306
160190,21.704,-1.475,4.871,-2.262313,-0.227550,3.069752,99941.15,+21,-127,+294
160200,20.819,-0.390,3.713,-2.871046,-0.109954,3.049532,99939.10,+21,-127,+294
160210,19.835,0.442,2.673,-3.507450,-0.025348,2.927679,99942.04,+31,-137,+283
160221,17.661,0.383,1.934,-3.990605,-0.126449,2.786670,99938.59,+39,-152,+281
160230,14.539,-2.684,3.734,-3.935266,-0.661220,2.923954,99938.59,+43,-162,+262
160240,13.279,-2.146,7.413,-3.071652,-0.834155,3.041018,99941.73,+50,-162,+253
160250,14.473,0.158,6.476,-1.734460,-0.671862,2.937789,99940.21,+50,-167,+253
160261,13.206,-2.878,5.897,-0.854883,-0.629825,3.049000,99938.05,+58,-170,+256
160271,9.804,-7.301,5.825,-0.236571,-0.512229,3.087844,99938.59,+62,-164,+247
160280,7.220,-6.768,5.380,0.248181,-0.339293,2.622780,99938.59,+70,-157,+245
160290,5.966,-1.993,4.648,0.169429,-0.053018,1.704359,99940.23,+70,-157,+245
160296,6.470,2.998,2.463,-0.234975,0.147055,0.918965,99940.91,+75,-157,+250
160306,6.965,5.644,0.343,-0.740479,0.131624,0.255956,99940.91,+75,-157,+250
160316,5.619,4.030,1.550,-0.864993,0.274762,-0.027127,99940.08,+73,-153,+239
160325,5.290,3.216,2.104,-0.694718,0.385440,-0.264980,99938.23,+76,-152,+236
160335,4.545,3.602,1.661,-0.389819,0.421624,-0.868924,99938.23,+76,-153,+241
160346,3.887,3.202,2.049,-0.168461,0.617440,-1.302594,99939.62,+76,-153,+241
160356,3.599,2.339,1.708,-0.055122,0.715348,-1.628777,99938.96,+71,-149,+230
160365,3.787,1.320,0.887,0.192841,0.716945,-2.029988,99935.87,+72,-147,+230
160375,4.173,0.296,0.461,0.592456,0.735569,-2.457272,99935.87,+68,-147,+236
160386,4.609,-0.340,0.420,0.946309,0.789312,-2.866464,99935.87,+68,-147,+236
160396,4.999,-0.628,0.567,1.104878,0.870724,-3.243198,99940.55,+61,-139,+229
160405,5.092,-1.100,0.779,1.097428,0.973954,-3.545969,99938.14,+58,-135,+231
160415,4.906,-1.319,1.115,1.173520,1.077715,-3.792867,99935.20,+54,-133,+238
160425,5.113,-1.101,1.683,1.285263,1.202761,-4.069564,99934.25,+54,-133,+238
160436,5.897,-1.216,1.987,1.347520,1.299073,-4.360628,99934.25,+43,-125,+231
160446,6.896,-1.503,1.929,1.400198,1.381550,-4.658078,99936.89,+40,-122,+235
160455,7.867,-1.748,1.759,1.397538,1.468816,-4.932646,99935.34,+34,-118,+241
160465,8.643,-2.165,1.509,1.400731,1.555550,-5.138573,99937.25,+24,-118,+236
160476,9.423,-2.607,1.341,1.414565,1.629513,-5.313637,99937.25,+24,-108,+236
160486,10.380,-3.045,1.290,1.416162,1.695495,-5.474334,99937.55,+21,-103,+239
160495,11.523,-3.315,1.576,1.373593,1.740192,-5.606829,99937.55,+14,-96,+246
160505,12.658,-3.862,1.852,1.254933,1.763072,-5.747838,99935.50,+7,-85,+238
160516,13.541,-4.462,1.912,1.075611,1.788614,-5.927691,99936.97,+7,-85,+238
160526,14.613,-4.971,1.987,0.900547,1.868962,-6.093710,99936.44,+6,-79,+242
160531,15.712,-5.466,2.272,0.795190,1.972192,-6.186829,99936.44,+6,-79,+242
160540,16.678,-6.355,2.461,0.744107,2.045091,-6.240572,99935.99,+3,-72,+248
160550,17.540,-7.733,2.341,0.751025,2.066907,-6.240572,99940.76,+0,-62,+241
160561,18.475,-9.255,1.878,0.769648,2.031788,-6.152242,99936.88,+1,-60,+244
160571,19.699,-11.212,1.514,0.668548,1.966338,-5.972921,99939.02,+1,-60,+244
160580,20.232,-12.974,1.706,0.487098,1.898228,-5.728150,99939.02,+1,-53,+249
160590,19.091,-14.402,0.342,0.239135,1.751366,-5.422719,99938.81,+1,-45,+241
160601,17.019,-16.252,1.197,-0.119507,1.609825,-4.895931,99940.17,+5,-47,+244
160611,15.738,-16.907,1.427,-0.059379,1.491164,-4.314335,99941.17,+5,-47,+244
160620,13.752,-18.906,1.168,0.149741,1.329403,-3.643345,99938.70,+5,-45,+247
160630,10.869,-21.201,-0.394,0.462089,1.129862,-2.827620,99938.70,+6,-40,+239
160641,9.092,-22.435,-1.591,0.612676,0.913825,-1.937933,99942.52,+10,-43,+243
160651,8.230,-20.633,-2.610,0.298199,0.754192,-0.854557,99942.88,+10,-43,+243
160660,9.051,-17.802,-2.296,-0.031177,0.557312,0.336304,99942.25,+14,-41,+245
160670,10.249,-15.287,-2.447,-0.039691,0.150248,1.356359,99943.88,+14,-41,+238
160680,10.564,-15.041,-1.731,0.150273,-0.282357,2.198689,99943.88,+20,-47,+242
160691,11.549,-13.333,-1.480,0.675465,-0.525532,2.736651,99942.36,+20,-47,+242
160701,14.088,-8.026,-1.580,0.486034,-0.829898,3.109660,99942.98,+22,-44,+245
160710,21.161,18.142,5.231,1.616767,-1.016137,3.084119,99940.25,+21,-42,+239
160720,28.535,41.483,0.306,2.176547,-0.909183,1.086047,99943.41,+23,-39,+245
160731,16.487,1.556,-5.776,0.452511,-1.423733,2.043313,99943.41,+21,-39,+247
160741,11.426,-23.871,4.197,3.153500,-1.430650,4.024357,99940.65,+21,-38,+247
160750,9.651,-16.397,2.516,5.700709,-1.362540,4.240394,99943.01,+21,-23,+242
160760,10.716,-10.101,-0.594,3.011427,-0.608541,3.170321,99939.91,+26,-15,+250
160771,8.948,-7.534,1.036,1.234712,-0.004064,3.019734,99940.38,+27,-13,+250
160781,6.451,-5.325,4.569,1.009098,-0.061532,2.859569,99940.38,+27,-13,+250
160791,6.270,-6.560,4.038,0.729208,-0.066321,2.387588,99941.45,+27,-11,+245
160800,9.962,-6.008,2.459,0.235942,0.013496,2.230615,99939.31,+32,-13,+250
160811,11.529,-6.667,2.261,-0.460057,-0.032266,2.063000,99939.67,+33,-14,+250
160821,10.422,-6.313,2.090,-0.880956,-0.115807,1.879955,99942.30,+33,-14,+250
160831,9.073,-4.290,2.625,-1.161910,-0.116871,1.732028,99942.30,+32,-19,+243
160840,8.311,-3.102,3.687,-1.473194,-0.013642,1.595276,99942.04,+36,-25,+247
160850,8.366,-3.092,2.370,-1.770644,-0.027477,1.464377,99940.48,+36,-29,+246
160861,8.863,-2.444,1.799,-1.380607,0.001257,1.346781,99943.77,+36,-29,+246
160871,9.853,-0.764,2.171,-0.688332,-0.032266,1.244084,99939.16,+36,-34,+239
160880,10.008,-1.636,2.676,-0.102479,-0.131238,1.210561,99939.16,+42,-36,+245
160890,9.555,-4.090,2.280,0.116750,-0.200945,1.169056,99942.61,+38,-34,+245
160901,9.180,-5.004,1.985,-0.035966,-0.139752,1.035497,99939.89,+38,-34,+245
160911,9.043,-5.028,2.645,-0.484002,-0.033330,0.869478,99941.94,+40,-35,+239
160921,8.911,-4.282,3.255,-0.900644,0.023606,0.693882,99940.36,+43,-40,+244
160930,9.122,-2.774,3.475,-1.164571,0.060853,0.572029,99940.36,+41,-42,+242
160941,9.554,-1.729,3.077,-1.212460,0.074688,0.542763,99941.91,+41,-42,+242
160951,9.755,-1.426,2.650,-0.949066,0.056597,0.572561,99939.60,+42,-47,+235
160961,9.591,-1.763,2.437,-0.580314,0.028395,0.622580,99941.18,+45,-50,+242
160970,9.240,-2.818,2.302,-0.395672,0.013496,0.648653,99942.80,+43,-50,+239
160980,9.112,-3.548,2.472,-0.403121,0.025202,0.627369,99942.80,+43,-50,+239
160991,9.129,-3.298,2.624,-0.503690,0.048615,0.595974,99944.52,+45,-52,+233
161001,9.118,-2.977,2.828,-0.571800,0.057129,0.574690,99943.83,+49,-55,+240
161010,9.030,-3.066,2.881,-0.585103,0.054468,0.557662,99940.48,+47,-56,+236
161020,9.123,-3.231,2.727,-0.630332,0.056597,0.543295,99940.48,+47,-56,+236
161031,9.294,-3.197,2.692,-0.697378,0.065642,0.534781,99940.48,+48,-58,+231
161041,9.460,-2.826,2.710,-0.716002,0.069367,0.551277,99942.52,+52,-61,+237
161051,9.494,-2.685,2.566,-0.694718,0.061386,0.593313,99941.98,+49,-61,+234
161060,9.354,-2.838,2.347,-0.632461,0.048615,0.642268,99939.42,+49,-61,+234
161071,9.191,-3.009,2.242,-0.571268,0.039569,0.689093,99941.98,+50,-64,+229
161081,9.116,-3.184,2.272,-0.536681,0.032119,0.728469,99941.98,+56,-67,+235
161091,9.099,-3.133,2.344,-0.520186,0.028395,0.761992,99942.49,+54,-67,+231
161100,9.044,-3.045,2.405,-0.529231,0.026266,0.796047,99941.12,+54,-67,+231
161111,9.067,-3.026,2.685,-0.555837,0.023606,0.845533,99941.23,+55,-69,+227
161121,9.353,-2.702,2.702,-0.551048,0.007110,0.910451,99940.70,+60,-73,+233
161131,9.615,-2.419,2.990,-0.486131,-0.033862,0.999845,99940.70,+58,-72,+228
161141,9.988,-2.523,3.433,-0.347250,-0.111550,1.099882,99938.80,+58,-72,+228
161150,9.730,-2.883,3.372,-0.273819,-0.159440,1.218010,99942.30,+60,-74,+224
161161,9.931,-3.038,2.902,-0.259984,-0.202541,1.315386,99942.36,+64,-75,+231
161171,10.278,-2.795,2.485,-0.263177,-0.280229,1.408506,99938.53,+61,-75,+227
161180,10.467,-2.533,2.445,-0.237103,-0.363238,1.521313,99938.53,+61,-75,+227
161190,11.176,-2.325,2.356,-0.174846,-0.439330,1.661790,99941.06,+65,-76,+224
161201,12.000,-2.541,2.032,-0.070021,-0.518614,1.809184,99942.73,+69,-77,+231
161211,12.551,-3.030,1.700,0.022034,-0.592577,1.964028,99940.22,+67,-75,+226
161221,13.191,-3.146,1.670,0.035337,-0.661220,2.109826,99942.47,+71,-76,+223
161230,13.570,-3.118,2.024,0.040658,-0.738375,2.279037,99942.47,+71,-76,+223
161241,13.737,-3.115,2.588,0.022566,-0.810742,2.454101,99940.34,+74,-76,+231
161251,13.804,-3.373,3.060,-0.052993,-0.849586,2.607349,99942.22,+73,-75,+225
161261,14.097,-3.687,3.262,-0.221672,-0.869807,2.738780,99942.22,+77,-75,+223
161270,15.051,-3.379,3.347,-0.431323,-0.895880,2.844138,99938.23,+77,-75,+223
161281,17.006,-3.315,3.634,-0.656938,-0.988467,2.919697,99938.23,+81,-77,+228
161291,19.987,-3.126,5.317,-0.821360,-1.122027,2.972908,99941.00,+79,-79,+222
161301,22.120,-2.294,6.065,-1.166699,-1.043806,3.027715,99939.13,+85,-81,+219
161311,23.658,-1.130,5.800,-1.848332,-0.860229,3.016541,99937.59,+85,-81,+219
161320,24.089,1.130,5.042,-2.552845,-0.668137,3.067092,99938.48,+90,-89,+222
161331,22.060,3.860,4.634,-2.917872,-0.553733,3.190541,99938.48,+91,-96,+210
161341,19.259,5.337,4.150,-2.979065,-0.550541,3.158614,99943.03,+99,-102,+206
161351,15.972,2.901,3.520,-2.774202,-0.649513,3.117110,99941.16,+99,-102,+206
161360,13.878,-2.247,3.892,-2.113322,-0.924082,3.237367,99939.06,+105,-110,+207
161371,14.334,-5.311,3.918,-1.161378,-1.116706,3.215550,99935.33,+106,-112,+199
161381,14.395,-7.606,4.787,-0.990039,-1.230577,3.175110,99935.33,+113,-112,+198
161391,13.267,-8.491,4.905,-0.961837,-1.094889,3.147440,99940.23,+113,-112,+198
161400,11.442,-8.029,7.108,-0.377580,-0.927274,2.940982,99941.70,+118,-114,+204
161411,8.262,-4.831,7.407,0.167832,-0.731990,2.331716,99938.81,+117,-112,+198
161421,5.073,-0.773,6.897,0.324273,-0.415385,1.610707,99939.70,+123,-110,+200
161431,4.862,3.059,4.457,0.202952,-0.093458,0.921093,99939.70,+123,-110,+200
161441,5.559,2.474,2.293,-0.135470,-0.096651,0.411864,99945.65,+125,-110,+206
161451,3.963,-0.141,3.629,-0.094498,0.009771,0.205405,99940.35,+120,-112,+199
161461,3.737,0.492,3.330,-0.053525,0.267844,-0.201126,99938.77,+125,-112,+201
161471,3.556,3.457,2.007,-0.241892,0.232725,-0.998227,99938.88,+125,-112,+201
161481,3.100,4.063,2.089,-0.370131,0.389165,-1.602171,99938.88,+122,-116,+205
161490,3.003,2.613,2.036,-0.403121,0.468982,-1.925694,99936.80,+115,-120,+198
161501,2.683,0.408,1.578,-0.189745,0.483349,-2.261988,99939.21,+115,-121,+200
161511,2.655,-0.900,1.338,0.178474,0.542413,-2.670648,99935.85,+115,-121,+200
161521,3.097,-0.943,1.264,0.447722,0.613715,-3.135712,99934.02,+110,-126,+205
161530,3.916,-0.437,1.050,0.523814,0.685018,-3.565124,99934.02,+100,-129,+200
161541,4.673,0.016,0.942,0.525410,0.752064,-3.898757,99938.75,+98,-131,+205
161551,5.035,-0.104,0.908,0.641410,0.799954,-4.163748,99936.77,+98,-131,+205
161561,5.364,-0.395,1.094,0.951098,0.854761,-4.419693,99934.81,+89,-135,+211
161571,5.942,-0.733,1.738,1.252804,0.931385,-4.674573,99932.25,+75,-135,+208
161581,6.519,-1.274,2.125,1.412969,0.980339,-4.931050,99932.25,+71,-137,+215
161592,7.307,-1.810,2.307,1.583776,1.038871,-5.170854,99935.75,+71,-137,+215
161601,8.077,-2.124,2.643,1.789703,1.102192,-5.343967,99934.97,+59,-137,+225
161611,9.109,-2.423,2.930,2.063207,1.159660,-5.514774,99935.48,+43,-133,+225
161620,10.325,-2.813,2.994,2.335115,1.203825,-5.678132,99931.45,+38,-129,+236
161631,11.579,-3.228,2.900,2.489959,1.271403,-5.815948,99931.45,+38,-129,+236
161641,13.025,-4.269,2.913,2.480913,1.341109,-5.919710,99936.27,+24,-122,+248
161651,14.685,-5.604,2.840,2.344693,1.368779,-6.055398,99934.48,+10,-113,+250
161660,16.173,-6.974,3.013,2.016914,1.397513,-6.208113,99934.48,+6,-103,+261
161671,16.908,-8.310,3.288,1.583244,1.417733,-6.319324,99933.91,+6,-103,+261
161681,17.363,-9.297,3.299,1.149043,1.406027,-6.348590,99933.91,-5,-92,+273
161691,18.223,-10.612,3.058,0.813281,1.398045,-6.251746,99938.45,-17,-81,+273
161701,18.995,-12.487,2.721,0.579153,1.391128,-6.018150,99936.40,-18,-75,+280
161711,18.642,-14.054,2.135,0.366309,1.384742,-5.690371,99939.23,-21,-64,+291
161721,18.001,-15.601,2.254,0.269997,1.385807,-5.264683,99937.29,-21,-64,+291
161731,17.049,-16.874,2.744,0.381208,1.375165,-4.768756,99937.29,-24,-52,+289
161741,15.361,-17.437,2.259,0.539777,1.343238,-4.222280,99942.34,-19,-48,+295
161751,13.698,-19.793,1.338,0.713245,1.196376,-3.606629,99938.67,-17,-37,+304
161761,11.401,-22.878,0.124,0.838823,1.010669,-2.965437,99942.81,-17,-37,+304
161771,9.216,-23.313,-0.145,0.480181,0.919146,-2.244428,99942.86,-15,-27,+300
161781,7.996,-21.588,0.234,-0.178571,0.813789,-1.222777,99942.86,-7,-29,+304
161792,8.482,-19.582,0.725,-0.749525,0.630743,-0.049475,99942.74,-3,-30,+309
161801,9.384,-18.089,1.228,-0.984717,0.410450,1.004634,99942.68,-3,-30,+309
161811,9.659,-16.920,2.340,-0.946406,0.167275,1.844303,99941.27,+0,-31,+303
161821,11.766,-12.581,1.356,-0.601066,-0.002468,2.452505,99938.49,+9,-40,+306
161830,14.348,-8.937,-2.713,-0.902240,-0.372284,2.937257,99938.49,+12,-43,+308
161841,23.146,14.370,-2.863,-0.018406,-0.999109,3.176706,99942.63,+12,-43,+308
161851,32.277,46.750,-4.720,1.170327,-1.112449,1.330285,99942.37,+10,-36,+303
161861,17.791,12.433,-4.395,1.336345,-1.667439,1.871973,99940.01,+11,-36,+307
161871,8.706,-17.596,4.307,4.434820,-1.442357,3.422541,99940.90,+8,-14,+313
161881,6.574,-16.059,3.823,6.946378,-1.382760,4.216449,99940.90,+8,-14,+313
161891,8.515,-13.621,-0.470,5.164343,-0.744761,3.469899,99942.87,+7,+14,+309
161901,8.635,-11.638,1.663,2.369703,0.060853,2.778156,99942.34,+14,+23,+314
161911,7.767,-6.444,6.377,1.467776,0.047019,2.676523,99940.40,+13,+29,+317
161922,9.018,-5.517,6.112,1.101153,-0.150926,2.269991,99939.26,+13,+29,+317
161931,11.868,-4.847,2.298,0.317887,-0.306302,2.141221,99939.26,+12,+33,+310
161941,11.871,-6.272,1.209,-0.904369,-0.532449,2.042248,99940.84,+16,+28,+313
161951,10.117,-6.146,2.266,-1.664754,-0.692082,1.983716,99941.33,+10,+21,+316
161961,8.459,-4.013,0.974,-2.070221,-0.464339,1.841111,99939.59,+10,+21,+316
161971,8.552,-2.780,0.809,-2.331487,-0.207862,1.686267,99940.91,+8,+11,+309
161981,8.511,-2.049,0.655,-1.743506,-0.168486,1.550047,99940.91,+13,+0,+312
161991,9.324,-0.214,1.421,-0.611709,-0.178064,1.423405,99943.11,+10,-1,+313
162001,10.308,1.107,2.399,0.531263,-0.227018,1.425001,99943.06,+10,-1,+313
162011,9.652,-1.092,2.593,1.283666,-0.311091,1.487790,99939.08,+10,+1,+309
162021,9.004,-4.599,2.325,1.459795,-0.325458,1.465441,99939.70,+14,+5,+313
162031,9.015,-6.770,2.423,0.897887,-0.244045,1.304744,99939.70,+10,+11,+314
162041,8.745,-6.153,3.068,-0.024259,-0.134431,1.031240,99943.06,+10,+11,+314
162051,8.690,-4.084,2.823,-0.795819,-0.064725,0.797112,99943.17,+10,+9,+307
162062,9.405,-2.280,1.714,-1.003696,-0.044504,0.658231,99941.66,+15,+3,+313
162071,10.042,-1.124,1.106,-0.753782,-0.046101,0.651846,99941.23,+11,+1,+314
162081,10.064,-0.729,0.888,-0.246681,-0.065257,0.707717,99941.23,+11,+1,+314
162092,9.603,-1.808,1.120,0.267869,-0.102504,0.756671,99942.14,+11,+1,+307
162101,9.123,-3.536,1.713,0.476988,-0.112614,0.760396,99943.98,+16,+0,+313
162111,8.861,-4.673,2.267,0.267337,-0.074302,0.703460,99939.89,+11,+2,+313
162121,8.821,-4.345,2.609,-0.128021,-0.005128,0.610341,99939.11,+11,+2,+313
162131,9.098,-3.126,2.615,-0.409507,0.034780,0.541699,99939.11,+12,+1,+308
162141,9.377,-2.499,2.254,-0.461121,0.043826,0.522543,99941.76,+17,-1,+313
162151,9.477,-2.593,1.928,-0.393011,0.042762,0.531589,99940.18,+13,-2,+313
162161,9.522,-2.626,1.686,-0.328094,0.047551,0.549148,99940.24,+14,-3,+307
162171,9.669,-2.741,1.788,-0.325433,0.058725,0.567772,99940.87,+14,-3,+307
162181,9.489,-2.812,2.011,-0.361617,0.081074,0.603424,99940.87,+19,-5,+313
162191,9.310,-2.730,2.105,-0.415892,0.108211,0.643864,99943.31,+15,-7,+312
162201,9.285,-2.515,2.182,-0.468039,0.126303,0.692818,99939.59,+17,-9,+307
162211,9.280,-2.413,2.347,-0.504754,0.131624,0.765717,99940.75,+17,-9,+307
162222,9.352,-2.236,2.599,-0.540406,0.117257,0.840744,99938.86,+22,-13,+313
162231,9.543,-2.073,2.680,-0.547855,0.100230,0.921093,99938.86,+19,-14,+312
162241,9.723,-1.796,2.712,-0.472828,0.073624,1.016341,99940.41,+21,-17,+305
162251,9.826,-2.296,2.814,-0.409507,0.041165,1.111588,99941.14,+21,-17,+305
162262,9.998,-2.566,2.808,-0.388755,0.014560,1.199919,99940.88,+27,-19,+312
162271,10.088,-2.699,2.674,-0.398865,-0.006192,1.282928,99937.42,+23,-21,+310
162281,9.914,-2.884,2.392,-0.377048,-0.029073,1.370194,99937.42,+27,-21,+304
162291,9.745,-2.572,2.200,-0.341929,-0.066853,1.479808,99940.61,+27,-21,+304
162296,9.777,-2.246,2.020,-0.291378,-0.105165,1.576652,99941.45,+31,-24,+310
162307,10.133,-2.487,2.005,-0.232314,-0.161568,1.682010,99941.45,+31,-24,+310
162317,10.820,-2.726,1.909,-0.125892,-0.256816,1.812909,99937.94,+26,-25,+309
162326,11.818,-3.062,2.000,-0.031177,-0.338761,1.941680,99939.88,+30,-24,+304
162336,12.690,-3.625,1.883,-0.004571,-0.404743,2.069386,99939.88,+34,-26,+310
162347,12.798,-3.922,1.722,-0.056718,-0.411128,2.198156,99940.09,+34,-26,+310
162357,13.013,-4.002,1.332,-0.151434,-0.412724,2.327459,99938.31,+29,-26,+308
162366,13.363,-4.033,1.282,-0.263177,-0.413256,2.463147,99939.78,+33,-26,+303
162376,13.796,-3.626,2.096,-0.366406,-0.455293,2.587661,99939.78,+37,-30,+309
162386,14.488,-2.944,2.806,-0.416956,-0.524999,2.726541,99939.78,+37,-30,+309
162397,16.169,-3.108,3.270,-0.430259,-0.576082,2.886174,99942.12,+33,-33,+306
162406,18.530,-3.042,4.968,-0.463782,-0.628761,3.025587,99938.62,+36,-32,+301
162416,19.766,-2.612,6.466,-0.609580,-0.568632,3.168192,99939.51,+40,-38,+307
162426,21.695,-1.621,7.117,-0.973011,-0.378137,3.276211,99937.15,+38,-44,+300
162437,23.542,0.076,6.926,-1.546625,-0.213715,3.368266,99937.15,+38,-44,+300
162447,23.196,0.121,6.212,-2.121836,-0.049825,3.511935,99939.00,+45,-50,+295
162456,22.556,0.055,4.822,-2.657670,0.107147,3.630596,99938.47,+54,-63,+297
162466,20.767,0.811,2.795,-3.231285,0.226340,3.572064,99936.61,+57,-77,+286
162477,17.268,-1.275,1.743,-3.704862,0.048083,3.321972,99936.61,+57,-77,+286
162487,12.292,-5.485,4.826,-3.849596,-0.264798,3.100082,99941.07,+65,-90,+278
162496,11.637,-4.743,6.197,-3.298863,-0.140816,2.933532,99941.07,+73,-104,+276
162506,12.753,-4.275,5.984,-2.408643,-0.121660,2.927679,99938.55,+75,-112,+265
162516,12.373,-5.106,4.229,-1.623781,-0.169550,2.867018,99937.93,+75,-112,+265
162527,11.130,-4.845,3.615,-1.064002,-0.108890,2.608413,99939.91,+85,-112,+259
162532,9.544,-3.689,2.846,-0.880956,-0.059403,2.303514,99939.91,+85,-112,+259
162541,7.630,-1.584,2.839,-0.918204,0.065642,1.866120,99938.60,+93,-117,+261
162551,6.025,2.028,1.789,-0.938424,0.231129,1.172249,99939.24,+95,-120,+251
162562,5.316,1.999,0.780,-0.832534,0.256138,0.603424,99939.80,+101,-118,+247
162572,4.621,1.502,2.147,-0.449947,0.384908,0.257552,99938.09,+101,-118,+247
162581,4.123,2.303,2.456,0.063539,0.493991,-0.225603,99938.09,+106,-123,+250
162591,3.312,3.381,1.779,0.605227,0.534963,-0.801346,99939.76,+104,-123,+242
162601,2.853,3.255,1.396,0.915447,0.702578,-1.222777,99939.24,+108,-120,+242
162612,2.784,1.890,1.235,1.101153,0.815917,-1.505859,99937.93,+111,-120,+242
162621,2.800,0.086,0.916,1.327832,0.859018,-1.813419,99937.55,+111,-121,+247
162631,3.043,-1.349,0.668,1.478419,0.911697,-2.196006,99937.55,+107,-120,+242
162641,3.271,-1.932,0.555,1.433721,0.994174,-2.646703,99936.16,+109,-118,+243
162652,3.538,-1.435,0.416,1.270364,1.075587,-3.109106,99936.42,+108,-121,+248
162661,4.011,-0.706,0.364,1.071355,1.168706,-3.518299,99935.53,+108,-121,+248
162671,4.634,-0.337,0.288,0.907465,1.260761,-3.862574,99931.02,+99,-125,+244
162681,5.207,-0.577,0.145,0.778162,1.338981,-4.154702,99931.02,+96,-127,+246
162692,5.818,-1.119,0.105,0.705795,1.411880,-4.400004,99934.93,+90,-134,+250
162702,6.562,-1.463,0.025,0.644071,1.479458,-4.658078,99934.77,+90,-134,+250
162711,7.367,-1.429,-0.132,0.528603,1.541183,-4.930518,99935.30,+75,-137,+247
162721,8.189,-1.384,-0.131,0.445594,1.605036,-5.149747,99931.59,+68,-138,+250
162732,9.001,-1.597,-0.000,0.423777,1.661440,-5.330664,99931.59,+57,-142,+255
162742,9.939,-2.012,0.163,0.490291,1.684852,-5.519563,99938.10,+57,-142,+255
162751,10.893,-2.187,0.347,0.617997,1.707733,-5.727086,99934.01,+40,-137,+253
162761,11.933,-2.115,0.713,0.761667,1.706669,-5.915985,99934.65,+29,-133,+258
162767,12.733,-2.035,0.831,0.872878,1.700816,-6.031453,99933.43,+29,-133,+258
162777,13.664,-2.113,0.925,0.957483,1.673146,-6.137875,99933.43,+16,-127,+266
162786,15.093,-2.596,0.876,1.096896,1.633238,-6.254407,99933.43,+1,-114,+266
162797,17.117,-3.556,0.857,1.270364,1.602375,-6.316664,99937.06,+1,-114,+266
162806,18.836,-5.267,0.883,1.425208,1.523091,-6.315599,99934.81,-7,-98,+273
162817,19.954,-7.174,0.967,1.530565,1.415605,-6.287930,99932.39,-14,-82,+279
162827,21.224,-8.945,1.429,1.569942,1.300669,-6.201728,99932.39,-22,-60,+278
162837,22.337,-10.964,1.988,1.571006,1.178284,-6.009104,99938.70,-20,-60,+282
162846,22.012,-13.338,2.574,1.536951,1.075055,-5.719636,99938.70,-20,-41,+282
162856,20.224,-15.759,3.226,1.453942,1.032486,-5.306187,99938.13,-16,-24,+284
162867,17.734,-18.841,2.990,1.272492,1.038871,-4.774610,99937.97,-12,-7,+279
162877,14.397,-24.551,2.344,0.967593,0.999495,-4.187693,99939.22,-4,-167,+281
162886,8.813,-26.592,0.700,0.383337,1.036211,-3.525748,99939.22,-4,+1,+281
162896,6.270,-26.523,0.620,-0.390883,1.122944,-2.492391,99938.61,+3,+3,+279
162907,6.785,-22.332,-0.358,-1.071451,0.961715,-1.126465,99938.81,+8,+2,+275
162917,8.876,-16.427,-1.109,-1.349745,0.641917,0.326726,99941.13,+17,-2,+276
162927,10.537,-13.890,-1.305,-0.921929,0.192817,1.469698,99937.64,+17,-2,+276
162936,11.347,-13.169,0.070,-0.180167,-0.211587,2.307771,99938.27,+21,-6,+275
162947,12.082,-10.916,-2.111,0.487630,-0.470724,2.731863,99941.00,+21,-1,+271
162957,14.050,-6.822,-1.458,0.135374,-0.802229,3.174046,99940.47,+26,-2,+275
162966,24.173,24.135,0.680,1.763629,-1.098082,2.765918,99940.47,+26,-2,+275
162976,28.702,33.921,-1.375,1.528437,-0.834687,0.988139,99939.16,+25,+4,+275
162987,15.181,-7.588,-4.838,0.451447,-1.155550,2.375349,99939.16,+22,+6,+270
162997,11.080,-22.502,4.282,3.150840,-1.072008,3.928577,99943.70,+26,+18,+273
163007,8.939,-13.502,1.430,4.384270,-1.017733,3.814706,99941.03,+26,+18,+273
163016,10.840,-8.872,-0.095,1.721593,-0.333972,2.797312,99939.25,+26,+27,+273
163026,9.708,-5.520,3.366,0.575960,0.078413,2.812743,99941.83,+25,+29,+268
163037,7.071,-2.110,7.358,0.762731,-0.090798,2.660028,99941.83,+29,+32,+271
163047,6.247,-2.071,6.161,0.878731,-0.155183,2.307239,99939.68,+29,+32,+271
163057,7.782,-3.045,3.968,0.710584,-0.247770,2.227422,99939.46,+31,+34,+272
163066,9.093,-6.170,2.461,0.238071,-0.369623,2.086946,99939.15,+28,+34,+267
163077,10.783,-7.561,0.937,-0.244021,-0.383990,1.949661,99939.15,+30,+33,+269
163087,11.812,-6.225,0.380,-0.846369,-0.296724,1.809716,99939.15,+30,+33,+269
163096,9.944,-4.185,1.102,-1.423708,-0.134963,1.613368,99942.20,+30,+27,+269
163106,8.231,-3.132,0.680,-1.536515,-0.066321,1.442029,99942.84,+28,+22,+265
163117,8.575,-1.928,0.693,-1.065066,-0.068449,1.330818,99939.95,+31,+19,+269
163127,9.774,0.005,1.398,-0.364277,-0.072706,1.294102,99940.79,+31,+19,+269
163136,10.261,-0.888,2.724,0.164640,-0.116871,1.338267,99940.79,+31,+17,+268
163147,9.725,-3.233,2.801,0.413135,-0.205201,1.330818,99941.58,+29,+19,+265
163156,8.936,-4.418,2.670,0.285961,-0.173275,1.212689,99938.17,+32,+21,+269
163167,8.874,-5.216,3.103,-0.195599,-0.118468,1.032836,99939.55,+32,+21,+269
163177,9.001,-4.666,3.631,-0.678222,-0.177532,0.805093,99939.55,+32,+17,+267
163187,9.100,-3.313,3.100,-0.924057,-0.199880,0.631093,99942.24,+29,+14,+265
163196,9.616,-1.926,2.678,-0.978332,-0.215844,0.574690,99942.24,+32,+11,+267
163207,9.613,-1.599,2.126,-0.740479,-0.269055,0.553937,99939.57,+32,+11,+267
163217,9.525,-1.281,1.448,-0.386094,-0.274376,0.582671,99940.93,+31,+7,+266
163226,9.441,-1.889,1.615,-0.103012,-0.247238,0.650249,99940.51,+28,+7,+263
163236,9.326,-2.978,2.096,0.001282,-0.212119,0.669937,99940.51,+30,+7,+268
163247,9.180,-3.784,2.421,-0.143984,-0.153055,0.640139,99942.86,+30,+7,+268
163257,9.183,-3.655,2.624,-0.384498,-0.089202,0.581607,99938.31,+29,+5,+266
163267,9.156,-3.056,2.633,-0.529764,-0.045036,0.539570,99940.30,+28,+3,+263
163276,9.171,-2.777,2.437,-0.534553,-0.029605,0.519350,99940.09,+31,+2,+267
163287,9.200,-2.875,2.127,-0.477617,-0.025880,0.515625,99941.70,+31,+2,+267
163297,9.204,-3.076,1.908,-0.446222,-0.010449,0.519882,99939.70,+31,+0,+265
163307,9.358,-3.252,1.841,-0.502626,0.023606,0.528396,99939.65,+29,+0,+262
163316,9.628,-3.161,1.986,-0.595213,0.058193,0.534249,99939.65,+32,-3,+266
163326,9.705,-2.886,2.301,-0.631929,0.062982,0.549148,99938.13,+32,-3,+266
163337,9.586,-2.622,2.585,-0.595213,0.033716,0.576286,99938.13,+33,-7,+263
163347,9.238,-2.503,2.564,-0.506351,-0.007257,0.620983,99944.41,+31,-7,+261
163357,8.952,-2.335,2.326,-0.438595,-0.054437,0.699026,99939.53,+35,-9,+265
163366,9.028,-2.183,2.159,-0.404186,-0.067385,0.784341,99939.53,+33,-11,+262
163377,9.221,-2.143,1.809,-0.362681,-0.079624,0.884377,99937.75,+33,-11,+262
163387,9.299,-2.053,1.867,-0.280736,-0.100908,0.986010,99937.75,+33,-11,+260
163397,9.316,-1.837,2.441,-0.158883,-0.130174,1.100946,99939.63,+37,-12,+264
163406,9.492,-2.277,2.752,-0.048736,-0.168486,1.222799,99937.52,+36,-14,+261
163417,9.614,-2.723,2.562,0.008731,-0.189238,1.333478,99937.44,+36,-14,+261
163427,9.756,-2.915,2.231,-0.020535,-0.208394,1.436707,99937.44,+35,-13,+260
163437,10.100,-2.661,2.265,-0.081195,-0.237660,1.545790,99937.44,+39,-13,+263
163446,10.653,-1.774,2.613,-0.074278,-0.319073,1.679350,99940.82,+38,-15,+260
163457,11.084,-1.943,2.597,0.037998,-0.405807,1.865588,99937.73,+38,-15,+260
163467,11.348,-2.932,2.072,0.138034,-0.469660,2.039588,99939.46,+38,-14,+259
163477,12.235,-3.524,1.493,0.138566,-0.515422,2.169955,99937.26,+42,-12,+263
163486,13.000,-3.912,1.150,0.115686,-0.554798,2.283826,99937.26,+41,-13,+258
163496,13.231,-3.956,1.483,0.105575,-0.581403,2.412597,99939.95,+41,-13,+258
163507,13.581,-4.037,2.017,0.066731,-0.609073,2.550945,99941.05,+40,-13,+258
163517,13.982,-4.463,2.558,-0.037030,-0.624504,2.679183,99938.22,+44,-13,+260
163527,14.697,-4.520,3.231,-0.234443,-0.636210,2.786670,99938.22,+45,-16,+257
163537,16.015,-3.948,3.783,-0.430259,-0.666541,2.868083,99939.28,+45,-16,+257
163547,18.201,-3.628,5.114,-0.541470,-0.733054,2.965459,99939.02,+45,-17,+255
163557,19.704,-3.432,6.342,-0.652681,-0.713898,3.058578,99939.02,+49,-18,+257
163567,21.554,-2.747,6.851,-1.031011,-0.547880,3.104339,99935.19,+50,-24,+252
163576,23.668,0.163,7.264,-1.563121,-0.397825,3.140523,99937.91,+50,-24,+252
163587,23.238,2.270,7.428,-1.992533,-0.275972,3.262376,99937.91,+54,-29,+249
163597,22.281,0.407,5.868,-2.345854,-0.139220,3.483734,99937.64,+62,-34,+248
163607,21.505,-0.592,3.015,-2.839120,-0.009385,3.565678,99938.84,+68,-46,+240
163617,18.906,-2.974,0.908,-3.576624,-0.057807,3.419348,99937.06,+68,-46,+240
163627,14.314,-6.929,3.152,-4.205046,-0.453165,3.288449,99935.97,+74,-56,+234
163637,12.057,-3.753,7.477,-3.962936,-0.573954,3.158082,99941.09,+82,-67,+230
163647,13.252,0.310,7.600,-2.673634,-0.326522,2.906394,99938.89,+89,-75,+221
163657,12.674,-1.343,5.630,-1.517359,-0.288211,2.917569,99940.16,+89,-75,+221
163666,10.209,-4.509,4.880,-0.936828,-0.256816,2.880321,99940.16,+95,-76,+219
163677,8.229,-4.679,4.405,-0.482938,-0.166890,2.514230,99937.06,+104,-76,+220
163687,6.809,-0.172,3.485,-0.428663,-0.030137,1.715533,99937.06,+109,-78,+213
163697,6.670,3.399,0.409,-0.658534,-0.018963,0.763056,99938.84,+109,-78,+213
163706,5.460,2.168,1.412,-0.567011,0.108743,0.338965,99937.88,+112,-81,+211
163717,5.004,2.194,3.016,-0.170057,0.264119,-0.020741,99937.57,+117,-81,+212
163727,3.781,2.971,2.423,0.448786,0.220486,-0.673108,99935.27,+118,-83,+207
163737,2.593,3.406,2.110,0.783483,0.393954,-1.228630,99935.27,+118,-83,+207
163747,2.163,2.682,1.720,0.807428,0.542413,-1.546300,99938.52,+119,-83,+208
163757,2.200,1.007,1.050,0.910125,0.555183,-1.817676,99936.40,+121,-83,+209
163767,2.434,-0.961,0.747,1.118180,0.558908,-2.150777,99935.65,+120,-86,+207
163777,3.119,-1.908,0.777,1.340070,0.606266,-2.589235,99935.65,+120,-86,+207
163787,3.579,-1.426,0.731,1.413501,0.686082,-3.078776,99935.65,+118,-87,+210
163796,3.718,-0.387,0.694,1.333685,0.788779,-3.505528,99935.96,+117,-89,+211
163807,3.923,0.011,0.985,1.262914,0.920211,-3.829051,99936.12,+113,-93,+208
163817,4.319,-0.213,1.212,1.284199,1.043128,-4.083399,99936.12,+108,-93,+211
163827,4.961,-0.837,1.344,1.303532,1.167996,-4.357081,99932.67,+108,-97,+211
163836,5.648,-1.423,1.396,1.211832,1.266082,-4.609655,99932.67,+105,-99,+212
163847,6.289,-1.882,1.351,1.009630,1.354412,-4.902848,99934.03,+96,-106,+209
163857,7.072,-1.925,1.206,0.805832,1.456045,-5.172096,99935.66,+88,-108,+210
163867,8.086,-1.897,1.229,0.676529,1.583219,-5.406224,99934.45,+88,-108,+210
163877,9.380,-2.012,1.314,0.679722,1.686449,-5.613214,99931.14,+82,-112,+210
163887,10.925,-2.089,1.499,0.809025,1.732742,-5.806370,99936.95,+70,-116,+207
163897,12.502,-2.112,1.807,1.025593,1.697623,-6.012297,99933.03,+61,-116,+210
163907,13.911,-2.144,2.042,1.241630,1.681660,-6.157031,99933.03,+61,-116,+210
163917,15.531,-3.024,2.054,1.327832,1.686981,-6.203324,99933.66,+53,-116,+211
163927,17.246,-5.143,2.029,1.410309,1.677403,-6.211838,99935.75,+40,-117,+210
163937,18.350,-7.263,1.740,1.448620,1.607696,-6.203324,99935.75,+28,-115,+215
163947,18.736,-8.614,1.673,1.443831,1.510320,-6.153838,99935.34,+28,-115,+215
163957,19.150,-9.408,1.855,1.482675,1.410284,-6.020278,99935.23,+15,-112,+220
163968,19.497,-10.753,1.929,1.592290,1.308651,-5.774444,99936.59,+1,-107,+223
163977,19.390,-12.614,2.301,1.651886,1.244798,-5.406756,99936.91,-8,-97,+232
163987,19.035,-14.844,3.225,1.624217,1.178816,-4.930518,99936.36,-8,-97,+232
163997,17.286,-16.265,3.449,1.519923,1.086229,-4.440444,99940.28,-15,-89,+238
164007,15.010,-18.325,2.897,1.323575,1.016523,-3.930152,99938.98,-26,-79,+241
164017,12.463,-22.055,1.835,1.115520,0.972889,-3.374097,99939.77,-27,-71,+247
164027,9.991,-23.170,0.825,0.673337,1.029293,-2.769088,99939.77,-27,-71,+247
164037,8.492,-21.143,-0.013,-0.105672,1.042596,-1.919841,99939.77,-29,-66,+250
164047,8.870,-18.125,-0.429,-0.750589,0.898394,-0.797089,99944.68,-32,-65,+250
164057,9.954,-15.530,-0.862,-0.877763,0.581257,0.339497,99938.91,-28,-68,+251
164063,10.219,-14.628,-0.867,-0.713874,0.304560,1.066891,99938.96,-28,-68,+251
164072,10.112,-14.885,-0.503,-0.413764,0.029459,1.682542,99941.70,-25,-71,+250
164082,11.116,-13.278,0.758,0.159851,-0.200412,2.305643,99941.70,-24,-71,+250
164092,11.816,-11.522,-3.393,0.387062,-0.480834,2.685569,99941.68,-24,-71,+250
164102,16.423,-3.682,-0.328,0.678658,-0.799568,3.279936,99940.27,-18,-71,+252
164112,26.468,28.021,-2.135,2.268602,-1.151293,2.354064,99937.45,-19,-68,+254
164122,24.945,23.575,-3.098,1.349648,-1.083715,1.169588,99939.80,-23,-64,+254
164132,12.006,-13.017,-1.834,1.037832,-1.210889,2.763789,99939.80,-23,-64,+254
164142,9.372,-18.603,4.409,3.735096,-1.083715,3.876431,99942.73,-21,-58,+258
164152,8.567,-9.942,1.012,3.965500,-0.851715,3.576853,99942.11,-19,-46,+263
164162,9.650,-7.240,0.585,1.623152,-0.216908,2.765385,99940.33,-18,-44,+263
164172,8.755,-5.778,3.370,1.100089,0.069367,2.775496,99939.59,-18,-44,+263
164182,6.985,-4.089,6.112,1.245887,-0.112082,2.545092,99939.59,-13,-40,+266
164192,7.276,-4.424,4.083,1.132015,-0.136559,2.211459,99941.26,-12,-39,+268
164202,10.351,-5.212,2.301,0.533392,-0.165825,2.159312,99942.15,-12,-39,+266
164212,11.154,-6.956,1.834,-0.205709,-0.229679,2.085349,99941.52,-12,-39,+266
164222,10.108,-6.470,1.451,-0.921396,-0.171146,1.941680,99940.30,-8,-40,+268
164232,9.256,-4.145,2.011,-1.483836,0.009771,1.817166,99940.30,-7,-48,+265
164242,8.602,-2.921,1.819,-1.640809,0.107679,1.667643,99941.94,-7,-55,+262
164252,8.711,-2.388,1.065,-1.209268,0.084798,1.512799,99938.64,-7,-55,+262
164262,9.481,-0.895,1.621,-0.578718,0.035312,1.424469,99940.94,-3,-59,+264
164272,9.932,-1.803,2.492,-0.089709,-0.052486,1.399992,99942.88,-1,-61,+263
164282,9.726,-3.710,2.341,0.148676,-0.131238,1.362212,99942.88,-1,-61,+262
164292,9.267,-4.168,2.187,0.095997,-0.108890,1.239295,99942.34,-1,-61,+262
164297,8.979,-4.570,2.492,-0.144516,-0.053018,1.143515,99941.92,+1,-61,+263
164307,9.036,-4.926,2.984,-0.428663,-0.023220,1.024855,99941.92,+1,-65,+263
164318,9.122,-4.126,3.474,-0.731433,-0.055147,0.832231,99944.13,+1,-65,+263
164327,9.129,-3.019,3.131,-0.893195,-0.120596,0.695479,99941.34,+1,-67,+260
164337,9.322,-2.388,2.648,-0.842644,-0.169550,0.634818,99941.34,+3,-70,+262
164347,9.466,-2.204,2.305,-0.615965,-0.197220,0.612469,99942.02,+3,-73,+260
164358,9.428,-2.442,1.953,-0.382901,-0.198816,0.614066,99942.91,+3,-73,+260
164367,9.353,-3.243,1.888,-0.283397,-0.173807,0.613002,99939.23,+3,-74,+258
164377,9.310,-3.736,2.168,-0.332883,-0.147202,0.569369,99939.23,+3,-75,+260
164387,9.109,-3.624,2.408,-0.460057,-0.149862,0.501791,99939.23,+3,-78,+258
164398,9.070,-3.067,2.388,-0.545727,-0.122192,0.448580,99943.49,+3,-78,+258
164407,9.197,-2.772,2.505,-0.547855,-0.095055,0.425167,99941.40,+3,-80,+255
164417,9.210,-2.781,2.474,-0.478149,-0.095055,0.419314,99942.18,+5,-82,+257
164427,9.206,-3.031,2.214,-0.414296,-0.091330,0.421442,99941.29,+4,-84,+255
164438,9.314,-3.451,2.044,-0.413232,-0.065789,0.420910,99941.29,+4,-84,+255
164448,9.312,-3.555,1.880,-0.451011,-0.033862,0.412396,99942.23,+3,-85,+253
164457,9.172,-3.464,1.631,-0.546791,0.017220,0.415057,99939.51,+5,-87,+255
164467,9.304,-3.269,1.809,-0.634589,0.062982,0.424635,99939.35,+7,-90,+253
164477,9.413,-2.796,2.152,-0.669176,0.090652,0.463479,99939.35,+7,-90,+253
164488,9.346,-2.376,2.357,-0.651085,0.101294,0.538506,99941.55,+7,-92,+251
164497,9.271,-1.946,2.480,-0.585103,0.086395,0.639075,99941.55,+9,-94,+252
164507,9.184,-1.551,2.354,-0.492516,0.057661,0.768910,99939.81,+10,-96,+250
164517,9.274,-1.530,2.383,-0.375984,0.021477,0.919497,99940.66,+10,-96,+250
164528,9.636,-1.391,2.676,-0.227525,-0.033330,1.074341,99939.55,+12,-98,+249
164537,10.023,-1.823,2.975,-0.083856,-0.100908,1.225460,99939.55,+14,-97,+250
164547,10.374,-2.608,2.929,-0.015746,-0.153587,1.358487,99940.12,+15,-99,+249
164557,10.312,-2.801,2.881,-0.038626,-0.195091,1.474487,99942.95,+15,-99,+249
164568,10.263,-2.292,3.028,-0.058846,-0.257348,1.602194,99940.01,+17,-100,+248
164578,10.568,-1.916,3.214,-0.010424,-0.356321,1.753313,99938.90,+21,-98,+250
164587,11.279,-2.489,2.954,0.045447,-0.437733,1.916138,99941.68,+21,-100,+249
164597,12.171,-2.983,2.028,0.024695,-0.491477,2.060872,99942.15,+21,-100,+249
164608,12.677,-3.203,1.272,-0.012553,-0.520211,2.200285,99938.85,+23,-100,+247
164617,13.447,-3.008,0.991,-0.016810,-0.567036,2.339165,99938.85,+28,-100,+250
164627,14.225,-3.120,1.311,0.024163,-0.623972,2.500927,99937.63,+29,-102,+248
164637,14.297,-3.341,1.935,0.000218,-0.642596,2.665881,99937.63,+29,-102,+248
164647,14.540,-3.585,2.407,-0.145580,-0.631421,2.830835,99941.41,+31,-102,+248
164658,15.351,-3.409,3.018,-0.364277,-0.619715,2.985147,99940.63,+35,-102,+250
164667,16.836,-3.190,3.467,-0.583507,-0.628761,3.114981,99939.79,+37,-106,+247
164677,18.952,-3.329,5.042,-0.697910,-0.707513,3.216082,99939.79,+37,-106,+247
164687,21.457,-2.131,7.118,-0.829874,-0.720816,3.313458,99939.79,+40,-108,+245
164698,23.196,-0.964,8.115,-1.207671,-0.585128,3.411367,99939.35,+44,-112,+245
164708,24.346,-0.001,7.771,-1.788735,-0.412724,3.506614,99938.54,+48,-118,+239
164717,23.896,0.621,6.142,-2.417689,-0.250963,3.646027,99936.07,+48,-118,+239
164727,22.174,1.038,3.920,-3.001945,-0.116871,3.646559,99936.07,+52,-124,+233
164738,19.182,0.570,1.882,-3.576624,-0.103569,3.414027,99936.07,+59,-135,+228
164748,14.005,-2.821,2.496,-3.807559,-0.447844,3.197991,99938.88,+64,-145,+217
164757,10.154,-6.208,6.227,-3.258422,-0.655366,3.226192,99941.59,+67,-145,+210
164767,12.114,-5.175,6.428,-2.222405,-0.512761,3.190541,99935.09,+67,-150,+210
164777,12.312,-6.932,6.368,-1.518424,-0.529788,3.270358,99937.83,+73,-154,+207
164787,10.879,-6.765,6.747,-0.671837,-0.338229,3.073477,99937.83,+78,-154,+202
164798,9.200,-1.842,6.320,-0.198259,-0.096651,2.401954,99939.00,+83,-152,+198
164807,7.430,4.310,4.173,-0.505819,0.099165,1.409038,99940.73,+83,-152,+198
164817,6.432,6.399,1.661,-1.012387,0.163018,0.556598,99937.38,+84,-153,+198
164828,5.595,3.250,1.485,-1.061341,0.252413,0.238928,99937.38,+84,-154,+191
164838,5.028,1.522,1.843,-0.851690,0.322651,-0.073420,99939.99,+82,-155,+188
164847,3.932,2.109,1.666,-0.354699,0.369477,-0.733236,99939.99,+82,-155,+188
164857,2.972,3.042,1.953,0.028420,0.547202,-1.305254,99936.05,+79,-155,+188
164868,2.674,2.919,1.538,0.241796,0.656816,-1.727217,99938.05,+75,-153,+184
164877,2.872,1.712,0.732,0.519557,0.670119,-2.143859,99937.41,+70,-151,+184
164887,3.243,0.141,0.251,0.881924,0.672780,-2.540813,99937.41,+70,-151,+184
164897,3.726,-1.142,0.534,1.172988,0.719605,-2.910097,99940.38,+64,-148,+189
164908,4.160,-1.664,0.986,1.358162,0.791972,-3.242666,99936.66,+57,-143,+187
164918,4.184,-1.325,1.372,1.422015,0.890413,-3.598647,99936.09,+49,-138,+189
164928,4.138,-0.734,1.503,1.458731,0.992045,-3.941326,99935.11,+49,-138,+189
164937,4.595,-0.084,1.704,1.578987,1.091018,-4.238775,99934.02,+42,-132,+192
164947,5.623,-0.134,2.025,1.677960,1.186265,-4.489931,99936.53,+35,-125,+190
164958,6.549,-1.240,2.207,1.704565,1.267146,-4.719802,99934.84,+28,-118,+191
164967,7.245,-2.553,2.114,1.680620,1.351220,-4.956591,99934.84,+28,-118,+191
164977,8.008,-3.324,1.700,1.549189,1.450724,-5.189655,99934.53,+22,-110,+194
164987,8.916,-3.773,1.315,1.374125,1.561403,-5.397710,99934.53,+15,-102,+190
164998,10.079,-3.877,1.028,1.254400,1.659843,-5.591930,99938.17,+11,-96,+189
165007,11.311,-3.728,1.084,1.168731,1.713054,-5.768590,99937.17,+11,-96,+189
165017,12.402,-3.729,1.320,1.111795,1.717311,-5.915453,99935.08,+5,-89,+190
165027,13.395,-3.999,1.744,1.068162,1.684852,-6.047416,99935.17,+0,-83,+186
165038,14.500,-4.689,2.031,0.996327,1.648137,-6.154902,99935.17,-7,-75,+186
165048,15.602,-5.733,2.177,0.929813,1.653458,-6.248022,99937.13,-7,-75,+186
165058,16.339,-6.510,2.271,0.844676,1.688577,-6.311343,99934.42,-14,-68,+187
165067,17.312,-7.148,1.994,0.775502,1.706669,-6.298572,99934.00,-20,-61,+183
165078,18.788,-7.894,1.754,0.739318,1.700816,-6.192150,99934.00,-24,-52,+184
165088,19.914,-9.452,1.611,0.712181,1.653458,-5.989416,99934.00,-24,-52,+184
165097,20.306,-11.538,1.451,0.653648,1.560339,-5.722297,99938.01,-26,-42,+185
165107,19.592,-13.618,1.396,0.521685,1.437953,-5.393453,99939.95,-29,-35,+182
165117,18.120,-15.271,1.258,0.391851,1.346963,-4.971490,99938.90,-30,-29,+183
165123,17.139,-17.578,1.305,0.330126,1.280449,-4.594757,99939.32,-30,-29,+183
165133,15.330,-21.190,1.363,0.362584,1.194779,-4.175454,99939.32,-30,-22,+184
165142,11.136,-23.416,0.510,0.268933,1.120816,-3.541712,99943.63,-31,-19,+181
165152,8.259,-23.561,-0.339,-0.073746,1.083568,-2.534428,99940.38,-31,-19,+181
165163,8.048,-20.408,-1.255,-0.433452,0.952669,-1.228630,99941.27,-29,-17,+182
165173,9.580,-15.216,-1.717,-0.540938,0.674908,0.143149,99939.80,-26,-17,+182
165182,11.387,-12.207,-1.651,-0.207837,0.256138,1.278671,99939.80,-26,-19,+178
165192,11.901,-11.982,-1.422,0.369502,-0.235532,2.119404,99940.15,-26,-19,+178
165202,11.397,-13.452,-1.395,0.912254,-0.629293,2.774431,99942.73,-23,-21,+180
165213,12.927,-10.577,-0.588,1.414565,-0.768706,3.244284,99940.52,-21,-19,+179
165223,13.806,-5.880,-2.895,1.235777,-0.957605,3.263972,99939.99,-21,-21,+176
165232,17.912,11.279,5.120,1.996161,-0.888430,3.244816,99939.99,-21,-21,+176
165242,25.140,34.080,-0.049,2.376620,-0.778816,1.228120,99942.52,-21,-16,+179
165253,18.572,5.433,-3.496,0.280640,-0.863421,1.393607,99940.58,-19,-15,+177
165263,11.928,-19.407,2.272,1.130419,-1.050192,3.339532,99941.09,-19,-17,+175
165272,8.492,-12.847,2.285,3.821298,-1.222595,3.534816,99940.20,-19,-17,+175
165282,8.280,-6.123,-0.513,2.125464,-0.695807,2.558927,99940.20,-19,-10,+178
165293,9.987,-5.929,0.825,0.619061,-0.235000,2.404083,99942.26,-15,-11,+178
165303,7.807,-4.420,4.876,0.873410,-0.246706,2.342358,99941.99,-15,-13,+177
165312,9.458,-4.453,4.627,1.010694,-0.120596,2.155056,99941.79,-15,-13,+177
165322,12.565,-4.138,1.544,0.538181,-0.146137,2.167294,99939.99,-13,-10,+178
165332,10.194,-3.468,0.922,0.204548,-0.260009,2.127918,99939.99,-11,-11,+178
165343,8.327,-4.622,2.096,0.030548,-0.130174,2.073643,99943.23,-10,-15,+176
165353,9.033,-5.327,2.323,-0.183360,-0.039715,1.953386,99941.65,-10,-15,+176
165358,9.427,-4.781,2.533,-0.493580,0.011899,1.813973,99938.09,-7,-15,+177
165367,9.307,-4.292,2.492,-0.809653,-0.001403,1.662322,99938.09,-6,-19,+176
165378,8.968,-3.392,2.794,-0.936295,0.007110,1.508542,99939.24,-6,-19,+176
165388,8.948,-2.201,2.581,-0.954919,0.041165,1.420744,99939.24,-5,-23,+174
165398,9.225,-1.600,2.024,-0.892662,0.072560,1.346781,99941.09,-4,-25,+176
165407,9.654,-2.033,2.321,-0.607452,0.052340,1.318047,99942.06,-1,-27,+175
165417,9.799,-2.956,2.491,-0.232846,-0.021092,1.232377,99937.45,-1,-27,+175
165428,9.583,-3.634,2.684,-0.097690,-0.065257,1.118506,99937.45,-1,-29,+173
165438,9.136,-4.064,3.134,-0.204112,-0.198816,0.967387,99937.45,+0,-30,+174
165447,8.857,-3.580,3.058,-0.302021,-0.299385,0.804029,99943.66,+0,-30,+173
165457,9.006,-2.868,2.891,-0.409507,-0.321734,0.710910,99940.88,+0,-30,+173
165468,9.336,-2.814,2.473,-0.456865,-0.290871,0.659827,99939.68,+0,-32,+173
