29936,9.580,-1.307,2.198,0.002604,0.007712,0.003968,100150.07,+3,-225,+13
29946,9.564,-1.336,2.200,0.008457,0.005584,0.009289,100150.07,+3,-225,+13
29957,9.514,-1.297,2.172,0.013246,0.002923,0.013014,100153.27,+3,-225,+13
29967,9.524,-1.390,2.167,0.016439,0.001859,0.017271,100153.59,+3,-225,+13
29977,9.512,-1.382,2.199,0.014842,-0.000270,0.023124,100151.33,+3,-225,+13
29986,9.479,-1.277,2.275,0.018035,-0.005591,0.028977,100148.39,+3,-225,+13
29997,9.431,-1.287,2.264,0.026017,-0.010380,0.034298,100148.39,+3,-225,+14
30007,9.428,-1.337,2.324,0.024420,-0.013040,0.040684,100150.26,+3,-225,+13
30017,9.441,-1.312,2.329,0.015907,-0.016765,0.043344,100152.35,+3,-225,+13
30026,9.524,-1.287,2.339,0.015907,-0.017297,0.044940,100151.73,+3,-225,+13
30036,9.545,-1.404,2.266,0.026017,-0.020490,0.045473,100151.73,+3,-225,+14
30047,9.513,-1.467,2.168,0.028145,-0.019958,0.041748,100151.73,+3,-225,+14
30057,9.506,-1.409,2.111,0.027613,-0.019426,0.037491,100152.80,+3,-226,+13
30066,9.501,-1.399,2.123,0.034530,-0.019426,0.035895,100152.06,+3,-226,+13
30072,9.458,-1.430,2.059,0.035595,-0.018361,0.036427,100150.92,+3,-225,+13
30082,9.461,-1.403,2.121,0.035595,-0.016765,0.035362,100149.45,+3,-225,+14
30092,9.468,-1.330,2.145,0.035595,-0.015701,0.038023,100149.45,+3,-225,+14
30102,9.501,-1.302,2.222,0.036659,-0.015701,0.042812,100153.33,+3,-225,+14
30111,9.510,-1.327,2.234,0.036127,-0.015169,0.049197,100152.28,+4,-225,+14
30121,9.518,-1.321,2.260,0.032402,-0.017297,0.051858,100150.81,+3,-226,+15
30132,9.549,-1.336,2.240,0.033998,-0.019958,0.055051,100150.13,+3,-226,+15
30142,9.535,-1.430,2.186,0.040916,-0.020490,0.056115,100150.13,+3,-225,+13
30151,9.512,-1.473,2.142,0.041980,-0.019958,0.053986,100150.53,+4,-226,+15
30161,9.486,-1.465,2.129,0.045705,-0.020490,0.050794,100151.38,+3,-225,+14
30172,9.468,-1.471,2.137,0.050494,-0.016765,0.045473,100151.42,+3,-225,+14
30182,9.504,-1.519,2.100,0.051558,-0.014637,0.042280,100149.75,+5,-225,+15
30191,9.513,-1.524,2.070,0.042512,-0.012508,0.040151,100149.75,+5,-225,+15
30201,9.526,-1.448,2.117,0.030806,-0.009315,0.039087,100153.19,+5,-225,+15
30212,9.544,-1.424,2.160,0.026017,-0.008251,0.038023,100152.03,+5,-225,+15
30222,9.558,-1.455,2.144,0.024952,-0.008251,0.039087,100151.25,+5,-225,+15
30232,9.524,-1.448,2.149,0.021760,-0.006655,0.040151,100150.20,+5,-225,+15
30241,9.488,-1.423,2.203,0.019631,-0.006123,0.041748,100150.20,+5,-225,+15
30252,9.490,-1.415,2.185,0.028677,-0.006123,0.043876,100151.88,+5,-225,+15
30262,9.456,-1.330,2.264,0.048365,-0.005591,0.043876,100150.94,+4,-225,+15
30272,9.461,-1.382,2.247,0.074971,-0.008783,0.043876,100148.31,+5,-225,+15
30281,9.443,-1.479,2.174,0.088806,-0.009848,0.043876,100150.98,+6,-225,+15
30291,9.480,-1.461,2.150,0.088273,-0.008783,0.043876,100150.98,+6,-225,+15
30302,9.488,-1.499,2.089,0.082952,-0.007187,0.046005,100150.55,+5,-225,+16
30307,9.537,-1.550,2.078,0.076035,-0.004526,0.046005,100150.87,+6,-225,+15
30316,9.555,-1.549,2.097,0.065393,-0.005591,0.046005,100150.87,+6,-225,+15
30326,9.575,-1.457,2.141,0.052622,-0.002930,0.047069,100151.38,+5,-225,+16
30337,9.501,-1.441,2.173,0.052090,-0.002930,0.049729,100151.23,+7,-225,+16
30347,9.477,-1.454,2.148,0.050494,-0.003462,0.053454,100151.23,+7,-225,+16
30357,9.441,-1.448,2.165,0.051026,-0.002930,0.055583,100152.31,+7,-225,+16
30367,9.429,-1.405,2.168,0.053686,-0.001866,0.055583,100151.09,+7,-225,+16
30376,9.458,-1.384,2.241,0.065393,-0.000270,0.055583,100149.72,+6,-225,+16
30387,9.483,-1.500,2.216,0.075503,-0.001334,0.056647,100149.72,+6,-224,+16
30397,9.522,-1.587,2.150,0.072310,0.000795,0.052922,100149.72,+6,-224,+16
30407,9.522,-1.592,2.159,0.056879,0.001859,0.050794,100156.25,+7,-225,+17
30416,9.477,-1.628,2.137,0.040916,0.005051,0.048133,100152.89,+7,-225,+16
30427,9.450,-1.560,2.091,0.025485,0.009840,0.047601,100152.11,+8,-225,+17
30437,9.450,-1.496,2.081,0.012182,0.013033,0.048665,100149.13,+8,-225,+17
30446,9.497,-1.443,2.121,0.007393,0.015162,0.053454,100149.13,+8,-224,+17
30457,9.506,-1.440,2.143,0.003668,0.018354,0.059307,100151.75,+8,-225,+17
30467,9.544,-1.477,2.147,-0.002185,0.020483,0.063032,100151.86,+8,-225,+18
30477,9.624,-1.540,2.155,-0.012827,0.021015,0.065693,100150.23,+8,-225,+18
30487,9.666,-1.564,2.114,-0.028259,0.021547,0.067289,100150.23,+8,-225,+18
30497,9.600,-1.558,2.120,-0.044222,0.026868,0.068885,100153.05,+9,-225,+17
30507,9.541,-1.588,2.142,-0.055928,0.028464,0.072078,100153.05,+9,-225,+17
30517,9.540,-1.679,2.088,-0.064442,0.031125,0.071014,100150.45,+9,-225,+17
30527,9.514,-1.821,2.057,-0.078809,0.034850,0.070482,100151.23,+9,-226,+18
30537,9.473,-1.872,2.027,-0.111268,0.039639,0.065693,100150.07,+9,-225,+16
30542,9.477,-1.931,2.011,-0.144259,0.042299,0.058775,100150.07,+9,-225,+16
30552,9.484,-1.872,2.046,-0.177249,0.047088,0.052390,100150.48,+9,-227,+16
30562,9.445,-1.691,2.118,-0.205451,0.055070,0.043876,100153.26,+9,-226,+15
30572,9.404,-1.593,2.181,-0.207047,0.059859,0.042280,100149.43,+10,-227,+15
30581,9.507,-1.660,2.090,-0.196405,0.059327,0.036959,100146.91,+10,-227,+15
30592,9.498,-1.763,2.054,-0.192148,0.063584,0.031638,100146.91,+10,-227,+15
30602,9.478,-1.849,2.062,-0.211304,0.069437,0.026317,100153.16,+10,-228,+15
30612,9.480,-1.707,2.130,-0.233653,0.075290,0.017271,100152.22,+11,-228,+13
30622,9.461,-1.570,2.270,-0.219286,0.081675,0.009289,100151.86,+11,-228,+13
30631,9.404,-1.594,2.197,-0.184167,0.082740,0.003968,100150.44,+10,-228,+13
30642,9.373,-1.467,2.265,-0.111800,0.086464,-0.000289,100150.44,+11,-228,+13
30652,9.169,-1.591,2.311,-0.051139,0.089125,0.000243,100152.18,+10,-229,+11
30662,9.073,-1.815,2.261,-0.028791,0.096574,-0.002949,100151.13,+10,-229,+11
30671,9.073,-1.915,2.320,-0.055396,0.103492,-0.007738,100153.54,+12,-228,+12
30682,9.187,-1.838,2.424,-0.103286,0.105620,-0.013060,100150.45,+11,-229,+12
30692,9.313,-1.668,2.404,-0.146919,0.102428,-0.016784,100150.45,+11,-230,+11
30702,9.383,-1.436,2.459,-0.153836,0.103492,-0.015720,100151.88,+11,-230,+11
30711,9.405,-1.318,2.510,-0.113396,0.099235,-0.008803,100149.47,+11,-229,+12
30722,9.407,-1.251,2.570,-0.042626,0.090189,-0.001353,100151.14,+12,-230,+11
30732,9.374,-1.421,2.501,0.021228,0.083804,0.006096,100149.00,+11,-229,+11
30742,9.423,-1.545,2.403,0.062732,0.081143,0.010885,100149.00,+11,-229,+11
30752,9.275,-1.202,2.599,0.118072,0.073162,0.017803,100153.44,+11,-229,+13
30761,9.138,-1.344,2.728,0.187778,0.064648,0.033766,100152.28,+12,-229,+12
30772,9.164,-1.570,2.795,0.238861,0.057198,0.041748,100152.17,+13,-228,+14
30778,9.111,-1.502,2.952,0.261209,0.045492,0.044940,100151.23,+13,-228,+14
30787,9.094,-1.563,2.927,0.277172,0.026868,0.050794,100151.23,+12,-228,+15
30796,9.479,-1.848,2.537,0.270787,0.009840,0.048133,100151.23,+13,-227,+16
30807,9.914,-1.738,2.251,0.229815,0.003455,0.034830,100152.80,+13,-227,+16
30817,10.030,-1.344,2.222,0.219705,-0.001334,0.025252,100155.06,+13,-227,+16
30827,9.921,-1.391,2.085,0.269191,-0.002398,0.023656,100151.13,+13,-227,+17
30837,9.928,-1.765,2.074,0.308567,-0.002398,0.016739,100151.13,+13,-226,+18
30848,9.704,-1.832,2.323,0.297925,-0.000270,0.005032,100153.74,+13,-226,+18
30857,9.344,-1.852,2.531,0.265998,-0.001334,-0.009335,100153.74,+12,-226,+18
30867,9.264,-2.001,2.660,0.227154,-0.005591,-0.024766,100154.27,+13,-226,+19
30877,9.166,-1.937,2.709,0.167558,-0.008251,-0.039133,100152.59,+13,-225,+19
30886,9.215,-1.876,2.629,0.109558,-0.009848,-0.050307,100150.87,+13,-225,+19
30897,9.395,-1.981,2.313,0.041980,-0.015169,-0.064674,100150.87,+13,-225,+20
30907,9.589,-1.811,2.224,-0.029323,-0.014104,-0.078509,100154.77,+13,-225,+20
30917,9.642,-1.725,2.193,-0.066038,-0.013572,-0.092344,100152.83,+13,-225,+19
30927,9.653,-1.720,2.223,-0.091048,-0.006655,-0.105115,100150.11,+13,-225,+19
30937,9.582,-1.594,2.415,-0.120314,-0.007187,-0.108307,100150.36,+12,-225,+19
30947,9.595,-1.617,2.514,-0.146387,-0.014637,-0.105647,100154.40,+11,-225,+19
30957,9.583,-1.758,2.515,-0.186295,-0.021554,-0.103518,100150.98,+11,-225,+18
30967,9.418,-1.701,2.516,-0.238974,-0.027939,-0.098729,100149.93,+11,-225,+18
30977,9.338,-1.578,2.497,-0.264515,-0.034857,-0.093408,100149.93,+11,-225,+17
30987,9.410,-1.672,2.345,-0.264515,-0.040710,-0.088087,100148.88,+10,-225,+16
30997,9.470,-1.865,2.226,-0.278350,-0.042838,-0.086491,100148.88,+11,-227,+15
31007,9.392,-1.922,2.179,-0.326240,-0.036985,-0.088087,100151.68,+11,-227,+15
31012,9.422,-1.892,2.162,-0.378387,-0.031132,-0.091280,100152.84,+9,-227,+14
31022,9.601,-1.977,2.052,-0.438515,-0.030600,-0.100326,100153.88,+9,-227,+13
31032,9.777,-1.781,2.132,-0.513543,-0.019426,-0.110968,100148.59,+9,-227,+13
31042,9.698,-1.131,2.543,-0.535891,-0.011444,-0.116821,100148.59,+9,-229,+11
31052,9.502,-0.856,2.838,-0.453946,-0.022618,-0.109903,100153.05,+9,-229,+11
31062,9.403,-1.382,2.515,-0.343268,-0.035389,-0.104050,100151.59,+9,-229,+9
31072,9.306,-1.667,2.387,-0.301763,-0.043371,-0.107243,100148.38,+9,-229,+9
31082,9.325,-1.516,2.527,-0.303359,-0.055077,-0.105115,100149.18,+7,-230,+9
31092,9.392,-1.384,2.465,-0.293249,-0.065719,-0.103518,100149.18,+7,-230,+7
31102,9.479,-1.343,2.375,-0.274093,-0.074233,-0.097133,100153.77,+6,-231,+6
31112,9.546,-1.307,2.348,-0.268772,-0.082747,-0.084362,100151.77,+6,-231,+6
31122,9.479,-1.242,2.264,-0.265580,-0.084343,-0.071059,100151.92,+6,-231,+6
31132,9.467,-1.253,2.216,-0.253873,-0.090196,-0.055628,100149.78,+6,-231,+5
31141,9.440,-1.254,2.155,-0.233121,-0.088600,-0.041793,100149.78,+5,-231,+4
31152,9.389,-1.379,2.082,-0.208644,-0.079022,-0.030619,100154.80,+5,-231,+4
31162,9.423,-1.667,1.986,-0.200130,-0.072104,-0.029023,100153.76,+6,-231,+4
31172,9.371,-1.751,2.057,-0.205983,-0.059334,-0.034876,100150.20,+5,-233,+3
31182,9.315,-1.758,2.095,-0.212369,-0.047627,-0.045518,100150.73,+5,-231,+2
31192,9.338,-1.789,2.080,-0.221414,-0.040178,-0.058821,100150.73,+5,-231,+2
31202,9.337,-1.611,2.179,-0.218754,-0.033793,-0.072656,100153.89,+5,-233,+3
31212,9.270,-1.343,2.283,-0.195341,-0.030068,-0.075848,100152.33,+5,-233,+1
31222,9.303,-1.174,2.357,-0.149047,-0.031132,-0.068931,100151.48,+3,-233,+0
31232,9.485,-1.380,2.170,-0.104350,-0.033793,-0.057225,100149.86,+3,-233,+0
31242,9.564,-1.648,1.978,-0.096369,-0.031132,-0.048179,100149.86,+4,-233,+0
31248,9.551,-1.677,1.920,-0.115525,-0.024747,-0.043390,100153.74,+3,-234,+0
31257,9.541,-1.696,1.808,-0.143194,-0.020490,-0.040197,100153.74,+3,-234,+0
31267,9.630,-1.750,1.714,-0.187892,-0.015169,-0.036472,100149.18,+3,-233,+0
31278,9.674,-1.641,1.811,-0.237378,-0.004526,-0.034876,100150.38,+4,-234,+0
31287,9.682,-1.452,1.851,-0.268772,0.005584,-0.026894,100149.49,+3,-234,-1
31297,9.679,-1.277,1.978,-0.280479,0.007712,-0.012527,100152.52,+3,-234,-1
31307,9.672,-1.111,2.169,-0.269836,0.005051,0.008757,100150.20,+4,-234,-3
31318,9.740,-1.046,2.248,-0.245891,-0.014104,0.035895,100151.88,+3,-235,-3
31327,9.735,-1.023,2.199,-0.210240,-0.033260,0.067821,100151.88,+3,-235,-4
31337,9.655,-0.990,2.267,-0.170864,-0.056673,0.110922,100150.25,+3,-235,-4
31347,9.557,-1.084,2.485,-0.146919,-0.083279,0.158280,100150.25,+4,-235,-4
31357,9.379,-1.102,2.489,-0.135745,-0.109352,0.206170,100155.17,+4,-236,-5
31367,9.343,-1.135,2.343,-0.132020,-0.138086,0.254592,100152.56,+5,-237,-5
31377,9.514,-1.153,2.384,-0.127231,-0.168416,0.304078,100150.94,+5,-237,-5
31387,9.530,-1.114,2.488,-0.106479,-0.190233,0.351968,100149.94,+5,-237,-6
31397,9.520,-1.121,2.583,-0.064974,-0.214178,0.398261,100149.94,+7,-237,-6
31408,9.622,-1.109,2.655,-0.008038,-0.244508,0.442959,100149.90,+7,-238,-7
31417,9.824,-1.186,2.425,0.058475,-0.283352,0.483399,100150.70,+7,-238,-7
31427,10.114,-1.159,2.198,0.134567,-0.325389,0.517986,100150.43,+9,-237,-6
31437,10.636,-1.161,2.072,0.210659,-0.389242,0.562151,100150.43,+11,-239,-6
31448,11.332,-1.105,2.176,0.269723,-0.463205,0.616958,100150.43,+12,-239,-6
31457,11.730,-0.887,1.974,0.309099,-0.525994,0.701032,100153.76,+12,-239,-6
31467,11.932,-0.832,1.902,0.322402,-0.591444,0.821821,100150.24,+14,-239,-5
31477,12.405,-0.870,1.936,0.279833,-0.661150,0.974536,100150.35,+17,-241,-5
31488,12.843,0.460,2.715,0.209594,-0.670728,1.138958,100151.24,+19,-241,-5
31497,13.480,1.430,3.502,0.145741,-0.705847,1.325729,100151.24,+19,-241,-5
31507,14.848,0.729,3.241,0.112751,-0.763847,1.534316,100148.59,+24,-242,-6
31517,17.709,0.492,2.771,0.045705,-0.847920,1.670004,100148.55,+27,-244,-6
31527,21.726,2.033,2.543,-0.061781,-0.974563,1.741838,100148.52,+33,-245,-6
31538,25.468,6.563,1.759,-0.277818,-0.932526,1.941380,100148.52,+33,-245,-6
31547,22.938,6.266,0.894,-0.296974,-0.969242,2.289912,100152.49,+37,-246,-9
31557,19.686,2.374,-1.214,-0.049543,-1.173572,2.513398,100152.02,+45,-248,-9
31567,18.448,0.131,0.023,0.413393,-1.309792,2.456994,100152.02,+52,-249,-9
31578,16.879,-2.109,2.138,1.303612,-1.363535,2.388884,100151.29,+52,-249,-9
31587,14.485,-5.815,4.093,1.975667,-1.328416,2.403783,100148.09,+59,-248,-5
31597,11.158,-10.233,4.933,2.362510,-1.191131,2.197856,100148.09,+64,-245,+2
31602,8.421,-14.558,5.191,2.249171,-1.051719,2.086113,100150.98,+64,-245,+2
31612,6.716,-17.135,4.164,1.837318,-0.993719,2.002040,100152.51,+69,-242,+8
31623,5.262,-18.912,1.874,1.304676,-0.965517,1.869013,100148.41,+75,-241,+11
31632,5.877,-17.513,0.964,0.637943,-0.900599,1.688627,100147.88,+79,-240,+12
31642,6.117,-13.410,0.006,0.019631,-0.867076,1.388518,100147.88,+79,-240,+12
31652,3.261,-10.753,2.299,-0.490662,-0.744691,1.459288,100149.93,+82,-240,+10
31663,2.872,-7.865,3.096,-0.485873,-0.651572,1.387453,100149.51,+85,-242,+9
31672,2.175,-6.706,2.654,-0.118717,-0.579737,1.405013,100148.93,+90,-241,+10
31682,1.454,-6.134,1.522,0.189906,-0.523866,1.448646,100148.26,+90,-241,+10
31692,0.676,-5.080,0.929,0.368695,-0.449370,1.420976,100148.26,+94,-241,+10
31703,-0.299,-4.318,0.914,0.472989,-0.371150,1.354463,100149.71,+98,-241,+11
31712,-0.727,-3.882,0.886,0.566640,-0.317939,1.281031,100150.55,+102,-239,+13
31722,-0.714,-3.720,0.666,0.624108,-0.280691,1.191637,100147.87,+102,-239,+13
31732,-0.758,-3.405,0.380,0.600695,-0.238655,1.087876,100148.82,+105,-237,+15
31742,-1.018,-2.951,0.199,0.534181,-0.189701,1.000610,100148.82,+108,-236,+15
31753,-1.286,-2.523,0.088,0.496934,-0.145536,0.922922,100150.09,+111,-235,+18
31762,-1.452,-2.289,-0.063,0.491081,-0.109884,0.837252,100149.20,+111,-235,+18
31772,-1.643,-2.354,-0.195,0.482567,-0.083811,0.749454,100147.16,+113,-234,+20
31782,-1.797,-2.595,-0.268,0.454897,-0.059866,0.660591,100145.54,+115,-233,+19
31793,-1.916,-2.578,-0.296,0.373484,-0.032728,0.547784,100145.54,+117,-232,+22
31802,-1.938,-2.284,-0.108,0.252695,-0.000802,0.413693,100149.21,+117,-232,+22
31812,-1.801,-1.877,0.260,0.155851,0.049749,0.271087,100148.27,+118,-231,+22
31822,-1.633,-1.581,0.387,0.071778,0.096042,0.124225,100149.21,+121,-231,+22
31833,-1.440,-1.487,0.417,-0.016552,0.140739,-0.022637,100144.13,+120,-232,+22
31842,-1.212,-1.490,0.168,-0.099029,0.189161,-0.182270,100144.13,+120,-232,+22
31852,-0.845,-1.629,-0.188,-0.198002,0.246629,-0.346692,100152.16,+119,-231,+22
31862,-0.287,-1.890,-0.211,-0.283139,0.305161,-0.516435,100148.07,+118,-233,+22
31873,0.303,-2.245,-0.037,-0.343800,0.342409,-0.692564,100148.54,+117,-233,+20
31883,0.848,-2.619,0.091,-0.343268,0.386042,-0.883591,100148.71,+117,-233,+20
31892,1.580,-2.590,0.035,-0.285268,0.437657,-1.108141,100148.71,+114,-234,+20
31902,2.516,-2.164,-0.195,-0.204919,0.497785,-1.336949,100149.93,+111,-235,+18
31912,3.837,-1.672,-0.226,-0.113396,0.521730,-1.535426,100149.45,+107,-236,+18
31923,5.104,-1.965,-0.539,-0.038901,0.507895,-1.683352,100147.41,+107,-236,+18
31932,6.229,-3.086,-0.456,-0.010167,0.493528,-1.818508,100147.73,+102,-236,+18
31942,7.169,-4.041,-0.108,-0.088387,0.478629,-2.014857,100147.73,+96,-237,+18
31952,8.001,-4.503,0.198,-0.199066,0.465859,-2.240471,100152.07,+90,-237,+18
31963,8.836,-4.808,0.344,-0.319323,0.440849,-2.465553,100150.71,+82,-237,+16
31973,9.834,-4.540,0.468,-0.377855,0.416904,-2.640085,100149.93,+82,-237,+16
31982,11.050,-3.937,0.809,-0.358167,0.397749,-2.800250,100147.98,+72,-238,+16
31992,12.265,-3.544,1.282,-0.288992,0.392427,-2.954030,100147.98,+64,-238,+15
32003,13.156,-3.262,1.805,-0.212901,0.419033,-3.078544,100152.69,+54,-237,+15
32013,13.898,-2.945,2.232,-0.113928,0.497253,-3.161021,100152.11,+54,-237,+15
32022,14.599,-2.662,2.276,-0.054332,0.623895,-3.206250,100150.33,+45,-235,+15
32032,15.127,-2.322,2.226,-0.126699,0.796299,-3.218489,100148.77,+35,-233,+15
32043,15.260,-2.905,2.639,-0.332625,1.014996,-3.156232,100148.77,+27,-231,+15
32053,12.839,-15.289,13.846,-0.236846,1.569454,-2.576764,100153.20,+27,-231,+15
32062,22.687,-18.069,7.901,0.429888,1.501344,-1.859480,100149.01,+23,-230,+18
32073,35.224,-12.656,-1.857,-0.293604,0.618042,-2.232489,100149.85,+18,-227,+18
32082,50.906,8.915,-14.269,-2.144459,-0.181719,-1.940361,100153.68,+11,-231,+10
32093,37.250,19.889,1.323,-2.597285,1.218262,-2.338379,100153.68,+11,-231,+10
32103,2.968,5.090,0.311,-1.442074,1.234225,-0.583481,100152.76,+8,-231,+6
32112,-7.839,-7.306,-1.939,-0.749267,0.881968,0.205105,100153.34,+11,-233,+5
32122,1.107,-5.639,-2.995,-0.237910,0.718079,-0.806435,100152.45,+9,-232,+5
32133,8.943,-2.235,3.241,-0.097433,0.592501,-0.818674,100153.96,+9,-232,+5
32143,11.954,-0.574,8.288,-0.203323,0.498317,-0.558472,100153.96,+7,-231,+5
32152,8.955,-0.307,7.945,-0.201726,0.485547,-0.449390,100151.14,+7,-231,+5
32162,5.479,-1.651,3.743,-0.448093,0.351455,-0.550490,100152.30,+5,-231,+4
32173,8.313,-0.603,0.929,-0.510350,0.210978,-0.555811,100149.16,+5,-231,+4
32183,11.804,0.153,-0.258,-0.293781,0.182776,-0.418527,100152.45,+3,-232,+3
32192,12.579,1.529,0.050,0.049962,0.298776,-0.283903,100152.45,+3,-231,+3
32202,11.081,0.902,1.567,0.351668,0.364758,-0.123738,100154.38,+3,-230,+5
32212,9.649,-0.698,3.216,0.461815,0.332299,0.011418,100152.44,+3,-230,+5
32223,9.259,-0.904,4.520,0.301117,0.225877,0.168922,100148.09,+5,-230,+6
32233,9.197,-0.165,5.058,0.171283,0.092317,0.312060,100147.88,+5,-229,+6
32242,9.212,0.222,4.471,0.277705,-0.021022,0.397729,100147.88,+7,-231,+8
32252,9.055,-0.584,3.005,0.464475,-0.084875,0.413160,100153.10,+7,-231,+8
32263,9.132,-1.600,1.937,0.584732,-0.095517,0.405711,100151.32,+7,-231,+9
32273,9.545,-1.619,1.890,0.588457,-0.099774,0.431252,100152.26,+9,-229,+10
32282,9.751,-1.569,1.913,0.538970,-0.096049,0.479674,100152.30,+11,-229,+12
32292,9.808,-1.623,1.969,0.507576,-0.076893,0.522775,100152.30,+11,-229,+12
32303,9.616,-1.707,2.374,0.460218,-0.071572,0.562151,100154.25,+12,-229,+14
32308,9.340,-1.806,2.514,0.430420,-0.079022,0.584500,100152.63,+15,-228,+15
32317,9.097,-1.940,2.498,0.426163,-0.086471,0.587160,100152.63,+15,-228,+15
32327,8.929,-2.036,2.521,0.424035,-0.106692,0.573325,100148.17,+15,-228,+17
32337,9.145,-2.080,2.519,0.430952,-0.127444,0.541399,100150.58,+17,-229,+16
32348,9.180,-2.235,2.366,0.452237,-0.127444,0.506812,100150.58,+18,-228,+18
32358,8.908,-2.370,2.132,0.491081,-0.109352,0.487124,100152.05,+18,-228,+18
32368,8.883,-2.548,2.101,0.513429,-0.100306,0.480206,100151.45,+20,-227,+20
32377,9.010,-2.884,1.956,0.511301,-0.092325,0.474885,100147.10,+20,-227,+20
32388,9.332,-3.373,1.447,0.383594,-0.102435,0.462647,100147.10,+22,-227,+22
32398,9.881,-2.971,1.137,0.134035,-0.080618,0.437637,100147.10,+22,-227,+22
32408,10.298,-2.739,1.116,-0.087323,-0.060398,0.403582,100155.13,+24,-227,+22
32417,10.206,-2.930,1.232,-0.211836,-0.026343,0.372188,100149.99,+25,-228,+22
32428,9.589,-2.678,1.510,-0.276222,0.016758,0.325362,100153.46,+26,-229,+20
32438,9.142,-2.512,2.054,-0.271965,0.035382,0.290243,100151.10,+26,-229,+20
32448,9.137,-2.421,2.441,-0.219818,0.037510,0.260445,100151.10,+26,-229,+20
32458,9.137,-2.439,2.573,-0.154369,0.033253,0.243417,100152.15,+28,-229,+20
32467,9.322,-2.475,2.552,-0.103818,0.014629,0.228518,100150.23,+29,-230,+19
32478,9.506,-2.508,2.217,-0.087323,-0.010380,0.217344,100149.21,+29,-230,+19
32488,9.479,-2.253,2.095,-0.089983,-0.016233,0.217344,100149.21,+29,-231,+19
32498,9.314,-1.994,2.196,-0.072956,-0.027407,0.243949,100154.05,+31,-231,+18
32507,9.295,-2.182,2.132,-0.038369,-0.036453,0.278005,100154.05,+30,-231,+18
32518,9.239,-2.298,2.184,-0.055396,-0.039646,0.309931,100151.54,+30,-231,+18
32528,9.207,-2.321,2.344,-0.122442,-0.044435,0.340793,100151.34,+33,-232,+18
32537,9.349,-1.809,2.580,-0.178846,-0.049224,0.364738,100151.60,+33,-232,+18
32547,9.496,-2.199,2.375,-0.178314,-0.075829,0.386023,100151.60,+34,-233,+17
32558,9.467,-2.837,2.145,-0.157029,-0.077958,0.394537,100154.85,+34,-233,+17
32568,9.023,-2.599,2.284,-0.160222,-0.076361,0.387619,100152.96,+35,-234,+16
32578,8.847,-2.284,2.447,-0.109139,-0.093921,0.394004,100152.16,+36,-235,+16
32588,9.079,-2.593,2.337,0.004732,-0.107756,0.392940,100151.32,+37,-235,+16
32598,9.253,-3.131,2.033,0.059007,-0.112545,0.381766,100153.05,+37,-235,+16
32608,9.296,-3.299,1.848,0.020696,-0.105627,0.378041,100151.95,+39,-234,+17
32618,9.240,-3.081,1.760,-0.055928,-0.097114,0.377509,100151.95,+40,-234,+16
32627,9.179,-2.868,1.841,-0.117653,-0.093389,0.389215,100150.16,+41,-235,+15
32637,9.127,-2.633,1.949,-0.152772,-0.087536,0.414757,100149.85,+43,-236,+15
32648,9.283,-2.256,2.129,-0.180974,-0.085939,0.445619,100149.85,+43,-236,+15
32658,9.478,-2.354,2.266,-0.194809,-0.105095,0.484995,100150.96,+44,-236,+15
32667,9.579,-2.796,2.005,-0.204919,-0.110948,0.509472,100150.65,+45,-237,+13
32677,9.357,-3.226,1.766,-0.254937,-0.099774,0.531289,100151.12,+46,-238,+13
32688,9.118,-3.504,1.574,-0.349653,-0.085939,0.553637,100148.87,+46,-238,+13
32698,9.057,-3.295,1.714,-0.439047,-0.071572,0.568536,100148.87,+49,-239,+11
32708,8.974,-2.989,1.954,-0.469910,-0.075829,0.588225,100152.38,+51,-240,+10
32717,9.102,-2.818,2.018,-0.424680,-0.080618,0.607380,100151.67,+52,-241,+8
32728,9.173,-2.562,2.448,-0.365616,-0.095517,0.636114,100152.52,+52,-241,+8
32738,8.982,-2.327,2.544,-0.287396,-0.119462,0.678151,100152.52,+54,-242,+8
32748,9.073,-2.583,2.178,-0.180442,-0.141279,0.712738,100152.52,+56,-243,+6
32757,9.321,-2.710,1.981,-0.105414,-0.152453,0.740940,100150.72,+58,-242,+6
32768,9.488,-2.958,1.845,-0.034644,-0.160435,0.775527,100153.55,+58,-242,+6
32778,9.579,-3.617,1.512,0.031338,-0.170013,0.799472,100152.41,+61,-243,+6
32788,9.553,-4.121,1.447,0.020163,-0.164692,0.809582,100149.89,+64,-244,+7
32798,9.381,-4.333,1.699,-0.044754,-0.165224,0.815435,100149.89,+66,-245,+6
32807,9.205,-4.411,1.967,-0.099029,-0.176398,0.814371,100152.52,+66,-245,+6
32818,9.297,-4.473,1.979,-0.134148,-0.188636,0.805857,100149.43,+69,-244,+6
32828,9.297,-4.861,2.387,-0.163414,-0.185444,0.804261,100149.09,+71,-245,+5
32838,9.338,-4.679,2.379,-0.255469,-0.173205,0.800004,100149.09,+73,-246,+4
32848,9.222,-4.649,2.344,-0.329965,-0.188104,0.786169,100150.45,+73,-246,+4
32858,9.379,-5.196,2.709,-0.386901,-0.190233,0.793087,100150.45,+76,-247,+3
32868,9.853,-4.820,2.498,-0.519396,-0.178526,0.782977,100152.49,+79,-247,+1
32878,9.865,-4.749,2.121,-0.649763,-0.171077,0.776059,100151.80,+81,-248,+0
32887,10.446,-4.901,1.746,-0.777469,-0.171077,0.784573,100148.82,+81,-248,+0
32898,11.099,-5.181,1.122,-0.937102,-0.190233,0.788298,100148.82,+84,-250,-2
32908,11.393,-4.877,0.819,-1.128662,-0.183315,0.796279,100152.93,+85,-253,-6
32918,11.610,-4.291,0.534,-1.277652,-0.199279,0.821821,100152.71,+88,-253,-10
32928,11.890,-3.778,0.007,-1.290955,-0.251425,0.867582,100151.51,+88,-253,-10
32937,12.009,-3.417,-0.249,-1.197304,-0.311554,0.922389,100150.86,+91,-255,-14
32948,11.864,-3.354,-0.201,-1.077047,-0.380196,0.999545,100152.84,+95,-257,-18
32958,11.990,-3.208,-0.026,-0.963708,-0.469590,1.078830,100154.47,+98,-257,-21
32968,12.204,-3.073,0.340,-0.844515,-0.555792,1.153857,100150.75,+98,-257,-21
32977,12.249,-2.953,0.967,-0.735965,-0.622838,1.229417,100150.75,+102,-259,-23
32988,12.084,-2.884,1.254,-0.658809,-0.687223,1.301252,100150.95,+105,-259,-26
32998,11.998,-2.497,1.438,-0.599212,-0.727132,1.360848,100150.95,+109,-259,-27
33008,12.618,-2.058,1.227,-0.532699,-0.813333,1.408738,100153.66,+109,-259,-27
33017,13.967,-1.549,1.218,-0.476827,-0.963388,1.418848,100152.57,+115,-259,-30
33028,15.110,-1.215,1.508,-0.475231,-1.076728,1.417251,100151.88,+117,-260,-30
33038,15.588,-1.246,1.668,-0.667854,-1.095352,1.432151,100152.30,+121,-260,-32
33048,16.214,-1.030,1.854,-1.091946,-1.116636,1.431086,100152.30,+121,-260,-32
33058,16.045,0.626,3.084,-1.311175,-1.060764,1.673728,100150.63,+126,-261,-36
33068,15.005,4.468,4.018,-1.226570,-1.095884,2.027581,100150.16,+131,-261,-39
33078,16.371,-0.402,5.237,-0.845047,-1.170379,2.858205,100151.16,+141,-259,-42
33088,16.188,-2.576,4.496,-0.337414,-1.319902,2.981122,100151.16,+141,-259,-42
33098,16.448,-2.644,4.864,-0.175121,-1.281058,3.036462,100151.16,+150,-258,-42
33107,16.182,-3.074,4.394,-0.199066,-1.202306,3.056682,100152.58,+160,-255,-42
33118,15.405,-2.497,4.376,-0.449690,-1.119296,2.893856,100150.38,+170,-253,-42
33128,14.797,-2.138,5.133,-0.436919,-1.009859,2.691300,100150.56,+179,-250,-43
33138,14.531,-2.126,4.978,-0.167139,-0.951150,2.526168,100150.56,+179,-250,-43
33147,13.888,-2.052,4.683,0.090402,-0.846856,2.263306,100150.56,+186,-248,-42
33158,12.310,-0.912,3.959,0.105833,-0.711168,1.878591,100150.41,+191,-245,-42
33168,8.401,2.465,1.795,0.016439,-0.755333,1.512499,100150.05,+196,-242,-40
33178,3.896,-0.815,2.030,0.129778,-0.934654,1.957875,100147.22,+196,-242,-40
33188,9.986,-10.218,2.147,0.459154,-0.905920,1.935526,100147.22,+202,-239,-39
33199,9.984,-4.639,2.770,0.873135,-0.512159,0.589289,100150.14,+204,-237,-35
33208,8.062,1.867,3.532,0.935924,-0.296123,0.042812,100150.14,+203,-237,-33
33218,5.854,3.015,3.595,0.925282,-0.323792,0.028977,100149.50,+203,-237,-33
33228,4.540,2.213,2.742,1.133337,-0.384985,-0.116821,100148.45,+203,-236,-28
33238,4.635,1.099,1.535,1.427062,-0.367425,-0.506325,100147.72,+200,-235,-25
33248,5.226,0.157,1.379,1.609575,-0.283884,-0.874013,100147.72,+197,-235,-19
33258,5.578,-0.535,1.645,1.630860,-0.193958,-1.184765,100150.76,+197,-235,-19
33268,5.488,-0.930,1.695,1.564346,-0.105627,-1.525315,100145.63,+191,-235,-14
33278,5.306,-0.848,1.500,1.412163,-0.020490,-1.889279,100147.04,+185,-235,-10
33288,5.324,-0.616,1.067,1.225924,0.042831,-2.238875,100145.81,+177,-237,-6
33298,5.585,-0.474,0.592,1.038622,0.091253,-2.561333,100150.11,+177,-237,-6
33308,6.056,-0.385,0.267,0.883245,0.142868,-2.841755,100147.55,+167,-238,-3
33318,6.570,-0.225,0.012,0.791723,0.213639,-3.119516,100145.34,+157,-240,-1
33328,6.878,-0.283,0.067,0.790658,0.315804,-3.379186,100145.34,+145,-241,+0
33338,7.186,-0.245,0.211,0.820989,0.404134,-3.626085,100142.61,+145,-241,+0
33348,7.465,-0.277,0.219,0.848658,0.466923,-3.878305,100142.61,+132,-243,+3
33358,7.731,-0.601,0.156,0.867282,0.519602,-4.105516,100147.34,+119,-243,+6
33368,8.155,-1.228,0.275,0.835888,0.555785,-4.312507,100146.09,+105,-243,+8
33378,8.686,-1.788,0.308,0.766713,0.592501,-4.522690,100141.20,+105,-243,+8
33388,9.279,-2.145,0.461,0.678915,0.654757,-4.729148,100141.47,+88,-242,+10
33398,9.830,-2.399,0.503,0.590053,0.730317,-4.911662,100141.47,+73,-239,+12
33409,10.367,-2.643,0.319,0.533649,0.813326,-5.063846,100144.18,+57,-237,+14
33418,11.016,-2.969,0.210,0.484695,0.890482,-5.185166,100142.12,+57,-237,+14
33428,11.852,-3.372,0.174,0.378805,0.943693,-5.294249,100144.63,+41,-233,+16
33438,12.825,-3.814,0.339,0.171283,0.975088,-5.411313,100144.63,+26,-228,+16
33448,13.575,-4.471,0.521,-0.092644,1.010207,-5.513478,100144.63,+9,-223,+18
33458,14.071,-5.145,0.535,-0.312937,1.077785,-5.569350,100145.55,+9,-223,+18
33468,14.608,-5.369,0.463,-0.420956,1.170372,-5.612983,100147.86,-5,-216,+18
33478,15.434,-5.183,0.343,-0.418827,1.263491,-5.659809,100147.13,-20,-209,+18
33483,16.042,-5.144,0.247,-0.353910,1.318298,-5.661405,100146.28,-20,-209,+18
33492,16.456,-5.266,0.182,-0.243763,1.353950,-5.624157,100146.28,-34,-201,+20
33503,16.905,-5.699,0.127,-0.063910,1.358739,-5.545405,100150.77,-47,-189,+21
33513,17.338,-6.225,-0.079,0.120200,1.308720,-5.410249,100149.15,-59,-179,+23
33523,17.767,-6.909,-0.072,0.265466,1.227840,-5.234653,100148.84,-59,-179,+23
33533,17.860,-7.616,-0.206,0.386787,1.116629,-4.996800,100145.63,-69,-167,+27
33543,17.354,-8.481,-0.298,0.508108,1.007014,-4.672213,100145.63,-77,-155,+29
33553,16.487,-9.966,-0.387,0.655502,0.904849,-4.259828,100151.27,-85,-144,+33
33563,15.607,-12.336,-0.776,0.767246,0.806409,-3.702176,100151.27,-85,-144,+33
33573,14.214,-15.633,-1.149,0.782677,0.711161,-3.025865,100151.21,-89,-134,+35
33583,12.562,-19.050,-1.598,0.639539,0.591969,-2.264948,100149.54,-92,-127,+37
33593,11.211,-20.658,-2.187,0.344218,0.394556,-1.386967,100149.54,-94,-122,+39
33603,10.504,-18.876,-1.988,0.068053,0.145528,-0.482380,100150.38,-94,-122,+39
33613,9.380,-15.890,-1.137,0.011650,-0.137554,0.379105,100153.41,-94,-122,+39
33624,8.480,-14.025,-0.044,0.227686,-0.404141,1.171949,100150.90,-92,-125,+39
33633,8.306,-13.387,0.225,0.662420,-0.586655,1.774829,100149.49,-91,-127,+38
33643,8.105,-12.536,-0.161,1.051924,-0.698930,2.214884,100149.49,-91,-127,+38
33653,7.347,-10.938,6.893,1.262108,-0.547811,2.433049,100152.92,-88,-131,+39
33664,8.944,-4.688,20.293,0.668273,0.081675,2.176040,100150.25,-84,-134,+40
33673,21.615,23.383,14.938,-1.770918,0.339216,0.789894,100146.38,-83,-140,+39
33683,30.159,21.135,-10.623,-3.587541,-1.022985,1.424701,100151.98,-83,-140,+39
33693,25.505,-8.351,-4.525,-0.051139,-0.881443,3.924021,100151.98,-80,-152,+31
33703,25.196,-18.636,2.798,2.259813,-0.503113,3.820259,100153.24,-71,-157,+34
33713,11.946,-12.605,-0.887,0.306438,-0.218435,2.951324,100154.55,-66,-162,+34
33719,2.459,-1.399,-1.697,-1.175487,-0.123719,2.708682,100152.66,-66,-162,+34
33728,1.703,8.203,2.039,-1.178148,-0.205132,3.018902,100152.66,-60,-171,+32
33738,1.082,8.539,5.324,0.277172,-0.316343,3.035929,100149.32,-52,-177,+32
33748,5.295,-0.769,2.375,1.729300,-0.437664,2.732095,100149.32,-52,-177,+32
33759,11.514,-8.934,-0.537,1.696841,-0.527058,2.656003,100154.96,-47,-178,+37
33768,13.717,-10.690,1.775,0.661356,-0.312618,2.437838,100152.66,-41,-181,+37
33778,14.059,-6.407,2.929,-0.001653,-0.148196,2.194664,100150.51,-37,-185,+37
33788,11.538,-2.902,1.370,-0.092112,-0.147132,2.010554,100150.51,-37,-185,+37
33798,8.809,-3.204,0.677,0.034530,-0.187040,1.912114,100150.51,-32,-188,+37
33808,8.393,-3.860,1.232,0.286218,-0.188104,1.823783,100151.02,-27,-191,+37
33818,8.894,-3.741,0.965,0.393704,-0.189701,1.629031,100151.51,-23,-193,+38
33828,9.334,-3.793,0.656,0.270787,-0.158838,1.450774,100152.29,-23,-193,+38
33839,10.308,-3.360,0.540,0.046769,-0.117866,1.325729,100150.24,-20,-193,+39
33848,10.170,-3.168,0.929,-0.160222,-0.056141,1.180463,100150.24,-17,-197,+37
33858,9.609,-3.174,0.917,-0.285800,-0.006655,1.053821,100150.41,-13,-199,+38
33868,9.371,-2.899,0.922,-0.366148,0.042299,0.899509,100150.77,-13,-199,+38
33879,9.306,-2.415,1.154,-0.434790,0.081675,0.760096,100150.03,-10,-201,+36
33889,9.382,-1.724,1.397,-0.423084,0.124776,0.657931,100150.03,-9,-203,+35
33898,9.533,-1.185,1.785,-0.376790,0.153510,0.581839,100152.29,-7,-205,+35
33908,9.449,-1.014,2.069,-0.351781,0.156703,0.537674,100151.04,-7,-205,+35
33918,9.213,-0.768,2.673,-0.270369,0.173198,0.513729,100151.04,-5,-206,+33
33929,8.949,-0.651,2.979,-0.168203,0.164684,0.508940,100149.04,-3,-207,+34
33938,8.889,-0.756,2.937,-0.021341,0.142336,0.517454,100149.62,-1,-207,+34
33948,9.211,-1.167,2.521,0.132971,0.093914,0.547252,100149.62,-1,-207,+34
33958,9.516,-1.625,1.999,0.229283,0.061987,0.596206,100152.47,+0,-207,+34
33969,9.490,-1.738,1.601,0.248971,0.074226,0.647821,100151.73,+1,-208,+35
33979,9.440,-1.688,1.064,0.188842,0.101363,0.714867,100151.48,+4,-208,+36
33988,9.458,-1.876,0.576,0.044640,0.135418,0.782445,100151.48,+4,-208,+36
33998,9.701,-1.810,0.260,-0.157029,0.169473,0.848958,100153.21,+7,-209,+37
34009,9.994,-1.245,0.703,-0.312405,0.192354,0.912811,100154.57,+9,-211,+36
34019,10.045,-0.766,1.815,-0.369873,0.184905,0.983582,100152.43,+13,-213,+35
34028,10.036,-0.820,2.618,-0.326772,0.142336,1.083087,100152.43,+13,-213,+35
34038,9.898,-1.315,2.836,-0.220350,0.086996,1.185784,100150.74,+17,-215,+35
34049,9.672,-1.771,2.759,-0.111268,0.041235,1.265600,100150.74,+20,-215,+35
34059,9.677,-2.104,2.698,-0.036240,0.001859,1.326261,100153.74,+24,-217,+34
34068,9.764,-2.977,2.373,-0.030919,-0.039646,1.377875,100152.07,+29,-219,+33
34078,9.715,-3.668,2.087,-0.114460,-0.048692,1.395967,100150.18,+29,-219,+33
34088,9.555,-3.984,2.167,-0.244295,-0.040178,1.377343,100150.13,+34,-220,+33
34099,9.486,-4.035,2.075,-0.366148,-0.029536,1.340628,100150.13,+37,-223,+32
34109,9.550,-4.135,1.977,-0.460332,-0.013040,1.299655,100150.05,+41,-223,+31
34118,9.376,-4.451,2.823,-0.548130,0.009308,1.259215,100151.91,+41,-223,+31
34128,9.440,-4.321,3.442,-0.712020,0.046556,1.209197,100151.99,+46,-227,+28
34139,10.162,-3.813,2.469,-0.815249,0.014097,1.175674,100151.99,+50,-228,+27
34148,10.345,-4.033,1.961,-0.881763,0.013033,1.169820,100151.99,+54,-231,+24
34158,10.747,-3.972,1.696,-1.005744,0.030061,1.175142,100149.34,+54,-231,+24
34168,11.158,-3.474,1.354,-1.139836,0.046556,1.235802,100153.41,+58,-233,+21
34179,11.611,-2.985,0.249,-1.136643,0.007180,1.320408,100153.37,+62,-236,+18
34189,12.164,-2.987,-0.519,-1.045652,-0.079554,1.410334,100150.27,+66,-238,+14
34198,12.863,-3.117,-0.507,-0.919542,-0.159903,1.516756,100150.27,+66,-238,+14
34208,13.421,-3.394,-0.308,-0.803010,-0.244508,1.624242,100156.88,+71,-240,+12
34219,13.725,-3.374,-0.088,-0.725322,-0.339756,1.709912,100151.74,+77,-242,+9
34229,14.063,-2.862,0.362,-0.688075,-0.433939,1.814738,100149.80,+82,-243,+7
34239,14.281,-2.322,0.984,-0.688607,-0.515352,1.942976,100150.99,+82,-243,+7
34248,14.264,-2.102,1.568,-0.687010,-0.570691,2.077600,100151.99,+88,-245,+5
34258,14.438,-2.096,1.835,-0.715744,-0.628691,2.197325,100151.52,+96,-245,+3
34269,14.681,-1.927,2.088,-0.840258,-0.674453,2.288315,100151.52,+102,-247,+0
34278,15.025,-1.488,2.562,-1.031285,-0.696801,2.362278,100149.12,+102,-247,+0
34288,15.058,-0.753,2.856,-1.304258,-0.698398,2.415489,100149.68,+109,-249,-2
34298,15.218,1.172,3.097,-1.619267,-0.714361,2.413893,100149.68,+117,-251,-8
34309,16.718,4.139,3.505,-1.824129,-0.841003,2.380902,100150.32,+124,-251,-13
34319,19.823,6.101,3.699,-1.801248,-1.103865,2.443691,100152.05,+124,-251,-13
34328,20.867,5.094,2.583,-1.510716,-1.325755,2.805526,100148.49,+130,-253,-18
34338,18.728,1.242,1.447,-1.003616,-1.458250,3.460021,100149.59,+142,-252,-22
34349,17.944,-3.384,2.179,-0.435855,-1.526893,3.672333,100151.81,+153,-250,-21
34359,17.708,-2.635,3.763,-0.087323,-1.464636,3.526535,100152.48,+153,-250,-21
34369,17.387,-2.352,5.318,-0.076148,-1.388544,3.362113,100151.50,+164,-247,-21
34378,17.084,-2.093,6.931,0.023888,-1.284783,3.108829,100150.23,+173,-245,-20
34388,16.517,-1.668,7.261,0.349007,-1.163994,2.857673,100150.23,+181,-240,-17
34399,15.514,-0.753,7.396,0.503319,-0.922948,2.328756,100150.23,+181,-240,-17
34409,12.754,2.640,6.253,0.395301,-0.710104,1.549747,100152.38,+188,-237,-16
34418,4.633,6.388,3.833,0.441594,-0.819719,1.364573,100149.80,+190,-235,-13
34424,6.513,-6.068,3.986,0.498530,-0.919755,2.252132,100148.96,+190,-235,-13
34434,9.945,-10.200,2.694,0.247374,-0.729260,1.497068,100149.13,+197,-233,-11
34444,10.029,-1.894,3.546,-0.158093,-0.150857,-0.222179,100149.13,+195,-233,-11
34453,7.789,3.419,3.607,-0.475763,-0.002398,-0.505793,100148.20,+194,-234,-13
34463,4.311,3.917,2.862,-0.568882,-0.069976,-0.482380,100150.29,+194,-234,-13
34473,3.958,2.579,1.986,-0.095304,-0.058270,-0.765463,100147.88,+191,-234,-13
34484,4.801,1.397,1.672,0.496402,0.043895,-1.205518,100147.99,+188,-237,-13
34493,5.074,0.950,1.704,0.852383,0.140207,-1.575866,100147.99,+182,-237,-10
34503,4.779,0.750,1.438,1.056181,0.220024,-1.946746,100148.08,+182,-237,-10
34513,4.398,0.467,0.984,1.226456,0.305161,-2.334122,100147.28,+175,-238,-8
34524,4.493,0.119,0.388,1.346181,0.371143,-2.708195,100145.72,+166,-239,-4
34534,4.987,-0.523,0.098,1.371190,0.406262,-3.027461,100145.34,+156,-240,+0
34539,5.385,-0.980,-0.110,1.316915,0.432868,-3.247755,100145.34,+156,-240,+0
34548,5.801,-1.042,-0.211,1.200383,0.473840,-3.455277,100145.34,+144,-241,+3
34558,6.299,-0.724,-0.354,1.048199,0.533436,-3.701112,100147.61,+132,-242,+6
34569,6.722,-0.412,-0.436,0.930603,0.578134,-3.920874,100145.34,+132,-242,+6
34579,7.206,-0.549,-0.160,0.890163,0.612721,-4.116158,100142.36,+119,-241,+9
34589,7.618,-1.351,0.210,0.892823,0.639326,-4.285369,100141.95,+105,-241,+11
34598,8.047,-2.184,0.194,0.836420,0.658482,-4.466286,100144.24,+90,-240,+15
34609,8.428,-2.330,0.498,0.726273,0.702115,-4.677534,100145.13,+90,-240,+15
34619,9.124,-1.896,0.641,0.595374,0.741491,-4.926561,100145.13,+75,-238,+15
34628,9.916,-1.736,0.267,0.465007,0.769693,-5.148451,100146.40,+59,-236,+18
34638,10.706,-2.010,-0.316,0.354860,0.803216,-5.312341,100145.77,+42,-232,+19
34649,11.368,-2.289,-0.925,0.287283,0.852702,-5.415570,100145.77,+42,-232,+19
34659,11.865,-2.430,-0.959,0.314420,0.916023,-5.486341,100145.68,+26,-227,+20
34668,12.635,-2.642,-0.668,0.421906,0.952739,-5.549129,100147.04,+9,-221,+22
34678,13.809,-2.773,-0.292,0.533649,0.961785,-5.618836,100144.88,-5,-213,+25
34689,15.149,-2.655,0.442,0.649649,0.964978,-5.728451,100144.73,-5,-213,+25
34699,16.559,-3.514,0.715,0.737979,0.942629,-5.813588,100149.27,-20,-202,+28
34709,17.641,-5.156,0.341,0.717759,0.904849,-5.851368,100149.42,-35,-191,+32
34719,18.364,-6.484,-0.393,0.625172,0.861748,-5.859350,100148.38,-49,-179,+33
34728,18.953,-7.197,-1.247,0.494273,0.766501,-5.799753,100148.33,-49,-179,+33
34739,19.541,-8.006,-1.481,0.380934,0.594629,-5.613515,100148.33,-61,-166,+35
34749,20.070,-9.763,-0.852,0.401686,0.391895,-5.300634,100148.33,-71,-154,+37
34758,19.425,-12.949,0.281,0.482567,0.260996,-4.862708,100150.55,-81,-141,+37
34768,17.156,-16.423,1.833,0.548016,0.269510,-4.315167,100150.55,-81,-141,+37
34779,14.198,-19.532,2.375,0.560255,0.356244,-3.612250,100149.97,-88,-130,+39
34789,11.695,-22.366,1.468,0.571429,0.413712,-2.735865,100146.72,-93,-122,+40
34799,10.029,-24.659,0.414,0.490548,0.362629,-1.791370,100146.72,-94,-116,+42
34808,9.318,-25.074,-0.275,0.243649,0.198739,-0.885720,100151.27,-94,-116,+42
34819,8.873,-23.601,-0.985,-0.011763,-0.034857,0.020463,100151.98,-94,-114,+42
34829,7.676,-21.722,-1.371,-0.082534,-0.241315,0.880885,100149.33,-95,-116,+41
34839,6.921,-18.271,-0.852,0.069118,-0.403077,1.566242,100149.33,-92,-120,+41
34849,6.984,-14.728,5.926,0.439998,-0.369554,2.029178,100150.45,-92,-120,+41
34859,9.932,0.531,21.276,0.259613,0.143400,1.832829,100150.45,-89,-124,+41
34869,31.975,31.366,3.174,-1.420790,-0.484489,0.406775,100146.98,-88,-127,+40
34879,40.284,4.835,-8.064,-1.131854,-1.516250,3.433948,100154.80,-84,-138,+35
34888,28.003,-22.346,4.388,2.831831,-0.670196,5.590056,100153.39,-84,-138,+35
34898,16.030,-18.082,0.545,2.507776,-0.146068,3.585599,100153.39,-75,-143,+40
34909,-1.040,-2.472,-0.328,-0.247488,0.185437,2.864058,100151.76,-69,-149,+42
34919,-7.122,5.830,6.425,-0.802478,-0.144471,3.255159,100152.71,-62,-157,+41
34929,1.870,-0.754,8.063,1.415887,-0.414783,3.029544,100146.52,-62,-157,+41
34938,12.467,-10.582,-0.809,2.710510,-0.724471,2.863526,100149.98,-58,-159,+45
34949,17.515,-13.497,-3.979,1.828272,-0.607939,2.711874,100152.45,-53,-159,+47
34959,14.731,-9.181,-1.289,0.352732,-0.122123,2.207434,100151.29,-49,-163,+48
34969,11.756,-4.555,-0.203,-0.469910,0.040703,1.910517,100151.29,-49,-163,+48
34978,8.976,-2.164,0.757,-0.517267,0.038574,1.831233,100151.40,-43,-167,+47
34989,8.344,-1.482,0.943,-0.177781,0.024207,1.692352,100150.09,-39,-172,+46
34999,8.059,-2.384,0.317,0.152127,0.004519,1.514628,100150.09,-35,-173,+47
35009,8.887,-3.136,-0.191,0.241521,-0.019426,1.368829,100153.37,-32,-175,+47
35018,10.466,-3.498,-0.273,0.055283,0.002391,1.213986,100152.63,-32,-175,+47
35028,11.009,-3.306,-0.056,-0.215029,0.089657,1.072976,100154.01,-30,-177,+47
35039,10.421,-2.981,0.566,-0.413506,0.202996,0.928775,100149.96,-26,-181,+46
35049,9.492,-2.483,1.104,-0.506093,0.278024,0.804261,100149.96,-24,-183,+45
35059,8.760,-2.183,1.031,-0.511414,0.317400,0.685068,100149.40,-24,-183,+45
35068,8.763,-2.184,1.079,-0.426277,0.366886,0.577582,100149.40,-22,-185,+45
35079,9.326,-1.922,1.514,-0.434258,0.376996,0.468500,100150.13,-19,-187,+45
35089,9.811,-1.476,1.429,-0.486405,0.356244,0.398261,100150.13,-17,-188,+44
35099,9.852,-0.926,1.828,-0.426277,0.358904,0.364738,100150.13,-17,-188,+44
35108,9.447,-0.655,2.054,-0.318258,0.331235,0.359417,100152.23,-15,-189,+44
35119,9.088,-0.742,2.253,-0.174057,0.312079,0.379637,100150.38,-14,-191,+43
35129,9.107,-0.935,2.193,-0.051317,0.286715,0.411032,100148.88,-12,-191,+44
35139,9.375,-0.741,2.087,-0.013892,0.260996,0.444555,100148.88,-12,-191,+44
35148,9.668,-0.322,2.058,0.000475,0.240244,0.478610,100148.88,-10,-192,+45
35159,9.788,-0.658,1.875,0.048365,0.217895,0.537674,100151.79,-9,-193,+44
35169,9.678,-1.570,1.573,0.096787,0.208317,0.603656,100148.70,-7,-193,+45
35179,9.360,-1.967,1.390,0.095723,0.224281,0.637711,100149.07,-7,-193,+45
35189,9.027,-1.722,1.418,0.063796,0.240244,0.671766,100149.07,-4,-193,+45
35200,9.002,-1.430,1.340,0.057943,0.248226,0.729234,100154.13,-1,-195,+47
35209,9.540,-1.463,1.291,0.067521,0.237051,0.794151,100154.13,+0,-195,+47
35219,10.000,-1.733,1.463,0.016439,0.220556,0.868114,100150.19,+0,-195,+47
35229,10.073,-1.864,1.632,-0.104350,0.208317,0.947931,100151.77,+3,-197,+47
35238,9.867,-1.811,1.813,-0.242167,0.197143,1.032536,100153.13,+7,-199,+47
35249,9.662,-1.570,2.149,-0.342735,0.175859,1.107564,100153.13,+10,-201,+45
35259,9.636,-1.622,2.281,-0.384240,0.139143,1.183655,100152.68,+10,-201,+45
35269,9.632,-1.797,2.143,-0.394350,0.115198,1.256554,100149.95,+13,-202,+45
35279,9.743,-1.968,2.125,-0.382644,0.094978,1.308701,100152.95,+18,-205,+44
35289,9.941,-2.479,1.924,-0.364552,0.065712,1.355527,100150.67,+21,-207,+44
35299,10.117,-2.694,1.774,-0.383708,0.065180,1.391710,100150.41,+21,-207,+44
35309,10.206,-2.867,1.784,-0.407121,0.056666,1.420976,100150.88,+26,-209,+43
35319,10.363,-3.129,2.022,-0.453946,0.036446,1.462481,100149.63,+31,-213,+42
35329,10.415,-3.449,2.927,-0.546533,0.033253,1.512499,100149.63,+35,-214,+40
35339,10.405,-3.590,4.275,-0.733836,0.061987,1.568903,100150.14,+35,-214,+40
35349,11.247,-2.921,3.638,-0.897726,0.026336,1.630095,100150.14,+40,-217,+38
35359,11.998,-2.989,3.205,-0.967964,-0.019426,1.722682,100152.12,+45,-220,+35
35368,12.743,-2.916,2.029,-0.965304,-0.082215,1.810481,100152.74,+51,-222,+32
35379,13.200,-2.703,0.559,-0.917414,-0.174269,1.934994,100150.49,+51,-222,+32
35389,13.967,-2.832,-0.322,-0.796625,-0.251958,2.049930,100151.16,+56,-226,+30
35399,14.932,-2.708,-0.935,-0.683286,-0.340288,2.169655,100151.16,+64,-227,+28
35409,15.789,-2.703,-0.765,-0.621029,-0.430214,2.295233,100152.42,+69,-231,+26
35419,16.497,-2.515,-0.163,-0.624754,-0.512159,2.422407,100151.59,+69,-231,+26
35429,16.936,-1.929,0.879,-0.730643,-0.570159,2.558627,100150.44,+77,-231,+25
35439,16.984,-1.317,2.148,-0.883891,-0.613792,2.706553,100150.44,+85,-233,+22
35449,17.031,-0.471,3.544,-1.079175,-0.637737,2.825746,100150.44,+92,-235,+18
35459,17.471,0.368,4.727,-1.326074,-0.659554,2.908223,100151.55,+102,-235,+14
35469,18.580,2.038,5.634,-1.667689,-0.690416,2.910884,100151.45,+102,-237,+14
35479,20.076,4.893,6.030,-2.012496,-0.746820,2.823086,100149.66,+109,-241,+8
35489,22.336,5.440,5.306,-2.245560,-0.843664,2.900774,100151.29,+119,-243,+1
35499,22.762,4.598,4.616,-2.253542,-0.911774,3.431287,100151.29,+130,-245,-5
35509,23.264,-1.454,5.975,-1.988019,-0.867076,4.317249,100151.20,+130,-245,-5
35519,22.540,-1.664,7.036,-1.814019,-0.800563,4.177305,100151.16,+144,-245,-10
35529,20.918,1.394,8.682,-1.911927,-0.759058,3.897947,100148.56,+156,-245,-15
35539,19.585,1.361,8.634,-1.533065,-0.717554,3.673397,100148.56,+169,-243,-20
35549,18.125,1.562,7.724,-0.989781,-0.684563,3.289746,100148.70,+169,-243,-20
35559,15.839,2.208,6.787,-0.426277,-0.582930,2.696443,100148.70,+178,-241,-21
35569,10.784,5.326,2.776,-0.158093,-0.602086,1.986609,100148.74,+185,-237,-21
35579,3.595,0.784,-0.149,0.249503,-0.922948,2.054187,100149.27,+191,-234,-18
35589,8.705,-19.443,1.631,1.072144,-0.670196,2.566077,100146.49,+191,-234,-18
35599,7.621,-8.049,1.316,1.186548,-0.131701,0.275344,100146.49,+195,-230,-14
35609,5.941,3.638,2.071,0.665080,0.190758,-0.690435,100149.20,+193,-231,-13
35619,1.793,6.457,1.368,0.496402,0.086464,-0.656380,100148.04,+191,-230,-11
35630,0.222,4.602,-0.513,0.782677,-0.104563,-0.612747,100149.46,+191,-230,-11
35639,1.222,1.385,-1.576,1.290841,-0.073169,-1.047481,100146.95,+188,-229,-6
35649,2.684,-0.385,-1.408,1.325429,-0.008783,-1.492325,100150.45,+184,-229,-3
35659,3.527,-0.956,-1.013,0.949759,0.032189,-1.845113,100146.46,+177,-229,+0
35670,3.509,-0.670,-1.282,0.529925,0.079547,-2.261755,100143.57,+177,-229,+0
35679,3.229,-0.262,-1.232,0.314420,0.147125,-2.679461,100143.57,+170,-231,+0
35689,3.459,0.198,-1.380,0.241521,0.200336,-3.035443,100147.02,+160,-233,+1
35699,3.901,0.995,-1.948,0.278769,0.233327,-3.347791,100147.02,+149,-234,+2
35709,4.751,1.407,-2.531,0.431484,0.253547,-3.594158,100145.91,+149,-234,+2
35719,5.650,1.437,-2.733,0.659227,0.274299,-3.799021,100144.91,+137,-236,+3
35729,6.182,0.935,-2.328,0.930071,0.308886,-3.975681,100144.38,+124,-237,+6
35739,6.411,-0.056,-1.336,1.187080,0.337088,-4.120947,100143.80,+111,-235,+10
35749,6.421,-1.215,-0.486,1.330218,0.333363,-4.256103,100143.80,+111,-235,+10
35760,6.346,-1.827,0.524,1.353098,0.348794,-4.442873,100143.89,+98,-233,+14
35769,6.570,-2.000,1.335,1.269025,0.386042,-4.682855,100144.61,+83,-231,+18
35779,7.299,-2.184,1.671,1.091833,0.434464,-4.901020,100143.08,+68,-227,+22
35789,8.270,-2.630,1.242,0.867282,0.501510,-5.072359,100143.08,+68,-227,+22
35799,9.270,-3.232,0.609,0.569301,0.586647,-5.175589,100143.08,+53,-223,+23
35809,10.093,-3.695,0.413,0.152127,0.662739,-5.258598,100145.75,+39,-219,+25
35819,10.820,-4.278,0.532,-0.278350,0.720739,-5.344267,100142.97,+25,-215,+25
35829,11.429,-5.038,0.948,-0.547598,0.813858,-5.431533,100146.17,+25,-215,+25
35840,12.174,-5.643,1.500,-0.682754,0.924537,-5.532634,100148.84,+11,-211,+24
35849,13.066,-5.576,1.676,-0.752460,1.016592,-5.654488,100148.84,-3,-206,+23
35859,14.009,-5.391,1.428,-0.754056,1.090023,-5.746542,100149.55,-16,-200,+23
35869,14.684,-5.798,0.880,-0.697121,1.169840,-5.757717,100146.77,-16,-200,+23
35879,14.764,-6.229,0.167,-0.615708,1.298610,-5.715680,100146.43,-30,-193,+22
35890,14.919,-6.630,0.321,-0.476295,1.437491,-5.647570,100146.43,-41,-183,+23
35899,15.889,-7.365,0.967,-0.348589,1.480592,-5.531570,100150.30,-51,-174,+24
35909,17.120,-8.994,1.796,-0.267708,1.472078,-5.319258,100150.30,-51,-174,+24
35919,17.615,-10.964,2.375,-0.217158,1.494427,-5.035111,100149.26,-61,-163,+25
35930,17.426,-12.724,2.452,-0.126699,1.567326,-4.693497,100149.46,-68,-155,+27
35939,16.578,-14.039,2.004,0.001540,1.651931,-4.223112,100146.48,-73,-145,+30
35949,15.549,-15.107,0.101,0.105833,1.660445,-3.601076,100146.48,-77,-138,+32
35959,15.161,-17.097,-3.044,0.136163,1.491234,-2.915186,100153.30,-77,-138,+32
35970,13.914,-20.177,-4.074,0.123393,1.112904,-2.142031,100152.34,-79,-132,+34
35980,11.377,-22.618,-3.187,0.178200,0.640391,-1.182637,100152.09,-80,-130,+36
35989,10.528,-21.670,-1.477,0.368163,0.241308,-0.066803,100149.25,-79,-130,+36
35999,10.002,-18.919,0.104,0.671998,-0.060930,1.087343,100153.59,-79,-130,+36
36009,8.458,-17.123,0.548,1.010420,-0.324324,2.048866,100148.14,-75,-132,+37
36020,8.144,-14.826,4.992,1.244016,-0.439792,2.645893,100149.61,-71,-136,+39
36029,10.581,-1.058,19.815,0.532585,0.138079,2.371324,100149.61,-67,-141,+39
36039,26.237,42.539,6.957,-2.143395,0.177987,0.229050,100147.20,-67,-141,+39
36049,30.369,25.430,-18.016,-3.087890,-1.550305,1.644994,100147.20,-69,-147,+30
36060,26.260,-15.350,0.280,2.376877,-0.937315,4.645029,100158.45,-61,-155,+32
36070,27.399,-21.324,0.908,3.807189,-0.390838,3.590210,100153.00,-54,-155,+39
36079,8.762,-13.812,-2.168,1.097686,-0.096049,2.822021,100153.00,-54,-155,+39
36089,-2.100,-2.223,6.651,-0.652423,-0.034325,2.999746,100152.63,-47,-161,+37
36100,1.814,0.685,8.764,0.587925,-0.200875,3.151929,100152.63,-40,-167,+37
36110,9.614,-4.484,1.554,2.131575,-0.542489,2.660260,100152.02,-35,-167,+42
36119,12.313,-10.595,-0.664,1.890529,-0.617517,2.445820,100152.26,-35,-167,+42
36129,14.007,-9.263,1.249,0.814603,-0.373279,2.234572,100151.74,-30,-168,+44
36140,13.322,-5.497,0.588,-0.218754,-0.314746,1.930737,100151.74,-26,-171,+42
36149,10.215,-2.414,0.805,-0.514075,-0.239187,1.736517,100151.74,-22,-175,+41
36159,8.548,-1.065,0.829,-0.295378,-0.161499,1.531655,100152.72,-22,-175,+41
36169,7.873,-1.566,0.183,0.012182,-0.121059,1.352334,100151.88,-20,-178,+40
36179,8.555,-1.664,0.428,0.237264,-0.040710,1.164499,100151.78,-16,-179,+41
36190,9.923,-1.715,0.558,0.298457,0.056134,1.002738,100150.73,-14,-180,+42
36199,10.406,-2.008,0.718,0.255356,0.175327,0.927711,100150.73,-14,-180,+42
36209,10.226,-1.609,1.398,0.163833,0.273235,0.848958,100149.48,-11,-181,+43
36219,9.607,-1.427,2.215,0.012182,0.295051,0.785637,100150.74,-8,-182,+42
36230,9.006,-2.067,2.595,-0.226203,0.256739,0.726573,100151.45,-5,-183,+44
36239,9.017,-2.411,2.482,-0.550790,0.215235,0.635050,100151.45,-5,-183,+44
36249,9.440,-1.634,2.186,-0.876442,0.194483,0.540867,100151.94,-4,-187,+41
36259,9.850,-0.208,1.987,-1.064276,0.191822,0.502555,100151.63,-1,-189,+40
36270,9.811,1.313,2.156,-1.033946,0.205657,0.527032,100151.63,+0,-192,+37
36279,9.375,2.045,2.206,-0.790772,0.207253,0.595674,100150.83,+0,-192,+37
36289,9.219,1.495,2.259,-0.411910,0.201400,0.708481,100151.56,+2,-194,+36
36299,9.379,0.289,2.461,-0.085726,0.188097,0.823949,100151.56,+3,-195,+36
36310,9.405,-0.686,2.720,0.046769,0.165217,0.918133,100152.65,+7,-196,+36
36320,9.207,-1.163,2.995,-0.033048,0.123712,1.000077,100149.15,+7,-196,+36
36329,9.182,-1.516,3.155,-0.211836,0.066776,1.065527,100149.93,+9,-198,+36
36339,9.301,-1.356,2.873,-0.370937,0.016758,1.125123,100150.35,+12,-200,+35
36349,9.392,-0.593,2.408,-0.464056,-0.006655,1.201747,100152.05,+16,-201,+34
36360,9.436,0.217,2.209,-0.468313,-0.026875,1.310830,100153.83,+16,-201,+34
36370,9.512,0.486,2.089,-0.360827,-0.053481,1.455563,100150.17,+20,-203,+33
36379,9.620,0.143,2.205,-0.176185,-0.080086,1.602958,100150.17,+25,-206,+32
36389,9.489,-0.662,2.490,-0.018681,-0.107224,1.726407,100147.44,+29,-207,+33
36400,9.292,-1.659,2.503,0.049962,-0.137554,1.811545,100147.44,+35,-207,+33
36410,9.319,-2.381,2.471,0.015907,-0.156178,1.842939,100151.94,+35,-209,+32
36419,9.393,-2.860,2.288,-0.063378,-0.170545,1.836554,100151.47,+39,-211,+32
36429,9.540,-3.015,2.057,-0.111268,-0.175334,1.808352,100150.73,+46,-212,+32
36440,9.653,-2.903,1.966,-0.103286,-0.159903,1.787600,100151.58,+50,-214,+30
36450,9.713,-2.949,2.123,-0.056993,-0.150325,1.780682,100151.58,+50,-214,+30
36459,9.632,-3.498,2.408,-0.025598,-0.129572,1.788664,100153.05,+56,-215,+31
36469,9.637,-3.929,2.447,-0.053268,-0.105627,1.809416,100150.38,+60,-215,+30
36480,9.729,-4.374,2.538,-0.187892,-0.105095,1.831765,100150.60,+66,-217,+29
36490,10.090,-4.758,3.262,-0.397011,-0.099774,1.852517,100150.60,+66,-217,+29
36499,10.209,-5.170,5.129,-0.685414,-0.021022,1.874334,100150.60,+72,-219,+28
36509,11.211,-4.205,4.241,-0.959983,-0.026875,1.868481,100153.53,+78,-221,+25
36519,11.526,-4.465,3.752,-1.129194,-0.028471,1.914242,100152.69,+84,-223,+22
36530,12.302,-4.180,2.376,-1.234019,-0.044967,1.989269,100149.08,+84,-223,+22
36540,13.024,-3.643,1.241,-1.300710,-0.070508,2.140743,100150.30,+90,-226,+18
36549,13.753,-3.523,0.278,-1.249983,-0.129572,2.303214,100150.30,+97,-229,+14
36559,14.329,-3.489,-0.263,-1.193579,-0.199279,2.485728,100150.56,+105,-231,+10
36570,14.669,-3.833,-0.234,-1.164845,-0.267921,2.656535,100152.39,+105,-231,+10
36580,14.973,-4.217,0.074,-1.238808,-0.336031,2.752315,100153.28,+113,-232,+7
36590,15.431,-4.149,0.900,-1.436221,-0.369022,2.703361,100152.98,+122,-233,+3
36599,15.642,-3.913,2.548,-1.665560,-0.338159,2.496902,100151.13,+130,-235,-2
36610,16.504,-3.149,3.751,-1.865634,-0.281224,2.350040,100149.15,+130,-235,-2
36620,17.100,-2.609,4.672,-2.174789,-0.217902,2.378242,100149.15,+137,-237,-9
36629,17.368,-1.653,4.638,-2.641450,-0.162031,2.404315,100153.87,+145,-239,-16
36639,18.041,2.116,4.477,-3.151743,-0.173205,2.264370,100150.98,+152,-241,-27
36649,19.827,6.080,4.239,-3.353945,-0.362636,2.079728,100150.98,+152,-241,-27
36655,22.073,5.906,3.177,-3.212404,-0.593040,2.212756,100150.73,+159,-244,-37
36665,23.293,3.417,2.275,-2.955395,-0.826104,2.662388,100151.00,+168,-244,-46
36674,23.029,2.415,3.208,-2.543009,-0.983076,3.362113,100151.05,+168,-244,-46
36684,22.410,-2.097,5.779,-1.974716,-0.959664,3.774498,100149.75,+179,-242,-52
36695,20.760,-2.019,5.615,-1.678331,-0.987333,3.416388,100149.75,+191,-239,-57
36705,19.121,-0.847,6.403,-1.699083,-1.017663,3.074773,100151.14,+200,-236,-62
36714,18.182,0.576,7.535,-1.047781,-0.991058,2.734755,100151.19,+200,-236,-62
36724,16.656,2.482,7.104,-0.162882,-0.939443,2.126022,100147.16,+208,-233,-63
36734,10.099,6.393,4.267,0.373484,-1.069810,1.494407,100149.03,+212,-232,-62
36745,4.371,-2.386,2.114,1.056713,-1.220930,1.952022,100149.03,+217,-227,-58
36755,8.930,-17.592,0.271,1.123759,-1.111315,2.072279,100153.90,+217,-227,-58
36764,8.421,-6.535,2.417,0.598035,-0.479701,-0.075848,100153.27,+220,-226,-55
36774,5.935,4.500,3.826,0.499594,-0.137554,-1.046949,100149.24,+216,-228,-55
36785,2.128,5.762,3.055,0.646989,-0.222691,-0.900086,100148.09,+212,-229,-52
36795,0.766,2.211,1.267,0.882713,-0.322728,-0.774509,100148.09,+212,-229,-52
36804,1.418,0.663,0.762,1.109392,-0.158306,-1.242765,100148.61,+209,-229,-51
36814,2.659,1.296,1.723,1.054053,-0.009848,-1.699315,100146.72,+203,-231,-48
36825,3.167,1.867,2.364,0.958273,0.047088,-1.951535,100150.34,+196,-234,-46
36835,3.126,1.177,2.132,1.077998,0.121051,-2.232489,100148.03,+196,-234,-46
36844,3.194,-0.441,1.165,1.223796,0.207253,-2.540581,100148.03,+189,-237,-43
36854,3.563,-2.071,0.009,1.254126,0.309950,-2.804507,100147.92,+179,-239,-42
36865,4.097,-2.805,-0.536,1.207300,0.427547,-3.106746,100146.88,+168,-241,-39
36875,4.922,-2.550,-1.062,1.054585,0.477033,-3.420158,100146.14,+168,-241,-39
36885,5.893,-1.941,-1.610,0.923154,0.485547,-3.694727,100146.98,+156,-244,-37
36894,6.498,-1.611,-1.835,0.919961,0.501510,-3.910231,100146.98,+143,-246,-35
36904,6.758,-1.786,-1.568,0.989135,0.538758,-4.042195,100145.88,+128,-247,-33
36915,7.060,-1.858,-0.582,1.091833,0.592501,-4.125736,100146.40,+128,-247,-33
36925,7.403,-1.749,0.620,1.250401,0.632941,-4.199167,100144.10,+113,-248,-30
36934,7.893,-2.078,1.189,1.441429,0.645180,-4.285369,100143.68,+100,-248,-26
36944,8.586,-2.916,1.175,1.582970,0.653693,-4.404029,100143.68,+85,-247,-22
36955,9.289,-4.470,1.122,1.554236,0.658482,-4.532800,100146.26,+85,-247,-22
36965,9.829,-5.882,0.760,1.312658,0.657950,-4.673809,100145.74,+70,-245,-18
36974,10.195,-6.165,0.551,0.932732,0.682959,-4.849405,100145.74,+53,-241,-14
36984,10.899,-5.298,0.378,0.491613,0.697858,-5.029258,100147.68,+36,-237,-13
36995,11.471,-4.384,0.304,0.107962,0.703179,-5.155900,100147.68,+36,-237,-13
37005,12.106,-4.071,0.372,-0.113928,0.722335,-5.216029,100146.30,+20,-233,-13
37015,12.835,-3.893,0.280,-0.217690,0.733510,-5.254341,100149.40,+1,-229,-13
37024,13.509,-4.083,0.225,-0.248020,0.751601,-5.299570,100147.13,-13,-223,-13
37035,14.335,-4.239,0.237,-0.191616,0.773950,-5.343735,100147.87,-13,-223,-13
37045,15.464,-4.162,-0.044,-0.037304,0.779271,-5.372469,100147.87,-30,-215,-13
37055,16.024,-4.569,0.123,0.245246,0.792574,-5.367148,100147.58,-46,-205,-11
37064,16.366,-5.334,0.307,0.577282,0.776611,-5.310212,100146.16,-59,-195,-9
37074,16.961,-6.161,0.381,0.808218,0.721803,-5.221882,100148.47,-59,-195,-9
37085,17.378,-6.974,0.485,0.900273,0.655822,-5.084066,100147.98,-72,-181,-6
37095,17.155,-7.942,0.721,0.882713,0.627088,-4.891974,100147.98,-85,-168,-3
37105,15.971,-9.079,1.298,0.802897,0.649969,-4.626984,100147.73,-94,-155,+0
37114,14.542,-10.455,2.137,0.651778,0.712757,-4.272598,100152.25,-102,-155,-159
37125,13.346,-12.240,2.586,0.386787,0.806409,-3.832543,100147.53,-102,-143,+1
37135,12.292,-14.355,2.143,-0.005910,0.931987,-3.343534,100151.20,-107,-132,+3
37144,11.798,-16.450,0.935,-0.529506,1.024042,-2.806104,100151.20,-111,-126,+5
37154,11.505,-18.150,-0.436,-1.113230,0.989455,-2.170765,100151.98,-113,-122,+6
37165,10.801,-18.629,-1.303,-1.591065,0.803216,-1.446563,100152.49,-113,-122,+6
37175,10.108,-17.210,-0.993,-1.835835,0.469051,-0.663298,100152.80,-114,-122,+3
37185,9.580,-13.736,-0.024,-1.616074,0.117327,0.120500,100152.34,-114,-125,+1
37194,8.341,-10.818,1.397,-0.882295,-0.119994,0.864922,100152.34,-112,-129,+0
37204,7.210,-10.321,2.059,0.090402,-0.237591,1.530591,100151.64,-112,-129,+0
37215,7.114,-11.183,0.316,1.018933,-0.319535,2.051526,100152.27,-110,-132,+1
37225,7.075,-11.790,-1.562,1.639906,-0.385517,2.400058,100152.22,-105,-137,+3
37235,6.887,-8.680,6.528,1.795814,-0.204068,2.467104,100151.06,-102,-140,+6
37244,11.148,14.889,22.167,0.781612,0.668592,1.671600,100151.06,-102,-140,+6
37255,27.870,50.013,4.948,-2.166276,0.246097,-0.471738,100150.03,-100,-142,+6
37265,31.590,6.103,-12.539,-1.315964,-1.398654,2.603856,100156.84,-98,-150,+0
37275,30.640,-21.363,0.551,4.503720,-0.522269,4.347579,100150.61,-90,-153,+9
37284,19.610,-13.746,-2.643,2.972308,0.234391,2.455930,100153.02,-90,-153,+9
37295,-2.934,-9.726,4.753,-0.273029,0.418501,2.524572,100153.02,-85,-156,+12
37305,0.133,-10.510,10.454,-0.099561,-0.112545,3.453104,100150.51,-77,-164,+11
37315,16.870,-6.903,0.185,1.598401,-0.783003,2.890663,100151.66,-72,-169,+13
37324,19.560,-5.904,-2.278,1.472291,-0.636141,2.448480,100154.49,-72,-169,+13
37335,10.299,-6.166,2.299,0.641668,-0.145536,2.512333,100149.51,-67,-172,+16
37345,8.633,-3.392,2.491,-0.195873,-0.255150,2.437306,100149.51,-61,-177,+14
37355,8.044,-1.245,0.884,-0.448093,-0.388178,2.177636,100152.98,-57,-182,+13
37360,7.861,-1.459,0.443,-0.171928,-0.357847,1.966921,100152.05,-57,-182,+13
37369,8.135,-2.004,-0.075,0.207998,-0.308361,1.729600,100152.05,-52,-186,+13
37380,9.741,-2.155,-0.706,0.403815,-0.237058,1.534316,100151.83,-50,-188,+14
37390,11.219,-2.323,-0.806,0.203741,-0.110416,1.477912,100152.30,-50,-188,+14
37400,11.214,-2.313,-0.670,-0.183103,0.039639,1.408206,100152.30,-46,-191,+14
37410,10.153,-1.914,0.050,-0.535891,0.173730,1.289013,100151.05,-43,-194,+12
37420,9.427,-1.666,1.663,-0.656148,0.267914,1.138426,100154.21,-39,-197,+11
37430,9.186,-2.699,2.129,-0.733836,0.252483,0.992096,100149.80,-39,-197,+11
37440,9.381,-3.086,1.579,-0.884423,0.219492,0.841509,100149.80,-35,-199,+10
37449,9.843,-2.020,1.828,-1.011065,0.245565,0.677619,100149.80,-33,-203,+8
37459,10.112,-0.608,1.750,-1.011065,0.259932,0.597803,100156.77,-31,-206,+6
37470,10.162,0.006,1.825,-0.863139,0.264721,0.605784,100152.98,-31,-206,+6
37480,9.877,-0.227,2.115,-0.682754,0.265253,0.638243,100153.83,-29,-207,+5
37490,9.794,-0.840,2.391,-0.605066,0.250886,0.653674,100150.00,-26,-210,+3
37500,9.891,-1.521,2.670,-0.641249,0.223216,0.646224,100150.00,-24,-212,+2
37510,9.968,-1.645,2.658,-0.774276,0.184372,0.626004,100153.51,-24,-212,+2
37520,9.850,-1.269,2.776,-0.897726,0.164152,0.610041,100151.26,-22,-214,+0
37530,9.510,-0.925,3.008,-0.941359,0.146061,0.625472,100151.41,-20,-216,-2
37540,9.193,-0.962,3.109,-0.930185,0.116795,0.666977,100151.41,-17,-219,-5
37550,9.047,-0.748,3.164,-0.898258,0.071565,0.727637,100152.80,-17,-219,-5
37560,9.000,-0.301,3.438,-0.810992,0.018354,0.790958,100152.80,-15,-221,-6
37570,8.929,-0.368,3.421,-0.678497,-0.032728,0.869711,100152.23,-12,-223,-9
37580,8.838,-1.064,2.983,-0.580056,-0.077426,0.953252,100151.02,-9,-225,-10
37590,8.723,-1.348,2.648,-0.558772,-0.093921,1.020830,100150.02,-9,-225,-10
37596,8.519,-1.155,2.670,-0.567818,-0.099242,1.066591,100150.02,-7,-227,-11
37605,8.325,-1.123,2.782,-0.546001,-0.106692,1.118738,100153.54,-3,-230,-13
37615,8.155,-1.364,2.836,-0.480020,-0.119462,1.185784,100152.70,-3,-230,-13
37625,8.332,-1.722,2.704,-0.409249,-0.145003,1.238995,100150.76,+0,-231,-15
37635,8.653,-1.753,2.495,-0.345928,-0.163627,1.281564,100150.23,+4,-234,-16
37645,8.835,-1.284,2.588,-0.251213,-0.173737,1.330518,100150.23,+8,-235,-17
37655,8.786,-1.113,2.761,-0.082002,-0.197150,1.397563,100154.64,+8,-235,-17
37665,8.743,-1.664,2.342,0.128182,-0.240783,1.475251,100153.38,+13,-237,-17
37675,9.033,-2.020,2.048,0.346879,-0.266324,1.533784,100150.81,+17,-239,-16
37685,9.383,-2.461,2.533,0.488420,-0.278563,1.586462,100152.80,+22,-239,-14
37695,9.620,-3.866,2.157,0.433081,-0.302508,1.652444,100152.80,+22,-239,-14
37705,10.183,-5.096,1.034,0.168090,-0.319535,1.691820,100150.91,+28,-240,-14
37714,11.000,-4.820,0.546,-0.243231,-0.299315,1.680114,100151.07,+33,-241,-15
37725,11.484,-4.066,1.068,-0.557176,-0.259939,1.686499,100153.43,+39,-243,-16
37735,11.420,-3.629,1.574,-0.694460,-0.257279,1.738646,100149.29,+39,-243,-16
37745,11.161,-3.457,1.567,-0.700845,-0.286013,1.798774,100149.29,+44,-246,-19
37755,11.250,-3.500,1.990,-0.626882,-0.320068,1.859967,100153.88,+50,-248,-21
37765,11.688,-4.054,2.254,-0.532166,-0.359444,1.915306,100151.84,+56,-249,-23
37775,12.079,-4.449,1.835,-0.502368,-0.389774,1.969049,100151.37,+56,-249,-23
37785,12.529,-4.352,1.465,-0.556644,-0.411058,2.016407,100152.04,+63,-251,-25
37795,13.209,-4.267,1.190,-0.640717,-0.448306,2.066425,100152.04,+69,-253,-28
37805,13.898,-4.193,0.873,-0.742350,-0.498856,2.105269,100152.12,+77,-254,-30
37815,14.537,-3.929,0.662,-0.867928,-0.537168,2.096224,100153.01,+77,-254,-30
37825,15.104,-3.537,0.890,-1.008405,-0.564306,2.055251,100155.12,+84,-255,-33
37835,15.626,-3.197,1.145,-1.138240,-0.595168,2.110058,100153.59,+91,-256,-36
37844,15.812,-3.137,1.209,-1.329267,-0.618581,2.203710,100153.59,+98,-257,-41
37855,16.171,-2.811,1.783,-1.625652,-0.603150,2.274480,100156.81,+98,-257,-41
37865,16.924,-1.849,2.214,-2.015689,-0.570691,2.327159,100151.47,+106,-259,-47
37875,17.432,-0.329,2.297,-2.517468,-0.524930,2.384095,100152.72,+115,-260,-54
37885,18.005,2.294,2.100,-3.042128,-0.516416,2.401654,100150.94,+122,-261,-64
37895,18.340,6.088,2.586,-3.347559,-0.630288,2.333544,100150.94,+122,-261,-64
37905,18.667,8.472,3.850,-2.613248,-0.867608,2.282994,100149.16,+131,-262,-75
37915,19.911,3.568,3.053,-0.961047,-1.187939,2.786370,100151.37,+140,-261,-78
37925,18.106,-4.734,3.293,-0.062314,-1.355021,3.461617,100150.63,+153,-259,-78
37935,16.906,-9.492,5.059,0.239393,-1.204966,3.638810,100148.96,+153,-259,-78
37945,16.817,-8.451,6.121,-0.041029,-1.035755,3.415324,100148.96,+166,-255,-76
37955,16.992,-4.619,8.155,-0.138937,-0.881975,3.088076,100150.20,+176,-252,-76
37965,15.599,-0.051,10.021,0.138292,-0.702654,2.600132,100150.77,+185,-249,-74
37975,12.738,5.558,7.944,0.409668,-0.659021,1.960536,100149.62,+185,-249,-74
37985,8.036,2.503,6.716,0.635814,-0.791517,1.725875,100147.88,+190,-247,-73
37995,2.810,-6.923,5.176,0.342090,-0.946893,2.040352,100147.88,+197,-245,-70
38005,6.282,-2.702,3.861,-0.246424,-0.742563,0.662188,100152.76,+199,-244,-69
38016,8.466,2.031,2.357,-0.709359,-0.628691,-0.315830,100150.02,+199,-244,-69
38025,5.344,2.053,0.532,-1.028093,-0.695737,-0.423316,100148.55,+196,-244,-73
38035,4.211,2.265,-0.795,-0.961579,-0.689884,-0.678729,100150.18,+195,-246,-75
38045,4.730,2.265,-1.201,-0.485341,-0.630288,-1.082068,100150.18,+190,-247,-76
38055,5.516,3.083,-1.266,0.080292,-0.610600,-1.438582,100151.77,+184,-247,-76
38066,5.650,3.672,-0.619,0.692928,-0.612551,-1.757493,100151.15,+184,-251,-73
38075,5.262,3.173,0.085,1.266364,-0.602086,-1.989847,100148.63,+177,-252,-69
38085,5.287,2.199,0.305,1.926181,-0.575480,-2.261223,100146.12,+167,-254,-63
38095,4.988,0.522,1.195,2.551942,-0.500985,-2.485774,100146.12,+158,-254,-54
38106,5.232,-0.825,1.550,2.907923,-0.462141,-2.732672,100149.71,+158,-254,-54
38115,5.675,-1.560,1.567,2.969648,-0.447242,-3.017883,100145.99,+147,-255,-44
38125,6.581,-1.798,1.277,2.855776,-0.471719,-3.303094,100143.95,+134,-255,-34
38135,7.432,-2.267,0.890,2.620584,-0.514820,-3.564892,100144.41,+121,-254,-27
38146,8.000,-3.451,0.641,2.257685,-0.558985,-3.785186,100144.41,+121,-254,-27
38155,8.081,-4.571,0.419,1.747924,-0.564306,-3.983663,100145.61,+105,-253,-21
38165,7.872,-4.713,0.775,1.186016,-0.500985,-4.207149,100146.28,+90,-253,-16
38175,8.081,-3.751,1.378,0.668273,-0.421168,-4.431167,100142.09,+73,-252,-15
38185,8.628,-2.948,1.966,0.287815,-0.337095,-4.590268,100142.56,+73,-252,-15
38195,9.241,-2.906,1.919,0.112751,-0.273242,-4.696690,100142.56,+56,-251,-15
38205,10.099,-3.420,1.769,0.139356,-0.199279,-4.789809,100144.97,+39,-248,-15
38215,10.974,-4.023,1.428,0.341026,-0.103499,-4.882928,100143.39,+20,-244,-13
38225,11.624,-4.326,1.274,0.666145,0.004519,-4.945717,100145.75,+20,-244,-13
38235,12.063,-4.416,1.279,1.090236,0.099235,-4.991478,100146.17,+3,-239,-11
38245,12.644,-4.089,1.576,1.545722,0.158299,-5.024469,100146.17,-12,-230,-6
38255,13.437,-3.729,1.798,1.955447,0.152446,-5.029790,100148.18,-29,-220,+0
38265,14.062,-3.876,1.912,2.260345,0.101895,-5.000525,100146.07,-29,-220,+0
38276,14.515,-4.390,2.039,2.446584,0.039639,-4.946782,100146.55,-44,-208,+6
38285,14.754,-6.056,1.829,2.566308,-0.029004,-4.841956,100148.07,-58,-195,+13
38295,14.701,-8.242,1.695,2.592382,-0.088068,-4.717442,100148.07,-71,-181,+19
38305,14.778,-9.306,2.028,2.505116,-0.112013,-4.629644,100148.73,-71,-181,+19
38316,14.754,-9.442,2.497,2.356657,-0.110948,-4.565259,100150.63,-83,-166,+23
38325,14.672,-9.401,2.946,2.271520,-0.108288,-4.416800,100148.47,-93,-151,+28
38335,14.503,-9.796,3.547,2.303978,-0.084343,-4.184800,100146.75,-103,-136,+32
38345,14.192,-10.083,4.257,2.387520,-0.072104,-3.899057,100146.75,-103,-136,+32
38355,13.577,-10.267,4.359,2.496602,-0.096581,-3.538287,100152.27,-109,-120,+35
38365,12.723,-10.780,4.130,2.565776,-0.110948,-3.128030,100148.77,-115,-105,+39
38375,11.803,-11.791,3.891,2.523740,-0.114673,-2.677865,100148.98,-119,-92,+42
38385,10.844,-13.478,3.766,2.332712,-0.108288,-2.189920,100149.40,-119,-92,+42
38395,9.795,-15.639,3.679,1.991098,-0.063591,-1.679627,100149.40,-121,-81,+44
38406,8.784,-17.080,3.200,1.531887,0.015162,-1.159224,100150.77,-123,-73,+45
38415,8.257,-16.568,2.747,1.061502,0.073162,-0.628178,100151.08,-124,-70,+47
38425,8.178,-14.427,2.593,0.780016,0.075822,-0.082234,100148.98,-124,-70,+47
38435,7.868,-12.626,2.348,0.795979,0.018886,0.470096,100148.77,-124,-68,+47
38446,7.239,-11.021,2.018,0.992860,-0.023682,0.955912,100148.77,-123,-68,+49
38455,6.613,-8.223,1.566,1.236034,-0.035389,1.296995,100150.29,-122,-68,+50
38465,7.201,-6.234,1.973,1.528162,-0.065187,1.535380,100149.87,-122,-68,+50
38475,8.075,-5.646,6.129,1.709080,0.050813,1.753545,100149.18,-121,-69,+52
38486,13.977,10.557,13.634,1.171117,0.446170,1.136298,100147.13,-119,-70,+54
38495,29.375,22.775,3.890,-0.305488,0.071033,0.273216,100147.13,-118,-72,+55
38505,34.260,-2.029,-3.905,-0.144791,-0.080086,2.861398,100151.26,-118,-72,+55
38515,23.949,-16.662,-3.036,1.559557,0.751069,3.619122,100151.46,-113,-81,+56
38525,10.300,-12.190,0.746,0.590053,1.118225,2.482535,100151.30,-107,-86,+60
38536,-4.603,-11.419,10.873,-0.962111,1.258702,2.477214,100146.74,-102,-94,+62
38545,6.106,-6.410,5.123,-0.688607,0.458409,2.903966,100146.74,-97,-94,+62
38555,16.729,-1.704,1.726,0.269723,0.020483,2.693251,100153.30,-97,-103,+62
38565,13.364,-5.781,-1.056,0.917300,0.067840,2.367067,100152.21,-92,-108,+64
38576,11.986,-6.471,-1.837,0.528860,0.038574,2.431453,100149.43,-89,-112,+64
38585,9.927,-3.453,-1.034,0.166494,0.119455,2.023324,100151.32,-86,-117,+66
38595,9.253,-1.631,-0.306,0.187246,0.151914,1.751949,100151.32,-86,-117,+66
38605,9.328,-1.448,0.204,0.297925,0.111473,1.606151,100152.49,-82,-120,+66
38616,9.040,-2.248,-0.090,0.386255,0.082740,1.471527,100152.12,-80,-122,+67
38626,9.553,-2.755,-0.748,0.411264,0.079015,1.297527,100153.01,-77,-124,+69
38635,10.383,-3.425,-0.906,0.304310,0.114666,1.116077,100150.34,-77,-124,+69
38645,10.703,-2.978,-0.785,0.018567,0.174795,0.942078,100150.34,-75,-126,+70
38656,10.254,-2.128,-0.634,-0.171928,0.219492,0.805325,100152.39,-73,-128,+69
38666,9.553,-2.178,-0.048,-0.193213,0.238116,0.690922,100153.55,-71,-130,+69
38675,9.252,-2.419,-0.037,-0.224075,0.246097,0.583968,100152.77,-71,-130,+69
38685,9.272,-2.309,-0.226,-0.309745,0.272703,0.488188,100149.25,-69,-132,+69
38695,9.618,-2.234,-0.387,-0.410313,0.307290,0.407839,100149.25,-69,-135,+69
38706,9.998,-2.271,-0.528,-0.536955,0.345070,0.339197,100152.56,-67,-136,+69
38715,10.013,-1.806,-0.729,-0.664662,0.380189,0.284390,100152.09,-67,-136,+69
38725,9.758,-1.412,-0.037,-0.679561,0.396684,0.261509,100151.20,-64,-138,+69
38735,9.415,-1.143,0.672,-0.627414,0.390831,0.255656,100150.58,-63,-141,+68
38746,9.364,-0.937,1.034,-0.573671,0.355712,0.265234,100150.58,-62,-143,+67
38756,9.619,-0.937,1.333,-0.492790,0.305694,0.285986,100153.34,-62,-143,+67
38765,9.792,-1.208,1.175,-0.379983,0.256739,0.298225,100153.29,-61,-145,+69
38775,9.586,-1.625,0.715,-0.276222,0.224281,0.310995,100148.41,-60,-146,+67
38786,9.251,-1.679,0.487,-0.228864,0.193418,0.323234,100150.40,-59,-148,+68
38796,9.282,-1.344,0.619,-0.198534,0.149785,0.335472,100150.40,-59,-148,+68
38805,9.624,-1.321,0.809,-0.135213,0.092317,0.364206,100152.34,-57,-148,+68
38815,9.869,-1.392,0.953,-0.087855,0.047620,0.394004,100152.02,-57,-150,+67
38825,9.804,-1.159,1.072,-0.068699,0.008776,0.428059,100150.93,-55,-150,+67
38836,9.588,-1.120,1.104,-0.042093,-0.022618,0.472225,100150.71,-55,-150,+67
38845,9.503,-1.167,1.122,-0.012295,-0.064123,0.519582,100150.71,-54,-152,+67
38855,9.558,-1.136,1.297,0.013778,-0.118398,0.566940,100154.54,-54,-153,+67
38865,9.474,-0.807,1.185,0.097319,-0.163627,0.616958,100150.77,-53,-153,+67
38876,9.477,-1.018,0.787,0.225026,-0.216838,0.685601,100151.93,-53,-153,+67
38886,9.646,-1.470,0.441,0.345282,-0.272178,0.735619,100148.26,-52,-155,+67
38895,9.642,-1.439,0.349,0.432548,-0.308361,0.769142,100148.26,-51,-155,+68
38905,9.488,-1.595,0.495,0.520347,-0.343480,0.818628,100154.84,-51,-155,+68
38916,9.474,-2.065,0.763,0.577814,-0.376471,0.859068,100152.02,-51,-155,+68
38926,9.638,-2.550,1.106,0.566108,-0.414783,0.872903,100150.92,-49,-155,+69
38935,9.938,-2.918,1.282,0.476714,-0.451499,0.869178,100152.08,-49,-155,+69
38945,10.333,-3.075,1.145,0.339429,-0.477040,0.851087,100152.08,-47,-157,+69
38956,10.640,-3.117,0.782,0.188842,-0.500453,0.837252,100152.23,-47,-157,+69
38966,10.865,-2.856,0.582,0.030273,-0.532911,0.835123,100150.80,-47,-157,+67
38975,10.909,-2.266,0.532,-0.082534,-0.558453,0.861197,100151.49,-46,-159,+67
38985,10.678,-1.965,0.524,-0.126699,-0.589847,0.921857,100150.34,-47,-161,+66
38995,10.675,-1.914,0.552,-0.158625,-0.639866,0.986243,100150.34,-47,-161,+66
39006,11.135,-1.963,0.127,-0.185231,-0.708508,1.034132,100154.33,-45,-164,+65
39016,11.621,-2.078,-0.416,-0.169800,-0.759058,1.068187,100152.70,-44,-166,+63
39025,11.640,-2.509,-0.801,-0.149580,-0.804820,1.095857,100151.13,-43,-169,+61
39035,11.816,-2.906,-1.201,-0.191616,-0.860691,1.103307,100152.17,-43,-169,+60
39046,12.401,-2.897,-1.965,-0.262919,-0.930930,1.084151,100152.17,-43,-171,+60
39056,13.254,-2.382,-2.599,-0.283671,-0.997975,1.074573,100153.41,-44,-173,+57
39065,13.810,-1.812,-3.023,-0.282075,-1.090030,1.110224,100153.45,-43,-177,+55
39075,14.615,-0.772,-2.769,-0.102222,-1.188471,1.202279,100154.72,-43,-179,+52
39086,14.724,-0.717,-2.236,-0.070827,-1.334801,1.331050,100151.78,-43,-179,+52
39096,14.853,-0.206,-0.925,-0.029855,-1.442287,1.446518,100151.78,-43,-181,+50
39106,14.663,-0.007,0.557,0.053686,-1.543388,1.521013,100152.43,-43,-185,+48
39115,14.696,0.118,1.572,0.106365,-1.623737,1.598701,100151.70,-41,-187,+45
39126,14.330,0.357,2.480,0.121442,-1.675351,1.682774,100152.10,-41,-187,+45
39136,13.602,0.060,2.843,0.101044,-1.738140,1.752481,100149.49,-41,-190,+44
39145,12.691,0.040,3.271,-0.076681,-1.842434,1.837618,100149.49,-40,-193,+40
39155,12.628,1.032,4.567,-0.332093,-1.970672,1.866352,100152.95,-39,-197,+36
39165,13.553,2.933,6.043,-0.461928,-2.128709,1.841875,100149.70,-39,-197,+36
39176,15.375,3.559,7.352,-0.225139,-2.260140,1.945637,100148.50,-39,-202,+32
39186,16.645,1.334,7.130,0.164897,-2.391039,2.350040,100149.55,-37,-205,+28
39195,17.362,-1.727,6.043,0.448512,-2.463406,2.677287,100149.55,-34,-208,+25
39205,18.083,-1.071,5.186,0.424035,-2.527259,2.792755,100154.62,-34,-208,+25
39216,18.009,0.016,7.379,0.402750,-2.599094,2.807654,100151.10,-30,-213,+23
39226,18.016,0.339,7.978,1.003502,-2.621442,2.768810,100150.48,-27,-216,+22
39235,17.197,2.025,7.131,1.699502,-2.427222,2.503288,100150.21,-24,-216,+23
39241,15.213,4.840,6.136,2.125722,-2.258543,2.154223,100150.21,-24,-216,+23
39250,11.763,5.045,6.063,2.767446,-2.180856,1.933398,100150.21,-22,-214,+28
39261,8.443,-2.058,5.716,3.383629,-2.236727,2.058444,100148.73,-20,-214,+33
39271,11.549,-10.904,3.490,3.461849,-2.227149,1.961600,100146.52,-20,-210,+33
39281,13.668,-5.431,2.739,3.028712,-1.931828,0.997949,100148.73,-20,-206,+39
39290,10.962,4.524,7.094,3.211758,-1.508269,0.029509,100148.31,-24,-200,+44
39301,8.074,3.370,8.625,3.611372,-1.425792,-0.000289,100149.09,-27,-191,+50
39311,6.465,0.137,6.074,3.453336,-1.523700,0.051858,100149.52,-27,-191,+50
39320,6.621,-1.518,5.125,3.331482,-1.373645,-0.216858,100149.52,-31,-183,+56
39330,7.691,-1.276,5.016,3.078198,-1.263498,-0.603701,100147.89,-36,-175,+61
39341,8.037,-0.665,5.188,2.768510,-1.231572,-0.978839,100144.53,-41,-167,+65
39351,7.886,-0.432,5.290,2.550345,-1.219333,-1.370471,100144.53,-41,-167,+65
39361,7.657,-0.583,4.850,2.461483,-1.192196,-1.767425,100145.84,-48,-157,+67
39370,7.681,-0.917,4.103,2.409336,-1.146966,-2.131921,100143.48,-57,-146,+69
39380,7.696,-1.348,3.451,2.329520,-1.103865,-2.455975,100145.42,-64,-134,+71
39391,7.681,-1.726,3.171,2.226822,-1.063425,-2.765131,100145.58,-64,-134,+71
39401,7.650,-1.934,3.358,2.111887,-1.022452,-3.070562,100145.58,-73,-122,+72
39411,7.728,-1.761,4.004,2.028346,-0.988397,-3.371204,100146.79,-82,-110,+73
39420,7.749,-1.400,4.366,2.056015,-0.928269,-3.631406,100142.73,-90,-95,+73
39431,7.911,-1.272,4.712,2.210859,-0.838875,-3.846378,100139.37,-90,-95,+73
39441,8.086,-1.430,5.202,2.460951,-0.725535,-4.031553,100139.37,-96,-78,+73
39450,8.132,-1.975,5.520,2.697740,-0.620710,-4.182672,100139.37,-103,-60,+72
39460,8.257,-2.872,5.801,2.843538,-0.512159,-4.318892,100143.52,-108,-40,+72
39471,8.495,-3.814,5.926,2.892492,-0.386049,-4.445002,100140.91,-108,-40,+72
39481,8.844,-4.384,5.868,2.853116,-0.230141,-4.559405,100141.53,-111,-18,+72
39491,9.441,-4.542,5.758,2.738712,-0.077958,-4.686048,100144.58,-113,+2,+71
39500,10.118,-4.978,5.700,2.526400,0.057730,-4.789809,100144.58,-111,+23,+69
39511,10.619,-5.741,5.820,2.237465,0.192354,-4.886121,100147.03,-111,+23,+69
39521,11.008,-6.457,5.607,1.864988,0.336556,-4.988818,100145.19,-108,+43,+69
39531,11.385,-6.711,5.469,1.432915,0.512152,-5.095772,100144.77,-104,+62,+69
39541,11.859,-6.409,5.193,1.026383,0.707436,-5.194212,100144.77,-96,+80,+69
39550,12.324,-6.032,4.610,0.679447,0.893143,-5.249552,100145.98,-96,+80,+69
39561,12.726,-5.763,3.875,0.365503,1.071931,-5.259662,100145.98,-88,+96,+69
39571,13.163,-5.894,2.974,0.036659,1.242207,-5.248487,100145.73,-77,+109,+71
39581,13.578,-6.217,2.271,-0.293781,1.405032,-5.196873,100147.05,-67,+121,+74
39590,14.311,-6.372,1.762,-0.499708,1.542317,-5.122377,100143.95,-67,+121,+74
39601,15.157,-6.852,0.958,-0.575267,1.586482,-5.009038,100143.95,-54,+131,+77
39611,15.617,-7.143,-0.239,-0.605598,1.519968,-4.833442,100145.82,-41,+139,+80
39621,15.910,-7.072,-0.923,-0.476295,1.417803,-4.629644,100145.55,-28,+147,+83
39631,16.155,-7.478,-1.011,-0.156497,1.310849,-4.364121,100146.87,-28,+147,+83
39641,16.090,-8.840,-1.004,0.231943,1.207619,-4.004947,100147.27,-15,+155,+84
39651,15.405,-10.929,-1.122,0.586328,1.130996,-3.561167,100152.10,-4,+163,+83
39661,14.575,-13.120,-1.653,0.888034,1.035748,-3.017883,100153.41,+3,+169,+84
39670,13.486,-14.966,-2.034,1.107264,0.879840,-2.379884,100153.41,+3,+169,+84
39681,12.424,-16.145,-1.714,1.218475,0.636134,-1.668453,100148.74,+11,+175,+82
39691,11.210,-16.910,-1.013,1.263704,0.341877,-0.886252,100149.52,+15,+181,+79
39701,10.304,-16.993,0.004,1.241887,0.079547,-0.052968,100149.52,+15,+184,+76
39711,9.582,-16.248,1.152,1.174842,-0.097646,0.706885,100153.80,+15,+184,+76
39720,8.507,-15.068,1.616,1.126952,-0.217370,1.317747,100150.50,+13,+186,+74
39731,7.798,-13.728,1.570,1.135998,-0.306233,1.794517,100152.39,+9,+187,+71
39741,7.915,-10.658,3.570,1.125888,-0.331242,2.048334,100150.70,+3,+187,+67
39751,8.924,-8.190,12.023,1.028511,-0.147132,2.122829,100150.70,-1,+187,+67
39761,14.567,6.557,18.056,0.119668,0.289730,1.699802,100148.01,-1,+187,+67
39771,31.068,21.438,-4.570,-1.804973,-0.567499,0.977197,100152.21,-4,+183,+69
39781,30.980,-1.300,-10.622,-0.480020,-1.143241,3.426498,100150.79,-14,+175,+69
39791,25.174,-15.052,2.769,3.043611,-0.317939,4.101213,100150.79,-24,+177,+62
39800,17.879,-10.458,-0.159,2.445520,0.036978,3.460553,100150.79,-24,+177,+62
39811,2.553,-1.805,-0.634,0.496402,0.098703,3.310498,100156.64,-30,+175,+60
39821,-3.329,3.474,1.295,0.198420,-0.131701,3.385525,100152.70,-39,+169,+59
39831,1.698,0.021,2.793,1.605318,-0.251780,2.836743,100151.66,-45,+167,+56
39840,9.275,-5.775,1.714,2.242786,-0.313150,2.443691,100151.66,-45,+167,+56
39851,15.205,-12.810,0.655,1.907025,-0.254086,2.519783,100151.66,-51,+167,+50
39861,18.228,-10.115,-0.059,1.007227,-0.046563,2.391545,100150.39,-56,+165,+49
39871,13.950,-5.887,0.789,0.034530,0.152446,2.102609,100152.81,-60,+159,+50
39881,9.895,-4.321,-0.023,-0.289524,0.139675,2.070150,100148.25,-60,+159,+50
39891,7.869,-2.054,0.704,-0.227800,0.159363,1.854646,100148.25,-64,+155,+50
39901,6.166,-1.257,0.685,0.062200,0.164684,1.576884,100152.99,-66,+150,+52
39911,8.353,-1.914,0.598,0.368695,0.116795,1.406077,100152.99,-69,+148,+50
39921,10.194,-2.781,0.602,0.445851,0.122116,1.258151,100148.12,-69,+148,+50
39930,11.271,-2.636,0.499,0.295796,0.168409,1.145876,100151.46,-71,+146,+52
39941,10.964,-2.325,0.310,0.112218,0.217363,1.074573,100151.73,-73,+143,+52
39947,10.181,-2.005,0.541,0.031338,0.257272,1.016573,100151.73,-73,+143,+52
39956,9.351,-1.961,0.645,-0.031451,0.288666,0.946867,100153.41,-73,+140,+52
39966,8.788,-2.273,0.534,-0.127763,0.311015,0.867050,100151.94,-75,+140,+53
39975,8.996,-2.283,0.286,-0.262387,0.336556,0.778188,100151.00,-75,+140,+53
39986,9.666,-1.713,0.145,-0.397543,0.394024,0.709013,100150.38,-75,+137,+55
39996,10.078,-1.108,0.273,-0.472570,0.468519,0.688793,100150.38,-75,+134,+56
40006,9.848,-0.693,0.653,-0.496515,0.523326,0.725509,100152.92,-75,+131,+58
40016,9.461,-0.435,1.240,-0.498644,0.540886,0.762224,100155.66,-74,+131,+59
40026,9.245,-0.722,1.583,-0.501304,0.524391,0.800536,100153.81,-74,+128,+59
40036,9.506,-1.499,1.577,-0.585910,0.490868,0.831931,100150.47,-76,+124,+61
40046,9.688,-2.401,1.613,-0.757781,0.458409,0.846298,100150.47,-75,+120,+64
40056,9.606,-2.390,2.074,-0.950405,0.442978,0.840445,100153.56,-76,+115,+67
40066,9.634,-1.449,2.463,-1.057359,0.408391,0.838848,100148.22,-76,+115,+67
40076,9.573,-0.692,2.651,-0.960515,0.355180,0.856940,100150.42,-76,+111,+69
40086,9.525,-0.629,2.617,-0.694460,0.292923,0.890995,100149.89,-76,+106,+70
40096,9.664,-1.136,2.457,-0.426277,0.240776,0.941013,100149.89,-77,+103,+71
40105,9.692,-1.840,2.137,-0.263451,0.191290,0.985711,100152.77,-77,+103,+71
40116,9.594,-2.241,2.010,-0.200662,0.161492,1.014977,100150.41,-78,+100,+71
40126,9.556,-2.374,2.076,-0.232057,0.143932,1.037857,100150.47,-79,+97,+73
40136,9.771,-2.526,1.995,-0.291121,0.117327,1.051692,100151.36,-80,+93,+73
40145,10.124,-2.788,1.996,-0.345396,0.111473,1.055949,100151.36,-80,+93,+73
40156,10.170,-2.866,2.218,-0.409249,0.125308,1.054885,100154.73,-81,+90,+74
40166,10.110,-3.049,2.323,-0.474167,0.132226,1.062866,100150.74,-82,+86,+75
40176,10.095,-3.456,2.800,-0.550790,0.151382,1.068720,100152.26,-82,+82,+76
40186,9.455,-3.817,5.291,-0.768955,0.265785,1.066591,100149.21,-82,+82,+76
40196,10.140,-2.904,4.365,-0.997763,0.280684,1.070848,100149.21,-83,+76,+78
40206,10.801,-3.196,3.193,-1.110038,0.239712,1.095325,100152.98,-83,+70,+79
40216,11.314,-2.809,2.801,-1.209010,0.214703,1.129380,100150.63,-84,+64,+81
40226,11.614,-2.084,2.378,-1.312772,0.161492,1.246444,100149.89,-84,+64,+81
40236,12.021,-1.682,1.559,-1.306386,0.079015,1.390646,100148.38,-85,+58,+82
40246,12.777,-2.122,0.904,-1.247854,-0.012508,1.526866,100148.38,-86,+50,+83
40256,13.391,-2.237,0.472,-1.207946,-0.091260,1.677453,100151.93,-86,+42,+83
40266,13.533,-2.210,0.242,-1.172827,-0.172673,1.814738,100147.37,-86,+42,+83
40276,13.863,-2.214,0.116,-1.161652,-0.274306,1.956279,100152.20,-89,+34,+84
40286,14.483,-1.889,0.539,-1.162184,-0.382857,2.109526,100149.62,-90,+24,+83
40296,14.972,-1.440,1.163,-1.118019,-0.465866,2.270223,100149.62,-92,+16,+83
40306,15.199,-1.609,1.593,-1.083964,-0.530783,2.441563,100148.28,-92,+16,+83
40316,15.844,-1.623,2.068,-1.217524,-0.599957,2.584168,100152.22,-94,+7,+81
40326,17.149,-0.458,3.008,-1.509120,-0.661150,2.686333,100150.59,-96,-4,+79
40336,18.406,1.112,3.641,-1.776771,-0.762783,2.785306,100148.08,-96,-17,+78
40346,19.814,3.347,4.032,-2.016221,-0.883572,2.789031,100148.08,-96,-17,+78
40356,21.181,6.331,4.180,-2.273230,-0.943168,2.798609,100152.26,-98,-28,+75
40366,22.190,7.457,4.206,-2.338147,-1.021388,3.063599,100148.48,-99,-44,+72
40376,22.125,3.763,3.751,-1.950239,-1.172507,3.546755,100148.59,-100,-59,+67
40386,20.354,-1.378,2.768,-1.542111,-1.185278,3.948498,100145.65,-100,-59,+67
40396,16.828,-1.434,3.861,-1.664496,-1.009150,3.804828,100145.65,-98,-72,+64
40407,16.274,-2.722,6.028,-1.509120,-0.784067,3.722351,100150.22,-96,-86,+60
40416,16.612,-4.109,6.619,-0.938698,-0.596233,3.306241,100150.33,-94,-98,+58
40426,17.357,-1.663,6.509,-0.610919,-0.417444,2.843306,100151.06,-94,-98,+58
40436,15.679,1.176,6.658,-0.267176,-0.181187,2.298957,100147.23,-90,-105,+57
40446,9.975,6.238,5.607,-0.064974,-0.095517,1.679049,100147.23,-87,-110,+57
40456,1.851,0.738,4.579,-0.061249,-0.281224,2.010022,100150.47,-85,-114,+56
40466,6.762,-10.102,1.835,-0.382112,-0.348801,1.771104,100149.78,-85,-114,+56
40476,9.144,-2.815,1.403,-0.403928,0.137547,0.055051,100147.47,-83,-118,+56
40486,7.517,3.860,1.609,-0.615708,0.264189,-0.345096,100148.36,-83,-118,+54
40496,3.527,4.793,0.688,-0.590699,0.154574,-0.394582,100148.36,-83,-118,+54
40506,2.009,3.601,-0.078,-0.142130,0.151382,-0.604766,100150.76,-83,-118,+55
40516,2.837,2.336,-0.341,0.449044,0.270042,-1.015554,100147.66,-83,-118,+55
40526,3.686,1.643,-0.177,0.796512,0.409455,-1.385903,100148.51,-85,-112,+56
40537,3.677,1.565,0.474,0.989667,0.556849,-1.682820,100146.52,-86,-106,+59
40546,3.482,1.428,1.273,1.248273,0.697326,-1.986122,100146.52,-86,-97,+62
40556,3.894,1.178,1.457,1.497300,0.787253,-2.302728,100144.88,-86,-97,+62
40566,4.345,0.424,1.300,1.648419,0.853767,-2.589003,100147.23,-88,-87,+66
40577,4.729,-0.418,1.085,1.646291,0.914427,-2.866232,100146.19,-89,-75,+69
40586,5.489,-0.759,0.280,1.478676,0.941033,-3.170599,100144.03,-89,-64,+73
40596,6.034,-0.384,0.114,1.226988,0.981473,-3.460067,100144.03,-89,-64,+73
40606,6.816,-0.033,0.153,1.080658,1.029895,-3.711222,100147.63,-90,-51,+75
40616,7.526,0.270,0.009,1.031172,1.050647,-3.937369,100146.95,-89,-38,+78
40626,8.176,-0.146,-0.461,1.026915,1.034152,-4.111901,100143.91,-88,-26,+79
40636,8.745,-0.935,-1.056,1.044475,1.021381,-4.277919,100142.60,-88,-26,+79
40646,9.229,-1.572,-1.208,1.003502,1.011271,-4.469479,100142.60,-87,-11,+83
40656,9.834,-1.795,-1.254,0.849723,0.984133,-4.659442,100147.19,-84,+2,+84
40667,10.302,-1.844,-0.975,0.626236,0.987326,-4.838231,100144.56,-81,+17,+86
40676,10.763,-2.047,-0.600,0.359649,1.011803,-5.002653,100144.72,-81,+17,+86
40686,11.404,-2.165,-0.570,0.100512,1.027766,-5.154304,100145.45,-77,+29,+89
40696,12.122,-2.195,-0.591,-0.099561,1.045858,-5.271901,100145.45,-71,+42,+90
40707,12.946,-2.237,-0.674,-0.196405,1.053840,-5.363423,100147.66,-65,+54,+91
40716,13.925,-2.122,-0.791,-0.196937,1.047454,-5.444836,100145.25,-65,+54,+91
40726,14.989,-1.994,-1.003,-0.077745,1.038409,-5.519331,100145.92,-59,+65,+94
40736,16.084,-2.172,-0.873,0.187778,1.030959,-5.554451,100145.50,-51,+78,+95
40747,16.919,-3.201,-0.650,0.566640,1.017656,-5.535295,100145.50,-41,+91,+95
40757,17.484,-4.697,-0.551,0.966787,0.994776,-5.481019,100148.69,-41,+91,+95
40766,17.974,-5.984,-0.729,1.289245,0.951675,-5.390029,100147.91,-32,+105,+96
40776,18.449,-6.848,-1.069,1.481337,0.871858,-5.255405,100147.17,-20,+119,+94
40786,18.738,-7.789,-1.077,1.589887,0.764904,-5.048414,100147.70,-11,+131,+93
40797,18.648,-9.266,-0.506,1.701098,0.649969,-4.741387,100147.70,-11,+131,+93
40806,17.828,-11.703,0.514,1.810713,0.554189,-4.311975,100151.80,+0,+144,+91
40816,16.379,-15.167,1.589,1.925116,0.498849,-3.726121,100151.27,+9,+157,+88
40826,14.636,-19.522,1.620,1.940548,0.488739,-3.012562,100151.96,+17,+166,+84
40837,12.567,-23.425,1.005,1.624474,0.434996,-2.163847,100151.34,+17,+166,+84
40846,10.974,-25.229,0.805,1.071080,0.278024,-1.180508,100151.34,+21,+171,+82
40856,9.485,-24.121,0.809,0.457026,0.039639,-0.171096,100154.34,+24,+174,+81
40866,8.750,-20.567,1.179,0.079760,-0.221095,0.726573,100152.55,+22,+174,+81
40877,8.026,-17.738,1.978,0.198952,-0.413719,1.482701,100151.46,+22,+174,+81
40887,7.380,-13.743,6.425,0.598567,-0.410704,1.996364,100149.52,+16,+173,+79
40896,7.650,-9.682,20.382,0.733190,0.047620,2.148370,100149.52,+11,+173,+78
40906,18.019,9.712,17.327,-0.571543,0.396684,1.517820,100146.42,+7,+167,+80
40916,32.665,19.526,-11.135,-2.420092,-0.939443,1.631692,100151.41,+7,+167,+80
40927,27.127,-3.480,-6.597,0.329851,-0.909113,3.845800,100154.39,+0,+159,+83
40936,25.286,-16.244,-0.580,2.745097,-0.377535,3.935195,100153.56,-9,+160,+77
40946,13.749,-15.988,-3.285,0.968915,-0.072637,3.264205,100153.56,-16,+158,+76
40956,1.219,-3.376,0.041,-0.916882,0.127437,2.698572,100154.08,-16,+158,+76
40967,0.260,3.775,7.371,-0.296974,0.080611,2.724113,100151.05,-20,+150,+79
40976,6.458,-2.845,4.894,1.522309,-0.137554,2.623012,100150.67,-27,+148,+77
40986,14.262,-10.664,-0.596,1.948529,-0.367957,2.524040,100152.98,-31,+149,+73
40996,14.958,-11.592,-0.188,0.733190,-0.129572,2.231912,100152.98,-37,+149,+73
41007,13.348,-5.920,0.536,-0.562142,0.105443,1.814738,100152.63,-37,+145,+73
41016,10.680,-3.116,0.418,-1.011065,0.116262,1.683306,100151.48,-38,+140,+74
41026,8.628,-1.513,1.170,-0.884423,0.130629,1.558793,100153.46,-41,+134,+76
41036,8.295,-1.138,1.030,-0.565157,0.123180,1.364573,100150.27,-43,+130,+78
41047,8.608,-1.667,1.140,-0.341139,0.102428,1.211857,100150.27,-43,+130,+78
41057,9.972,-2.080,1.160,-0.309213,0.097106,1.076701,100151.29,-45,+128,+78
41066,10.988,-2.311,0.991,-0.411910,0.120519,0.944206,100149.66,-45,+124,+78
41076,10.916,-1.963,1.056,-0.509286,0.169473,0.835656,100150.13,-46,+120,+79
41086,10.027,-1.403,1.483,-0.551855,0.211510,0.736151,100147.99,-46,+120,+79
41097,9.174,-1.373,1.841,-0.597084,0.216299,0.629197,100147.99,-47,+118,+81
41106,9.005,-1.421,1.997,-0.648166,0.199272,0.530225,100153.84,-48,+115,+81
41116,9.281,-0.957,1.899,-0.636460,0.199272,0.438702,100151.02,-47,+112,+84
41122,9.434,-0.362,1.935,-0.531634,0.230666,0.387619,100150.44,-47,+112,+84
41132,9.367,0.138,2.429,-0.391690,0.265785,0.356225,100150.44,-47,+110,+84
41142,8.908,0.183,2.804,-0.244827,0.260996,0.363142,100152.17,-47,+110,+84
41152,8.701,0.185,3.186,-0.096369,0.238116,0.388683,100152.17,-46,+109,+85
41161,8.738,-0.069,3.438,0.007925,0.185437,0.425931,100151.13,-47,+108,+86
41171,8.868,-0.390,3.164,0.066989,0.144464,0.463711,100152.68,-47,+108,+86
41182,8.970,-0.062,3.053,0.094659,0.129033,0.525436,100150.09,-47,+108,+86
41192,8.614,0.826,3.330,0.146273,0.126373,0.612169,100150.09,-47,+106,+87
41201,8.239,1.196,3.740,0.293668,0.118923,0.735619,100150.09,-48,+105,+85
41211,8.379,0.459,3.448,0.484163,0.077418,0.882481,100154.09,-49,+106,+85
41222,9.246,-0.370,2.475,0.585264,0.028464,1.023490,100153.20,-50,+106,+85
41232,10.472,-0.337,1.570,0.497466,-0.016233,1.129912,100152.46,-50,+104,+85
41241,11.035,-0.608,0.827,0.260677,-0.014637,1.242187,100149.99,-52,+104,+85
41251,10.591,-1.906,0.493,0.069650,0.032189,1.365105,100149.99,-54,+101,+85
41262,10.056,-2.772,0.571,-0.236313,0.051345,1.468334,100150.54,-55,+96,+86
41272,9.582,-2.206,1.159,-0.411378,0.065712,1.559325,100152.27,-55,+96,+86
41282,9.559,-1.763,1.918,-0.398075,0.057730,1.624242,100153.37,-57,+92,+86
41291,9.593,-2.415,2.343,-0.324644,0.039107,1.639141,100150.46,-58,+88,+87
41302,9.556,-3.021,2.348,-0.325176,0.025804,1.629031,100151.77,-60,+84,+88
41312,9.292,-2.692,2.807,-0.381579,0.016226,1.602426,100152.82,-60,+84,+88
41321,9.163,-2.433,3.107,-0.390093,-0.023682,1.573692,100152.82,-62,+78,+88
41331,9.646,-2.611,2.901,-0.324644,-0.066251,1.553472,100150.30,-64,+74,+88
41341,10.007,-2.947,2.582,-0.269304,-0.083279,1.538040,100150.77,-65,+70,+88
41352,10.138,-3.431,2.453,-0.281543,-0.069976,1.533251,100150.77,-65,+70,+88
41357,10.130,-3.688,2.440,-0.351781,-0.048159,1.530591,100152.30,-66,+66,+89
41366,10.002,-3.890,3.159,-0.484809,-0.021022,1.560921,100154.73,-66,+66,+89
41376,9.941,-4.263,4.426,-0.735432,0.016226,1.625839,100150.63,-68,+60,+89
41387,10.812,-3.835,4.127,-0.965836,-0.009848,1.676921,100148.07,-69,+53,+90
41397,11.678,-3.797,3.815,-1.133983,-0.040178,1.732793,100148.07,-69,+46,+91
41407,12.225,-3.613,3.684,-1.310643,-0.055609,1.808352,100154.26,-69,+46,+91
41416,12.904,-3.195,2.285,-1.435689,-0.113609,1.932334,100150.63,-71,+38,+91
41426,13.667,-2.814,0.923,-1.484643,-0.211517,2.086646,100151.63,-73,+28,+91
41437,14.342,-2.822,0.290,-1.471872,-0.317407,2.235636,100151.52,-75,+18,+91
41447,14.967,-3.147,-0.281,-1.408551,-0.411058,2.306939,100151.52,-75,+18,+91
41456,15.310,-3.377,-0.489,-1.377689,-0.469590,2.314389,100152.58,-75,+8,+92
41466,15.878,-3.158,-0.205,-1.383542,-0.523333,2.294168,100152.16,-77,+0,+90
41477,16.790,-2.509,0.574,-1.436221,-0.572288,2.327691,100152.89,-79,-10,+89
41487,17.659,-1.727,1.744,-1.577230,-0.601554,2.418150,100147.91,-80,-20,+87
41496,18.815,-0.846,2.610,-1.806037,-0.656361,2.517654,100147.91,-80,-20,+87
41506,20.664,1.414,3.518,-2.097101,-0.768104,2.570865,100152.45,-81,-32,+85
41517,21.937,5.543,5.202,-2.320055,-0.870801,2.551709,100150.56,-82,-45,+83
41527,22.140,9.005,5.628,-2.223212,-0.987333,2.577251,100151.14,-82,-57,+78
41537,22.160,7.233,4.404,-1.938533,-1.178361,2.871507,100149.67,-82,-57,+78
41546,21.806,0.793,3.090,-1.519762,-1.320966,3.519617,100149.67,-83,-69,+74
41556,20.738,-2.824,3.720,-1.359597,-1.244874,3.980424,100151.26,-82,-82,+71
41567,19.608,-3.829,6.213,-1.633634,-1.098012,3.925617,100152.98,-79,-95,+67
41577,18.067,-2.223,7.602,-1.339909,-0.951682,3.441397,100149.88,-79,-95,+67
41586,17.871,-1.056,6.836,-0.648166,-0.844728,3.131177,100148.90,-77,-106,+64
41596,16.311,0.739,6.856,-0.346992,-0.621774,2.690590,100148.90,-73,-113,+62
41607,12.875,4.140,4.812,-0.174589,-0.493535,2.003104,100151.31,-72,-117,+61
41617,3.315,6.805,3.169,0.016971,-0.731388,1.671600,100149.95,-72,-117,+61
41627,7.423,-11.946,3.245,0.474585,-0.784067,2.565544,100151.06,-70,-121,+61
41636,8.261,-10.379,2.333,0.487888,-0.367957,0.996885,100150.33,-69,-122,+60
41647,7.395,-0.177,2.774,-0.009635,-0.017297,-0.217922,100150.33,-69,-122,+61
41657,4.376,4.566,2.765,-0.332625,0.017822,-0.413206,100154.44,-69,-122,+61
41667,1.620,4.710,2.296,-0.132552,-0.039114,-0.405224,100152.13,-70,-120,+60
41676,1.424,2.676,1.328,0.477778,0.001327,-0.697353,100148.30,-71,-118,+61
41687,2.236,0.713,1.098,0.957209,0.112006,-1.108141,100149.41,-73,-113,+63
41697,2.778,-0.394,1.024,1.037025,0.192886,-1.463591,100149.41,-73,-113,+63
41707,2.877,-0.622,0.951,0.916768,0.287602,-1.820104,100149.44,-74,-106,+65
41716,2.815,-0.323,0.842,0.834291,0.400941,-2.237278,100146.59,-76,-100,+66
41726,3.016,-0.001,0.681,0.835356,0.497785,-2.605498,100144.97,-79,-91,+69
41737,3.556,0.119,0.496,0.871007,0.562703,-2.896030,100145.92,-79,-91,+69
41747,4.234,0.388,0.249,0.911447,0.620703,-3.169003,100145.92,-80,-80,+71
41757,4.981,0.575,0.107,1.002970,0.678170,-3.422287,100148.65,-83,-70,+73
41766,5.741,0.426,-0.085,1.112053,0.717546,-3.642580,100148.34,-84,-58,+76
41777,6.253,-0.189,-0.188,1.192401,0.752666,-3.835736,100147.65,-84,-58,+76
41787,6.545,-0.778,-0.037,1.217410,0.781400,-4.041131,100146.18,-85,-43,+78
41797,6.685,-1.072,0.370,1.214750,0.802152,-4.260892,100146.18,-85,-30,+80
41806,7.016,-1.339,0.607,1.099282,0.789381,-4.459369,100149.04,-85,-16,+82
41817,7.523,-1.855,0.629,0.889631,0.776611,-4.654121,100146.21,-85,-16,+82
41827,8.197,-2.390,0.558,0.606016,0.797186,-4.876011,100144.05,-83,+0,+84
41837,8.717,-2.562,0.442,0.383062,0.862812,-5.051607,100144.05,-80,+13,+86
41846,9.241,-2.459,0.364,0.216512,0.963381,-5.210708,100144.05,-75,+26,+88
41857,9.946,-2.752,0.752,0.073374,1.052243,-5.313937,100147.02,-75,+26,+88
41867,10.871,-3.432,1.175,-0.047947,1.111308,-5.405460,100147.08,-70,+40,+89
41877,11.857,-4.129,1.465,-0.100626,1.195913,-5.495919,100145.81,-64,+53,+91
41887,12.896,-4.665,1.407,-0.030387,1.302335,-5.582653,100145.50,-55,+65,+94
41896,14.021,-4.893,1.134,0.134035,1.397583,-5.642249,100145.50,-55,+65,+94
41907,15.124,-5.239,0.744,0.368163,1.481124,-5.682689,100149.01,-45,+78,+96
41917,15.844,-5.851,0.450,0.619319,1.539124,-5.660341,100147.91,-34,+92,+98
41927,16.451,-6.256,0.326,0.834823,1.541252,-5.623093,100146.65,-20,+105,+99
41936,17.421,-6.942,0.170,0.949227,1.454518,-5.526781,100148.23,-8,+105,+99
41947,18.417,-8.310,0.444,0.975300,1.306592,-5.355974,100148.23,-8,+118,+99
41957,18.970,-10.213,0.951,0.921025,1.156537,-5.120249,100151.09,+2,+128,+99
41967,18.298,-11.968,1.412,0.796512,1.088959,-4.813222,100149.05,+15,+136,+98
41976,17.129,-13.498,1.668,0.611869,1.123546,-4.376892,100148.73,+27,+144,+98
41987,15.948,-15.513,1.267,0.463411,1.190592,-3.764965,100149.11,+27,+144,+98
41997,14.609,-18.391,0.224,0.310695,1.208684,-3.060452,100149.11,+39,+150,+98
42007,13.129,-21.780,-0.865,-0.079341,1.114500,-2.278783,100151.68,+46,+150,+99
42017,11.494,-23.179,-1.706,-0.638588,0.897932,-1.423682,100150.23,+52,+149,+101
42027,10.886,-21.238,-1.803,-1.033414,0.585583,-0.549958,100151.05,+52,+149,+101
42037,10.371,-18.375,-0.926,-1.098863,0.250354,0.368463,100152.05,+53,+146,+103
42047,9.213,-15.816,0.144,-0.882827,-0.019426,1.226224,100152.05,+51,+142,+105
42057,8.804,-13.559,1.107,-0.448625,-0.161499,1.887104,100154.54,+47,+138,+105
42062,9.194,-10.248,2.373,-0.104882,-0.196086,2.160609,100153.34,+47,+138,+105
42072,9.765,-2.941,13.184,0.015374,0.081143,2.229783,100153.34,+43,+137,+104
42082,19.975,27.002,8.739,-1.063212,0.286538,1.043178,100150.20,+43,+137,+104
42092,29.691,26.109,-12.539,-1.983762,-1.107590,1.108628,100148.30,+43,+132,+109
42102,25.987,-10.436,-4.696,1.812841,-1.070342,3.733525,100148.30,+34,+128,+106
42113,28.942,-21.035,-1.779,3.148437,-0.562710,3.622314,100155.23,+26,+136,+101
42122,13.411,-13.156,-2.533,0.676787,-0.056141,2.942278,100153.33,+26,+136,+101
42132,1.961,-1.212,4.900,-0.755121,0.062519,2.806590,100151.02,+22,+132,+101
42142,1.460,0.672,8.411,0.228750,-0.180123,2.977397,100151.02,+17,+128,+101
42151,7.202,-5.517,3.732,1.412695,-0.460012,2.591618,100151.02,+12,+129,+99
42162,11.629,-10.100,1.705,1.037557,-0.601022,2.371324,100151.63,+6,+129,+99
42172,13.529,-7.890,2.021,-0.050075,-0.561113,2.169123,100151.52,+6,+128,+98
42182,12.383,-3.990,0.785,-0.652955,-0.475976,1.839215,100151.10,+2,+124,+98
42191,10.577,-1.816,0.426,-0.637524,-0.369022,1.616793,100152.37,-1,+119,+98
42202,9.630,-0.251,0.690,-0.379451,-0.267921,1.517288,100152.37,-5,+116,+98
42212,9.002,-0.364,0.285,-0.036772,-0.234398,1.501325,100152.60,-5,+116,+98
42222,9.679,-2.234,0.298,0.177136,-0.202471,1.443857,100150.55,-7,+114,+98
42232,10.496,-3.678,0.715,0.054751,-0.115737,1.312426,100150.51,-9,+113,+98
42242,10.335,-3.473,1.553,-0.311873,-0.032196,1.153857,100150.51,-11,+109,+99
42252,9.764,-2.861,2.409,-0.645506,0.003987,0.988371,100154.91,-11,+109,+99
42262,9.497,-2.054,2.646,-0.839726,0.014097,0.836188,100154.91,-12,+106,+100
42272,9.320,-0.957,2.654,-0.884955,0.027932,0.717527,100152.75,-13,+102,+101
42281,9.255,-0.152,2.446,-0.799286,0.030593,0.658463,100151.55,-14,+98,+101
42292,9.674,-0.116,2.355,-0.624222,0.012501,0.660591,100150.70,-14,+98,+101
42297,10.004,-0.465,2.272,-0.498644,-0.011976,0.681344,100150.70,-14,+96,+102
42307,9.993,-0.822,2.524,-0.425212,-0.015701,0.686665,100153.13,-14,+96,+102
42317,9.684,-1.276,2.935,-0.428405,-0.016765,0.688793,100150.26,-16,+93,+103
42327,9.367,-1.738,3.289,-0.553451,-0.031664,0.695711,100150.46,-17,+90,+103
42337,9.176,-1.585,3.301,-0.721598,-0.057205,0.688793,100149.62,-18,+88,+105
42347,8.997,-0.963,3.420,-0.817909,-0.084875,0.693050,100149.62,-18,+88,+105
42357,8.828,-0.534,3.556,-0.814185,-0.115205,0.724445,100153.69,-19,+83,+105
42366,8.684,-0.522,3.509,-0.743414,-0.140747,0.768078,100153.64,-20,+80,+105
42377,8.629,-0.487,3.350,-0.651359,-0.160435,0.800004,100151.33,-20,+75,+106
42387,8.577,-0.795,3.267,-0.552919,-0.179058,0.832463,100151.13,-20,+75,+106
42397,8.633,-1.593,3.067,-0.504497,-0.190233,0.859600,100151.13,-23,+73,+106
42407,8.913,-2.065,2.762,-0.578992,-0.183847,0.862261,100150.91,-24,+69,+106
42417,9.091,-2.010,2.575,-0.715744,-0.155114,0.866518,100151.01,-26,+66,+106
42427,9.161,-1.603,2.451,-0.812588,-0.136490,0.888867,100152.54,-27,+66,+107
42437,9.145,-1.186,2.461,-0.784387,-0.149260,0.935160,100150.34,-27,+62,+107
42447,9.172,-1.080,2.463,-0.646038,-0.188636,1.013912,100150.34,-28,+57,+107
42457,9.392,-1.287,2.387,-0.483745,-0.239719,1.097454,100153.33,-30,+54,+107
42467,9.804,-1.838,2.166,-0.351249,-0.272710,1.179931,100151.28,-30,+51,+108
42477,9.834,-2.279,1.820,-0.292717,-0.288141,1.239527,100152.48,-30,+51,+108
42487,10.207,-2.506,1.785,-0.277818,-0.287077,1.296463,100152.17,-33,+48,+107
42497,10.446,-2.888,1.870,-0.353910,-0.292398,1.403949,100152.17,-34,+44,+106
42507,10.593,-3.316,1.759,-0.511414,-0.288141,1.494940,100153.29,-36,+39,+107
42517,10.667,-3.275,1.621,-0.694992,-0.282288,1.553472,100154.45,-36,+39,+107
42527,10.705,-2.684,1.572,-0.781194,-0.289737,1.589655,100152.82,-37,+34,+106
42532,10.885,-2.199,1.511,-0.771084,-0.330178,1.621050,100152.09,-37,+34,+106
42542,11.158,-2.170,1.678,-0.717341,-0.400948,1.675857,100152.09,-39,+29,+107
42552,11.520,-2.550,1.646,-0.619433,-0.492471,1.740242,100152.09,-41,+23,+105
42562,11.950,-2.891,1.717,-0.584845,-0.553132,1.799838,100155.72,-43,+18,+105
42572,12.356,-3.195,1.537,-0.650827,-0.611132,1.887104,100153.00,-43,+18,+105
42583,13.057,-3.416,1.134,-0.725322,-0.667003,2.000976,100150.14,-45,+12,+104
42592,13.918,-3.455,0.860,-0.781194,-0.710104,2.112187,100150.14,-47,+4,+103
42602,14.481,-2.957,0.642,-0.801414,-0.746820,2.213288,100156.25,-51,-2,+102
42612,14.790,-2.097,0.366,-0.779065,-0.810141,2.314921,100156.25,-51,-2,+102
42622,15.162,-1.566,0.459,-0.734368,-0.905920,2.450077,100152.78,-52,-8,+101
42632,15.845,-1.330,1.033,-0.757781,-1.035755,2.575122,100152.94,-54,-16,+98
42642,16.579,-1.190,2.318,-0.905175,-1.124618,2.656535,100152.16,-56,-24,+96
42652,17.303,-0.971,3.653,-1.247854,-1.157608,2.691122,100152.16,-58,-34,+94
42662,18.138,-0.203,4.427,-1.703872,-1.161865,2.731030,100155.72,-58,-34,+94
42673,19.316,1.917,4.635,-2.187028,-1.193792,2.736884,100151.22,-60,-45,+91
42682,20.542,5.356,5.033,-2.543009,-1.279994,2.705489,100150.11,-60,-59,+86
42692,20.809,7.608,5.613,-2.421688,-1.443351,2.753379,100149.57,-61,-72,+81
42702,21.254,4.578,5.522,-1.585212,-1.673755,3.111489,100151.62,-61,-72,+81
42713,21.990,-1.337,5.291,-0.663065,-1.817957,3.768112,100150.57,-62,-82,+78
42722,21.000,-3.303,5.652,-0.550790,-1.753039,3.968186,100151.30,-61,-92,+74
42732,18.303,-1.224,7.257,-0.672111,-1.592874,3.639342,100151.30,-59,-101,+71
42742,17.318,-0.561,7.909,-0.150112,-1.407700,3.346149,100148.74,-59,-101,+71
42753,15.920,0.191,7.176,0.240989,-1.181553,2.889599,100148.74,-56,-106,+69
42762,13.590,3.149,7.136,0.570897,-0.862819,2.245746,100150.87,-55,-110,+69
42768,12.233,6.437,3.857,0.877392,-0.878251,1.647655,100149.46,-55,-110,+69
42777,7.212,2.757,4.783,1.186548,-0.940508,1.506646,100149.51,-54,-110,+70
42787,4.207,-8.740,4.057,1.167924,-1.062893,2.037692,100149.77,-53,-111,+70
42798,7.662,-7.903,1.270,0.616658,-0.826104,0.877160,100149.77,-53,-111,+70
42807,8.220,-0.762,0.801,0.043576,-0.569627,-0.280711,100151.32,-53,-110,+69
42817,5.420,3.266,1.377,-0.258130,-0.515884,-0.621261,100151.85,-54,-110,+69
42827,2.424,3.929,1.523,-0.100626,-0.487150,-0.777169,100150.74,-56,-108,+68
42838,1.863,3.044,0.851,0.448512,-0.402012,-1.098563,100148.91,-56,-108,+68
42847,2.749,1.585,0.621,0.988071,-0.291866,-1.477958,100148.91,-58,-104,+69
42857,3.230,0.674,0.991,1.354695,-0.183847,-1.808398,100153.23,-60,-96,+71
42867,3.370,0.534,1.732,1.674493,-0.076361,-2.131921,100150.71,-63,-89,+73
42877,3.690,0.660,1.634,1.992694,0.010373,-2.488966,100145.90,-63,-89,+73
42888,4.249,0.495,1.341,2.200217,0.067840,-2.831113,100144.21,-64,-77,+76
42897,4.832,0.052,0.817,2.249703,0.106684,-3.142397,100144.21,-66,-64,+78
42907,5.226,-0.540,0.552,2.138492,0.154574,-3.427608,100147.98,-68,-51,+81
42917,5.621,-1.160,0.608,1.931502,0.213106,-3.663332,100143.69,-68,-38,+83
42928,6.173,-1.507,0.552,1.734089,0.278556,-3.879369,100145.20,-68,-38,+83
42937,6.877,-1.445,0.661,1.619685,0.344538,-4.092745,100143.89,-68,-23,+86
42947,7.393,-1.250,0.848,1.625539,0.408923,-4.298140,100143.89,-68,-10,+86
42957,7.851,-1.340,1.201,1.687263,0.445106,-4.500341,100146.27,-66,+4,+88
42968,8.471,-1.728,1.355,1.649483,0.437125,-4.696158,100144.64,-66,+4,+88
42977,9.108,-2.400,1.625,1.483997,0.452024,-4.886653,100145.00,-63,+19,+89
42987,9.755,-3.095,1.916,1.170053,0.489271,-5.072359,100148.36,-60,+33,+91
42997,10.377,-3.577,2.107,0.750750,0.548336,-5.247424,100148.36,-56,+46,+92
43003,10.906,-3.647,2.109,0.425099,0.604207,-5.375130,100146.59,-56,+46,+92
43013,11.502,-3.479,2.044,0.147870,0.666464,-5.500708,100146.59,-50,+58,+94
43023,12.213,-3.641,1.926,-0.057525,0.748409,-5.606065,100145.34,-50,+58,+94
43032,13.206,-4.017,1.753,-0.025066,0.837271,-5.670451,100145.80,-43,+67,+96
43042,14.412,-4.316,1.523,0.163301,0.924537,-5.745478,100142.76,-35,+78,+98
43053,15.811,-4.989,0.955,0.399026,0.980941,-5.809331,100147.32,-26,+89,+100
43063,17.150,-5.642,0.047,0.617723,0.976152,-5.835405,100148.48,-26,+89,+100
43072,18.235,-6.232,-0.885,0.805557,0.908042,-5.793368,100145.43,-17,+101,+102
43082,18.760,-6.824,-0.926,0.983282,0.798427,-5.690139,100145.43,-7,+112,+102
43092,18.571,-7.632,-0.132,1.147704,0.659014,-5.501240,100149.90,+2,+124,+101
43103,18.011,-8.891,1.173,1.259447,0.548868,-5.244231,100149.90,+2,+124,+101
43112,17.433,-10.088,2.708,1.288181,0.511088,-4.889846,100150.99,+13,+134,+101
43122,16.570,-11.754,3.299,1.248273,0.554189,-4.476929,100153.09,+22,+145,+100
43132,15.124,-14.402,2.573,1.059374,0.664868,-4.016654,100149.52,+32,+152,+98
43143,13.478,-18.265,1.814,0.658695,0.820244,-3.430268,100148.05,+41,+157,+99
43153,11.999,-22.000,0.668,-0.149047,0.920812,-2.770452,100148.05,+41,+157,+99
43162,11.095,-22.882,0.007,-1.235083,0.881436,-2.086159,100152.20,+48,+155,+101
43172,10.518,-20.491,0.003,-2.014092,0.691473,-1.317261,100150.86,+52,+150,+105
43183,10.254,-17.073,0.111,-2.133285,0.381785,-0.472802,100150.02,+52,+143,+110
43193,9.576,-14.546,0.502,-1.710790,0.089125,0.373784,100150.02,+52,+143,+110
43202,8.215,-13.707,0.876,-1.037139,-0.095517,1.115013,100150.02,+51,+138,+113
43212,7.480,-12.082,1.632,-0.271965,-0.173737,1.672132,100152.38,+47,+136,+113
43223,7.875,-8.833,5.380,0.519814,-0.168948,1.942976,100151.95,+44,+136,+112
43233,10.670,-1.629,17.246,1.046071,0.202464,2.028646,100151.58,+44,+136,+112
43238,21.484,20.711,9.043,0.416585,0.124244,1.333710,100147.55,+42,+136,+111
43247,35.108,25.753,-9.256,-0.604533,-0.854306,1.201215,100147.55,+42,+136,+111
43257,29.149,-5.223,-5.527,1.389814,-0.983076,3.854846,100157.16,+34,+134,+111
43268,23.959,-18.599,0.114,3.457060,-0.249829,4.042149,100153.38,+27,+140,+106
43278,13.768,-12.013,-1.785,1.427062,0.145528,3.187581,100151.33,+22,+140,+105
43287,-1.758,-1.050,1.213,-0.827487,0.130097,3.133306,100153.22,+22,+140,+105
43297,-3.573,3.089,5.264,-0.427341,-0.193958,3.091269,100153.22,+15,+134,+106
43308,6.010,-1.646,5.898,1.156750,-0.300380,2.561820,100153.98,+11,+132,+104
43318,13.786,-10.556,2.709,1.680346,-0.351994,2.527232,100150.47,+5,+135,+101
43327,18.126,-12.125,-0.274,0.956144,-0.305169,2.560223,100154.03,+5,+135,+101
43337,14.193,-7.911,1.258,-0.028791,0.008244,2.225526,100150.67,+0,+133,+101
43347,11.112,-3.877,0.596,-0.493322,0.046024,2.054187,100150.67,-3,+128,+102
43358,8.484,-1.461,0.848,-0.547066,0.039107,1.890829,100152.92,-5,+124,+103
43367,6.543,-0.386,0.942,-0.281011,0.060391,1.699802,100153.70,-7,+124,+103
43377,7.763,-0.941,1.085,0.020696,0.042299,1.534848,100153.50,-7,+122,+104
43387,9.330,-2.114,0.966,0.112218,0.034318,1.426829,100152.88,-9,+119,+103
43398,11.288,-2.295,0.799,-0.117653,0.046024,1.375747,100152.88,-12,+116,+103
43408,11.413,-2.858,0.833,-0.374130,0.098703,1.327325,100154.63,-13,+113,+104
43417,10.458,-2.579,1.797,-0.484809,0.178519,1.187912,100155.16,-13,+113,+104
43427,9.204,-2.377,2.640,-0.498644,0.192886,1.023490,100153.38,-14,+110,+106
43438,8.377,-2.515,2.288,-0.531634,0.160960,0.893656,100153.38,-15,+106,+106
43448,8.718,-2.141,1.712,-0.590699,0.151914,0.769142,100153.38,-15,+104,+106
43457,9.848,-1.459,1.331,-0.630607,0.165217,0.684536,100151.20,-15,+104,+106
43467,10.469,-0.869,1.145,-0.614644,0.198207,0.668573,100149.88,-15,+100,+108
43478,10.266,-0.595,1.443,-0.550790,0.241840,0.712206,100149.93,-15,+97,+109
43488,9.853,-0.813,1.890,-0.469910,0.264189,0.751582,100153.02,-15,+94,+111
43497,9.485,-1.603,2.028,-0.462460,0.248226,0.771802,100153.02,-15,+94,+111
43507,9.411,-2.244,2.136,-0.555047,0.232262,0.767013,100153.55,-16,+91,+112
43517,9.364,-2.311,2.350,-0.693396,0.224281,0.746793,100155.43,-15,+88,+112
43528,9.240,-2.108,2.378,-0.800350,0.205657,0.734023,100153.23,-17,+84,+114
43538,9.079,-1.937,2.331,-0.833341,0.183840,0.737215,100148.57,-17,+84,+114
43547,9.126,-1.749,2.108,-0.820038,0.165749,0.759032,100148.57,-17,+80,+115
43557,9.403,-1.481,2.075,-0.781194,0.140739,0.798940,100152.95,-17,+77,+115
43568,9.755,-1.382,2.313,-0.709891,0.110941,0.849490,100150.84,-17,+72,+116
43578,9.951,-1.508,2.476,-0.626882,0.089657,0.897912,100152.31,-17,+72,+116
43587,9.829,-1.923,2.516,-0.579524,0.079015,0.936224,100150.44,-18,+69,+118
43597,9.425,-2.272,2.548,-0.563561,0.078483,0.946334,100150.44,-18,+65,+118
43608,9.053,-2.463,2.617,-0.566754,0.075290,0.939949,100149.31,-19,+62,+118
43618,8.829,-2.539,2.436,-0.578460,0.066244,0.931967,100149.69,-19,+62,+118
43627,8.914,-2.400,2.340,-0.608258,0.064116,0.943142,100150.52,-20,+58,+118
43637,9.278,-2.200,2.497,-0.633799,0.060391,0.994224,100148.64,-19,+54,+120
43648,9.635,-2.275,2.589,-0.641781,0.058262,1.078298,100148.64,-21,+51,+120
43658,9.814,-2.313,2.300,-0.654020,0.059859,1.168756,100154.93,-21,+51,+120
43668,9.862,-2.353,2.281,-0.666258,0.065712,1.248573,100150.37,-21,+46,+120
43677,10.148,-2.261,2.623,-0.664662,0.052409,1.324132,100153.04,-22,+42,+121
43687,10.128,-2.363,2.749,-0.690203,0.016758,1.423105,100152.15,-22,+36,+121
43698,10.858,-2.578,2.665,-0.675304,-0.007719,1.559325,100152.15,-22,+36,+121
43708,11.063,-3.243,2.280,-0.731708,-0.063059,1.753722,100150.73,-23,+32,+122
43717,11.203,-3.367,1.963,-0.772148,-0.088068,1.837086,100153.67,-24,+26,+122
43727,11.208,-3.246,1.744,-0.810460,-0.124251,1.882315,100148.53,-25,+19,+122
43738,11.442,-3.146,1.613,-0.796093,-0.175866,1.901471,100149.69,-25,+19,+122
43748,12.286,-3.130,1.633,-0.745010,-0.242912,1.951490,100149.69,-26,+14,+122
43758,13.152,-3.493,1.665,-0.756185,-0.322196,2.057912,100153.15,-28,+8,+121
43767,13.730,-3.886,1.550,-0.872185,-0.378600,2.194132,100152.41,-28,+1,+121
43778,14.251,-4.030,1.165,-1.032882,-0.412655,2.327691,100150.48,-28,+1,+121
43788,14.836,-3.615,1.139,-1.231891,-0.437132,2.449544,100152.26,-30,-6,+120
43798,15.602,-3.105,1.298,-1.421854,-0.475444,2.571398,100152.26,-31,-16,+119
43807,16.498,-2.383,1.531,-1.635230,-0.490875,2.657067,100153.15,-32,-26,+118
43817,17.962,-1.562,1.413,-1.928955,-0.530783,2.660260,100150.68,-32,-26,+118
43828,20.294,0.406,1.599,-2.261523,-0.644122,2.616095,100151.26,-32,-38,+117
43838,22.834,3.417,2.216,-2.483413,-0.812801,2.590554,100150.73,-33,-50,+114
43847,23.776,7.070,3.025,-2.436055,-0.982544,2.570865,100150.73,-34,-63,+112
43857,22.388,8.746,3.374,-1.934808,-1.162930,2.674095,100151.91,-35,-74,+108
43868,19.543,4.085,2.876,-1.041396,-1.358746,3.164700,100152.59,-35,-74,+108
43878,16.462,-1.270,2.640,-0.464589,-1.424195,3.672333,100152.02,-35,-81,+104
43888,15.867,-3.694,4.179,-0.253873,-1.306599,3.834626,100151.59,-34,-91,+102
43897,15.665,-6.781,5.615,-0.025066,-1.192196,3.471195,100151.59,-34,-96,+100
43908,15.848,-5.729,5.825,0.081888,-1.105462,3.050828,100152.98,-34,-96,+100
43918,15.412,-2.520,5.658,0.043044,-1.006489,2.678884,100151.20,-33,-100,+99
43928,13.888,-1.475,6.475,0.104769,-0.763847,2.280866,100149.53,-32,-105,+98
43937,10.114,2.513,5.063,0.081356,-0.602618,1.620517,100148.16,-31,-107,+96
43943,2.883,6.396,4.614,-0.056993,-0.613260,1.133637,100148.16,-31,-107,+96
43953,0.554,-0.926,5.525,-0.241102,-0.663278,1.555068,100148.16,-31,-110,+95
43963,6.360,-9.902,2.502,-0.283139,-0.597829,0.981454,100149.44,-31,-110,+95
43973,6.896,-3.245,1.905,-0.420956,-0.125315,-0.501536,100149.91,-31,-112,+94
43982,5.610,2.368,2.075,-0.775341,0.064648,-0.903811,100148.91,-32,-112,+92
43993,2.719,3.325,1.459,-1.147817,0.013565,-0.976178,100145.60,-34,-114,+91
44003,1.571,3.274,0.600,-1.131322,0.033253,-1.261389,100151.85,-34,-114,+91
44013,2.347,3.079,0.326,-0.766295,0.168409,-1.686545,100148.34,-36,-114,+89
44022,3.606,2.903,0.259,-0.353378,0.260996,-2.062214,100148.34,-39,-113,+89
44033,4.223,2.403,-0.258,0.102108,0.341345,-2.387333,100147.23,-41,-109,+89
44043,4.368,1.452,-0.622,0.534714,0.426482,-2.673608,100150.54,-41,-109,+89
44053,4.698,0.389,-0.892,0.873667,0.481822,-2.919443,100150.54,-45,-102,+92
44063,4.967,-0.481,-1.037,1.095025,0.531308,-3.157828,100145.99,-47,-94,+93
44072,5.239,-0.377,-0.706,1.263172,0.589840,-3.420158,100145.32,-49,-83,+95
44083,5.725,0.250,-0.223,1.438768,0.646244,-3.683553,100143.43,-52,-71,+98
44093,6.440,0.896,0.125,1.700566,0.686684,-3.915020,100142.07,-52,-71,+98
44103,7.156,0.859,0.411,2.040052,0.721271,-4.100727,100146.60,-53,-57,+101
44113,7.934,-0.096,0.527,2.255556,0.710629,-4.239607,100147.18,-54,-41,+103
44123,8.720,-1.836,0.321,2.178401,0.621767,-4.377424,100144.04,-54,-26,+105
44133,9.464,-3.267,-0.011,1.803263,0.510024,-4.571644,100145.24,-54,-26,+105
44143,9.958,-4.190,-0.039,1.216346,0.433932,-4.771185,100145.24,-54,-12,+106
44152,10.356,-4.743,0.157,0.558658,0.416372,-4.973919,100145.24,-54,+1,+106
44163,10.869,-4.435,0.569,-0.016020,0.448299,-5.155900,100145.94,-53,+10,+106
44173,11.640,-3.956,1.109,-0.333157,0.514281,-5.295846,100147.88,-53,+10,+106
44178,12.556,-4.109,1.303,-0.395414,0.571216,-5.367680,100144.16,-51,+20,+106
44188,13.619,-4.744,1.402,-0.316662,0.629216,-5.409185,100143.69,-51,+20,+106
44197,14.744,-5.402,1.087,-0.093708,0.710629,-5.451221,100143.69,-47,+30,+108
44208,15.444,-5.899,0.857,0.236732,0.796299,-5.471974,100147.32,-42,+42,+109
44218,15.824,-5.898,0.625,0.557594,0.846317,-5.438983,100146.54,-37,+54,+109
44228,16.249,-5.798,0.495,0.798108,0.830354,-5.340543,100146.80,-37,+54,+109
44237,16.732,-5.751,0.560,0.941245,0.752666,-5.221882,100145.76,-30,+67,+110
44248,17.110,-5.916,0.802,1.000310,0.653693,-5.095240,100145.76,-24,+79,+110
44258,17.416,-6.620,1.373,1.011484,0.578134,-4.949974,100148.03,-16,+91,+109
44268,17.409,-8.241,2.084,1.022126,0.558446,-4.761607,100147.09,-16,+91,+109
44278,16.041,-10.116,2.593,0.968915,0.598886,-4.509387,100146.72,-9,+102,+108
44288,13.904,-10.837,3.144,0.819392,0.697326,-4.239076,100147.77,+0,+110,+108
44298,12.865,-10.503,3.196,0.645392,0.803216,-3.890011,100147.77,+7,+118,+108
44308,12.805,-11.096,2.406,0.475649,0.875051,-3.406856,100149.26,+15,+118,+108
44318,12.865,-12.730,1.106,0.177136,0.926666,-2.873149,100148.52,+15,+124,+108
44327,12.373,-13.771,0.132,-0.327836,0.941033,-2.374031,100150.88,+22,+127,+108
44338,11.310,-13.210,-0.347,-0.898258,0.854831,-1.846710,100149.62,+28,+126,+111
44348,10.279,-11.128,-0.458,-1.214863,0.663803,-1.266710,100149.62,+30,+122,+113
44358,10.001,-8.429,-0.462,-1.054166,0.399345,-0.637224,100154.66,+30,+122,+113
44367,9.563,-6.285,-0.234,-0.543873,0.149785,0.003436,100152.35,+32,+121,+115
44378,8.840,-4.771,-0.044,0.077631,-0.018893,0.533417,100152.73,+32,+122,+113
44388,7.790,-3.601,0.018,0.687961,-0.117866,0.878224,100148.52,+30,+122,+113
44398,6.992,-2.568,-0.570,1.226988,-0.191297,1.016573,100148.52,+30,+122,+113
44408,6.496,-2.230,-0.919,1.687263,-0.209921,1.043710,100153.77,+27,+126,+110
44413,6.204,-2.414,-1.008,1.920327,-0.184380,1.030408,100151.67,+27,+126,+110
44423,5.723,-2.578,-0.566,2.033667,-0.132765,0.978793,100151.67,+26,+131,+108
44433,5.342,-2.748,0.486,2.166694,-0.050820,0.901105,100150.27,+24,+137,+104
44443,6.504,-1.509,1.740,2.325795,-0.004526,0.798940,100147.84,+22,+143,+100
44453,7.961,-1.375,6.962,2.486492,0.149785,0.760628,100147.84,+22,+143,+100
44463,10.862,1.008,17.010,2.280566,0.538225,0.709013,100150.05,+22,+150,+96
44473,26.423,10.510,3.230,1.485594,0.096574,0.646757,100153.83,+22,+155,+94
44483,37.187,4.045,-8.629,0.819392,-0.530251,1.770572,100154.25,+17,+156,+91
44493,24.090,-10.116,-1.787,1.861795,0.398813,2.897049,100154.25,+17,+156,+91
44503,14.922,-8.906,-3.917,0.969447,0.796831,2.593746,100154.25,+13,+157,+89
44513,2.452,-4.231,2.879,-0.944552,0.838335,2.644297,100154.20,+11,+153,+91
44523,-2.742,-4.279,11.539,-0.876974,0.772886,2.631526,100151.42,+8,+146,+94
44533,11.843,-6.860,5.140,0.703924,0.149785,2.539471,100150.02,+3,+146,+92
44542,21.890,-6.923,-1.183,0.884310,-0.404141,2.683141,100150.06,+3,+146,+92
44553,16.747,-7.192,-0.240,0.437337,-0.100306,2.554902,100150.06,-1,+144,+91
44563,10.724,-2.271,1.646,-0.215029,0.058262,2.313324,100154.63,-5,+139,+91
44573,6.340,-0.042,1.996,-0.367212,-0.034857,2.063765,100151.93,-9,+136,+91
44583,6.564,-0.076,1.106,0.021228,-0.135958,1.842407,100151.38,-9,+136,+91
44593,7.934,-0.503,0.717,0.469796,-0.100838,1.560389,100151.38,-11,+135,+91
44603,9.325,-1.206,-0.030,0.538438,-0.106159,1.457692,100151.24,-15,+134,+90
44613,10.837,-1.908,-1.101,0.449576,-0.050288,1.360848,100151.24,-17,+133,+90
44623,11.666,-2.041,-0.813,0.283026,0.103492,1.187380,100152.66,-17,+133,+90
44633,11.053,-1.891,0.636,0.049962,0.239712,1.022958,100150.40,-18,+132,+90
44643,9.492,-2.243,2.176,-0.198534,0.274299,0.900041,100148.46,-19,+130,+91
44648,8.900,-1.943,2.028,-0.363488,0.255143,0.785637,100148.46,-19,+130,+91
44658,9.021,-1.204,1.659,-0.444901,0.259400,0.665913,100153.13,-19,+126,+92
44668,9.255,-0.886,1.511,-0.432662,0.253015,0.568536,100152.39,-20,+125,+93
44678,9.468,-1.042,1.195,-0.353378,0.237583,0.508408,100151.50,-20,+125,+93
44688,9.583,-1.615,0.915,-0.293249,0.264189,0.455197,100149.23,-20,+122,+93
44698,9.458,-1.870,0.617,-0.371469,0.320060,0.393472,100149.23,-20,+121,+94
44708,9.176,-1.375,0.503,-0.532699,0.383382,0.328023,100154.41,-19,+119,+96
44718,9.525,-0.728,0.534,-0.659873,0.420097,0.291307,100150.38,-19,+119,+96
44728,10.353,-0.264,1.159,-0.738625,0.436060,0.287583,100151.20,-18,+116,+97
44738,10.588,0.124,2.227,-0.726387,0.414244,0.312592,100151.73,-17,+113,+100
44748,10.099,0.125,3.196,-0.612515,0.362097,0.372720,100151.73,-17,+110,+100
44759,9.405,-0.178,3.528,-0.500240,0.305161,0.437105,100151.90,-17,+110,+100
44768,8.765,-0.418,3.645,-0.413506,0.240244,0.487656,100149.65,-17,+108,+103
44778,8.456,-0.516,3.237,-0.298038,0.181712,0.528628,100149.54,-17,+106,+101
44788,8.972,-0.925,2.804,-0.229928,0.116795,0.568004,100151.79,-17,+104,+103
44798,9.531,-0.593,2.295,-0.136809,0.056666,0.580775,100151.79,-18,+104,+103
44808,9.744,0.085,1.906,0.053686,0.030593,0.595674,100151.28,-18,+104,+103
44818,9.551,-0.486,1.467,0.230347,-0.010380,0.654738,100153.75,-18,+104,+103
44828,9.635,-1.259,1.419,0.302182,-0.050288,0.677087,100151.92,-20,+104,+103
44838,9.683,-1.947,1.621,0.225558,-0.081682,0.707949,100149.66,-20,+102,+102
44848,9.911,-1.988,1.845,0.089870,-0.090728,0.704757,100149.66,-20,+102,+102
44858,10.132,-1.449,1.744,-0.027726,-0.081150,0.672298,100154.84,-21,+102,+103
44868,10.303,-0.987,1.848,-0.079341,-0.072637,0.655270,100152.64,-22,+100,+102
44878,10.266,-0.548,2.071,-0.035708,-0.085407,0.677619,100150.34,-24,+98,+102
44888,9.825,-0.590,2.234,0.099980,-0.118930,0.729766,100151.75,-24,+98,+102
44898,9.442,-0.699,2.330,0.309631,-0.158838,0.782445,100151.75,-26,+98,+101
44908,9.109,-1.208,2.253,0.489484,-0.201407,0.839380,100154.09,-28,+98,+101
44918,9.037,-1.866,2.181,0.515025,-0.239187,0.879289,100151.67,-28,+98,+100
44929,9.350,-2.125,2.087,0.412328,-0.266857,0.892059,100149.06,-28,+98,+100
44938,9.581,-2.152,2.084,0.258549,-0.276435,0.913876,100149.89,-31,+97,+99
44948,9.631,-1.697,2.069,0.112751,-0.283884,0.942078,100149.89,-33,+96,+98
44958,9.688,-1.325,1.742,0.084017,-0.304636,0.978261,100150.82,-35,+94,+98
44968,9.676,-1.703,1.307,0.136695,-0.341352,1.015509,100151.60,-35,+94,+98
44978,9.824,-1.878,1.274,0.151595,-0.371150,1.043178,100154.49,-37,+94,+98
44988,10.151,-1.797,1.566,0.162769,-0.403077,1.059674,100153.02,-40,+91,+97
44998,10.294,-1.850,1.990,0.267594,-0.422233,1.078298,100153.02,-41,+90,+95
45008,10.022,-2.625,2.127,0.337301,-0.438728,1.110224,100154.33,-41,+90,+95
45019,9.612,-2.751,2.434,0.271319,-0.445113,1.118206,100152.66,-45,+89,+95
45028,8.715,-2.704,2.291,0.180328,-0.417444,1.130976,100152.02,-47,+88,+95
45038,8.674,-2.858,1.920,0.116475,-0.412123,1.142683,100148.14,-49,+86,+93
45048,9.659,-2.830,1.640,0.062200,-0.460545,1.127784,100148.14,-49,+86,+93
45059,10.391,-2.523,1.669,0.044640,-0.497260,1.117142,100152.01,-52,+83,+92
45068,10.755,-2.796,1.510,0.057411,-0.518544,1.137362,100151.32,-54,+81,+91
45078,10.836,-3.028,1.080,0.025485,-0.538233,1.161839,100150.85,-58,+79,+90
45088,10.372,-3.398,0.607,-0.011763,-0.540361,1.186316,100151.95,-58,+79,+90
45099,9.723,-4.119,-0.132,-0.043158,-0.537700,1.194830,100151.95,-60,+76,+89
45108,9.224,-4.130,-0.524,-0.126699,-0.530783,1.172481,100156.31,-62,+72,+88
45119,8.699,-3.914,-0.287,-0.138583,-0.547988,1.144634,100150.86,-66,+70,+87
45128,8.762,-3.994,0.061,-0.077213,-0.596765,1.131509,100150.02,-66,+70,+87
45138,9.239,-3.712,0.682,0.001007,-0.648911,1.099050,100149.95,-68,+67,+86
45148,9.356,-3.799,1.383,0.021760,-0.707443,1.100114,100149.95,-71,+65,+85
45158,9.719,-3.939,1.631,0.051026,-0.761187,1.112885,100151.86,-73,+62,+83
45168,10.162,-3.495,1.801,0.028145,-0.798966,1.106499,100150.03,-73,+62,+83
45178,9.896,-3.919,1.841,0.029741,-0.841535,1.125655,100149.61,-77,+59,+82
45189,9.735,-4.701,1.346,0.033998,-0.869205,1.149068,100151.02,-80,+56,+79
45198,9.926,-4.844,0.598,-0.120846,-0.893150,1.133105,100151.02,-84,+54,+78
45208,9.970,-4.676,-0.008,-0.271965,-0.921884,1.132573,100150.80,-84,+54,+78
45218,9.963,-5.201,-0.716,-0.367745,-0.966049,1.156518,100151.80,-86,+50,+76
45229,10.571,-5.283,-1.505,-0.510882,-1.032563,1.152793,100151.38,-90,+45,+73
45238,11.942,-3.820,-0.995,-0.670515,-1.159205,1.117142,100152.23,-93,+40,+72
45248,13.042,-3.147,0.381,-0.528442,-1.355021,1.110224,100152.23,-93,+40,+72
45258,14.159,-3.631,0.820,-0.221947,-1.530617,1.085215,100149.59,-98,+37,+69
45268,15.131,-3.839,1.087,-0.137341,-1.613094,1.032536,100150.33,-102,+34,+65
45279,15.394,-2.502,1.310,-0.205451,-1.628525,0.996353,100150.59,-107,+30,+60
45288,13.924,-2.450,1.180,-0.168203,-1.590746,1.025619,100151.95,-111,+26,+57
45298,12.585,-3.573,-0.159,-0.248552,-1.566801,1.051692,100151.95,-111,+26,+57
45308,12.438,-3.465,-0.980,-0.622093,-1.543920,1.003270,100155.27,-115,+23,+52
45319,12.195,-1.862,-0.873,-0.915818,-1.549773,0.939949,100151.71,-119,+17,+49
45328,11.353,-1.139,-0.719,-0.838130,-1.618415,0.978261,100151.29,-123,+14,+45
45338,10.646,-1.628,-0.705,-0.502900,-1.726434,1.110224,100152.49,-123,+14,+45
45348,10.065,-2.236,-0.147,0.028677,-1.806782,1.205472,100152.49,-126,+8,+40
45353,10.018,-2.084,0.122,0.482567,-1.865847,1.219839,100153.65,-126,+8,+40
45364,9.828,-2.005,-0.160,0.881649,-1.957369,1.176738,100153.65,-131,+7,+35
45374,9.449,-2.842,-0.595,1.307869,-2.090929,1.137362,100150.45,-135,+6,+30
45383,9.753,-4.115,-0.649,1.694181,-2.168085,1.081490,100150.49,-139,+6,+23
45393,9.850,-4.718,-0.463,1.943740,-2.238855,0.977729,100148.24,-139,+6,+23
45404,9.482,-4.506,-0.084,2.127318,-2.335699,0.836720,100154.13,-143,+7,+16
