110004,9.450,-2.230,2.363,0.010328,-0.012046,-0.015952,99939.47,-100,+88,-65
110014,9.474,-2.222,2.369,0.017245,-0.012046,-0.012760,99939.47,-100,+88,-65
110024,9.423,-2.300,2.341,0.017245,-0.011514,-0.012227,99941.96,-101,+86,-58
110034,9.405,-2.316,2.315,0.005539,-0.009385,-0.014356,99939.66,-98,+89,-64
110044,9.437,-2.317,2.260,-0.012553,-0.006725,-0.016484,99940.84,-100,+89,-64
110054,9.427,-2.254,2.269,-0.013085,-0.005128,-0.017016,99940.84,-100,+89,-64
110064,9.437,-2.265,2.301,-0.002443,-0.007789,-0.016484,99940.77,-100,+87,-57
110074,9.450,-2.278,2.354,0.003410,-0.009917,-0.014888,99940.77,-98,+89,-66
110084,9.455,-2.303,2.364,0.001814,-0.010449,-0.013292,99940.52,-99,+89,-65
110094,9.426,-2.306,2.376,-0.001911,-0.012046,-0.012227,99941.09,-99,+89,-65
110104,9.416,-2.288,2.334,-0.008296,-0.012046,-0.013292,99938.63,-100,+87,-58
110114,9.433,-2.326,2.286,-0.016278,-0.009917,-0.013292,99938.63,-98,+89,-65
110125,9.457,-2.308,2.271,-0.018406,-0.008853,-0.014356,99940.45,-99,+89,-63
110134,9.484,-2.256,2.268,-0.014681,-0.008321,-0.013824,99940.39,-99,+89,-63
110144,9.468,-2.250,2.311,-0.002443,-0.008853,-0.011163,99940.81,-100,+87,-58
110154,9.431,-2.264,2.346,0.005007,-0.010449,-0.009035,99938.87,-98,+90,-66
110164,9.408,-2.272,2.339,0.004475,-0.010449,-0.007971,99940.43,-100,+88,-63
110175,9.443,-2.280,2.328,0.002346,-0.010449,-0.006374,99942.48,-100,+88,-63
110184,9.452,-2.291,2.299,0.003942,-0.009385,-0.005310,99937.51,-101,+87,-59
110194,9.465,-2.280,2.320,0.006603,-0.010449,-0.003182,99937.51,-98,+89,-66
110204,9.465,-2.312,2.316,0.012456,-0.009917,-0.003714,99937.66,-100,+88,-63
110214,9.431,-2.325,2.331,0.012456,-0.009917,-0.004246,99937.66,-100,+88,-63
110224,9.422,-2.316,2.377,0.008731,-0.009917,-0.007438,99942.04,-100,+87,-57
110234,9.427,-2.358,2.339,0.002346,-0.008853,-0.010099,99941.88,-98,+89,-66
110244,9.425,-2.306,2.310,-0.001379,-0.007789,-0.010631,99940.16,-99,+88,-63
110255,9.457,-2.268,2.285,0.000750,-0.007789,-0.011163,99939.63,-100,+87,-58
110264,9.453,-2.276,2.304,0.009264,-0.008321,-0.010099,99939.63,-100,+87,-58
110274,9.463,-2.297,2.287,0.014585,-0.007789,-0.009035,99941.11,-98,+90,-66
110284,9.459,-2.300,2.305,0.013520,-0.008321,-0.011163,99937.16,-100,+88,-62
110295,9.456,-2.261,2.332,0.010328,-0.007789,-0.012227,99938.94,-100,+86,-58
110304,9.453,-2.286,2.345,0.003942,-0.008853,-0.012760,99938.94,-100,+86,-58
110314,9.462,-2.290,2.365,-0.002443,-0.008853,-0.011163,99938.94,-98,+89,-66
110324,9.474,-2.262,2.310,-0.004571,-0.009917,-0.010631,99943.89,-100,+87,-63
110334,9.487,-2.270,2.329,-0.004571,-0.010449,-0.010631,99940.95,-99,+86,-59
110344,9.493,-2.255,2.334,-0.004039,-0.010449,-0.007971,99941.75,-99,+86,-59
110354,9.517,-2.244,2.319,0.000750,-0.012046,-0.007971,99938.70,-98,+90,-66
110364,9.459,-2.261,2.322,0.003410,-0.016303,-0.005842,99938.70,-101,+88,-62
110374,9.413,-2.314,2.298,-0.000847,-0.017899,-0.006374,99940.80,-100,+87,-59
110385,9.427,-2.338,2.243,-0.006700,-0.017899,-0.006906,99941.00,-100,+87,-59
110394,9.429,-2.302,2.262,-0.007764,-0.016303,-0.007438,99938.77,-98,+90,-66
110404,9.419,-2.274,2.272,-0.006168,-0.015770,-0.007971,99938.77,-100,+88,-61
110414,9.431,-2.296,2.263,-0.006168,-0.014706,-0.007971,99941.33,-99,+87,-59
110425,9.438,-2.268,2.275,-0.001379,-0.013642,-0.009035,99941.33,-99,+87,-59
110434,9.455,-2.268,2.293,0.004475,-0.010981,-0.007971,99940.55,-98,+90,-67
110444,9.470,-2.288,2.301,0.009264,-0.010449,-0.006906,99942.17,-101,+87,-61
110454,9.501,-2.314,2.331,0.013520,-0.011514,-0.009035,99940.23,-99,+87,-60
110465,9.557,-2.327,2.309,0.012634,-0.012932,-0.010454,99943.73,-99,+87,-60
110474,9.529,-2.273,2.310,0.001282,-0.021092,-0.012227,99943.73,-97,+90,-67
110484,9.607,-2.253,2.363,-0.007232,-0.033862,-0.017016,99941.69,-101,+87,-61
110494,9.706,-2.282,2.353,-0.004039,-0.045036,-0.015952,99940.86,-99,+87,-59
110504,9.534,-2.212,2.257,-0.026388,-0.051422,-0.016484,99942.64,-99,+87,-59
110515,9.386,-2.183,2.218,-0.042351,-0.059936,-0.015420,99941.99,-98,+90,-67
110524,9.423,-2.086,2.190,-0.037030,-0.066321,-0.011695,99941.26,-100,+87,-61
110534,9.488,-2.053,2.226,-0.014681,-0.076431,-0.004246,99939.15,-99,+87,-61
110544,9.475,-2.194,2.232,0.008731,-0.091862,0.005332,99939.15,-99,+87,-61
110555,9.640,-2.338,2.254,0.019906,-0.099844,0.006396,99940.37,-98,+90,-67
110564,9.760,-2.382,2.261,0.008731,-0.095587,0.002140,99940.37,-100,+87,-61
110574,9.548,-2.346,2.187,-0.026388,-0.095055,-0.002117,99943.27,-99,+87,-61
110584,9.484,-2.312,2.140,-0.054057,-0.088137,-0.008503,99942.87,-99,+87,-61
110595,9.472,-2.217,2.165,-0.064168,-0.077495,-0.014356,99939.09,-97,+90,-68
110605,9.367,-2.174,2.141,-0.061507,-0.068981,-0.008503,99939.98,-100,+87,-61
110614,9.338,-2.211,2.117,-0.049268,-0.068449,0.001607,99939.98,-98,+88,-63
110624,9.308,-2.212,2.090,-0.037030,-0.067917,0.012782,99942.02,-98,+88,-63
110635,9.271,-2.134,2.038,-0.025324,-0.065257,0.026617,99941.28,-97,+90,-68
110645,9.304,-2.088,2.011,-0.008828,-0.061000,0.041516,99940.64,-99,+87,-61
110654,9.255,-2.048,2.042,0.016713,-0.048229,0.059075,99940.64,-97,+89,-63
110664,9.307,-1.809,2.055,0.076842,-0.024816,0.072378,99940.64,-97,+89,-63
110674,9.471,-2.108,2.048,0.157190,-0.013110,0.075571,99944.82,-98,+90,-68
110685,9.299,-2.653,1.876,0.229557,-0.009917,0.069717,99943.93,-100,+87,-60
110694,9.166,-2.744,1.752,0.231685,0.007110,0.049497,99940.68,-98,+87,-63
110700,9.154,-2.605,1.925,0.225832,0.022541,0.030341,99938.32,-98,+87,-63
110709,9.160,-2.413,2.074,0.235942,0.025734,0.010653,99938.32,-98,+89,-68
110720,9.170,-2.098,2.082,0.277979,0.022009,-0.009567,99940.40,-100,+85,-61
110730,9.055,-2.000,2.128,0.363117,0.003386,-0.010631,99939.82,-100,+85,-61
110739,9.070,-2.258,2.167,0.430162,-0.015770,-0.007971,99942.18,-98,+86,-64
110749,9.255,-2.519,2.335,0.442401,-0.024816,-0.005310,99939.66,-97,+87,-69
110759,9.427,-2.495,2.383,0.406750,-0.013642,-0.011163,99939.66,-100,+85,-61
110770,9.505,-2.934,2.097,0.317355,0.007110,-0.034576,99941.42,-100,+85,-61
110779,9.365,-3.088,1.916,0.214658,0.031587,-0.069163,99941.05,-98,+85,-64
110789,9.368,-2.486,1.946,0.138566,0.058193,-0.104282,99941.00,-98,+86,-69
110799,9.555,-1.924,1.688,0.126328,0.079477,-0.121842,99939.53,-100,+83,-61
110810,9.738,-1.834,1.654,0.235410,0.089055,-0.114925,99939.53,-100,+83,-61
110820,9.619,-1.875,1.885,0.391851,0.097569,-0.100026,99941.75,-98,+85,-65
110829,9.542,-2.216,1.939,0.467410,0.113532,-0.094704,99942.59,-98,+85,-68
110839,9.449,-2.765,1.861,0.436016,0.146523,-0.113860,99938.70,-101,+82,-60
110850,9.433,-2.974,2.161,0.374291,0.185367,-0.154301,99938.97,-101,+82,-60
110860,9.441,-2.915,2.432,0.315227,0.216229,-0.209108,99938.97,-98,+85,-65
110869,9.472,-3.006,2.630,0.257759,0.232193,-0.270833,99942.24,-99,+85,-67
110879,9.549,-3.063,2.828,0.194438,0.237514,-0.342668,99944.98,-101,+83,-59
110889,9.677,-2.861,2.934,0.140163,0.237514,-0.411310,99941.82,-101,+83,-59
110900,9.663,-2.569,2.982,0.120475,0.229000,-0.463457,99938.84,-98,+85,-64
110909,9.516,-2.302,3.013,0.122071,0.217826,-0.493255,99938.84,-99,+87,-66
110919,9.490,-2.097,3.006,0.091741,0.206119,-0.509218,99941.52,-101,+85,-58
110929,9.547,-1.768,2.949,0.039594,0.176853,-0.509218,99940.27,-101,+85,-58
110935,9.556,-1.460,2.878,-0.002975,0.159826,-0.496447,99939.54,-98,+89,-62
110945,9.668,-1.161,2.748,-0.042351,0.145991,-0.469842,99939.54,-98,+90,-65
110955,9.763,-0.949,2.761,-0.072149,0.123110,-0.415567,99937.18,-98,+90,-65
110964,9.633,-0.753,2.857,-0.075342,0.099165,-0.350649,99937.18,-100,+87,-58
110974,9.563,-0.506,3.075,-0.070553,0.067771,-0.282007,99941.98,-97,+90,-63
110985,9.583,-0.524,3.355,-0.055654,0.032119,-0.203787,99940.59,-99,+91,-64
110995,9.532,-0.661,3.322,-0.064168,-0.006725,-0.132484,99937.73,-99,+91,-64
111004,9.603,-0.971,3.198,-0.115782,-0.040780,-0.074484,99937.73,-100,+89,-57
111014,9.634,-1.136,2.957,-0.156755,-0.067385,-0.028723,99937.73,-98,+91,-63
111025,9.646,-1.140,2.654,-0.164204,-0.083880,0.005864,99942.42,-99,+92,-64
111035,9.632,-1.385,2.441,-0.133342,-0.091862,0.039919,99942.22,-99,+92,-64
111044,9.567,-1.635,2.450,-0.083856,-0.094523,0.057479,99943.31,-99,+90,-57
111054,9.453,-1.763,2.635,-0.059911,-0.088669,0.061736,99939.34,-97,+92,-63
111065,9.365,-1.736,2.696,-0.071085,-0.074302,0.063332,99939.34,-98,+92,-65
111075,9.377,-1.900,2.690,-0.088645,-0.066853,0.052158,99942.86,-98,+92,-65
111085,9.421,-1.671,2.688,-0.048736,-0.068449,0.040984,99941.97,-99,+89,-58
111094,9.462,-1.787,2.673,-0.049268,-0.071642,0.035130,99939.77,-97,+92,-65
111105,9.466,-2.058,2.508,-0.079599,-0.072174,0.023956,99940.08,-98,+91,-64
111115,9.532,-1.843,2.556,-0.115782,-0.078559,0.007993,99942.44,-98,+91,-64
111125,9.528,-1.670,2.606,-0.131213,-0.092926,-0.000521,99941.61,-99,+90,-58
111134,9.551,-1.639,2.445,-0.129085,-0.108358,-0.005842,99941.61,-96,+92,-66
111144,9.568,-1.727,2.444,-0.109397,-0.114211,-0.006906,99940.61,-98,+93,-65
111155,9.608,-1.641,2.539,-0.092901,-0.113146,-0.009567,99940.19,-98,+93,-65
111165,9.573,-1.481,2.499,-0.080663,-0.119532,-0.001585,99940.19,-98,+90,-58
111174,9.595,-1.398,2.576,-0.046608,-0.126449,0.014378,99940.30,-96,+94,-66
111184,9.627,-1.526,2.578,-0.025856,-0.133899,0.037791,99940.84,-98,+92,-64
111195,9.597,-1.586,2.602,-0.038626,-0.134963,0.058543,99940.46,-98,+92,-59
111205,9.501,-1.551,2.751,-0.104076,-0.124321,0.079828,99938.63,-98,+90,-59
111215,9.478,-1.415,2.647,-0.168461,-0.117403,0.094195,99943.17,-95,+93,-67
111224,9.516,-1.369,2.733,-0.165801,-0.130174,0.118139,99942.13,-98,+92,-65
111235,9.544,-1.295,2.718,-0.132810,-0.140816,0.144745,99941.08,-98,+90,-60
111245,9.645,-1.397,2.410,-0.118443,-0.144541,0.170818,99940.30,-98,+90,-60
111254,9.732,-1.579,2.172,-0.078002,-0.152523,0.197424,99940.30,-96,+92,-68
111264,9.678,-1.797,2.232,-0.062571,-0.148266,0.211791,99940.30,-97,+91,-66
111275,9.717,-1.845,2.375,-0.108333,-0.137624,0.229882,99945.91,-98,+89,-61
111285,9.794,-1.732,2.584,-0.160479,-0.139220,0.250103,99941.09,-98,+89,-61
111290,9.743,-1.566,2.698,-0.171122,-0.149862,0.269791,99940.88,-95,+92,-69
111299,9.591,-1.308,2.603,-0.170057,-0.166890,0.296396,99941.15,-95,+92,-69
111309,9.478,-1.207,2.253,-0.172186,-0.181257,0.346415,99941.15,-97,+90,-66
111320,9.701,-1.489,1.895,-0.186021,-0.181257,0.401754,99943.88,-98,+89,-62
111330,10.108,-1.502,2.029,-0.204645,-0.167954,0.454433,99940.09,-95,+90,-69
111340,9.996,-1.134,2.609,-0.182828,-0.155715,0.523607,99939.09,-95,+90,-69
111349,9.890,-1.092,3.247,-0.162608,-0.162101,0.610341,99942.92,-98,+88,-66
111360,9.851,-1.207,3.706,-0.170057,-0.178596,0.703460,99942.92,-98,+85,-62
111370,9.933,-1.320,3.404,-0.238700,-0.194559,0.790194,99942.03,-95,+87,-69
111380,10.027,-1.010,2.569,-0.319580,-0.200412,0.882781,99941.30,-95,+87,-69
111389,10.393,-0.499,1.975,-0.313195,-0.220101,0.997185,99940.20,-98,+84,-66
111399,11.433,0.125,2.274,-0.145048,-0.267458,1.150964,99938.05,-98,+81,-63
111410,11.742,0.102,2.287,0.021502,-0.330247,1.341460,99938.05,-97,+82,-71
111420,11.332,-1.210,1.660,0.044915,-0.377605,1.527698,99943.59,-97,+82,-71
111429,12.032,-2.253,1.536,-0.045012,-0.381330,1.657001,99941.13,-100,+76,-67
111439,13.377,-2.766,1.779,-0.240828,-0.362706,1.732561,99940.02,-99,+71,-64
111450,14.971,-3.293,2.013,-0.440901,-0.379733,1.775129,99940.34,-98,+72,-73
111460,17.276,-3.086,2.600,-0.574993,-0.418577,1.801203,99940.34,-100,+72,-68
111470,19.017,-2.546,3.274,-0.646296,-0.447311,1.780450,99941.59,-100,+66,-68
111479,18.269,-2.155,3.119,-0.638846,-0.500522,1.727772,99941.16,-100,+64,-66
111490,15.587,-2.057,2.718,-0.488791,-0.557990,1.653808,99940.27,-98,+65,-76
111500,12.997,-3.706,2.238,-0.432388,-0.595770,1.651148,99941.32,-101,+58,-71
111510,11.658,-7.496,2.508,-0.367470,-0.632486,1.757038,99941.32,-101,+58,-71
111519,10.946,-9.778,3.344,-0.154094,-0.633018,1.850157,99941.96,-100,+56,-71
111525,10.428,-9.998,3.172,-0.032773,-0.589385,1.835258,99939.80,-100,+56,-71
111535,9.678,-10.453,2.578,-0.179103,-0.531385,1.795882,99939.80,-98,+55,-79
111545,9.341,-9.467,2.131,-0.430791,-0.461146,1.750652,99940.27,-100,+49,-74
111555,8.669,-6.762,1.487,-0.619158,-0.404743,1.562817,99939.54,-99,+47,-74
111564,7.478,-6.157,1.481,-0.890534,-0.339293,1.450542,99939.54,-99,+47,-74
111575,6.149,-6.493,1.275,-0.941084,-0.309495,1.390946,99941.94,-98,+50,-82
111585,5.283,-6.431,0.930,-0.896387,-0.273844,1.311130,99938.83,-101,+44,-77
111595,4.884,-5.884,0.403,-0.816571,-0.246706,1.246212,99938.09,-98,+44,-77
111604,4.645,-5.243,0.006,-0.689397,-0.230743,1.187680,99938.09,-98,+44,-77
111614,4.248,-4.845,-0.273,-0.514332,-0.221165,1.137662,99938.09,-98,+46,-84
111625,3.714,-4.745,-0.541,-0.341929,-0.211055,1.096157,99938.92,-100,+40,-79
111635,3.189,-4.892,-0.719,-0.184956,-0.202009,1.051460,99940.86,-98,+40,-79
111645,2.777,-4.853,-0.838,-0.050333,-0.187642,0.995056,99938.83,-98,+40,-79
111654,2.463,-4.683,-0.879,0.051832,-0.168486,0.924286,99940.03,-98,+41,-84
111665,2.259,-4.509,-0.806,0.126328,-0.148798,0.842341,99940.03,-99,+34,-80
111675,1.983,-4.400,-0.668,0.187520,-0.135495,0.749754,99941.64,-98,+34,-80
111685,1.653,-4.363,-0.626,0.225832,-0.125385,0.654506,99941.25,-97,+36,-87
111695,1.288,-4.417,-0.464,0.230089,-0.107825,0.556066,99940.39,-97,+36,-87
111705,1.111,-4.367,-0.309,0.204016,-0.087605,0.440598,99940.39,-98,+30,-80
111715,1.118,-4.166,-0.222,0.135374,-0.067385,0.311827,99940.79,-97,+31,-81
111725,1.217,-3.978,-0.125,0.052364,-0.046101,0.193699,99940.79,-96,+34,-86
111734,1.359,-3.996,-0.122,-0.004039,-0.037055,0.075571,99941.52,-96,+34,-86
111745,1.454,-4.209,-0.238,-0.026920,-0.050358,-0.033512,99940.21,-99,+29,-79
111755,1.554,-4.508,-0.223,-0.037562,-0.055679,-0.134613,99940.43,-97,+32,-81
111760,1.713,-4.547,-0.094,-0.043415,-0.055147,-0.221879,99940.43,-97,+32,-81
111770,2.015,-4.343,-0.025,-0.042883,-0.050890,-0.327236,99939.86,-97,+34,-85
111779,2.504,-3.920,0.131,-0.033837,-0.034926,-0.468778,99939.17,-98,+30,-79
111790,2.924,-3.597,0.257,-0.026388,-0.006725,-0.611383,99937.88,-98,+30,-79
111800,3.176,-3.572,0.403,-0.008828,0.031055,-0.756117,99941.53,-96,+34,-82
111810,3.517,-3.651,0.504,0.013520,0.082670,-0.910429,99941.53,-96,+38,-85
111820,3.998,-3.813,0.566,0.020970,0.143330,-1.066869,99943.68,-98,+35,-78
111830,4.516,-4.100,0.485,0.016713,0.204523,-1.214795,99942.79,-98,+35,-78
111840,5.022,-4.447,0.340,0.025759,0.254541,-1.347823,99939.02,-96,+40,-80
111850,5.583,-4.532,0.289,0.095465,0.298174,-1.462759,99937.71,-97,+46,-84
111860,6.457,-4.490,0.297,0.235942,0.324248,-1.583548,99937.71,-99,+42,-76
111869,7.631,-4.490,0.354,0.427502,0.335954,-1.704869,99941.80,-99,+42,-76
111880,8.804,-4.640,0.461,0.621722,0.338615,-1.811823,99942.01,-97,+49,-78
111890,9.652,-4.884,0.597,0.776034,0.329037,-1.893767,99939.23,-98,+52,-82
111900,10.282,-5.204,0.787,0.892566,0.312541,-1.949639,99940.96,-98,+50,-73
111909,10.808,-5.596,0.911,0.976639,0.276358,-2.006575,99940.96,-98,+50,-73
111920,11.339,-5.885,1.117,0.996327,0.237514,-2.065639,99944.01,-96,+55,-76
111930,11.830,-5.702,1.713,0.946841,0.243367,-2.112997,99942.38,-96,+60,-79
111940,12.380,-5.286,2.279,0.871813,0.297110,-2.128960,99941.09,-98,+58,-72
111950,13.078,-4.878,2.726,0.761667,0.367349,-2.131088,99940.82,-96,+64,-75
111960,13.573,-4.530,3.055,0.658437,0.448761,-2.124703,99940.82,-96,+64,-75
111970,13.879,-4.319,2.908,0.577025,0.542413,-2.083731,99941.88,-96,+68,-77
111980,12.158,-10.563,4.653,0.330658,0.661605,-1.927290,99941.03,-98,+68,-69
111990,14.789,-13.327,4.455,0.192309,0.653624,-1.489364,99939.41,-96,+73,-72
111995,14.948,-8.212,1.831,0.672804,0.536560,-1.423383,99940.88,-96,+73,-72
112005,16.283,-1.373,1.409,0.133245,0.586578,-1.454245,99940.88,-96,+77,-74
112015,19.418,6.174,-0.667,-0.638314,0.400339,-1.613878,99940.88,-96,+77,-74
112025,18.280,4.064,1.622,-0.153030,0.351385,-1.547364,99945.08,-98,+77,-66
112035,13.802,-3.601,2.998,0.219447,0.405661,-1.039199,99942.45,-94,+81,-70
112045,10.234,-4.750,0.001,0.356199,0.327973,-0.810392,99941.48,-96,+84,-72
112055,7.943,-3.539,0.072,0.297667,0.345532,-0.823163,99941.48,-96,+84,-72
112065,8.292,-2.144,1.941,0.195502,0.400339,-0.868924,99940.22,-98,+83,-64
112075,9.549,-1.565,3.899,0.087484,0.361495,-0.823695,99940.22,-96,+85,-69
112084,9.300,-1.808,4.581,-0.127489,0.286468,-0.728447,99942.00,-96,+88,-70
112095,8.350,-1.782,3.830,-0.337672,0.288064,-0.658209,99941.11,-96,+88,-70
112105,8.688,-1.172,2.423,-0.495176,0.283807,-0.616704,99942.78,-98,+87,-62
112115,9.419,-0.238,2.169,-0.494112,0.251349,-0.520924,99942.78,-94,+90,-67
112125,9.664,-0.011,2.257,-0.270626,0.209312,-0.395879,99942.12,-96,+92,-67
112135,9.767,-0.891,1.912,0.052897,0.155037,-0.300099,99940.34,-96,+92,-67
112145,9.969,-1.962,1.866,0.272126,0.117257,-0.245824,99942.18,-98,+90,-61
112155,10.090,-2.381,2.369,0.295539,0.108743,-0.222411,99938.28,-95,+92,-67
112165,10.097,-2.278,2.684,0.183796,0.124174,-0.217090,99942.33,-97,+92,-67
112175,9.936,-1.646,2.666,0.055025,0.130560,-0.201659,99941.59,-98,+90,-61
112185,9.699,-0.893,2.715,0.012456,0.116193,-0.154833,99941.80,-98,+90,-61
112195,9.583,-0.622,2.794,0.089080,0.075752,-0.084594,99941.80,-95,+93,-67
112205,9.666,-0.604,2.623,0.181667,0.044358,-0.002649,99939.13,-96,+92,-66
112215,9.781,-1.411,2.284,0.218383,0.004982,0.065461,99939.13,-98,+90,-60
112225,9.731,-1.732,2.253,0.243924,-0.011514,0.106433,99942.19,-98,+90,-60
112235,9.663,-1.745,2.437,0.198163,-0.021092,0.127717,99943.25,-95,+92,-67
112245,9.626,-1.855,2.463,0.149208,-0.031734,0.143149,99941.09,-97,+90,-66
112256,9.543,-1.973,2.366,0.113025,-0.041844,0.150598,99941.14,-98,+89,-61
112265,9.475,-2.015,2.362,0.093869,-0.048761,0.150066,99941.14,-98,+89,-61
112275,9.577,-1.957,2.443,0.059282,-0.051954,0.156983,99942.56,-96,+90,-68
112285,9.598,-2.067,2.576,0.012988,-0.058871,0.163901,99942.14,-98,+89,-67
112295,9.550,-2.079,2.596,-0.003507,-0.071110,0.163369,99941.94,-99,+87,-61
112305,9.498,-1.958,2.650,-0.007764,-0.083348,0.170286,99941.94,-99,+87,-61
112315,9.362,-2.046,2.448,-0.029580,-0.096119,0.179332,99941.94,-96,+90,-69
112325,9.380,-2.207,1.989,-0.090241,-0.092926,0.184121,99942.05,-98,+88,-67
112335,9.662,-2.234,1.695,-0.146645,-0.079624,0.187314,99940.80,-99,+86,-62
112345,9.781,-1.992,1.944,-0.145048,-0.066321,0.193699,99941.11,-99,+86,-62
112355,9.735,-1.757,2.249,-0.123232,-0.071642,0.213919,99941.63,-95,+90,-69
112365,9.635,-1.809,2.473,-0.107801,-0.089202,0.242653,99941.63,-98,+87,-66
112375,9.652,-1.894,2.609,-0.123764,-0.105697,0.272983,99942.42,-98,+85,-62
112386,9.636,-1.770,2.706,-0.161012,-0.129642,0.315020,99942.84,-98,+85,-62
112395,9.632,-1.489,2.704,-0.192938,-0.159972,0.369295,99939.94,-96,+88,-69
112405,9.682,-1.278,2.834,-0.197727,-0.199348,0.436341,99939.94,-98,+87,-67
112415,9.929,-1.146,2.958,-0.188149,-0.248302,0.521479,99942.73,-99,+84,-63
112425,10.113,-1.138,3.045,-0.189745,-0.300449,0.631625,99942.73,-99,+84,-63
112435,10.078,-1.057,2.949,-0.213690,-0.351000,0.757735,99943.38,-96,+86,-71
112445,10.002,-0.894,2.767,-0.264241,-0.394633,0.905130,99941.69,-98,+83,-67
112455,10.070,-0.724,2.588,-0.288718,-0.448376,1.076469,99941.28,-98,+80,-64
112465,10.389,-0.353,2.226,-0.282865,-0.505311,1.262708,99941.28,-98,+80,-64
112475,10.811,-0.414,2.153,-0.281268,-0.534045,1.478744,99943.25,-96,+81,-73
112485,11.299,-0.849,2.314,-0.251470,-0.553201,1.697973,99941.69,-99,+76,-69
112495,11.831,-1.731,2.623,-0.253067,-0.559587,1.871441,99939.84,-97,+71,-67
112505,12.872,-2.940,3.268,-0.315855,-0.576082,1.972542,99940.06,-97,+71,-67
112516,14.638,-3.215,3.672,-0.373855,-0.630357,1.988505,99943.98,-95,+70,-76
112525,15.718,-2.798,3.494,-0.495709,-0.720816,1.997551,99941.24,-98,+65,-72
112535,15.867,-2.182,3.610,-0.595213,-0.778284,2.045441,99939.99,-97,+61,-71
112545,15.019,-2.025,3.799,-0.600534,-0.788394,2.052358,99939.99,-97,+61,-71
112556,13.585,-1.884,4.180,-0.601066,-0.766045,2.020432,99940.73,-95,+62,-80
112565,12.427,-0.979,4.133,-0.618626,-0.724541,1.946469,99940.73,-98,+56,-76
112575,11.553,-0.961,4.119,-0.623947,-0.673990,1.879955,99942.56,-96,+54,-75
112585,10.517,-0.199,4.439,-0.442852,-0.566681,1.718903,99941.33,-94,+54,-83
112595,9.675,1.742,3.941,-0.311067,-0.425495,1.425001,99941.33,-94,+54,-83
112606,8.676,3.308,2.919,-0.374920,-0.286082,1.053056,99941.67,-96,+49,-79
112615,7.393,3.526,2.156,-0.386094,-0.171679,0.695479,99941.67,-94,+48,-77
112625,6.609,3.302,2.055,-0.320644,-0.021092,0.309699,99940.16,-94,+48,-84
112635,6.368,3.691,2.271,-0.206773,0.132156,-0.169200,99940.48,-94,+53,-84
112646,6.505,4.207,2.480,-0.083324,0.282743,-0.670979,99940.73,-97,+50,-77
112655,6.927,4.523,2.316,0.037465,0.397147,-1.108906,99940.73,-96,+52,-76
112665,7.400,4.258,1.955,0.203484,0.473771,-1.477658,99940.73,-96,+52,-82
112675,8.029,3.455,1.720,0.421649,0.525385,-1.795859,99942.64,-96,+58,-82
112686,8.714,2.486,1.593,0.613740,0.566358,-2.081602,99941.75,-99,+58,-74
112695,9.298,1.598,1.487,0.743043,0.598816,-2.326373,99938.50,-97,+62,-73
112705,9.666,0.834,1.394,0.832437,0.624358,-2.525914,99938.39,-97,+69,-79
112715,9.994,0.216,1.326,0.911190,0.646706,-2.682886,99938.39,-97,+69,-79
112726,10.418,-0.358,1.287,0.994731,0.662669,-2.806336,99942.16,-99,+69,-71
112736,10.939,-1.035,1.338,1.079336,0.665862,-2.907437,99939.91,-97,+75,-70
112745,11.457,-1.695,1.336,1.141061,0.659477,-2.982464,99938.41,-96,+81,-76
112755,11.751,-2.337,1.428,1.183630,0.656284,-3.041528,99938.41,-96,+81,-76
112765,11.567,-2.765,1.525,1.209171,0.649899,-3.063877,99941.52,-98,+83,-68
112776,11.127,-3.012,1.537,1.238969,0.637660,-3.038868,99940.43,-95,+87,-69
112785,10.741,-3.364,1.454,1.285263,0.619569,-2.968629,99940.43,-93,+92,-74
112795,10.686,-3.817,1.275,1.313997,0.594027,-2.889345,99936.54,-93,+92,-74
112805,10.808,-4.142,1.143,1.325171,0.566890,-2.822299,99941.21,-92,+94,-66
112816,10.790,-4.187,1.211,1.305483,0.535495,-2.769088,99941.21,-89,+98,-68
112821,10.698,-4.137,1.348,1.282602,0.504633,-2.725987,99938.96,-89,+98,-68
112830,10.750,-4.162,1.549,1.254400,0.469514,-2.671180,99939.37,-88,+102,-72
112840,10.958,-4.365,1.670,1.184162,0.418431,-2.578593,99940.32,-87,+103,-66
112850,11.213,-4.647,1.690,1.046878,0.359899,-2.469510,99938.59,-87,+103,-66
112861,10.946,-4.585,1.682,0.873942,0.297110,-2.338079,99938.59,-84,+105,-67
112870,10.316,-4.305,1.849,0.737722,0.233789,-2.168336,99941.11,-84,+108,-72
112880,9.578,-4.248,2.041,0.670676,0.181110,-1.950171,99941.16,-83,+108,-66
112890,9.021,-4.487,2.089,0.656309,0.149184,-1.684648,99940.63,-80,+110,-69
112901,8.581,-4.892,1.974,0.660566,0.120982,-1.395713,99938.75,-80,+110,-69
112910,8.563,-5.229,1.715,0.646731,0.090652,-1.090282,99938.75,-80,+112,-72
112920,8.978,-5.717,1.569,0.605227,0.058725,-0.785915,99942.92,-80,+110,-66
112930,9.173,-5.888,1.449,0.524878,0.026266,-0.506025,99941.92,-79,+109,-69
112941,9.194,-5.932,1.473,0.375355,-0.005128,-0.233585,99943.92,-79,+109,-69
112950,8.934,-5.847,1.619,0.213594,-0.057275,0.045773,99938.42,-79,+110,-72
112960,8.583,-5.873,1.965,0.081631,-0.120064,0.344286,99938.42,-80,+108,-66
112970,8.335,-6.208,2.321,0.001282,-0.188706,0.658231,99942.04,-79,+106,-69
112980,8.609,-6.615,2.996,-0.042883,-0.235000,0.995588,99940.99,-79,+106,-69
112991,9.268,-7.420,2.712,-0.051397,-0.242449,1.295698,99940.93,-80,+104,-72
113000,9.264,-8.495,3.322,-0.188681,-0.238724,1.676689,99939.88,-82,+99,-64
113010,9.555,-6.459,4.282,-0.117911,-0.217972,1.899643,99939.88,-81,+96,-69
113020,11.260,1.469,6.398,-0.106736,-0.094523,1.812909,99940.66,-81,+96,-69
113031,15.213,13.865,4.779,-0.116846,-0.072706,1.228652,99940.66,-83,+94,-71
113040,16.027,13.087,1.199,-0.452076,-0.348871,0.926414,99941.71,-84,+90,-64
113050,13.839,0.165,-0.010,-0.223800,-0.589917,1.799606,99938.57,-82,+88,-69
113056,12.590,-5.966,0.591,0.678126,-0.712834,2.360982,99938.57,-82,+88,-69
113065,11.587,-7.991,1.356,1.508217,-0.717623,2.539771,99938.57,-84,+82,-72
113076,9.698,-9.100,2.376,1.661996,-0.427623,2.426964,99943.23,-84,+82,-72
113086,10.212,-8.126,-0.413,0.939391,-0.169018,2.140688,99941.03,-85,+73,-67
113095,9.371,-4.268,-1.357,0.255098,-0.068981,1.917203,99939.16,-84,+69,-72
113105,7.525,-2.298,0.893,0.205080,0.041697,1.733625,99940.51,-85,+66,-74
113116,8.202,-3.476,2.132,0.321612,0.126835,1.619221,99941.55,-87,+61,-66
113126,9.991,-4.728,1.640,0.285961,0.101826,1.545258,99941.55,-87,+61,-66
113135,10.410,-4.669,1.561,0.080566,0.106083,1.465441,99941.55,-86,+59,-71
113145,9.549,-3.755,1.891,-0.175379,0.161954,1.354763,99944.23,-87,+57,-72
113156,8.661,-3.178,2.289,-0.444094,0.231129,1.237166,99942.51,-89,+54,-65
113165,8.748,-3.209,1.884,-0.756442,0.250817,1.136065,99942.51,-89,+54,-65
113175,9.441,-3.149,1.780,-0.754846,0.265184,1.065295,99942.91,-87,+54,-70
113185,9.848,-2.483,2.165,-0.451543,0.241239,0.987075,99940.44,-89,+52,-70
113196,9.917,-1.924,2.699,-0.084388,0.190156,0.923222,99939.91,-89,+49,-64
113206,9.561,-2.222,3.040,0.157722,0.100762,0.901937,99940.08,-89,+49,-64
113216,9.141,-3.189,2.878,0.218915,0.024138,0.866818,99944.20,-89,+48,-69
113225,9.115,-3.997,2.834,0.127392,-0.035458,0.785405,99939.69,-89,+46,-69
113235,9.177,-4.070,2.715,-0.081727,-0.112614,0.667809,99941.42,-90,+43,-63
113246,9.306,-3.904,2.188,-0.369066,-0.106761,0.563515,99938.95,-90,+43,-63
113255,9.428,-3.430,1.785,-0.510076,-0.062596,0.486359,99938.95,-88,+45,-70
113265,9.541,-2.838,1.691,-0.463250,-0.032798,0.436341,99938.95,-90,+44,-69
113275,9.608,-2.535,1.885,-0.294039,-0.091862,0.409203,99942.06,-89,+43,-63
113286,9.466,-2.496,2.024,-0.070021,-0.127513,0.396433,99941.44,-89,+43,-63
113296,9.207,-2.801,2.566,0.043851,-0.112614,0.406011,99941.64,-88,+44,-69
113305,9.208,-3.087,2.828,-0.180167,-0.054614,0.416121,99942.53,-89,+43,-69
113315,9.174,-3.765,2.314,-0.497305,-0.000339,0.393240,99942.53,-89,+40,-64
113326,9.538,-3.181,2.172,-0.666516,0.022541,0.332580,99942.46,-89,+40,-64
113336,9.800,-2.333,2.253,-0.659598,-0.023752,0.287882,99941.46,-88,+43,-71
113346,9.506,-1.987,1.953,-0.509011,-0.035991,0.315020,99942.20,-89,+42,-69
113355,9.403,-2.391,1.935,-0.280736,-0.030669,0.344286,99942.20,-89,+41,-64
113366,9.302,-2.757,1.894,-0.085984,-0.029073,0.373552,99943.45,-89,+41,-64
113376,9.112,-3.061,1.994,-0.025324,-0.023220,0.400158,99943.45,-87,+43,-71
113385,9.094,-3.213,1.967,-0.055654,-0.012046,0.412396,99941.09,-89,+41,-68
113395,9.344,-2.854,1.937,-0.126957,0.009771,0.426763,99939.77,-89,+38,-64
113405,9.371,-2.651,2.164,-0.141323,0.006046,0.461350,99941.55,-89,+38,-64
113416,9.240,-2.696,1.704,-0.113654,-0.021092,0.497002,99941.55,-88,+41,-71
113426,9.075,-2.956,1.585,-0.063635,-0.039183,0.531057,99939.75,-89,+39,-68
113435,8.919,-3.287,2.032,-0.024791,-0.054614,0.551277,99940.53,-89,+36,-64
113445,8.955,-3.357,2.085,-0.046608,-0.051422,0.563515,99940.11,-89,+36,-64
113456,9.027,-3.361,1.872,-0.065764,-0.049825,0.581075,99938.94,-87,+38,-72
113466,9.037,-3.419,1.727,-0.010424,-0.048761,0.597570,99943.91,-89,+36,-67
113476,8.959,-3.633,1.611,0.060878,-0.058871,0.600763,99941.55,-88,+33,-65
113485,8.819,-3.978,1.572,0.109832,-0.068449,0.576818,99941.55,-88,+33,-65
113496,8.743,-4.123,1.889,0.140163,-0.091862,0.539570,99940.81,-87,+33,-71
113506,8.766,-4.180,1.980,0.146548,-0.111018,0.497534,99940.92,-88,+32,-68
113515,8.804,-4.309,1.868,0.110364,-0.108890,0.479974,99940.92,-87,+30,-64
113525,8.813,-4.027,1.807,0.060346,-0.088137,0.470928,99940.71,-87,+30,-64
113536,9.135,-3.462,1.712,0.037465,-0.064192,0.477846,99940.02,-87,+31,-71
113546,9.806,-3.450,1.647,0.113025,-0.053018,0.482102,99938.24,-87,+28,-67
113556,9.794,-3.798,1.762,0.205612,-0.054082,0.480506,99938.15,-87,+26,-65
113565,9.548,-4.410,1.900,0.242860,-0.035458,0.453901,99938.15,-87,+26,-65
113575,9.044,-4.580,1.975,0.167300,-0.007257,0.428892,99941.95,-86,+27,-71
113586,8.607,-4.226,1.787,0.030016,0.038505,0.413460,99940.21,-88,+25,-67
113596,8.632,-3.147,1.566,-0.073746,0.069899,0.429956,99939.37,-86,+23,-64
113605,9.014,-2.086,1.508,-0.017874,0.061386,0.515093,99939.37,-86,+23,-71
113615,9.288,-1.829,1.888,0.129520,0.034248,0.663020,99939.37,-86,+24,-71
113626,9.347,-2.021,2.669,0.197098,-0.002468,0.832231,99942.33,-87,+21,-67
113636,9.565,-1.550,3.723,0.232750,-0.063128,1.005166,99941.95,-85,+17,-64
113646,9.555,-2.065,4.664,0.290395,-0.162633,1.208787,99938.94,-85,+17,-71
113655,9.732,-3.278,4.636,0.289685,-0.227550,1.338799,99938.94,-85,+17,-71
113666,9.915,-4.476,4.326,0.153997,-0.258412,1.435111,99938.94,-85,+13,-67
113676,10.258,-5.333,3.455,-0.064168,-0.253623,1.475019,99940.29,-82,+10,-64
113686,10.694,-5.216,2.746,-0.294039,-0.236064,1.500028,99940.76,-82,+9,-72
113695,11.037,-4.879,2.122,-0.413764,-0.248302,1.559093,99938.01,-82,+9,-72
113705,12.144,-4.256,1.884,-0.467507,-0.283422,1.644762,99938.01,-82,+5,-68
113716,13.992,-3.715,2.080,-0.515929,-0.355789,1.753845,99940.53,-78,+3,-67
113726,15.612,-3.917,2.473,-0.505287,-0.419110,1.894322,99940.53,-78,+1,-76
113735,15.961,-3.312,2.769,-0.515397,-0.459018,2.068854,99941.20,-78,+1,-76
113745,15.994,-3.109,2.509,-0.602131,-0.459550,2.264138,99940.69,-77,-3,-69
113756,16.583,-2.772,2.153,-0.707488,-0.456357,2.456762,99940.11,-73,-6,-71
113766,17.749,-2.320,2.287,-0.772406,-0.449440,2.653642,99940.11,-72,-9,-78
113776,19.332,-2.338,2.790,-0.824020,-0.420174,2.831899,99941.22,-72,-9,-78
113785,20.487,-1.688,3.700,-0.976736,-0.337165,2.964394,99938.66,-71,-14,-74
113796,20.586,-0.419,4.819,-1.238534,-0.213183,3.054853,99938.81,-67,-17,-76
113806,20.365,1.079,5.463,-1.532258,-0.099844,3.128816,99938.49,-66,-19,-84
113816,19.928,1.461,5.734,-1.926020,0.008175,3.153293,99940.65,-66,-19,-84
113825,18.483,0.664,5.041,-2.371927,0.129496,3.098486,99940.34,-64,-25,-79
113836,16.786,-2.252,3.216,-2.832202,0.148652,3.003238,99938.91,-61,-25,-83
113846,14.622,-8.424,2.421,-3.117945,-0.020027,3.010688,99938.91,-59,-23,-92
113856,13.484,-11.803,2.591,-3.163707,-0.252027,3.100082,99938.29,-59,-23,-92
113865,13.351,-9.711,4.050,-3.049835,-0.295128,3.074009,99938.29,-56,-27,-89
113875,12.848,-6.121,4.464,-2.457065,-0.263201,2.996321,99941.24,-52,-25,-95
113882,11.340,-4.599,5.073,-1.855781,-0.198816,2.882450,99941.77,-52,-25,-95
113891,9.217,-3.149,5.728,-1.359855,-0.009385,2.713771,99941.20,-51,-25,-101
113901,6.948,-0.035,5.341,-1.038460,0.315202,2.260945,99937.68,-49,-32,-97
113910,6.026,4.243,3.548,-1.053892,0.525917,1.613900,99937.68,-48,-30,-100
113921,6.261,4.963,1.607,-1.181066,0.475367,0.962598,99942.49,-48,-30,-100
113931,5.577,3.151,2.583,-1.097525,0.591899,0.663552,99941.13,-50,-29,-104
113941,5.407,4.106,2.335,-0.883084,0.652559,0.166029,99940.02,-50,-32,-98
113950,4.308,4.651,1.852,-0.468571,0.644046,-0.483145,99941.29,-52,-29,-101
113960,3.722,4.373,1.764,-0.126957,0.736101,-0.940227,99941.29,-52,-29,-101
113971,3.532,3.779,1.057,0.165172,0.736633,-1.314832,99943.06,-55,-26,-103
113981,3.220,2.474,0.487,0.621722,0.685018,-1.682520,99938.03,-57,-29,-96
113991,3.090,1.232,0.239,1.146382,0.649899,-2.084263,99939.61,-60,-26,-97
114000,3.619,0.171,0.275,1.555042,0.642981,-2.495052,99938.61,-60,-26,-97
114011,4.250,-1.004,0.541,1.787042,0.665330,-2.852629,99938.61,-66,-24,-96
114021,4.040,-1.743,1.002,1.934969,0.683954,-3.201694,99938.41,-67,-27,-88
114031,3.973,-1.904,1.281,2.105776,0.702578,-3.557675,99935.63,-70,-22,-88
114040,4.663,-1.597,1.337,2.173886,0.747807,-3.894500,99937.05,-70,-22,-88
114051,5.741,-1.482,1.290,2.143024,0.798357,-4.178114,99937.45,-77,-17,-87
114061,7.006,-1.737,1.356,2.039794,0.850504,-4.428206,99937.45,-79,-16,-77
114071,8.265,-2.276,1.433,1.866327,0.907972,-4.655417,99939.62,-84,-7,-78
114080,9.043,-3.036,1.448,1.665189,0.970229,-4.858683,99937.66,-84,-7,-78
114091,9.601,-4.031,1.363,1.493850,1.045256,-5.039068,99936.93,-89,+0,-77
114101,10.443,-4.854,1.168,1.351244,1.111238,-5.232756,99935.05,-89,+2,-68
114111,11.239,-5.219,0.936,1.141061,1.122944,-5.424848,99935.05,-92,+14,-69
114116,11.704,-5.377,0.783,0.968657,1.113366,-5.549361,99938.02,-92,+14,-69
114125,12.167,-5.359,0.931,0.806364,1.101660,-5.672279,99938.02,-96,+24,-67
114136,12.924,-5.176,1.362,0.621190,1.089954,-5.839361,99936.08,-96,+32,-60
114146,13.786,-4.932,1.588,0.519025,1.102724,-5.964939,99937.38,-96,+32,-60
114156,14.748,-4.768,1.689,0.552016,1.161256,-6.001655,99937.59,-97,+44,-61
114166,15.843,-4.931,1.557,0.754749,1.210743,-5.956425,99940.53,-98,+56,-60
114176,16.751,-5.951,1.476,1.095832,1.195843,-5.831379,99937.95,-97,+62,-54
114186,17.194,-7.843,1.606,1.503428,1.106449,-5.646738,99939.84,-97,+62,-54
114196,17.347,-9.613,2.029,1.847171,0.995770,-5.434958,99939.84,-98,+72,-56
114206,17.367,-10.709,2.254,1.958382,0.891477,-5.199765,99935.81,-96,+81,-56
114215,16.815,-11.746,2.615,1.865795,0.809532,-4.915087,99935.81,-95,+86,-51
114226,15.928,-13.021,2.769,1.669446,0.750468,-4.575068,99939.44,-95,+86,-51
114236,14.877,-14.063,2.361,1.325526,0.756143,-4.154170,99940.64,-94,+96,-55
114246,14.029,-15.194,1.670,0.953226,0.768559,-3.730611,99940.64,-94,+103,-55
114256,12.675,-17.585,1.074,0.691428,0.703642,-3.186794,99940.80,-92,+108,-50
114266,10.488,-18.934,1.054,0.487630,0.648835,-2.621694,99940.80,-92,+108,-50
114276,8.280,-17.936,0.935,0.101851,0.616908,-1.910795,99941.45,-91,+115,-55
114286,7.922,-16.334,1.117,-0.308406,0.558376,-0.974814,99940.09,-90,+118,-53
114296,8.523,-14.533,0.857,-0.511672,0.375330,0.031938,99940.52,-90,+117,-48
114306,9.013,-13.668,0.602,-0.455800,0.144927,0.930139,99940.52,-90,+117,-48
114316,9.166,-14.089,1.026,-0.316388,-0.064725,1.666579,99940.52,-92,+117,-52
114326,9.556,-14.104,1.640,-0.182296,-0.283954,2.325863,99943.41,-93,+114,-51
114336,12.037,-10.000,1.331,0.048640,-0.391440,2.801037,99945.77,-94,+106,-49
114345,14.509,-1.871,0.334,-0.190278,-0.575018,2.901605,99942.58,-94,+106,-49
114356,20.980,21.517,1.038,0.395575,-0.703256,2.351936,99941.69,-97,+104,-55
114366,21.718,28.965,0.304,0.448254,-0.675054,0.885442,99941.69,-96,+100,-55
114376,15.073,1.332,-1.529,0.199759,-0.897476,1.752781,99941.72,-96,+96,-53
114386,11.232,-14.916,2.363,1.900914,-0.880449,3.085183,99941.05,-96,+96,-53
114396,9.713,-9.476,2.438,3.578124,-0.901201,3.278339,99941.53,-98,+88,-61
114406,10.641,-7.539,0.762,2.452712,-0.427091,2.737184,99941.53,-99,+79,-61
114416,10.636,-9.068,2.559,1.328896,-0.002468,2.611606,99943.46,-99,+70,-58
114426,8.226,-6.081,5.362,1.514602,0.090652,2.561587,99942.68,-99,+70,-58
114436,8.903,-3.452,4.854,1.383171,0.110340,2.253496,99942.68,-101,+65,-64
114446,9.616,-3.577,2.438,0.799979,-0.005128,2.087477,99939.16,-102,+60,-61
114456,9.658,-5.680,1.965,0.167300,-0.162633,1.976799,99941.90,-101,+55,-58
114466,10.629,-7.187,1.950,-0.360021,-0.274376,1.858670,99941.90,-101,+55,-58
114476,10.224,-5.978,1.707,-0.807525,-0.274376,1.632524,99942.89,-102,+54,-64
114486,9.164,-3.887,1.472,-1.200222,-0.209458,1.422873,99941.59,-101,+52,-62
114496,8.715,-2.748,1.443,-1.343892,-0.139752,1.302084,99941.53,-101,+48,-60
114506,8.856,-2.057,1.259,-1.137965,-0.037055,1.220139,99939.17,-103,+48,-60
114516,9.676,-0.750,1.301,-0.605855,0.069367,1.195662,99943.66,-103,+50,-64
114526,10.184,-0.329,2.147,-0.003507,0.092780,1.236634,99941.55,-102,+48,-61
114536,9.702,-1.999,2.629,0.396639,0.018817,1.221203,99942.13,-101,+43,-59
114546,9.162,-3.858,2.717,0.510511,-0.012578,1.124891,99942.13,-102,+43,-64
114555,8.788,-4.872,2.982,0.196566,0.019881,0.974836,99940.26,-102,+42,-64
114566,8.754,-4.402,3.203,-0.351507,0.042762,0.799772,99940.26,-101,+40,-61
114576,9.010,-3.372,3.100,-0.777195,0.027863,0.645992,99940.41,-101,+38,-59
114586,9.566,-2.193,2.593,-0.887341,0.018285,0.564047,99942.03,-101,+40,-65
114596,9.906,-1.385,2.231,-0.754314,0.019881,0.558194,99943.13,-101,+40,-65
114607,9.753,-0.928,1.958,-0.473360,0.017220,0.600231,99941.14,-101,+38,-61
114616,9.449,-1.250,1.853,-0.146645,0.012431,0.653442,99941.14,-101,+36,-60
114626,9.281,-2.179,1.946,0.042254,0.013496,0.683240,99942.53,-103,+37,-64
114636,9.160,-3.206,2.408,0.027355,0.034780,0.675790,99941.98,-103,+37,-64
114647,9.077,-3.735,2.727,-0.194002,0.066707,0.627901,99942.42,-102,+34,-61
114656,9.050,-3.698,2.643,-0.505819,0.109275,0.561919,99942.42,-101,+33,-59
114666,9.095,-3.108,2.590,-0.725048,0.149716,0.506047,99942.42,-103,+36,-64
114676,9.307,-2.216,2.390,-0.772406,0.172596,0.492745,99943.39,-103,+36,-64
114686,9.407,-1.663,2.243,-0.662259,0.191220,0.534249,99940.94,-102,+34,-59
114696,9.483,-1.882,2.207,-0.484002,0.210376,0.602359,99940.98,-101,+34,-59
114707,9.480,-2.546,2.131,-0.316565,0.221551,0.668164,99940.86,-103,+34,-63
114716,9.524,-2.962,2.266,-0.266901,0.227404,0.701864,99940.86,-103,+34,-63
114726,9.524,-3.096,2.483,-0.316388,0.231661,0.726873,99940.64,-103,+30,-58
114737,9.440,-3.124,2.499,-0.374388,0.225275,0.740708,99942.06,-102,+30,-58
114746,9.352,-2.697,2.607,-0.403654,0.209844,0.759864,99943.27,-105,+30,-62
114756,9.134,-2.450,2.718,-0.418021,0.181110,0.809882,99939.05,-105,+30,-62
114766,9.144,-2.577,2.912,-0.414296,0.141734,0.860433,99941.99,-103,+28,-57
114777,9.302,-2.582,3.087,-0.423874,0.108211,0.919497,99942.84,-103,+27,-58
114786,9.347,-2.655,3.194,-0.451011,0.066707,0.986543,99942.84,-103,+27,-62
114796,9.403,-2.686,3.277,-0.430259,-0.000339,1.038689,99941.73,-103,+27,-62
114806,9.569,-2.770,3.185,-0.389287,-0.039715,1.104671,99942.57,-101,+24,-56
114816,9.625,-3.062,2.977,-0.369066,-0.077495,1.179166,99942.57,-102,+23,-58
114826,9.537,-3.092,2.763,-0.348846,-0.139220,1.241423,99942.80,-103,+21,-62
114836,9.581,-2.850,2.794,-0.327030,-0.171679,1.320708,99942.87,-103,+21,-62
114846,9.829,-2.720,2.918,-0.281268,-0.202541,1.425533,99938.57,-100,+17,-56
114856,10.035,-2.663,2.793,-0.215287,-0.240853,1.544194,99939.24,-100,+15,-59
114867,10.249,-2.821,2.526,-0.156223,-0.274376,1.672432,99939.98,-101,+13,-63
114876,10.688,-3.084,1.989,-0.113654,-0.310027,1.791093,99938.78,-101,+13,-63
114886,11.485,-3.103,1.560,-0.074278,-0.360578,1.915606,99939.98,-98,+8,-59
114896,12.014,-3.191,1.378,-0.008828,-0.415917,2.048634,99938.58,-97,+5,-61
114906,12.098,-3.378,1.708,0.050236,-0.455825,2.201349,99938.58,-96,+2,-65
114916,12.286,-3.756,2.360,0.049704,-0.490944,2.349276,99938.58,-96,+2,-65
114926,12.459,-4.166,3.195,-0.027984,-0.507440,2.485496,99941.67,-93,-3,-61
114936,12.638,-4.712,3.759,-0.203048,-0.480834,2.602560,99941.41,-92,-7,-64
114941,13.150,-4.997,3.835,-0.385030,-0.452100,2.672798,99941.67,-92,-7,-64
114951,14.073,-5.255,3.705,-0.577653,-0.441458,2.725477,99939.98,-91,-10,-68
114961,16.035,-5.116,3.742,-0.836259,-0.438798,2.772303,99939.98,-85,-15,-64
114971,18.525,-4.895,4.490,-1.070387,-0.459018,2.809018,99942.83,-84,-18,-68
114981,20.671,-4.092,4.677,-1.336974,-0.410596,2.871807,99941.25,-84,-18,-68
114992,22.152,-2.824,4.288,-1.755212,-0.309495,2.905862,99938.58,-82,-19,-72
115001,23.009,0.177,3.832,-2.204313,-0.219568,2.911716,99938.63,-77,-23,-69
115011,21.605,3.461,3.397,-2.625744,-0.170614,2.903734,99938.63,-75,-23,-75
115021,19.442,3.603,2.606,-2.785377,-0.191367,2.870211,99941.30,-75,-23,-75
115032,17.600,2.579,1.719,-2.754514,-0.245642,2.723881,99940.88,-75,-21,-79
115041,14.958,-1.891,1.227,-2.723120,-0.354724,2.606817,99939.93,-68,-22,-76
115051,12.855,-7.576,0.972,-2.401726,-0.590981,2.714835,99937.10,-67,-20,-82
115061,11.771,-11.184,2.739,-1.985616,-0.814467,2.913844,99937.10,-67,-20,-82
115072,11.747,-9.767,4.570,-1.586002,-0.884706,2.948431,99941.13,-64,-20,-85
115081,11.078,-8.150,4.577,-1.123066,-0.898540,2.877128,99941.65,-57,-24,-82
115091,9.538,-7.611,5.873,-0.570204,-0.755935,2.894156,99939.51,-55,-24,-85
115101,7.569,-5.483,6.818,0.049704,-0.528724,2.675991,99937.51,-55,-24,-85
115111,5.286,-1.268,6.215,0.421649,-0.266926,2.103973,99937.51,-52,-27,-85
115122,4.971,3.255,3.200,0.250309,-0.008853,1.287717,99941.52,-48,-29,-80
115131,5.393,3.760,1.732,-0.321177,0.026798,0.617258,99940.57,-49,-27,-83
115141,5.077,2.508,2.697,-0.634589,0.201330,0.351204,99938.38,-49,-27,-83
115151,5.122,2.872,1.903,-0.708020,0.176853,-0.131952,99939.90,-49,-24,-83
115162,4.288,3.696,1.236,-0.462718,0.177385,-0.745475,99939.90,-47,-23,-77
115171,3.877,3.190,1.654,-0.215287,0.305624,-1.128062,99939.89,-50,-16,-79
115181,3.744,1.854,1.106,0.008731,0.296046,-1.493089,99939.73,-50,-16,-79
115191,3.559,0.275,0.571,0.273722,0.257202,-1.917180,99937.58,-52,-13,-78
115202,3.550,-0.818,0.572,0.637153,0.224211,-2.316795,99939.58,-50,-10,-72
115211,4.002,-1.175,0.704,1.027189,0.196009,-2.687675,99939.58,-53,-5,-74
115221,4.616,-1.387,1.173,1.348584,0.210908,-3.014391,99940.06,-53,-5,-74
115231,4.896,-1.563,1.661,1.592822,0.242303,-3.310776,99937.28,-56,-1,-71
115241,4.947,-1.700,2.145,1.742345,0.275294,-3.585345,99935.81,-55,+0,-66
115252,5.031,-2.010,2.560,1.858877,0.316798,-3.858317,99934.81,-59,+7,-66
115261,5.405,-2.240,2.890,1.919006,0.397147,-4.130225,99934.81,-62,+7,-63
115271,5.976,-2.610,3.329,1.846106,0.491330,-4.404261,99936.88,-62,+11,-63
115281,6.544,-3.081,3.352,1.659868,0.577000,-4.661270,99934.36,-61,+15,-57
115292,7.166,-3.788,3.180,1.453942,0.696192,-4.836866,99936.72,-66,+25,-58
115297,7.624,-4.108,2.971,1.317721,0.798357,-4.925729,99935.94,-66,+25,-58
115306,8.152,-4.349,2.563,1.194272,0.889348,-5.023637,99935.94,-68,+31,-53
115316,8.939,-4.639,2.120,1.082529,1.001091,-5.165178,99935.94,-70,+37,-47
115326,9.853,-4.829,1.904,0.997923,1.092614,-5.308316,99938.16,-70,+37,-47
115337,10.787,-5.048,2.034,0.879795,1.153275,-5.460499,99935.33,-73,+50,-46
115346,11.461,-5.450,2.404,0.688236,1.189458,-5.643545,99933.59,-75,+59,-40
115356,11.765,-5.835,2.578,0.398236,1.251183,-5.857453,99933.59,-73,+70,-32
115366,12.125,-5.978,2.545,0.080034,1.372504,-6.047416,99937.69,-73,+70,-32
115377,13.081,-5.698,2.522,-0.132278,1.532669,-6.167141,99937.69,-71,+87,-30
115386,14.581,-5.613,2.496,-0.185489,1.694430,-6.207049,99937.00,-67,+100,-22
115396,16.306,-6.772,2.534,-0.094498,1.819476,-6.160756,99939.78,-61,+111,-13
115406,17.483,-9.160,2.289,0.059282,1.842889,-6.016554,99937.69,-61,+111,-13
115417,17.839,-10.886,1.641,0.107704,1.788082,-5.831379,99937.69,-53,+123,-12
115427,18.050,-11.784,1.205,0.055025,1.684852,-5.564260,99939.57,-46,+133,-6
115436,18.289,-12.228,1.008,0.045979,1.523623,-5.204022,99940.41,-38,+139,-1
115446,17.817,-12.605,1.097,0.082695,1.360798,-4.773013,99939.15,-38,+139,-1
115457,16.136,-13.685,1.150,0.175814,1.205954,-4.296243,99939.29,-32,+149,-4
115467,13.583,-16.282,1.276,0.373759,1.071330,-3.779032,99940.02,-28,+154,-3
115476,10.497,-18.155,1.362,0.393447,1.015990,-3.203290,99944.12,-22,+157,-2
115486,8.455,-18.260,1.090,0.028420,1.036743,-2.418428,99939.55,-20,+162,-5
115496,8.079,-16.195,0.561,-0.567543,1.021312,-1.411144,99939.55,-20,+162,-5
115507,8.894,-13.204,-0.205,-0.867121,0.798890,-0.300631,99939.93,-19,+162,-1
115516,9.923,-11.585,-0.826,-0.736222,0.393954,0.738047,99939.93,-20,+161,-1
115526,10.325,-12.068,-0.581,-0.397268,-0.007789,1.618689,99941.38,-22,+162,-6
115536,10.626,-12.289,-0.754,0.072585,-0.322266,2.301918,99943.95,-22,+162,-6
115547,11.938,-10.776,1.169,0.572236,-0.480834,2.873936,99942.63,-26,+158,-5
115557,15.099,-2.138,-1.978,1.183098,-0.678779,3.027715,99940.23,-29,+152,-8
115566,16.650,8.216,1.493,1.221942,-0.842137,2.981422,99940.23,-32,+150,-16
115576,21.214,27.332,1.892,2.597978,-0.870339,2.201349,99942.50,-32,+150,-16
115587,20.288,20.351,-0.173,2.428767,-1.064027,1.442029,99945.03,-34,+145,-17
115597,13.448,-8.601,-2.494,2.278180,-1.358815,2.645128,99941.16,-38,+141,-22
115606,10.520,-18.125,1.514,3.976674,-1.291770,3.650816,99941.16,-43,+136,-32
115616,8.506,-12.452,1.364,4.019775,-0.948559,3.255458,99941.16,-43,+136,-32
115627,10.410,-8.524,-0.707,1.762565,-0.282889,2.562119,99945.34,-46,+128,-33
115637,9.581,-5.469,0.882,0.592456,-0.078027,2.410468,99943.31,-49,+124,-33
115646,7.449,-3.734,5.776,0.826584,-0.114743,2.219441,99938.44,-52,+121,-38
115656,9.826,-4.089,5.627,0.939924,-0.090798,2.076835,99941.42,-52,+121,-38
115666,11.304,-3.425,2.498,0.380144,-0.207330,2.001276,99941.42,-55,+118,-35
115677,9.219,-3.685,2.678,-0.161544,-0.390908,1.945404,99944.10,-57,+114,-36
115687,9.158,-4.785,3.458,-0.580846,-0.448908,1.881019,99942.63,-58,+113,-40
115696,9.312,-4.590,2.769,-1.067727,-0.440394,1.747992,99941.70,-58,+113,-40
115706,8.870,-3.738,1.666,-1.482772,-0.376009,1.597405,99941.70,-59,+112,-35
115717,9.422,-2.916,0.795,-1.365176,-0.319605,1.466506,99943.26,-59,+110,-36
115727,9.871,-0.579,1.467,-0.650553,-0.269055,1.395203,99943.26,-63,+110,-38
115736,9.729,-0.626,2.444,-0.081195,-0.249899,1.418084,99941.32,-63,+110,-38
115746,9.506,-2.517,2.400,0.221575,-0.280761,1.422341,99940.32,-63,+106,-35
115757,9.443,-3.409,2.520,0.244988,-0.245642,1.367001,99943.84,-63,+103,-38
115767,9.097,-3.531,2.894,0.007135,-0.201477,1.259515,99943.84,-65,+103,-39
115777,8.815,-3.686,3.371,-0.217947,-0.173807,1.116910,99943.98,-65,+103,-39
115786,8.860,-3.396,3.038,-0.334479,-0.179660,0.979625,99941.78,-66,+100,-37
115796,9.223,-2.908,2.291,-0.333947,-0.181789,0.880121,99940.63,-66,+98,-38
115807,9.584,-2.631,1.478,-0.255727,-0.174339,0.813075,99939.33,-68,+98,-40
115817,9.598,-2.325,1.253,-0.123232,-0.148266,0.779552,99944.16,-68,+98,-40
115826,9.417,-2.485,1.515,-0.046076,-0.112614,0.768910,99942.48,-68,+96,-37
115836,9.376,-3.112,1.776,-0.090773,-0.068449,0.750286,99942.59,-68,+95,-39
115847,9.329,-3.483,1.967,-0.204112,-0.014706,0.713038,99942.59,-70,+96,-40
115857,9.159,-3.293,2.168,-0.335011,0.018285,0.677387,99941.07,-70,+96,-40
115866,9.037,-3.252,2.163,-0.427599,0.048615,0.639075,99941.07,-70,+94,-37
115876,9.089,-3.176,2.120,-0.434516,0.063514,0.601827,99943.80,-70,+93,-38
115887,9.159,-2.947,1.963,-0.423342,0.061918,0.580011,99940.02,-70,+93,-40
115897,9.334,-2.716,1.900,-0.367470,0.054468,0.576286,99940.28,-70,+93,-40
115907,9.490,-2.657,2.144,-0.303085,0.042762,0.587992,99942.53,-71,+92,-35
115916,9.483,-2.702,2.394,-0.248810,0.035844,0.606616,99942.53,-71,+90,-37
115927,9.391,-2.976,2.257,-0.229654,0.029459,0.635350,99942.45,-73,+91,-39
115937,9.225,-3.346,2.080,-0.215287,0.027330,0.649185,99941.63,-73,+89,-36
115947,9.085,-3.620,2.065,-0.272755,0.045954,0.652910,99942.04,-73,+89,-36
115956,9.152,-3.683,2.277,-0.404718,0.065642,0.643864,99942.04,-73,+88,-37
115966,9.162,-3.041,2.406,-0.514332,0.070963,0.649185,99942.04,-75,+89,-38
115977,9.276,-2.513,2.365,-0.497305,0.068303,0.686965,99940.12,-75,+86,-33
115987,9.352,-2.564,2.241,-0.414828,0.043826,0.751882,99942.21,-75,+86,-33
115996,9.270,-2.754,1.989,-0.315855,0.031055,0.824781,99943.84,-74,+87,-37
116006,9.285,-2.930,1.746,-0.235507,0.025734,0.891295,99940.32,-77,+85,-37
116017,9.356,-2.963,1.920,-0.168461,0.025734,0.953020,99940.32,-77,+83,-33
116027,9.629,-2.936,2.117,-0.104076,0.019349,1.012616,99941.22,-77,+83,-33
116037,9.857,-3.106,2.274,-0.047140,0.015092,1.077533,99937.88,-77,+81,-37
116046,9.824,-3.290,2.626,-0.035966,-0.009385,1.146708,99939.55,-79,+80,-38
116057,9.824,-3.348,3.032,-0.094498,-0.042376,1.221203,99939.55,-79,+77,-34
116067,10.134,-3.087,3.298,-0.162608,-0.093991,1.310597,99942.14,-79,+77,-34
116077,10.583,-2.723,3.240,-0.174314,-0.145073,1.419148,99943.08,-79,+75,-37
116086,11.177,-3.117,2.502,-0.163140,-0.177532,1.535680,99943.08,-81,+73,-37
116097,11.691,-3.233,1.525,-0.162608,-0.201477,1.651148,99940.89,-82,+68,-35
116107,11.911,-2.923,0.948,-0.148773,-0.221697,1.778854,99940.00,-82,+68,-35
116117,11.935,-2.695,0.825,-0.099287,-0.260009,1.941680,99940.00,-82,+66,-38
116122,11.984,-2.880,0.938,-0.059379,-0.293532,2.068322,99941.38,-85,+62,-39
116131,12.082,-3.415,1.399,-0.049268,-0.311623,2.194964,99939.69,-85,+62,-39
116142,12.177,-3.983,2.153,-0.109929,-0.323330,2.341826,99939.80,-85,+56,-37
116152,12.530,-4.033,3.245,-0.199856,-0.349935,2.461019,99940.53,-86,+53,-40
116162,13.168,-3.718,3.813,-0.278076,-0.409532,2.563184,99940.53,-89,+53,-40
116171,14.387,-3.749,4.016,-0.358424,-0.452633,2.668541,99940.38,-89,+48,-40
116182,16.029,-3.348,5.145,-0.408443,-0.507972,2.766450,99941.16,-88,+41,-38
116192,16.905,-2.818,6.113,-0.507415,-0.478706,2.890431,99939.60,-90,+37,-43
116202,18.422,-3.098,5.854,-0.795819,-0.353660,2.997385,99939.38,-92,+31,-43
116211,21.196,-1.986,5.419,-1.294937,-0.214779,3.061238,99939.38,-92,+31,-43
116221,22.350,-0.247,5.142,-1.853653,-0.071642,3.116046,99941.40,-92,+26,-42
116232,22.345,1.888,4.606,-2.354368,0.084266,3.125624,99939.77,-94,+21,-45
116237,21.906,1.841,3.807,-2.719927,0.177918,3.136798,99940.51,-94,+21,-45
116246,21.506,1.377,2.429,-2.996624,0.196541,3.168192,99940.51,-98,+17,-46
116257,19.528,-1.208,1.133,-3.277046,0.023606,3.144248,99937.99,-99,+12,-45
116267,15.816,-6.149,2.982,-3.406349,-0.328119,3.138394,99937.99,-99,+12,-45
116277,14.401,-7.708,3.817,-3.286624,-0.365367,3.056982,99941.15,-101,+9,-51
116287,14.251,-6.773,3.868,-2.997689,-0.335036,2.945771,99938.98,-102,+4,-53
116297,12.962,-6.421,3.590,-2.345854,-0.430284,2.886174,99938.96,-101,+0,-54
116306,10.800,-7.774,3.894,-1.646662,-0.432412,2.919165,99938.96,-101,+0,-54
116317,8.139,-7.581,5.503,-0.966626,-0.289807,2.819129,99938.96,-104,-4,-60
116327,5.285,-3.403,5.664,-0.482938,0.027863,2.255624,99938.45,-105,-11,-60
116337,5.639,2.622,2.564,-0.448351,0.315734,1.425533,99940.75,-106,-15,-59
116346,6.500,3.765,0.809,-0.669708,0.291789,0.756139,99938.97,-106,-15,-59
116358,5.321,2.680,2.560,-0.522669,0.519532,0.510659,99939.01,-110,-16,-63
116367,4.973,3.260,2.002,-0.319580,0.559440,0.006396,99939.01,-113,-18,-63
116377,3.883,4.070,1.212,-0.035434,0.578596,-0.698649,99938.54,-115,-17,-61
116387,3.292,3.764,1.295,0.074713,0.740890,-1.093475,99938.23,-120,-13,-64
116397,2.861,2.698,0.935,0.177410,0.763770,-1.376557,99936.41,-120,-13,-64
116407,2.425,1.232,0.459,0.401961,0.748871,-1.743181,99936.41,-124,-12,-62
116417,2.256,-0.055,0.242,0.709520,0.745147,-2.155566,99937.40,-126,-8,-59
116427,2.653,-0.624,-0.059,0.991538,0.729183,-2.584978,99936.46,-131,-2,-62
116436,3.512,-1.131,0.038,1.174052,0.738229,-2.962244,99936.46,-131,-2,-62
116447,3.768,-1.469,0.362,1.308676,0.758449,-3.278849,99939.45,-134,+2,-59
116457,3.525,-1.275,0.544,1.452877,0.754725,-3.608225,99938.18,-136,+9,-58
116466,3.881,-1.208,0.913,1.627409,0.779734,-3.941858,99938.18,-138,+18,-59
116476,4.898,-1.102,1.217,1.749262,0.834541,-4.254738,99938.26,-138,+18,-59
116487,5.894,-1.163,1.430,1.731703,0.889880,-4.530903,99936.52,-140,+27,-57
116497,6.757,-1.626,1.595,1.660400,0.947348,-4.769289,99933.65,-140,+36,-55
116507,7.612,-2.386,1.824,1.522584,1.014926,-4.980536,99934.70,-142,+48,-58
116517,8.242,-3.080,1.840,1.337942,1.080908,-5.170499,99935.38,-142,+48,-58
116527,8.807,-3.476,1.749,1.159685,1.163917,-5.347692,99935.69,-142,+57,-55
116537,9.601,-3.731,1.612,1.026125,1.245862,-5.519563,99935.22,-140,+69,-53
116547,10.571,-4.045,1.617,0.972382,1.324082,-5.677600,99932.45,-141,+82,-55
116556,11.595,-4.629,1.846,0.975575,1.370908,-5.831912,99932.45,-141,+82,-55
116567,12.583,-5.344,2.002,0.968657,1.397513,-6.016022,99932.45,-138,+94,-50
116577,13.571,-6.029,2.313,0.877667,1.461366,-6.196407,99936.60,-134,+107,-48
116587,14.564,-6.518,2.721,0.661630,1.543311,-6.325178,99934.49,-133,+122,-49
116592,15.264,-6.562,2.925,0.459961,1.602907,-6.389030,99936.80,-133,+122,-49
116601,16.272,-6.407,2.902,0.298731,1.658779,-6.404462,99935.96,-127,+135,-43
116612,17.937,-7.183,2.819,0.200291,1.724761,-6.296443,99935.96,-127,+135,-43
116622,19.207,-9.169,2.298,0.282236,1.709862,-6.080407,99939.34,-120,+149,-40
116632,19.897,-11.080,1.609,0.417392,1.635366,-5.806902,99939.55,-116,+164,-41
116642,19.946,-12.506,1.256,0.550951,1.520430,-5.438150,99940.81,-109,+173,-37
116652,19.261,-13.835,1.478,0.748364,1.369311,-4.976811,99940.08,-101,+183,-36
116662,18.207,-15.014,1.709,0.945777,1.239476,-4.450023,99940.08,-101,+183,-36
116672,16.462,-17.174,1.528,1.006437,1.102724,-3.864170,99942.20,-96,+193,-38
116682,13.321,-20.980,0.793,1.158621,0.910101,-3.194244,99940.88,-91,+197,-36
116691,9.702,-22.661,0.725,1.080933,0.794633,-2.493988,99942.87,-86,+201,-36
116702,6.792,-21.204,1.072,0.487098,0.744614,-1.519694,99939.99,-86,+201,-36
116712,6.711,-18.210,1.616,-0.201452,0.626486,-0.269236,99939.99,-85,+204,-37
116722,8.405,-15.290,0.652,-0.576589,0.351385,0.963130,99944.48,-87,+201,-33
116731,9.851,-14.553,0.040,-0.456332,0.052872,1.962964,99942.54,-90,+195,-32
116742,11.885,-12.762,0.611,0.088548,-0.167422,2.615330,99942.91,-90,+195,-32
116752,13.563,-8.334,-4.373,0.134309,-0.595238,2.948963,99943.27,-96,+192,-35
116762,18.422,7.544,-2.116,0.387594,-1.036889,3.249073,99943.27,-99,+182,-35
116772,24.737,35.480,-2.392,1.760969,-1.105531,1.907625,99941.48,-101,+178,-40
116782,19.626,17.340,-0.528,1.801941,-1.217806,1.608579,99945.00,-101,+178,-40
116792,11.899,-15.202,-0.016,2.625115,-1.216742,3.084119,99943.22,-106,+173,-48
116802,10.269,-18.992,2.178,4.676398,-1.081586,3.992430,99944.63,-110,+157,-52
116812,9.195,-11.600,0.006,3.781922,-0.718687,3.333147,99944.63,-113,+146,-58
116822,9.360,-8.255,0.522,1.457134,-0.006725,2.618523,99944.19,-113,+146,-58
116832,6.623,-5.772,5.674,0.901080,0.180046,2.524340,99942.36,-119,+139,-61
116842,7.751,-5.898,7.642,1.182566,0.137477,2.329055,99939.06,-120,+132,-58
116852,12.664,-5.706,3.315,0.767520,0.159826,2.159312,99941.67,-123,+126,-59
116861,11.415,-5.942,1.689,-0.157819,-0.021092,2.061404,99941.67,-123,+126,-59
116872,9.004,-5.832,2.927,-0.943213,0.025202,1.974670,99944.27,-127,+123,-61
116882,8.661,-4.470,2.858,-1.538112,0.078945,1.851753,99943.49,-127,+118,-56
116892,8.717,-3.677,2.132,-1.729671,0.119385,1.665515,99940.82,-128,+117,-55
116902,9.189,-3.256,1.592,-1.482772,0.123110,1.492579,99942.02,-128,+117,-55
116912,9.714,-1.283,1.774,-0.869782,0.100762,1.372322,99942.02,-132,+116,-56
116922,9.668,-0.962,2.521,-0.406846,0.069367,1.338799,99940.07,-132,+112,-53
116932,9.398,-2.608,2.382,-0.284461,-0.010981,1.344120,99942.74,-133,+110,-54
116942,9.399,-3.549,1.710,-0.251470,-0.030669,1.266432,99942.74,-133,+110,-54
116952,9.629,-3.472,2.259,-0.286589,0.036376,1.156286,99941.07,-136,+107,-55
116962,9.487,-4.107,3.336,-0.479745,0.058193,1.064231,99941.07,-135,+103,-51
116972,8.918,-3.929,3.541,-0.710681,0.055000,0.913111,99943.34,-136,+102,-52
116982,8.894,-2.990,3.287,-0.903837,0.060853,0.776359,99942.04,-136,+102,-52
116992,9.355,-2.414,3.003,-0.909158,0.052872,0.700268,99944.96,-140,+101,-53
117002,9.678,-1.978,2.609,-0.730901,0.031055,0.672066,99942.66,-137,+99,-50
117012,9.577,-1.960,2.429,-0.537213,0.006046,0.686433,99942.66,-138,+100,-51
117022,9.463,-2.595,2.296,-0.372791,-0.018963,0.690157,99944.41,-138,+100,-51
117031,9.307,-3.339,2.413,-0.328626,-0.015238,0.669405,99941.41,-140,+98,-52
117042,9.022,-3.576,2.753,-0.395140,0.006578,0.632690,99940.32,-138,+95,-49
117052,8.860,-3.177,2.984,-0.482938,0.019881,0.591717,99940.37,-140,+95,-51
117062,8.955,-2.817,2.882,-0.505287,0.019349,0.566708,99940.37,-141,+95,-50
117072,8.983,-2.854,2.711,-0.466975,0.010835,0.563515,99943.50,-141,+94,-50
117082,8.986,-3.018,2.641,-0.403654,-0.003532,0.561387,99943.56,-140,+92,-48
117092,9.103,-3.115,2.657,-0.373855,-0.009385,0.554469,99939.98,-140,+92,-50
117102,9.240,-3.128,2.581,-0.357360,-0.011514,0.550213,99940.09,-143,+92,-50
117112,9.288,-3.076,2.475,-0.378644,-0.012578,0.556598,99940.09,-143,+90,-50
117123,9.311,-3.081,2.483,-0.391415,-0.000871,0.568304,99942.57,-141,+89,-47
117132,9.347,-3.069,2.419,-0.405250,0.004450,0.585864,99940.79,-141,+89,-49
117142,9.273,-2.829,2.512,-0.402057,0.006046,0.612469,99938.59,-143,+88,-50
117152,9.107,-2.602,2.619,-0.348314,0.002853,0.648121,99939.12,-143,+88,-50
117161,8.929,-2.801,2.611,-0.277544,-0.010449,0.693350,99939.12,-141,+85,-46
117172,8.785,-3.053,2.612,-0.228589,-0.021624,0.741772,99943.23,-144,+85,-49
117182,8.818,-3.300,2.614,-0.248278,-0.027477,0.781148,99942.91,-145,+82,-48
117192,9.030,-3.512,2.664,-0.329690,-0.025348,0.816267,99941.18,-145,+82,-48
117202,9.452,-3.395,2.909,-0.439837,-0.018963,0.856708,99941.13,-143,+80,-46
117212,9.723,-2.892,3.186,-0.524975,-0.022156,0.917368,99941.13,-144,+79,-49
117222,9.841,-2.547,3.238,-0.556369,-0.066321,1.005166,99940.92,-147,+77,-49
117232,9.815,-2.249,3.231,-0.507947,-0.172211,1.097221,99942.48,-147,+77,-49
117242,9.838,-2.139,3.231,-0.445158,-0.244578,1.220139,99938.92,-144,+74,-46
117252,10.139,-2.156,3.258,-0.376516,-0.312156,1.361680,99939.03,-145,+71,-50
117262,10.607,-2.416,3.182,-0.341929,-0.365899,1.519184,99939.03,-147,+67,-50
117272,11.139,-2.739,2.666,-0.340333,-0.402614,1.674561,99942.55,-147,+67,-50
117282,11.646,-2.878,2.048,-0.342461,-0.438798,1.827276,99939.68,-144,+62,-48
117293,11.983,-2.860,1.516,-0.298828,-0.501055,1.977863,99940.20,-146,+59,-52
117302,12.228,-3.045,1.184,-0.209434,-0.582467,2.125789,99941.09,-147,+52,-55
117312,12.371,-3.328,1.321,-0.121103,-0.657495,2.275312,99941.09,-147,+52,-55
117322,12.511,-3.801,2.080,-0.071617,-0.720284,2.409936,99940.71,-144,+46,-53
117332,12.561,-4.361,2.827,-0.091837,-0.757531,2.523275,99940.60,-145,+39,-57
117342,12.763,-4.841,3.419,-0.213158,-0.769770,2.603092,99940.71,-145,+32,-59
117352,13.747,-4.775,3.790,-0.406846,-0.794247,2.652578,99939.24,-145,+32,-59
117362,15.647,-4.394,4.020,-0.637250,-0.835219,2.703661,99939.24,-141,+26,-58
117372,18.262,-4.248,5.141,-0.827213,-0.909183,2.759000,99941.03,-142,+20,-64
117382,20.287,-2.996,5.268,-1.115616,-0.868742,2.829771,99941.86,-140,+12,-66
117392,22.080,-1.295,4.868,-1.594515,-0.717091,2.896284,99941.70,-140,+12,-66
117402,23.514,2.464,4.364,-1.989873,-0.586192,2.959605,99938.98,-137,+8,-66
117412,23.027,5.573,4.090,-2.146313,-0.482431,3.052725,99938.98,-136,+3,-74
117417,21.685,6.548,3.553,-2.154827,-0.444651,3.069752,99940.17,-136,+3,-74
117427,19.904,5.127,2.679,-2.191542,-0.449440,3.057514,99940.17,-134,-1,-74
117437,17.055,1.537,1.586,-2.185689,-0.536174,2.936725,99942.38,-130,-6,-76
117447,14.013,-5.241,1.267,-2.037230,-0.676651,2.925018,99939.97,-130,-10,-82
117457,12.471,-10.755,1.818,-1.768515,-0.842137,3.077202,99939.70,-130,-10,-82
117468,12.314,-11.244,3.974,-1.442332,-0.955476,3.158082,99941.03,-126,-17,-85
117477,12.596,-10.850,4.179,-1.156589,-1.022522,3.147440,99940.05,-120,-21,-87
117487,11.584,-11.400,5.615,-0.713874,-0.990596,3.292706,99941.67,-118,-29,-93
117497,9.458,-8.869,6.862,0.108236,-0.855440,3.114981,99941.67,-118,-29,-93
117508,6.409,-3.493,6.499,0.613208,-0.680908,2.478046,99939.00,-113,-36,-93
117517,5.244,2.697,3.969,0.577025,-0.340889,1.619221,99939.00,-108,-42,-93
117527,5.985,4.812,1.403,-0.093434,-0.247238,0.832763,99940.74,-110,-43,-98
117537,5.210,2.768,2.685,-0.497837,-0.098247,0.594378,99941.07,-110,-43,-98
117548,4.720,1.581,2.819,-0.488259,0.022009,0.300653,99938.02,-108,-44,-98
117558,3.730,2.540,1.676,-0.327562,-0.014174,-0.392154,99938.34,-107,-43,-97
117567,2.815,2.921,1.801,-0.316388,0.164083,-0.926392,99938.34,-110,-40,-101
117577,2.467,1.838,1.860,-0.369066,0.236982,-1.256300,99941.73,-110,-40,-101
117587,2.196,0.245,1.151,-0.222736,0.178450,-1.644208,99940.43,-111,-37,-99
117598,2.273,-0.766,0.730,0.102383,0.144927,-2.083731,99939.63,-112,-32,-97
117607,2.881,-0.887,0.719,0.538713,0.146523,-2.525382,99939.63,-116,-27,-99
117617,3.568,-0.582,0.791,0.940456,0.150780,-2.938831,99939.63,-116,-27,-99
117627,3.923,-0.074,0.869,1.198529,0.160890,-3.312904,99939.23,-118,-24,-96
117638,4.212,-0.031,1.150,1.368272,0.199734,-3.620464,99939.54,-120,-17,-93
117647,4.430,-0.430,1.623,1.548125,0.247092,-3.899289,99937.09,-125,-10,-94
117653,4.641,-0.651,1.987,1.671042,0.298174,-4.115858,99935.04,-125,-10,-94
117662,4.970,-0.886,2.327,1.694987,0.362028,-4.334555,99935.04,-127,-3,-88
117672,5.418,-1.368,2.720,1.631134,0.459936,-4.601142,99934.99,-129,+5,-85
117683,6.016,-2.064,2.972,1.534822,0.556248,-4.838463,99935.30,-129,+5,-85
117692,6.568,-2.571,2.988,1.477354,0.674376,-5.041197,99935.40,-134,+15,-85
117702,7.105,-3.043,3.030,1.408712,0.831348,-5.240206,99932.99,-135,+27,-80
117712,7.915,-3.495,2.840,1.302290,0.983532,-5.457306,99932.99,-135,+42,-77
117723,9.028,-3.586,2.638,1.203850,1.134119,-5.686114,99938.69,-135,+42,-77
117732,10.301,-3.446,2.760,1.116584,1.246926,-5.903747,99938.64,-137,+56,-76
117742,11.605,-3.558,2.788,1.050070,1.336853,-6.081471,99935.50,-134,+71,-70
117752,12.767,-4.034,2.777,0.915979,1.435293,-6.246957,99934.66,-128,+88,-67
117763,14.178,-4.694,2.844,0.708456,1.544375,-6.405526,99934.66,-128,+88,-67
117772,15.861,-5.240,2.837,0.429098,1.627385,-6.551324,99939.38,-126,+106,-67
117782,17.823,-6.264,2.659,0.198695,1.729550,-6.618370,99938.53,-117,+121,-62
117792,19.903,-8.343,2.641,0.136438,1.802449,-6.544407,99937.75,-105,+136,-59
117803,20.797,-10.831,2.293,0.242328,1.788082,-6.398077,99933.50,-105,+136,-59
117813,20.561,-12.481,1.368,0.317355,1.714651,-6.178847,99933.50,-98,+150,-60
117822,19.911,-13.996,0.925,0.351942,1.582687,-5.773912,99942.02,-87,+158,-57
117832,19.027,-15.866,1.572,0.572768,1.429972,-5.202958,99939.59,-77,+165,-57
117842,17.300,-17.197,2.285,0.890437,1.316100,-4.562298,99940.44,-77,+165,-57
117853,15.250,-18.207,1.671,0.995263,1.213403,-3.907803,99940.70,-73,+172,-60
117862,12.708,-22.134,0.149,1.210767,0.978743,-3.175620,99940.70,-67,+172,-59
117872,9.421,-25.460,-0.189,1.400198,0.805807,-2.418428,99942.68,-61,+173,-60
117882,6.334,-24.319,-0.478,0.889905,0.713220,-1.472337,99941.26,-61,+173,-60
117888,5.546,-22.082,0.088,0.213062,0.673844,-0.513475,99945.77,-62,+174,-63
117898,6.834,-19.409,0.543,-0.299892,0.512615,0.517754,99945.77,-61,+171,-59
117908,9.311,-16.467,0.773,-0.528167,0.193881,1.710744,99941.95,-61,+171,-59
117917,11.669,-12.982,-0.911,-0.176443,-0.088669,2.400358,99941.95,-63,+168,-59
117927,13.221,-10.568,-1.816,-0.334479,-0.525532,3.002174,99945.13,-69,+164,-61
117938,24.235,22.527,-0.979,0.971850,-1.107660,2.872872,99943.58,-68,+155,-61
117948,31.072,44.798,-0.484,1.414565,-0.906522,1.013148,99941.83,-68,+155,-61
117957,15.254,-0.954,-4.555,1.076144,-1.215146,2.266798,99941.83,-68,+152,-64
117967,11.496,-23.670,4.326,3.767023,-0.995385,3.940816,99941.83,-73,+142,-72
117978,9.119,-15.440,0.103,5.500636,-1.049128,4.212724,99944.05,-75,+125,-76
117988,10.762,-9.420,-1.360,2.783152,-0.328119,3.039954,99947.30,-75,+125,-76
117997,9.262,-6.947,2.621,1.241630,0.301899,2.941514,99945.03,-77,+118,-77
118008,5.899,-4.754,8.610,1.353550,0.165502,2.862939,99942.81,-84,+110,-79
118018,6.678,-4.985,7.029,1.345391,0.125239,2.413661,99942.81,-83,+104,-77
118028,9.984,-4.688,3.972,0.670144,0.084798,2.241789,99944.28,-83,+104,-77
118038,10.011,-5.529,2.764,-0.222204,-0.159440,2.062468,99945.13,-84,+99,-79
118047,9.677,-5.507,2.274,-0.880956,-0.331311,1.887936,99942.33,-87,+96,-79
118057,10.727,-4.393,1.191,-1.363047,-0.347807,1.788964,99942.33,-85,+94,-77
118068,9.791,-3.922,1.161,-1.646662,-0.258412,1.666579,99943.16,-85,+94,-77
118078,8.852,-3.179,1.211,-1.473726,-0.211055,1.531423,99943.47,-85,+95,-77
118087,8.666,-1.781,0.704,-0.930442,-0.194027,1.414891,99943.47,-89,+92,-79
118097,9.384,-0.379,1.284,-0.284461,-0.121128,1.385625,99942.48,-87,+91,-76
118108,10.099,-0.469,2.172,0.280107,-0.095055,1.441496,99941.84,-87,+91,-76
118117,9.593,-2.520,2.317,0.632896,-0.145605,1.459588,99941.84,-87,+87,-78
118127,9.047,-4.314,2.251,0.640346,-0.140816,1.362744,99947.44,-91,+84,-79
118137,8.828,-5.375,2.637,0.233814,-0.070046,1.191405,99942.92,-88,+81,-77
118148,8.789,-5.060,3.094,-0.345122,-0.000871,0.984414,99940.67,-88,+81,-77
118158,8.977,-3.331,3.037,-0.808057,0.047551,0.820524,99941.14,-89,+80,-78
118168,9.385,-2.115,2.589,-0.929910,0.060321,0.732726,99945.17,-92,+79,-79
118177,9.751,-1.665,2.151,-0.742075,0.049147,0.718359,99943.28,-89,+79,-75
118188,9.857,-1.463,1.556,-0.418021,0.042762,0.752414,99943.17,-89,+79,-75
118198,9.777,-2.209,1.400,-0.180700,0.042230,0.797644,99942.39,-91,+79,-77
118207,9.472,-3.279,1.840,-0.090773,0.060321,0.809350,99942.39,-93,+77,-77
118217,8.910,-3.986,2.467,-0.213158,0.104486,0.778488,99942.39,-91,+75,-74
118227,8.810,-4.101,2.904,-0.515929,0.153973,0.714634,99944.34,-91,+75,-74
118238,9.056,-3.389,2.806,-0.751653,0.184303,0.640671,99942.56,-91,+75,-75
118248,9.256,-2.482,2.469,-0.751653,0.193881,0.612469,99942.09,-95,+74,-76
118257,9.322,-2.264,2.267,-0.580846,0.185899,0.636414,99937.89,-92,+75,-72
118267,9.250,-2.823,2.087,-0.411635,0.186963,0.671001,99937.89,-94,+75,-74
118278,9.250,-3.580,1.980,-0.382901,0.230596,0.690690,99941.27,-94,+74,-74
118288,9.326,-3.722,2.169,-0.490387,0.277422,0.694946,99941.38,-96,+72,-74
118298,9.389,-3.311,2.589,-0.586699,0.221018,0.667809,99940.53,-94,+73,-70
118307,9.642,-2.769,2.663,-0.618094,0.183239,0.667277,99940.53,-96,+71,-72
118318,9.729,-2.733,2.544,-0.596277,0.165147,0.726341,99940.53,-96,+71,-72
118328,9.445,-2.740,2.455,-0.531892,0.152376,0.793919,99941.39,-99,+71,-72
118337,9.257,-2.516,2.424,-0.479213,0.144395,0.874800,99941.30,-95,+70,-69
118347,9.160,-2.651,2.390,-0.440369,0.139606,0.966322,99941.55,-97,+69,-71
118358,9.215,-2.811,2.631,-0.399929,0.117789,1.050928,99943.17,-97,+69,-71
118368,9.244,-3.139,2.806,-0.358424,0.063514,1.112653,99943.17,-99,+66,-72
118378,9.197,-3.147,2.868,-0.329690,0.028927,1.182359,99944.30,-96,+64,-69
118387,9.132,-3.155,2.872,-0.308406,0.003918,1.264304,99945.92,-98,+63,-71
118397,9.127,-3.030,2.793,-0.254131,-0.037055,1.341992,99941.41,-98,+63,-71
118408,9.304,-2.993,2.712,-0.196663,-0.075367,1.434047,99939.94,-100,+60,-71
118418,9.785,-3.262,2.666,-0.141323,-0.114211,1.529294,99943.97,-97,+58,-68
118428,10.501,-3.624,2.465,-0.108865,-0.147202,1.617625,99939.67,-98,+55,-71
118437,11.116,-3.966,1.762,-0.114186,-0.174339,1.695313,99939.67,-98,+55,-71
118448,11.356,-3.965,1.333,-0.109929,-0.192963,1.776726,99943.03,-99,+50,-71
118458,11.533,-3.800,1.042,-0.074278,-0.233935,1.867184,99941.78,-96,+47,-69
118467,11.783,-3.437,1.276,-0.004039,-0.310559,1.986909,99941.78,-98,+42,-72
118478,12.119,-3.527,2.155,0.105930,-0.410596,2.144236,99942.45,-98,+42,-72
118488,12.436,-4.050,2.996,0.137502,-0.466999,2.281166,99942.45,-98,+37,-72
118498,12.797,-4.892,3.572,0.036401,-0.472853,2.409404,99943.40,-94,+34,-71
118508,13.342,-5.437,3.598,-0.211562,-0.427091,2.496670,99941.15,-94,+28,-76
118517,14.303,-5.181,3.270,-0.533488,-0.372284,2.556266,99941.15,-94,+28,-76
118528,16.173,-4.557,3.060,-0.819763,-0.359513,2.615863,99941.43,-93,+23,-75
118538,18.968,-3.560,4.173,-0.986846,-0.427623,2.703129,99942.24,-90,+20,-74
118548,21.270,-2.356,4.917,-1.173084,-0.422834,2.842541,99940.26,-91,+14,-79
118557,22.665,-0.943,4.601,-1.567910,-0.328651,2.952156,99940.26,-91,+14,-79
118567,23.483,1.201,4.046,-2.041487,-0.255220,3.005899,99940.26,-89,+10,-80
118578,23.192,4.022,3.511,-2.425138,-0.215312,3.016009,99945.50,-84,+9,-80
118588,21.879,4.440,2.821,-2.727377,-0.244045,2.944706,99942.98,-84,+7,-85
118597,19.932,3.867,2.354,-2.852955,-0.288211,2.746762,99942.25,-84,+7,-85
118607,16.738,-0.535,1.787,-2.801872,-0.424431,2.710046,99939.80,-80,+5,-87
118618,14.349,-7.479,1.822,-2.361285,-0.683036,2.880853,99939.80,-75,+5,-88
118628,13.304,-10.797,3.797,-1.764790,-0.933128,3.063367,99942.30,-73,+1,-94
118638,12.808,-9.054,4.850,-1.285892,-1.006559,2.989403,99941.51,-73,+1,-94
118648,11.582,-9.043,5.224,-0.942681,-0.906522,2.995789,99940.52,-68,-2,-96
118658,10.157,-9.288,6.397,-0.372259,-0.733586,3.046339,99940.52,-62,-4,-97
118668,7.306,-6.052,6.294,0.196566,-0.561715,2.561055,99944.00,-60,-11,-101
118678,4.300,-1.093,5.635,0.327997,-0.231807,1.764487,99944.00,-60,-11,-101
118687,4.848,3.120,2.192,-0.075342,0.108743,0.924818,99941.80,-56,-13,-100
118697,4.970,2.531,2.125,-0.767085,0.211440,0.385791,99940.33,-54,-13,-99
118708,4.132,1.315,3.753,-1.000681,0.524853,0.123993,99939.75,-56,-12,-103
118713,4.193,1.832,3.036,-1.056552,0.653624,-0.241035,99939.75,-56,-12,-103
118723,3.799,3.236,1.666,-1.139561,0.611587,-0.767291,99939.74,-56,-9,-101
118732,2.979,3.784,1.490,-1.219910,0.730247,-1.238740,99938.43,-55,-3,-100
118743,2.756,2.539,0.908,-1.210864,0.770688,-1.509584,99936.85,-55,-3,-100
118753,2.564,0.906,-0.290,-1.044314,0.689807,-1.837364,99939.85,-58,-1,-103
118763,2.388,-0.446,-0.458,-0.611709,0.696725,-2.200795,99939.85,-58,+3,-101
118773,2.729,-0.522,-0.464,-0.027452,0.705770,-2.623822,99938.70,-57,+9,-98
118782,3.190,-0.037,-0.152,0.461025,0.722798,-3.042593,99938.50,-57,+9,-98
118793,3.658,0.354,0.282,0.852658,0.755257,-3.372501,99937.66,-61,+11,-101
118803,4.093,0.556,0.791,1.149043,0.810596,-3.649198,99938.39,-62,+15,-98
118812,4.338,0.262,1.269,1.379978,0.858486,-3.898225,99938.39,-62,+20,-95
118822,4.710,-0.033,1.789,1.633795,0.898394,-4.157362,99940.20,-62,+20,-95
118833,5.376,-0.413,2.517,1.840785,0.952669,-4.421821,99934.16,-66,+23,-97
118843,5.939,-1.183,3.003,1.989244,0.997899,-4.669252,99935.26,-66,+27,-93
118853,6.560,-1.895,3.043,2.086088,1.054834,-4.893802,99933.38,-66,+33,-90
118862,7.354,-2.515,2.897,2.125464,1.139972,-5.098132,99933.38,-66,+33,-90
118873,8.257,-3.158,2.583,2.079171,1.218192,-5.317894,99936.74,-69,+36,-93
118883,9.456,-3.792,2.170,1.969556,1.272999,-5.559472,99935.12,-68,+42,-90
118893,11.117,-4.260,1.931,1.798749,1.333660,-5.801049,99936.21,-66,+50,-90
118902,12.853,-4.649,2.141,1.499703,1.377825,-6.024004,99934.54,-66,+50,-90
118913,14.258,-5.132,2.449,1.058584,1.398045,-6.216627,99934.54,-70,+56,-93
118923,14.996,-5.721,2.669,0.515300,1.457641,-6.423086,99938.82,-66,+65,-91
118933,15.739,-6.363,2.712,-0.035434,1.607164,-6.601874,99939.98,-63,+76,-91
118943,17.433,-6.913,2.744,-0.451011,1.808834,-6.686480,99938.15,-63,+76,-91
118952,19.536,-7.987,2.755,-0.574993,1.971660,-6.628480,99938.09,-64,+87,-92
118963,20.983,-9.799,2.478,-0.415360,2.031256,-6.439049,99938.09,-60,+94,-89
118973,21.001,-12.204,1.421,-0.170057,2.000393,-6.136279,99939.55,-55,+102,-88
118983,19.610,-14.520,0.087,0.030548,1.888118,-5.704738,99941.13,-56,+110,-88
118992,18.883,-16.708,-0.100,0.353539,1.730082,-5.113031,99942.18,-56,+110,-88
119003,17.789,-17.734,0.040,0.704731,1.553421,-4.485142,99939.29,-52,+112,-86
119013,15.645,-18.292,-0.370,0.823924,1.400706,-3.852464,99939.29,-51,+113,-85
119023,12.445,-22.068,-1.360,1.077740,1.078779,-3.076648,99942.39,-54,+116,-87
119032,9.396,-24.824,-1.471,1.284731,0.802614,-2.236446,99944.84,-54,+116,-87
119043,7.020,-23.416,-1.814,0.939924,0.548798,-1.217988,99940.92,-52,+113,-84
119053,6.827,-20.331,-1.306,0.497740,0.354046,0.099516,99942.23,-51,+112,-85
119063,9.015,-17.304,-1.149,0.433887,0.058193,1.350506,99942.23,-56,+109,-87
119073,11.353,-14.007,-0.140,0.822327,-0.289275,2.232744,99943.39,-56,+109,-87
119083,10.926,-14.710,-2.453,0.846272,-0.737843,2.836688,99941.52,-55,+102,-86
119093,16.612,1.659,4.814,1.553978,-1.097550,3.364541,99941.45,-55,+94,-89
119103,29.743,43.423,0.501,2.622987,-0.858100,1.613900,99941.88,-58,+89,-92
119113,20.686,13.027,-4.607,0.168897,-0.809678,1.291441,99941.88,-58,+89,-92
119122,12.938,-23.525,2.255,0.830309,-0.690486,3.403385,99945.41,-57,+85,-90
119133,9.968,-18.367,0.463,3.603665,-1.023586,3.942944,99942.48,-56,+72,-93
119143,9.635,-7.440,-2.135,1.601868,-0.552137,2.746229,99943.95,-59,+67,-96
119153,11.288,-3.631,0.410,0.183796,-0.063660,2.668541,99941.49,-59,+67,-96
119162,7.087,-3.975,3.498,0.109832,-0.181257,2.545624,99941.49,-58,+61,-92
119173,5.686,-5.847,5.705,0.393979,-0.046633,2.184322,99943.62,-57,+58,-93
119183,10.297,-5.684,4.994,0.362584,0.108743,2.205074,99942.26,-61,+53,-95
119193,11.774,-4.772,2.214,0.119942,-0.021092,2.094927,99939.85,-61,+53,-95
119203,9.115,-4.811,1.431,-0.305745,0.042230,1.831001,99940.32,-59,+50,-92
119213,8.998,-4.189,1.667,-0.685672,0.185367,1.820359,99940.32,-59,+49,-93
119223,9.611,-3.890,2.193,-0.920864,0.281679,1.721386,99944.49,-63,+48,-94
119233,9.405,-4.734,1.708,-1.181066,0.252413,1.554836,99941.26,-63,+48,-94
119243,9.749,-3.415,1.609,-1.131048,0.219422,1.427130,99940.77,-60,+48,-92
119252,9.713,-1.305,2.477,-0.813378,0.222615,1.323368,99942.82,-61,+48,-93
119263,9.459,-1.350,3.392,-0.511140,0.148652,1.298359,99942.82,-64,+46,-93
119273,9.038,-2.325,3.109,-0.250938,0.025734,1.277074,99944.18,-64,+46,-93
119283,9.071,-3.111,2.442,-0.211562,-0.003532,1.190341,99945.07,-61,+44,-90
119292,9.470,-4.580,2.601,-0.336076,0.008707,1.081790,99941.40,-61,+42,-92
119304,9.476,-4.311,3.217,-0.506706,0.025734,0.913289,99940.13,-64,+42,-93
119313,9.160,-3.251,3.461,-0.705360,0.048083,0.785937,99940.13,-64,+42,-93
119323,9.162,-2.577,3.238,-0.769213,0.042230,0.706121,99942.66,-60,+42,-90
119333,9.380,-2.128,2.672,-0.652149,0.012431,0.665148,99944.08,-61,+42,-91
119343,9.508,-2.210,2.277,-0.465910,-0.015770,0.649717,99944.13,-64,+42,-92
119353,9.452,-3.039,2.286,-0.319580,-0.034394,0.635882,99943.66,-64,+42,-92
119363,9.374,-3.552,2.455,-0.300956,-0.036523,0.602359,99943.66,-60,+42,-90
119373,9.252,-3.585,2.656,-0.370663,-0.022156,0.555534,99943.81,-63,+42,-92
119383,9.167,-3.041,2.697,-0.458993,-0.001403,0.522011,99940.56,-64,+42,-92
119393,9.170,-2.541,2.819,-0.519121,0.014028,0.506580,99941.36,-64,+42,-92
119403,9.184,-2.278,2.922,-0.512736,0.017220,0.511901,99940.94,-60,+41,-89
119413,9.100,-2.565,2.813,-0.458461,0.009239,0.532121,99940.94,-62,+42,-92
119422,9.176,-2.947,2.664,-0.406846,0.000193,0.547020,99943.91,-64,+41,-92
119433,9.159,-2.959,2.523,-0.393544,0.013496,0.544891,99941.60,-59,+40,-90
119443,9.012,-3.291,2.485,-0.439837,0.028395,0.544891,99941.80,-59,+40,-90
119453,8.989,-3.178,2.681,-0.489323,0.045954,0.539570,99941.34,-62,+41,-92
119463,9.123,-3.037,2.702,-0.557965,0.070963,0.544891,99941.34,-63,+41,-92
119473,9.262,-2.970,2.552,-0.597874,0.075752,0.565644,99942.93,-60,+41,-90
119483,9.162,-2.574,2.557,-0.597342,0.069899,0.607148,99941.37,-60,+41,-90
119493,8.936,-2.078,2.439,-0.543066,0.066707,0.674194,99940.95,-63,+42,-92
119503,8.767,-1.808,2.387,-0.428131,0.048083,0.761992,99941.88,-64,+40,-92
119513,8.631,-1.818,2.682,-0.269562,0.016688,0.864689,99941.88,-61,+40,-89
119523,8.761,-2.259,2.981,-0.162608,-0.013642,0.969515,99942.98,-61,+40,-89
119533,9.088,-3.001,3.104,-0.180167,-0.025348,1.054121,99942.34,-63,+39,-92
119538,9.427,-3.237,3.151,-0.262644,-0.022156,1.097754,99939.89,-63,+39,-92
119548,9.641,-3.079,3.246,-0.349910,-0.029073,1.138726,99939.89,-64,+38,-90
119559,9.805,-2.786,3.188,-0.407378,-0.058339,1.220139,99938.78,-59,+36,-90
119568,10.054,-2.968,2.759,-0.386094,-0.093991,1.316451,99938.78,-62,+35,-92
119578,10.285,-3.495,2.225,-0.373323,-0.128578,1.405313,99941.89,-62,+35,-92
119588,10.328,-3.577,1.964,-0.387158,-0.172211,1.485662,99943.31,-63,+33,-91
119599,10.601,-3.449,2.007,-0.377580,-0.230743,1.566542,99942.94,-59,+32,-90
119608,11.044,-3.225,2.103,-0.321709,-0.301513,1.663386,99942.94,-61,+30,-93
119618,11.490,-3.403,2.174,-0.258920,-0.373880,1.771937,99942.94,-61,+30,-93
119628,11.788,-3.522,2.220,-0.219544,-0.438266,1.890597,99942.91,-61,+27,-92
119639,12.019,-3.740,2.639,-0.233378,-0.507972,2.007661,99941.70,-56,+25,-91
119648,12.304,-3.932,3.275,-0.260516,-0.592577,2.117808,99939.50,-57,+22,-94
119658,12.436,-4.205,3.819,-0.331287,-0.689954,2.217312,99940.17,-55,+19,-93
119668,12.653,-4.447,4.113,-0.438241,-0.761256,2.306175,99940.17,-55,+19,-93
119678,13.490,-4.567,4.264,-0.570736,-0.829898,2.380138,99942.45,-50,+17,-93
119689,15.247,-4.385,4.307,-0.712277,-0.884174,2.457826,99940.83,-51,+13,-97
119698,17.709,-4.168,5.352,-0.826149,-0.959201,2.539239,99939.83,-49,+12,-97
119708,19.819,-2.960,5.472,-1.040057,-0.935788,2.650450,99939.83,-49,+12,-97
119718,22.181,-1.527,4.077,-1.496607,-0.860761,2.730798,99943.55,-42,+11,-97
119729,24.415,1.201,2.979,-1.906332,-0.823513,2.824982,99945.49,-43,+9,-99
119738,24.360,4.204,3.433,-2.046808,-0.781476,2.996853,99945.49,-40,+9,-99
119748,22.923,3.964,4.564,-1.924955,-0.727201,3.275146,99937.68,-40,+9,-99
119758,20.820,2.893,4.781,-1.823322,-0.716027,3.482669,99940.15,-36,+9,-99
119768,18.412,-0.578,4.470,-1.965928,-0.793183,3.471495,99940.15,-35,+7,-103
119778,15.958,-4.592,5.783,-1.866955,-0.957073,3.446486,99942.62,-31,+5,-103
119788,14.925,-4.299,6.094,-1.374222,-0.976229,3.402853,99941.95,-31,+5,-103
119798,14.321,-5.140,5.172,-0.868185,-0.795311,3.312926,99940.16,-27,+4,-101
119809,14.375,-7.740,3.920,-0.953323,-0.621843,3.376247,99938.49,-27,+0,-105
119819,11.901,-10.089,5.565,-0.638846,-0.615990,3.364541,99943.52,-24,-1,-103
119828,8.068,-7.376,6.792,0.181667,-0.463807,2.828707,99940.84,-24,-1,-103
119838,5.608,-0.178,5.163,0.342364,-0.304706,1.833129,99938.48,-21,-3,-101
119848,5.771,5.466,1.752,-0.340333,-0.125917,0.788066,99938.44,-22,-7,-104
119858,5.169,3.957,3.007,-1.035268,0.105019,0.458690,99938.44,-22,-4,-101
119868,4.801,2.631,3.170,-1.006534,0.198670,0.302782,99938.44,-22,-4,-101
119878,3.805,3.396,2.164,-0.754846,0.186963,-0.336814,99941.82,-24,-1,-100
119888,3.140,3.873,2.171,-0.712277,0.355642,-0.946080,99943.76,-28,+0,-103
119899,2.721,3.086,1.964,-0.679286,0.429073,-1.333988,99938.37,-30,+3,-100
119908,2.387,1.608,1.002,-0.433984,0.368945,-1.703804,99940.82,-30,+3,-100
119918,1.940,-0.109,0.135,-0.043947,0.305092,-2.085859,99940.82,-32,+8,-98
119928,1.868,-1.375,-0.142,0.389722,0.277954,-2.468446,99940.52,-37,+9,-100
119939,2.320,-1.441,-0.194,0.797318,0.243899,-2.894666,99936.75,-40,+13,-97
119949,3.002,-0.581,-0.067,1.081997,0.243367,-3.348556,99938.00,-40,+13,-97
119958,3.874,0.269,0.238,1.258657,0.292853,-3.736464,99938.00,-43,+19,-94
119968,4.528,0.526,0.917,1.476290,0.361495,-4.036573,99938.00,-49,+23,-97
119979,4.858,0.371,1.562,1.706162,0.421624,-4.306353,99938.12,-52,+29,-93
119988,5.076,-0.019,2.042,1.845042,0.454615,-4.576133,99936.29,-52,+29,-93
119998,5.742,-0.739,2.443,1.956785,0.488138,-4.816114,99938.23,-54,+36,-92
120008,6.926,-1.657,2.775,2.051501,0.549862,-5.018848,99935.02,-59,+42,-95
120018,7.965,-2.402,2.941,2.107905,0.622229,-5.222114,99935.02,-62,+50,-92
120029,8.663,-3.128,3.042,2.096730,0.703110,-5.439747,99936.13,-62,+50,-92
120038,9.534,-3.667,2.874,2.000951,0.794633,-5.665894,99936.49,-64,+60,-92
120048,10.581,-3.798,2.688,1.923795,0.898394,-5.881930,99936.54,-66,+69,-97
120058,11.773,-3.864,2.855,1.862602,1.012266,-6.083600,99934.27,-66,+81,-92
120069,13.126,-4.193,3.220,1.755116,1.076119,-6.290590,99936.70,-66,+81,-92
120079,14.768,-4.592,3.540,1.632198,1.124541,-6.493856,99936.90,-64,+94,-94
120088,16.810,-5.197,3.957,1.461391,1.212871,-6.631141,99936.90,-64,+102,-99
120098,19.200,-6.652,4.446,1.271960,1.312908,-6.683287,99934.34,-58,+115,-96
120109,21.095,-10.058,4.537,1.045813,1.384210,-6.682223,99936.85,-54,+115,-96
120118,21.002,-13.149,3.767,0.677061,1.384742,-6.683819,99936.85,-54,+126,-96
120128,20.444,-14.114,2.770,0.226364,1.419330,-6.510352,99940.80,-51,+132,-100
120138,19.900,-14.848,2.158,-0.068957,1.454449,-6.031453,99940.91,-45,+143,-97
120148,18.763,-16.638,2.515,-0.021599,1.382082,-5.383343,99940.85,-42,+151,-95
120159,16.483,-17.595,2.789,0.128456,1.288431,-4.726720,99940.23,-42,+151,-95
120168,14.509,-19.077,2.151,0.157190,1.235752,-4.073289,99940.23,-42,+154,-99
120178,11.765,-22.959,0.821,0.428034,1.093678,-3.400170,99942.95,-38,+160,-96
120188,8.482,-24.185,0.143,0.442401,0.962779,-2.647767,99944.49,-36,+165,-96
120199,6.751,-21.948,-0.566,-0.074278,0.821770,-1.454245,99940.35,-36,+165,-96
120208,7.598,-17.893,-1.042,-0.484002,0.562101,0.040451,99940.35,-42,+162,-98
120218,9.469,-15.523,-1.638,-0.383966,0.163018,1.440432,99940.35,-42,+165,-95
120228,10.033,-16.856,-1.360,0.004475,-0.259477,2.491349,99944.30,-47,+160,-97
120239,10.890,-17.280,1.379,0.501997,-0.522871,3.158082,99944.52,-47,+160,-97
120248,13.999,-7.512,-1.549,0.825520,-0.755403,3.170321,99943.41,-55,+150,-101
120258,16.371,5.206,3.129,0.339704,-0.728265,3.110193,99941.42,-54,+148,-100
120268,26.343,39.102,-0.313,1.084125,-0.724541,1.737882,99941.42,-56,+144,-103
120279,21.780,19.352,-2.631,-0.097158,-0.725605,0.921625,99943.59,-56,+144,-103
120289,13.519,-17.389,1.611,0.434419,-0.776155,3.009624,99941.24,-60,+137,-105
120299,11.160,-17.372,3.337,3.988380,-0.969311,4.028614,99938.76,-61,+128,-107
120308,8.755,-8.667,-1.427,3.375922,-0.851183,3.103807,99938.76,-64,+117,-113
120318,9.858,-8.528,-0.624,1.231520,-0.161036,2.589257,99943.95,-64,+117,-113
120329,8.301,-6.203,2.746,0.866492,-0.079091,2.548285,99943.95,-70,+106,-113
120338,7.260,-6.052,6.385,0.940988,-0.012046,2.214120,99944.73,-68,+106,-111
120348,11.397,-6.407,3.008,0.559465,0.097569,2.111423,99942.63,-72,+99,-114
120358,12.243,-4.715,0.790,-0.144516,-0.054082,2.030010,99944.26,-72,+99,-114
120364,9.314,-4.963,1.838,-0.477617,-0.028541,1.840579,99944.26,-75,+92,-113
120374,7.820,-4.956,2.588,-0.655874,0.046486,1.739478,99945.73,-74,+98,-110
120383,8.490,-3.109,2.190,-0.667580,0.061918,1.611772,99942.17,-74,+98,-110
120393,9.390,-2.164,2.917,-0.780919,0.136413,1.476084,99941.08,-77,+93,-112
120403,9.609,-2.517,2.979,-0.837323,0.093312,1.393074,99942.39,-78,+89,-111
120414,9.443,-1.873,2.438,-0.629800,0.037973,1.309001,99942.39,-78,+94,-110
120424,9.323,-1.189,2.486,-0.332351,0.048083,1.261111,99944.68,-78,+94,-110
120433,9.514,-1.357,2.617,-0.105672,-0.018963,1.235038,99942.27,-80,+89,-111
120443,9.446,-2.467,2.399,0.081098,-0.165293,1.170120,99942.48,-80,+82,-112
120454,9.471,-3.398,2.246,0.122603,-0.191899,1.081790,99940.07,-80,+87,-110
120463,9.395,-4.003,2.479,-0.056186,-0.228082,0.975368,99940.07,-80,+87,-110
120473,9.147,-3.932,2.143,-0.303085,-0.233935,0.835423,99941.53,-80,+82,-112
120483,9.192,-2.867,2.426,-0.491452,-0.187110,0.750286,99944.27,-81,+79,-112
120494,9.420,-1.970,2.383,-0.521250,-0.161568,0.723680,99940.80,-79,+85,-110
120504,9.554,-1.644,2.181,-0.409507,-0.132302,0.741240,99941.59,-79,+85,-110
120513,9.640,-2.091,1.947,-0.270094,-0.111018,0.761460,99941.59,-81,+80,-113
120523,9.584,-2.710,1.908,-0.176975,-0.103569,0.760396,99942.90,-82,+77,-112
120534,9.291,-2.976,2.192,-0.170590,-0.122724,0.733790,99943.05,-81,+83,-110
120544,9.106,-2.940,2.635,-0.271690,-0.134963,0.688029,99942.16,-81,+83,-110
120553,9.116,-3.048,2.697,-0.349378,-0.107825,0.648653,99938.82,-82,+78,-112
120563,9.162,-3.061,2.333,-0.403121,-0.062064,0.630561,99938.82,-82,+75,-113
120573,9.316,-2.716,2.125,-0.386094,-0.026413,0.621515,99942.15,-82,+81,-110
120584,9.399,-2.449,2.161,-0.323837,0.002853,0.631093,99941.95,-82,+81,-110
120594,9.481,-2.774,2.125,-0.270094,0.025202,0.651846,99941.10,-83,+76,-113
120603,9.481,-3.106,2.089,-0.255195,0.055532,0.661956,99941.95,-83,+73,-111
120613,9.329,-3.284,2.054,-0.287654,0.092780,0.661424,99941.95,-83,+79,-110
120624,9.210,-3.335,2.002,-0.345122,0.124707,0.653442,99943.05,-83,+79,-110
120634,9.234,-3.466,2.047,-0.424406,0.168340,0.650249,99940.18,-84,+73,-111
120643,9.155,-3.315,2.090,-0.493580,0.213037,0.656102,99939.91,-84,+73,-110
120653,9.104,-2.985,2.244,-0.545727,0.243899,0.678451,99937.76,-85,+78,-107
120664,9.021,-2.626,2.331,-0.540938,0.243899,0.715167,99937.76,-85,+78,-107
120674,9.087,-2.072,2.283,-0.440901,0.230596,0.774763,99941.54,-87,+72,-110
120683,9.201,-2.109,2.219,-0.281800,0.210376,0.862561,99943.16,-86,+70,-108
120693,9.323,-2.543,2.194,-0.128021,0.207716,0.955680,99942.48,-88,+75,-106
120704,9.607,-3.007,2.435,-0.129617,0.250817,1.049864,99939.23,-88,+75,-106
120714,9.868,-3.224,2.734,-0.245085,0.292853,1.139790,99939.23,-89,+67,-108
120724,9.891,-2.441,3.517,-0.346718,0.264651,1.228120,99943.35,-90,+65,-106
120733,9.994,-1.854,3.943,-0.332883,0.155037,1.341460,99942.10,-91,+69,-105
120743,10.219,-1.948,3.977,-0.206773,-0.020559,1.472891,99940.52,-91,+69,-105
120754,10.443,-2.532,3.475,-0.105140,-0.153587,1.622414,99938.27,-92,+60,-108
120764,10.755,-3.562,2.662,-0.123764,-0.223825,1.754909,99938.27,-91,+58,-106
120773,11.244,-3.361,2.125,-0.202516,-0.266926,1.858670,99942.20,-92,+60,-105
120783,12.061,-2.965,2.072,-0.222204,-0.322266,1.979459,99941.20,-92,+60,-105
120794,12.854,-3.323,2.240,-0.159415,-0.373880,2.116744,99944.60,-92,+50,-108
120804,13.264,-3.904,2.348,-0.168993,-0.395165,2.258285,99940.04,-91,+46,-107
120813,13.482,-4.134,2.668,-0.273287,-0.406871,2.381202,99940.04,-92,+46,-106
120823,13.544,-4.028,3.113,-0.428663,-0.409532,2.497734,99942.61,-91,+46,-110
120834,13.890,-3.886,3.529,-0.590424,-0.420174,2.611606,99941.94,-91,+36,-110
120844,14.917,-3.574,3.625,-0.736754,-0.471788,2.718028,99942.25,-90,+33,-108
120854,16.405,-3.199,3.449,-0.894791,-0.531385,2.832963,99941.78,-92,+34,-108
120863,18.736,-2.997,3.711,-1.009194,-0.622908,2.938321,99941.78,-89,+22,-112
120873,20.789,-1.908,4.926,-1.085818,-0.695275,3.052192,99941.63,-89,+22,-112
120884,21.520,-0.883,5.459,-1.322607,-0.619183,3.166596,99940.47,-87,+20,-111
120894,22.364,-0.663,5.284,-1.772240,-0.466467,3.223532,99939.48,-89,+21,-112
120903,23.100,-0.488,4.668,-2.317652,-0.339293,3.323036,99941.11,-86,+12,-116
120913,22.773,0.302,3.850,-2.868386,-0.250963,3.435844,99941.11,-86,+12,-116
120924,20.752,1.216,2.661,-3.328129,-0.232871,3.401789,99941.41,-85,+13,-115
120934,16.484,-1.944,2.657,-3.502661,-0.450504,3.443293,99939.56,-89,+15,-116
120943,13.167,-3.448,5.915,-2.987046,-0.752210,3.528431,99938.00,-84,+7,-122
120953,12.817,-0.407,7.568,-2.088313,-0.594706,3.230981,99938.84,-84,+7,-122
120964,12.662,0.283,5.706,-1.188516,-0.396229,2.710046,99938.84,-82,+5,-122
120974,10.569,-3.590,2.614,-1.112956,-0.420174,2.588193,99939.24,-85,+3,-122
120984,9.493,-8.341,4.852,-1.013451,-0.286082,2.845202,99942.34,-78,-5,-126
120993,7.369,-7.999,6.717,-0.149305,-0.278633,2.599899,99941.18,-78,-5,-126
121004,3.793,-2.599,6.572,0.540309,-0.171146,1.684138,99939.35,-78,-9,-123
121014,4.194,3.431,2.020,0.325869,0.140138,0.427295,99939.35,-82,-11,-125
121024,4.194,4.135,2.577,-0.343525,0.353514,-0.224007,99941.23,-78,-17,-125
121033,4.186,4.320,3.113,-0.416424,0.578596,-0.532631,99939.19,-78,-17,-125
121043,3.781,4.980,1.637,-0.255727,0.492927,-1.140832,99939.61,-81,-14,-121
121054,2.955,5.206,0.923,0.059282,0.472706,-1.720300,99937.36,-87,-12,-122
121064,3.311,4.070,0.761,0.198163,0.590303,-2.029456,99937.36,-85,-16,-122
121074,3.456,1.601,-0.171,0.292346,0.577000,-2.266244,99939.75,-85,-16,-122
121083,3.262,-1.727,-0.495,0.529135,0.569018,-2.513143,99940.02,-89,-11,-118
121094,3.425,-3.814,0.209,0.891502,0.613715,-2.839859,99937.70,-96,-9,-118
121104,4.126,-3.474,0.384,1.258657,0.628614,-3.276189,99938.55,-98,-13,-115
121114,5.217,-1.709,0.079,1.455006,0.653624,-3.706666,99938.55,-98,-13,-115
121123,6.313,-0.229,0.165,1.484272,0.720669,-4.004647,99937.58,-104,-8,-110
121134,6.914,-0.326,0.479,1.543868,0.756853,-4.186628,99935.48,-112,-3,-109
121144,6.803,-0.729,1.324,1.690198,0.803146,-4.403729,99936.84,-119,-4,-103
121154,6.912,-1.015,2.125,1.625281,0.857954,-4.680426,99938.20,-119,-4,-103
121163,7.765,-2.015,2.114,1.545997,0.903183,-4.920940,99938.20,-125,+5,-96
121174,8.815,-3.187,2.132,1.538015,1.004284,-5.112499,99936.47,-134,+15,-94
121184,9.629,-4.333,1.944,1.484804,1.110706,-5.285967,99936.09,-140,+23,-86
121189,10.184,-5.061,1.496,1.397538,1.171899,-5.420591,99936.73,-140,+23,-86
121199,10.790,-5.289,1.190,1.247483,1.230431,-5.557343,99936.73,-143,+40,-77
121209,11.614,-4.986,1.260,1.005373,1.308651,-5.726554,99931.28,-144,+56,-74
121219,12.469,-4.604,1.688,0.777630,1.348559,-5.897893,99931.28,-144,+56,-74
121229,13.216,-4.488,2.041,0.582346,1.368247,-6.094774,99934.32,-144,+69,-66
121239,14.238,-4.810,2.323,0.353539,1.412944,-6.268242,99933.40,-140,+89,-58
121249,15.549,-5.386,2.371,0.113025,1.482651,-6.387967,99937.41,-138,+105,-55
121259,16.851,-6.334,2.195,-0.079599,1.553421,-6.425214,99937.41,-138,+105,-55
121269,17.844,-7.551,1.977,-0.140259,1.610889,-6.385306,99937.41,-135,+119,-46
121279,18.669,-8.931,1.781,-0.065232,1.643880,-6.224077,99937.75,-127,+137,-41
121289,18.927,-10.618,1.542,0.031080,1.629513,-5.943123,99938.22,-122,+152,-38
121298,18.535,-12.518,1.327,0.125796,1.565128,-5.540848,99938.64,-122,+152,-38
121309,17.998,-14.382,1.022,0.225832,1.472008,-5.055563,99938.27,-117,+164,-32
121319,17.319,-15.676,0.355,0.296071,1.376229,-4.516004,99938.27,-108,+177,-28
121329,15.933,-17.893,-0.023,0.405685,1.182541,-3.935473,99939.64,-101,+187,-28
121339,12.531,-20.827,-0.842,0.734529,0.934045,-3.318758,99943.94,-101,+187,-28
121349,9.523,-21.944,-0.887,0.847869,0.790376,-2.607859,99942.28,-98,+193,-25
121359,7.465,-20.785,-0.577,0.506786,0.667991,-1.568116,99942.28,-91,+200,-24
121369,7.619,-18.375,-0.454,0.039062,0.480688,-0.287860,99946.33,-92,+201,-25
121379,9.264,-15.963,-0.928,-0.046608,0.173129,0.946102,99939.89,-92,+201,-25
121389,10.312,-15.617,-0.847,0.306181,-0.148798,1.925716,99939.89,-96,+199,-23
121399,10.937,-15.816,0.684,0.774437,-0.447311,2.657367,99939.73,-98,+195,-24
121409,12.526,-11.700,-0.657,1.206511,-0.675054,3.012284,99937.53,-103,+187,-29
121418,14.018,-5.513,0.999,0.764859,-0.880449,3.251734,99937.53,-103,+187,-29
121424,17.761,9.977,6.754,1.456070,-0.913972,3.250669,99941.21,-110,+181,-30
121434,24.337,34.564,2.730,2.216987,-0.756999,1.760762,99937.96,-110,+176,-34
121444,20.876,17.560,-1.324,0.563722,-0.744761,1.128084,99943.26,-110,+176,-34
121454,13.570,-15.361,0.706,0.523282,-0.917696,3.122431,99940.16,-113,+174,-38
121463,9.804,-15.840,3.401,3.833537,-1.190669,3.925917,99940.16,-119,+161,-42
121474,6.732,-7.623,0.186,3.414766,-0.957605,3.004303,99944.09,-120,+152,-48
121484,9.198,-8.073,-0.273,1.414565,-0.237128,2.529661,99943.14,-120,+152,-48
121494,9.605,-7.552,2.917,0.782419,-0.095587,2.492413,99943.41,-124,+146,-51
121504,9.534,-7.208,4.764,0.741979,-0.038651,2.250835,99942.52,-129,+139,-49
121513,11.521,-5.680,2.110,0.247117,0.050743,2.092799,99942.52,-129,+135,-49
121524,10.283,-3.530,0.708,-0.350443,-0.027477,1.990634,99944.37,-129,+135,-49
121534,8.340,-4.489,2.327,-0.618094,0.002853,1.873569,99944.48,-133,+131,-50
121544,8.612,-4.926,2.559,-0.547323,0.037973,1.774065,99943.74,-135,+126,-46
121553,9.748,-3.426,2.654,-0.688864,0.151844,1.638377,99939.49,-136,+125,-46
121564,9.805,-3.177,2.826,-1.057616,0.166743,1.556964,99939.49,-136,+125,-46
121574,9.466,-2.892,2.303,-1.056020,0.100230,1.476616,99941.67,-138,+121,-46
121584,9.115,-1.578,2.157,-0.771874,0.091184,1.378708,99940.14,-141,+118,-43
121594,9.207,-1.932,2.325,-0.500498,0.062450,1.304744,99940.78,-140,+116,-45
121604,9.548,-2.854,2.363,-0.303085,-0.006725,1.241955,99940.72,-140,+116,-45
121614,9.690,-3.582,2.585,-0.314791,-0.017367,1.144579,99940.72,-143,+113,-45
121624,9.520,-4.108,2.882,-0.454204,0.005514,1.018469,99942.84,-143,+110,-42
121634,9.302,-3.675,3.140,-0.682479,0.008707,0.878524,99941.26,-143,+110,-42
121644,9.028,-2.657,3.159,-0.813378,0.021477,0.755607,99941.15,-143,+110,-42
121654,9.253,-2.079,2.905,-0.768149,0.021477,0.694946,99940.57,-145,+107,-43
121660,9.504,-1.796,2.693,-0.617030,0.004450,0.668873,99940.57,-146,+106,-40
121669,9.449,-2.254,2.601,-0.463250,-0.013110,0.659295,99940.57,-146,+106,-40
121679,9.283,-2.988,2.125,-0.366406,-0.024816,0.641203,99942.47,-145,+106,-41
121690,9.264,-3.082,1.981,-0.397268,-0.007789,0.597570,99942.42,-147,+104,-42
121699,9.389,-2.817,2.348,-0.471232,0.019881,0.559791,99942.27,-147,+102,-39
121709,9.365,-2.477,2.602,-0.537745,0.038505,0.552873,99940.63,-147,+102,-39
121719,9.279,-2.280,2.817,-0.538277,0.042230,0.564580,99941.73,-147,+104,-40
121730,9.270,-2.175,2.975,-0.495709,0.037973,0.584800,99941.05,-148,+100,-41
121739,9.135,-2.503,3.020,-0.471232,0.037441,0.607148,99941.05,-149,+99,-38
121749,9.037,-2.950,2.861,-0.480810,0.044890,0.615662,99941.68,-149,+99,-38
121759,9.065,-3.110,2.681,-0.516993,0.060853,0.609277,99942.84,-148,+99,-39
121768,9.107,-2.994,2.669,-0.549984,0.070431,0.607148,99942.84,-150,+98,-39
121780,9.071,-2.921,2.754,-0.570559,0.060853,0.621693,99941.87,-150,+96,-35
121789,9.164,-2.594,2.795,-0.569140,0.060853,0.651846,99941.87,-150,+96,-35
121799,9.136,-2.112,2.758,-0.544663,0.069899,0.704524,99941.84,-150,+96,-37
121809,9.022,-2.323,2.545,-0.487727,0.057129,0.779020,99941.26,-152,+93,-38
121819,9.030,-2.564,2.298,-0.394076,0.037441,0.856708,99941.26,-151,+91,-35
121829,9.085,-2.678,2.156,-0.358424,0.031055,0.925350,99941.73,-151,+91,-35
121839,9.091,-2.831,2.231,-0.382369,0.019349,0.997717,99941.09,-152,+90,-37
121849,9.259,-2.516,2.474,-0.406314,0.000193,1.076469,99941.82,-153,+87,-36
121859,9.462,-2.276,2.869,-0.398865,-0.032266,1.168524,99941.82,-153,+83,-33
121869,9.682,-2.388,3.123,-0.371195,-0.080688,1.288781,99941.82,-153,+83,-33
121879,9.990,-2.598,3.207,-0.328094,-0.133367,1.405845,99945.05,-153,+83,-35
121889,10.277,-2.911,3.075,-0.288718,-0.188174,1.515460,99943.11,-155,+77,-37
121894,10.413,-3.234,2.870,-0.278608,-0.254156,1.585166,99938.08,-155,+77,-37
121904,10.600,-3.357,2.855,-0.270094,-0.330779,1.643698,99939.55,-155,+72,-33
121914,11.044,-3.325,2.620,-0.279140,-0.417513,1.730432,99939.55,-155,+70,-37
121924,11.516,-3.227,2.443,-0.290314,-0.478706,1.846432,99940.73,-156,+62,-38
121934,12.002,-3.108,1.968,-0.274883,-0.518082,1.979459,99941.66,-156,+62,-38
121944,12.500,-3.114,1.683,-0.230186,-0.563311,2.124725,99940.30,-155,+58,-37
121954,13.039,-3.414,1.833,-0.171122,-0.638339,2.276376,99939.68,-154,+55,-41
121964,13.562,-3.771,2.562,-0.162076,-0.711770,2.419514,99939.68,-155,+46,-43
121974,14.059,-4.059,3.480,-0.240296,-0.759128,2.546156,99940.17,-155,+46,-43
121985,14.504,-4.281,3.860,-0.440369,-0.783073,2.671202,99942.89,-155,+40,-42
121994,15.568,-4.199,3.694,-0.701635,-0.796375,2.771239,99939.91,-152,+34,-46
122004,17.420,-3.732,3.423,-0.975672,-0.819256,2.860633,99939.75,-152,+26,-49
122014,20.997,-3.367,4.166,-1.224344,-0.889495,2.959073,99939.75,-152,+26,-49
122024,23.881,-1.519,5.451,-1.404020,-0.915036,3.046871,99939.63,-150,+20,-48
122034,23.908,-0.071,5.772,-1.724882,-0.748486,3.143715,99937.38,-147,+16,-54
122044,23.857,-0.346,5.192,-2.136203,-0.550541,3.169789,99937.06,-146,+9,-56
122054,23.207,1.082,5.165,-2.602331,-0.399422,3.182559,99939.00,-146,+9,-56
122064,19.171,5.520,4.387,-3.071652,-0.305770,3.155422,99939.00,-143,+5,-56
122075,14.498,5.795,2.906,-3.111560,-0.379201,3.117642,99939.21,-141,+4,-61
122084,11.487,2.391,3.133,-2.183028,-0.585128,3.046871,99937.96,-137,-1,-63
122094,10.643,-3.470,1.946,-1.029415,-0.813403,2.901073,99939.63,-137,-1,-63
122104,10.176,-9.474,1.988,-0.934699,-1.087440,2.829239,99939.37,-134,-7,-63
122114,9.852,-12.702,5.862,-0.868718,-1.062430,2.969716,99939.37,-129,-9,-70
122124,10.322,-9.318,7.569,0.047575,-0.894816,2.663752,99938.92,-126,-18,-71
122134,8.089,-3.227,7.525,0.524346,-0.712834,1.946469,99941.44,-126,-18,-71
122144,5.568,2.838,6.584,0.598309,-0.359513,1.246744,99939.70,-122,-21,-71
122155,4.884,6.237,4.805,0.368438,-0.063660,0.625772,99936.77,-122,-22,-74
122164,5.064,6.663,2.855,0.089080,0.009771,0.121332,99936.77,-119,-25,-74
122174,5.038,3.800,1.803,-0.172718,-0.065789,-0.275622,99940.30,-119,-25,-74
122184,4.746,1.394,2.249,-0.229122,-0.001936,-0.536356,99938.11,-119,-21,-71
122194,4.616,1.403,1.995,-0.093966,0.027863,-1.000887,99936.80,-119,-18,-75
122204,4.210,1.426,1.980,0.037465,0.088523,-1.536722,99935.80,-119,-16,-75
122214,4.428,0.453,2.316,0.153465,0.177385,-1.958153,99935.80,-119,-16,-75
122224,4.925,-0.342,1.855,0.379080,0.174193,-2.383841,99938.07,-120,-9,-72
122234,5.277,-0.513,1.144,0.661630,0.156633,-2.818042,99938.90,-120,-3,-74
122245,5.721,-0.261,0.759,0.906401,0.168872,-3.210207,99937.65,-121,+0,-72
122250,6.101,0.105,0.725,1.041024,0.197074,-3.474134,99933.93,-121,+0,-72
122259,6.501,0.101,0.845,1.102749,0.230596,-3.700812,99933.93,-122,+8,-69
122269,6.702,-0.546,1.329,1.215024,0.284339,-3.963675,99933.93,-122,+15,-71
122279,6.886,-1.440,2.190,1.351244,0.349257,-4.205784,99937.05,-122,+15,-71
122290,7.046,-2.364,2.809,1.523116,0.395550,-4.456408,99934.27,-122,+21,-68
122299,7.492,-2.752,3.098,1.742877,0.472706,-4.694261,99934.30,-122,+32,-65
122309,8.469,-2.781,3.073,1.923262,0.564761,-4.906041,99934.30,-121,+39,-66
122319,9.581,-2.837,2.813,2.118015,0.619569,-5.093343,99936.84,-121,+39,-66
122330,10.507,-2.879,2.461,2.272859,0.661073,-5.272132,99936.84,-120,+46,-62
122339,11.361,-3.141,2.624,2.302657,0.712688,-5.415270,99933.55,-119,+56,-60
122349,12.281,-3.765,2.905,2.065336,0.765367,-5.541380,99930.88,-116,+64,-61
122359,13.353,-4.848,2.704,1.505556,0.834009,-5.697820,99932.70,-116,+64,-61
122370,14.322,-6.283,2.073,0.896823,0.925532,-5.882462,99932.70,-115,+72,-58
122380,14.865,-7.125,1.874,0.345557,1.124009,-6.044755,99935.51,-112,+86,-57
122389,15.509,-6.906,1.993,-0.079599,1.360798,-6.162352,99933.37,-108,+96,-58
122399,16.327,-6.965,2.207,-0.337140,1.575770,-6.199600,99934.46,-108,+96,-58
122409,16.751,-8.108,2.090,-0.420149,1.705073,-6.133086,99935.20,-107,+107,-54
122420,17.059,-9.731,1.591,-0.318516,1.746577,-5.951636,99939.92,-103,+119,-51
122429,16.968,-11.163,0.625,-0.154626,1.709329,-5.676003,99941.19,-101,+129,-53
122439,16.611,-12.991,0.339,0.175814,1.585348,-5.239674,99939.14,-101,+129,-53
122449,16.730,-15.444,0.221,0.631832,1.417733,-4.745876,99939.14,-99,+138,-48
122460,16.320,-17.324,0.324,0.921300,1.237880,-4.223876,99938.52,-95,+147,-49
122469,15.344,-18.588,-0.213,1.172456,0.922871,-3.646537,99938.52,-94,+152,-53
122479,12.678,-20.669,-0.675,1.602400,0.608926,-2.997363,99939.29,-93,+157,-53
122489,9.840,-22.405,-0.498,1.784382,0.433862,-2.274758,99938.76,-93,+157,-53
122500,7.738,-22.544,-0.198,1.358694,0.357771,-1.398905,99940.76,-91,+160,-55
122510,7.180,-22.096,0.445,0.511043,0.308817,-0.356502,99939.60,-92,+160,-58
122519,7.435,-20.491,0.920,-0.184956,0.241771,0.622580,99939.60,-95,+158,-56
122529,7.850,-18.994,2.474,-0.657470,0.149184,1.432451,99943.23,-95,+158,-56
122540,9.708,-15.958,2.761,-0.741011,-0.003532,2.012450,99939.19,-96,+156,-53
122550,10.971,-14.587,-0.074,-1.129451,-0.241917,2.598835,99936.05,-101,+152,-55
122559,17.999,1.049,1.323,-0.717066,-0.671330,3.119238,99936.05,-105,+145,-54
122569,29.689,40.001,-2.167,0.584474,-0.899605,1.503753,99936.05,-105,+145,-54
122579,22.744,19.070,-1.523,0.092273,-1.080522,1.269625,99942.40,-103,+144,-56
122590,12.408,-17.175,2.709,1.470969,-0.986339,3.169789,99942.04,-108,+137,-62
122599,9.894,-16.168,2.755,4.749829,-1.080522,4.108431,99939.99,-113,+121,-67
122609,7.728,-8.773,-0.952,3.871316,-0.796908,3.424137,99939.68,-113,+121,-67
122619,7.970,-10.200,1.587,1.781721,0.002321,2.746229,99939.68,-113,+114,-70
122630,7.856,-7.321,4.902,1.476822,0.198138,2.749954,99943.41,-117,+104,-73
122640,7.939,-5.361,5.552,1.255997,0.060853,2.350872,99940.90,-119,+97,-70
122649,9.941,-4.612,2.096,0.771777,0.019349,2.081624,99941.73,-119,+97,-70
122659,11.016,-5.763,1.604,-0.189213,-0.029073,2.034799,99941.73,-119,+93,-70
122670,9.896,-7.258,1.738,-0.804332,-0.071642,1.897514,99942.89,-122,+87,-73
122680,9.033,-5.097,1.321,-1.202350,0.063514,1.680414,99942.89,-124,+87,-69
122689,9.366,-2.646,1.194,-1.539708,0.273165,1.547918,99941.58,-124,+87,-69
122699,9.314,-2.400,1.439,-1.473726,0.309881,1.469166,99940.58,-124,+86,-69
122710,9.314,-1.220,1.540,-0.991635,0.284872,1.384029,99941.47,-126,+82,-70
122720,9.663,-0.414,2.587,-0.505819,0.251881,1.369662,99941.47,-127,+81,-66
122730,9.745,-1.828,3.293,-0.093434,0.108211,1.374983,99943.82,-127,+81,-66
122739,9.528,-3.087,2.971,0.182199,-0.016835,1.305808,99940.15,-127,+78,-66
122749,9.191,-4.338,3.060,0.160383,-0.041312,1.195662,99941.93,-129,+73,-69
122760,8.946,-5.430,3.519,-0.178039,-0.003532,1.038689,99940.77,-129,+71,-66
122770,8.821,-5.007,3.213,-0.753250,0.056597,0.819460,99940.66,-129,+71,-66
122779,8.995,-3.361,2.801,-1.174681,0.115129,0.638543,99941.18,-128,+72,-66
122789,9.535,-1.964,2.402,-1.226827,0.126303,0.570433,99938.66,-129,+71,-68
122800,9.900,-1.092,2.168,-1.001745,0.056597,0.578947,99938.66,-129,+71,-64
122810,10.077,-1.132,2.254,-0.639910,-0.107825,0.614066,99940.87,-129,+71,-64
122819,9.590,-2.195,2.348,-0.274351,-0.298321,0.618323,99940.87,-129,+71,-66
122829,9.061,-3.418,2.517,-0.097690,-0.293000,0.601295,99943.54,-130,+68,-68
122840,8.807,-4.132,2.684,-0.262999,-0.203428,0.566353,99940.68,-129,+67,-66
122850,8.784,-3.620,2.563,-0.476553,-0.128578,0.518818,99940.68,-129,+67,-66
122860,9.004,-2.680,2.460,-0.604791,-0.094523,0.495937,99939.24,-129,+69,-67
122869,9.246,-2.212,2.591,-0.524975,-0.117935,0.497002,99939.24,-131,+66,-69
122880,9.268,-2.162,2.350,-0.346718,-0.161568,0.520947,99942.27,-129,+66,-66
122890,9.135,-2.790,1.981,-0.244021,-0.177532,0.577882,99939.23,-129,+66,-66
122900,9.113,-3.237,1.603,-0.153030,-0.184981,0.588524,99939.96,-129,+65,-68
122909,9.192,-3.268,1.811,-0.102479,-0.160504,0.579479,99939.96,-131,+63,-70
122919,9.326,-3.396,1.989,-0.134406,-0.122192,0.599699,99939.96,-129,+61,-66
122930,9.398,-3.503,2.147,-0.203048,-0.081220,0.607148,99941.95,-129,+61,-66
122940,9.208,-3.183,1.901,-0.314791,-0.026413,0.634818,99941.10,-129,+62,-69
122949,9.026,-2.581,1.576,-0.364810,0.022541,0.689093,99937.34,-131,+60,-71
122959,9.040,-1.865,1.452,-0.311599,0.037441,0.776359,99940.37,-129,+58,-67
122970,9.317,-1.574,1.663,-0.148241,0.017753,0.893955,99940.37,-129,+58,-69
122980,9.578,-1.629,2.246,0.075245,-0.030137,1.022726,99941.52,-129,+58,-69
122990,10.118,-2.605,2.753,0.207741,-0.076963,1.144047,99940.37,-130,+54,-70
122999,10.406,-3.831,2.929,0.173153,-0.079624,1.222267,99939.40,-130,+50,-67
123010,10.188,-3.703,2.988,-0.028516,-0.055147,1.278139,99939.40,-130,+48,-69
123020,10.246,-2.496,2.982,-0.217415,-0.056743,1.369662,99940.40,-130,+48,-69
123030,10.637,-1.453,2.834,-0.231250,-0.117935,1.519184,99943.12,-131,+43,-69
123039,10.944,-1.080,2.596,-0.085984,-0.215844,1.727239,99943.12,-130,+40,-68
123049,11.442,-1.828,2.347,0.072585,-0.311091,1.941147,99942.02,-130,+36,-71
123060,12.294,-3.020,2.040,0.103979,-0.370688,2.113019,99936.84,-130,+36,-71
123069,12.902,-3.482,2.267,0.077374,-0.455293,2.239129,99936.84,-129,+29,-72
123079,13.355,-3.493,2.229,0.039594,-0.536706,2.363642,99939.66,-129,+25,-71
123089,13.611,-3.886,2.363,0.017245,-0.578743,2.480175,99942.07,-127,+19,-75
123100,13.714,-3.991,2.514,-0.085984,-0.589917,2.586064,99938.77,-127,+19,-75
123110,14.037,-3.840,2.759,-0.254131,-0.584596,2.687697,99938.77,-126,+11,-76
123120,15.095,-3.536,3.020,-0.440369,-0.582999,2.794652,99941.52,-124,+7,-76
123129,17.076,-3.014,3.463,-0.627140,-0.602155,2.903734,99940.32,-122,+1,-80
123140,19.666,-2.201,5.042,-0.740479,-0.649513,3.026119,99938.96,-122,+1,-80
123150,21.077,-1.146,5.930,-0.867653,-0.613330,3.177770,99938.96,-120,-5,-83
123159,22.077,-1.047,5.742,-1.157653,-0.506908,3.277807,99936.70,-117,-9,-83
123169,23.446,0.453,5.147,-1.662625,-0.357385,3.315587,99936.70,-115,-13,-90
123180,23.134,1.262,4.060,-2.270294,-0.197752,3.414027,99941.70,-115,-13,-90
123190,21.712,2.425,2.587,-2.769413,-0.080688,3.484266,99940.54,-112,-18,-93
123200,19.442,1.654,1.495,-3.121138,-0.046633,3.395403,99938.29,-110,-18,-94
123209,15.802,-2.771,2.854,-3.210532,-0.374412,3.327293,99940.43,-107,-19,-102
123219,13.267,-6.106,5.585,-2.720991,-0.640999,3.317183,99940.43,-107,-19,-102
123230,13.224,-5.845,5.799,-2.114386,-0.553201,3.203312,99940.02,-103,-21,-106
123240,13.359,-5.685,5.354,-1.969653,-0.430284,3.195862,99940.38,-100,-22,-109
123250,11.124,-7.403,5.816,-1.430093,-0.379201,3.190009,99939.33,-98,-24,-116
123259,8.607,-5.539,6.032,-0.602663,-0.159972,2.851055,99939.33,-98,-24,-116
123270,6.018,-1.122,5.117,-0.431855,0.103954,2.068854,99939.33,-95,-30,-118
123280,5.375,3.099,2.936,-0.761231,0.398743,1.186616,99936.63,-94,-29,-118
123289,5.504,3.115,1.801,-1.243323,0.519532,0.589589,99938.88,-95,-26,-123
123299,5.206,2.494,2.461,-1.471598,0.719605,0.275644,99937.94,-95,-26,-123
123311,4.625,2.698,1.887,-1.381494,0.712510,-0.294600,99938.45,-97,-24,-124
123320,3.789,3.995,1.205,-1.036864,0.750468,-0.880631,99938.45,-99,-18,-124
123330,3.421,4.231,0.900,-0.822956,0.882963,-1.290355,99941.79,-101,-12,-127
123340,3.216,2.933,0.021,-0.584571,0.843055,-1.572373,99937.76,-101,-12,-127
123350,2.762,0.562,-0.177,-0.097690,0.797825,-1.856520,99941.63,-105,-7,-129
123360,2.334,-1.074,0.147,0.617997,0.773348,-2.194942,99937.12,-107,-2,-127
123370,2.638,-1.069,0.347,1.255465,0.764835,-2.639253,99937.34,-111,+1,-131
123380,3.725,-0.249,0.617,1.629006,0.782926,-3.086758,99935.91,-111,+1,-131
123389,4.649,0.164,0.901,1.838125,0.803146,-3.461363,99935.91,-114,+3,-128
123400,4.387,0.441,1.259,2.072253,0.795165,-3.805638,99935.60,-117,+9,-127
123410,4.267,0.371,1.770,2.341501,0.800486,-4.107876,99931.66,-120,+14,-130
123419,5.213,-0.272,2.466,2.535721,0.841990,-4.357436,99931.66,-124,+14,-127
123429,6.093,-1.464,3.002,2.595849,0.884027,-4.612316,99936.19,-124,+17,-127
123440,6.798,-2.962,3.225,2.497409,0.940431,-4.852298,99931.78,-127,+25,-126
123450,7.633,-3.961,3.165,2.237739,0.991513,-5.100261,99933.47,-130,+32,-130
123460,8.535,-4.457,2.770,1.881758,1.061752,-5.376426,99931.00,-133,+40,-127
123470,9.617,-4.353,2.196,1.518859,1.174559,-5.642481,99935.36,-133,+40,-127
123480,10.751,-4.124,2.091,1.170327,1.311311,-5.863306,99935.63,-134,+54,-126
123490,11.901,-4.319,2.334,0.875006,1.394320,-6.054866,99934.20,-136,+67,-129
123500,12.848,-4.612,2.588,0.602034,1.402834,-6.274627,99931.22,-136,+81,-127
123509,13.541,-4.854,2.763,0.234878,1.465091,-6.506095,99931.22,-136,+81,-127
123520,14.607,-5.259,2.854,-0.196131,1.625788,-6.669453,99931.22,-133,+100,-124
123530,16.096,-5.639,2.839,-0.551580,1.822137,-6.767361,99933.52,-131,+119,-126
123540,18.035,-5.844,2.508,-0.741011,1.999329,-6.796627,99935.52,-129,+135,-120
123545,19.825,-6.227,2.380,-0.766020,2.106283,-6.758315,99935.25,-129,+135,-120
123554,21.514,-7.469,2.271,-0.657470,2.190889,-6.646039,99935.30,-122,+153,-115
123565,22.381,-9.713,1.771,-0.485066,2.210045,-6.439581,99935.30,-122,+153,-115
123575,21.636,-11.880,0.779,-0.355764,2.148320,-6.121912,99939.39,-119,+168,-113
123585,20.024,-13.955,-0.025,-0.306810,2.016889,-5.599912,99938.97,-115,+183,-106
123594,19.110,-16.100,-0.473,-0.180167,1.866302,-4.962976,99939.91,-108,+195,-101
123604,16.617,-20.685,-1.359,0.173686,1.596522,-4.299436,99940.13,-108,+195,-101
123615,11.273,-25.503,-1.814,0.490291,1.342706,-3.583748,99940.13,-103,+204,-100
123625,6.651,-26.899,-2.251,0.406750,1.219788,-2.558373,99942.28,-99,+211,-95
123635,6.332,-23.920,-2.579,0.037998,0.991513,-1.105713,99940.30,-97,+214,-93
123644,9.257,-17.728,-2.766,-0.324369,0.571147,0.559791,99941.13,-100,+214,-93
123655,11.655,-14.271,-2.652,-0.020535,0.124707,1.992762,99942.08,-100,+213,-92
123665,12.787,-12.735,-0.093,0.985330,-0.299917,2.964394,99942.08,-106,+208,-90
123675,13.666,-9.929,-2.375,1.795024,-0.622376,3.252266,99941.70,-111,+198,-94
123684,15.926,-2.326,-1.339,1.518327,-1.066155,3.394871,99943.37,-116,+189,-101
123695,26.815,34.715,0.522,2.898620,-1.203972,2.742505,99938.60,-116,+189,-101
123705,27.202,30.833,-3.210,1.894528,-1.130008,1.137130,99941.59,-117,+181,-104
123715,14.643,-17.497,-2.318,1.254400,-1.247072,3.079330,99941.59,-119,+172,-109
123725,11.664,-24.040,4.129,4.714710,-1.316779,4.520284,99943.68,-122,+152,-121
123735,9.300,-11.448,-1.825,4.398637,-1.099146,3.784376,99940.54,-122,+152,-121
123745,9.557,-7.913,-1.072,1.433189,-0.280229,2.812743,99942.01,-126,+141,-121
123755,7.616,-4.143,3.777,0.913318,-0.141880,2.902138,99937.40,-128,+132,-122
123764,4.309,-4.649,8.171,1.078272,-0.284486,2.501459,99937.40,-131,+124,-126
123774,8.322,-5.947,5.272,0.987281,-0.122192,2.257221,99944.07,-131,+124,-126
123785,12.292,-5.683,1.329,0.100254,-0.236596,2.186982,99943.18,-133,+118,-123
123795,10.374,-6.625,0.967,-0.638314,-0.336633,1.961900,99939.24,-133,+114,-124
123805,9.603,-5.837,1.902,-1.095396,-0.205201,1.820359,99939.82,-135,+113,-126
123814,9.148,-3.845,2.413,-1.419451,-0.046101,1.649551,99939.82,-135,+113,-126
123825,8.638,-2.422,1.885,-1.750423,0.053936,1.494175,99940.91,-137,+113,-120
123835,8.838,-2.146,1.313,-1.435946,0.091716,1.395735,99942.18,-136,+112,-121
123845,9.750,-0.873,1.835,-0.599470,0.083202,1.306873,99940.87,-140,+110,-122
123854,10.055,-0.636,2.177,0.084823,0.012431,1.273882,99940.55,-140,+110,-122
123865,9.805,-2.253,2.388,0.390786,-0.032798,1.285588,99940.55,-141,+107,-118
123875,9.301,-3.941,2.269,0.323740,-0.013642,1.227056,99942.56,-140,+103,-120
123885,8.986,-4.647,2.806,0.029484,0.055000,1.100414,99943.67,-142,+100,-122
123895,8.824,-4.349,3.597,-0.350975,0.104486,0.935992,99941.47,-142,+100,-122
123900,8.838,-3.426,3.759,-0.613837,0.113000,0.826378,99940.69,-144,+98,-118
123910,8.991,-2.407,3.342,-0.773470,0.104486,0.749222,99940.69,-143,+99,-118
123920,9.332,-1.927,2.660,-0.774002,0.086395,0.699203,99940.69,-143,+99,-118
123930,9.639,-2.276,2.152,-0.571268,0.047019,0.690690,99939.95,-145,+98,-120
123940,9.638,-2.503,1.991,-0.357892,0.010835,0.679515,99940.84,-145,+98,-115
123950,9.575,-2.431,2.340,-0.282333,0.000725,0.673130,99940.19,-144,+96,-118
123960,9.371,-2.732,2.972,-0.317452,0.003386,0.660359,99940.19,-144,+96,-118
123970,9.103,-2.699,3.593,-0.405250,-0.012578,0.634818,99940.91,-145,+95,-119
123980,8.959,-2.513,3.876,-0.524975,-0.023220,0.614598,99940.91,-147,+94,-115
123990,9.012,-2.504,3.762,-0.618094,-0.035458,0.601827,99940.13,-145,+94,-118
124000,9.149,-2.513,3.358,-0.655874,-0.045036,0.594910,99942.00,-145,+94,-118
124010,9.325,-2.523,2.882,-0.676094,-0.038119,0.598635,99943.47,-147,+94,-118
124020,9.420,-2.715,2.481,-0.685672,-0.033330,0.610341,99943.47,-147,+94,-114
124030,9.447,-2.722,2.186,-0.662259,-0.034926,0.623644,99943.18,-146,+94,-116
124040,9.399,-2.642,2.240,-0.647360,-0.021624,0.653442,99939.30,-146,+94,-116
124050,9.288,-2.648,2.521,-0.687800,-0.001936,0.689625,99938.48,-147,+94,-115
124060,9.287,-2.466,2.815,-0.740479,0.015092,0.733790,99940.17,-149,+93,-113
124070,9.323,-2.258,2.867,-0.747396,0.021477,0.796579,99942.64,-148,+93,-115
124080,9.168,-2.310,2.738,-0.697378,0.006046,0.878524,99941.28,-148,+93,-115
124090,9.099,-2.294,2.465,-0.606920,-0.009385,0.968983,99938.97,-150,+92,-114
124100,9.206,-2.247,2.305,-0.506883,-0.025348,1.071148,99938.97,-150,+90,-112
124110,9.413,-2.241,2.340,-0.378644,-0.051954,1.177038,99939.86,-149,+89,-114
124120,9.646,-2.686,2.455,-0.237103,-0.106229,1.273350,99939.86,-149,+89,-114
124130,9.749,-3.310,2.923,-0.139195,-0.164229,1.352634,99941.55,-151,+85,-114
124135,9.427,-3.795,2.959,-0.145580,-0.194559,1.399992,99941.03,-152,+81,-112
124145,9.561,-3.986,3.037,-0.219012,-0.239789,1.423405,99940.55,-152,+81,-112
124155,9.731,-3.507,3.210,-0.276479,-0.377073,1.438304,99937.56,-150,+79,-116
124165,9.847,-2.717,3.507,-0.211030,-0.463275,1.501625,99937.56,-151,+75,-116
124175,10.467,-2.855,3.233,-0.128021,-0.511165,1.621882,99941.09,-151,+71,-114
124185,11.259,-3.111,2.547,-0.071085,-0.536706,1.747460,99942.34,-151,+71,-114
124195,12.007,-3.195,1.801,-0.089709,-0.547348,1.876762,99941.94,-149,+67,-118
124205,12.962,-3.075,1.317,-0.089177,-0.571825,2.019900,99940.67,-150,+61,-119
124215,13.631,-2.905,1.491,-0.047672,-0.623440,2.184322,99940.67,-149,+57,-118
124225,13.982,-2.962,2.007,-0.017874,-0.686761,2.370560,99941.37,-149,+57,-118
124235,14.083,-3.105,2.583,-0.040223,-0.724009,2.557863,99942.99,-147,+52,-123
124246,14.577,-3.376,2.929,-0.150901,-0.737311,2.732394,99940.59,-146,+44,-124
124255,15.745,-3.387,3.154,-0.302553,-0.743164,2.884046,99939.21,-143,+38,-124
124265,17.780,-3.402,3.699,-0.506351,-0.774559,3.018137,99939.21,-143,+38,-124
124275,20.856,-3.059,5.680,-0.696314,-0.850651,3.133605,99941.87,-140,+33,-130
124285,23.008,-1.330,7.041,-0.979396,-0.783605,3.279403,99941.65,-138,+26,-131
124295,24.222,-0.494,7.217,-1.465213,-0.637807,3.396467,99937.99,-135,+23,-131
124305,25.377,1.031,6.826,-2.028717,-0.486155,3.487990,99938.30,-135,+23,-131
124315,24.967,0.911,5.716,-2.606588,-0.331311,3.646027,99938.30,-131,+23,-135
124325,23.573,1.328,3.865,-3.106771,-0.237128,3.663587,99941.16,-127,+22,-136
124335,19.693,-0.377,2.548,-3.563853,-0.301513,3.532688,99941.16,-125,+25,-135
124345,14.007,-3.194,4.139,-3.464881,-0.619183,3.484798,99936.77,-125,+25,-135
124355,11.083,-2.187,6.969,-2.665120,-0.555862,3.326229,99938.18,-119,+29,-142
124365,11.728,-0.982,7.174,-1.464680,-0.399422,3.055385,99938.18,-117,+26,-142
124370,10.258,-3.361,5.552,-0.970351,-0.421238,2.934596,99940.45,-117,+26,-142
124380,8.663,-6.303,5.787,-0.666516,-0.355256,2.891495,99940.45,-112,+26,-140
124390,7.913,-6.090,5.603,-0.097158,-0.174339,2.543496,99937.58,-108,+25,-145
124400,6.036,-1.185,5.041,-0.038626,-0.014706,1.701698,99937.47,-105,+22,-143
124410,4.992,5.345,2.290,-0.480277,0.173129,0.583736,99938.16,-105,+22,-143
124421,4.263,5.994,0.772,-0.963965,0.272633,-0.221879,99941.46,-103,+28,-141
124430,3.945,3.746,2.363,-1.020901,0.483349,-0.493255,99940.15,-101,+36,-144
124440,3.522,3.731,2.044,-0.714938,0.448761,-1.046117,99941.20,-101,+40,-141
124450,2.558,4.698,1.670,-0.210498,0.497183,-1.708061,99941.20,-101,+40,-141
124461,2.502,4.444,1.483,0.124731,0.593495,-2.082134,99938.48,-99,+50,-139
124470,2.814,2.439,0.571,0.428034,0.566358,-2.323712,99938.48,-96,+58,-142
124480,3.052,-0.642,0.374,0.826584,0.555183,-2.559969,99937.70,-94,+62,-139
124490,3.649,-2.282,0.723,1.311868,0.564761,-2.887217,99936.29,-94,+62,-139
124500,4.487,-1.889,0.865,1.736492,0.562101,-3.329932,99935.18,-89,+68,-137
124511,5.362,-0.581,1.068,1.922198,0.606798,-3.750831,99933.82,-84,+75,-140
124520,5.846,0.189,1.065,1.956253,0.650963,-4.050941,99933.82,-80,+79,-137
124530,5.978,0.515,1.548,2.067464,0.710559,-4.288794,99935.92,-80,+79,-137
124540,6.560,-0.017,2.557,2.084492,0.780266,-4.534628,99933.63,-74,+84,-137
124551,7.228,-1.482,2.819,1.985519,0.807935,-4.810793,99933.16,-67,+88,-141
124560,7.981,-2.923,2.769,1.903042,0.879770,-5.068866,99933.16,-63,+90,-140
124570,8.885,-4.056,2.664,1.735960,0.992578,-5.313105,99933.16,-63,+90,-140
124580,9.791,-4.627,2.123,1.532694,1.086229,-5.557343,99935.48,-58,+92,-140
124591,10.774,-4.505,1.823,1.319318,1.183073,-5.785086,99937.62,-52,+96,-145
124600,12.065,-4.199,2.101,1.109134,1.255972,-5.956425,99935.26,-50,+99,-143
124610,13.306,-4.293,2.433,0.893630,1.270871,-6.121912,99936.93,-50,+99,-143
124620,13.947,-4.738,2.620,0.650456,1.331532,-6.316132,99936.93,-46,+104,-143
124631,14.822,-5.223,2.675,0.313098,1.462963,-6.477361,99936.46,-43,+109,-149
124641,16.031,-6.027,2.472,-0.011489,1.587476,-6.591764,99935.21,-43,+114,-147
124650,17.404,-6.784,2.207,-0.199323,1.736999,-6.641783,99935.95,-43,+114,-147
124660,19.095,-8.156,2.425,-0.258388,1.873219,-6.548131,99935.95,-42,+119,-148
124670,20.297,-10.135,2.372,-0.223268,1.918981,-6.328902,99939.45,-42,+122,-152
124681,20.140,-12.331,2.268,-0.186021,1.880669,-5.996334,99936.20,-47,+129,-147
124690,19.313,-14.113,2.122,-0.095562,1.787017,-5.536591,99936.20,-47,+129,-147
124700,18.013,-15.675,1.570,0.052897,1.669421,-4.991710,99940.65,-51,+133,-147
124710,16.256,-18.049,1.070,0.179007,1.507128,-4.412775,99939.60,-55,+140,-150
124720,13.010,-21.211,0.310,0.362584,1.325678,-3.800849,99939.60,-60,+146,-144
124730,9.872,-23.117,-0.191,0.357263,1.231495,-3.085161,99944.88,-60,+146,-144
124740,8.097,-22.687,-0.656,0.063007,1.102192,-2.086924,99943.30,-64,+151,-145
124750,8.159,-19.045,-1.164,-0.376516,0.886688,-0.863603,99941.58,-68,+155,-147
124761,10.005,-14.996,-1.312,-0.536149,0.528578,0.397497,99939.95,-75,+157,-142
124771,11.213,-12.948,-2.174,-0.038626,0.118321,1.427130,99944.04,-75,+157,-142
124780,10.959,-13.515,-1.342,0.544034,-0.220101,2.252432,99942.26,-79,+154,-143
124790,10.811,-14.912,-0.709,0.954823,-0.552669,2.891495,99942.10,-85,+147,-149
124801,13.395,-9.412,-2.094,1.464052,-0.713898,3.246413,99942.10,-91,+137,-147
124811,14.813,-2.641,-1.430,1.100621,-0.903862,3.285789,99942.30,-91,+137,-147
124820,22.135,22.819,2.384,2.166437,-0.943770,2.879789,99942.30,-94,+127,-150
124830,24.998,32.714,-1.376,1.809923,-0.834687,0.885974,99944.04,-95,+118,-160
124840,14.086,-5.801,-3.887,0.540486,-1.126106,2.208089,99942.37,-98,+116,-156
124850,10.391,-20.554,3.226,2.452712,-1.097017,3.641770,99942.37,-100,+100,-161
124860,8.700,-13.838,2.496,4.195371,-1.074137,3.552376,99939.32,-100,+100,-161
124870,11.279,-9.273,-1.713,1.909960,-0.493073,2.586596,99939.32,-102,+85,-168
124880,10.720,-8.720,0.266,0.134841,-0.008853,2.443459,99944.13,-105,+81,-162
124891,8.159,-5.308,4.771,0.308841,0.029459,2.323202,99941.46,-105,+75,-164
124901,8.672,-3.784,4.057,0.186988,0.058725,1.964028,99939.26,-105,+75,-164
124910,9.434,-2.310,2.503,-0.090241,0.022009,1.930505,99939.26,-108,+73,-167
124920,9.293,-3.467,3.609,-0.298296,-0.056211,1.873569,99939.26,-110,+69,-161
124931,9.387,-5.395,2.957,-0.308938,-0.146137,1.784175,99940.18,-110,+65,-165
124940,10.202,-4.417,2.262,-0.360553,-0.130706,1.704891,99941.70,-110,+65,-165
124950,9.821,-3.220,2.851,-0.686736,-0.056211,1.591551,99941.96,-110,+65,-166
124960,8.851,-2.938,2.595,-1.009194,-0.032798,1.467038,99938.13,-113,+65,-162
124971,8.599,-2.787,2.274,-1.098057,0.006046,1.360084,99938.13,-112,+64,-164
124981,9.057,-1.553,1.970,-0.907029,0.066707,1.254194,99940.01,-112,+64,-164
124991,9.617,-1.058,2.296,-0.565947,0.073624,1.216414,99941.26,-113,+63,-166
125000,9.854,-1.950,2.840,-0.150901,-0.038119,1.201515,99941.26,-115,+62,-161
125010,9.885,-2.909,2.721,-0.040755,-0.117935,1.157350,99940.27,-114,+59,-165
125021,9.318,-4.588,2.522,-0.183892,-0.109422,1.075937,99943.10,-114,+59,-165
125031,8.833,-4.542,2.981,-0.382901,-0.054082,0.901405,99943.51,-115,+59,-166
125040,8.779,-3.612,3.374,-0.618626,-0.029073,0.757203,99943.51,-116,+58,-161
125050,9.044,-2.926,3.286,-0.746864,-0.032798,0.656102,99940.27,-114,+58,-164
125061,9.365,-2.448,2.744,-0.736222,-0.034394,0.598635,99941.52,-114,+58,-164
125070,9.542,-2.070,2.413,-0.597342,-0.037587,0.583736,99941.52,-115,+60,-165
125080,9.453,-2.108,2.359,-0.390351,-0.062064,0.594378,99941.48,-115,+60,-161
125090,9.184,-2.774,2.542,-0.241360,-0.081752,0.605020,99940.12,-114,+59,-165
125101,9.058,-3.357,2.643,-0.261580,-0.079624,0.582671,99940.12,-114,+59,-165
125111,9.047,-3.392,2.868,-0.366406,-0.051422,0.541167,99938.71,-116,+59,-165
125121,9.098,-3.110,2.855,-0.438241,-0.038651,0.508708,99941.15,-117,+59,-161
125130,9.091,-2.805,2.891,-0.441965,-0.043972,0.485827,99941.77,-115,+58,-165
125140,9.127,-2.620,3.024,-0.471232,-0.045036,0.469332,99940.30,-115,+58,-165
125151,9.249,-2.832,2.826,-0.551580,-0.043440,0.463479,99939.37,-115,+60,-166
125160,9.276,-2.845,2.718,-0.592020,-0.024816,0.463479,99939.37,-117,+60,-161
125170,9.198,-2.669,2.614,-0.658534,-0.004064,0.482102,99939.37,-115,+61,-165
125180,9.137,-2.082,2.575,-0.695782,0.014560,0.526268,99944.16,-115,+61,-165
125191,9.046,-1.288,2.704,-0.645231,0.024670,0.603956,99943.84,-117,+62,-166
125196,8.907,-0.812,2.909,-0.538277,0.022541,0.690157,99940.59,-118,+61,-160
125205,8.749,-0.546,3.122,-0.403121,0.004450,0.796579,99940.70,-118,+61,-160
125215,8.624,-0.583,3.337,-0.211562,-0.027477,0.945038,99940.70,-117,+60,-165
125225,8.839,-1.021,3.397,-0.080663,-0.068981,1.100414,99942.66,-119,+58,-166
125236,9.420,-2.231,3.146,-0.015746,-0.131238,1.249937,99944.45,-119,+55,-160
125245,10.333,-3.187,2.429,-0.026388,-0.177000,1.371258,99941.46,-119,+55,-160
125255,10.496,-3.193,2.251,-0.134938,-0.162633,1.479276,99940.99,-117,+52,-165
125265,10.411,-3.105,2.129,-0.241892,-0.193495,1.570799,99940.99,-120,+50,-165
125276,10.306,-2.698,2.357,-0.227525,-0.323330,1.657533,99943.16,-120,+46,-162
125286,10.041,-2.850,2.939,-0.127489,-0.470724,1.729900,99945.21,-120,+46,-162
125295,10.316,-3.195,3.183,-0.085452,-0.553733,1.843239,99939.60,-117,+43,-167
125305,10.825,-3.288,3.012,-0.045544,-0.598963,1.961368,99939.76,-118,+38,-168
125316,11.612,-3.455,2.366,-0.057250,-0.640999,2.083221,99939.76,-117,+34,-165
125326,12.725,-3.574,1.821,-0.080131,-0.683036,2.202413,99939.77,-117,+34,-165
125335,13.819,-3.715,1.824,-0.086516,-0.715495,2.337037,99941.04,-113,+30,-171
125345,14.379,-3.636,2.137,-0.118443,-0.730394,2.489220,99937.37,-114,+25,-171
125356,14.865,-3.752,2.745,-0.189745,-0.744761,2.641404,99939.99,-112,+21,-169
125366,15.507,-4.017,3.030,-0.300956,-0.760724,2.769642,99939.99,-112,+21,-169
125376,16.157,-4.181,3.026,-0.500498,-0.769770,2.880853,99942.79,-108,+17,-175
125385,17.300,-4.053,2.820,-0.744736,-0.782541,2.968119,99941.90,-108,+13,-175
125395,19.833,-3.876,3.826,-0.984717,-0.839476,3.033036,99940.12,-106,+10,-173
125406,23.439,-1.993,5.669,-1.230020,-0.890027,3.105403,99941.54,-106,+10,-173
125416,24.981,-0.179,6.822,-1.647194,-0.778816,3.224064,99941.54,-102,+11,-179
125425,25.162,2.152,7.354,-2.181432,-0.601091,3.297495,99937.28,-103,+10,-179
125431,24.053,2.497,6.890,-2.592221,-0.440394,3.429458,99935.41,-103,+10,-179
125441,21.941,2.474,5.703,-2.879028,-0.338761,3.556633,99935.41,-103,+13,-177
125451,19.144,3.044,3.620,-3.148808,-0.266926,3.449147,99940.22,-102,+19,-184
125461,14.993,0.151,2.977,-3.258422,-0.351000,3.274082,99935.83,-105,+23,-182
125470,11.695,-3.628,4.840,-2.695450,-0.560651,3.255991,99935.83,-105,+23,-182
125480,12.466,-4.879,3.938,-1.725414,-0.671330,3.154358,99941.14,-105,+24,-181
125491,12.968,-7.202,4.253,-1.562057,-0.800100,3.155954,99940.28,-103,+26,-187
