40030,8.858,-3.880,1.376,0.003080,0.015969,0.005552,99821.38,-207,+110,-16
40039,8.872,-3.883,1.357,0.004144,0.015969,0.004487,99821.38,-206,+111,-16
40049,8.855,-3.865,1.364,0.003080,0.016501,0.003955,99821.88,-207,+110,-16
40059,8.839,-3.857,1.345,0.002016,0.017034,0.001295,99821.31,-207,+110,-16
40070,8.831,-3.860,1.319,0.000419,0.019694,-0.000302,99824.14,-207,+110,-16
40080,8.852,-3.799,1.314,-0.003838,0.023419,-0.001366,99824.14,-207,+110,-16
40089,8.869,-3.813,1.329,-0.006498,0.024483,-0.000834,99825.72,-205,+110,-15
40099,8.859,-3.780,1.323,-0.003306,0.026079,-0.000302,99825.72,-205,+110,-15
40110,8.893,-3.740,1.300,0.000419,0.024483,0.002891,99824.00,-207,+110,-15
40120,8.886,-3.794,1.314,0.013190,0.022887,0.004487,99824.22,-206,+110,-15
40129,8.871,-3.847,1.367,0.019575,0.019162,0.002359,99825.31,-207,+110,-15
40139,8.889,-3.924,1.374,0.017447,0.014905,0.000231,99825.31,-207,+110,-15
40150,8.906,-3.870,1.412,0.008401,0.014905,-0.001366,99825.34,-206,+110,-16
40160,8.871,-3.883,1.442,0.003080,0.015437,0.000231,99824.41,-206,+110,-15
40170,8.857,-3.845,1.462,-0.001177,0.013841,0.000763,99825.70,-206,+110,-15
40179,8.859,-3.788,1.447,0.001483,0.011712,0.002359,99825.61,-206,+110,-15
40189,8.858,-3.773,1.417,0.008401,0.010116,0.004487,99826.86,-207,+110,-14
40200,8.849,-3.795,1.370,0.014786,0.008520,0.005552,99823.84,-206,+110,-15
40210,8.872,-3.828,1.416,0.016383,0.005859,0.006084,99824.83,-206,+110,-14
40219,8.878,-3.912,1.435,0.015318,0.003731,0.006084,99824.83,-206,+110,-14
40229,8.863,-3.927,1.431,0.010529,0.002667,0.006084,99822.64,-206,+110,-14
40240,8.855,-3.888,1.452,0.003612,0.005327,0.002891,99822.64,-206,+110,-14
40250,8.837,-3.891,1.393,-0.002241,0.007456,-0.000302,99826.22,-207,+110,-14
40255,8.823,-3.848,1.386,-0.006498,0.010116,-0.001898,99824.55,-207,+110,-14
40264,8.816,-3.792,1.364,-0.011287,0.011180,-0.001898,99822.63,-206,+110,-15
40274,8.872,-3.749,1.344,-0.011819,0.013309,0.001295,99823.56,-206,+110,-14
40285,8.872,-3.780,1.349,-0.004370,0.012245,0.001827,99823.56,-206,+110,-14
40295,8.863,-3.815,1.417,0.005208,0.010648,0.003423,99825.37,-206,+110,-14
40304,8.878,-3.834,1.450,0.011594,0.007988,0.003955,99824.95,-206,+110,-14
40314,8.875,-3.862,1.458,0.009997,0.005327,0.003423,99825.88,-207,+110,-14
40325,8.870,-3.857,1.438,0.006805,0.004795,0.002891,99821.82,-207,+110,-14
40335,8.862,-3.842,1.400,0.003612,0.005859,0.001295,99821.82,-207,+109,-16
40344,8.862,-3.839,1.380,0.005208,0.006391,0.000763,99826.02,-206,+110,-14
40354,8.822,-3.839,1.398,0.005740,0.007456,-0.001366,99827.02,-206,+110,-14
40365,8.835,-3.859,1.385,0.003080,0.010116,-0.002430,99824.30,-206,+110,-14
40375,8.855,-3.846,1.399,-0.003306,0.012245,-0.002962,99822.33,-206,+110,-14
40384,8.857,-3.785,1.408,-0.005434,0.011712,-0.002962,99822.33,-207,+110,-14
40394,8.855,-3.767,1.410,-0.000645,0.010116,0.000231,99824.34,-206,+110,-14
40404,8.847,-3.781,1.441,0.004144,0.005859,0.002359,99822.87,-206,+110,-14
40415,8.884,-3.777,1.388,0.007869,0.003199,0.004487,99822.51,-207,+110,-14
40425,8.872,-3.830,1.424,0.010529,0.001602,0.006084,99824.23,-207,+110,-14
40434,8.875,-3.840,1.416,0.011061,0.001070,0.007680,99824.23,-206,+110,-14
40444,8.872,-3.793,1.388,0.009465,0.003199,0.009276,99824.56,-206,+110,-14
40455,8.817,-3.801,1.361,0.013722,0.004263,0.010341,99826.13,-206,+110,-14
40465,8.835,-3.823,1.347,0.016383,0.005327,0.010341,99824.67,-206,+110,-14
40474,8.850,-3.870,1.368,0.017447,0.009052,0.008212,99825.61,-207,+110,-14
40484,8.859,-3.877,1.417,0.016915,0.009584,0.005020,99825.61,-207,+110,-14
40491,8.840,-3.841,1.434,0.016915,0.010116,0.003423,99825.76,-206,+110,-14
40500,8.851,-3.852,1.461,0.016383,0.009584,0.003423,99825.76,-207,+110,-14
40510,8.864,-3.833,1.442,0.018511,0.009052,0.002891,99825.91,-207,+110,-14
40519,8.887,-3.843,1.420,0.022768,0.009052,0.003423,99823.21,-207,+109,-14
40529,8.863,-3.865,1.387,0.024896,0.009584,0.001827,99823.41,-207,+109,-14
40540,8.871,-3.862,1.391,0.023300,0.012245,-0.000302,99825.79,-206,+110,-14
40550,8.841,-3.843,1.420,0.019575,0.013309,-0.000834,99823.71,-206,+110,-14
40560,8.862,-3.799,1.391,0.019575,0.015437,-0.000834,99823.66,-206,+110,-14
40569,8.867,-3.785,1.444,0.024364,0.015969,-0.000302,99823.66,-207,+109,-14
40580,8.870,-3.837,1.444,0.028089,0.013841,-0.000302,99825.38,-207,+110,-14
40590,8.857,-3.871,1.456,0.027025,0.014905,0.000231,99825.38,-207,+110,-14
40600,8.871,-3.862,1.455,0.022768,0.014373,-0.000302,99825.07,-207,+110,-14
40610,8.871,-3.863,1.492,0.020462,0.015437,0.000231,99823.38,-205,+110,-13
40620,8.855,-3.860,1.456,0.016383,0.014373,-0.000302,99823.38,-207,+109,-14
40630,8.875,-3.847,1.474,0.014786,0.014905,-0.000302,99824.80,-207,+109,-14
40640,8.850,-3.807,1.394,0.012126,0.017034,0.000231,99824.80,-207,+109,-14
40650,8.880,-3.797,1.369,0.012658,0.017566,0.000763,99825.32,-207,+109,-13
40659,8.901,-3.789,1.392,0.014786,0.018630,0.002891,99824.49,-206,+108,-14
40670,8.862,-3.793,1.441,0.017979,0.018630,0.003955,99824.54,-206,+108,-14
40680,8.877,-3.806,1.455,0.019043,0.017034,0.007680,99824.54,-206,+109,-13
40689,8.889,-3.813,1.495,0.019043,0.014373,0.008212,99824.54,-207,+110,-14
40699,8.890,-3.821,1.499,0.019575,0.015437,0.009809,99824.86,-207,+110,-13
40710,8.837,-3.811,1.504,0.021172,0.011712,0.010341,99823.83,-207,+110,-13
40720,8.813,-3.811,1.461,0.025428,0.008520,0.011405,99822.94,-207,+110,-14
40729,8.826,-3.785,1.423,0.025961,0.005859,0.012469,99820.48,-207,+109,-13
40739,8.838,-3.767,1.480,0.029685,0.003199,0.015662,99820.48,-207,+110,-13
40750,8.833,-3.804,1.502,0.033410,0.001070,0.018322,99827.47,-207,+110,-13
40760,8.788,-3.858,1.459,0.030750,0.001070,0.018854,99824.14,-206,+110,-13
40770,8.825,-3.837,1.459,0.023300,0.003199,0.018854,99825.89,-207,+109,-14
40779,8.841,-3.788,1.490,0.024364,0.002667,0.020451,99825.89,-207,+109,-14
40790,8.853,-3.783,1.543,0.037135,-0.007444,0.021515,99827.12,-207,+109,-13
40800,8.858,-3.684,1.574,0.056823,-0.025535,0.024176,99824.30,-207,+109,-13
40810,8.784,-3.685,1.673,0.070658,-0.037774,0.031093,99824.30,-206,+109,-14
40819,8.857,-3.754,1.437,0.081300,-0.044691,0.036946,99825.91,-207,+108,-14
40829,8.946,-3.785,1.369,0.075447,-0.046820,0.040671,99823.88,-207,+108,-14
40840,8.946,-3.760,1.423,0.079171,-0.045223,0.040139,99823.88,-207,+108,-14
40845,8.852,-3.762,1.386,0.089282,-0.045223,0.041735,99823.80,-207,+108,-14
40855,8.826,-3.800,1.440,0.102052,-0.047352,0.041203,99824.11,-207,+108,-14
40864,8.728,-3.860,1.481,0.117483,-0.047884,0.037478,99821.81,-207,+108,-14
40875,8.682,-3.816,1.383,0.121208,-0.043627,0.033221,99822.91,-207,+107,-14
40885,8.700,-3.777,1.358,0.129190,-0.042031,0.028965,99822.91,-207,+108,-15
40895,8.604,-3.853,1.498,0.157392,-0.040966,0.015662,99824.78,-207,+108,-15
40904,8.624,-3.902,1.358,0.174951,-0.037774,0.010873,99826.91,-207,+108,-16
40914,8.629,-4.026,1.282,0.162713,-0.036710,0.006084,99822.17,-206,+108,-16
40925,8.667,-3.914,1.292,0.138236,-0.022343,-0.000302,99824.83,-207,+107,-15
40935,8.768,-3.857,1.222,0.116419,-0.004783,-0.006155,99824.83,-207,+107,-15
40945,8.774,-3.979,1.428,0.116951,0.005859,-0.022650,99825.16,-206,+106,-15
40954,8.832,-4.019,1.616,0.125997,0.016501,-0.038081,99824.44,-207,+107,-15
40965,8.780,-4.167,1.692,0.128658,0.024483,-0.060962,99824.75,-207,+107,-16
40975,8.679,-4.293,1.733,0.110034,0.033529,-0.084907,99820.84,-207,+107,-16
40985,8.616,-4.144,1.584,0.075979,0.043107,-0.098742,99820.84,-207,+108,-16
40994,8.655,-3.676,1.347,0.050970,0.054813,-0.100870,99825.53,-206,+108,-15
41005,8.740,-3.429,1.297,0.070126,0.069180,-0.097678,99825.53,-206,+108,-16
41015,8.756,-3.428,1.210,0.105777,0.078226,-0.088100,99822.63,-206,+108,-16
41025,8.776,-3.563,1.015,0.140896,0.092593,-0.079054,99820.69,-206,+108,-14
41034,8.753,-3.780,1.073,0.168034,0.114942,-0.083311,99820.69,-207,+108,-14
41044,8.820,-3.967,1.107,0.172291,0.140483,-0.098210,99824.09,-205,+109,-15
41055,8.946,-4.026,1.194,0.160584,0.170281,-0.118430,99826.90,-206,+108,-14
41065,9.002,-4.116,1.408,0.152071,0.198483,-0.145035,99825.54,-206,+108,-14
41075,8.906,-4.311,1.686,0.125997,0.224556,-0.176962,99825.12,-206,+110,-14
41084,8.882,-4.292,1.837,0.074383,0.246373,-0.207292,99825.12,-207,+110,-13
41095,8.865,-4.175,1.887,0.013722,0.264465,-0.231237,99825.87,-206,+111,-12
41105,8.940,-4.038,1.995,-0.041085,0.271382,-0.244008,99822.32,-206,+111,-12
41115,8.998,-3.821,2.079,-0.091636,0.271382,-0.248265,99823.26,-206,+112,-11
41124,8.998,-3.709,2.245,-0.128351,0.261804,-0.245604,99823.63,-206,+114,-11
41135,9.074,-3.548,2.267,-0.153360,0.240520,-0.233898,99823.63,-206,+114,-9
41145,9.104,-3.427,2.117,-0.182094,0.217639,-0.209953,99826.69,-206,+114,-9
41155,9.092,-3.252,2.188,-0.219874,0.191566,-0.173769,99825.64,-206,+115,-9
41164,9.163,-3.070,2.166,-0.241159,0.163364,-0.131201,99824.08,-207,+115,-8
41175,9.193,-2.966,2.164,-0.226259,0.127712,-0.088632,99823.41,-205,+116,-8
41185,9.162,-2.959,2.182,-0.187948,0.088868,-0.047659,99823.41,-205,+116,-8
41195,9.178,-3.204,2.076,-0.155489,0.051621,-0.016265,99827.83,-206,+116,-7
41200,9.070,-3.530,1.963,-0.135269,0.023951,-0.006155,99824.08,-206,+116,-7
41209,8.992,-3.515,2.053,-0.136333,0.003199,0.002891,99824.08,-206,+116,-8
41220,8.916,-3.560,2.213,-0.157085,-0.018618,0.013533,99825.95,-206,+116,-8
41230,8.881,-3.606,2.158,-0.165599,-0.043627,0.017790,99821.11,-205,+116,-7
41240,8.874,-3.572,2.140,-0.164535,-0.064379,0.018322,99824.20,-205,+116,-7
41250,8.880,-3.495,2.134,-0.154957,-0.084067,0.018322,99824.66,-206,+116,-6
41260,8.844,-3.598,1.875,-0.133672,-0.096838,0.014598,99824.13,-206,+116,-7
41270,8.816,-3.671,1.730,-0.115581,-0.100031,0.005020,99820.76,-206,+116,-7
41280,8.861,-3.795,1.563,-0.113452,-0.093113,-0.005623,99820.76,-206,+116,-7
41290,8.883,-3.843,1.456,-0.121434,-0.079278,-0.021586,99820.76,-205,+116,-7
41299,8.857,-3.669,1.546,-0.138994,-0.062783,-0.036485,99826.58,-206,+117,-8
41310,8.845,-3.544,1.672,-0.138461,-0.052673,-0.043402,99821.95,-205,+117,-8
41320,8.855,-3.527,1.701,-0.122498,-0.051609,-0.048191,99826.42,-205,+117,-8
41330,8.862,-3.539,1.704,-0.107599,-0.052141,-0.051916,99826.89,-205,+117,-8
41340,8.833,-3.603,1.592,-0.103342,-0.047884,-0.053513,99826.89,-205,+118,-8
41350,8.893,-3.572,1.474,-0.107599,-0.038838,-0.057237,99827.14,-205,+117,-8
41360,9.015,-3.561,1.560,-0.106003,-0.031921,-0.060430,99825.05,-206,+118,-8
41370,9.029,-3.538,1.629,-0.095893,-0.030856,-0.063623,99823.81,-206,+118,-8
41380,9.063,-3.537,1.649,-0.070883,-0.046288,-0.064687,99823.81,-205,+119,-8
41390,9.059,-3.387,1.853,-0.046406,-0.067572,-0.060430,99825.50,-205,+118,-8
41400,9.119,-3.325,1.959,-0.038425,-0.092049,-0.043402,99825.50,-205,+118,-9
41410,9.057,-3.387,1.851,-0.041617,-0.111737,-0.022118,99822.22,-205,+118,-9
41420,9.059,-3.400,1.887,-0.055984,-0.125040,-0.001366,99823.16,-205,+119,-9
41430,9.010,-3.478,1.977,-0.063966,-0.142599,0.012469,99823.73,-205,+119,-9
41436,8.941,-3.542,1.934,-0.071416,-0.152709,0.022579,99823.73,-205,+119,-9
41445,8.888,-3.600,1.838,-0.082058,-0.159095,0.030561,99826.34,-205,+118,-10
41455,9.008,-3.679,1.602,-0.106535,-0.167076,0.039075,99824.78,-205,+118,-11
41465,9.166,-3.641,1.584,-0.133140,-0.170801,0.047588,99822.23,-205,+118,-11
41475,9.211,-3.447,1.766,-0.167727,-0.176122,0.069405,99822.70,-205,+119,-11
41485,9.165,-3.217,1.984,-0.181030,-0.196875,0.099735,99822.70,-204,+118,-11
41495,9.160,-2.979,1.741,-0.187948,-0.227737,0.139643,99825.22,-204,+118,-11
41505,9.302,-2.983,1.698,-0.200186,-0.259664,0.189130,99822.20,-204,+118,-11
41515,9.511,-2.914,1.733,-0.189012,-0.297975,0.246065,99824.23,-205,+117,-12
41525,9.654,-2.694,2.090,-0.158682,-0.356508,0.310451,99822.78,-205,+116,-12
41535,9.639,-2.699,2.213,-0.086847,-0.428342,0.380157,99822.78,-206,+115,-14
41545,9.648,-2.967,2.055,-0.000113,-0.512948,0.447203,99825.02,-205,+114,-15
41554,9.916,-3.173,2.013,0.048309,-0.600214,0.515845,99825.18,-205,+114,-15
41565,10.337,-3.524,2.346,0.024364,-0.684819,0.593533,99823.82,-206,+112,-18
41575,10.569,-3.708,2.641,-0.058645,-0.763039,0.700487,99822.57,-205,+109,-20
41585,10.554,-3.532,2.284,-0.233177,-0.824764,0.842028,99822.57,-206,+107,-22
41595,10.711,-3.295,1.716,-0.454535,-0.864672,0.985698,99825.80,-206,+107,-22
41605,11.336,-3.056,1.981,-0.608846,-0.883828,1.122982,99824.45,-206,+103,-25
41615,12.836,-2.844,3.095,-0.659397,-0.837003,1.225147,99823.09,-205,+100,-27
41625,13.858,-4.750,1.331,-0.639177,-0.831149,1.264523,99822.27,-207,+95,-29
41635,14.445,-6.338,0.526,-0.665250,-0.890746,1.260266,99822.27,-207,+95,-29
41645,14.536,-6.362,1.200,-0.812644,-0.916819,1.240046,99824.46,-206,+91,-30
41655,14.192,-4.155,2.063,-0.974938,-0.860415,1.259202,99824.77,-206,+87,-33
41665,12.689,-2.706,1.033,-1.076039,-0.832746,1.258138,99822.90,-207,+84,-35
41675,11.889,-2.591,-0.246,-0.993030,-0.878507,1.188432,99824.09,-207,+84,-35
41684,11.912,-3.071,-0.704,-0.802534,-0.960984,1.119257,99824.09,-207,+80,-37
41695,11.731,-3.558,-0.528,-0.573195,-1.027498,1.034652,99825.84,-207,+77,-39
41705,11.104,-4.213,-0.385,-0.315654,-1.083902,0.944725,99825.53,-205,+73,-43
41715,9.639,-5.862,-1.127,-0.076737,-1.156801,0.880340,99823.28,-205,+73,-43
41725,8.240,-7.325,-1.278,0.071722,-1.201498,0.834047,99823.13,-205,+70,-46
41735,7.430,-8.185,-1.387,0.114823,-1.206287,0.788285,99823.13,-203,+68,-50
41745,6.975,-8.220,-1.315,0.096731,-1.182342,0.754762,99825.34,-202,+64,-54
41755,6.578,-7.739,-1.489,0.053630,-1.136580,0.698359,99824.82,-202,+64,-54
41765,6.148,-7.630,-1.778,-0.017672,-1.087626,0.652065,99822.88,-201,+61,-56
41775,5.144,-8.778,-2.008,-0.051195,-1.041865,0.666432,99825.18,-200,+59,-60
41785,4.619,-9.137,-1.675,-0.037361,-0.947149,0.643551,99825.18,-198,+57,-62
41795,4.584,-8.470,-1.260,-0.124627,-0.823168,0.583423,99825.27,-198,+57,-62
41805,4.595,-7.736,-1.122,-0.290645,-0.713021,0.567460,99824.29,-198,+55,-65
41816,4.359,-7.332,-1.415,-0.423140,-0.629480,0.563203,99823.45,-197,+55,-67
41825,3.857,-7.011,-1.577,-0.498700,-0.565627,0.564799,99823.20,-197,+53,-69
41835,3.407,-6.593,-1.587,-0.515195,-0.505498,0.570120,99823.20,-197,+53,-69
41845,3.181,-6.093,-1.577,-0.512535,-0.445370,0.568524,99824.46,-196,+51,-70
41856,2.995,-5.623,-1.583,-0.497103,-0.391627,0.558414,99824.26,-195,+51,-71
41865,2.900,-5.188,-1.644,-0.454535,-0.350654,0.543515,99821.91,-195,+49,-72
41875,2.821,-4.875,-1.745,-0.388553,-0.321920,0.524891,99823.88,-195,+49,-72
41885,2.711,-4.703,-1.687,-0.298626,-0.293186,0.502542,99823.88,-194,+48,-73
41895,2.645,-4.514,-1.538,-0.193801,-0.261260,0.464230,99824.41,-194,+46,-74
41906,2.670,-4.229,-1.374,-0.098021,-0.220820,0.405698,99821.54,-194,+47,-75
41915,2.682,-4.052,-1.334,-0.050131,-0.186232,0.350359,99822.16,-194,+47,-75
41925,2.698,-3.868,-1.278,-0.034168,-0.141003,0.284909,99822.79,-194,+45,-75
41935,2.660,-3.612,-1.201,-0.048003,-0.083535,0.213074,99822.79,-194,+44,-75
41946,2.613,-3.344,-1.109,-0.075140,-0.018086,0.144964,99822.50,-193,+43,-76
41955,2.475,-3.084,-1.104,-0.100682,0.057474,0.075790,99823.66,-193,+43,-76
41965,2.433,-2.892,-1.265,-0.117709,0.136758,0.005020,99821.09,-194,+44,-76
41975,2.413,-2.793,-1.331,-0.104406,0.221364,-0.068412,99820.58,-194,+45,-75
41986,2.669,-2.764,-1.260,-0.062902,0.325657,-0.154613,99820.58,-195,+45,-74
41995,3.179,-2.932,-1.125,-0.004370,0.436336,-0.251989,99824.71,-195,+45,-74
42005,3.744,-3.368,-1.070,0.055759,0.540630,-0.358411,99823.57,-196,+47,-72
42015,4.324,-3.767,-0.896,0.127061,0.636941,-0.464301,99821.16,-196,+47,-70
42025,5.286,-3.738,-0.519,0.233306,0.724917,-0.587928,99821.32,-198,+49,-69
42035,6.312,-3.457,-0.232,0.338841,0.774758,-0.690448,99821.32,-198,+49,-69
42045,7.310,-3.276,-0.259,0.459098,0.793382,-0.784099,99822.45,-199,+51,-65
42055,7.874,-3.376,-0.622,0.553281,0.779015,-0.858062,99822.87,-200,+53,-64
42065,7.862,-3.718,-0.992,0.618199,0.771565,-0.926172,99823.65,-201,+55,-62
42076,7.423,-4.237,-0.981,0.656511,0.789125,-1.004393,99820.10,-202,+59,-58
42085,7.234,-4.662,-0.696,0.666621,0.850317,-1.104429,99820.10,-202,+59,-58
42095,7.528,-5.030,-0.271,0.644804,0.943437,-1.195420,99824.13,-202,+62,-56
42105,8.220,-5.311,0.021,0.593722,1.048262,-1.278429,99822.81,-203,+66,-53
42116,9.066,-5.491,0.076,0.522951,1.131803,-1.346539,99824.17,-203,+70,-50
42125,9.772,-5.564,-0.220,0.467612,1.171180,-1.380062,99821.88,-203,+70,-50
42135,10.111,-5.485,-0.758,0.478254,1.152024,-1.375805,99821.88,-204,+75,-46
42145,10.146,-5.347,-1.165,0.599575,1.086042,-1.326319,99823.92,-205,+78,-43
42156,9.884,-4.754,-1.024,0.737391,1.019528,-1.257145,99823.92,-205,+83,-40
42165,9.564,-4.412,-0.673,0.789538,0.992391,-1.203402,99822.98,-205,+83,-40
42175,9.313,-4.848,-0.618,0.774639,1.038684,-1.168815,99821.11,-205,+87,-37
42185,9.114,-4.935,-0.515,0.754951,1.091895,-1.089530,99821.11,-205,+89,-34
42195,7.789,-15.461,-3.653,0.704933,1.099877,-0.880943,99826.04,-205,+92,-31
42206,10.202,-13.194,-3.318,1.115721,0.734317,-0.704283,99825.57,-205,+92,-31
42215,10.514,-11.153,-4.510,0.304254,1.037088,-0.727696,99826.66,-205,+95,-28
42225,16.606,-2.591,2.115,-0.200186,0.852978,-0.332870,99822.65,-205,+97,-26
42235,23.342,0.473,6.799,0.101520,0.782207,-0.646283,99822.65,-205,+98,-24
42246,26.049,-3.392,5.565,0.346823,0.508703,-0.514320,99823.37,-205,+98,-24
42255,15.804,-4.122,0.611,0.210603,0.526795,-0.345641,99825.91,-205,+100,-22
42265,5.546,-2.719,-3.544,0.264878,0.524134,-0.247733,99825.87,-206,+101,-22
42275,4.547,-3.573,-1.167,0.354804,0.518281,-0.224320,99820.65,-206,+101,-20
42286,7.319,-4.733,2.699,0.248915,0.474648,-0.216870,99820.65,-206,+101,-20
42295,9.734,-4.763,4.246,0.129722,0.380997,-0.133329,99825.70,-207,+101,-19
42305,8.691,-5.664,4.073,0.122805,0.323529,-0.160999,99824.88,-207,+102,-19
42315,7.509,-5.582,2.612,0.078107,0.263932,-0.064687,99824.30,-207,+102,-17
42326,8.114,-3.992,1.139,-0.054388,0.272446,0.027368,99823.52,-207,+102,-17
42335,8.679,-2.582,0.919,-0.015012,0.309694,0.197111,99823.52,-207,+102,-16
42345,9.184,-3.734,-0.089,0.239869,0.277235,0.251386,99828.08,-207,+101,-16
42355,8.871,-4.103,0.426,0.242529,0.268189,-0.035953,99826.05,-207,+101,-15
42365,8.902,-3.767,0.907,0.273924,0.285217,0.042799,99825.98,-207,+101,-15
42376,8.871,-4.918,0.975,0.292015,0.386318,0.114102,99823.48,-208,+100,-14
42385,8.604,-5.200,1.333,0.146217,0.372483,-0.104063,99823.48,-208,+100,-13
42395,8.863,-4.483,1.805,0.028089,0.367162,-0.173769,99825.64,-209,+101,-12
42405,8.989,-3.733,1.976,-0.008095,0.353859,-0.153017,99826.27,-209,+101,-12
42416,9.181,-3.426,2.171,0.019043,0.292134,-0.150889,99822.88,-209,+101,-11
42425,8.960,-3.436,2.451,0.074915,0.226153,-0.131201,99822.05,-209,+102,-10
42435,8.916,-3.732,2.178,0.092474,0.172942,-0.118430,99822.05,-208,+102,-10
42445,8.881,-4.025,2.102,0.040860,0.134630,-0.098742,99825.65,-208,+102,-10
42456,9.057,-3.833,2.023,-0.048003,0.111749,-0.057237,99821.90,-208,+103,-9
42466,9.052,-3.447,1.845,-0.086315,0.083547,-0.006687,99822.48,-209,+102,-9
42475,8.878,-3.220,1.295,-0.083122,0.056942,0.045460,99823.46,-208,+103,-9
42485,8.991,-3.336,0.916,-0.061305,0.025547,0.090157,99823.46,-208,+103,-9
42496,8.898,-3.667,1.588,-0.014480,-0.001590,0.129001,99826.38,-209,+102,-8
42506,8.799,-3.979,1.894,0.030217,-0.034581,0.152946,99823.26,-209,+102,-9
42515,8.650,-4.179,1.817,0.071190,-0.073425,0.156671,99826.27,-209,+101,-9
42525,8.479,-4.429,1.675,0.116419,-0.097902,0.143900,99824.29,-209,+101,-9
42535,8.458,-4.541,1.754,0.123869,-0.102159,0.125276,99824.29,-209,+101,-10
42546,8.548,-4.735,1.571,0.100988,-0.098966,0.097607,99824.13,-209,+100,-10
42555,8.552,-4.644,1.492,0.065869,-0.082471,0.068341,99823.66,-208,+100,-10
42565,8.704,-4.566,1.538,0.021172,-0.062251,0.044928,99826.05,-209,+99,-11
42575,8.779,-4.491,1.528,-0.017140,-0.051077,0.026836,99823.35,-209,+99,-11
42586,8.589,-4.377,1.655,-0.035232,-0.044691,0.009276,99823.35,-209,+99,-11
42596,8.463,-4.261,1.541,-0.049599,-0.037774,0.000231,99823.52,-209,+99,-10
42605,8.440,-4.192,1.333,-0.070351,-0.029792,0.003955,99826.64,-209,+100,-11
42615,8.583,-4.061,1.364,-0.076737,-0.024471,0.012469,99824.77,-209,+100,-11
42626,8.718,-4.034,1.623,-0.050131,-0.035113,0.038010,99821.59,-209,+100,-11
42636,8.838,-4.168,1.582,-0.035764,-0.045223,0.040671,99821.59,-209,+100,-11
42645,8.687,-4.337,1.566,-0.048535,-0.053205,0.028965,99826.59,-209,+99,-10
42655,8.783,-4.346,1.544,-0.080461,-0.055333,0.028432,99827.11,-209,+99,-10
42665,8.795,-4.297,1.631,-0.111856,-0.057462,0.032157,99826.23,-209,+99,-11
42676,8.804,-4.127,1.593,-0.129948,-0.062783,0.041203,99822.28,-209,+99,-11
42685,8.833,-3.983,1.735,-0.113984,-0.082471,0.058231,99822.28,-209,+99,-11
42695,8.776,-4.186,1.711,-0.078333,-0.109609,0.073130,99825.55,-209,+99,-11
42705,8.554,-4.382,1.558,-0.052260,-0.123976,0.074194,99826.65,-209,+99,-11
42716,8.398,-4.534,1.490,-0.064498,-0.120783,0.070469,99825.76,-209,+99,-12
42726,8.493,-4.508,1.308,-0.093764,-0.106948,0.063020,99824.24,-210,+98,-12
42735,8.780,-4.362,1.272,-0.101214,-0.096838,0.051313,99824.24,-210,+98,-12
42745,8.669,-4.279,1.430,-0.074076,-0.096838,0.050781,99826.13,-209,+99,-11
42756,8.975,-4.260,1.242,-0.016608,-0.093645,0.087497,99825.04,-209,+98,-12
42766,9.082,-4.442,1.383,-0.029379,-0.076086,0.042799,99822.85,-210,+97,-13
42775,8.926,-4.532,1.359,-0.048003,-0.054269,0.016726,99825.40,-210,+97,-13
42785,8.871,-4.357,1.393,-0.084186,-0.036177,0.013001,99825.40,-209,+98,-13
42796,8.955,-4.049,1.623,-0.108131,-0.034581,0.025240,99827.79,-208,+98,-13
42806,9.133,-3.865,1.807,-0.098021,-0.056398,0.049717,99825.71,-209,+98,-14
42815,9.071,-3.861,1.721,-0.071948,-0.083535,0.076854,99823.73,-209,+98,-14
42825,9.063,-3.867,1.238,-0.053324,-0.104288,0.110377,99823.63,-209,+97,-13
42835,9.169,-3.843,0.895,-0.020865,-0.129297,0.130065,99823.63,-209,+97,-13
42846,8.984,-3.684,0.531,0.033942,-0.149517,0.143368,99825.10,-209,+97,-14
42851,8.756,-3.750,0.332,0.060548,-0.159095,0.152414,99824.32,-209,+97,-14
42860,8.625,-3.968,0.286,0.079704,-0.172930,0.155607,99824.32,-209,+96,-15
42870,8.324,-4.259,0.524,0.089814,-0.186232,0.157735,99825.05,-209,+95,-15
42881,8.061,-4.340,1.036,0.086089,-0.195278,0.158799,99824.74,-209,+95,-15
42891,7.900,-4.533,1.343,0.080236,-0.203260,0.159864,99824.74,-209,+95,-17
42901,7.835,-4.693,1.448,0.071722,-0.202728,0.160396,99826.31,-209,+94,-17
42910,7.802,-4.908,1.566,0.056823,-0.191554,0.154542,99822.73,-209,+93,-17
42920,7.800,-4.982,1.557,0.021172,-0.171333,0.148689,99822.73,-209,+93,-17
42931,7.806,-4.841,1.430,-0.022461,-0.149517,0.144432,99822.73,-209,+93,-17
42941,7.837,-4.501,1.112,-0.058113,-0.127168,0.138047,99822.73,-209,+92,-19
42950,8.024,-4.253,0.711,-0.076737,-0.110673,0.132194,99824.23,-209,+92,-19
42960,8.164,-4.198,0.339,-0.058113,-0.104288,0.125808,99824.55,-209,+92,-19
42971,8.346,-4.248,0.221,-0.009159,-0.106948,0.115698,99822.09,-209,+92,-17
42981,8.583,-4.477,0.361,0.047777,-0.113865,0.111974,99825.06,-209,+91,-19
42991,8.808,-4.618,0.526,0.091942,-0.115462,0.114102,99825.06,-209,+91,-19
43000,8.844,-4.832,0.666,0.110034,-0.105884,0.112506,99825.63,-209,+91,-19
43011,8.900,-4.928,0.852,0.106841,-0.088856,0.102928,99823.55,-209,+91,-19
43021,8.919,-4.817,1.057,0.087153,-0.072893,0.094946,99823.04,-208,+90,-19
43031,8.855,-4.677,1.209,0.064805,-0.059590,0.092286,99823.04,-209,+90,-20
43040,8.724,-4.471,1.149,0.042988,-0.047884,0.094946,99825.56,-209,+90,-20
43051,8.643,-4.268,1.074,0.030750,-0.040966,0.100799,99825.56,-209,+89,-20
43061,8.644,-4.201,0.989,0.028089,-0.036177,0.109845,99824.89,-209,+89,-20
43071,8.632,-4.219,0.908,0.039263,-0.035645,0.125808,99824.47,-209,+89,-20
43080,8.606,-4.244,0.883,0.055227,-0.043627,0.144432,99823.38,-209,+89,-20
43086,8.577,-4.298,0.976,0.069061,-0.050544,0.159864,99823.38,-209,+88,-20
43096,8.650,-4.389,1.133,0.075979,-0.052673,0.175295,99826.58,-209,+87,-21
43106,8.700,-4.404,1.247,0.067465,-0.051077,0.192854,99821.69,-209,+87,-21
43116,8.440,-4.329,1.167,0.048841,-0.054269,0.209882,99825.13,-209,+86,-21
43125,8.088,-4.096,1.009,0.070658,-0.061187,0.225845,99823.14,-209,+86,-21
43136,8.118,-3.839,1.085,0.138768,-0.058526,0.244469,99823.14,-209,+84,-21
43146,8.090,-4.254,0.821,0.231355,-0.086728,0.258836,99824.10,-209,+84,-21
43156,8.203,-4.247,0.593,0.361190,-0.113333,0.276396,99823.63,-210,+84,-21
43165,8.450,-4.428,0.679,0.439942,-0.126636,0.297148,99825.15,-209,+82,-22
43175,8.300,-5.343,0.684,0.426107,-0.126636,0.289698,99824.15,-209,+81,-22
43186,8.266,-6.190,1.137,0.294144,-0.050012,0.268946,99824.15,-209,+81,-22
43196,8.497,-6.102,1.479,0.001483,0.034593,0.228506,99823.50,-209,+80,-22
43205,8.905,-4.899,1.856,-0.187415,0.128244,0.188065,99823.30,-210,+78,-22
43215,9.281,-4.141,1.637,-0.239030,0.167621,0.200836,99823.88,-210,+79,-22
43226,8.729,-4.638,1.303,-0.088443,0.062795,0.219460,99822.47,-210,+79,-22
43236,8.143,-5.044,1.382,0.086089,-0.028196,0.199772,99822.47,-210,+78,-21
43246,8.109,-5.318,1.508,0.127061,-0.056398,0.166249,99826.23,-210,+78,-22
43255,7.967,-5.829,1.016,0.082364,-0.048416,0.127937,99827.38,-210,+76,-22
43266,7.999,-5.668,0.875,-0.028847,0.004795,0.104524,99823.01,-210,+76,-22
43276,8.413,-5.433,1.303,-0.153893,0.067052,0.076854,99823.57,-210,+76,-22
43286,8.910,-5.216,1.555,-0.271489,0.117070,0.070469,99823.57,-210,+76,-22
43295,9.098,-4.989,1.385,-0.343856,0.127180,0.083772,99827.30,-210,+76,-20
43305,8.847,-4.744,1.353,-0.330021,0.102171,0.102396,99823.75,-210,+76,-20
43316,8.633,-4.800,1.234,-0.272553,0.069180,0.122084,99822.39,-210,+76,-19
43326,8.518,-4.714,0.933,-0.229452,0.038318,0.146029,99820.31,-210,+76,-20
43335,8.463,-4.886,1.185,-0.206571,0.005859,0.167845,99820.31,-210,+75,-20
43345,8.457,-5.300,1.510,-0.218810,-0.014361,0.186469,99826.33,-210,+75,-20
43356,8.395,-5.347,1.650,-0.265104,-0.022875,0.196579,99827.22,-210,+74,-19
43366,8.178,-5.037,1.765,-0.294370,-0.039370,0.197111,99823.20,-210,+74,-20
43376,8.032,-4.817,1.325,-0.293305,-0.061187,0.203497,99822.06,-211,+74,-20
43385,8.111,-4.872,0.814,-0.264571,-0.089921,0.201900,99822.06,-211,+74,-20
43396,8.050,-4.896,0.616,-0.221471,-0.118122,0.195515,99822.87,-210,+73,-21
43406,7.691,-4.721,0.433,-0.189012,-0.130361,0.195515,99824.32,-210,+72,-20
43416,7.541,-4.661,-0.020,-0.135801,-0.141003,0.187001,99823.80,-210,+71,-20
43425,7.408,-4.635,-0.082,-0.073544,-0.178251,0.167845,99821.62,-210,+71,-20
43436,7.231,-4.400,0.059,-0.017672,-0.217627,0.163588,99821.62,-210,+72,-22
43446,7.116,-4.246,-0.167,0.046713,-0.240508,0.174230,99826.43,-210,+70,-23
43456,7.089,-4.390,-0.172,0.114291,-0.267113,0.203497,99823.52,-210,+70,-23
43466,7.529,-4.817,0.474,0.174419,-0.305957,0.240744,99822.99,-210,+70,-23
43475,8.565,-5.258,1.108,0.214859,-0.338416,0.285974,99823.52,-209,+70,-24
43486,9.531,-5.276,1.355,0.243061,-0.366618,0.334928,99823.52,-210,+67,-25
43496,9.704,-4.855,1.498,0.294144,-0.384709,0.379625,99823.70,-210,+66,-26
43506,9.275,-4.683,1.228,0.385667,-0.387370,0.425918,99825.62,-210,+66,-26
43515,8.782,-4.563,1.073,0.525612,-0.369278,0.454652,99821.93,-210,+64,-27
43526,8.432,-5.384,0.622,0.627245,-0.350654,0.448267,99821.66,-209,+63,-29
43536,7.535,-6.619,1.140,0.600107,-0.335755,0.414212,99821.66,-209,+60,-30
43546,7.351,-7.229,0.972,0.383006,-0.251682,0.348230,99824.03,-209,+59,-30
43555,7.835,-6.593,0.814,0.118548,-0.172398,0.303533,99823.77,-209,+59,-30
43566,8.013,-5.682,0.876,-0.027250,-0.130361,0.285974,99822.83,-209,+57,-30
43576,8.102,-5.414,1.028,-0.058645,-0.134086,0.289166,99820.91,-209,+57,-31
43586,8.143,-5.324,1.120,-0.055984,-0.161755,0.307790,99820.91,-209,+55,-32
43596,8.096,-5.445,1.252,-0.055452,-0.183040,0.333331,99824.10,-209,+55,-32
43606,8.105,-5.582,1.096,-0.075140,-0.187297,0.356744,99821.76,-209,+54,-32
43616,8.135,-5.413,0.857,-0.085250,-0.195810,0.380689,99823.48,-208,+53,-33
43626,8.396,-5.380,0.691,-0.050663,-0.200599,0.396652,99821.82,-209,+51,-33
43636,8.398,-5.799,0.447,-0.040553,-0.215498,0.411551,99821.82,-209,+51,-33
43645,8.098,-6.022,0.238,-0.088443,-0.205388,0.428047,99823.59,-208,+51,-34
43656,8.006,-5.938,0.600,-0.177838,-0.192618,0.451992,99823.55,-209,+48,-34
43666,7.899,-5.752,1.073,-0.252865,-0.193150,0.488707,99821.05,-209,+47,-35
43676,7.928,-5.735,1.061,-0.302706,-0.207694,0.529148,99823.70,-209,+47,-35
43685,8.193,-5.960,0.819,-0.320443,-0.225609,0.549368,99823.70,-207,+45,-35
43696,8.232,-6.329,0.767,-0.337470,-0.234122,0.565863,99824.16,-208,+44,-36
43706,8.056,-6.719,0.470,-0.377911,-0.231994,0.557882,99825.15,-207,+42,-37
43716,7.993,-6.691,0.679,-0.436443,-0.234122,0.536065,99824.68,-207,+42,-37
43726,8.120,-6.570,0.843,-0.478480,-0.247425,0.516909,99821.40,-208,+40,-37
43736,8.319,-6.185,0.536,-0.483268,-0.280416,0.517441,99821.40,-207,+40,-39
43746,8.492,-5.542,0.404,-0.445489,-0.337352,0.541386,99825.57,-207,+38,-40
43756,8.582,-5.562,0.184,-0.376314,-0.404930,0.578102,99823.60,-207,+38,-40
43766,8.620,-5.943,0.160,-0.350773,-0.452819,0.612689,99821.98,-206,+36,-40
43776,9.063,-6.567,0.035,-0.367801,-0.470911,0.632909,99822.60,-205,+34,-42
43786,9.224,-6.902,0.016,-0.417819,-0.477296,0.641423,99822.60,-205,+32,-43
43796,9.187,-6.767,0.064,-0.480076,-0.483150,0.653661,99824.90,-205,+32,-43
43806,9.435,-6.503,0.313,-0.513599,-0.512948,0.671753,99826.98,-204,+30,-45
43815,9.642,-6.402,0.782,-0.508810,-0.572012,0.707937,99821.77,-203,+29,-47
43826,9.902,-6.454,1.094,-0.494443,-0.644911,0.764872,99826.51,-202,+26,-49
43836,10.716,-6.585,1.132,-0.491250,-0.724728,0.835643,99826.51,-202,+26,-49
43846,11.801,-6.734,1.484,-0.492314,-0.828489,0.912267,99824.33,-202,+24,-51
43856,11.625,-6.939,1.988,-0.486461,-0.908305,1.014432,99826.16,-200,+21,-54
43866,11.668,-6.837,1.391,-0.542865,-0.916287,1.134688,99824.44,-199,+17,-57
43876,12.661,-6.361,0.989,-0.621617,-0.943425,1.227276,99823.61,-199,+17,-57
43886,12.950,-6.112,1.174,-0.663122,-0.997700,1.315606,99823.61,-196,+13,-59
43896,12.912,-6.009,1.673,-0.703562,-1.036544,1.415110,99825.34,-195,+10,-63
43906,12.965,-5.948,2.298,-0.765287,-1.056232,1.521000,99821.59,-192,+6,-66
43916,12.885,-6.083,2.750,-0.864791,-1.036544,1.631679,99822.05,-192,+6,-66
43926,12.900,-5.945,2.873,-1.033470,-0.976947,1.734376,99820.87,-191,+1,-69
43936,13.155,-5.684,2.876,-1.258552,-0.895003,1.790248,99820.87,-188,-2,-72
43945,13.012,-5.287,2.658,-1.502791,-0.815718,1.858890,99824.30,-185,-6,-76
43956,12.522,-5.707,1.958,-1.759268,-0.745480,1.946688,99820.87,-185,-6,-76
43966,12.191,-6.634,0.914,-2.024791,-0.703443,2.040871,99821.12,-182,-9,-78
43976,11.877,-8.522,-0.676,-2.242424,-0.713553,2.168578,99821.74,-179,-13,-82
43985,11.536,-9.895,-1.620,-2.307341,-0.818911,2.290963,99821.74,-175,-17,-86
43996,11.567,-9.228,-0.785,-2.273818,-0.910434,2.278724,99824.34,-175,-17,-86
44006,10.954,-7.753,1.067,-2.238699,-0.926397,2.201569,99824.70,-171,-19,-90
44016,10.313,-6.922,1.711,-2.189213,-0.872122,2.070138,99819.66,-168,-22,-94
44026,9.306,-6.464,1.107,-2.178570,-0.886489,1.922743,99822.05,-164,-24,-99
44036,8.187,-6.248,0.706,-2.077469,-0.934379,1.815257,99822.05,-164,-24,-99
44046,7.215,-5.756,0.896,-1.811414,-0.973223,1.746615,99823.41,-160,-26,-101
44056,6.649,-5.020,1.549,-1.512369,-0.921076,1.640193,99822.00,-157,-28,-107
44066,6.489,-3.130,1.926,-1.309103,-0.810929,1.416707,99822.31,-153,-29,-111
44076,6.430,-1.556,0.955,-1.251635,-0.711957,1.101698,99821.69,-151,-30,-112
44086,4.808,-2.867,-0.130,-1.244718,-0.623627,0.970799,99821.69,-151,-30,-112
44096,3.839,-3.610,0.207,-1.007397,-0.476764,0.869166,99822.48,-148,-30,-115
44106,3.827,-1.976,0.776,-0.671635,-0.360764,0.454652,99825.87,-146,-31,-117
44115,3.961,-0.526,1.052,-0.341195,-0.265517,0.106120,99821.65,-146,-31,-117
44126,3.639,0.114,1.128,0.015318,-0.226141,-0.128008,99820.82,-146,-31,-117
44136,3.318,0.276,1.142,0.403226,-0.203260,-0.371182,99820.82,-146,-31,-118
44146,3.022,0.093,1.066,0.791134,-0.173994,-0.619145,99825.52,-145,-32,-118
44156,2.698,-0.493,1.011,1.166804,-0.127700,-0.838907,99821.41,-146,-34,-117
44166,2.445,-1.294,0.721,1.513739,-0.068636,-1.057604,99818.75,-146,-34,-117
44176,2.150,-2.449,0.260,1.778730,0.010648,-1.267255,99819.42,-147,-34,-115
44186,1.731,-3.651,-0.176,1.953262,0.113877,-1.463071,99819.42,-148,-36,-113
44196,1.454,-4.353,-0.088,2.057023,0.250630,-1.664741,99823.53,-150,-36,-111
44206,2.016,-3.995,0.817,2.158656,0.412923,-1.921750,99820.36,-150,-36,-111
44216,3.187,-2.928,1.549,2.210803,0.609804,-2.248997,99819.27,-154,-36,-107
44226,4.328,-2.862,1.991,2.130455,0.825308,-2.518245,99818.84,-159,-35,-103
44236,4.981,-3.155,2.226,1.981996,1.014207,-2.718318,99818.84,-164,-32,-98
44247,5.539,-3.180,2.281,1.814914,1.218537,-2.947125,99820.66,-164,-32,-98
44256,5.895,-3.752,2.085,1.600473,1.420739,-3.131768,99820.51,-169,-27,-93
44266,6.163,-4.424,1.654,1.386565,1.591192,-3.287498,99820.20,-175,-22,-87
44276,6.494,-4.614,1.339,1.309941,1.729895,-3.445712,99817.34,-182,-15,-82
44286,7.285,-4.605,1.248,1.298235,1.897509,-3.625565,99817.34,-182,-15,-82
44296,8.039,-4.675,1.175,1.314198,2.048629,-3.786263,99823.17,-187,-6,-74
44306,8.877,-4.860,1.205,1.325905,2.207197,-3.929400,99820.63,-193,+3,-67
44316,9.596,-5.153,1.243,1.330694,2.363106,-4.042207,99821.52,-198,+13,-58
44326,10.247,-5.407,1.391,1.350382,2.505711,-4.135326,99818.64,-198,+13,-58
44336,10.973,-5.558,1.642,1.406785,2.617454,-4.210886,99818.64,-202,+25,-50
44346,11.997,-5.720,1.811,1.505758,2.694610,-4.261436,99822.98,-204,+37,-42
44356,13.145,-6.021,1.821,1.645703,2.737711,-4.280060,99821.94,-206,+49,-33
44366,14.082,-6.467,1.675,1.815446,2.768041,-4.260904,99821.00,-206,+49,-33
44377,14.810,-6.880,1.620,1.966565,2.798371,-4.211418,99819.13,-208,+61,-26
44386,15.381,-7.279,1.474,2.078308,2.838812,-4.157143,99819.13,-209,+72,-18
44396,15.631,-7.867,1.428,2.119280,2.869142,-4.100739,99821.98,-207,+84,-11
44406,15.660,-8.370,1.212,2.095335,2.862756,-4.021987,99820.73,-207,+84,-11
44417,15.698,-8.914,0.657,2.022968,2.821784,-3.929400,99822.20,-207,+95,-3
44426,15.659,-9.467,-0.232,1.894198,2.757399,-3.820318,99819.85,-205,+107,+3
44436,15.648,-10.208,-1.250,1.715941,2.678114,-3.668666,99819.85,-203,+118,+9
44446,15.217,-10.759,-2.319,1.512675,2.554133,-3.478171,99823.09,-203,+118,+9
44456,14.353,-11.483,-3.076,1.378051,2.342353,-3.243510,99823.71,-200,+128,+16
44466,13.029,-11.659,-3.466,1.384969,2.052353,-2.966281,99821.37,-198,+137,+20
44476,11.388,-11.961,-3.741,1.488730,1.745858,-2.661382,99823.02,-194,+145,+24
44486,9.693,-12.702,-4.397,1.572804,1.481932,-2.353823,99823.02,-194,+145,+24
44496,8.366,-14.179,-4.973,1.428602,1.319106,-2.044667,99825.98,-191,+153,+25
44502,7.485,-14.921,-5.529,1.103483,1.241418,-1.757860,99826.36,-187,+158,+28
44511,7.048,-15.046,-5.775,0.620859,1.149363,-1.396558,99826.36,-187,+158,+28
44521,7.235,-14.390,-5.984,-0.019269,0.910978,-0.854338,99826.14,-187,+161,+32
44531,7.531,-13.062,-6.202,-0.503489,0.511896,-0.282320,99823.86,-186,+162,+33
44541,7.805,-11.991,-5.871,-0.718461,0.054813,0.250854,99823.86,-187,+160,+35
44552,8.428,-11.325,-5.245,-0.672167,-0.376728,0.703680,99826.34,-187,+160,+35
44561,9.108,-11.173,-4.554,-0.499764,-0.744948,1.109679,99825.80,-189,+156,+35
44571,9.533,-11.319,-4.174,-0.305544,-1.069535,1.477367,99821.42,-193,+151,+32
44581,10.712,-11.152,-2.726,-0.091636,-1.349424,1.792908,99821.42,-196,+144,+28
44592,9.938,-9.982,-0.776,0.079171,-1.374966,1.906780,99821.42,-196,+144,+28
44601,10.078,-7.159,3.896,-0.244351,-1.305259,1.961587,99826.73,-198,+137,+25
44611,15.854,7.830,14.731,-0.550846,-0.759847,1.254413,99823.38,-202,+131,+22
44621,19.135,14.462,11.735,-1.521947,-0.034049,0.574377,99819.27,-203,+128,+25
44632,13.742,-1.440,0.119,-2.521781,-0.210177,1.236854,99822.09,-203,+128,+25
44642,11.172,-11.665,-3.326,-1.836956,-0.806140,1.629019,99822.09,-206,+124,+26
44651,12.578,-11.972,-3.557,-0.772204,-1.148819,1.499184,99827.13,-207,+117,+24
44661,12.637,-5.971,-3.684,-0.911617,-0.997168,1.497587,99824.73,-209,+110,+21
44672,11.675,-2.360,-0.992,-1.065397,-0.632672,1.524725,99822.70,-209,+110,+21
44682,8.808,-2.027,1.217,-1.016975,-0.537425,1.550798,99822.70,-211,+106,+20
44691,8.555,-3.836,4.515,-0.732828,-0.550196,1.648707,99826.34,-213,+101,+19
44701,9.836,-4.436,5.057,-0.217746,-0.836471,1.730651,99826.34,-214,+94,+16
44711,8.713,-1.866,4.319,0.055759,-1.063681,1.624762,99822.33,-214,+94,+16
44722,7.155,-3.580,3.075,-0.103342,-1.093480,1.560376,99826.19,-215,+89,+13
44731,7.131,-5.455,2.255,-0.267764,-1.054103,1.491734,99825.09,-216,+83,+10
44741,8.045,-5.045,2.031,-0.319379,-0.939700,1.381588,99825.09,-217,+78,+7
44751,8.531,-3.618,2.078,-0.298094,-0.883828,1.295918,99825.11,-217,+78,+7
44762,8.481,-3.573,1.505,-0.150168,-0.891810,1.246432,99823.75,-218,+73,+6
44772,8.529,-4.047,0.754,0.027557,-0.905113,1.187899,99822.30,-217,+69,+2
44781,8.521,-4.581,0.351,0.074383,-0.851370,1.134688,99824.50,-218,+65,+0
44791,8.469,-5.031,-0.096,-0.011819,-0.757718,1.076689,99824.97,-218,+65,+0
44802,8.573,-4.756,0.517,-0.119838,-0.652361,1.021349,99823.19,-218,+62,-1
44812,8.319,-4.249,1.528,-0.215617,-0.515608,0.958560,99825.69,-218,+57,-4
44821,7.905,-4.438,1.794,-0.228920,-0.439517,0.888322,99825.69,-218,+54,-6
44831,8.024,-3.994,2.377,-0.156553,-0.413443,0.810102,99821.73,-218,+54,-6
44841,8.169,-4.006,2.214,-0.070883,-0.423553,0.754230,99821.73,-218,+51,-6
44852,8.090,-4.860,1.713,0.035538,-0.439517,0.702615,99825.05,-218,+49,-8
44857,8.103,-4.703,2.008,0.050970,-0.410251,0.666432,99824.16,-218,+49,-8
44866,8.087,-4.867,1.894,0.042988,-0.368214,0.653661,99823.80,-218,+46,-8
44876,8.163,-5.127,1.174,0.006805,-0.340544,0.624395,99823.48,-218,+43,-10
44887,8.345,-4.915,0.866,-0.031507,-0.315535,0.582359,99823.48,-218,+42,-11
44897,8.475,-4.815,0.788,-0.009691,-0.303829,0.540854,99826.54,-218,+42,-11
44906,8.547,-4.734,0.724,0.036071,-0.309682,0.500414,99824.82,-217,+40,-11
44916,8.583,-4.669,0.738,0.081832,-0.335755,0.476469,99823.62,-218,+38,-12
44926,8.632,-4.729,0.861,0.119080,-0.359168,0.452524,99822.95,-218,+36,-14
44937,8.685,-5.073,0.792,0.129722,-0.352251,0.430707,99822.95,-218,+36,-14
44946,8.577,-5.038,0.785,0.075979,-0.329370,0.413148,99825.58,-217,+34,-15
44956,8.499,-4.881,0.641,-0.013948,-0.270306,0.397717,99825.69,-218,+34,-15
44966,8.495,-4.854,0.489,-0.090039,-0.206985,0.383882,99825.11,-216,+31,-16
44977,8.560,-4.721,0.891,-0.117177,-0.170269,0.376432,99824.13,-216,+31,-16
44986,8.552,-4.560,1.374,-0.114516,-0.167076,0.383882,99824.13,-216,+30,-16
44996,8.451,-4.756,1.461,-0.099085,-0.183040,0.392928,99825.73,-216,+28,-17
45006,8.329,-4.948,1.443,-0.123030,-0.186232,0.408891,99826.76,-216,+28,-18
45017,8.373,-4.993,1.338,-0.200186,-0.168141,0.425918,99823.70,-216,+28,-18
45027,8.549,-4.878,1.074,-0.287984,-0.138875,0.454652,99821.71,-216,+26,-17
45036,8.688,-4.685,0.872,-0.347581,-0.122911,0.495093,99821.71,-216,+25,-19
45046,8.832,-4.250,1.230,-0.361947,-0.127700,0.547239,99824.88,-216,+22,-19
45057,8.738,-4.422,1.547,-0.331085,-0.152177,0.606304,99824.25,-216,+22,-19
45067,8.559,-4.831,1.514,-0.322571,-0.171333,0.663771,99822.89,-216,+21,-19
45076,8.351,-4.979,1.321,-0.350773,-0.186765,0.709533,99825.66,-216,+19,-20
45086,8.175,-5.067,1.328,-0.374718,-0.205920,0.752102,99825.66,-214,+15,-20
45092,8.239,-5.129,1.290,-0.387489,-0.218691,0.779239,99823.59,-214,+15,-20
45102,8.319,-5.258,1.273,-0.410902,-0.230398,0.812230,99823.59,-214,+13,-22
45112,8.419,-5.511,1.242,-0.458791,-0.237847,0.851606,99823.81,-214,+11,-22
45122,8.306,-5.556,1.577,-0.500828,-0.252214,0.870230,99824.02,-214,+11,-22
45131,8.330,-5.196,1.783,-0.517324,-0.289462,0.893111,99824.02,-213,+7,-22
45142,8.624,-5.304,1.665,-0.494975,-0.349590,0.935680,99826.40,-212,+5,-25
45152,8.937,-5.319,1.357,-0.458791,-0.408654,0.986762,99822.96,-212,+2,-26
45162,9.147,-5.220,0.940,-0.419415,-0.475700,1.044230,99824.12,-212,+2,-26
45171,9.481,-4.994,0.791,-0.370993,-0.560838,1.118193,99824.12,-210,+0,-27
45181,9.767,-4.826,0.648,-0.311397,-0.666195,1.210780,99823.85,-209,-5,-30
45192,9.876,-4.835,0.622,-0.243287,-0.797094,1.311349,99823.85,-208,-9,-31
45202,10.408,-5.536,0.390,-0.201250,-0.917883,1.401276,99826.77,-208,-9,-31
45211,10.936,-6.303,0.337,-0.233709,-1.008874,1.474707,99822.98,-206,-13,-36
45221,11.052,-6.836,0.837,-0.327892,-1.052507,1.559312,99825.68,-203,-18,-38
45232,11.653,-6.860,1.163,-0.438571,-1.091883,1.646578,99825.88,-201,-23,-42
45242,12.585,-7.102,1.441,-0.523709,-1.145094,1.741294,99825.88,-201,-23,-42
45252,13.848,-7.204,1.413,-0.618957,-1.205223,1.833881,99824.70,-198,-28,-46
45261,15.568,-7.217,2.134,-0.712608,-1.306324,1.939238,99823.55,-195,-33,-49
45272,16.169,-7.442,3.786,-0.780718,-1.402635,2.073330,99823.86,-192,-38,-56
45282,16.625,-7.882,4.167,-0.910021,-1.378690,2.247330,99823.86,-192,-38,-56
45291,18.093,-7.747,4.651,-1.138828,-1.313241,2.396321,99823.86,-187,-43,-59
45301,18.986,-7.193,5.605,-1.397965,-1.245131,2.529880,99824.11,-182,-48,-64
45312,18.929,-6.818,6.494,-1.726277,-1.126470,2.667697,99821.08,-176,-53,-70
45322,18.720,-7.044,6.423,-2.137066,-0.999828,2.838504,99824.31,-172,-53,-74
45332,18.862,-7.058,5.592,-2.617029,-0.894471,3.027403,99822.17,-172,-57,-74
45341,18.154,-6.003,3.670,-3.156056,-0.824764,3.146595,99822.17,-165,-59,-80
45351,14.967,-6.437,0.939,-3.688698,-0.736966,3.193953,99823.85,-159,-61,-87
45362,12.045,-7.657,2.856,-3.991468,-0.705039,3.028999,99825.10,-153,-61,-94
45372,12.402,-6.576,5.898,-3.818001,-0.630544,2.662908,99821.12,-153,-61,-94
45381,12.151,-6.987,2.262,-3.405615,-0.630012,2.437293,99821.12,-148,-59,-99
45391,10.665,-7.869,0.770,-3.045377,-0.875847,2.376633,99825.57,-143,-57,-106
45402,8.649,-7.328,2.692,-2.194534,-0.934911,2.249990,99823.01,-138,-58,-109
45412,6.527,-3.879,5.167,-1.628369,-0.557113,1.879110,99823.01,-138,-58,-109
45421,6.970,2.195,6.111,-1.615598,-0.078746,1.272505,99820.77,-135,-57,-111
45431,7.718,4.318,3.880,-1.770442,0.144208,0.790414,99822.23,-134,-55,-112
45442,5.773,2.500,2.809,-1.497470,0.136226,0.745184,99822.23,-132,-52,-114
45447,5.177,3.452,2.925,-1.014314,0.150593,0.472744,99824.20,-132,-52,-114
45457,5.067,4.469,3.139,-0.492846,0.262336,0.014065,99817.70,-134,-50,-114
45466,4.995,4.534,3.385,0.093538,0.431015,-0.399384,99821.07,-134,-50,-114
45476,4.303,3.799,2.968,0.579355,0.523070,-0.698962,99819.41,-136,-49,-112
45487,3.647,2.761,2.042,1.032180,0.576281,-1.019824,99819.41,-137,-48,-111
45497,2.956,1.665,1.074,1.498840,0.620978,-1.335897,99819.64,-140,-47,-108
45506,2.376,0.542,0.647,1.935170,0.708776,-1.663677,99820.73,-140,-47,-108
45516,2.366,-0.361,0.881,2.250711,0.872666,-2.021786,99819.64,-144,-45,-104
45527,2.976,-0.845,1.350,2.385335,1.091895,-2.385217,99821.27,-149,-45,-101
45537,3.786,-1.070,1.744,2.375225,1.340390,-2.727896,99821.27,-155,-41,-95
45547,4.294,-1.130,2.049,2.327335,1.588886,-3.038648,99818.62,-155,-41,-95
45556,4.788,-1.213,2.215,2.319885,1.795876,-3.302575,99816.99,-161,-35,-90
45566,5.528,-1.837,2.324,2.350216,1.958170,-3.532978,99818.77,-168,-30,-84
45577,6.240,-3.045,2.239,2.326803,2.123656,-3.754868,99815.38,-175,-22,-78
45587,6.683,-4.046,1.964,2.193776,2.298188,-3.957070,99815.38,-175,-22,-78
45596,7.222,-4.357,1.598,1.984657,2.506243,-4.151822,99819.02,-182,-13,-71
45606,7.993,-4.353,1.513,1.781923,2.729729,-4.331142,99822.26,-189,-1,-65
45617,9.132,-4.182,1.294,1.658473,2.926078,-4.495032,99820.90,-194,+11,-58
45627,10.400,-4.303,1.034,1.609519,3.092628,-4.639234,99820.38,-201,+24,-51
45636,11.731,-4.776,1.022,1.604198,3.237362,-4.746720,99820.38,-201,+24,-51
45646,12.983,-5.118,1.139,1.618565,3.337399,-4.828133,99818.73,-205,+40,-44
45657,14.204,-5.349,1.140,1.661666,3.381564,-4.880280,99820.60,-210,+54,-36
45667,15.289,-5.858,1.191,1.775537,3.363472,-4.903693,99820.51,-213,+70,-28
45677,16.274,-6.640,1.113,1.952730,3.306004,-4.923913,99819.41,-213,+70,-28
45682,16.878,-7.277,1.000,2.091079,3.248536,-4.930298,99819.41,-216,+87,-20
45691,17.343,-7.818,0.877,2.206546,3.184151,-4.910078,99819.41,-216,+87,-20
45702,18.020,-8.340,0.810,2.336913,3.088371,-4.845160,99822.66,-216,+104,-13
45712,18.632,-9.271,0.641,2.460363,2.977160,-4.744592,99822.62,-216,+122,-6
45722,19.194,-10.861,-0.032,2.550289,2.827105,-4.583363,99820.59,-213,+137,+0
45732,19.087,-12.903,-0.999,2.591794,2.595105,-4.348702,99823.42,-213,+137,+0
45742,17.605,-14.612,-2.092,2.581684,2.323729,-4.079455,99823.84,-207,+155,+5
45752,15.318,-15.551,-2.863,2.526344,2.058207,-3.782006,99821.34,-200,+172,+8
45762,13.092,-17.088,-4.139,2.409812,1.842170,-3.447309,99821.34,-192,+185,+9
45771,10.127,-20.859,-5.603,2.070326,1.744794,-3.060465,99825.72,-192,+185,+9
45782,6.481,-24.536,-7.548,1.311006,1.691583,-2.485786,99824.36,-184,+196,+11
45792,4.552,-24.408,-8.344,0.267538,1.516519,-1.740301,99824.36,-177,+204,+14
45802,5.838,-19.770,-7.751,-0.670039,1.041345,-0.850081,99827.77,-175,+207,+17
45811,7.969,-15.359,-6.486,-1.057415,0.329914,0.069405,99826.99,-175,+207,+17
45821,9.998,-12.853,-5.425,-0.864791,-0.426746,0.857459,99825.90,-173,+208,+19
45832,10.377,-11.978,-5.208,-0.272021,-1.177021,1.551863,99821.99,-176,+204,+17
45842,9.724,-13.564,-6.452,0.478254,-1.870360,2.221257,99825.74,-180,+198,+11
45852,11.608,-13.186,-3.988,1.093905,-2.368947,2.685256,99824.76,-184,+189,+1
45861,10.267,-11.579,-1.523,1.281740,-2.254543,2.725165,99826.16,-184,+189,+1
45872,16.061,-0.099,11.889,0.840621,-1.912397,2.476669,99817.57,-189,+181,-5
45882,24.267,24.572,18.371,0.297337,-0.900324,0.818083,99817.57,-190,+178,-8
45892,17.913,0.782,0.381,-2.252002,-0.415040,1.523129,99817.57,-192,+173,-6
45901,11.615,-16.462,-6.787,-2.299359,-1.512250,2.827862,99824.96,-192,+173,-6
45912,11.862,-13.831,-3.309,-0.393342,-2.020947,2.282449,99822.77,-196,+165,-11
45922,10.915,-4.298,-3.337,-0.413562,-1.595259,1.990321,99824.80,-196,+158,-14
45932,10.088,-2.035,-3.039,-0.675360,-1.131259,2.143037,99822.77,-199,+151,-17
45942,8.340,-5.274,-1.195,-0.158682,-1.034415,2.116963,99822.77,-199,+151,-17
45952,9.174,-8.554,1.508,0.153667,-0.863608,2.189862,99825.09,-201,+145,-20
45962,10.887,-5.499,1.158,0.219648,-0.869993,2.162724,99824.29,-203,+137,-24
45972,9.823,-1.920,2.348,0.219116,-0.915755,2.022780,99823.79,-205,+130,-26
45982,6.858,-4.923,2.049,0.165373,-0.955663,2.014798,99823.79,-205,+130,-26
45992,6.384,-6.327,2.134,-0.037893,-0.937571,1.867404,99822.30,-205,+123,-29
46002,7.443,-6.100,2.339,-0.384828,-0.798159,1.666266,99822.30,-206,+117,-31
46012,8.454,-5.327,1.406,-0.549782,-0.742819,1.491202,99822.46,-207,+113,-33
46022,8.746,-3.866,1.139,-0.559360,-0.734305,1.344872,99823.09,-207,+113,-33
46031,8.509,-3.598,1.168,-0.389617,-0.708232,1.254413,99821.73,-209,+109,-33
46038,8.400,-3.604,1.158,-0.195929,-0.703975,1.184707,99821.73,-209,+109,-33
46047,8.620,-3.581,0.870,-0.060241,-0.694929,1.128303,99824.21,-208,+105,-35
46057,8.683,-3.886,0.547,0.048309,-0.664599,1.070835,99822.34,-208,+101,-39
46067,8.290,-4.752,0.444,0.107905,-0.578397,1.002193,99823.59,-209,+97,-40
46076,8.054,-5.200,0.385,0.038731,-0.450159,0.915459,99822.45,-209,+97,-40
46087,8.039,-5.392,0.178,-0.123562,-0.325645,0.825533,99822.45,-209,+95,-41
46097,8.270,-5.169,0.375,-0.253397,-0.205920,0.741992,99826.12,-209,+93,-41
46107,8.529,-4.826,1.110,-0.321507,-0.113865,0.671221,99824.98,-209,+89,-42
46116,8.622,-4.542,1.656,-0.335874,-0.066508,0.622267,99822.79,-209,+89,-41
46127,8.536,-4.267,1.872,-0.301287,-0.057994,0.591937,99824.46,-209,+87,-41
46137,8.359,-4.375,1.599,-0.244351,-0.061719,0.574909,99824.46,-210,+87,-42
46147,8.293,-4.724,1.153,-0.194865,-0.063315,0.540322,99826.11,-210,+85,-43
46157,8.335,-5.003,1.181,-0.198058,-0.050544,0.492964,99827.41,-210,+83,-42
46167,8.474,-4.800,1.733,-0.252865,-0.037242,0.455717,99824.03,-210,+83,-42
46177,8.524,-4.530,2.035,-0.283195,-0.040434,0.424322,99824.86,-210,+82,-43
46187,8.498,-4.360,1.762,-0.260315,-0.067040,0.412084,99824.86,-210,+80,-42
46197,8.471,-4.321,1.447,-0.204975,-0.113333,0.406230,99825.29,-211,+80,-42
46206,8.402,-4.614,1.301,-0.132076,-0.149517,0.395056,99827.99,-211,+80,-42
46217,8.313,-4.850,1.274,-0.110260,-0.167076,0.378029,99822.32,-210,+78,-43
46227,8.237,-5.051,1.183,-0.133672,-0.161755,0.358340,99824.30,-210,+76,-43
46237,8.319,-5.161,0.932,-0.192737,-0.142067,0.333331,99824.30,-210,+76,-43
46246,8.559,-5.067,0.930,-0.278938,-0.111205,0.314707,99827.42,-210,+76,-43
46257,8.754,-4.854,0.983,-0.336938,-0.084067,0.312047,99827.47,-209,+75,-44
46267,8.841,-4.536,1.120,-0.357158,-0.073425,0.325350,99824.19,-210,+75,-43
46272,8.759,-4.382,1.170,-0.350241,-0.077150,0.342909,99823.61,-210,+75,-43
46282,8.663,-4.366,1.104,-0.312993,-0.094177,0.364726,99823.61,-211,+73,-43
46292,8.765,-4.275,0.896,-0.250737,-0.128765,0.399313,99823.61,-211,+72,-44
46302,8.786,-4.289,1.162,-0.194333,-0.164416,0.443478,99825.49,-211,+72,-44
46312,8.645,-4.529,1.425,-0.164535,-0.196342,0.500946,99825.02,-210,+70,-44
46322,8.708,-4.684,1.393,-0.178370,-0.209113,0.561606,99823.23,-210,+68,-45
46332,8.729,-4.654,1.431,-0.232645,-0.216563,0.633973,99823.23,-210,+67,-45
46342,8.667,-4.516,1.616,-0.291177,-0.225609,0.706872,99825.09,-210,+67,-46
46352,8.562,-4.103,1.788,-0.344920,-0.262856,0.796799,99825.09,-210,+65,-46
46362,8.547,-3.772,1.829,-0.320975,-0.336819,0.890982,99825.98,-210,+63,-47
46372,8.835,-3.988,1.543,-0.218810,-0.431003,0.983037,99823.69,-210,+59,-48
46382,9.086,-4.898,1.298,-0.120370,-0.524654,1.054872,99824.05,-210,+55,-49
46392,9.130,-5.755,1.329,-0.124627,-0.579462,1.104358,99824.05,-210,+55,-49
46402,9.382,-5.965,1.292,-0.243819,-0.594893,1.141074,99825.54,-209,+51,-51
46412,9.748,-5.251,1.349,-0.370993,-0.625223,1.208120,99821.54,-208,+47,-53
46423,10.058,-4.715,1.150,-0.393342,-0.706104,1.296450,99824.40,-207,+43,-55
46432,10.396,-4.813,1.198,-0.336406,-0.832746,1.398615,99820.85,-207,+43,-55
46442,10.881,-5.512,1.092,-0.281067,-0.960984,1.491734,99827.10,-206,+38,-58
46452,11.388,-6.066,0.979,-0.292773,-1.073259,1.573147,99823.98,-204,+34,-61
46462,11.377,-6.375,1.276,-0.347048,-1.159461,1.665202,99823.13,-202,+28,-64
46472,11.468,-6.472,1.577,-0.423672,-1.227039,1.759385,99823.13,-202,+28,-64
46482,12.202,-6.700,1.665,-0.516791,-1.282911,1.851972,99821.99,-199,+22,-68
46492,13.607,-6.773,1.667,-0.631727,-1.338782,1.961587,99821.99,-196,+17,-73
46502,15.580,-6.920,2.191,-0.733892,-1.436690,2.075459,99825.65,-193,+11,-78
46508,16.360,-7.150,3.588,-0.782314,-1.528745,2.163789,99825.71,-193,+11,-78
46517,16.782,-7.459,3.971,-0.846167,-1.528213,2.288302,99823.73,-187,+5,-82
46527,18.184,-7.777,3.531,-1.029745,-1.462764,2.443146,99824.29,-187,+5,-82
46537,19.419,-7.248,4.025,-1.281433,-1.400507,2.551165,99824.29,-183,+0,-86
46547,19.790,-6.066,5.602,-1.563451,-1.312177,2.687385,99825.42,-178,-6,-90
46557,18.911,-6.126,6.113,-1.899745,-1.256837,2.863513,99823.44,-173,-11,-95
46567,18.455,-6.084,5.456,-2.282332,-1.206287,3.037513,99823.70,-173,-11,-95
46577,18.292,-5.299,4.426,-2.789964,-1.154140,3.152449,99821.83,-167,-15,-99
46587,16.014,-4.301,2.537,-3.327395,-1.049847,3.158302,99821.83,-161,-19,-105
46597,11.980,-6.374,0.405,-3.693487,-1.005149,3.128504,99825.45,-155,-21,-110
46607,10.806,-7.414,3.828,-3.629634,-0.987590,2.880541,99821.90,-150,-21,-115
46617,11.856,-8.000,3.342,-3.230551,-0.879039,2.554357,99821.80,-150,-21,-115
46627,11.438,-8.937,2.053,-2.995891,-1.020048,2.442082,99823.88,-144,-21,-120
46637,10.554,-7.982,2.802,-2.371194,-1.112103,2.340449,99823.88,-139,-21,-124
46647,7.803,-5.175,4.921,-1.769378,-0.862012,2.101532,99821.67,-134,-21,-127
46657,6.199,-0.542,6.519,-1.595378,-0.378856,1.630083,99822.50,-134,-21,-127
46667,6.816,2.858,5.376,-1.749158,0.069712,1.035184,99822.19,-133,-21,-128
46678,6.652,2.508,4.337,-1.759800,0.240520,0.794670,99819.75,-132,-18,-130
46687,5.754,2.981,3.461,-1.325066,0.285749,0.472744,99819.75,-132,-16,-130
46697,5.020,3.646,3.450,-0.770076,0.448575,-0.024246,99821.62,-132,-16,-130
46707,4.604,3.651,3.526,-0.219342,0.633749,-0.403641,99822.71,-132,-13,-129
46717,4.000,3.107,2.937,0.269667,0.746024,-0.717053,99820.84,-135,-11,-127
46727,3.542,2.374,2.316,0.741648,0.807749,-1.022484,99818.80,-139,-10,-125
46737,3.283,1.576,1.853,1.266308,0.860427,-1.339622,99818.80,-139,-10,-125
46747,3.190,0.879,1.619,1.756914,0.954079,-1.680172,99821.53,-141,-8,-122
46757,3.401,0.291,1.612,2.098528,1.092959,-2.030833,99819.13,-144,-7,-119
46767,3.902,-0.238,1.611,2.254968,1.264831,-2.362337,99820.95,-148,-5,-116
46777,4.227,-0.694,1.526,2.283170,1.451069,-2.651272,99816.84,-148,-5,-116
46787,4.407,-1.106,1.453,2.277849,1.649546,-2.907749,99816.84,-153,-1,-111
46797,4.665,-1.412,1.602,2.270399,1.857601,-3.154116,99821.03,-159,+3,-106
46808,5.087,-1.876,1.752,2.237941,2.067785,-3.402079,99819.52,-162,+9,-101
46817,5.632,-2.450,1.807,2.159721,2.282225,-3.661217,99817.64,-162,+9,-101
46827,6.310,-2.993,1.645,2.010198,2.491344,-3.909180,99818.02,-169,+16,-95
46837,7.021,-3.233,1.440,1.803739,2.722280,-4.123620,99818.02,-173,+26,-90
46848,7.996,-3.233,1.137,1.622822,2.959600,-4.307730,99820.42,-179,+36,-83
46857,9.163,-3.157,0.792,1.546730,3.178298,-4.474813,99819.75,-179,+36,-83
46867,10.510,-3.114,0.524,1.540877,3.361876,-4.634445,99819.33,-185,+45,-75
46877,11.878,-3.290,0.371,1.572271,3.507674,-4.787161,99820.38,-189,+57,-67
46887,13.285,-3.497,0.294,1.616437,3.596004,-4.923913,99820.38,-194,+69,-58
46897,14.818,-3.731,0.317,1.704767,3.624738,-5.042573,99820.59,-194,+69,-58
46907,16.818,-4.304,0.424,1.894730,3.597068,-5.125583,99819.65,-198,+83,-48
46917,19.448,-5.546,0.284,2.206546,3.487986,-5.157509,99822.62,-200,+99,-37
46927,21.795,-7.927,-0.127,2.629041,3.285252,-5.116004,99820.90,-200,+114,-29
46937,22.619,-11.328,-0.782,3.077078,3.044738,-5.020225,99820.90,-200,+114,-29
46947,21.717,-14.524,-1.662,3.370270,2.808481,-4.868042,99821.32,-197,+130,-22
46957,19.873,-17.187,-2.301,3.467114,2.587656,-4.593473,99822.52,-192,+146,-16
46967,17.607,-19.974,-2.643,3.455940,2.343417,-4.177895,99821.63,-185,+159,-12
46978,15.431,-23.191,-3.416,3.311206,2.070977,-3.711767,99823.71,-185,+159,-12
46987,11.852,-26.090,-5.864,2.908399,1.757564,-3.275437,99823.71,-177,+170,-11
46997,7.246,-30.526,-10.189,2.174620,1.622941,-2.847621,99829.27,-171,+179,-11
47007,2.412,-32.805,-12.118,1.071024,1.522372,-2.217603,99826.61,-166,+186,-8
47017,1.014,-29.919,-10.650,-0.109727,1.152556,-1.270980,99825.83,-166,+186,-8
47027,3.618,-23.691,-7.163,-1.034002,0.499657,-0.183879,99826.34,-164,+189,-5
47037,6.701,-19.795,-4.159,-1.424571,-0.181976,0.934083,99826.34,-164,+189,-3
47047,9.981,-17.749,-2.207,-1.332516,-0.744948,1.801954,99824.59,-167,+184,-3
47057,11.238,-14.282,-3.607,-0.881287,-1.114764,2.206357,99823.07,-167,+184,-3
47068,12.155,-8.003,-2.859,-0.708351,-1.687846,2.522431,99821.77,-170,+178,-4
47077,23.276,16.535,11.972,0.225502,-1.703277,1.632743,99821.09,-174,+172,-9
47087,29.311,30.258,8.087,0.023300,-1.177553,0.614817,99821.09,-174,+170,-12
47097,15.255,-5.816,-5.320,-0.715268,-1.555706,2.638431,99825.99,-177,+162,-16
47108,9.287,-16.515,-7.086,0.910859,-2.360965,3.195550,99824.32,-177,+162,-16
47117,8.049,-12.338,0.062,2.563060,-2.263057,2.617146,99824.37,-179,+152,-26
47127,6.914,-9.629,0.599,1.770748,-1.511186,2.425587,99824.37,-181,+143,-32
47137,8.353,-10.170,-2.038,1.024198,-1.018452,2.383550,99824.37,-184,+135,-36
47148,7.833,-8.826,0.623,0.711850,-0.890746,2.171238,99825.89,-184,+135,-36
47157,8.328,-8.714,1.660,0.408547,-0.849773,1.919018,99828.70,-184,+128,-39
47167,8.711,-6.221,0.353,-0.171452,-0.857223,1.682762,99823.55,-185,+123,-41
47177,8.476,-4.194,1.037,-0.587562,-0.759315,1.552395,99825.22,-186,+119,-42
47187,8.104,-4.972,0.904,-0.647690,-0.669388,1.477899,99825.22,-186,+119,-42
47198,8.382,-4.041,1.088,-0.700369,-0.582654,1.376266,99826.63,-187,+114,-44
47207,9.208,-3.171,0.998,-0.668975,-0.486874,1.333165,99825.02,-188,+110,-44
47217,9.360,-3.797,-0.130,-0.494443,-0.478361,1.299110,99822.73,-189,+108,-45
47227,9.197,-3.369,0.220,-0.312461,-0.466654,1.244303,99825.85,-189,+108,-45
47238,8.932,-3.372,1.034,-0.207636,-0.430471,1.209716,99825.85,-190,+104,-46
47247,8.616,-3.928,1.623,-0.070351,-0.429407,1.134688,99828.63,-191,+100,-47
47257,8.552,-4.338,2.096,-0.087379,-0.416636,1.046890,99827.33,-190,+98,-48
47267,8.264,-5.143,2.446,-0.235837,-0.373003,0.972395,99822.89,-190,+98,-48
47278,8.121,-5.763,2.519,-0.439636,-0.293186,0.875551,99820.61,-191,+95,-49
47287,8.181,-5.370,2.191,-0.634920,-0.214434,0.776047,99820.61,-191,+93,-49
47297,8.424,-4.220,1.772,-0.700901,-0.169205,0.698359,99826.59,-191,+91,-49
47307,8.574,-3.767,1.412,-0.586498,-0.177719,0.652597,99825.65,-191,+91,-49
47318,8.755,-3.696,1.036,-0.384296,-0.212838,0.624927,99824.60,-192,+90,-49
47328,8.716,-4.183,1.045,-0.245948,-0.230398,0.607368,99822.05,-191,+88,-49
47337,8.420,-4.912,1.159,-0.235305,-0.204856,0.587680,99822.05,-192,+87,-49
47347,8.406,-5.188,1.402,-0.334278,-0.139939,0.555221,99822.37,-192,+87,-49
47357,8.512,-4.924,1.690,-0.456131,-0.084067,0.526487,99827.32,-192,+85,-50
47368,8.518,-4.429,1.995,-0.501892,-0.062251,0.509992,99824.35,-193,+84,-51
47377,8.461,-4.295,1.965,-0.464645,-0.076618,0.511056,99822.99,-193,+83,-50
47387,8.357,-4.416,1.704,-0.386425,-0.103755,0.515845,99822.99,-193,+83,-50
47397,8.292,-4.602,1.596,-0.328957,-0.125572,0.522762,99823.92,-193,+82,-51
47408,8.111,-4.817,1.539,-0.310333,-0.131957,0.536065,99822.20,-193,+80,-51
47417,8.078,-4.777,1.334,-0.311929,-0.137278,0.547239,99823.77,-192,+78,-51
47427,8.137,-4.480,1.243,-0.289048,-0.167076,0.561074,99823.61,-192,+78,-51
47437,8.212,-4.261,1.334,-0.226792,-0.214434,0.580762,99823.61,-193,+77,-51
47448,8.469,-4.328,0.855,-0.165599,-0.266581,0.602047,99827.81,-193,+75,-51
47458,8.807,-4.733,0.203,-0.114516,-0.308086,0.596193,99826.30,-193,+74,-52
47467,9.131,-4.712,0.318,-0.122498,-0.310214,0.611625,99825.72,-193,+74,-52
47477,9.088,-4.759,0.222,-0.140590,-0.299040,0.639827,99822.95,-193,+72,-53
47488,8.910,-4.603,0.530,-0.152828,-0.303297,0.673349,99822.95,-193,+70,-53
47498,8.638,-4.542,1.017,-0.142718,-0.321388,0.714322,99825.24,-192,+67,-54
47507,8.494,-4.736,1.189,-0.118241,-0.342673,0.760083,99824.82,-192,+67,-54
47517,8.347,-4.872,1.252,-0.121434,-0.368214,0.809570,99823.16,-192,+65,-56
47527,8.412,-4.971,1.441,-0.136865,-0.388434,0.857992,99822.85,-192,+62,-57
47538,8.510,-5.317,1.612,-0.150168,-0.417700,0.895239,99822.85,-192,+60,-58
47548,8.560,-6.008,1.952,-0.179966,-0.429939,0.924505,99826.59,-192,+60,-58
47557,8.527,-6.372,1.936,-0.282131,-0.421425,0.960157,99826.95,-191,+57,-59
47567,8.564,-6.052,1.883,-0.407177,-0.415040,0.993679,99824.35,-192,+55,-61
47578,8.919,-5.390,1.815,-0.492314,-0.432067,1.051147,99825.13,-191,+51,-62
47587,9.639,-4.793,1.529,-0.499232,-0.498049,1.135221,99825.13,-191,+51,-62
47597,10.283,-4.435,0.812,-0.444425,-0.592764,1.242175,99825.88,-191,+48,-62
47607,11.031,-4.371,-0.127,-0.347581,-0.717278,1.352321,99827.18,-189,+45,-65
47618,11.560,-4.720,-0.582,-0.261911,-0.850305,1.456083,99825.57,-187,+40,-68
47628,11.686,-5.044,-0.415,-0.217214,-0.967370,1.563037,99822.96,-186,+36,-70
47637,11.738,-5.297,0.460,-0.207104,-1.090287,1.677441,99822.96,-186,+36,-70
47647,11.778,-5.942,1.728,-0.224663,-1.211076,1.791844,99824.67,-184,+32,-74
47657,12.029,-6.589,2.582,-0.312993,-1.301002,1.927532,99824.83,-182,+25,-77
47668,13.536,-7.005,3.021,-0.460920,-1.389865,2.050449,99821.34,-178,+21,-81
47678,15.044,-7.771,4.837,-0.607250,-1.522892,2.161660,99823.73,-178,+21,-81
47688,16.095,-8.473,5.105,-0.795440,-1.537969,2.325905,99823.73,-175,+15,-85
47697,17.598,-9.174,4.030,-1.038259,-1.488837,2.430376,99823.78,-171,+9,-90
47708,20.076,-8.167,4.909,-1.391580,-1.404232,2.506468,99822.58,-167,+5,-94
47718,21.095,-7.267,5.881,-1.828442,-1.254177,2.642155,99822.31,-167,+5,-94
47727,20.902,-6.854,6.175,-2.272222,-1.101993,2.854999,99822.94,-162,+2,-98
47737,20.470,-6.095,6.017,-2.717597,-0.991314,3.088063,99822.94,-159,-1,-103
47748,19.531,-4.420,4.823,-3.229487,-0.891278,3.231733,99821.95,-154,-3,-107
47758,16.721,-3.302,2.610,-3.715835,-0.761443,3.256210,99822.73,-154,-3,-107
47767,12.570,-4.903,1.398,-4.005303,-0.715682,3.162559,99823.20,-148,-3,-111
47777,10.568,-6.890,4.046,-3.935065,-0.663003,2.809238,99822.30,-144,-2,-114
47788,11.536,-7.474,3.622,-3.617395,-0.496985,2.375036,99822.30,-141,+0,-118
47798,12.083,-8.903,1.608,-3.425836,-0.673113,2.218064,99823.57,-141,+0,-118
47808,10.484,-8.523,1.276,-2.774001,-0.963645,2.305330,99824.35,-137,+1,-121
47817,6.648,-7.127,2.552,-1.851323,-0.930122,2.265422,99825.18,-132,+1,-125
47827,4.001,-4.088,4.589,-1.193103,-0.570416,1.903055,99820.76,-130,+0,-127
47838,4.181,1.080,4.446,-1.044644,-0.042563,1.204927,99820.76,-130,+0,-127
47848,4.623,2.113,1.827,-1.286754,0.320868,0.700487,99823.65,-128,+0,-127
47857,3.581,0.734,1.630,-1.213855,0.410263,0.603111,99821.73,-128,+1,-128
47867,2.857,1.983,2.327,-0.918534,0.638538,0.102396,99822.24,-128,+4,-126
47878,3.119,3.934,2.975,-0.602993,0.903528,-0.441953,99821.04,-128,+4,-126
47888,2.881,4.254,2.831,-0.194865,1.012079,-0.740466,99821.04,-129,+7,-124
47897,2.298,3.018,1.952,0.223905,1.010482,-0.958099,99825.22,-132,+10,-122
47907,1.719,1.483,0.830,0.660235,0.974831,-1.191163,99822.67,-134,+11,-119
47918,1.340,0.634,0.372,1.177446,0.977492,-1.452429,99821.27,-134,+11,-119
47923,1.380,0.543,0.538,1.600473,1.026446,-1.689750,99819.50,-135,+13,-117
47933,1.890,0.489,0.788,1.978271,1.113712,-1.938245,99819.50,-139,+15,-114
47942,2.609,0.437,1.204,2.326271,1.254721,-2.271346,99819.50,-139,+15,-114
47952,3.207,0.241,1.529,2.445463,1.426060,-2.585823,99820.73,-141,+16,-109
47963,3.441,-0.229,1.679,2.428968,1.612831,-2.838575,99819.84,-144,+19,-104
47973,3.629,-0.811,1.885,2.422051,1.807051,-3.046098,99818.98,-148,+24,-100
47983,4.182,-1.546,2.224,2.438014,2.001803,-3.270116,99818.98,-148,+24,-100
47992,4.989,-2.697,2.437,2.433757,2.181656,-3.485620,99821.17,-152,+28,-94
48003,5.486,-3.983,2.392,2.361390,2.365766,-3.711235,99821.17,-155,+36,-87
48013,6.021,-4.714,2.165,2.198565,2.559454,-3.940042,99817.89,-159,+45,-80
48023,6.705,-4.754,2.013,1.968693,2.776555,-4.144904,99817.63,-159,+45,-80
48032,7.741,-4.624,1.878,1.758510,2.997380,-4.308794,99819.19,-160,+54,-72
48043,8.917,-4.629,1.777,1.643042,3.206499,-4.457785,99819.19,-161,+66,-67
48053,10.295,-4.922,1.771,1.614308,3.404444,-4.584427,99818.92,-162,+78,-59
48063,11.778,-5.434,1.857,1.631336,3.577912,-4.687124,99818.34,-162,+78,-59
48073,13.184,-6.149,1.954,1.646235,3.719985,-4.768537,99817.83,-162,+90,-51
48082,14.726,-7.042,1.711,1.615372,3.820554,-4.835583,99820.33,-160,+103,-44
48093,16.529,-8.596,1.321,1.608455,3.865251,-4.845693,99822.16,-159,+114,-37
48103,18.113,-10.692,0.779,1.696253,3.857802,-4.812702,99824.10,-159,+114,-37
48113,19.028,-12.793,-0.297,1.812785,3.811508,-4.722243,99820.09,-156,+126,-30
48122,19.407,-14.549,-2.142,1.916014,3.689655,-4.530152,99820.09,-153,+136,-24
48133,18.789,-15.907,-4.218,1.995299,3.434775,-4.249730,99820.40,-150,+147,-21
48143,17.514,-17.008,-5.267,2.090546,3.068151,-3.891620,99820.40,-150,+147,-21
48153,16.423,-17.979,-4.845,2.207078,2.658958,-3.470189,99822.27,-146,+156,-17
48162,15.352,-18.757,-5.699,2.267739,2.219968,-3.026942,99822.79,-144,+162,-17
48173,12.448,-20.260,-7.935,2.242730,1.759693,-2.545382,99826.29,-143,+167,-17
48183,8.561,-22.969,-11.304,2.131519,1.364335,-1.982410,99825.13,-143,+167,-17
48193,5.816,-24.623,-12.431,1.796290,0.924281,-1.281622,99825.13,-142,+170,-18
48203,5.015,-23.143,-12.143,1.130620,0.327253,-0.273806,99826.48,-141,+170,-20
48212,7.073,-20.469,-11.165,0.503263,-0.368746,0.785092,99827.52,-143,+168,-22
48223,11.118,-16.498,-8.459,0.232419,-0.914159,1.531110,99826.22,-143,+168,-22
48233,10.352,-14.871,-10.065,0.024364,-1.606966,2.116963,99826.22,-145,+163,-26
48242,12.758,-4.560,2.007,0.359061,-1.903351,2.136119,99826.22,-148,+156,-31
48252,21.699,17.497,19.377,1.022070,-1.330801,1.127771,99825.20,-148,+154,-37
48263,24.317,20.552,7.900,-0.195397,-0.504434,0.602579,99820.09,-148,+154,-37
48273,13.093,-8.816,-6.132,-1.519286,-1.049847,2.270211,99822.43,-150,+150,-36
48278,9.894,-19.396,-9.089,-0.281067,-1.704342,2.666101,99823.32,-153,+143,-40
48287,10.120,-15.139,-3.064,1.018877,-1.863975,2.072798,99823.32,-153,+143,-40
48297,8.815,-7.496,0.645,0.602235,-1.301535,1.623697,99824.33,-153,+137,-46
48308,11.207,-6.278,1.319,0.097795,-0.782195,1.831752,99827.23,-155,+131,-48
48318,9.302,-9.208,1.060,0.206346,-0.915755,1.822706,99826.72,-156,+127,-50
48328,7.768,-7.487,1.282,-0.202847,-0.924801,1.507165,99822.81,-156,+127,-50
48337,8.434,-4.429,1.572,-0.696112,-0.817847,1.362964,99822.81,-157,+123,-53
48348,8.510,-3.020,1.406,-0.622149,-0.825828,1.284211,99825.96,-158,+120,-53
48358,8.479,-3.653,1.723,-0.390681,-0.798159,1.180982,99821.74,-157,+117,-54
48368,8.759,-3.291,1.680,-0.432718,-0.771553,1.132560,99825.60,-157,+117,-54
48377,8.789,-2.843,0.744,-0.534883,-0.699718,1.095845,99823.46,-159,+114,-56
48388,8.934,-2.568,0.612,-0.457195,-0.578397,1.090523,99823.46,-159,+112,-57
48398,9.285,-1.910,1.843,-0.271489,-0.525186,1.106487,99826.60,-159,+109,-59
48408,9.080,-2.221,2.522,-0.033104,-0.577333,1.127771,99825.51,-159,+109,-59
48417,8.469,-3.353,3.060,0.121740,-0.641186,1.116065,99824.20,-160,+106,-60
48428,8.019,-4.928,3.287,0.026493,-0.617773,1.075624,99824.88,-160,+103,-61
48438,8.051,-5.491,2.833,-0.239562,-0.542746,1.004854,99824.88,-160,+100,-62
48448,8.505,-4.284,2.521,-0.477947,-0.452819,0.927698,99825.09,-160,+100,-62
48458,8.779,-3.745,2.078,-0.517324,-0.414508,0.883533,99824.00,-160,+97,-62
48467,8.759,-3.485,1.671,-0.395470,-0.436324,0.845753,99826.30,-160,+95,-64
48478,8.730,-3.451,1.645,-0.225195,-0.462929,0.821276,99822.75,-160,+94,-65
48488,8.475,-3.816,1.606,-0.057581,-0.491131,0.787221,99822.75,-160,+94,-65
48498,8.170,-4.794,1.425,0.030750,-0.508691,0.730817,99823.73,-160,+91,-67
48507,8.269,-5.346,1.322,-0.042682,-0.478893,0.652597,99826.70,-160,+89,-67
48514,8.522,-5.263,1.197,-0.173581,-0.410251,0.603643,99824.93,-160,+89,-67
48523,8.700,-5.153,0.876,-0.299159,-0.335755,0.573313,99824.93,-160,+89,-68
48533,9.186,-4.513,0.955,-0.416223,-0.269242,0.534469,99822.27,-160,+87,-69
48543,9.324,-3.760,1.294,-0.456131,-0.227737,0.530744,99822.27,-160,+86,-69
48553,9.070,-3.853,1.410,-0.398663,-0.231994,0.545643,99825.37,-160,+86,-69
48563,8.607,-4.028,1.571,-0.320443,-0.252746,0.554689,99823.55,-160,+85,-69
48573,8.321,-4.396,1.666,-0.268296,-0.266581,0.552561,99824.43,-159,+84,-69
48583,8.120,-4.802,1.796,-0.256058,-0.272434,0.538726,99824.43,-160,+82,-70
48592,8.032,-5.032,1.801,-0.277874,-0.260196,0.515845,99824.43,-160,+82,-70
48603,8.140,-4.940,1.628,-0.306608,-0.255939,0.489239,99826.09,-160,+81,-71
48613,8.193,-4.839,1.674,-0.310333,-0.263920,0.469551,99825.73,-160,+80,-72
48623,8.219,-5.043,1.680,-0.320975,-0.262324,0.456249,99826.66,-160,+79,-72
48633,8.419,-4.967,1.369,-0.363544,-0.252746,0.440285,99822.24,-160,+79,-72
48643,8.542,-4.746,1.076,-0.396535,-0.235719,0.434964,99822.24,-160,+80,-72
48653,8.511,-4.785,0.841,-0.401856,-0.226673,0.438157,99825.21,-160,+78,-72
48663,8.450,-4.709,0.754,-0.392810,-0.221352,0.437093,99824.52,-160,+76,-72
48673,8.403,-4.621,0.763,-0.369929,-0.222948,0.437093,99824.76,-160,+76,-72
48683,8.284,-4.656,0.719,-0.345452,-0.228801,0.448799,99824.76,-160,+76,-74
48693,8.012,-4.624,0.864,-0.315122,-0.240508,0.464762,99824.12,-160,+76,-74
48703,7.638,-4.598,1.048,-0.293305,-0.246361,0.493496,99824.07,-160,+74,-75
48713,7.669,-4.619,1.199,-0.264039,-0.257535,0.523827,99824.07,-160,+74,-75
48722,7.965,-4.437,1.839,-0.222535,-0.280416,0.548304,99824.32,-159,+74,-75
48733,8.216,-4.171,2.430,-0.126223,-0.315535,0.588744,99823.76,-159,+72,-76
48743,8.009,-3.751,2.706,0.032346,-0.357040,0.655790,99823.76,-159,+70,-76
48753,7.474,-3.878,2.452,0.249979,-0.451755,0.723900,99827.68,-159,+70,-76
48763,6.956,-4.246,2.130,0.487300,-0.562966,0.778707,99824.98,-158,+67,-78
48773,7.006,-5.360,1.355,0.593189,-0.626819,0.820212,99820.65,-158,+64,-80
48783,8.159,-6.192,-0.318,0.476125,-0.635865,0.838836,99821.54,-157,+61,-81
48793,9.618,-7.228,-2.154,0.196236,-0.625755,0.796799,99827.20,-157,+61,-81
48803,11.027,-5.400,-1.424,-0.111856,-0.546471,0.803184,99826.16,-157,+58,-83
48814,10.684,-4.247,-0.833,-0.248076,-0.501241,0.906946,99822.67,-157,+56,-85
48823,9.891,-3.441,-0.139,-0.141654,-0.581590,1.006982,99822.92,-155,+54,-85
48833,9.599,-3.566,0.958,0.074383,-0.746012,1.102762,99822.92,-154,+54,-85
48843,9.104,-5.358,1.438,0.275520,-0.917883,1.174065,99822.92,-154,+51,-88
48852,8.675,-6.868,1.976,0.267538,-1.022177,1.213973,99824.48,-152,+46,-90
48863,8.914,-7.526,2.334,0.096731,-1.046654,1.227276,99825.58,-151,+43,-92
48869,9.336,-7.827,2.200,-0.053324,-1.054103,1.228340,99822.72,-151,+43,-92
48878,9.947,-7.903,1.872,-0.196993,-1.053039,1.227276,99822.72,-148,+40,-95
48888,10.973,-7.837,1.762,-0.363012,-1.063681,1.231532,99822.72,-148,+36,-97
48898,11.670,-8.214,2.613,-0.465709,-1.092415,1.236321,99824.93,-148,+36,-97
48908,11.807,-8.458,2.671,-0.580645,-1.063149,1.283147,99824.10,-145,+35,-100
48918,12.531,-8.477,1.238,-0.788167,-0.988122,1.341679,99823.32,-143,+32,-102
48928,13.704,-7.791,0.658,-1.027085,-0.968434,1.382120,99823.68,-143,+30,-104
48937,14.538,-7.153,0.818,-1.246846,-0.955663,1.445441,99823.68,-143,+30,-104
48948,15.465,-6.160,0.982,-1.443727,-0.965241,1.544945,99825.80,-140,+28,-107
48958,16.261,-4.916,1.402,-1.558130,-1.028030,1.668395,99827.14,-138,+26,-109
48968,16.715,-4.016,2.152,-1.570901,-1.121149,1.814725,99824.64,-136,+24,-111
48978,16.854,-3.993,3.084,-1.566644,-1.219590,1.970101,99819.95,-136,+24,-111
48988,16.939,-4.207,4.303,-1.621983,-1.254709,2.119624,99819.95,-133,+22,-114
48998,16.460,-4.708,4.887,-1.782148,-1.227039,2.269679,99826.84,-130,+19,-117
49008,15.478,-4.711,4.805,-2.043947,-1.175957,2.384082,99823.34,-127,+15,-120
49018,14.063,-4.641,4.001,-2.296166,-1.106782,2.404835,99821.53,-127,+15,-120
49028,12.646,-6.378,2.044,-2.382368,-1.061021,2.411220,99821.47,-125,+15,-124
49038,10.930,-8.765,-0.534,-2.327029,-1.131791,2.424523,99821.47,-122,+14,-127
49048,9.384,-9.575,-0.776,-2.220075,-1.206819,2.338321,99826.05,-117,+12,-129
49058,8.789,-9.224,-0.101,-2.090772,-1.155736,2.113770,99823.87,-117,+12,-129
49068,7.551,-9.315,-0.352,-2.146644,-1.051443,1.999899,99823.55,-115,+11,-132
49078,6.597,-8.963,0.779,-2.068424,-0.966305,1.994578,99823.55,-112,+11,-136
49088,5.291,-6.981,2.263,-1.774699,-0.855094,1.936578,99823.55,-109,+11,-138
49098,4.265,-2.880,4.121,-1.348479,-0.664599,1.698193,99824.13,-108,+9,-140
49103,3.470,0.572,5.149,-1.067525,-0.456012,1.352854,99820.85,-108,+9,-140
49113,3.943,2.767,4.906,-0.914810,-0.238911,0.912799,99820.85,-106,+9,-141
49123,3.549,2.220,2.140,-1.001011,-0.048416,0.494028,99824.24,-106,+9,-141
49133,1.726,0.647,2.082,-0.980259,0.090465,0.341845,99821.52,-107,+11,-142
49143,1.496,2.116,2.858,-0.635984,0.352263,-0.113641,99821.52,-109,+10,-145
49154,2.139,3.728,2.571,-0.384296,0.633217,-0.660118,99820.70,-109,+15,-142
49163,2.365,3.624,1.740,-0.167195,0.760391,-0.971402,99819.76,-109,+15,-142
49173,2.139,2.471,0.793,0.187722,0.772629,-1.231604,99818.35,-112,+15,-141
49183,2.148,0.900,0.307,0.608621,0.819455,-1.503512,99818.35,-114,+17,-140
49193,2.318,0.150,0.112,0.983226,0.912574,-1.792979,99818.35,-117,+19,-138
49203,2.622,0.072,0.179,1.313134,1.066354,-2.102667,99823.43,-117,+19,-138
49213,3.334,-0.014,0.532,1.536620,1.239822,-2.358080,99820.46,-121,+19,-136
49223,4.182,-0.500,0.758,1.716473,1.380831,-2.543254,99821.87,-125,+21,-133
49233,4.902,-1.595,0.677,1.861739,1.516519,-2.696502,99820.51,-129,+22,-130
49244,5.409,-2.886,0.289,1.885152,1.675620,-2.844428,99820.51,-129,+22,-130
49253,5.784,-4.097,-0.181,1.769684,1.856005,-3.006190,99822.43,-134,+24,-127
49263,6.326,-5.037,-0.592,1.598877,2.027344,-3.151456,99821.07,-139,+28,-122
49273,7.073,-5.394,-0.952,1.485538,2.194427,-3.287676,99819.66,-145,+32,-117
49284,8.183,-5.086,-1.395,1.487666,2.295527,-3.377070,99819.66,-145,+32,-117
49294,9.166,-4.620,-2.074,1.635060,2.300849,-3.404208,99823.72,-150,+38,-113
49303,9.833,-4.399,-2.912,1.903776,2.194427,-3.387712,99823.72,-155,+43,-109
49313,10.351,-4.873,-3.571,2.278913,2.015638,-3.377070,99820.50,-159,+47,-104
49324,11.028,-6.587,-3.861,2.685445,1.854408,-3.425492,99820.97,-162,+47,-100
49333,11.714,-8.365,-3.904,2.942454,1.719785,-3.521804,99821.95,-162,+52,-100
49343,11.962,-9.299,-3.599,2.998858,1.617087,-3.588850,99821.95,-166,+57,-98
49353,11.965,-9.301,-2.908,2.969059,1.502684,-3.609602,99824.09,-169,+62,-95
49363,12.196,-9.291,-2.392,2.961610,1.307400,-3.574483,99825.08,-171,+66,-93
49374,12.587,-10.279,-2.297,3.036105,1.019528,-3.465400,99821.55,-171,+66,-93
49383,12.400,-11.786,-2.498,3.093041,0.740703,-3.357382,99824.28,-173,+71,-92
49393,11.835,-12.732,-2.437,2.989280,0.549143,-3.245107,99825.64,-173,+76,-92
49403,11.188,-13.385,-2.057,2.760473,0.416648,-3.060997,99821.63,-172,+81,-93
49414,10.529,-14.010,-1.472,2.569445,0.303841,-2.818887,99824.02,-172,+81,-93
49423,9.706,-14.368,-1.139,2.441739,0.185712,-2.553364,99824.02,-171,+84,-93
49433,8.705,-14.146,-0.982,2.364051,0.067584,-2.261236,99826.78,-172,+88,-95
49443,7.871,-13.772,-1.280,2.301262,-0.045223,-1.953676,99826.78,-169,+89,-96
49454,7.004,-13.511,-1.943,2.206014,-0.131957,-1.634943,99828.59,-169,+89,-96
49463,6.672,-13.220,-2.258,2.084693,-0.195278,-1.300246,99822.70,-169,+91,-98
49473,6.800,-12.303,-2.249,1.986785,-0.274031,-1.025145,99825.04,-168,+91,-99
49483,7.481,-11.010,-1.797,1.947941,-0.390030,-0.791017,99825.71,-168,+89,-103
49494,8.228,-9.976,-1.144,2.012858,-0.555517,-0.572852,99825.71,-168,+89,-103
49504,6.434,-10.657,-0.631,2.073519,-0.730049,-0.206760,99824.54,-165,+87,-104
49513,5.563,-10.326,0.441,2.209207,-0.872654,0.096542,99823.01,-164,+82,-109
49523,5.102,-11.034,0.584,2.233684,-0.915223,0.352487,99823.01,-162,+76,-111
49533,4.872,-12.228,0.101,2.121409,-0.973223,0.699955,99823.01,-162,+76,-111
49543,7.326,-10.053,1.860,1.984657,-0.920012,0.825533,99823.01,-160,+70,-114
49553,15.412,-5.554,3.053,1.710620,-0.864672,0.625992,99824.34,-160,+65,-117
49563,19.654,-6.471,2.434,0.918841,-0.818379,0.785625,99826.57,-159,+61,-119
49573,16.502,-11.823,0.787,0.031814,-0.494856,1.573147,99824.49,-159,+61,-119
49584,10.782,-9.067,-2.775,-0.340663,-0.422489,1.700853,99824.07,-158,+56,-120
49593,7.116,-0.608,-2.972,-0.268296,-0.291590,1.498652,99824.07,-159,+53,-121
49603,7.168,0.457,-0.271,0.321814,-0.169737,1.378927,99823.94,-158,+47,-121
49613,8.078,-3.511,0.137,0.592657,-0.267645,1.273037,99822.53,-158,+47,-121
49624,7.798,-6.771,0.247,0.467080,-0.286269,1.142138,99825.30,-157,+43,-122
49634,8.624,-6.836,-0.023,0.266474,-0.156434,0.949514,99825.30,-157,+40,-122
49643,8.591,-5.453,-0.733,-0.142186,0.020226,0.766469,99824.64,-157,+37,-121
49653,8.517,-4.311,-0.248,-0.403452,0.227749,0.643019,99824.64,-157,+37,-121
49664,8.999,-3.275,0.187,-0.527966,0.322465,0.560010,99826.30,-158,+38,-121
49674,9.543,-2.485,0.714,-0.455599,0.327786,0.516377,99825.73,-159,+36,-120
49683,9.661,-2.331,1.194,-0.260315,0.274043,0.507863,99822.14,-159,+35,-120
49694,9.523,-2.171,1.527,0.015496,0.181810,0.498995,99825.48,-159,+35,-120
49703,9.155,-2.552,1.781,0.209538,0.100575,0.496689,99825.48,-159,+34,-119
49714,8.779,-3.860,1.598,0.211667,0.062263,0.490304,99825.84,-159,+34,-119
49724,8.896,-4.711,0.803,0.014786,0.089933,0.449863,99824.12,-159,+30,-119
49733,9.277,-4.026,0.980,-0.200186,0.154318,0.409955,99827.08,-159,+30,-119
49743,9.420,-2.905,1.484,-0.297030,0.177199,0.407827,99823.59,-160,+31,-119
49754,9.410,-2.659,1.464,-0.261379,0.129309,0.419533,99825.63,-160,+30,-119
49764,9.409,-2.799,1.377,-0.160278,0.065988,0.425386,99822.19,-160,+30,-117
49773,9.199,-3.382,1.493,-0.086847,0.030336,0.440285,99822.19,-160,+30,-117
49783,9.058,-3.713,1.497,-0.086315,0.005859,0.445074,99823.91,-160,+28,-117
49794,8.926,-3.885,1.485,-0.124094,-0.004251,0.440285,99823.91,-160,+28,-118
49804,8.896,-3.868,1.473,-0.164003,-0.013297,0.431772,99825.49,-160,+26,-118
49813,9.029,-3.562,1.329,-0.190076,-0.028196,0.422726,99824.24,-160,+26,-118
49823,9.240,-3.408,1.216,-0.172516,-0.048416,0.421661,99824.13,-160,+26,-117
49833,9.236,-3.508,1.295,-0.137929,-0.067572,0.426450,99824.34,-159,+24,-118
49844,9.077,-3.879,1.133,-0.123562,-0.074489,0.424322,99824.34,-159,+23,-119
49854,8.906,-4.098,1.131,-0.141654,-0.070232,0.403038,99826.69,-158,+23,-119
49863,8.754,-4.046,1.007,-0.167727,-0.065976,0.379093,99824.08,-158,+23,-119
49873,8.619,-3.939,0.898,-0.156553,-0.067040,0.348230,99822.67,-158,+22,-119
49884,8.652,-3.914,0.873,-0.113452,-0.068104,0.314707,99822.67,-159,+22,-119
49893,8.609,-4.031,0.652,-0.080461,-0.059058,0.283845,99822.67,-158,+21,-119
49903,8.631,-4.315,0.782,-0.076205,-0.040434,0.249258,99825.95,-158,+21,-119
49913,8.755,-4.386,0.968,-0.121434,-0.020746,0.211478,99824.43,-158,+20,-119
49924,8.833,-4.226,0.955,-0.174113,-0.007444,0.181148,99826.66,-159,+19,-119
49929,8.804,-4.097,1.067,-0.183159,-0.009040,0.159864,99824.01,-159,+19,-119
49938,8.774,-3.983,1.144,-0.171452,-0.013297,0.141772,99824.01,-158,+20,-119
49948,8.647,-4.041,0.991,-0.146443,-0.028728,0.122616,99823.50,-157,+20,-119
49958,8.529,-4.053,0.793,-0.126223,-0.029792,0.108781,99825.53,-157,+20,-119
49969,8.568,-4.043,0.714,-0.124627,-0.018618,0.095478,99825.02,-157,+20,-119
49979,8.784,-3.964,0.779,-0.132076,-0.009572,0.090157,99823.30,-158,+20,-120
49988,9.053,-3.665,1.133,-0.109727,-0.021278,0.102928,99823.30,-157,+21,-120
49998,9.186,-3.488,1.382,-0.046406,-0.055866,0.126341,99825.76,-157,+21,-120
50009,8.961,-3.783,1.198,0.039795,-0.107480,0.143368,99827.16,-157,+20,-120
50019,8.773,-4.066,1.170,0.095667,-0.134618,0.144964,99826.13,-157,+19,-120
50028,8.738,-4.271,1.115,0.087685,-0.146324,0.138047,99825.71,-157,+19,-120
50038,8.680,-4.380,0.963,0.069061,-0.149517,0.124744,99825.71,-157,+19,-120
50049,8.777,-4.132,1.055,0.051502,-0.152709,0.118891,99826.36,-156,+17,-120
50059,8.975,-4.013,1.116,0.047777,-0.165480,0.121552,99824.06,-156,+18,-121
50068,9.038,-4.109,1.037,0.053630,-0.184104,0.121552,99824.02,-155,+17,-121
50078,8.990,-4.072,1.089,0.057355,-0.204324,0.131130,99821.09,-155,+17,-121
50088,8.937,-4.042,1.155,0.060548,-0.226141,0.139111,99821.09,-155,+16,-122
50099,8.810,-4.004,1.013,0.058419,-0.247425,0.151350,99825.68,-153,+17,-123
50109,8.821,-3.861,0.730,0.048309,-0.263388,0.169974,99825.43,-153,+15,-123
50118,8.977,-3.812,0.748,0.057355,-0.280948,0.192854,99825.37,-153,+15,-123
50128,9.148,-3.896,1.140,0.074915,-0.308086,0.216799,99825.90,-153,+15,-123
50139,9.083,-4.061,1.145,0.085025,-0.342673,0.237019,99825.90,-152,+15,-125
50149,8.847,-4.253,1.116,0.083428,-0.379388,0.248726,99824.94,-151,+13,-125
50158,8.714,-4.441,1.203,0.057887,-0.410251,0.251386,99827.13,-150,+13,-126
50168,8.749,-4.596,1.162,0.014254,-0.435792,0.246065,99824.11,-150,+13,-126
50179,8.768,-4.479,0.946,-0.030443,-0.455480,0.240744,99821.77,-149,+12,-127
50189,8.793,-4.224,0.592,-0.051728,-0.469847,0.240212,99821.77,-148,+11,-128
50198,8.995,-4.161,0.495,-0.048003,-0.487939,0.245533,99826.50,-147,+10,-130
50208,9.104,-4.370,0.580,-0.039489,-0.506030,0.248194,99828.38,-147,+10,-130
50219,8.876,-4.448,0.715,-0.055984,-0.528911,0.252451,99823.89,-146,+11,-130
50229,8.816,-4.319,0.818,-0.075140,-0.548599,0.257240,99823.42,-144,+11,-132
50238,8.793,-4.301,0.711,-0.077801,-0.578397,0.260964,99823.42,-143,+9,-133
50248,8.774,-4.271,0.405,-0.067691,-0.606067,0.263625,99823.64,-143,+9,-133
50258,8.673,-4.232,0.038,-0.052792,-0.632672,0.270010,99825.20,-141,+9,-135
50269,8.692,-4.212,-0.305,-0.037893,-0.649168,0.271607,99827.44,-141,+9,-135
50279,8.782,-4.298,-0.209,-0.016608,-0.664599,0.271074,99825.88,-138,+7,-138
50288,8.631,-4.520,0.305,-0.012351,-0.687480,0.279056,99825.88,-138,+7,-138
50298,8.400,-4.656,0.495,-0.021929,-0.700250,0.269478,99826.45,-137,+7,-139
50309,8.365,-4.362,0.518,-0.036828,-0.720471,0.259368,99825.52,-135,+5,-141
50319,8.366,-4.131,0.284,0.006805,-0.758250,0.256175,99826.66,-132,+5,-143
50328,8.140,-4.009,-0.089,0.033410,-0.802415,0.284377,99823.80,-132,+5,-143
50338,8.451,-4.147,-0.089,0.053630,-0.843920,0.332267,99823.80,-130,+6,-144
50349,9.212,-4.581,-0.138,0.087685,-0.879039,0.371111,99828.16,-128,+3,-146
50359,9.349,-5.319,-0.338,0.098327,-0.910434,0.375900,99827.89,-125,+3,-148
50369,9.042,-5.785,-0.448,0.044052,-0.912562,0.356212,99824.39,-125,+3,-148
50378,8.681,-5.518,-0.455,-0.054388,-0.896067,0.324818,99825.39,-123,+2,-150
50388,8.543,-4.559,-0.315,-0.110260,-0.899260,0.308854,99825.39,-121,+1,-151
50399,8.531,-4.303,-0.487,-0.071416,-0.945553,0.307790,99827.34,-117,+0,-153
50409,8.679,-4.430,-0.786,0.002548,-1.008874,0.311515,99827.72,-117,+0,-153
50418,8.669,-4.580,-0.929,0.035538,-1.068470,0.320029,99826.16,-114,+0,-156
50428,8.851,-5.062,-0.919,0.030750,-1.111039,0.325350,99824.59,-112,+0,-158
50439,9.539,-5.364,-0.769,-0.012883,-1.145626,0.323221,99824.59,-109,-1,-159
50449,10.247,-5.695,-0.537,-0.055452,-1.179149,0.315772,99827.48,-109,-1,-159
50458,10.600,-5.966,-0.081,-0.104938,-1.204158,0.316836,99826.39,-105,-1,-162
50468,10.753,-6.060,0.039,-0.199122,-1.199902,0.346102,99825.86,-101,-1,-164
50479,11.239,-5.458,-0.247,-0.310333,-1.216929,0.388671,99824.14,-98,-1,-167
50489,11.844,-4.763,-0.325,-0.367801,-1.294617,0.445074,99824.14,-98,-1,-167
50499,12.755,-4.380,-0.293,-0.340663,-1.424984,0.513717,99824.72,-94,+0,-170
50508,13.467,-4.686,-0.441,-0.262443,-1.564929,0.591937,99826.55,-90,-1,-172
50519,14.067,-5.127,-0.480,-0.228211,-1.690152,0.666077,99826.80,-84,-2,-175
50529,14.629,-5.390,-0.506,-0.258186,-1.780433,0.715386,99823.20,-84,-2,-175
50539,14.988,-5.435,-0.488,-0.327892,-1.866635,0.759019,99823.20,-78,-2,-178
50548,15.283,-5.251,-0.297,-0.417287,-1.965608,0.793074,99825.55,-73,-2,-180
50558,15.688,-5.006,-0.147,-0.494443,-2.099167,0.833514,99824.88,-65,-2,-183
50569,16.486,-4.495,0.162,-0.610975,-2.262525,0.877147,99824.66,-65,-2,-183
50579,17.252,-3.714,1.035,-0.778589,-2.472176,0.911202,99822.90,-57,-2,-186
50588,16.887,-3.429,2.291,-0.920663,-2.720671,0.959092,99822.90,-49,-1,-190
50598,15.306,-3.491,3.014,-0.991965,-2.951075,1.032523,99823.13,-39,+1,-194
50609,13.115,-3.746,3.235,-1.029745,-3.130928,1.103826,99825.88,-39,+1,-194
50619,11.550,-5.210,2.711,-0.953654,-3.268212,1.146927,99822.71,-28,+3,-196
50629,12.190,-6.610,2.803,-0.535415,-3.408689,1.221954,99824.16,-15,+3,-199
50638,12.600,-7.398,3.915,0.160052,-3.432102,1.199606,99824.16,-3,+3,-202
50649,11.894,-9.752,3.386,0.449520,-3.309717,1.178321,99825.38,+7,+0,-203
50659,10.940,-10.068,3.239,0.433557,-3.292157,1.093716,99822.79,+7,+0,-203
50669,10.825,-8.048,3.247,0.529336,-3.366652,0.926634,99822.88,+19,-1,-204
50678,11.094,-4.844,2.442,0.830510,-3.556616,0.745716,99822.41,+32,-5,-203
50689,10.933,-1.359,2.685,1.564822,-3.870028,0.629716,99822.41,+46,-11,-202
50699,9.890,-0.355,3.325,2.853592,-4.291991,0.593533,99825.83,+46,-11,-202
50709,7.898,-2.750,6.618,4.220582,-4.449496,0.570120,99822.08,+61,-23,-197
50718,6.220,-4.860,8.783,4.860710,-4.215367,0.469551,99822.13,+75,-40,-190
50728,5.063,-5.514,9.017,4.724490,-3.831184,0.360469,99819.89,+86,-56,-182
50739,4.371,-5.992,8.354,4.208343,-3.384744,0.182744,99819.89,+86,-56,-182
50749,3.768,-6.546,7.189,3.526711,-2.932451,-0.091292,99823.91,+95,-67,-174
50754,3.252,-6.738,6.325,3.007371,-2.615313,-0.341384,99821.00,+95,-67,-174
50763,2.837,-6.562,5.627,2.550821,-2.320525,-0.607971,99821.00,+101,-76,-166
50774,2.444,-6.018,4.808,2.045849,-1.940598,-0.972998,99821.31,+105,-84,-160
50784,2.293,-5.287,4.236,1.674969,-1.579296,-1.356649,99819.22,+106,-89,-154
50794,2.285,-4.505,3.770,1.413171,-1.243535,-1.754135,99819.22,+106,-89,-154
50804,2.360,-3.707,3.552,1.225336,-0.926397,-2.139383,99822.52,+104,-94,-151
50813,2.525,-3.005,3.476,1.098162,-0.611388,-2.485786,99819.63,+102,-98,-146
50824,2.742,-2.621,3.512,1.028455,-0.304361,-2.780043,99820.98,+96,-103,-142
50834,2.931,-2.621,3.592,1.050804,-0.025535,-3.015768,99820.98,+96,-103,-142
50844,3.245,-2.870,3.552,1.173721,0.228813,-3.219566,99820.98,+89,-107,-138
50853,3.700,-3.398,3.598,1.345593,0.464006,-3.382923,99820.23,+81,-112,-135
50864,3.984,-3.733,3.697,1.535024,0.682703,-3.536171,99820.39,+71,-116,-130
50874,4.170,-3.728,3.801,1.746804,0.895547,-3.702721,99818.16,+60,-121,-125
50884,4.444,-3.652,3.871,1.989978,1.113180,-3.853308,99819.61,+60,-121,-125
50894,5.024,-3.840,3.969,2.256032,1.335601,-3.974097,99819.61,+48,-126,-120
50904,5.724,-4.168,3.873,2.526876,1.558023,-4.078391,99818.50,+34,-130,-113
50914,6.505,-4.599,3.731,2.779629,1.772996,-4.177363,99817.36,+20,-135,-104
50924,7.521,-5.263,3.622,2.999922,1.970408,-4.271546,99817.98,+20,-135,-104
50934,8.547,-6.230,3.548,3.162747,2.146005,-4.350831,99817.98,+3,-138,-96
50945,9.478,-7.336,3.598,3.227133,2.323729,-4.418941,99818.69,-12,-141,-86
50954,10.303,-8.382,3.800,3.177647,2.505711,-4.487583,99818.69,-28,-141,-75
50964,11.183,-9.305,4.011,2.987151,2.685564,-4.546647,99819.67,-28,-141,-75
50974,11.979,-9.968,3.888,2.637555,2.862756,-4.591344,99817.53,-44,-138,-65
50983,12.587,-10.560,3.576,2.234216,3.081986,-4.631784,99820.19,-60,-133,-55
50994,13.018,-11.134,3.716,1.832473,3.370921,-4.644023,99820.19,-73,-126,-46
51004,14.109,-11.778,4.096,1.521721,3.662518,-4.598794,99821.42,-73,-126,-46
51014,15.884,-13.350,3.584,1.392951,3.876958,-4.447675,99823.66,-85,-118,-37
51024,16.037,-16.021,1.923,1.282804,3.979123,-4.233234,99820.84,-96,-112,-28
51034,15.093,-17.792,-0.633,1.077942,4.039783,-3.986336,99820.72,-105,-105,-21
51044,14.346,-18.519,-3.222,0.714511,4.029141,-3.678776,99823.64,-105,-105,-21
51054,13.879,-18.993,-4.810,0.286162,3.922187,-3.342483,99822.55,-114,-99,-12
51064,13.603,-19.166,-5.429,-0.167195,3.691783,-2.988630,99825.72,-121,-93,-6
51074,12.479,-18.709,-6.091,-0.622681,3.369325,-2.605511,99825.72,-127,-87,-2
51084,10.344,-17.756,-7.456,-0.964828,2.972371,-2.150557,99825.52,-127,-87,-2
51094,8.415,-17.658,-8.489,-1.065929,2.521142,-1.652502,99825.52,-133,-84,+1
51104,7.271,-17.325,-9.075,-1.013250,2.046500,-1.102833,99828.74,-135,-80,+4
51109,6.867,-16.614,-9.182,-0.989837,1.686262,-0.621274,99826.13,-135,-80,+4
51119,7.071,-15.514,-9.325,-0.974406,1.318574,-0.109384,99825.15,-136,-79,+5
51129,7.977,-14.456,-9.661,-0.952589,0.808281,0.565863,99824.21,-135,-80,+6
51139,8.756,-14.656,-10.346,-0.975470,0.278832,1.155441,99824.21,-135,-80,+6
51149,8.778,-15.626,-10.675,-1.079764,-0.275095,1.676376,99826.48,-133,-84,+4
51159,10.043,-15.017,-9.310,-1.128186,-0.782727,2.097807,99827.47,-130,-89,+1
51169,13.194,-6.974,-3.355,-0.956846,-1.047186,2.251055,99823.09,-125,-93,-3
51179,13.010,1.663,-0.950,-0.841911,-1.446268,2.129734,99825.23,-119,-98,-6
51189,21.216,25.917,28.215,0.583079,-1.460103,1.466725,99825.23,-119,-98,-6
51198,36.582,49.021,17.368,0.765593,-0.392159,-0.446742,99822.06,-119,-99,-6
51209,15.569,-3.277,-10.364,-1.422974,-1.445736,1.992982,99828.58,-115,-102,-11
51219,8.208,-21.274,-6.237,2.534858,-3.051111,2.977385,99825.25,-108,-110,-9
51229,8.267,-20.329,2.920,4.081169,-2.971827,1.964780,99823.48,-108,-110,-9
51238,10.787,-12.042,-4.075,2.142693,-1.948048,1.812596,99823.48,-103,-116,-8
51249,9.823,-3.924,-0.045,0.671942,-1.418599,2.045660,99826.10,-98,-120,-9
51259,5.838,-6.143,1.363,0.601171,-1.419131,1.970101,99824.48,-94,-123,-11
51269,7.321,-7.656,0.398,0.160052,-1.243535,1.746083,99824.74,-94,-123,-11
51279,8.012,-4.354,2.479,-0.335874,-1.092415,1.565697,99821.35,-89,-126,-12
51289,7.504,-5.122,2.686,-0.204443,-0.996103,1.448101,99821.35,-85,-130,-15
51299,8.111,-7.079,1.158,-0.267764,-0.980672,1.294321,99825.02,-82,-131,-17
51309,8.161,-6.120,0.944,-0.664186,-0.876911,1.126707,99825.39,-82,-131,-17
51319,8.049,-5.036,0.634,-0.862663,-0.657150,1.045826,99825.75,-79,-131,-19
51329,7.946,-2.953,0.453,-0.732296,-0.499645,0.985166,99822.27,-76,-132,-23
51339,8.900,-2.230,1.784,-0.322571,-0.415572,0.985166,99822.27,-73,-133,-23
51345,9.513,-2.036,3.021,0.072254,-0.492196,1.019753,99825.34,-73,-133,-23
51354,9.172,-2.766,3.064,0.292015,-0.583186,1.022413,99825.34,-71,-136,-24
51364,8.426,-4.850,2.534,0.373428,-0.636397,0.995808,99825.34,-68,-136,-24
51375,7.965,-5.959,2.445,0.224437,-0.627351,0.901092,99825.18,-68,-138,-23
51384,7.498,-6.238,2.516,-0.097489,-0.550196,0.780836,99822.62,-66,-139,-24
51394,7.659,-5.808,2.300,-0.414094,-0.458140,0.676010,99823.77,-63,-140,-26
51404,8.329,-4.226,1.358,-0.574259,-0.390030,0.594597,99824.55,-61,-140,-28
51415,8.920,-3.311,0.842,-0.475287,-0.352251,0.578634,99822.43,-61,-140,-28
51424,9.125,-2.827,1.408,-0.219874,-0.353847,0.608964,99822.43,-59,-141,-29
51434,8.782,-3.557,2.070,-0.010223,-0.380985,0.626524,99820.60,-58,-142,-29
51444,8.205,-4.356,2.288,0.035538,-0.398012,0.600450,99820.60,-57,-142,-29
51454,8.062,-5.119,2.008,-0.091636,-0.341608,0.547239,99826.79,-57,-142,-29
51464,8.063,-5.518,1.970,-0.251269,-0.277223,0.500946,99824.13,-54,-143,-30
51474,8.030,-5.333,1.786,-0.362480,-0.238379,0.469019,99823.77,-53,-143,-32
51484,8.196,-4.843,1.806,-0.398663,-0.228801,0.448267,99823.30,-52,-143,-33
51494,8.481,-4.530,1.568,-0.416755,-0.224544,0.431239,99823.30,-52,-143,-33
51505,8.633,-4.580,1.254,-0.418883,-0.203792,0.417405,99824.55,-50,-143,-34
51514,8.584,-4.885,1.344,-0.437507,-0.175058,0.437625,99822.14,-50,-143,-35
51524,8.345,-5.014,1.349,-0.467837,-0.153242,0.438689,99823.81,-48,-143,-36
51534,8.232,-4.833,1.438,-0.477415,-0.147921,0.451992,99823.81,-48,-143,-36
51544,8.230,-4.556,1.912,-0.443360,-0.164948,0.478065,99823.81,-47,-144,-37
51554,8.147,-4.838,1.945,-0.404516,-0.178783,0.494561,99823.66,-45,-145,-38
51564,8.115,-5.330,1.630,-0.411966,-0.179847,0.509992,99826.12,-44,-145,-40
51574,8.151,-5.373,1.503,-0.462516,-0.171333,0.517441,99825.23,-44,-145,-40
51579,8.196,-5.333,1.558,-0.493911,-0.154838,0.519570,99823.30,-42,-144,-40
51589,8.202,-5.292,1.458,-0.506681,-0.146324,0.519038,99823.30,-42,-144,-40
51599,8.401,-5.072,1.242,-0.500296,-0.142599,0.526487,99826.28,-41,-145,-42
51609,8.378,-5.096,1.029,-0.467837,-0.145260,0.536065,99823.98,-39,-145,-44
51619,8.212,-5.185,0.980,-0.446021,-0.144728,0.553625,99824.36,-37,-145,-45
51630,8.076,-5.358,0.916,-0.450810,-0.142599,0.570120,99822.58,-37,-145,-45
51639,8.048,-5.463,1.115,-0.483268,-0.133021,0.585019,99822.58,-36,-145,-46
51649,8.114,-5.341,1.373,-0.514663,-0.125040,0.591937,99826.27,-35,-144,-47
51659,8.286,-5.216,1.827,-0.513067,-0.147921,0.606304,99825.27,-32,-145,-49
51670,8.219,-5.134,2.114,-0.467305,-0.186232,0.628652,99826.05,-31,-145,-50
51679,8.343,-5.121,1.623,-0.426333,-0.228801,0.677074,99821.20,-31,-145,-50
51689,8.428,-5.026,1.163,-0.415691,-0.276159,0.732414,99821.20,-28,-145,-51
51699,8.533,-4.626,1.034,-0.403452,-0.323517,0.811166,99827.81,-26,-145,-52
51709,8.704,-4.705,0.898,-0.369929,-0.393223,0.896836,99823.59,-23,-146,-53
51719,9.004,-5.075,0.706,-0.342259,-0.468783,0.980909,99825.78,-23,-146,-53
51729,9.256,-5.471,0.724,-0.356094,-0.535296,1.060193,99821.36,-20,-146,-55
51739,9.368,-6.011,0.914,-0.431654,-0.577865,1.135753,99821.36,-17,-147,-56
51749,9.640,-6.047,1.140,-0.531691,-0.614049,1.200670,99825.65,-12,-147,-58
51760,10.129,-5.458,1.632,-0.562553,-0.695994,1.260799,99823.62,-12,-147,-58
51769,10.291,-5.453,1.719,-0.461984,-0.806672,1.332101,99825.76,-7,-147,-60
51779,10.492,-5.953,1.207,-0.370461,-0.915755,1.420964,99823.82,-3,-147,-61
51789,10.529,-6.769,0.940,-0.375250,-0.975351,1.484817,99823.82,+1,-147,-63
51800,10.365,-7.348,0.772,-0.482204,-0.993443,1.546009,99823.52,+1,-147,-63
51809,10.319,-7.490,0.727,-0.613103,-0.991847,1.575807,99823.77,+7,-147,-65
51815,10.583,-7.514,0.778,-0.705690,-0.994507,1.578468,99824.86,+12,-147,-67
51824,11.111,-7.706,0.769,-0.765819,-1.005682,1.574211,99824.86,+12,-147,-67
51834,12.325,-7.856,0.310,-0.852021,-1.032287,1.569954,99820.84,+17,-145,-69
51845,13.540,-8.063,1.090,-0.948865,-1.092947,1.548138,99820.84,+23,-145,-72
51855,13.641,-7.843,1.771,-1.059011,-1.093480,1.568358,99825.05,+23,-145,-72
51864,14.190,-7.279,0.825,-1.243653,-1.048782,1.612523,99824.55,+29,-143,-75
51874,15.655,-5.930,0.712,-1.424571,-1.081773,1.633275,99823.48,+34,-141,-78
51885,16.764,-4.830,2.165,-1.536846,-1.156269,1.697661,99823.48,+40,-139,-83
51894,17.129,-3.536,4.346,-1.616130,-1.242470,1.836541,99823.48,+40,-139,-83
51904,16.667,-2.846,5.348,-1.601231,-1.335057,2.031826,99822.95,+48,-135,-87
51914,16.573,-2.596,5.323,-1.503323,-1.431369,2.183477,99824.66,+55,-132,-90
51924,16.959,-2.608,5.094,-1.485763,-1.498415,2.284578,99823.48,+62,-128,-94
51935,16.670,-4.072,4.222,-1.614002,-1.511186,2.369183,99820.13,+71,-125,-98
51944,15.807,-7.757,2.436,-1.661359,-1.600580,2.557018,99820.13,+71,-125,-98
51954,14.672,-11.068,0.995,-1.509708,-1.842690,2.729421,99822.94,+81,-120,-101
51964,13.803,-10.733,1.651,-1.365506,-1.965075,2.651201,99823.09,+91,-115,-103
51975,12.499,-9.939,2.278,-1.501194,-1.907608,2.537330,99822.31,+99,-110,-107
51985,11.398,-9.722,2.214,-1.626240,-1.843754,2.499550,99821.60,+99,-110,-107
51994,10.096,-8.291,3.368,-1.557598,-1.727222,2.414945,99825.57,+108,-105,-109
52004,9.197,-5.018,5.954,-1.148406,-1.558544,2.253183,99820.71,+116,-99,-111
52015,7.521,0.204,8.067,-0.687599,-1.261094,1.847183,99820.71,+122,-95,-111
52024,8.750,3.317,6.919,-0.640773,-0.838067,1.187899,99820.62,+122,-95,-111
52034,7.950,0.619,5.023,-0.906828,-0.669920,0.885661,99819.21,+126,-91,-113
52044,6.967,0.806,5.529,-0.750920,-0.502306,0.577038,99819.21,+129,-88,-114
52055,6.951,2.877,5.140,-0.630663,-0.122379,-0.106723,99823.23,+128,-87,-116
52064,6.487,3.141,3.974,-0.636516,0.184116,-0.535072,99821.30,+128,-87,-116
52074,5.323,2.003,2.789,-0.505617,0.351731,-0.846888,99821.55,+128,-86,-117
52084,4.319,1.058,1.849,-0.211893,0.487951,-1.241714,99818.38,+125,-86,-120
52094,3.883,0.943,1.367,0.206346,0.643327,-1.686025,99821.72,+122,-87,-121
52105,4.092,1.283,1.537,0.645868,0.823712,-2.137254,99820.38,+122,-87,-121
52115,4.738,1.311,1.838,0.946510,1.021125,-2.541658,99819.53,+116,-93,-121
52124,5.164,0.833,1.812,1.089648,1.233436,-2.874758,99817.72,+109,-97,-121
52134,5.108,0.017,1.780,1.181171,1.480335,-3.173804,99817.72,+100,-104,-121
52145,5.195,-0.768,1.934,1.245024,1.722977,-3.447841,99817.72,+100,-104,-121
52154,5.342,-1.521,1.642,1.251941,1.937950,-3.701657,99818.79,+89,-110,-122
52164,5.671,-2.454,1.151,1.268437,2.174739,-3.933657,99818.90,+76,-116,-122
52170,6.087,-2.993,0.818,1.311006,2.352463,-4.100207,99818.27,+76,-116,-122
52179,6.512,-2.974,0.617,1.367941,2.531252,-4.260372,99820.46,+62,-122,-122
52190,7.199,-2.547,0.548,1.439244,2.755802,-4.445014,99820.46,+46,-129,-121
52199,8.226,-2.142,0.738,1.487134,2.942573,-4.600390,99819.40,+28,-135,-119
52209,9.470,-1.897,0.798,1.531831,3.059637,-4.717987,99819.49,+28,-135,-119
52219,10.729,-1.984,0.608,1.619629,3.119766,-4.803124,99818.13,+7,-139,-116
52230,11.815,-2.864,0.573,1.745207,3.172444,-4.891454,99818.51,-14,-145,-112
52239,12.572,-4.089,0.390,1.867060,3.244279,-5.009583,99818.51,-37,-148,-107
52249,13.193,-4.831,-0.060,1.970290,3.336334,-5.116537,99821.57,-37,-148,-107
52259,14.518,-5.078,-0.063,2.047977,3.440096,-5.228280,99821.01,-62,-149,-99
52270,17.256,-6.232,-0.074,2.220913,3.488518,-5.331509,99820.79,-89,-149,-89
52280,20.931,-9.947,-0.010,2.577427,3.396995,-5.261271,99817.66,-114,-145,-76
52289,22.727,-15.162,-1.205,3.019610,3.112848,-5.106959,99817.66,-114,-145,-76
52299,19.698,-19.985,-3.755,3.361757,2.725472,-4.942537,99823.56,-137,-137,-61
52310,15.339,-24.350,-6.391,3.463922,2.306702,-4.657858,99821.89,-157,-128,-45
52320,12.253,-28.428,-7.706,3.339408,1.954977,-4.247602,99825.53,-171,-116,-32
52329,10.234,-31.201,-6.552,2.982362,1.764482,-3.878850,99823.56,-171,-116,-32
52339,6.772,-31.284,-5.068,2.211867,1.619748,-3.422299,99823.56,-183,-103,-19
52349,3.341,-30.464,-6.033,1.197666,1.463308,-2.772593,99826.99,-189,-90,-11
52360,2.411,-31.768,-7.716,0.324474,1.239822,-1.961126,99825.74,-193,-81,-6
52369,1.946,-31.970,-9.375,-0.411966,0.914703,-0.803255,99825.52,-193,-81,-6
52379,1.947,-29.889,-11.828,-1.032406,0.313951,0.541918,99827.88,-193,-77,-3
52389,6.816,-22.102,-9.850,-1.092534,-0.449095,1.625826,99827.88,-191,-80,-4
52400,18.026,1.131,6.345,-0.110260,-1.398378,1.900927,99827.20,-189,-84,-8
52410,45.307,35.940,11.074,0.773043,-1.555883,0.201368,99820.31,-189,-84,-8
52419,25.607,-6.856,-6.431,-1.202681,-1.757553,3.166816,99823.19,-187,-82,-11
52429,5.748,-22.893,-6.982,1.908033,-2.758451,4.272008,99823.66,-175,-95,-15
52440,9.382,-22.196,-1.466,3.604931,-2.835075,3.491935,99823.66,-167,-105,-15
52450,7.390,-11.228,-7.510,1.887280,-1.839497,3.266320,99828.76,-167,-105,-15
52459,4.878,-2.121,2.833,0.277648,-0.888085,3.046027,99825.52,-159,-114,-16
52469,0.812,-5.689,6.238,-0.358755,-0.865737,2.695899,99823.55,-152,-120,-18
52480,6.140,-8.836,3.718,-0.733892,-1.050911,2.350027,99823.60,-145,-125,-21
52490,9.037,-5.453,1.352,-1.024424,-1.206287,1.950413,99823.60,-145,-125,-21
52500,10.407,-3.840,-1.836,-1.046241,-1.100929,1.786523,99826.86,-141,-128,-27
52509,10.720,-3.801,-3.415,-0.552975,-1.066342,1.755661,99824.77,-135,-131,-30
52519,9.878,-2.780,-2.147,0.204749,-0.989718,1.657752,99825.81,-130,-135,-30
52526,8.905,-2.768,-0.733,0.516034,-0.923204,1.601881,99824.61,-130,-135,-30
52535,7.367,-3.293,0.471,0.473465,-0.923204,1.555055,99824.61,-126,-138,-32
52545,7.513,-4.447,-0.114,0.490492,-0.871058,1.446505,99824.61,-121,-141,-32
52554,8.145,-5.407,-0.512,0.410144,-0.802948,1.328909,99827.09,-121,-141,-32
52564,8.248,-6.312,0.077,0.193043,-0.639590,1.231532,99822.95,-117,-144,-31
52575,8.579,-6.315,0.408,-0.101214,-0.422489,1.136817,99822.60,-114,-146,-33
52585,8.228,-5.085,0.179,-0.328425,-0.280416,1.053808,99822.60,-111,-148,-35
52595,8.021,-4.108,0.225,-0.289048,-0.216031,0.972927,99826.82,-111,-148,-35
52604,8.160,-3.970,0.335,-0.129948,-0.222948,0.908542,99826.82,-109,-149,-35
52615,8.218,-4.332,0.926,0.079171,-0.253810,0.843625,99823.27,-106,-150,-35
52625,8.363,-4.970,1.471,0.217520,-0.291590,0.770193,99824.27,-103,-152,-35
52634,8.197,-5.468,1.471,0.253704,-0.319260,0.698891,99821.87,-103,-152,-35
52640,7.815,-6.250,1.113,0.223373,-0.299572,0.646212,99821.87,-101,-153,-35
52649,7.830,-6.526,0.513,0.111630,-0.231462,0.584487,99824.57,-100,-153,-35
52660,8.211,-5.566,-0.078,-0.107599,-0.108012,0.520102,99826.34,-100,-154,-35
52670,8.718,-4.524,-0.149,-0.209764,-0.024471,0.484983,99822.12,-99,-154,-36
52679,8.779,-4.266,0.069,-0.144847,-0.006379,0.469551,99822.63,-96,-155,-36
52689,8.555,-4.358,0.125,-0.040021,-0.012765,0.456249,99822.63,-96,-156,-36
52700,8.471,-4.700,0.239,0.028621,-0.018618,0.438689,99826.66,-96,-156,-36
52710,8.446,-5.073,0.511,0.065337,-0.026067,0.422194,99823.85,-94,-157,-36
52719,8.349,-5.371,0.751,0.049373,-0.022875,0.403570,99823.54,-93,-157,-37
52729,8.436,-5.175,0.669,0.017979,-0.015957,0.387606,99824.32,-92,-158,-36
52740,8.416,-4.929,0.441,0.024364,-0.015957,0.373772,99824.32,-92,-158,-36
52750,8.214,-5.209,0.108,0.038731,-0.011168,0.361533,99827.23,-90,-158,-35
52760,8.278,-5.418,-0.075,-0.002773,0.016501,0.346634,99825.14,-90,-160,-35
52769,8.409,-5.220,0.675,-0.066094,0.045767,0.321625,99820.20,-89,-160,-36
52780,8.234,-5.389,1.314,-0.090572,0.070777,0.318432,99822.33,-89,-160,-36
52790,8.211,-5.829,1.177,-0.126223,0.094189,0.317368,99822.33,-88,-161,-35
52800,8.212,-5.732,1.028,-0.209232,0.123988,0.313643,99824.55,-88,-161,-36
52809,8.139,-5.414,0.737,-0.292241,0.146336,0.323753,99824.02,-87,-161,-37
52819,8.366,-4.987,0.450,-0.339599,0.150061,0.346102,99822.77,-87,-161,-37
52830,8.585,-4.490,0.373,-0.336406,0.124520,0.379093,99821.95,-85,-161,-37
52840,8.698,-4.594,0.512,-0.280535,0.086740,0.419533,99821.95,-85,-161,-38
52849,8.679,-5.019,0.610,-0.242755,0.049492,0.451460,99828.23,-84,-162,-38
52859,8.550,-5.155,0.968,-0.247012,0.019694,0.481790,99824.10,-84,-162,-38
52870,8.347,-5.329,1.380,-0.277342,0.007456,0.519570,99824.77,-82,-163,-38
52880,8.252,-5.244,1.453,-0.303415,-0.007444,0.552561,99825.04,-80,-162,-40
52889,8.070,-5.282,1.474,-0.306608,-0.038306,0.591404,99825.04,-78,-162,-40
52899,7.993,-5.641,1.304,-0.320975,-0.053205,0.633441,99827.10,-78,-162,-40
52910,8.219,-5.930,1.209,-0.379507,-0.057994,0.662175,99824.60,-76,-164,-42
52920,8.646,-5.925,1.339,-0.463048,-0.064379,0.689845,99821.90,-74,-164,-43
52930,9.178,-5.629,1.538,-0.531158,-0.094177,0.729753,99824.87,-71,-164,-45
52939,9.472,-5.074,1.778,-0.554571,-0.160691,0.805845,99824.87,-71,-164,-45
52950,9.745,-4.692,1.546,-0.541269,-0.252746,0.913331,99828.12,-69,-164,-45
52960,10.126,-4.461,0.797,-0.516791,-0.360232,1.033056,99825.98,-64,-165,-48
52970,10.594,-4.244,0.095,-0.482204,-0.475168,1.156505,99824.21,-60,-166,-49
52979,10.858,-4.277,-0.727,-0.428993,-0.594893,1.271973,99823.59,-60,-166,-49
52989,11.112,-4.496,-0.969,-0.370993,-0.719939,1.379991,99823.59,-56,-166,-51
53000,11.164,-5.287,-0.538,-0.319911,-0.838599,1.474707,99827.37,-50,-168,-53
53010,10.978,-6.278,-0.100,-0.334810,-0.906709,1.551330,99823.41,-43,-168,-54
53020,10.855,-6.694,0.536,-0.440700,-0.943425,1.599752,99824.35,-43,-168,-54
53029,11.279,-6.496,1.654,-0.524773,-0.993975,1.634340,99822.26,-37,-168,-56
53040,12.386,-6.166,2.408,-0.548186,-1.083369,1.690743,99822.26,-30,-167,-59
53050,13.858,-6.621,3.359,-0.502424,-1.233424,1.752468,99825.82,-22,-167,-62
53060,13.395,-7.249,4.809,-0.488057,-1.330269,1.853569,99822.54,-22,-167,-62
53069,13.603,-7.572,3.955,-0.652479,-1.273333,1.999899,99824.05,-13,-166,-64
53080,15.046,-6.870,3.303,-0.944608,-1.245131,2.088761,99822.70,-3,-164,-66
53090,15.929,-6.285,3.720,-1.213855,-1.207351,2.180816,99822.70,+5,-161,-70
53100,16.773,-5.935,4.279,-1.501727,-1.123810,2.282981,99826.57,+5,-161,-70
53109,17.917,-4.837,4.788,-1.814607,-1.036544,2.372376,99824.63,+14,-157,-75
53120,19.147,-3.606,5.165,-2.127488,-0.987058,2.493165,99824.38,+26,-152,-80
53130,19.882,-2.658,4.729,-2.332350,-1.021645,2.674614,99820.88,+39,-144,-85
53140,19.272,-4.983,2.112,-2.407910,-1.129663,2.936412,99820.88,+39,-144,-85
53150,17.113,-9.336,0.117,-2.323836,-1.374966,3.183311,99821.27,+51,-137,-90
53159,14.914,-9.983,2.319,-2.424937,-1.463296,3.086999,99824.04,+64,-128,-94
53170,12.743,-9.054,2.792,-2.562222,-1.330801,2.891183,99821.90,+78,-119,-98
53180,10.875,-10.220,1.040,-2.495708,-1.197241,2.795935,99822.01,+90,-108,-103
53190,8.388,-10.704,0.323,-2.178038,-1.204691,2.707605,99822.01,+90,-108,-103
53199,6.502,-9.452,2.112,-1.672002,-1.128599,2.538926,99822.65,+102,-100,-105
53210,6.544,-4.290,4.504,-1.453305,-0.725260,2.114835,99825.84,+110,-91,-106
53220,7.759,0.871,4.307,-1.740644,-0.230398,1.533771,99822.34,+117,-84,-109
53230,6.951,-0.072,3.193,-2.016809,-0.013297,1.317734,99823.48,+117,-84,-109
53239,6.080,0.232,3.354,-1.740112,0.064391,1.022413,99823.48,+124,-75,-112
53250,5.399,1.678,3.268,-1.273984,0.229345,0.501478,99822.12,+128,-70,-113
53260,4.668,2.319,2.627,-0.834461,0.361309,0.188065,99824.10,+131,-66,-115
53270,3.788,2.170,1.821,-0.401856,0.429951,-0.069476,99821.71,+131,-66,-115
53280,3.093,1.761,1.303,0.042988,0.503382,-0.374375,99820.55,+132,-64,-116
53289,2.545,1.556,0.983,0.491557,0.590648,-0.701090,99820.55,+135,-63,-116
53300,2.147,1.249,0.648,0.907666,0.685896,-1.026209,99821.95,+135,-66,-115
53310,1.934,0.501,0.436,1.226932,0.817859,-1.320466,99821.95,+135,-66,-115
53320,2.041,-0.373,0.521,1.448822,0.988666,-1.598227,99819.81,+134,-68,-114
53329,2.162,-0.823,0.718,1.608455,1.180758,-1.903126,99820.44,+132,-73,-114
53340,2.244,-0.757,0.897,1.727648,1.389877,-2.221328,99820.44,+128,-80,-113
53350,2.637,-0.655,1.057,1.829990,1.617087,-2.559927,99821.49,+128,-80,-113
53360,3.238,-0.858,1.142,1.883556,1.796409,-2.814630,99819.98,+123,-86,-112
53369,3.938,-1.376,1.136,1.892602,1.985839,-3.058336,99819.55,+117,-93,-112
53380,4.533,-2.170,0.988,1.835666,2.164096,-3.282887,99816.85,+109,-102,-112
53390,5.093,-2.722,0.816,1.747868,2.337564,-3.489877,99816.85,+109,-102,-112
53400,5.715,-2.929,0.636,1.662198,2.509436,-3.688886,99818.17,+100,-108,-112
53410,6.460,-2.974,0.529,1.599409,2.683435,-3.885767,99817.08,+89,-118,-112
53420,7.326,-3.047,0.518,1.539813,2.851050,-4.064556,99817.34,+74,-125,-112
53430,8.211,-3.150,0.515,1.471703,2.999509,-4.235363,99818.02,+74,-125,-112
53440,9.029,-3.459,0.457,1.415831,3.135197,-4.400849,99818.02,+59,-133,-112
53450,9.846,-3.986,0.580,1.397207,3.276738,-4.565803,99820.70,+42,-139,-111
53459,10.909,-4.607,0.863,1.374327,3.425197,-4.741931,99818.78,+22,-145,-109
53470,12.186,-5.304,1.215,1.318987,3.570462,-4.908482,99819.66,+22,-145,-109
53480,13.692,-5.717,1.481,1.247152,3.678481,-5.026078,99818.67,+0,-149,-106
53490,15.253,-6.051,1.544,1.234382,3.739673,-5.075564,99818.67,-24,-152,-102
53499,17.238,-6.714,1.139,1.316859,3.751912,-5.086739,99822.36,-48,-152,-96
53510,19.321,-8.030,0.415,1.495116,3.682206,-5.050555,99824.23,-48,-152,-96
53520,20.677,-10.329,-0.307,1.750528,3.575252,-4.958500,99820.42,-71,-151,-88
53530,20.896,-13.567,-1.694,1.925060,3.443288,-4.794078,99822.61,-94,-147,-77
53539,19.577,-16.245,-3.243,1.971886,3.246408,-4.536005,99822.61,-114,-143,-66
53550,17.921,-17.551,-4.697,1.965501,2.977160,-4.240152,99826.34,-114,-143,-66
53560,16.329,-17.863,-5.639,1.894198,2.681307,-3.911308,99827.84,-133,-136,-54
53570,14.949,-18.067,-6.307,1.749996,2.403014,-3.528721,99826.59,-145,-129,-45
53580,11.877,-20.635,-7.133,1.621758,2.140152,-3.103566,99822.27,-156,-122,-35
53590,7.903,-23.995,-8.748,1.371134,1.864519,-2.530483,99822.27,-156,-122,-35
53600,4.964,-26.340,-10.132,0.853923,1.480335,-1.745090,99828.84,-164,-116,-27
53610,4.295,-24.126,-10.766,0.128658,0.935455,-0.802723,99828.73,-168,-111,-23
53620,6.219,-19.819,-9.847,-0.502957,0.298520,0.248726,99829.77,-168,-112,-23
53629,8.063,-17.639,-8.487,-0.787103,-0.358104,1.124578,99825.54,-168,-112,-23
53640,11.188,-16.336,-5.482,-0.769544,-0.891810,1.738101,99825.54,-165,-115,-26
53650,11.449,-12.150,-6.298,-0.574259,-1.431901,2.097807,99828.91,-161,-120,-29
53660,13.954,-2.303,2.870,-0.164003,-1.893241,2.255312,99825.58,-155,-126,-33
53670,26.199,26.375,21.428,1.086987,-1.563865,1.000065,99821.45,-153,-128,-33
53680,24.638,16.880,5.337,-0.280535,-0.667260,0.936744,99820.05,-153,-128,-33
53690,12.443,-11.079,-7.795,-0.885544,-1.661773,2.870963,99820.05,-147,-132,-38
53700,10.580,-16.003,-3.987,1.410510,-2.484946,2.929495,99826.51,-137,-140,-40
53710,8.330,-8.912,1.260,2.225702,-2.176323,2.209550,99823.65,-130,-147,-40
53720,8.036,-5.453,-0.400,0.934804,-1.420195,2.209018,99823.85,-130,-147,-40
53730,7.321,-7.159,1.556,0.496346,-1.094012,2.276064,99822.65,-124,-151,-40
53740,6.353,-10.334,3.142,0.386199,-1.019516,2.091954,99822.65,-117,-156,-41
53750,8.452,-8.981,2.226,0.148878,-1.017388,1.786523,99825.44,-111,-161,-43
53760,10.052,-4.395,1.023,-0.158149,-1.038672,1.599752,99824.45,-111,-161,-43
53770,9.445,-3.016,0.602,-0.433250,-1.023241,1.494395,99821.89,-106,-164,-45
53780,7.917,-4.078,1.425,-0.469434,-0.988122,1.467789,99824.39,-101,-165,-48
53790,8.133,-5.254,1.650,-0.513599,-0.864140,1.394890,99824.39,-96,-167,-51
53800,8.695,-4.562,0.541,-0.764223,-0.774214,1.300707,99826.58,-96,-167,-51
53810,8.515,-4.010,-0.105,-0.689195,-0.634269,1.263459,99825.11,-92,-168,-54
53820,8.705,-2.925,0.244,-0.353434,-0.541859,1.205282,99824.95,-87,-170,-56
53830,9.153,-1.722,1.333,-0.091104,-0.514012,1.184707,99825.22,-83,-172,-57
53840,8.998,-2.670,2.084,0.227630,-0.576269,1.178321,99825.22,-83,-172,-57
53850,8.668,-4.449,2.036,0.445795,-0.658746,1.111276,99826.52,-79,-174,-56
53860,8.436,-5.286,2.127,0.325006,-0.659810,1.027735,99825.67,-76,-176,-56
53870,7.777,-6.320,2.284,0.016915,-0.564030,0.923973,99823.95,-72,-177,-57
53880,7.625,-5.872,2.236,-0.294902,-0.462929,0.806909,99824.27,-72,-177,-57
53890,8.333,-4.037,1.897,-0.456663,-0.408122,0.702083,99824.27,-68,-179,-59
53900,8.938,-3.210,1.267,-0.360883,-0.405462,0.672285,99825.47,-66,-178,-60
53910,9.069,-3.180,0.925,-0.119838,-0.429939,0.663239,99827.03,-64,-179,-61
53920,8.793,-3.739,0.669,0.053098,-0.435792,0.665368,99826.81,-64,-179,-61
53931,8.396,-4.740,0.763,0.089814,-0.408122,0.646212,99822.80,-62,-181,-61
53940,8.216,-5.377,1.171,-0.007030,-0.336819,0.608432,99822.80,-58,-181,-62
53950,8.213,-5.250,1.471,-0.172516,-0.262324,0.557350,99826.67,-57,-181,-62
53960,8.346,-4.758,1.656,-0.264571,-0.228801,0.517441,99823.77,-57,-181,-62
53970,8.432,-4.442,1.522,-0.251269,-0.228269,0.494561,99825.02,-55,-181,-63
53980,8.431,-4.447,1.527,-0.194333,-0.246361,0.478597,99823.55,-54,-181,-64
53990,8.398,-4.663,1.552,-0.149104,-0.255939,0.462102,99823.55,-51,-183,-65
54000,8.358,-4.933,1.284,-0.152296,-0.243700,0.446671,99823.84,-51,-183,-65
54010,8.459,-4.831,1.149,-0.201782,-0.221884,0.435496,99825.92,-50,-183,-66
54020,8.426,-4.802,1.116,-0.241159,-0.200599,0.431772,99826.19,-48,-183,-66
54030,8.431,-4.801,0.946,-0.266168,-0.188361,0.433368,99824.36,-46,-183,-68
54040,8.609,-4.475,1.006,-0.280535,-0.187829,0.444010,99824.36,-46,-183,-68
54050,8.649,-4.443,1.345,-0.257654,-0.193150,0.462634,99820.55,-45,-183,-68
54061,8.612,-4.540,1.642,-0.230516,-0.211774,0.486579,99824.32,-43,-183,-69
54070,8.462,-4.745,1.631,-0.223599,-0.224012,0.513717,99823.48,-40,-183,-69
54080,8.388,-5.025,1.271,-0.249672,-0.228269,0.535001,99822.27,-40,-183,-69
54090,8.378,-4.972,1.197,-0.305012,-0.221352,0.549900,99822.27,-39,-183,-71
54100,8.396,-4.824,1.121,-0.341727,-0.215498,0.570652,99825.09,-37,-184,-72
54110,8.483,-4.752,1.011,-0.333214,-0.219223,0.594065,99823.48,-35,-183,-73
54120,8.492,-4.771,1.018,-0.310865,-0.231462,0.618542,99823.89,-35,-183,-73
54130,8.451,-5.163,1.037,-0.294370,-0.234654,0.635570,99823.53,-32,-184,-74
54140,8.353,-5.524,1.082,-0.309269,-0.221884,0.642487,99823.53,-31,-184,-75
54151,8.264,-5.923,1.209,-0.350241,-0.205388,0.630249,99828.94,-28,-184,-76
54160,8.123,-6.143,1.241,-0.419947,-0.183572,0.616414,99827.80,-26,-184,-78
54170,8.164,-5.827,1.267,-0.499232,-0.173994,0.606304,99825.39,-26,-184,-78
54180,8.468,-5.379,1.462,-0.545525,-0.197939,0.620138,99824.67,-23,-183,-79
54190,8.791,-4.936,1.815,-0.548718,-0.254875,0.671221,99824.67,-20,-183,-82
54200,9.169,-4.705,1.947,-0.541269,-0.324049,0.762744,99826.26,-17,-183,-83
54210,9.581,-4.583,1.711,-0.532755,-0.410783,0.876615,99824.54,-17,-183,-83
54220,9.858,-4.416,1.401,-0.526902,-0.503902,0.996340,99824.38,-14,-183,-84
54231,10.416,-4.523,1.097,-0.485929,-0.617241,1.121386,99828.02,-9,-183,-87
54240,11.135,-4.491,0.397,-0.438039,-0.756654,1.235789,99828.02,-4,-183,-88
54250,11.125,-4.796,0.305,-0.377911,-0.890214,1.351789,99826.54,-4,-183,-88
54260,10.887,-5.243,0.391,-0.339599,-1.005149,1.465129,99823.41,+2,-182,-90
54270,10.851,-5.746,0.517,-0.360883,-1.089755,1.569422,99822.63,+8,-182,-91
54280,11.267,-6.272,0.770,-0.442296,-1.146158,1.667330,99822.43,+16,-181,-93
54290,12.519,-6.409,1.104,-0.532223,-1.208415,1.749275,99822.43,+16,-181,-93
54300,14.013,-6.696,2.410,-0.554039,-1.335057,1.824303,99825.85,+25,-181,-94
54310,14.003,-7.442,3.888,-0.571067,-1.421791,1.949881,99824.24,+33,-180,-96
54321,15.042,-8.030,3.703,-0.730700,-1.386140,2.100468,99823.26,+42,-177,-98
54330,16.360,-7.449,3.953,-0.953121,-1.360067,2.227642,99820.45,+42,-177,-98
54340,16.863,-7.262,4.547,-1.186718,-1.296213,2.363862,99820.45,+52,-175,-100
54350,17.806,-6.885,5.446,-1.490020,-1.189259,2.498486,99824.77,+62,-172,-104
54361,18.512,-5.811,6.259,-1.865157,-1.082305,2.662376,99823.31,+73,-166,-109
54370,18.620,-5.758,6.630,-2.246680,-0.978544,2.852339,99822.47,+73,-166,-109
54380,18.272,-6.554,5.729,-2.640442,-0.895003,3.031128,99823.52,+84,-158,-114
54390,17.153,-7.236,3.664,-3.088478,-0.788581,3.171072,99823.52,+94,-149,-121
54401,14.981,-8.372,1.577,-3.465212,-0.708764,3.260467,99826.55,+105,-137,-128
54411,13.858,-8.721,2.963,-3.642227,-0.640477,3.134002,99822.80,+105,-137,-128
54420,13.322,-8.159,3.093,-3.709450,-0.560838,2.884798,99823.18,+115,-125,-135
54430,11.681,-7.526,2.049,-3.678588,-0.459205,2.574045,99822.60,+121,-112,-143
54440,9.743,-7.407,1.313,-3.448716,-0.391627,2.378761,99822.60,+128,-101,-148
54451,8.184,-7.006,1.250,-2.930441,-0.405994,2.303201,99825.55,+128,-101,-148
54460,6.840,-5.389,1.962,-2.419616,-0.324049,2.176027,99824.82,+134,-90,-152
54470,6.538,-0.848,2.448,-2.204644,-0.100031,1.764174,99824.51,+138,-81,-156
54480,6.058,0.847,0.883,-2.198791,0.174538,1.342743,99821.13,+140,-73,-159
54491,6.034,1.059,1.339,-1.979561,0.325657,1.155441,99821.13,+140,-73,-159
54500,5.501,3.388,1.960,-1.238332,0.356520,0.669093,99822.17,+141,-66,-162
54510,4.769,3.941,2.261,-0.372058,0.406538,0.295019,99824.00,+141,-63,-162
54520,3.882,3.724,1.687,0.388859,0.376740,0.007680,99821.97,+139,-64,-162
54531,3.055,2.919,1.165,0.992804,0.375675,-0.295090,99819.09,+139,-64,-162
54540,2.293,2.136,0.909,1.428070,0.433143,-0.578705,99819.09,+137,-68,-161
54550,1.683,1.283,0.887,1.746271,0.555529,-0.875090,99818.78,+135,-73,-159
54560,1.359,0.428,0.902,1.963372,0.729528,-1.186906,99820.83,+131,-81,-156
54571,1.263,-0.353,0.939,2.090546,0.922684,-1.491273,99820.83,+131,-81,-156
54581,1.442,-0.853,0.846,2.147482,1.123822,-1.799897,99821.50,+125,-87,-153
54590,1.867,-1.096,0.778,2.140565,1.326556,-2.115438,99821.50,+118,-95,-151
54600,2.443,-1.244,0.725,2.094803,1.528757,-2.424062,99823.88,+109,-103,-148
54610,2.948,-1.401,0.761,2.020308,1.732023,-2.723639,99823.05,+109,-103,-148
54621,3.500,-1.560,0.861,1.936767,1.926243,-3.010979,99821.38,+99,-111,-145
54630,4.136,-1.758,0.889,1.845776,2.104500,-3.283419,99820.08,+85,-118,-143
54640,4.812,-2.075,0.843,1.734033,2.281693,-3.529253,99820.08,+71,-125,-140
54646,5.373,-2.378,0.802,1.641978,2.407803,-3.693676,99822.37,+71,-125,-140
54656,5.931,-2.619,0.784,1.570143,2.530188,-3.836281,99822.37,+55,-130,-136
54666,6.551,-2.919,0.869,1.532895,2.683968,-4.010813,99820.49,+39,-134,-133
54676,7.083,-3.323,1.125,1.541409,2.828169,-4.184813,99818.24,+39,-134,-133
54685,7.784,-3.779,1.400,1.512675,2.976096,-4.362537,99819.45,+20,-137,-129
54695,8.735,-4.230,1.515,1.449886,3.137857,-4.531748,99820.76,+1,-138,-125
54706,9.840,-4.717,1.772,1.407318,3.332609,-4.678610,99823.98,-18,-138,-120
54716,11.184,-5.261,2.056,1.392418,3.533215,-4.787693,99821.70,-18,-138,-120
54725,12.530,-5.720,2.086,1.429666,3.698169,-4.862188,99821.70,-39,-136,-112
54735,14.231,-6.099,2.061,1.542473,3.823747,-4.915931,99818.82,-59,-132,-106
54746,16.691,-7.214,1.726,1.727648,3.889196,-4.930830,99818.82,-78,-128,-96
54756,19.174,-9.787,1.260,1.956987,3.885472,-4.857931,99825.10,-78,-128,-96
54765,20.313,-12.550,-0.002,2.099592,3.820554,-4.740335,99821.20,-96,-124,-87
54775,19.995,-14.310,-1.602,2.044785,3.716793,-4.567932,99823.02,-112,-118,-75
54786,19.166,-15.625,-3.133,1.857482,3.517784,-4.273143,99820.46,-126,-110,-65
54796,18.373,-17.373,-4.417,1.696253,3.171912,-3.878318,99820.46,-126,-110,-65
54806,17.204,-18.898,-5.112,1.622290,2.744628,-3.436666,99827.84,-137,-103,-56
54815,15.000,-20.088,-6.716,1.540345,2.260940,-2.935951,99825.70,-147,-99,-48
54825,10.375,-22.346,-8.760,1.573336,1.812372,-2.467695,99827.27,-153,-93,-43
54836,5.834,-25.070,-10.669,1.538216,1.530886,-2.017530,99827.27,-153,-93,-43
54845,3.441,-24.653,-10.931,1.118914,1.180758,-1.275769,99827.27,-157,-89,-37
54855,4.565,-21.125,-9.879,0.506988,0.617785,-0.215274,99829.68,-159,-89,-33
54865,7.707,-16.577,-9.520,0.073850,-0.134086,0.836707,99827.24,-157,-91,-34
54876,11.324,-14.741,-7.220,-0.082058,-0.793902,1.675312,99827.65,-153,-91,-37
54886,13.122,-11.063,-6.139,0.049373,-1.285039,2.070138,99827.13,-153,-96,-37
54895,12.610,-4.594,-1.530,0.207410,-1.909204,2.210082,99827.13,-148,-101,-41
54905,21.010,15.033,17.896,1.179042,-1.672947,1.485881,99825.84,-143,-107,-43
54916,30.037,30.856,10.831,0.575098,-0.908837,0.475405,99818.79,-141,-108,-45
54926,14.738,-2.616,-5.973,-1.277708,-1.321755,2.284046,99823.49,-141,-108,-45
54936,6.942,-17.290,-9.763,0.691098,-2.296047,2.802320,99823.49,-133,-114,-49
54945,9.331,-13.423,-0.971,2.306583,-2.158231,2.151018,99828.54,-125,-122,-49
54956,8.595,-5.947,0.196,1.206180,-1.443076,1.906248,99823.23,-120,-128,-50
54966,11.048,-5.908,-0.470,0.901813,-1.047186,1.933917,99823.23,-120,-128,-50
54975,8.420,-8.124,0.429,0.879997,-1.090287,1.906248,99824.32,-114,-133,-51
54985,6.780,-8.632,1.453,0.494749,-0.999296,1.627422,99823.59,-109,-137,-51
54995,8.115,-6.724,1.185,0.191447,-0.875315,1.348597,99823.59,-105,-139,-52
55001,8.914,-4.890,1.007,0.041392,-0.824232,1.213441,99823.69,-105,-139,-52
55011,8.553,-4.389,1.023,-0.089507,-0.742819,1.126707,99825.92,-101,-142,-54
55020,8.178,-4.592,1.169,-0.336406,-0.610324,1.044762,99826.92,-101,-142,-54
55030,8.682,-4.608,1.193,-0.689727,-0.501774,0.963881,99824.52,-98,-143,-56
55041,8.997,-5.279,0.792,-1.024956,-0.346930,0.887790,99824.52,-96,-144,-59
55051,8.947,-4.141,0.156,-1.086681,-0.186765,0.828725,99825.25,-93,-145,-61
55061,9.216,-1.468,0.745,-0.850424,-0.049480,0.834047,99826.45,-93,-145,-61
55070,9.718,-0.453,2.449,-0.423672,-0.066508,0.889918,99822.33,-90,-143,-62
55080,9.290,-1.938,3.402,0.032346,-0.260196,0.926634,99822.48,-89,-146,-64
55091,8.324,-3.889,3.072,0.292548,-0.424618,0.887258,99822.48,-85,-147,-63
55101,8.220,-4.881,2.683,0.246786,-0.452819,0.806377,99823.59,-85,-147,-63
55110,8.167,-5.537,2.711,-0.040553,-0.394819,0.724432,99824.10,-82,-149,-63
55120,7.950,-5.773,2.832,-0.394406,-0.310214,0.623331,99824.05,-81,-150,-65
55131,8.258,-4.866,2.286,-0.609911,-0.260728,0.508928,99823.74,-79,-150,-66
55141,8.852,-3.536,1.848,-0.614168,-0.253278,0.451460,99823.74,-79,-150,-66
55150,9.314,-2.610,1.468,-0.473158,-0.262856,0.454652,99827.29,-77,-149,-67
55160,9.247,-2.588,1.328,-0.226259,-0.297975,0.488707,99823.65,-76,-150,-70
55171,8.911,-3.385,1.364,0.012658,-0.321920,0.508395,99824.16,-74,-151,-70
55181,8.588,-4.423,1.729,0.067465,-0.321920,0.502542,99824.52,-73,-151,-70
55190,8.377,-4.791,2.427,-0.050131,-0.292654,0.479661,99824.52,-73,-151,-70
55200,8.288,-4.569,2.482,-0.248076,-0.247425,0.445606,99823.78,-71,-152,-71
55211,8.339,-4.253,2.207,-0.349177,-0.214434,0.423258,99826.64,-69,-152,-72
55221,8.601,-3.879,2.117,-0.375250,-0.214966,0.422194,99822.73,-67,-152,-74
55231,8.737,-3.840,2.063,-0.339067,-0.234122,0.429111,99825.55,-67,-152,-74
55236,8.720,-3.745,1.884,-0.297030,-0.257003,0.445074,99825.55,-66,-152,-75
55245,8.697,-3.737,1.763,-0.233177,-0.280416,0.458377,99825.55,-66,-152,-75
55256,8.632,-3.969,1.838,-0.136333,-0.309682,0.466359,99827.28,-64,-153,-75
55266,8.542,-4.244,1.844,-0.093232,-0.336819,0.474340,99823.58,-62,-153,-75
55276,8.531,-4.520,1.900,-0.113452,-0.343205,0.481258,99822.70,-61,-153,-77
55286,8.629,-4.643,1.806,-0.156553,-0.337884,0.490836,99824.34,-61,-153,-77
55296,8.786,-4.248,1.768,-0.190076,-0.329370,0.509992,99826.48,-59,-154,-78
55306,8.737,-3.931,1.672,-0.176241,-0.324581,0.535001,99823.60,-57,-155,-78
55316,8.658,-4.185,1.723,-0.144315,-0.338948,0.563203,99823.60,-55,-156,-79
55325,8.594,-4.502,1.795,-0.151764,-0.344269,0.583955,99826.52,-55,-156,-79
55335,8.607,-4.532,1.632,-0.221471,-0.339480,0.620671,99824.85,-52,-156,-80
55346,8.608,-4.430,1.629,-0.287452,-0.344801,0.663771,99824.85,-51,-156,-81
55356,8.762,-4.049,1.707,-0.315122,-0.369810,0.720707,99825.56,-48,-156,-82
55365,8.878,-3.757,1.905,-0.285856,-0.421957,0.797331,99826.23,-48,-156,-82
55375,8.931,-3.712,1.952,-0.199654,-0.491663,0.882469,99823.73,-45,-157,-83
55386,8.968,-4.173,1.788,-0.111324,-0.574140,0.960689,99823.58,-41,-158,-85
55396,8.791,-4.578,1.745,-0.070351,-0.648104,1.027202,99825.42,-38,-159,-85
55406,8.944,-4.878,1.944,-0.093764,-0.708764,1.083606,99826.94,-33,-160,-86
55416,9.455,-4.872,1.932,-0.156021,-0.773149,1.150120,99826.11,-33,-160,-86
55426,9.755,-4.613,1.650,-0.208700,-0.847113,1.243239,99825.02,-28,-161,-88
55436,10.006,-4.265,1.253,-0.232645,-0.935975,1.356578,99825.02,-23,-162,-88
55446,10.145,-4.214,1.023,-0.201782,-1.044526,1.468853,99825.02,-16,-162,-90
55455,10.453,-4.741,1.199,-0.167195,-1.163718,1.581129,99825.15,-16,-162,-90
55465,10.752,-5.488,1.428,-0.194865,-1.273333,1.698725,99824.59,-10,-164,-92
55476,11.250,-5.954,1.662,-0.305544,-1.341975,1.811532,99823.07,-3,-164,-93
55486,12.483,-6.403,1.799,-0.450278,-1.371241,1.943495,99826.40,+5,-164,-95
55496,14.511,-7.251,1.865,-0.606718,-1.415938,2.062688,99826.40,+5,-164,-95
55505,16.137,-8.401,4.048,-0.759966,-1.487773,2.170706,99824.93,+14,-164,-98
55516,16.624,-9.191,3.795,-0.993030,-1.398378,2.342578,99823.09,+23,-163,-101
55526,18.526,-8.805,2.487,-1.374552,-1.278654,2.489972,99822.38,+33,-160,-105
55536,20.797,-6.977,2.981,-1.806625,-1.223847,2.599055,99822.38,+33,-160,-105
55546,21.671,-5.239,4.361,-2.106203,-1.192984,2.767733,99824.00,+42,-156,-111
55556,21.452,-4.009,6.040,-2.233378,-1.190856,2.925238,99824.00,+54,-151,-116
55566,19.686,-3.461,6.457,-2.319047,-1.177021,2.990687,99825.72,+65,-145,-121
