79876,8.734,-4.077,1.589,0.001483,-0.001590,0.003955,99825.28,-209,+103,-16
79886,8.711,-4.070,1.565,-0.002241,-0.001590,0.003955,99824.30,-209,+103,-16
79896,8.737,-4.054,1.607,-0.007030,-0.001058,0.002359,99824.14,-209,+103,-16
79906,8.741,-4.054,1.596,-0.010223,-0.002122,0.003955,99824.14,-210,+103,-16
79917,8.720,-4.061,1.551,-0.012351,-0.001058,0.005552,99823.87,-210,+103,-16
79926,8.716,-4.058,1.510,-0.013416,0.000538,0.005552,99822.29,-210,+104,-16
79936,8.724,-4.047,1.531,-0.012351,0.001070,0.007148,99824.21,-209,+104,-16
79946,8.705,-4.049,1.592,-0.007030,0.001070,0.008212,99824.21,-209,+103,-17
79955,8.717,-3.968,1.491,-0.002773,-0.000526,0.009276,99824.21,-209,+103,-17
79966,8.735,-4.007,1.523,0.007869,-0.002122,0.011937,99826.70,-210,+103,-16
79976,8.729,-4.054,1.577,0.016915,-0.004251,0.013001,99823.52,-210,+103,-16
79986,8.719,-4.158,1.586,0.015318,-0.003187,0.011405,99821.84,-209,+103,-16
79996,8.704,-4.140,1.617,0.000951,-0.001058,0.008744,99824.25,-209,+103,-16
80006,8.712,-4.094,1.595,-0.004370,0.000538,0.005552,99824.25,-210,+103,-16
80016,8.713,-4.078,1.594,-0.007030,0.001602,0.002891,99822.53,-210,+103,-16
80026,8.718,-4.060,1.566,-0.009159,0.001602,0.002359,99822.84,-209,+103,-16
80036,8.734,-4.066,1.558,-0.011287,0.001602,0.001827,99823.53,-209,+103,-16
80047,8.717,-4.078,1.558,-0.010755,0.001602,0.001827,99823.53,-209,+103,-16
80056,8.720,-4.092,1.568,-0.010755,0.000006,0.003955,99825.48,-210,+103,-16
80066,8.725,-4.050,1.618,-0.012351,0.000006,0.001827,99825.48,-209,+103,-16
80076,8.719,-4.080,1.566,-0.015544,-0.000526,0.003955,99825.68,-209,+103,-16
80087,8.725,-4.056,1.583,-0.016076,-0.000526,0.005552,99826.37,-209,+103,-16
80096,8.717,-4.048,1.578,-0.015012,-0.002655,0.006084,99823.70,-210,+102,-16
80106,8.713,-4.086,1.566,-0.014480,-0.003719,0.006084,99823.70,-209,+103,-16
80116,8.740,-4.073,1.557,-0.016076,-0.000526,0.005552,99826.89,-209,+103,-16
80126,8.734,-4.067,1.535,-0.019269,0.001070,0.004487,99823.86,-210,+103,-16
80137,8.741,-4.088,1.511,-0.019269,0.001602,0.006616,99822.30,-209,+103,-16
80146,8.737,-4.056,1.511,-0.019269,0.003731,0.006616,99822.30,-210,+103,-16
80156,8.708,-4.054,1.544,-0.019269,0.003199,0.006616,99822.30,-210,+103,-16
80166,8.731,-4.120,1.578,-0.019801,0.001070,0.007148,99822.25,-209,+103,-17
80176,8.722,-4.103,1.565,-0.026186,0.000538,0.008744,99822.25,-210,+103,-16
80186,8.722,-4.096,1.582,-0.026186,0.000538,0.006616,99824.39,-210,+103,-16
80196,8.734,-4.088,1.596,-0.022994,0.000006,0.007148,99822.56,-210,+103,-16
80206,8.675,-4.117,1.520,-0.020865,-0.002655,0.006084,99822.56,-210,+103,-16
80217,8.698,-4.048,1.564,-0.024058,0.000538,0.003423,99824.07,-209,+103,-16
80226,8.740,-4.076,1.541,-0.021397,0.000538,0.004487,99827.15,-210,+103,-16
80236,8.764,-4.044,1.526,-0.018737,0.000538,0.005020,99823.71,-210,+103,-16
80246,8.744,-4.058,1.551,-0.012351,-0.001058,0.007148,99822.62,-209,+103,-16
80257,8.724,-4.068,1.545,-0.008095,-0.002655,0.007148,99822.62,-210,+103,-16
80267,8.705,-4.085,1.565,-0.008095,-0.002655,0.006616,99824.97,-209,+103,-16
80276,8.701,-4.101,1.550,-0.009691,-0.004251,0.008212,99824.36,-209,+103,-16
80286,8.695,-4.117,1.587,-0.013416,-0.003719,0.006616,99822.48,-210,+103,-16
80296,8.707,-4.065,1.589,-0.015012,-0.003719,0.005020,99822.48,-209,+103,-16
80306,8.713,-4.079,1.559,-0.015012,-0.004251,0.006084,99822.48,-209,+103,-16
80316,8.693,-4.108,1.569,-0.013948,-0.003719,0.003955,99825.30,-209,+103,-16
80326,8.720,-4.052,1.578,-0.011287,-0.004783,0.003423,99824.52,-209,+103,-15
80336,8.722,-4.086,1.535,-0.009159,-0.004783,0.003423,99823.69,-210,+103,-16
80347,8.735,-4.102,1.568,-0.006498,-0.003719,0.002891,99823.84,-210,+103,-16
80356,8.717,-4.080,1.578,-0.004370,-0.004783,0.003423,99823.84,-210,+103,-16
80366,8.719,-4.088,1.575,-0.000113,-0.005315,0.006084,99823.66,-210,+103,-16
80376,8.708,-4.076,1.569,0.003612,-0.007976,0.006084,99823.35,-209,+103,-16
80387,8.704,-4.095,1.583,0.002016,-0.009572,0.005020,99822.73,-209,+103,-16
80397,8.705,-4.100,1.540,-0.003306,-0.007444,0.005020,99822.73,-209,+102,-16
80406,8.724,-4.071,1.575,-0.004370,-0.007444,0.004487,99825.41,-209,+102,-16
80416,8.717,-4.101,1.555,-0.002241,-0.008508,0.004487,99825.41,-210,+103,-16
80427,8.722,-4.091,1.517,-0.000113,-0.010104,0.003423,99825.16,-210,+103,-16
80436,8.699,-4.097,1.531,0.001483,-0.010104,0.002359,99824.22,-209,+103,-16
80446,8.712,-4.085,1.534,0.002548,-0.009040,0.002891,99822.17,-209,+103,-16
80456,8.729,-4.072,1.553,0.002548,-0.007976,0.003423,99822.17,-209,+103,-16
80466,8.692,-4.073,1.550,0.007869,-0.008508,0.002359,99825.45,-210,+103,-16
80477,8.705,-4.070,1.519,0.007337,-0.007976,0.002891,99823.63,-209,+103,-17
80486,8.680,-4.113,1.531,0.006805,-0.005315,0.000763,99823.42,-209,+103,-17
80496,8.718,-4.098,1.572,0.003612,-0.003719,-0.000834,99821.06,-209,+103,-16
80506,8.718,-4.127,1.558,0.002548,-0.003719,-0.000834,99823.92,-210,+103,-16
80517,8.703,-4.100,1.563,-0.001177,-0.005315,-0.001898,99823.52,-209,+103,-16
80527,8.743,-4.065,1.555,-0.002241,-0.005847,-0.002430,99823.09,-209,+103,-16
80536,8.759,-4.107,1.558,-0.001177,-0.006379,-0.001366,99823.09,-210,+103,-16
80546,8.792,-4.096,1.560,-0.004370,-0.006379,-0.001898,99820.59,-210,+103,-16
80557,8.737,-4.091,1.528,-0.008095,-0.006379,-0.000302,99820.59,-209,+103,-16
80567,8.716,-4.049,1.513,-0.008095,-0.004783,0.001295,99822.86,-209,+103,-16
80572,8.718,-4.040,1.534,-0.006498,-0.003719,0.003423,99823.33,-209,+103,-16
80581,8.685,-4.048,1.505,-0.002241,-0.003719,0.002891,99822.66,-209,+103,-16
80591,8.658,-4.074,1.496,0.004144,-0.004251,0.002359,99824.84,-210,+103,-17
80602,8.658,-4.086,1.496,0.006805,-0.001058,0.001295,99824.84,-209,+103,-16
80611,8.698,-4.128,1.525,0.007869,0.001070,-0.001366,99825.38,-209,+103,-16
80621,8.783,-4.117,1.558,0.008401,0.001070,-0.004026,99822.14,-210,+103,-16
80631,8.778,-4.131,1.568,0.009465,0.003731,-0.006687,99823.41,-210,+102,-16
80642,8.740,-4.125,1.519,0.006805,0.007456,-0.009347,99822.94,-210,+103,-16
80651,8.722,-4.103,1.461,0.001483,0.014373,-0.010944,99822.94,-210,+103,-16
80661,8.691,-4.034,1.485,0.000419,0.017034,-0.011476,99823.61,-210,+103,-16
80671,8.659,-4.042,1.479,0.009465,0.017034,-0.010944,99823.34,-210,+103,-16
80681,8.701,-4.074,1.558,0.021704,0.017566,-0.010944,99823.30,-210,+103,-16
80692,8.730,-4.102,1.589,0.025428,0.016501,-0.012008,99824.03,-209,+103,-16
80701,8.679,-4.089,1.546,0.022768,0.017566,-0.012008,99824.03,-210,+103,-16
80711,8.692,-4.061,1.572,0.019043,0.019162,-0.013604,99824.54,-210,+103,-16
80721,8.692,-4.065,1.508,0.020639,0.021290,-0.015733,99821.15,-209,+104,-16
80732,8.682,-4.062,1.503,0.023832,0.021822,-0.016797,99822.82,-209,+104,-16
80741,8.704,-4.090,1.523,0.027557,0.023951,-0.018925,99824.34,-210,+103,-15
80751,8.774,-4.125,1.568,0.023832,0.028208,-0.021054,99824.34,-210,+103,-15
80761,8.797,-4.095,1.570,0.015318,0.031933,-0.021054,99826.23,-210,+102,-16
80772,8.741,-3.988,1.559,0.008933,0.034593,-0.019457,99826.34,-210,+103,-15
80782,8.743,-3.944,1.594,0.010529,0.032997,-0.014668,99822.44,-209,+103,-16
80791,8.764,-3.900,1.565,0.017979,0.026079,-0.006155,99824.09,-209,+103,-16
80801,8.748,-3.919,1.572,0.034474,0.019694,0.000231,99824.09,-210,+103,-16
80807,8.732,-3.970,1.592,0.045649,0.014373,0.004487,99825.67,-210,+103,-15
80817,8.724,-4.031,1.588,0.049373,0.010116,0.008212,99825.67,-210,+103,-15
80827,8.718,-4.086,1.600,0.047777,0.005859,0.011405,99823.31,-210,+103,-15
80836,8.728,-4.062,1.666,0.047245,0.004263,0.014598,99821.59,-210,+103,-16
80846,8.718,-4.098,1.669,0.045649,0.001070,0.015130,99820.30,-209,+103,-15
80857,8.661,-4.150,1.632,0.040860,0.000538,0.011937,99824.63,-209,+103,-15
80867,8.620,-4.128,1.563,0.031814,0.001602,0.008212,99826.35,-210,+103,-16
80877,8.612,-4.015,1.558,0.028089,0.000006,0.004487,99821.80,-210,+103,-16
80886,8.679,-3.801,1.407,0.038731,-0.006379,0.008212,99821.80,-210,+103,-16
80897,8.731,-3.683,1.407,0.087153,-0.027132,0.014065,99824.10,-210,+103,-16
80907,8.750,-3.719,1.690,0.138768,-0.046288,0.025240,99824.10,-210,+103,-16
80916,8.758,-3.974,1.680,0.171226,-0.056930,0.033753,99822.77,-210,+102,-16
80927,8.682,-4.151,1.573,0.176548,-0.057639,0.033221,99824.34,-210,+103,-16
80936,8.555,-4.266,1.571,0.160052,-0.048948,0.025772,99824.34,-210,+103,-16
80947,8.503,-4.350,1.525,0.119612,-0.031921,0.014065,99824.76,-209,+103,-17
80957,8.412,-4.194,1.356,0.069061,-0.010104,0.000763,99824.76,-209,+102,-17
80966,8.471,-4.122,0.999,0.027025,0.011712,-0.016797,99823.44,-209,+103,-16
80976,8.659,-3.924,1.162,0.030750,0.029272,-0.031164,99819.73,-209,+103,-16
80987,8.645,-3.857,1.626,0.065337,0.029272,-0.033292,99820.58,-209,+103,-16
80997,8.457,-3.992,1.784,0.106309,0.020758,-0.035953,99820.58,-210,+102,-16
81006,8.422,-4.223,1.832,0.122805,0.021822,-0.047127,99820.58,-209,+102,-16
81016,8.554,-4.502,1.922,0.094071,0.030868,-0.070540,99824.88,-209,+102,-16
81027,8.614,-4.378,1.757,0.046713,0.053217,-0.095017,99824.83,-210,+102,-16
81037,8.651,-3.989,1.476,0.035006,0.068648,-0.109384,99823.88,-209,+103,-16
81042,8.687,-3.697,1.343,0.067997,0.076098,-0.112577,99824.45,-209,+103,-16
81051,8.705,-3.617,1.156,0.127061,0.084611,-0.115237,99824.45,-210,+104,-16
81061,8.655,-3.902,1.025,0.198364,0.103767,-0.121623,99824.72,-210,+103,-16
81072,8.577,-4.345,1.206,0.226566,0.138355,-0.143439,99823.31,-210,+103,-16
81082,8.571,-4.584,1.468,0.196768,0.181455,-0.178026,99822.11,-210,+104,-15
81091,8.649,-4.576,1.726,0.154731,0.217639,-0.223788,99818.98,-209,+105,-15
81101,8.759,-4.451,1.914,0.132382,0.241584,-0.269017,99818.98,-209,+105,-14
81112,8.833,-4.529,2.132,0.116951,0.250098,-0.312650,99825.86,-209,+105,-13
81122,8.783,-4.572,2.194,0.078107,0.258611,-0.350430,99822.27,-209,+107,-13
81131,8.770,-4.393,2.137,0.005208,0.270850,-0.378099,99822.58,-208,+108,-12
81141,8.841,-4.021,2.102,-0.065030,0.279896,-0.385017,99821.38,-209,+109,-13
81152,8.952,-3.551,2.173,-0.110792,0.276171,-0.371182,99821.38,-209,+110,-11
81162,9.108,-3.183,2.196,-0.113452,0.259676,-0.337127,99825.73,-209,+110,-11
81172,9.137,-3.060,2.240,-0.083122,0.227217,-0.294558,99822.12,-209,+112,-11
81181,9.143,-3.217,2.349,-0.052792,0.189969,-0.253586,99825.10,-208,+113,-9
81191,9.001,-3.385,2.493,-0.058113,0.147400,-0.212613,99822.43,-208,+114,-9
81202,8.972,-3.400,2.596,-0.083122,0.107492,-0.179090,99822.43,-208,+114,-9
81212,9.001,-3.299,2.491,-0.107067,0.063327,-0.141843,99824.37,-208,+114,-9
81221,9.021,-3.374,2.353,-0.116113,0.024483,-0.108320,99823.52,-207,+115,-9
81231,8.981,-3.432,2.286,-0.127819,-0.004251,-0.080118,99823.27,-208,+114,-9
81242,8.935,-3.470,2.153,-0.150168,-0.022875,-0.055641,99819.15,-208,+114,-9
81252,8.943,-3.359,2.055,-0.165067,-0.039902,-0.031696,99819.15,-208,+114,-8
81262,9.008,-3.070,2.075,-0.122498,-0.059590,-0.004026,99824.51,-207,+114,-9
81271,9.027,-3.144,1.801,-0.031507,-0.077682,0.017790,99824.88,-207,+115,-8
81282,8.943,-3.353,1.795,0.066933,-0.103755,0.026304,99821.18,-207,+115,-8
81292,8.829,-3.724,1.860,0.113227,-0.111205,0.024708,99821.27,-208,+116,-9
81302,8.711,-3.933,1.853,0.094603,-0.102691,0.015662,99821.27,-207,+114,-10
81311,8.659,-3.842,1.847,0.050438,-0.086196,0.002891,99825.59,-207,+115,-11
81321,8.748,-3.623,1.774,0.027025,-0.073425,-0.009347,99822.82,-207,+115,-11
81332,8.912,-3.517,1.622,0.039795,-0.068104,-0.015733,99822.60,-207,+114,-10
81342,8.922,-3.551,1.675,0.077043,-0.063847,-0.019990,99820.99,-208,+114,-10
81351,8.916,-3.608,1.713,0.111098,-0.057462,-0.022650,99820.99,-207,+114,-11
81361,8.887,-3.780,1.735,0.119612,-0.061187,-0.021054,99826.56,-207,+114,-11
81372,8.862,-3.509,2.060,0.128126,-0.067572,-0.015733,99825.52,-207,+116,-11
81382,8.870,-3.296,2.403,0.118548,-0.080875,0.004487,99822.70,-207,+114,-12
81391,8.893,-3.415,2.143,0.099392,-0.105884,0.026304,99822.28,-207,+115,-12
81397,8.957,-3.530,1.970,0.080768,-0.114398,0.036414,99822.28,-207,+115,-12
81406,9.063,-3.556,1.948,0.059483,-0.115462,0.049185,99822.28,-207,+115,-12
81417,9.084,-3.490,1.942,0.042988,-0.122911,0.063020,99825.95,-207,+114,-13
81427,9.116,-3.440,1.908,0.050438,-0.137810,0.083772,99823.29,-207,+114,-13
81437,9.156,-3.417,1.971,0.070658,-0.162287,0.110909,99824.54,-207,+114,-14
81446,9.178,-3.386,2.260,0.078107,-0.193682,0.149221,99820.96,-208,+112,-14
81457,9.181,-3.351,2.559,0.065869,-0.229333,0.193386,99822.48,-207,+112,-14
81467,9.129,-3.580,2.653,0.023300,-0.278820,0.237019,99825.98,-207,+112,-14
81476,9.066,-3.643,2.592,-0.052792,-0.319792,0.278524,99825.98,-207,+112,-15
81486,9.059,-3.610,2.473,-0.145911,-0.355443,0.322689,99822.27,-208,+110,-17
81497,9.183,-3.312,2.439,-0.195929,-0.397480,0.378561,99821.18,-207,+110,-17
81507,9.303,-3.102,2.276,-0.178902,-0.448030,0.442414,99821.18,-207,+110,-17
81517,9.335,-3.215,2.390,-0.123030,-0.514012,0.512652,99824.59,-208,+108,-19
81527,9.283,-3.489,2.523,-0.114516,-0.577865,0.587680,99821.77,-209,+106,-20
81537,9.293,-3.703,2.625,-0.194865,-0.628948,0.670157,99823.28,-207,+104,-22
81547,9.440,-3.396,2.505,-0.346516,-0.667792,0.773386,99821.45,-207,+104,-22
81557,9.818,-3.108,2.002,-0.483268,-0.686948,0.886193,99825.22,-207,+101,-24
81567,10.460,-2.963,1.697,-0.527966,-0.717810,1.005386,99822.50,-209,+99,-25
81576,11.136,-3.094,1.580,-0.516259,-0.756654,1.117661,99825.11,-209,+95,-27
81587,11.584,-4.018,1.236,-0.500828,-0.790709,1.193221,99823.34,-209,+95,-27
81597,12.375,-5.313,1.230,-0.529030,-0.780599,1.219294,99823.34,-208,+91,-29
81606,13.137,-6.435,1.642,-0.634920,-0.736434,1.220890,99823.34,-209,+86,-32
81616,13.703,-6.581,1.736,-0.809452,-0.695994,1.215037,99823.26,-209,+83,-33
81627,13.869,-5.452,2.112,-0.989837,-0.657682,1.210248,99824.20,-209,+83,-33
81632,13.844,-4.782,2.638,-1.074975,-0.603939,1.208120,99824.88,-209,+78,-34
81642,13.643,-4.291,2.558,-1.104241,-0.566691,1.184175,99822.52,-209,+76,-35
81651,12.512,-4.222,1.602,-1.074975,-0.558177,1.135221,99822.52,-209,+76,-35
81661,11.279,-4.559,0.639,-0.979727,-0.585847,1.087863,99823.41,-209,+73,-37
81672,10.358,-4.954,0.444,-0.821690,-0.632672,1.047955,99823.94,-208,+69,-38
81682,9.414,-6.053,0.335,-0.653544,-0.695461,1.023478,99821.73,-209,+66,-40
81692,8.504,-7.885,-0.254,-0.510406,-0.736966,0.994212,99820.59,-209,+66,-40
81701,7.599,-8.871,-0.252,-0.469966,-0.707168,0.955900,99820.59,-207,+63,-42
81712,6.828,-8.346,0.271,-0.468369,-0.603406,0.880872,99824.53,-207,+59,-43
81722,6.167,-8.499,-0.317,-0.598204,-0.493792,0.825533,99824.64,-207,+57,-45
81732,6.544,-7.166,-0.378,-0.714736,-0.421425,0.718579,99824.84,-207,+57,-45
81741,6.458,-6.096,-0.873,-0.808920,-0.318196,0.617478,99822.61,-205,+55,-46
81752,5.670,-6.040,-1.365,-0.823819,-0.273498,0.615349,99822.61,-206,+54,-46
81762,5.006,-6.063,-1.633,-0.678021,-0.269242,0.598322,99826.47,-205,+53,-48
81772,4.587,-5.602,-1.698,-0.466241,-0.286269,0.565863,99821.67,-205,+53,-48
81782,4.350,-5.238,-1.838,-0.272021,-0.308086,0.539258,99824.08,-205,+51,-48
81792,4.064,-5.218,-1.861,-0.128883,-0.320856,0.514249,99823.50,-205,+49,-49
81802,3.739,-5.158,-1.867,-0.037361,-0.318728,0.490304,99823.50,-205,+47,-50
81812,3.398,-5.100,-1.886,0.024364,-0.308086,0.465295,99824.83,-205,+47,-50
81822,3.131,-5.153,-1.988,0.067465,-0.293186,0.430707,99824.61,-204,+45,-50
81831,2.965,-5.198,-2.074,0.078639,-0.276159,0.397184,99823.36,-204,+44,-51
81842,2.989,-5.192,-2.224,0.032346,-0.254875,0.358340,99823.78,-203,+43,-53
81852,3.037,-5.084,-2.239,-0.050131,-0.228801,0.311515,99823.78,-203,+43,-53
81862,3.093,-4.848,-2.191,-0.137929,-0.200067,0.262561,99824.89,-203,+42,-53
81867,3.116,-4.595,-2.103,-0.196993,-0.179315,0.220524,99821.30,-203,+41,-53
81876,3.222,-4.328,-2.024,-0.241159,-0.160159,0.176891,99821.30,-203,+41,-53
81887,3.377,-4.003,-2.009,-0.277342,-0.144728,0.113570,99824.94,-203,+42,-55
81897,3.535,-3.754,-2.063,-0.281067,-0.144728,0.045460,99821.14,-203,+42,-54
81907,3.615,-3.569,-2.127,-0.235837,-0.158031,-0.022650,99821.14,-203,+42,-55
81917,3.565,-3.463,-2.190,-0.146975,-0.175590,-0.096081,99823.19,-203,+42,-55
81927,3.460,-3.268,-2.001,-0.032572,-0.175590,-0.171641,99823.69,-202,+42,-56
81937,3.571,-3.014,-1.730,0.090878,-0.158563,-0.255182,99821.61,-203,+43,-57
81947,3.803,-2.798,-1.396,0.215392,-0.125572,-0.341384,99821.61,-203,+45,-57
81956,4.017,-2.777,-1.123,0.330327,-0.075021,-0.432907,99821.61,-203,+45,-57
81967,4.291,-3.086,-0.895,0.424511,-0.009572,-0.532411,99826.10,-203,+46,-58
81977,4.737,-3.527,-0.531,0.505391,0.064391,-0.639897,99820.30,-202,+47,-56
81987,5.387,-3.988,-0.142,0.600639,0.127180,-0.753769,99823.18,-203,+50,-56
81997,6.186,-4.429,0.186,0.702272,0.174006,-0.872429,99822.45,-203,+50,-56
82007,6.938,-4.832,0.360,0.778364,0.215510,-0.983108,99822.45,-203,+52,-55
82017,7.471,-5.232,0.454,0.809226,0.261804,-1.068778,99824.13,-203,+55,-55
82027,7.812,-5.656,0.596,0.814015,0.324593,-1.140081,99822.59,-203,+57,-54
82037,7.951,-5.991,0.670,0.783153,0.402813,-1.195952,99821.67,-203,+57,-54
82048,7.969,-6.168,0.806,0.722492,0.508171,-1.230007,99821.67,-203,+61,-53
82057,8.178,-6.267,1.110,0.654382,0.638006,-1.248099,99824.12,-203,+65,-51
82067,8.655,-6.241,1.418,0.603300,0.772629,-1.244374,99824.12,-205,+68,-49
82077,9.196,-6.118,1.665,0.594254,0.882244,-1.212980,99821.98,-205,+68,-49
82086,9.709,-6.369,1.563,0.624052,0.959400,-1.166154,99822.91,-205,+72,-46
82097,10.058,-6.805,1.549,0.636823,1.018464,-1.126246,99821.40,-205,+77,-44
82103,10.138,-6.539,1.788,0.628841,1.063693,-1.088466,99821.40,-205,+77,-44
82112,10.199,-5.299,1.905,0.524015,1.148831,-1.064521,99825.06,-206,+80,-40
82122,9.209,-6.877,2.955,0.329263,1.282923,-0.999072,99823.59,-207,+83,-37
82131,10.485,-12.738,-0.203,0.562859,1.319106,-0.788356,99824.22,-207,+86,-33
82142,10.343,-10.435,-3.026,0.300529,1.067418,-0.809640,99824.48,-207,+86,-33
82152,13.955,-6.835,-3.175,-0.358223,1.152556,-0.858062,99824.48,-208,+89,-30
82162,18.038,-1.113,-4.368,-0.657268,0.902464,-0.861255,99824.27,-209,+93,-27
82172,19.771,0.877,0.246,-0.095361,0.598097,-0.867640,99825.63,-208,+96,-24
82182,16.804,-2.079,4.760,0.510180,0.458153,-0.546246,99823.80,-208,+96,-24
82192,11.269,-3.732,3.482,0.864565,0.370887,-0.266889,99821.66,-208,+96,-24
82202,7.734,-4.156,-0.141,0.949703,0.258611,-0.197714,99821.66,-208,+96,-24
82212,6.695,-5.281,-1.064,0.747501,0.252226,-0.220595,99822.65,-208,+97,-23
82222,7.176,-6.623,0.952,0.388859,0.366098,-0.304668,99822.76,-208,+97,-23
82232,7.893,-6.409,3.438,0.011061,0.443786,-0.362668,99825.10,-208,+98,-22
82242,8.076,-4.963,4.141,-0.244883,0.438464,-0.377567,99822.91,-208,+99,-20
82252,8.486,-3.197,2.290,-0.272553,0.392171,-0.367457,99822.91,-207,+101,-19
82262,8.748,-3.115,0.483,-0.121434,0.306501,-0.339788,99825.77,-207,+101,-19
82272,9.062,-3.624,0.614,0.008933,0.268189,-0.292430,99824.78,-208,+102,-17
82282,9.233,-4.167,1.139,-0.031507,0.285217,-0.249329,99822.06,-208,+103,-17
82292,9.388,-4.150,1.370,-0.063966,0.298520,-0.222723,99823.84,-209,+103,-17
82301,9.184,-3.824,1.540,-0.015544,0.278299,-0.208889,99823.84,-209,+103,-17
82312,8.711,-4.273,1.539,0.073318,0.258079,-0.213678,99824.55,-207,+105,-16
82322,8.564,-4.684,1.739,0.095667,0.253290,-0.229641,99827.16,-208,+105,-16
82332,8.590,-4.665,1.819,0.013190,0.271382,-0.249861,99824.33,-208,+105,-14
82337,8.692,-4.408,1.716,-0.045874,0.283621,-0.259439,99822.30,-208,+105,-14
82347,8.835,-3.953,1.727,-0.064498,0.275639,-0.258375,99822.30,-208,+106,-13
82357,8.963,-3.517,1.938,-0.026186,0.250098,-0.240283,99822.30,-209,+108,-14
82367,8.966,-3.458,2.126,0.030217,0.205932,-0.206760,99825.73,-209,+108,-14
82377,8.967,-3.710,2.049,0.058951,0.163896,-0.175366,99824.62,-207,+108,-12
82387,9.034,-3.775,1.973,0.053098,0.129309,-0.142907,99821.80,-208,+108,-12
82397,9.082,-3.716,2.130,0.027025,0.100043,-0.104595,99821.80,-208,+108,-13
82407,9.096,-3.452,2.122,-0.016608,0.072373,-0.054577,99822.48,-208,+108,-13
82417,9.033,-3.051,2.073,-0.035764,0.035657,0.005020,99822.48,-207,+109,-12
82427,9.026,-2.826,2.068,-0.008095,-0.012765,0.073662,99824.30,-208,+108,-12
82437,9.183,-2.766,1.954,0.033942,-0.068104,0.152946,99823.84,-208,+108,-12
82447,9.278,-2.902,1.894,0.091942,-0.121315,0.229570,99823.21,-208,+108,-12
82457,9.168,-3.159,1.805,0.164841,-0.173994,0.296084,99823.21,-208,+108,-13
82467,8.981,-3.454,1.815,0.239337,-0.225076,0.343973,99823.68,-208,+105,-14
82478,8.674,-3.672,1.550,0.298401,-0.261792,0.380689,99822.54,-209,+105,-15
82487,8.418,-3.872,1.147,0.281905,-0.263920,0.399313,99823.90,-209,+105,-15
82497,8.451,-4.122,0.946,0.228162,-0.244232,0.403038,99824.17,-209,+103,-14
82507,8.537,-4.244,1.128,0.206878,-0.219223,0.400377,99826.36,-209,+101,-15
82518,8.518,-4.155,1.230,0.219648,-0.211774,0.394524,99822.08,-209,+99,-16
82528,8.343,-4.231,1.365,0.246254,-0.214434,0.392928,99823.39,-209,+99,-16
82537,8.269,-4.360,1.449,0.253171,-0.201131,0.383882,99823.39,-209,+98,-17
82547,8.139,-4.490,1.362,0.234548,-0.175590,0.376964,99819.58,-209,+97,-17
82557,8.066,-4.392,1.068,0.208474,-0.138875,0.364194,99819.58,-209,+95,-19
82567,8.315,-4.322,0.717,0.192511,-0.096838,0.348230,99824.37,-209,+95,-19
82577,8.680,-4.443,0.672,0.200493,-0.068104,0.332267,99824.41,-209,+95,-19
82587,8.935,-4.503,1.076,0.240933,-0.040966,0.318964,99823.21,-210,+93,-19
82597,8.888,-4.467,1.401,0.265942,-0.026599,0.310983,99821.29,-210,+91,-19
82608,8.542,-4.630,1.657,0.279245,-0.025535,0.303001,99821.29,-210,+91,-19
82617,8.358,-4.946,1.708,0.251575,-0.012765,0.276928,99823.04,-210,+90,-20
82627,8.363,-5.317,1.680,0.168566,0.009052,0.237552,99822.70,-210,+89,-20
82637,8.443,-5.327,1.824,0.054694,0.044703,0.200304,99822.90,-210,+88,-19
82648,8.431,-5.233,1.909,-0.069287,0.070777,0.157735,99822.90,-210,+88,-19
82657,8.468,-4.946,1.875,-0.172516,0.092593,0.129533,99822.90,-210,+88,-18
82667,8.547,-4.874,2.097,-0.235837,0.102171,0.115698,99825.59,-210,+87,-19
82677,8.640,-4.890,1.956,-0.302351,0.093657,0.096010,99824.66,-210,+87,-17
82688,8.734,-5.034,1.532,-0.365672,0.078226,0.073662,99823.83,-210,+87,-17
82697,8.731,-4.741,1.872,-0.409305,0.072373,0.066212,99822.05,-210,+87,-17
82707,8.701,-4.509,1.973,-0.452406,0.049492,0.075790,99822.05,-211,+87,-17
82717,8.720,-4.179,1.928,-0.461984,0.013841,0.097075,99824.30,-210,+86,-17
82727,8.887,-3.648,2.024,-0.421544,-0.029260,0.147625,99823.88,-210,+86,-17
82738,8.983,-3.734,2.025,-0.349177,-0.087260,0.200304,99822.50,-211,+87,-17
82747,9.005,-4.102,1.679,-0.279470,-0.149517,0.238616,99822.50,-211,+86,-17
82757,8.883,-4.471,1.503,-0.244883,-0.187297,0.266818,99826.70,-210,+85,-18
82767,8.564,-4.684,1.545,-0.253397,-0.206453,0.286506,99826.70,-210,+85,-18
82778,8.351,-4.699,1.629,-0.295966,-0.208049,0.300340,99822.21,-211,+84,-18
82787,8.299,-4.612,1.462,-0.323103,-0.205920,0.308854,99826.76,-211,+84,-18
82797,8.304,-4.532,1.353,-0.306076,-0.213902,0.313111,99824.93,-210,+82,-19
82807,8.279,-4.754,1.194,-0.266700,-0.227737,0.314707,99824.93,-211,+82,-20
82818,8.234,-4.934,1.095,-0.250204,-0.234654,0.311515,99824.59,-211,+82,-20
82828,8.293,-4.906,1.126,-0.253929,-0.227205,0.308854,99826.04,-212,+82,-20
82837,8.304,-4.858,1.082,-0.256590,-0.220287,0.307258,99823.01,-211,+80,-20
82847,8.248,-4.736,1.139,-0.244351,-0.220820,0.308854,99823.07,-211,+79,-20
82857,8.203,-4.687,1.120,-0.218278,-0.228269,0.318432,99822.77,-211,+79,-20
82868,8.178,-4.563,1.244,-0.193269,-0.239975,0.336524,99822.82,-212,+78,-22
82877,8.177,-4.637,1.268,-0.165599,-0.250086,0.360469,99824.45,-211,+76,-22
82887,8.212,-4.864,1.248,-0.141122,-0.260728,0.380157,99824.45,-211,+75,-23
82897,8.297,-5.183,1.255,-0.144847,-0.270838,0.387606,99823.09,-211,+75,-23
82908,8.357,-5.395,1.139,-0.185287,-0.270306,0.391331,99823.09,-211,+74,-24
82917,8.359,-5.265,1.102,-0.234241,-0.263388,0.391863,99825.87,-211,+73,-24
82927,8.279,-5.069,1.121,-0.257654,-0.264985,0.395588,99823.99,-211,+72,-25
82937,8.183,-5.079,1.052,-0.241691,-0.275095,0.399845,99824.66,-211,+72,-25
82948,8.084,-5.220,0.933,-0.228920,-0.287333,0.407827,99821.54,-210,+70,-25
82958,8.009,-5.232,0.750,-0.232645,-0.291590,0.417405,99821.54,-210,+68,-27
82967,8.116,-5.149,0.681,-0.245948,-0.289994,0.428579,99822.79,-210,+68,-27
82977,8.255,-5.152,0.893,-0.243819,-0.299040,0.444542,99825.05,-210,+68,-27
82988,8.267,-5.038,1.353,-0.229984,-0.324049,0.463166,99821.27,-210,+67,-27
82998,8.082,-4.885,1.772,-0.174113,-0.355975,0.479129,99821.27,-210,+65,-29
83007,7.959,-4.747,1.849,-0.120370,-0.396948,0.528083,99821.27,-210,+63,-30
83017,7.809,-4.586,1.809,-0.033636,-0.443241,0.585551,99825.38,-210,+63,-30
83027,7.800,-4.636,1.300,0.094071,-0.506563,0.644615,99826.52,-210,+61,-32
83038,8.055,-5.058,0.501,0.221777,-0.587443,0.699955,99823.08,-209,+59,-33
83047,8.213,-5.616,0.022,0.292548,-0.649700,0.729221,99824.13,-209,+56,-35
83057,8.325,-6.153,-0.416,0.282437,-0.668324,0.738799,99824.13,-209,+56,-35
83067,8.498,-6.702,-0.660,0.181337,-0.664599,0.722836,99820.60,-209,+52,-38
83078,8.473,-6.457,0.062,0.031814,-0.621498,0.705276,99824.09,-208,+49,-38
83088,8.568,-6.208,0.144,-0.063434,-0.580526,0.709533,99822.21,-208,+48,-40
83097,8.556,-5.842,0.263,-0.082590,-0.586911,0.719111,99822.21,-208,+48,-40
83107,8.281,-5.884,0.494,-0.044810,-0.615113,0.729221,99823.49,-207,+45,-43
83118,8.126,-5.969,0.197,-0.026186,-0.643315,0.753166,99823.23,-206,+43,-44
83127,8.380,-6.038,-0.137,-0.038425,-0.663535,0.770193,99823.23,-206,+40,-46
83137,8.912,-6.598,-0.555,-0.063966,-0.674709,0.769129,99823.49,-206,+40,-46
83147,9.367,-6.689,-0.497,-0.120370,-0.673645,0.773918,99821.09,-205,+38,-48
83158,9.684,-6.629,-0.258,-0.167727,-0.668324,0.787753,99821.09,-204,+36,-49
83163,9.908,-6.652,-0.161,-0.189544,-0.672049,0.804781,99824.93,-204,+36,-49
83172,10.096,-6.807,-0.069,-0.208168,-0.684287,0.826065,99821.49,-203,+34,-51
83182,10.449,-6.697,0.050,-0.240094,-0.714617,0.860652,99824.93,-202,+30,-54
83192,11.118,-6.567,0.565,-0.255526,-0.775810,0.901625,99823.37,-200,+27,-56
83203,11.401,-6.609,1.238,-0.242755,-0.851902,0.972395,99823.37,-200,+27,-56
83213,11.349,-6.603,1.266,-0.272021,-0.893406,1.074560,99824.75,-199,+23,-59
83222,11.819,-6.425,0.821,-0.364076,-0.914691,1.190028,99821.98,-198,+20,-61
83232,12.522,-6.216,0.788,-0.460920,-0.949810,1.304432,99824.48,-196,+17,-64
83243,13.083,-6.204,1.231,-0.535415,-1.004617,1.422028,99821.56,-196,+17,-64
83253,13.653,-6.364,2.185,-0.589158,-1.056232,1.546009,99821.56,-193,+11,-66
83262,14.073,-6.633,3.292,-0.657801,-1.090287,1.686486,99821.34,-191,+6,-71
83272,14.216,-6.907,4.202,-0.800406,-1.083902,1.811000,99820.92,-188,+1,-73
83282,14.421,-7.170,4.679,-1.037727,-1.017920,1.927532,99824.20,-188,+1,-73
83293,15.112,-6.582,4.991,-1.377745,-0.905645,2.027037,99819.83,-185,-2,-77
83302,15.820,-5.433,5.216,-1.764589,-0.794434,2.138780,99819.83,-183,-7,-80
83312,15.853,-4.588,4.700,-2.083323,-0.711425,2.272871,99822.03,-178,-11,-82
83322,15.350,-5.074,2.966,-2.340864,-0.675773,2.421862,99820.83,-178,-11,-82
83333,14.699,-6.859,0.438,-2.579249,-0.673113,2.553825,99822.19,-176,-14,-87
83343,13.730,-9.548,-0.941,-2.834130,-0.765168,2.627256,99822.14,-172,-18,-90
83352,12.935,-10.639,-0.323,-2.982588,-0.866269,2.624596,99822.14,-168,-21,-95
83362,12.716,-9.831,0.888,-2.919799,-0.867865,2.558082,99822.44,-168,-21,-95
83373,11.947,-8.520,1.522,-2.756974,-0.839663,2.500082,99822.66,-163,-23,-99
83383,10.319,-7.272,1.792,-2.500497,-0.826360,2.425587,99822.23,-159,-26,-104
83392,8.968,-6.367,1.983,-2.203579,-0.796030,2.319165,99820.05,-155,-28,-107
83398,8.285,-5.103,2.317,-1.964662,-0.748672,2.225513,99820.05,-155,-28,-107
83407,7.346,-3.423,2.680,-1.773635,-0.638526,2.050982,99820.05,-150,-30,-111
83418,6.843,-0.459,2.749,-1.650185,-0.410783,1.668927,99822.27,-148,-31,-112
83428,6.263,-0.457,1.155,-1.635286,-0.209113,1.315606,99823.41,-148,-31,-112
83438,5.298,-1.548,1.553,-1.374552,-0.106948,1.181514,99819.77,-146,-33,-114
83447,5.133,0.347,1.939,-0.857342,-0.029260,0.759551,99819.93,-144,-33,-116
83458,4.770,1.741,2.211,-0.359819,0.065988,0.358340,99822.32,-144,-34,-116
83468,4.103,1.985,2.036,0.143557,0.111217,0.069937,99821.02,-144,-34,-116
83477,3.470,1.639,1.770,0.591593,0.144208,-0.219531,99821.02,-144,-36,-115
83487,2.976,1.216,1.505,0.976841,0.197419,-0.514320,99819.40,-144,-37,-114
83497,2.569,0.606,1.267,1.323776,0.276171,-0.807512,99820.40,-145,-39,-111
83508,2.255,-0.283,0.949,1.620693,0.375143,-1.107090,99820.40,-145,-39,-111
83518,1.998,-1.188,0.926,1.828216,0.503914,-1.405071,99821.81,-148,-40,-109
83527,2.013,-1.651,1.280,1.952198,0.676318,-1.718484,99821.44,-151,-41,-106
83537,2.408,-1.696,1.681,1.998491,0.889693,-2.057970,99821.03,-155,-40,-100
83548,2.877,-1.423,1.916,1.963904,1.128611,-2.406502,99818.20,-155,-40,-100
83558,3.389,-1.260,2.032,1.856950,1.365932,-2.722043,99818.20,-160,-38,-95
83568,3.887,-1.438,1.938,1.751593,1.569730,-2.968942,99820.51,-166,-34,-90
83577,4.577,-1.780,1.866,1.707960,1.740005,-3.168483,99817.71,-172,-29,-83
83588,5.407,-2.026,1.709,1.710088,1.907087,-3.358446,99818.49,-172,-29,-83
83598,6.330,-2.311,1.568,1.720730,2.055014,-3.565437,99818.49,-179,-22,-77
83607,7.267,-2.643,1.496,1.751060,2.207729,-3.762850,99818.49,-185,-15,-68
83617,8.030,-3.053,1.528,1.772345,2.359913,-3.949620,99821.38,-191,-6,-59
83628,8.698,-3.461,1.502,1.755317,2.500390,-4.120959,99819.09,-191,-6,-59
83633,9.111,-3.743,1.446,1.731372,2.596169,-4.234299,99817.01,-197,+3,-51
83643,9.581,-4.026,1.466,1.738822,2.687160,-4.337528,99819.51,-202,+15,-41
83652,10.423,-4.539,1.608,1.793097,2.809013,-4.473748,99819.51,-202,+15,-41
83662,11.492,-5.060,1.685,1.853225,2.915435,-4.608372,99819.39,-205,+28,-33
83673,12.701,-5.477,1.836,1.892602,3.004298,-4.735546,99817.05,-207,+41,-24
83683,14.037,-5.959,1.899,1.927721,3.085711,-4.826005,99819.23,-209,+55,-16
83693,15.354,-6.633,1.909,1.975079,3.148499,-4.853142,99817.94,-209,+55,-16
83702,16.463,-7.393,1.580,2.018712,3.186811,-4.854207,99817.94,-210,+69,-7
83713,17.398,-8.137,1.266,2.051170,3.211288,-4.846757,99823.13,-209,+84,+0
83723,18.656,-9.592,0.518,2.057023,3.210224,-4.770133,99822.34,-207,+98,+8
83733,19.022,-11.872,-0.667,2.018179,3.161270,-4.632849,99820.83,-207,+98,+8
83742,18.193,-13.722,-2.173,1.859079,3.084114,-4.461510,99820.41,-205,+112,+17
83752,17.008,-14.701,-3.429,1.597281,2.956940,-4.246537,99820.41,-202,+126,+23
83763,16.065,-15.614,-4.468,1.333354,2.743564,-3.951749,99823.05,-197,+138,+30
83773,15.102,-16.711,-4.469,1.156162,2.484959,-3.621840,99823.78,-197,+138,+30
83782,13.903,-17.411,-4.560,1.048676,2.176335,-3.199345,99825.81,-193,+149,+35
83792,11.486,-19.549,-5.805,0.980565,1.813436,-2.664575,99823.58,-189,+158,+38
83803,7.630,-21.729,-7.311,0.973116,1.443620,-2.127144,99823.58,-185,+165,+40
83813,5.211,-22.054,-7.876,0.804969,1.106794,-1.477970,99826.03,-185,+165,+40
83823,4.770,-20.236,-7.065,0.415997,0.747088,-0.690980,99826.55,-184,+168,+42
83832,5.984,-17.902,-6.000,-0.073012,0.354923,0.116231,99824.25,-184,+168,+44
83843,7.373,-16.494,-5.455,-0.522113,-0.036177,0.827661,99824.92,-186,+163,+45
83853,7.835,-16.543,-5.098,-0.916406,-0.351719,1.387973,99824.92,-186,+163,+45
83863,9.575,-16.239,-3.710,-1.234075,-0.638526,1.860486,99823.36,-189,+157,+46
83872,11.893,-11.421,-3.639,-1.316552,-0.892342,2.083440,99825.19,-194,+149,+46
83883,13.621,-3.123,-2.008,-1.313892,-1.345700,2.246266,99824.52,-198,+140,+43
83893,21.939,17.482,11.064,-0.352370,-1.377626,1.574211,99819.50,-198,+140,+43
83903,26.594,27.450,11.404,-0.045874,-1.071663,0.706872,99819.50,-200,+135,+41
83913,15.605,-0.013,-0.877,-0.341195,-1.357406,1.980743,99823.87,-203,+130,+37
83922,8.747,-14.286,-6.072,1.135942,-2.189626,2.798596,99826.79,-207,+120,+29
83933,7.692,-13.350,-0.050,2.792931,-2.376396,2.408027,99823.91,-207,+120,+29
83943,8.261,-10.886,-2.273,2.153867,-1.743718,2.093550,99822.76,-209,+112,+20
83953,9.568,-7.949,-2.657,0.805501,-1.078048,2.000963,99822.76,-212,+105,+16
83962,6.335,-6.038,2.066,0.017447,-0.764636,1.846651,99824.16,-213,+99,+13
83973,7.132,-7.832,3.543,-0.194333,-0.593828,1.728523,99824.21,-213,+99,+13
83983,9.283,-4.752,2.670,-0.282131,-0.692269,1.541220,99823.74,-214,+93,+13
83988,9.238,-2.376,2.475,-0.363012,-0.743351,1.432670,99822.96,-216,+88,+10
83997,9.005,-3.963,1.671,-0.406113,-0.753994,1.433202,99822.96,-216,+88,+10
84007,8.877,-6.012,0.873,-0.458259,-0.791241,1.443312,99822.96,-216,+82,+8
84018,8.765,-5.543,1.492,-0.603525,-0.647572,1.365092,99823.05,-217,+78,+6
84028,8.510,-3.761,1.292,-0.676956,-0.493792,1.293789,99823.20,-218,+73,+4
84038,8.674,-2.443,1.049,-0.415691,-0.483150,1.248028,99820.97,-218,+73,+4
84047,9.135,-2.517,1.989,-0.049599,-0.591168,1.212909,99820.97,-218,+68,+3
84058,8.735,-3.965,2.172,0.214327,-0.677902,1.174065,99825.77,-219,+63,+1
84068,8.420,-5.161,1.198,0.224437,-0.666195,1.087863,99825.77,-218,+61,+0
84078,8.339,-5.729,0.906,-0.010223,-0.564562,0.995808,99822.75,-218,+61,+0
84087,8.464,-5.791,1.155,-0.278938,-0.425150,0.892579,99823.38,-219,+56,-1
84098,8.365,-5.372,1.698,-0.466773,-0.332563,0.784560,99823.06,-219,+53,-3
84108,8.343,-4.535,2.001,-0.506149,-0.286801,0.690377,99823.06,-219,+52,-3
84118,8.546,-3.944,1.783,-0.449213,-0.295315,0.625460,99822.30,-219,+52,-3
84128,8.572,-3.865,1.703,-0.314058,-0.304361,0.589276,99823.88,-219,+49,-4
84137,8.646,-4.214,1.373,-0.200186,-0.297443,0.560010,99823.98,-219,+47,-5
84148,8.548,-4.845,1.332,-0.203379,-0.276159,0.524359,99821.70,-219,+45,-6
84158,8.523,-5.346,1.441,-0.285324,-0.219755,0.478065,99824.66,-219,+45,-6
84168,8.583,-5.328,1.461,-0.431654,-0.163884,0.430175,99823.30,-219,+44,-8
84178,8.706,-4.887,1.465,-0.522113,-0.138343,0.390267,99822.88,-218,+42,-6
84188,8.639,-4.304,1.481,-0.523709,-0.139939,0.376964,99822.88,-219,+42,-7
84198,8.554,-4.140,1.645,-0.475819,-0.143132,0.381753,99820.49,-219,+42,-7
84208,8.515,-4.399,1.681,-0.451874,-0.143664,0.386010,99820.49,-218,+40,-7
84218,8.583,-4.626,1.709,-0.476351,-0.121847,0.382818,99828.71,-218,+39,-8
84228,8.458,-4.839,1.750,-0.514131,-0.096838,0.376432,99822.55,-219,+38,-9
84238,8.300,-4.773,1.738,-0.553507,-0.069168,0.368451,99823.87,-218,+38,-9
84248,8.200,-4.717,1.671,-0.582773,-0.048416,0.364726,99820.74,-218,+36,-9
84258,8.153,-4.811,1.742,-0.600865,-0.034049,0.362065,99820.74,-218,+36,-9
84268,8.151,-4.930,1.629,-0.633856,-0.018618,0.366322,99824.66,-218,+35,-9
84278,8.325,-4.843,1.436,-0.673764,-0.009040,0.374836,99824.56,-218,+34,-9
84288,8.476,-4.560,1.483,-0.686534,-0.010104,0.388671,99821.42,-218,+34,-9
84298,8.527,-4.335,1.564,-0.663122,-0.012765,0.417405,99821.42,-218,+33,-9
84307,8.468,-4.080,1.693,-0.602993,-0.036177,0.459441,99821.42,-218,+32,-9
84318,8.321,-4.134,1.746,-0.507213,-0.081939,0.504671,99823.97,-217,+30,-9
84328,8.023,-4.066,1.896,-0.405048,-0.119719,0.562671,99825.80,-217,+30,-9
84338,7.742,-3.939,2.154,-0.317782,-0.161755,0.635038,99822.88,-218,+28,-9
84347,7.552,-3.983,2.152,-0.225195,-0.213902,0.715386,99822.30,-218,+25,-11
84358,7.586,-4.868,1.450,-0.181562,-0.297975,0.774982,99822.30,-218,+22,-11
84368,8.505,-5.169,1.584,-0.223599,-0.345865,0.825001,99825.23,-218,+22,-11
84378,9.143,-5.135,1.046,-0.325232,-0.369278,0.896836,99825.30,-217,+20,-12
84388,9.578,-4.696,0.359,-0.391214,-0.424085,0.961753,99823.59,-216,+17,-13
84398,10.258,-4.262,0.191,-0.361415,-0.500709,1.037845,99823.59,-216,+13,-16
84408,10.559,-4.536,-0.038,-0.278406,-0.605535,1.108615,99824.69,-216,+13,-16
84418,10.776,-4.501,0.542,-0.191140,-0.710361,1.198542,99824.69,-214,+9,-16
84428,10.952,-4.714,0.670,-0.124094,-0.825296,1.291129,99821.52,-214,+4,-20
84438,11.141,-4.965,0.858,-0.109727,-0.938636,1.383184,99823.75,-212,+0,-23
84448,11.269,-4.977,0.934,-0.144315,-1.048782,1.491202,99824.59,-212,+0,-23
84459,11.514,-5.076,0.805,-0.182804,-1.158752,1.610749,99823.09,-210,-4,-25
84468,11.649,-5.475,0.960,-0.214553,-1.254177,1.721074,99823.09,-209,-9,-30
84478,11.906,-6.252,1.455,-0.256590,-1.351553,1.799294,99824.45,-207,-15,-35
84488,11.998,-7.201,1.896,-0.360351,-1.401571,1.880174,99822.58,-207,-15,-35
84498,12.284,-7.764,2.139,-0.545525,-1.413278,1.948284,99822.39,-203,-21,-40
84508,13.205,-7.493,2.164,-0.782846,-1.418067,2.002028,99824.94,-201,-26,-45
84518,15.246,-7.017,2.300,-0.991433,-1.477663,2.046725,99826.72,-196,-31,-49
84528,16.813,-6.811,3.758,-1.099452,-1.586213,2.104725,99822.33,-196,-31,-49
84538,18.091,-6.518,3.918,-1.209066,-1.612819,2.223385,99822.33,-193,-35,-56
84548,20.128,-6.245,3.126,-1.425103,-1.614947,2.317569,99822.17,-187,-40,-62
84558,21.613,-6.014,2.894,-1.732130,-1.615479,2.435165,99822.17,-182,-45,-68
84568,22.200,-6.001,3.404,-2.052992,-1.627718,2.635238,99824.42,-182,-45,-68
84578,22.111,-5.501,4.698,-2.317451,-1.680929,2.922577,99824.63,-176,-47,-75
84588,21.200,-4.145,5.592,-2.556368,-1.791608,3.259403,99822.22,-170,-51,-83
84598,18.138,-4.461,4.414,-2.665983,-1.997534,3.523861,99820.86,-160,-55,-91
84609,14.902,-4.532,5.925,-2.270093,-2.283277,3.547806,99820.86,-160,-55,-91
84618,13.163,-3.291,8.840,-1.649653,-2.244433,3.253017,99821.70,-152,-59,-99
84628,12.307,-3.256,7.959,-1.300589,-1.949644,2.847550,99823.77,-144,-63,-105
84638,11.213,-4.272,4.107,-1.178736,-1.641553,2.474009,99822.41,-137,-65,-111
84648,7.701,-8.159,0.714,-1.221305,-1.468617,2.293092,99822.41,-137,-65,-111
84658,5.772,-9.054,2.547,-1.069121,-1.192984,2.194119,99822.41,-131,-67,-115
84668,5.771,-4.636,5.499,-0.930773,-0.666728,1.621037,99823.20,-126,-67,-117
84678,5.699,-0.144,4.705,-1.184057,-0.077150,0.826065,99824.66,-124,-66,-119
84688,4.565,-0.278,5.531,-1.549084,0.326721,0.534469,99821.69,-124,-66,-119
84694,4.624,1.328,6.402,-1.452772,0.486886,0.250322,99818.81,-123,-62,-120
84703,4.629,3.609,5.754,-1.369763,0.675785,-0.232301,99818.81,-125,-58,-121
84713,4.747,4.405,4.790,-1.313360,0.884905,-0.643090,99822.67,-125,-58,-121
84723,4.193,3.485,3.485,-1.051562,0.951418,-0.867640,99819.44,-128,-53,-120
84733,3.580,2.392,2.164,-0.648755,1.006225,-1.128906,99819.33,-132,-48,-120
84743,3.055,1.722,1.285,-0.141122,1.063161,-1.403475,99818.08,-135,-43,-118
84753,2.745,1.352,1.153,0.495813,1.150959,-1.715823,99818.08,-135,-43,-118
84763,2.926,1.086,1.291,1.102951,1.272280,-2.079254,99821.03,-141,-40,-115
84773,3.555,0.986,1.514,1.512143,1.415418,-2.437364,99818.27,-146,-36,-110
84783,4.321,0.837,1.611,1.723923,1.573454,-2.747584,99818.80,-151,-32,-106
84793,4.709,0.481,1.526,1.877170,1.726702,-3.000336,99817.86,-151,-32,-106
84803,4.798,-0.275,1.746,2.060748,1.877821,-3.227015,99817.86,-159,-26,-101
84813,5.128,-1.243,2.094,2.273060,2.011913,-3.464336,99821.34,-165,-20,-95
84823,5.765,-2.076,2.316,2.475794,2.130574,-3.705382,99817.84,-171,-13,-90
84833,6.562,-2.795,2.487,2.629574,2.264665,-3.927804,99818.78,-171,-13,-90
84843,7.601,-3.406,2.524,2.699812,2.417913,-4.128409,99816.91,-178,-5,-83
84853,8.541,-3.903,2.383,2.698216,2.580206,-4.312519,99816.91,-185,+5,-76
84864,9.380,-4.389,2.145,2.645005,2.757399,-4.480134,99819.04,-191,+15,-71
84873,10.164,-4.867,1.996,2.558271,2.945234,-4.631253,99818.62,-191,+15,-71
84883,11.249,-5.213,2.044,2.453445,3.127215,-4.777050,99819.51,-196,+26,-64
84893,12.581,-5.742,2.112,2.320418,3.265032,-4.927105,99816.23,-202,+39,-56
84903,13.735,-6.651,1.979,2.098528,3.375178,-5.087803,99816.23,-207,+54,-48
84913,14.961,-7.724,1.751,1.808528,3.503949,-5.241582,99822.16,-207,+54,-48
84923,16.497,-8.942,1.407,1.534492,3.643362,-5.336830,99819.19,-212,+71,-40
84929,17.768,-10.066,0.909,1.366345,3.730628,-5.348536,99820.08,-216,+89,-29
84938,18.782,-11.263,0.202,1.249281,3.781710,-5.301711,99820.08,-216,+89,-29
84948,19.601,-12.788,-0.843,1.155097,3.779582,-5.174537,99819.91,-217,+109,-17
84959,20.165,-14.484,-2.064,1.122639,3.702958,-4.969675,99819.91,-214,+129,-6
84968,20.719,-16.376,-3.394,1.139666,3.549710,-4.708941,99822.53,-209,+149,+3
84978,20.191,-18.428,-6.330,1.176914,3.222995,-4.331142,99822.09,-209,+149,+3
84988,18.030,-20.224,-7.595,1.187556,2.796243,-3.874061,99823.84,-202,+166,+10
84999,14.984,-21.468,-8.506,1.367941,2.345546,-3.437198,99823.84,-193,+180,+16
85008,9.623,-25.311,-9.492,1.545134,1.882078,-2.916795,99823.84,-185,+191,+17
85018,4.169,-28.677,-10.314,1.474895,1.436702,-2.206961,99828.98,-185,+191,+17
85028,2.846,-27.960,-10.225,1.149244,0.923216,-1.278961,99828.91,-180,+197,+17
85039,4.320,-24.580,-9.655,0.607024,0.318208,-0.204100,99827.41,-176,+199,+16
85048,7.073,-21.109,-8.942,0.103116,-0.244232,0.855863,99826.88,-178,+197,+16
85058,9.166,-19.980,-7.356,-0.298626,-0.718874,1.709899,99826.88,-178,+197,+16
85068,11.540,-15.760,-4.889,-0.352370,-1.068470,2.160064,99828.47,-182,+191,+14
85079,11.752,-11.201,-6.245,-0.465709,-1.743186,2.567660,99826.75,-186,+184,+10
85089,19.057,9.508,10.979,0.295208,-1.868764,2.074394,99824.38,-189,+177,+4
85098,29.654,33.050,16.103,0.817740,-1.161058,0.754762,99824.38,-189,+177,+4
85108,19.067,1.845,-3.142,-0.859470,-1.150415,2.088761,99827.51,-191,+175,+0
85118,10.067,-16.645,-8.810,0.284566,-2.233791,3.336559,99827.93,-194,+164,-4
85128,8.898,-15.103,-0.815,2.386399,-2.368414,2.653862,99827.93,-196,+155,-15
85138,7.859,-10.075,-2.544,1.806400,-1.771387,2.220192,99822.87,-196,+155,-15
85148,9.226,-8.520,-0.451,0.721428,-1.139773,2.289367,99822.87,-198,+146,-20
85158,8.236,-11.160,0.898,0.272327,-0.967370,2.190926,99822.87,-200,+138,-24
85164,7.780,-11.529,0.019,-0.091636,-0.954067,1.974358,99823.21,-200,+138,-24
85173,8.246,-7.031,0.355,-0.469434,-0.874250,1.753532,99823.48,-201,+132,-26
85183,8.641,-3.259,1.557,-0.799342,-0.732177,1.612523,99823.59,-203,+127,-27
85193,8.385,-3.065,1.138,-0.606186,-0.726324,1.558248,99824.10,-203,+122,-29
85203,8.591,-3.178,1.345,-0.386957,-0.714617,1.501844,99824.10,-203,+122,-29
85214,8.735,-3.806,1.352,-0.274681,-0.676838,1.385312,99823.43,-204,+118,-30
85223,8.734,-4.139,1.231,-0.259782,-0.614581,1.281019,99823.43,-205,+114,-32
85233,8.232,-4.331,1.413,-0.307140,-0.520929,1.204395,99825.73,-205,+109,-33
85243,8.691,-3.734,1.581,-0.336938,-0.445902,1.108615,99825.77,-205,+109,-33
85254,8.898,-3.546,1.335,-0.382168,-0.413975,1.037312,99825.77,-205,+106,-34
85263,9.156,-3.981,1.601,-0.414094,-0.377792,0.968138,99826.77,-206,+103,-36
85273,8.935,-4.769,2.274,-0.426865,-0.336819,0.893111,99825.68,-206,+100,-36
85283,8.365,-4.924,2.358,-0.469434,-0.302764,0.810634,99824.74,-206,+100,-36
85294,8.015,-4.534,1.971,-0.500828,-0.279884,0.730817,99823.07,-206,+99,-36
85303,8.100,-4.374,1.705,-0.473158,-0.263920,0.651533,99823.07,-208,+97,-37
85313,8.550,-4.533,1.614,-0.449213,-0.259131,0.585019,99823.23,-207,+94,-37
85323,8.912,-4.386,1.683,-0.466241,-0.247425,0.533937,99824.90,-207,+94,-37
85334,9.021,-4.169,1.818,-0.503489,-0.211242,0.517441,99823.29,-207,+93,-38
85344,8.986,-4.110,1.796,-0.539672,-0.169205,0.516909,99821.20,-207,+91,-38
85353,8.778,-3.927,1.896,-0.577984,-0.131425,0.520634,99821.20,-207,+90,-38
85363,8.576,-4.048,2.035,-0.582241,-0.111205,0.528616,99825.07,-207,+90,-38
85373,8.307,-4.422,2.017,-0.563617,-0.119187,0.531276,99823.80,-208,+89,-38
85384,8.301,-4.586,2.006,-0.566810,-0.126636,0.523294,99822.82,-208,+87,-38
85393,8.415,-4.538,1.982,-0.572131,-0.130893,0.515313,99822.09,-208,+86,-38
85403,8.413,-4.611,1.838,-0.556700,-0.139407,0.508928,99822.09,-208,+86,-38
85413,8.389,-4.429,1.812,-0.542333,-0.145792,0.503074,99824.21,-208,+86,-38
85424,8.413,-4.122,1.885,-0.498168,-0.154838,0.509460,99823.01,-209,+84,-38
85434,8.323,-3.947,2.006,-0.407177,-0.176122,0.525955,99820.62,-208,+82,-39
85443,8.033,-4.326,2.079,-0.283195,-0.217627,0.531808,99824.26,-208,+82,-39
85453,7.944,-4.868,2.054,-0.196993,-0.261260,0.519038,99824.26,-209,+80,-40
85464,8.029,-5.258,1.877,-0.185819,-0.263388,0.502010,99827.66,-208,+79,-40
85474,8.090,-5.736,1.317,-0.248076,-0.238911,0.475405,99824.43,-209,+77,-40
85483,8.313,-5.534,0.825,-0.370993,-0.199535,0.444010,99823.45,-209,+77,-40
85493,8.667,-4.752,0.513,-0.457195,-0.155370,0.426983,99824.80,-209,+76,-40
85504,8.884,-4.234,0.403,-0.456663,-0.147388,0.433368,99824.80,-209,+74,-41
85514,8.853,-3.831,0.553,-0.394938,-0.161755,0.470616,99823.78,-209,+74,-41
85519,8.809,-3.659,0.660,-0.333214,-0.176122,0.508928,99821.64,-209,+74,-41
85528,8.832,-3.809,1.146,-0.264039,-0.208049,0.552561,99821.64,-209,+72,-42
85538,8.504,-3.660,1.963,-0.163471,-0.252746,0.638230,99823.89,-208,+70,-42
85549,8.100,-3.509,2.466,-0.057049,-0.307553,0.742524,99823.16,-208,+70,-42
85559,7.625,-4.100,2.080,0.035006,-0.401737,0.835643,99824.53,-208,+68,-43
85569,8.199,-4.990,1.450,0.028621,-0.470911,0.908010,99824.94,-208,+64,-45
85578,9.327,-5.062,1.402,-0.098021,-0.492728,0.989955,99824.69,-207,+60,-46
85588,10.077,-4.709,1.078,-0.228920,-0.498049,1.084670,99824.11,-207,+60,-46
85599,10.287,-4.491,0.378,-0.280003,-0.542214,1.188432,99824.11,-207,+57,-47
85608,10.520,-4.317,-0.246,-0.235305,-0.633737,1.284743,99824.11,-207,+53,-49
85618,10.791,-4.241,-0.754,-0.176773,-0.751333,1.381588,99827.24,-206,+48,-51
85628,10.890,-4.331,-1.008,-0.135801,-0.883828,1.464597,99823.27,-206,+48,-51
85639,11.337,-4.722,-0.482,-0.109727,-1.032287,1.530578,99824.01,-205,+43,-54
85649,11.499,-5.433,0.909,-0.127819,-1.164782,1.605606,99824.63,-203,+37,-59
85658,11.519,-6.306,2.546,-0.169324,-1.261626,1.679037,99824.63,-200,+32,-61
85668,11.277,-7.576,3.286,-0.287984,-1.308984,1.738633,99826.05,-200,+32,-61
85679,11.876,-8.481,3.253,-0.488057,-1.310580,1.787055,99822.95,-198,+27,-65
85689,13.216,-8.441,2.596,-0.748259,-1.302067,1.825367,99821.94,-195,+22,-70
85698,15.253,-7.637,2.111,-0.982387,-1.338250,1.848248,99821.94,-193,+17,-74
85708,16.614,-6.950,3.493,-1.105837,-1.446800,1.903055,99825.34,-193,+17,-74
85719,17.595,-5.844,3.335,-1.214387,-1.481388,2.036083,99825.34,-189,+13,-77
85729,19.497,-4.630,2.369,-1.413928,-1.508525,2.153679,99823.20,-185,+7,-82
85738,21.320,-3.379,1.932,-1.638479,-1.563333,2.263825,99823.15,-180,+3,-87
85748,22.182,-2.456,2.153,-1.836956,-1.613883,2.412284,99825.91,-175,+167,-92
85754,22.166,-2.321,2.624,-1.948699,-1.658580,2.570321,99825.91,-175,+0,-92
85764,21.954,-2.390,3.959,-2.015745,-1.710727,2.779972,99826.74,-169,-5,-99
85774,21.076,-2.565,5.664,-2.109396,-1.818745,3.068375,99823.30,-169,-5,-99
85783,18.526,-3.385,4.872,-2.175378,-1.974121,3.253017,99823.57,-162,-10,-105
85793,14.473,-5.675,5.160,-2.120570,-2.135350,3.270577,99818.98,-153,-15,-111
85804,12.983,-5.912,7.036,-2.017341,-2.080011,2.950779,99818.98,-146,-19,-117
85814,12.691,-6.719,6.262,-1.990735,-1.826195,2.646412,99822.58,-146,-19,-117
85824,12.289,-8.075,2.227,-2.024258,-1.649534,2.460706,99824.14,-139,-21,-122
85833,9.715,-9.873,0.721,-1.677855,-1.734140,2.516045,99823.00,-133,-22,-128
85843,6.404,-9.385,2.001,-0.845635,-1.677736,2.487844,99821.84,-126,-27,-132
85854,4.693,-5.106,5.534,-0.357158,-1.225975,1.968505,99821.84,-126,-27,-132
85864,5.071,0.208,6.451,-0.483801,-0.512948,1.146927,99821.96,-121,-30,-134
85873,4.619,0.053,4.351,-1.225562,0.041511,0.674946,99821.18,-120,-29,-135
85883,3.573,0.174,5.286,-1.512901,0.270318,0.494028,99820.98,-121,-26,-136
85894,3.642,2.619,5.410,-1.517690,0.617785,-0.114705,99820.04,-121,-26,-136
85904,3.726,3.964,4.680,-1.503323,0.895015,-0.605310,99820.04,-122,-21,-136
85913,3.173,3.273,3.199,-1.276112,0.976427,-0.859127,99821.42,-124,-15,-135
85923,2.512,2.005,1.789,-0.892461,1.008354,-1.119861,99819.39,-127,-9,-133
85934,1.896,1.109,1.352,-0.388021,1.059969,-1.424759,99820.28,-127,-9,-133
85944,1.729,1.032,1.739,0.249979,1.153620,-1.777548,99821.27,-131,-4,-132
85953,1.968,1.344,2.009,0.870419,1.266959,-2.156410,99821.27,-134,+0,-130
85963,2.692,1.206,1.981,1.343996,1.382427,-2.499089,99821.28,-139,+3,-126
85974,3.385,0.540,1.848,1.647299,1.483528,-2.775786,99820.34,-139,+3,-126
85984,3.725,-0.378,1.651,1.847372,1.589418,-3.007786,99820.30,-142,+8,-122
85989,3.798,-1.147,1.565,1.983592,1.674555,-3.166887,99820.14,-146,+13,-119
85998,3.815,-1.717,1.839,2.165574,1.767142,-3.337694,99820.14,-146,+13,-119
86008,4.083,-2.015,2.431,2.428968,1.904959,-3.606941,99820.14,-150,+17,-115
86019,4.839,-2.268,2.962,2.595518,2.032133,-3.859694,99819.84,-155,+24,-110
86029,5.733,-2.799,3.265,2.647133,2.178996,-4.060831,99821.94,-160,+29,-107
86039,6.810,-3.481,3.445,2.631702,2.343950,-4.229510,99817.78,-160,+29,-107
86048,7.735,-4.144,3.545,2.590197,2.531784,-4.376372,99817.78,-164,+35,-101
86059,8.410,-4.930,3.376,2.538051,2.740371,-4.501418,99820.59,-171,+42,-95
86069,9.089,-5.540,3.436,2.477922,2.963325,-4.608904,99820.59,-176,+51,-88
86079,10.179,-6.112,3.469,2.413537,3.183619,-4.727564,99820.50,-176,+51,-88
86088,11.479,-6.751,3.201,2.295408,3.372518,-4.855803,99818.88,-183,+59,-80
86098,12.909,-7.469,2.958,2.083097,3.560352,-4.981381,99817.31,-188,+71,-70
86109,14.654,-8.280,3.088,1.810657,3.772132,-5.109087,99817.31,-194,+85,-59
86119,16.705,-9.141,3.166,1.507886,3.990297,-5.210720,99821.05,-194,+85,-59
86129,19.339,-10.906,2.431,1.241831,4.164829,-5.193161,99820.11,-197,+102,-46
86138,20.459,-13.208,1.224,1.079538,4.231875,-5.110683,99820.16,-196,+120,-33
86149,20.884,-15.065,-0.876,0.930547,4.257948,-4.984041,99821.37,-193,+138,-20
86159,20.913,-16.317,-3.460,0.699611,4.140884,-4.665840,99824.04,-193,+138,-20
86169,19.989,-16.788,-5.964,0.559134,3.801930,-4.208225,99823.46,-187,+154,-9
86179,18.786,-16.424,-7.305,0.651722,3.286848,-3.718153,99823.35,-179,+167,+0
86189,16.275,-17.481,-8.431,1.018877,2.720683,-3.263731,99823.35,-173,+178,+4
86199,10.771,-20.854,-9.568,1.495648,2.348738,-2.901896,99823.73,-173,+178,+4
86209,6.278,-24.551,-11.128,1.616969,2.006592,-2.362337,99823.73,-166,+186,+8
86218,4.125,-25.927,-12.040,1.103483,1.483528,-1.415181,99828.87,-162,+191,+9
86224,4.782,-23.385,-12.161,0.427703,0.942372,-0.495696,99825.59,-162,+191,+9
86234,7.108,-19.794,-12.116,-0.256058,0.360776,0.395056,99825.68,-161,+194,+9
86244,9.530,-17.269,-10.640,-0.817433,-0.343205,1.318799,99826.79,-164,+190,+11
86254,10.915,-16.671,-7.622,-0.948332,-0.936507,1.961055,99826.79,-167,+184,+9
86263,13.541,-11.253,-3.789,-0.565213,-1.348892,2.271275,99828.24,-167,+184,+9
86274,12.728,-5.603,-2.349,-0.378975,-1.827791,2.424523,99827.77,-171,+179,+6
86284,22.947,16.069,19.169,0.652254,-1.705938,1.832284,99823.87,-174,+172,+1
86294,32.135,32.296,11.391,0.469208,-0.834342,0.633441,99817.82,-174,+170,-1
86303,14.869,-3.598,-8.678,-1.286222,-1.643149,2.575110,99817.82,-174,+170,-1
86313,9.460,-17.792,-6.425,1.216290,-2.723864,3.341348,99827.72,-178,+161,-7
86324,8.409,-15.649,2.146,3.094637,-2.490800,2.634706,99824.80,-181,+151,-18
86334,7.541,-10.048,-0.406,1.960712,-1.904947,2.282449,99825.53,-182,+142,-25
86344,9.321,-9.212,-0.087,1.119446,-1.311113,2.356945,99823.19,-182,+142,-25
86353,6.684,-9.254,1.440,0.642676,-1.214269,2.165917,99823.19,-185,+135,-30
86364,6.871,-8.532,1.116,0.111098,-1.089223,1.826431,99826.23,-185,+128,-33
86374,8.813,-5.633,0.525,-0.334810,-0.990782,1.582725,99824.87,-187,+124,-36
86384,9.017,-3.353,1.090,-0.488057,-0.968434,1.444908,99825.13,-187,+124,-36
86393,9.051,-3.845,1.388,-0.423672,-0.905113,1.387973,99822.57,-187,+120,-38
86404,9.033,-4.463,0.983,-0.596076,-0.861480,1.370413,99822.57,-187,+116,-40
86414,8.798,-4.315,0.859,-0.668443,-0.753994,1.333165,99826.86,-188,+113,-41
86424,8.528,-3.868,-0.030,-0.586498,-0.610856,1.260799,99825.23,-188,+113,-41
86433,8.431,-3.206,0.128,-0.402388,-0.506030,1.220358,99823.52,-189,+108,-42
86444,8.888,-2.488,1.355,-0.113984,-0.444838,1.187367,99822.78,-189,+106,-43
86454,9.124,-2.884,2.288,0.091410,-0.469847,1.174065,99822.78,-189,+101,-45
86464,8.553,-4.572,2.360,0.170162,-0.526783,1.106487,99825.73,-189,+101,-45
86474,8.060,-5.289,2.091,0.072786,-0.509223,1.004322,99825.06,-190,+98,-46
86483,7.851,-5.580,1.982,-0.168260,-0.418232,0.901092,99822.97,-190,+95,-48
86494,8.128,-5.286,2.378,-0.400791,-0.342141,0.789881,99820.67,-191,+93,-48
86504,8.408,-4.544,2.288,-0.519452,-0.304893,0.693038,99820.67,-191,+91,-48
86514,8.795,-3.744,1.849,-0.498700,-0.304893,0.646212,99826.60,-191,+91,-48
86523,9.045,-3.278,1.357,-0.368865,-0.321920,0.635038,99824.20,-191,+89,-49
86534,9.032,-3.303,1.126,-0.181030,-0.336287,0.644615,99823.57,-190,+87,-50
86544,8.634,-3.879,1.182,-0.052792,-0.341608,0.652597,99824.15,-191,+86,-51
86554,8.246,-4.803,1.533,-0.044810,-0.316067,0.637698,99824.15,-191,+86,-51
86564,8.098,-5.377,1.853,-0.150168,-0.270838,0.596193,99824.72,-190,+84,-52
86574,8.196,-5.204,2.011,-0.270957,-0.238911,0.559478,99823.58,-192,+82,-52
86584,8.382,-4.704,1.826,-0.332681,-0.209645,0.532340,99825.30,-191,+82,-53
86594,8.495,-4.335,1.446,-0.326828,-0.201131,0.516377,99823.16,-191,+82,-53
86604,8.600,-4.334,1.376,-0.292773,-0.194746,0.506267,99823.16,-191,+80,-53
86614,8.577,-4.683,1.300,-0.256590,-0.186765,0.497221,99824.38,-191,+78,-53
86624,8.487,-4.978,1.398,-0.274681,-0.158563,0.480726,99824.54,-191,+77,-53
86634,8.349,-5.154,1.613,-0.330021,-0.120783,0.462102,99822.45,-191,+77,-53
86644,8.183,-5.306,1.836,-0.398131,-0.076086,0.445074,99823.96,-191,+75,-53
86653,8.224,-5.269,1.671,-0.482204,-0.034581,0.426450,99823.96,-192,+74,-54
86664,8.440,-5.002,1.517,-0.538076,-0.005847,0.410487,99827.39,-191,+74,-54
86674,8.571,-4.703,1.392,-0.558828,0.008520,0.403570,99822.75,-191,+74,-54
86684,8.621,-4.478,1.278,-0.530626,0.010116,0.412616,99825.63,-191,+74,-53
86694,8.700,-4.374,1.230,-0.481672,-0.003719,0.438689,99821.97,-192,+73,-53
86704,8.632,-4.354,1.204,-0.428461,-0.026599,0.476469,99821.97,-193,+71,-53
86714,8.468,-4.271,1.435,-0.392278,-0.042031,0.529680,99827.28,-193,+71,-53
86724,8.494,-4.153,1.389,-0.360351,-0.072893,0.598322,99827.75,-192,+71,-53
86734,8.698,-4.073,1.481,-0.319911,-0.115994,0.669093,99825.25,-193,+68,-54
86744,8.890,-4.110,1.697,-0.272021,-0.179847,0.748377,99824.27,-193,+66,-54
86754,9.453,-4.609,1.620,-0.221471,-0.258599,0.822340,99824.27,-193,+66,-54
86764,9.090,-4.905,2.021,-0.257122,-0.317131,0.908542,99824.52,-192,+64,-54
86774,8.962,-4.757,1.418,-0.315122,-0.377260,1.008579,99826.75,-193,+61,-56
86784,9.187,-4.424,1.982,-0.360351,-0.458673,1.100101,99826.44,-192,+58,-57
86794,9.649,-4.552,2.116,-0.354498,-0.554984,1.203863,99824.45,-192,+58,-57
86804,9.914,-4.642,1.643,-0.339067,-0.661406,1.311881,99824.45,-191,+55,-59
86814,10.217,-4.558,1.013,-0.317250,-0.793370,1.422382,99824.24,-190,+50,-61
86823,10.856,-4.657,0.696,-0.287984,-0.909902,1.507165,99823.35,-189,+45,-63
86834,11.352,-5.113,0.853,-0.258186,-1.038140,1.605074,99822.99,-189,+45,-63
86844,11.480,-5.752,1.254,-0.245948,-1.156269,1.691807,99821.23,-187,+41,-66
86854,11.305,-6.478,1.715,-0.288516,-1.238213,1.766835,99821.23,-185,+36,-69
86864,11.297,-7.054,2.154,-0.405048,-1.273865,1.840798,99823.79,-184,+31,-73
86874,11.877,-7.346,2.254,-0.572131,-1.286103,1.914229,99822.96,-184,+31,-73
86884,13.607,-7.399,2.379,-0.735489,-1.337718,1.964248,99825.73,-180,+26,-77
86894,15.114,-7.997,4.526,-0.868516,-1.463296,2.009477,99822.74,-178,+22,-82
86904,15.992,-8.456,4.904,-1.039323,-1.447865,2.139844,99822.74,-175,+17,-85
86914,18.352,-8.111,3.477,-1.368699,-1.396250,2.260101,99822.81,-175,+17,-85
86924,20.544,-6.290,3.709,-1.800240,-1.398378,2.358009,99823.86,-171,+13,-89
86934,21.149,-4.688,4.460,-2.141855,-1.352617,2.518174,99821.52,-167,+10,-94
86944,21.393,-3.985,4.739,-2.432387,-1.281314,2.693770,99820.36,-162,+5,-99
86953,21.581,-4.498,4.586,-2.703763,-1.287700,2.886394,99820.36,-162,+5,-99
86964,20.993,-4.370,4.933,-3.051762,-1.258966,3.076889,99825.50,-157,+3,-103
86974,18.533,-3.420,4.183,-3.462019,-1.189259,3.207256,99823.41,-152,+3,-108
86984,14.426,-4.058,2.890,-3.622716,-1.217993,3.234926,99822.63,-147,+1,-113
86994,10.592,-4.690,3.800,-3.355597,-1.352617,3.032192,99821.69,-141,+0,-118
87004,10.258,-5.283,4.315,-2.839983,-1.223314,2.705477,99821.69,-141,+0,-118
87014,10.292,-8.364,2.589,-2.370662,-1.234489,2.571385,99822.77,-137,+1,-123
87024,8.643,-9.109,1.513,-1.680515,-1.280250,2.475605,99822.40,-132,-1,-125
87034,6.495,-7.072,3.010,-1.212791,-0.922140,2.126009,99821.93,-126,-3,-128
87044,4.982,-3.490,5.357,-1.081892,-0.346397,1.657220,99820.37,-126,-3,-128
87050,4.526,0.361,6.742,-1.203745,0.134630,1.188964,99820.37,-125,-3,-128
87059,5.066,2.546,5.893,-1.517158,0.544354,0.701019,99820.37,-125,-3,-128
87069,4.901,2.587,4.067,-1.841213,0.757198,0.411019,99824.38,-125,+0,-129
87079,3.761,2.371,3.218,-1.667213,0.794446,0.216799,99820.68,-126,+2,-127
87090,3.098,3.069,3.098,-1.288883,0.974299,-0.246136,99821.88,-128,+6,-126
87099,2.836,3.354,2.944,-0.910021,1.189803,-0.656393,99820.47,-128,+6,-126
87109,2.525,2.708,2.093,-0.518920,1.315913,-0.958631,99821.98,-130,+10,-125
87119,2.241,1.924,1.341,-0.082058,1.364335,-1.259273,99822.41,-132,+13,-122
87129,2.379,1.399,0.884,0.476657,1.406372,-1.590778,99822.41,-135,+17,-118
87139,2.747,1.114,0.836,1.067299,1.480335,-1.940906,99820.31,-135,+17,-118
87149,3.280,0.928,0.974,1.554180,1.577711,-2.288373,99819.28,-139,+21,-114
87159,3.857,0.538,1.284,1.871317,1.692647,-2.612961,99819.28,-142,+24,-109
87170,4.098,-0.093,1.400,2.063409,1.813968,-2.889125,99821.34,-146,+28,-105
87179,4.233,-0.693,1.576,2.219317,1.955509,-3.121657,99818.21,-146,+28,-105
87189,4.659,-1.278,1.861,2.338509,2.084280,-3.318006,99819.20,-150,+32,-99
87199,5.227,-1.997,2.135,2.439610,2.210922,-3.509033,99818.88,-152,+39,-94
87209,5.845,-3.039,2.337,2.536454,2.339160,-3.721345,99819.70,-155,+45,-88
87220,6.537,-4.103,2.406,2.529537,2.494537,-3.933657,99815.68,-157,+53,-82
87229,7.229,-4.620,2.260,2.378950,2.685564,-4.121491,99820.12,-157,+53,-82
87239,8.190,-4.684,1.999,2.218785,2.898408,-4.277400,99816.46,-158,+63,-75
87249,9.301,-4.484,1.805,2.157060,3.091032,-4.405106,99816.46,-159,+72,-69
87259,10.625,-4.679,1.723,2.189519,3.236830,-4.515253,99816.46,-160,+83,-62
87269,11.955,-5.286,1.643,2.242198,3.340059,-4.623271,99821.91,-160,+83,-62
87279,13.260,-6.307,1.529,2.243262,3.398059,-4.720115,99820.13,-159,+95,-56
87284,14.148,-7.284,1.438,2.203886,3.429453,-4.783436,99822.18,-159,+95,-56
87294,15.099,-8.255,1.487,2.137372,3.477343,-4.854207,99820.66,-158,+105,-50
87304,16.585,-9.664,1.327,2.028290,3.546518,-4.907949,99820.66,-157,+116,-45
87314,18.038,-11.443,0.810,1.945813,3.579508,-4.855271,99822.57,-154,+127,-40
87324,19.063,-13.402,-0.307,1.860143,3.565674,-4.745124,99824.65,-154,+127,-40
87334,19.177,-15.243,-1.682,1.695189,3.495967,-4.566867,99822.82,-152,+137,-35
87345,18.115,-16.789,-2.959,1.469574,3.322499,-4.266225,99823.71,-150,+148,-30
87354,16.918,-18.224,-3.625,1.318455,3.010151,-3.859694,99823.71,-147,+157,-27
87364,15.580,-19.364,-3.746,1.342400,2.605215,-3.416978,99825.59,-147,+157,-27
87374,13.129,-19.537,-5.268,1.387097,2.199216,-2.952979,99826.84,-144,+164,-24
87385,9.343,-21.690,-7.230,1.373262,1.924115,-2.479933,99826.06,-143,+170,-22
87394,6.428,-23.748,-9.200,1.135942,1.726702,-1.977089,99824.70,-142,+173,-20
87404,5.431,-23.422,-9.722,0.497942,1.470225,-1.274172,99824.70,-142,+173,-20
87414,6.411,-20.376,-9.119,-0.214553,1.017932,-0.364265,99828.66,-141,+175,-19
87425,8.359,-17.305,-8.377,-0.645030,0.402281,0.498817,99829.98,-144,+174,-17
87434,9.367,-15.652,-7.614,-0.770608,-0.239975,1.221422,99825.90,-146,+172,-16
87444,11.780,-13.845,-4.601,-0.538076,-0.764636,1.780138,99824.91,-146,+172,-16
87454,12.071,-9.939,-7.213,-0.153893,-1.354746,2.070670,99824.91,-150,+166,-19
87464,13.441,-2.404,-1.320,0.295740,-1.886855,2.298945,99826.99,-153,+160,-24
87475,21.215,17.613,14.138,1.386033,-1.635699,1.527385,99824.16,-155,+154,-30
87484,28.143,28.982,10.551,1.129556,-1.066874,0.658450,99821.51,-157,+151,-34
87494,14.923,-0.754,-4.933,-0.141654,-1.476599,2.081844,99825.37,-157,+151,-34
87504,7.847,-14.804,-8.038,1.315795,-2.238048,2.711862,99825.37,-159,+143,-40
87515,8.534,-14.057,-0.595,2.830179,-2.174194,2.209550,99824.19,-160,+133,-48
87520,7.473,-10.609,0.521,2.110234,-1.642617,1.941367,99827.89,-160,+133,-48
87529,9.942,-8.565,-1.395,1.075813,-1.148819,1.850376,99827.89,-162,+126,-53
87539,10.572,-9.173,0.173,0.626712,-0.915755,1.927000,99823.08,-163,+120,-55
87549,8.258,-9.191,1.388,0.076511,-0.854562,1.783330,99821.98,-163,+120,-55
87560,8.005,-6.570,1.638,-0.536480,-0.702911,1.553459,99821.98,-163,+115,-57
87570,8.120,-2.509,2.701,-0.712076,-0.625755,1.453422,99824.30,-164,+112,-58
87579,7.879,-2.687,2.570,-0.553507,-0.637994,1.367753,99821.66,-165,+108,-59
87589,8.565,-4.841,2.305,-0.439636,-0.706636,1.325716,99820.62,-165,+108,-59
87600,9.071,-4.155,2.243,-0.462516,-0.719939,1.262927,99820.62,-166,+106,-61
87609,8.797,-3.174,1.227,-0.452938,-0.601810,1.206523,99820.62,-166,+103,-62
87619,8.857,-2.761,0.663,-0.348645,-0.515076,1.189496,99826.70,-166,+99,-63
87629,9.113,-1.976,1.380,-0.198590,-0.499645,1.175129,99824.36,-166,+99,-63
87640,8.749,-3.126,2.159,0.019043,-0.506030,1.149055,99820.92,-167,+96,-64
87649,8.765,-4.109,2.298,0.104713,-0.527315,1.082010,99824.25,-166,+93,-66
87659,8.485,-4.730,2.515,-0.028847,-0.508159,1.019221,99824.25,-166,+89,-67
87669,8.310,-5.270,2.703,-0.192204,-0.458673,0.930358,99825.96,-166,+89,-67
87680,8.114,-5.021,2.753,-0.324700,-0.417700,0.827661,99824.84,-166,+87,-66
87690,8.331,-4.333,2.205,-0.402920,-0.399608,0.739331,99823.77,-167,+86,-68
87699,8.556,-3.803,1.631,-0.391746,-0.398544,0.678671,99823.77,-166,+84,-69
87709,8.868,-3.599,1.364,-0.299159,-0.375663,0.649404,99825.91,-166,+82,-70
87719,8.898,-3.809,1.149,-0.202847,-0.352251,0.630781,99825.91,-166,+82,-70
87730,8.668,-4.242,1.255,-0.125159,-0.323517,0.603111,99825.13,-166,+80,-70
87739,8.397,-4.679,1.640,-0.123030,-0.286269,0.562138,99821.79,-166,+80,-71
87749,8.270,-4.943,1.936,-0.206571,-0.247957,0.508395,99822.77,-166,+79,-72
87754,8.282,-4.921,2.121,-0.283195,-0.225076,0.462102,99822.77,-166,+79,-72
87764,8.382,-4.824,2.048,-0.338003,-0.209113,0.426450,99823.74,-166,+77,-72
87775,8.628,-4.492,1.801,-0.376314,-0.200599,0.392928,99825.40,-166,+77,-72
87784,8.760,-4.042,1.745,-0.376314,-0.189957,0.387074,99824.41,-166,+77,-72
87794,8.761,-4.060,1.584,-0.344920,-0.184636,0.397184,99823.84,-165,+76,-73
87804,8.664,-4.167,1.635,-0.309801,-0.179847,0.406762,99823.84,-166,+75,-73
87815,8.477,-4.468,1.768,-0.293837,-0.170801,0.410487,99824.55,-166,+75,-73
87824,8.386,-4.891,1.996,-0.326296,-0.158563,0.405166,99823.15,-165,+74,-74
87834,8.377,-5.022,2.146,-0.422076,-0.145792,0.386010,99826.70,-165,+74,-74
87844,8.487,-4.769,2.157,-0.505085,-0.127168,0.375368,99824.34,-166,+73,-74
87855,8.544,-4.669,1.988,-0.550314,-0.116526,0.378029,99824.34,-166,+73,-74
87865,8.536,-4.411,1.735,-0.560957,-0.111737,0.393460,99826.70,-166,+73,-74
87874,8.522,-4.349,1.367,-0.550314,-0.110673,0.412084,99824.09,-166,+72,-74
87884,8.638,-4.419,1.185,-0.524773,-0.112801,0.432304,99825.54,-166,+72,-75
87895,8.577,-4.368,1.382,-0.506149,-0.116526,0.457845,99825.38,-166,+72,-75
87905,8.395,-4.283,1.612,-0.483268,-0.129297,0.491368,99825.38,-166,+72,-73
87914,8.305,-4.229,1.604,-0.452406,-0.157498,0.531808,99825.92,-167,+70,-74
87924,8.303,-4.073,1.595,-0.411966,-0.197407,0.578102,99824.09,-166,+68,-74
87934,8.330,-3.835,1.447,-0.343324,-0.242104,0.631313,99827.70,-166,+68,-74
87945,8.262,-3.755,1.327,-0.247544,-0.287333,0.699955,99824.78,-166,+68,-75
87954,8.278,-3.794,1.350,-0.153893,-0.327242,0.765936,99824.78,-166,+66,-76
87964,8.011,-3.882,1.838,-0.039489,-0.377260,0.835111,99824.83,-165,+63,-77
87974,7.717,-3.890,2.255,0.086089,-0.434196,0.908010,99823.27,-166,+60,-78
87985,7.616,-5.136,0.851,0.208474,-0.534764,0.946854,99824.67,-166,+60,-78
87995,8.574,-6.563,0.451,0.223373,-0.614049,0.908010,99820.91,-165,+59,-79
88004,9.426,-6.879,0.539,0.007337,-0.560306,0.903753,99820.91,-164,+55,-80
88014,9.452,-6.215,0.080,-0.266168,-0.478361,0.912799,99825.80,-164,+53,-82
88025,9.536,-4.501,0.562,-0.397599,-0.469315,0.950579,99824.09,-164,+53,-82
88035,9.697,-3.694,1.343,-0.321507,-0.565627,1.024542,99822.15,-163,+51,-83
88044,9.576,-3.868,1.595,-0.144847,-0.713021,1.121918,99822.41,-161,+47,-85
88054,9.257,-4.416,1.831,-0.016608,-0.866269,1.234193,99822.41,-160,+43,-86
88065,9.040,-5.398,2.353,0.008401,-0.988654,1.338487,99821.70,-160,+43,-86
88075,9.172,-6.743,2.454,-0.098021,-1.052507,1.424688,99824.31,-159,+40,-90
88085,9.766,-7.741,2.209,-0.295434,-1.065810,1.476303,99823.63,-157,+36,-91
88094,10.791,-8.112,1.756,-0.514663,-1.053039,1.504505,99823.42,-156,+32,-95
88104,12.363,-8.559,1.624,-0.701966,-1.065810,1.505569,99823.42,-156,+32,-95
88115,13.368,-8.957,2.851,-0.855745,-1.084434,1.517275,99826.12,-153,+29,-97
88125,13.808,-8.860,2.303,-1.054754,-1.011535,1.595496,99824.18,-151,+26,-99
88134,15.155,-8.257,1.121,-1.318681,-0.973223,1.659881,99824.49,-149,+25,-102
88144,16.615,-6.543,0.936,-1.570901,-0.992911,1.722138,99824.49,-149,+25,-102
88155,17.592,-4.663,1.161,-1.751286,-1.070067,1.838138,99824.49,-147,+22,-104
88165,18.430,-3.248,1.553,-1.807158,-1.226507,2.006284,99823.51,-144,+21,-107
88174,19.217,-2.631,2.336,-1.762992,-1.403167,2.204761,99826.32,-141,+18,-110
88184,19.019,-2.503,4.189,-1.716167,-1.529810,2.433036,99822.84,-141,+18,-110
88195,17.450,-3.283,4.158,-1.728937,-1.555883,2.594798,99820.95,-137,+15,-114
88205,16.043,-3.556,3.630,-1.815671,-1.484048,2.577770,99820.95,-134,+11,-117
88215,14.662,-3.842,3.325,-2.054589,-1.339846,2.498486,99822.72,-130,+9,-120
88224,12.823,-4.812,2.155,-2.323836,-1.194580,2.393128,99822.94,-130,+9,-120
88235,11.324,-6.403,0.325,-2.490919,-1.206819,2.326614,99822.52,-126,+7,-125
88245,9.373,-6.801,-0.543,-2.469102,-1.357406,2.168046,99821.11,-123,+7,-127
88255,8.385,-6.861,0.101,-2.267965,-1.363259,1.877514,99821.11,-119,+8,-132
88264,7.971,-8.125,-0.036,-1.917836,-1.381883,1.705110,99822.42,-119,+8,-132
88274,6.684,-8.688,0.434,-1.368699,-1.463828,1.802486,99824.14,-114,+7,-136
88285,5.103,-6.399,1.401,-0.726975,-1.450525,1.699789,99822.31,-110,+5,-139
88295,3.367,-3.165,2.967,-0.210296,-1.268544,1.333165,99821.48,-106,+1,-140
88304,2.688,-0.263,4.216,0.009465,-0.918415,0.902689,99821.48,-106,+1,-140
88314,2.604,1.659,4.695,-0.148571,-0.537425,0.449331,99821.66,-105,+0,-143
88325,3.086,2.076,3.192,-0.472094,-0.282544,0.048653,99822.33,-104,+0,-144
88335,2.758,0.919,1.796,-0.704626,-0.181976,-0.214742,99822.17,-103,+2,-145
88345,2.346,0.878,1.732,-0.536125,-0.080697,-0.540038,99817.95,-103,+2,-145
88354,2.451,1.649,1.478,-0.287452,0.055345,-0.935218,99817.95,-104,+3,-145
88365,2.446,1.572,0.781,0.001483,0.150061,-1.270448,99823.41,-105,+6,-145
88375,2.232,0.594,0.481,0.369703,0.194226,-1.565236,99819.76,-106,+8,-145
88385,2.360,-0.452,0.665,0.736327,0.279896,-1.943566,99819.34,-106,+8,-145
88394,2.724,-0.551,0.527,0.977373,0.425162,-2.286777,99817.77,-107,+9,-145
88404,3.440,0.185,0.521,1.007171,0.602354,-2.565603,99817.77,-110,+12,-145
88415,4.535,0.348,0.779,1.076877,0.767840,-2.799731,99822.40,-112,+15,-143
88425,5.214,-0.271,0.380,1.225336,0.827437,-3.000869,99819.99,-112,+15,-143
88434,5.391,-1.423,-0.180,1.436051,0.805088,-3.177529,99820.57,-116,+18,-141
88444,5.671,-2.475,-0.356,1.679226,0.841272,-3.377070,99819.32,-119,+21,-140
88455,6.542,-3.111,-0.100,1.939427,0.929602,-3.569162,99819.32,-123,+23,-138
88465,7.745,-2.995,0.056,2.292748,0.974299,-3.710171,99820.86,-127,+26,-136
88475,9.161,-2.537,0.028,2.834968,0.923216,-3.789455,99819.86,-127,+26,-136
88484,10.255,-2.740,-0.174,3.507555,0.767840,-3.801694,99820.75,-130,+27,-135
88495,10.875,-4.084,-0.696,4.145554,0.533712,-3.807015,99818.83,-134,+26,-133
88505,10.953,-6.259,-1.193,4.606894,0.265529,-3.840006,99818.83,-135,+24,-132
88515,10.771,-8.174,-1.352,4.801114,0.055345,-3.934721,99821.47,-135,+24,-132
88524,11.196,-9.279,-1.122,4.792600,-0.100031,-4.028372,99820.73,-137,+22,-132
88535,11.640,-10.554,-0.645,4.755884,-0.245829,-4.069345,99823.03,-138,+22,-131
88545,12.105,-12.102,-0.143,4.679792,-0.370874,-4.073070,99820.53,-139,+21,-131
88555,12.435,-13.689,0.427,4.501003,-0.484746,-4.008684,99820.53,-139,+21,-131
88564,12.370,-15.312,0.936,4.218453,-0.614581,-3.853308,99824.40,-139,+21,-132
88574,11.516,-16.327,1.466,3.876307,-0.740691,-3.654831,99822.93,-139,+21,-133
88585,10.392,-16.460,1.960,3.602270,-0.821039,-3.410061,99823.40,-139,+22,-134
88595,9.453,-16.383,2.497,3.475628,-0.848177,-3.108355,99822.93,-139,+22,-134
88604,8.560,-16.616,2.934,3.457004,-0.853498,-2.789089,99822.93,-138,+22,-135
88614,7.583,-17.171,2.894,3.433059,-0.856159,-2.452796,99822.33,-137,+19,-136
88625,6.608,-17.834,2.789,3.362821,-0.834342,-2.072337,99822.89,-137,+17,-138
88635,6.010,-18.345,2.536,3.214362,-0.773149,-1.675383,99821.38,-137,+17,-138
88645,5.262,-18.920,1.604,2.956289,-0.688012,-1.324191,99819.56,-135,+13,-137
88654,3.784,-19.980,0.942,2.469941,-0.522526,-0.876686,99819.56,-135,+9,-138
88665,3.375,-18.838,0.518,1.902712,-0.385241,-0.502081,99823.96,-135,+6,-138
88675,3.234,-16.724,0.578,1.303556,-0.295847,-0.126412,99824.49,-135,+6,-138
88685,3.590,-14.664,1.122,0.896492,-0.287333,0.282249,99822.55,-134,+2,-138
88694,3.430,-15.659,0.082,0.617134,-0.330966,0.703148,99818.07,-133,+0,-137
88705,3.259,-17.490,0.808,0.390988,-0.433663,1.224615,99818.07,-132,-3,-139
88715,4.660,-10.850,-0.178,0.597446,-0.466122,1.026670,99825.58,-132,-3,-139
88725,9.485,-5.219,1.932,0.236676,-0.227205,0.981973,99824.95,-130,-7,-140
88735,15.994,-1.893,3.720,0.083428,-0.218691,1.060725,99822.66,-128,-10,-140
88744,19.715,-2.689,0.719,0.373960,-0.351719,1.011239,99821.20,-126,-13,-140
88755,16.131,-4.609,-2.226,0.527208,-0.309682,1.118193,99821.20,-126,-13,-140
88765,8.503,-4.054,-3.127,0.612878,-0.089921,1.058065,99826.53,-125,-17,-140
88775,5.248,-3.749,-2.342,0.729410,0.070244,0.928762,99824.48,-125,-22,-140
88784,6.427,-4.188,-0.916,0.603300,0.114942,0.810102,99822.19,-125,-25,-138
88795,8.395,-5.329,0.089,0.372364,0.177199,0.688781,99824.13,-125,-25,-138
88805,9.453,-5.420,0.809,0.239337,0.253822,0.562138,99824.13,-124,-27,-138
88815,9.112,-4.862,0.980,0.213086,0.318030,0.426628,99823.98,-124,-29,-137
88824,8.492,-3.998,0.951,0.235080,0.328850,0.328542,99822.58,-125,-31,-136
88835,8.458,-3.508,0.888,0.329263,0.313419,0.241276,99820.69,-125,-31,-136
88845,8.614,-3.649,0.296,0.397373,0.308630,0.185405,99823.72,-125,-32,-135
88855,8.772,-3.756,-0.457,0.368107,0.335767,0.150818,99823.72,-126,-32,-135
88865,9.065,-3.585,-0.227,0.326603,0.389510,0.138579,99824.16,-127,-34,-132
88875,9.341,-3.883,0.362,0.269135,0.429419,0.133258,99824.36,-127,-34,-132
88885,9.244,-4.171,0.969,0.132915,0.444318,0.111442,99823.22,-128,-35,-131
88895,9.005,-4.163,1.273,0.005740,0.469859,0.081111,99823.11,-129,-35,-131
88905,9.039,-3.695,1.434,-0.059709,0.468263,0.055038,99823.11,-130,-34,-130
88914,9.172,-3.269,1.496,-0.051195,0.444318,0.043864,99826.65,-132,-34,-128
88925,9.324,-3.350,1.187,0.024364,0.399088,0.037478,99825.76,-132,-35,-128
88935,9.317,-3.187,0.974,0.103116,0.344281,0.041203,99826.02,-132,-36,-128
88945,9.281,-3.302,1.096,0.136107,0.324593,0.060359,99821.59,-133,-36,-127
88954,9.195,-3.618,1.250,0.125997,0.308098,0.076854,99821.59,-134,-36,-126
88965,9.166,-3.683,1.261,0.078639,0.297987,0.077386,99822.80,-134,-36,-126
88975,9.094,-3.655,1.222,0.028089,0.296923,0.079515,99828.28,-134,-37,-125
88985,9.047,-3.673,1.161,0.017447,0.291070,0.073130,99821.66,-134,-37,-125
88995,9.075,-3.643,1.101,0.017447,0.281492,0.057698,99824.84,-134,-37,-124
89005,9.080,-3.663,0.986,0.011594,0.275107,0.045460,99824.84,-134,-37,-124
89015,9.042,-3.621,1.085,0.003612,0.274043,0.041203,99825.84,-136,-36,-124
89025,9.054,-3.388,1.267,0.004676,0.268721,0.042799,99823.30,-135,-37,-123
89035,9.084,-3.246,1.343,0.023832,0.249565,0.055038,99823.39,-136,-38,-123
89044,9.076,-3.247,1.375,0.054694,0.225088,0.070469,99821.00,-136,-38,-123
89051,9.017,-3.242,1.335,0.081832,0.209125,0.084304,99821.00,-136,-38,-123
89060,9.077,-3.151,1.090,0.098327,0.198483,0.103460,99821.00,-136,-38,-123
89070,9.202,-3.181,1.074,0.124933,0.181455,0.132726,99825.09,-137,-38,-121
89080,9.289,-3.247,1.255,0.145153,0.165492,0.160396,99826.80,-137,-38,-121
89091,9.192,-3.269,1.582,0.151538,0.138355,0.190726,99825.71,-137,-40,-120
89100,9.113,-3.354,1.934,0.153667,0.101107,0.213607,99824.76,-137,-40,-120
89110,9.069,-3.466,2.055,0.138236,0.057474,0.236487,99825.80,-137,-41,-119
89120,8.979,-3.466,2.015,0.110034,0.016501,0.262029,99823.98,-136,-42,-119
89129,9.002,-3.493,1.962,0.082896,-0.021811,0.285441,99823.98,-137,-42,-120
89140,9.062,-3.569,1.932,0.058951,-0.059590,0.306726,99822.20,-137,-42,-120
89150,9.023,-3.532,1.953,0.040860,-0.096306,0.328010,99821.63,-135,-43,-119
89160,9.080,-3.540,1.713,0.022768,-0.132489,0.347698,99821.63,-135,-43,-120
89170,9.136,-3.534,1.707,0.033942,-0.167609,0.362597,99827.14,-135,-45,-120
89180,9.054,-3.592,1.546,0.052566,-0.204856,0.379625,99824.48,-134,-46,-120
89190,8.886,-3.598,1.460,0.046713,-0.230930,0.398249,99824.06,-134,-46,-120
89200,8.853,-3.751,1.276,0.041392,-0.242636,0.411551,99821.81,-133,-47,-121
89210,8.937,-3.830,1.410,0.041392,-0.253810,0.420597,99824.13,-132,-48,-122
89221,8.828,-3.900,1.805,0.038199,-0.267645,0.422726,99822.03,-131,-50,-122
89230,8.612,-4.362,1.511,0.016915,-0.284141,0.406762,99823.13,-131,-50,-122
89240,8.671,-4.401,1.206,-0.005434,-0.288397,0.379625,99824.13,-130,-51,-123
89250,8.735,-4.429,1.203,-0.035764,-0.282012,0.356744,99824.13,-128,-51,-123
89260,8.695,-4.376,1.183,-0.075672,-0.275627,0.336524,99824.13,-128,-52,-124
89270,8.707,-4.207,1.090,-0.100682,-0.273498,0.325882,99827.66,-128,-52,-124
89280,8.756,-4.185,1.092,-0.102278,-0.272966,0.320029,99825.52,-126,-52,-124
89285,8.833,-4.186,1.048,-0.111856,-0.274031,0.318432,99822.13,-126,-52,-124
89295,8.833,-4.199,0.999,-0.117177,-0.274031,0.317900,99825.84,-126,-52,-125
89305,8.877,-4.181,0.867,-0.115581,-0.274031,0.317368,99825.84,-125,-53,-126
89315,8.883,-4.260,0.949,-0.106003,-0.281480,0.314707,99824.62,-123,-53,-127
89325,8.784,-4.386,1.225,-0.111324,-0.294783,0.314707,99823.10,-123,-53,-127
89335,8.706,-4.485,1.306,-0.143250,-0.310214,0.315240,99820.65,-123,-55,-127
89345,8.573,-4.434,1.292,-0.181030,-0.324049,0.315772,99824.04,-122,-55,-128
89355,8.647,-4.228,1.108,-0.205507,-0.339480,0.322157,99824.04,-121,-55,-129
89365,8.881,-3.950,0.916,-0.201250,-0.358104,0.341313,99826.91,-121,-55,-129
89375,8.969,-4.056,0.802,-0.162406,-0.385241,0.359405,99827.70,-119,-55,-130
89385,8.883,-4.194,0.961,-0.124094,-0.417700,0.375900,99825.87,-118,-56,-130
89395,8.710,-4.407,1.089,-0.113452,-0.445902,0.386010,99824.87,-116,-57,-132
89405,8.644,-4.526,1.092,-0.120902,-0.471443,0.391331,99824.87,-114,-57,-133
89415,8.598,-4.508,1.109,-0.136865,-0.496985,0.399313,99824.34,-114,-57,-133
89425,8.547,-4.614,1.174,-0.148571,-0.521994,0.406230,99822.13,-112,-58,-135
89435,8.766,-4.862,0.819,-0.165067,-0.553920,0.408891,99825.27,-112,-59,-135
89445,9.010,-5.215,0.549,-0.223599,-0.563498,0.395056,99823.24,-110,-58,-137
89455,8.780,-5.362,0.326,-0.304480,-0.553920,0.380157,99823.24,-110,-58,-137
89465,8.517,-4.733,0.499,-0.407709,-0.535829,0.368983,99825.30,-107,-59,-138
89476,8.632,-3.914,0.366,-0.416223,-0.547535,0.381753,99825.77,-105,-58,-140
89485,8.904,-3.654,0.408,-0.330553,-0.601810,0.411551,99826.13,-103,-59,-142
89495,8.735,-4.036,0.009,-0.213489,-0.665663,0.455184,99823.31,-103,-59,-142
89505,8.383,-4.514,-0.284,-0.149636,-0.710361,0.487111,99823.31,-101,-59,-143
89516,8.367,-4.972,-0.032,-0.165067,-0.737498,0.502542,99826.57,-99,-59,-145
89521,8.519,-5.249,0.260,-0.206571,-0.752929,0.508928,99825.32,-99,-59,-145
89530,8.710,-5.226,0.241,-0.237434,-0.764104,0.515845,99825.32,-97,-60,-146
89540,8.688,-5.043,0.187,-0.257122,-0.783792,0.525423,99824.52,-92,-60,-148
89550,8.382,-4.898,0.289,-0.243819,-0.809333,0.534469,99822.07,-92,-60,-148
89561,8.233,-5.066,0.203,-0.207104,-0.849241,0.548836,99822.07,-91,-60,-149
89571,8.189,-4.940,0.067,-0.130480,-0.879571,0.544047,99824.63,-87,-61,-151
89580,8.246,-5.184,-0.247,-0.103342,-0.920012,0.552028,99824.20,-85,-61,-152
89590,8.375,-5.355,-0.629,-0.091104,-0.951938,0.551496,99820.50,-85,-61,-152
89601,8.754,-5.965,-1.047,-0.109195,-0.975883,0.526487,99820.50,-81,-62,-154
89610,9.469,-5.809,-1.208,-0.181562,-0.978012,0.502010,99820.50,-77,-63,-156
89620,10.067,-5.439,-1.307,-0.244351,-0.987058,0.491368,99824.40,-75,-63,-158
89630,10.773,-5.330,-0.937,-0.264039,-1.037608,0.496689,99824.87,-71,-63,-160
89640,11.430,-5.665,-0.269,-0.250204,-1.102525,0.522762,99822.46,-71,-63,-160
89650,11.807,-6.086,0.213,-0.262443,-1.160525,0.571184,99824.55,-67,-63,-161
89660,11.999,-6.200,-0.083,-0.334278,-1.195645,0.632377,99824.55,-63,-63,-164
89670,12.080,-5.789,-0.499,-0.436443,-1.235021,0.693038,99825.33,-58,-63,-166
89680,12.311,-5.170,-0.624,-0.511470,-1.303663,0.754762,99823.00,-58,-63,-166
89691,12.634,-5.032,-0.594,-0.509342,-1.410085,0.820212,99822.09,-53,-63,-168
89700,12.829,-5.419,-0.253,-0.480608,-1.522360,0.880340,99822.09,-48,-63,-170
89710,13.101,-6.227,0.046,-0.514131,-1.601644,0.923441,99826.33,-42,-63,-173
89720,13.632,-6.809,0.456,-0.668443,-1.637828,0.954303,99826.33,-42,-63,-173
89731,14.396,-6.647,1.139,-0.926516,-1.655388,1.001661,99823.09,-36,-61,-175
89740,15.221,-6.097,1.815,-1.198424,-1.686782,1.082542,99825.92,-30,-59,-178
89750,16.147,-5.463,2.408,-1.416589,-1.769791,1.201202,99822.38,-23,-55,-182
89760,16.917,-5.075,3.053,-1.533653,-1.909736,1.358707,99822.38,-23,-55,-182
89771,17.456,-4.684,2.712,-1.581011,-2.117259,1.558780,99826.39,-14,-52,-185
89781,17.343,-5.011,1.944,-1.714570,-2.425882,1.664138,99820.86,-5,-47,-188
89790,16.223,-6.153,3.432,-1.919965,-2.745680,1.690743,99824.14,+6,-43,-192
89800,14.471,-8.334,4.369,-2.089708,-2.901588,1.857826,99823.15,+6,-43,-192
89810,13.876,-9.465,4.182,-1.891231,-2.974488,2.165917,99824.18,+17,-37,-195
89821,15.054,-7.538,5.268,-1.166497,-3.037809,2.259568,99821.99,+30,-34,-197
89830,14.346,-5.487,4.615,-0.320443,-3.106983,2.206890,99821.01,+43,-33,-198
89840,12.222,-5.698,2.750,0.398437,-3.247460,2.118027,99821.01,+43,-33,-198
89850,10.192,-5.773,1.429,0.920437,-3.403368,1.954138,99820.70,+56,-36,-195
89861,9.220,-3.557,1.490,1.177446,-3.347497,1.720541,99820.70,+68,-39,-193
89870,8.941,-2.355,0.582,1.456804,-3.173496,1.462468,99824.22,+81,-43,-189
89880,7.268,-2.513,2.887,2.132051,-3.166047,1.349129,99820.63,+81,-43,-189
89890,7.071,-1.613,5.111,2.921170,-2.995240,1.029331,99820.78,+91,-51,-183
89901,6.385,-1.458,5.959,3.219683,-2.705772,0.749973,99822.77,+100,-61,-176
89911,5.177,-1.540,5.833,3.179243,-2.415772,0.508395,99822.77,+107,-70,-169
89920,4.120,-1.982,5.242,2.870619,-2.100763,0.233295,99820.70,+107,-70,-169
89930,3.341,-2.465,4.841,2.475794,-1.778837,-0.081182,99819.38,+112,-78,-162
89940,2.620,-2.940,4.224,2.144821,-1.470745,-0.423329,99820.89,+115,-84,-156
89951,1.808,-3.142,3.865,1.865464,-1.161058,-0.793145,99820.89,+116,-89,-150
89960,1.330,-2.917,3.611,1.636125,-0.849773,-1.204466,99820.89,+116,-89,-150
89970,1.206,-2.446,3.359,1.425941,-0.553920,-1.637071,99821.65,+114,-95,-146
89980,1.443,-1.921,2.944,1.217886,-0.269242,-2.068612,99818.57,+111,-100,-141
89991,1.959,-1.592,2.410,1.033244,-0.003719,-2.467695,99817.79,+105,-103,-137
90000,2.348,-1.562,2.211,0.921501,0.246905,-2.818355,99819.40,+105,-103,-137
90010,2.755,-1.886,2.349,0.909263,0.485290,-3.120593,99819.40,+99,-108,-134
90020,3.223,-2.295,2.644,0.970455,0.714629,-3.398355,99821.38,+89,-112,-131
90031,3.805,-2.691,2.907,1.067299,0.937583,-3.649510,99820.12,+78,-116,-128
90041,4.424,-3.124,3.074,1.179042,1.145106,-3.861822,99818.01,+78,-116,-128
90050,4.757,-3.356,3.132,1.302492,1.339326,-4.026776,99818.01,+67,-119,-125
90060,5.165,-3.424,3.239,1.451483,1.519711,-4.147033,99820.22,+54,-124,-121
90071,5.812,-3.675,3.445,1.672308,1.691583,-4.241216,99820.22,+39,-128,-117
90081,6.658,-4.280,3.580,1.946345,1.862390,-4.332739,99817.03,+39,-128,-117
90090,7.604,-5.056,3.574,2.228363,2.025748,-4.421601,99819.75,+25,-130,-110
90100,8.650,-5.614,3.520,2.464619,2.211454,-4.505143,99817.86,+8,-133,-103
90110,9.849,-6.132,3.459,2.668950,2.393258,-4.572366,99820.25,-8,-133,-93
90121,10.675,-6.604,3.483,2.801977,2.515821,-4.608372,99820.25,-26,-133,-93
90131,11.540,-7.162,3.518,2.906271,2.625968,-4.652537,99819.73,-26,-133,-84
90140,12.362,-7.849,3.678,2.954693,2.723876,-4.712666,99821.66,-41,-131,-73
90150,13.126,-8.859,3.830,2.913188,2.837747,-4.762684,99819.78,-56,-128,-63
90161,13.979,-10.111,4.104,2.773775,2.977692,-4.769601,99822.30,-70,-124,-52
90171,14.951,-11.360,4.220,2.611482,3.125619,-4.735014,99818.60,-70,-124,-52
90180,15.944,-12.776,3.355,2.474197,3.246408,-4.650940,99821.95,-82,-117,-43
90190,15.959,-14.354,2.143,2.273060,3.292701,-4.562078,99821.95,-92,-111,-33
90201,16.220,-15.683,0.676,1.964969,3.360811,-4.421069,99821.10,-103,-105,-25
90211,16.436,-16.910,-0.779,1.559501,3.414554,-4.170445,99821.10,-103,-105,-25
90220,15.397,-18.068,-2.246,1.132217,3.367729,-3.846391,99822.57,-114,-98,-17
90230,14.422,-18.984,-3.012,0.750694,3.177766,-3.461676,99823.52,-123,-93,-11
90241,13.626,-19.531,-3.889,0.454309,2.888830,-3.065786,99821.74,-130,-86,-5
90251,11.950,-18.969,-5.273,0.228162,2.562647,-2.605511,99822.41,-130,-86,-5
90261,9.760,-18.501,-6.653,0.102584,2.227950,-2.102667,99822.41,-136,-81,+0
90270,7.504,-19.433,-7.660,0.072786,1.887399,-1.610466,99826.89,-140,-77,+3
90280,6.423,-19.371,-8.001,-0.048003,1.566537,-1.073035,99828.06,-142,-74,+7
90291,6.250,-18.351,-7.821,-0.244351,1.219069,-0.474943,99823.63,-142,-74,+7
90301,6.847,-16.962,-7.473,-0.544993,0.886501,0.160928,99823.63,-143,-73,+9
90310,7.740,-16.067,-7.730,-0.895654,0.537969,0.760615,99823.63,-143,-76,+8
90320,8.500,-15.594,-8.246,-1.236736,0.172942,1.267184,99825.83,-140,-78,+6
90331,8.726,-15.702,-8.392,-1.574626,-0.201664,1.704046,99826.41,-140,-78,+6
90341,10.894,-14.113,-5.138,-1.689561,-0.567223,2.113770,99825.58,-136,-83,+4
90350,14.743,-4.959,-2.121,-1.333580,-0.799755,2.113770,99824.42,-132,-87,+0
90360,16.207,7.564,6.287,-0.968553,-1.222250,2.013734,99824.42,-128,-92,-4
90371,30.963,40.301,25.719,0.755483,-1.061553,0.771790,99820.40,-128,-92,-4
90381,26.944,25.651,4.363,-0.313525,-0.673645,0.570120,99820.34,-128,-93,-4
90391,7.514,-7.254,-8.793,0.270731,-2.182708,2.645880,99825.40,-123,-99,-9
90400,7.904,-17.454,-0.677,3.891738,-2.923405,2.635770,99825.40,-115,-106,-6
90411,7.790,-17.033,2.720,4.367444,-2.649900,2.043532,99827.05,-115,-106,-6
90421,10.127,-10.812,-3.931,2.268803,-1.648470,1.941899,99826.43,-111,-112,-4
90430,8.736,-4.472,0.466,0.733134,-1.159461,1.965844,99826.43,-107,-116,-4
90440,6.405,-6.056,1.924,0.323942,-1.058360,1.822174,99821.52,-102,-120,-5
90450,8.811,-7.229,0.815,-0.017672,-0.966837,1.664138,99822.46,-102,-120,-5
90461,9.509,-3.715,1.594,-0.382700,-0.897663,1.564101,99822.46,-99,-122,-7
90471,9.250,-3.089,1.932,-0.386425,-0.873186,1.539624,99825.75,-95,-125,-9
90481,8.674,-5.540,1.080,-0.399195,-0.869993,1.498652,99826.73,-91,-128,-12
90490,8.179,-6.702,-0.089,-0.633856,-0.683755,1.389037,99825.22,-91,-128,-12
90501,8.000,-5.122,-0.507,-0.841911,-0.442709,1.253349,99825.17,-87,-130,-14
90511,8.655,-3.260,0.080,-0.754112,-0.274563,1.172468,99826.76,-84,-131,-17
90521,9.370,-3.004,1.294,-0.477947,-0.268709,1.161826,99825.45,-81,-132,-19
90530,9.196,-3.236,2.396,-0.181030,-0.352251,1.140542,99822.41,-81,-132,-19
90541,8.486,-4.286,2.357,-0.085250,-0.390563,1.081478,99822.41,-78,-133,-19
90551,8.007,-5.134,2.252,-0.159746,-0.371939,0.990487,99826.29,-76,-136,-20
90560,7.765,-5.635,2.521,-0.294902,-0.318196,0.873423,99826.29,-74,-137,-20
90570,7.988,-5.461,2.816,-0.428461,-0.288397,0.744652,99823.55,-74,-137,-20
90582,8.549,-4.627,2.477,-0.555635,-0.273676,0.628830,99824.87,-72,-138,-22
90591,8.852,-3.987,1.675,-0.582773,-0.262856,0.564799,99824.87,-70,-138,-23
90601,9.096,-3.412,1.005,-0.454535,-0.241572,0.541918,99823.98,-69,-139,-25
90610,8.924,-3.489,1.076,-0.264039,-0.227205,0.537661,99823.98,-67,-139,-26
90620,8.437,-4.199,1.365,-0.134737,-0.218691,0.524891,99825.50,-67,-139,-26
90631,8.060,-4.988,1.813,-0.126223,-0.192618,0.484450,99822.69,-66,-139,-27
90641,8.111,-5.538,2.266,-0.233709,-0.155370,0.425918,99824.52,-65,-140,-27
90651,8.364,-5.445,2.310,-0.404516,-0.137278,0.368983,99824.52,-64,-140,-29
90660,8.558,-4.686,2.201,-0.527966,-0.114398,0.333331,99824.52,-64,-140,-29
90671,8.615,-4.214,1.941,-0.529562,-0.107480,0.328542,99824.92,-62,-140,-30
90681,8.621,-3.953,1.826,-0.467305,-0.121847,0.335460,99825.64,-61,-141,-32
90691,8.536,-4.071,1.788,-0.409837,-0.138343,0.343973,99824.23,-61,-141,-32
90700,8.403,-4.422,1.956,-0.385892,-0.145792,0.344506,99823.72,-61,-141,-32
90711,8.337,-4.635,2.161,-0.378975,-0.138875,0.345570,99823.72,-60,-141,-33
90721,8.291,-5.016,2.120,-0.412498,-0.131425,0.340781,99824.29,-58,-141,-34
90731,8.232,-5.080,1.954,-0.472626,-0.122379,0.331735,99822.93,-57,-141,-36
90741,8.386,-4.645,1.839,-0.536480,-0.095774,0.335992,99823.51,-57,-141,-36
90750,8.524,-4.331,1.586,-0.570535,-0.077150,0.358873,99823.51,-57,-141,-37
90761,8.638,-4.089,1.436,-0.551379,-0.077150,0.387074,99825.91,-55,-141,-38
90771,8.683,-4.040,1.406,-0.494975,-0.086196,0.426983,99824.81,-54,-141,-40
90780,8.620,-4.091,1.496,-0.431122,-0.095774,0.466359,99824.81,-54,-141,-40
90790,8.421,-4.326,1.942,-0.382168,-0.101095,0.502542,99822.56,-53,-140,-40
90801,8.213,-4.705,2.047,-0.363012,-0.105352,0.530744,99822.67,-52,-141,-41
90811,7.957,-5.243,1.881,-0.380039,-0.115462,0.542983,99822.67,-51,-141,-42
90816,7.918,-5.304,1.817,-0.413030,-0.121847,0.548304,99827.63,-51,-141,-42
90825,8.098,-5.082,1.832,-0.468902,-0.109077,0.565863,99822.56,-49,-141,-44
90835,8.364,-4.698,1.472,-0.539672,-0.098434,0.607900,99824.66,-49,-141,-44
90846,8.594,-4.275,1.262,-0.543929,-0.120783,0.655790,99822.47,-46,-141,-45
90856,8.764,-4.041,1.405,-0.493379,-0.174526,0.721771,99822.47,-45,-141,-46
90866,8.838,-4.226,1.886,-0.418351,-0.248489,0.793606,99828.13,-42,-142,-48
90875,8.741,-4.510,1.977,-0.369929,-0.320324,0.872891,99823.02,-40,-143,-49
90886,8.902,-4.868,1.742,-0.368333,-0.399076,0.950046,99826.56,-40,-143,-49
90896,9.287,-4.850,1.681,-0.391746,-0.483682,1.033588,99823.48,-37,-143,-50
90906,9.618,-4.522,1.750,-0.421012,-0.559773,1.130432,99823.48,-33,-144,-51
90915,9.957,-4.637,1.285,-0.403452,-0.657150,1.236321,99826.02,-29,-145,-53
90926,10.317,-4.788,0.823,-0.369397,-0.760911,1.328377,99825.61,-29,-145,-53
90936,10.629,-4.940,0.240,-0.340663,-0.863608,1.418303,99823.67,-25,-145,-54
90946,11.036,-5.119,-0.528,-0.321507,-0.976947,1.488541,99824.03,-19,-147,-56
90955,11.398,-5.322,-0.080,-0.338535,-1.080709,1.558248,99824.03,-13,-147,-58
90966,11.333,-6.063,0.852,-0.372058,-1.158929,1.639129,99825.16,-13,-147,-58
90976,11.250,-6.864,1.501,-0.468902,-1.206287,1.709367,99825.27,-8,-147,-60
90986,11.149,-7.605,2.003,-0.621617,-1.227571,1.747679,99823.09,-2,-147,-62
90996,11.823,-7.773,2.284,-0.829672,-1.237681,1.758321,99821.10,+3,-147,-65
91005,13.577,-8.018,3.300,-1.027617,-1.305259,1.775881,99821.10,+3,-147,-65
91016,14.593,-8.192,4.623,-1.194167,-1.368048,1.866339,99823.91,+10,-146,-69
91026,15.823,-7.806,4.359,-1.452772,-1.330801,1.997238,99821.88,+17,-145,-72
91036,17.993,-6.762,3.025,-1.774699,-1.291424,2.103128,99823.02,+25,-142,-78
91045,19.856,-4.667,2.189,-2.085983,-1.281846,2.197312,99822.59,+25,-142,-78
91056,20.180,-2.895,1.355,-2.263708,-1.301535,2.316504,99822.59,+33,-139,-84
91066,19.743,-1.914,1.614,-2.280203,-1.358470,2.466027,99824.44,+41,-134,-90
91076,19.156,-1.654,3.246,-2.211029,-1.440415,2.613954,99822.36,+50,-130,-95
91085,18.265,-1.416,5.064,-2.141855,-1.521828,2.718247,99821.16,+50,-130,-95
91096,16.544,-1.759,5.295,-2.123231,-1.626654,2.773587,99822.88,+60,-125,-99
91106,14.678,-4.044,3.898,-2.045011,-1.775112,2.788486,99822.88,+69,-118,-104
91116,13.624,-5.954,2.214,-1.753947,-2.034782,2.753366,99824.13,+80,-113,-108
91126,12.054,-7.583,2.187,-1.445855,-2.151846,2.614486,99824.39,+80,-113,-108
91136,12.412,-9.206,1.198,-1.248974,-2.110873,2.434101,99822.88,+90,-108,-111
91146,11.333,-10.599,1.197,-1.055286,-2.143864,2.424523,99821.89,+99,-105,-112
91156,9.442,-8.604,3.477,-0.534351,-2.019351,2.264890,99821.89,+109,-101,-112
91166,7.753,-4.201,6.643,-0.048535,-1.675076,1.816853,99824.07,+109,-101,-112
91175,6.395,0.313,9.570,0.172823,-1.214269,1.284743,99822.35,+116,-99,-112
91186,7.019,2.380,8.773,-0.020865,-0.747608,0.763808,99821.41,+119,-97,-111
91196,6.609,0.378,5.968,-0.550846,-0.566159,0.463166,99819.79,+121,-95,-114
91206,5.342,-0.572,5.799,-0.607782,-0.442709,0.187001,99819.79,+121,-95,-114
91215,5.013,0.405,5.878,-0.530626,-0.053205,-0.379696,99821.73,+123,-93,-115
91226,4.798,1.272,5.656,-0.618957,0.329914,-0.854338,99817.97,+122,-93,-117
91236,4.122,1.020,4.830,-0.591819,0.570960,-1.210319,99819.17,+120,-92,-120
91246,3.756,0.840,3.830,-0.458259,0.776354,-1.608337,99818.03,+120,-92,-120
91255,3.636,0.704,2.809,-0.171984,0.965253,-2.004227,99818.03,+115,-93,-122
91266,3.612,0.305,2.165,0.236676,1.148831,-2.379364,99820.52,+110,-96,-124
91276,3.784,-0.022,2.003,0.566052,1.358482,-2.749181,99819.63,+102,-101,-125
91286,4.115,-0.326,2.023,0.727281,1.588354,-3.090263,99818.69,+102,-101,-125
91296,4.256,-0.737,1.817,0.814547,1.827803,-3.390373,99819.58,+93,-105,-126
91305,4.465,-1.170,1.963,0.926822,2.069913,-3.655896,99819.58,+81,-110,-127
91316,4.991,-1.571,2.136,1.061446,2.295527,-3.884703,99822.19,+67,-116,-127
91326,5.467,-2.206,2.361,1.257795,2.512628,-4.069345,99819.00,+67,-116,-127
91336,5.932,-2.704,2.607,1.492987,2.722812,-4.198115,99818.53,+53,-122,-127
91345,6.694,-2.796,2.717,1.748932,2.910114,-4.283253,99819.53,+37,-128,-125
91356,7.661,-3.041,2.760,2.070858,3.072940,-4.338592,99819.53,+17,-137,-122
91366,8.930,-3.544,2.729,2.382674,3.209160,-4.402977,99820.52,-2,-137,-116
91376,10.374,-4.005,2.491,2.630638,3.315582,-4.480134,99819.68,-2,-144,-116
91386,11.889,-4.588,2.267,2.825390,3.386353,-4.566335,99818.74,-25,-149,-108
91396,13.216,-5.494,2.076,2.961610,3.426793,-4.678610,99818.96,-48,-154,-99
91406,14.519,-6.650,2.013,3.003114,3.457123,-4.837002,99818.96,-73,-158,-87
91416,15.860,-8.018,1.987,2.964803,3.491710,-4.967546,99822.81,-73,-158,-87
91426,17.370,-10.169,1.798,2.860509,3.531086,-5.063858,99820.88,-98,-156,-73
91436,18.310,-12.535,0.909,2.634362,3.555031,-5.104830,99820.20,-124,-151,-58
91446,18.640,-14.939,-0.653,2.251243,3.569398,-5.066518,99821.14,-146,-140,-41
91456,18.537,-16.924,-2.611,1.745739,3.558756,-4.938812,99821.14,-146,-140,-41
91466,17.878,-17.907,-4.542,1.244492,3.456591,-4.702023,99822.20,-166,-125,-27
91475,17.325,-18.162,-6.163,0.922565,3.206499,-4.344977,99822.31,-179,-108,-13
91486,16.742,-19.634,-6.334,0.891171,2.812206,-3.917694,99822.25,-187,-91,-1
91496,14.947,-20.846,-6.314,1.108804,2.322133,-3.431877,99824.14,-187,-91,-1
91506,10.176,-24.254,-6.673,1.415299,1.907087,-2.906685,99824.14,-191,-78,+8
91516,4.959,-28.031,-7.941,1.545134,1.585693,-2.285181,99825.02,-192,-65,+16
91526,2.675,-28.659,-9.146,1.167868,1.223858,-1.393365,99824.95,-191,-57,+22
91536,3.837,-25.743,-10.223,0.444199,0.713033,-0.303072,99825.06,-191,-57,+22
91546,6.369,-22.064,-10.412,-0.258186,0.126648,0.769129,99826.94,-189,-55,+24
91556,9.039,-19.687,-8.459,-0.618957,-0.421957,1.585385,99826.94,-185,-57,+24
91566,12.601,-14.846,-6.379,-0.509874,-0.873718,1.982339,99829.09,-183,-61,+22
91576,12.949,-10.880,-7.728,-0.505617,-1.692103,2.500082,99830.61,-183,-61,+22
91586,21.321,11.282,9.074,0.422382,-2.044892,2.016927,99824.14,-179,-68,+17
91596,32.897,35.462,14.259,0.943850,-1.442544,0.752634,99819.50,-176,-69,+16
91606,18.904,2.455,-3.033,-0.686002,-1.395186,2.282449,99819.50,-169,-72,+11
91616,8.665,-19.645,-9.474,0.594786,-2.364690,3.515347,99829.95,-169,-72,+11
91626,9.840,-18.720,0.469,2.832839,-2.597754,3.051880,99826.40,-161,-82,+8
91636,7.893,-9.582,-1.074,2.138968,-1.941663,2.416541,99825.15,-156,-88,+6
91646,7.277,-3.306,-0.594,0.643740,-1.080709,2.403770,99820.87,-150,-93,+4
91656,3.292,-5.509,4.880,0.334052,-0.930122,2.340981,99820.87,-150,-93,+4
91666,5.036,-11.864,3.730,0.335648,-0.881700,2.039275,99822.80,-144,-98,+3
91676,9.855,-9.333,0.561,-0.047471,-0.984929,1.675312,99825.20,-140,-103,+1
91686,10.808,-4.417,0.531,-0.447617,-1.013663,1.455551,99825.20,-137,-106,-1
91696,10.244,-4.465,1.605,-0.527966,-0.963645,1.476303,99823.80,-137,-106,-1
91706,8.664,-4.089,1.625,-0.659397,-0.945021,1.483752,99823.80,-132,-107,-3
91716,8.379,-1.923,0.136,-0.721122,-0.813058,1.414578,99826.17,-128,-111,-7
91726,8.832,-3.099,-1.639,-0.448149,-0.708232,1.363496,99822.88,-125,-112,-9
91736,9.206,-3.485,-1.414,0.004676,-0.711957,1.283679,99822.56,-125,-112,-9
91746,9.075,-3.458,0.112,0.154731,-0.618838,1.229404,99824.50,-122,-116,-10
91756,8.592,-4.353,0.557,0.166970,-0.540618,1.200670,99824.50,-118,-118,-11
91766,8.358,-4.624,1.070,0.032878,-0.445902,1.145331,99825.54,-116,-120,-11
91777,8.073,-5.106,1.441,-0.182094,-0.320324,1.076156,99826.52,-116,-120,-11
91786,8.064,-5.526,1.788,-0.370993,-0.196342,0.978780,99821.15,-112,-122,-12
91796,8.295,-5.173,2.031,-0.512535,-0.130361,0.873423,99820.73,-110,-123,-14
91806,8.579,-4.313,1.801,-0.550846,-0.111205,0.788285,99820.73,-109,-124,-14
91816,8.753,-4.059,1.338,-0.452406,-0.126636,0.737735,99822.05,-109,-124,-14
91826,8.673,-4.219,1.525,-0.308204,-0.154306,0.686652,99824.50,-107,-125,-16
91836,8.448,-4.672,2.058,-0.199654,-0.170801,0.625992,99822.88,-104,-126,-16
91846,8.428,-5.039,1.889,-0.192204,-0.158031,0.560542,99822.63,-103,-128,-17
91856,8.518,-5.072,1.584,-0.289048,-0.119719,0.506267,99822.63,-102,-128,-17
91867,8.334,-5.056,1.490,-0.351305,-0.064379,0.452524,99823.09,-102,-128,-18
91877,8.274,-4.635,1.387,-0.387843,-0.029260,0.411019,99824.66,-100,-128,-19
91886,8.375,-4.380,1.420,-0.363544,-0.044159,0.387074,99823.31,-99,-128,-19
91896,8.482,-4.450,1.653,-0.280003,-0.070765,0.363662,99823.47,-99,-128,-20
91906,8.410,-4.717,1.820,-0.228920,-0.091517,0.349827,99823.47,-99,-128,-20
91916,8.278,-5.051,1.671,-0.238498,-0.093645,0.337588,99826.20,-98,-129,-21
91926,8.257,-5.289,1.489,-0.297030,-0.067572,0.320029,99824.17,-97,-130,-22
91936,8.321,-5.025,1.605,-0.366204,-0.040966,0.300340,99822.13,-96,-130,-23
91947,8.337,-4.733,1.655,-0.390681,-0.028196,0.285974,99822.55,-96,-130,-23
91956,8.279,-4.441,1.434,-0.368865,-0.038838,0.289166,99822.55,-95,-130,-24
91966,8.269,-4.395,1.165,-0.299691,-0.054269,0.299808,99824.70,-94,-130,-25
91976,8.262,-4.418,0.979,-0.233709,-0.063847,0.321625,99826.41,-93,-131,-25
91986,8.043,-4.419,0.652,-0.198058,-0.060655,0.340781,99823.71,-93,-131,-25
91996,7.948,-4.491,0.365,-0.172516,-0.055333,0.354616,99823.38,-92,-131,-26
92006,8.003,-4.417,0.397,-0.154957,-0.053205,0.368451,99823.38,-91,-131,-26
92016,8.359,-4.095,0.888,-0.114516,-0.064911,0.399845,99825.81,-90,-132,-26
92026,8.871,-3.987,1.098,-0.005966,-0.096838,0.437093,99825.45,-90,-132,-26
92037,8.857,-4.344,1.147,0.111630,-0.137810,0.480726,99822.11,-89,-133,-26
92046,8.612,-4.976,1.085,0.171759,-0.150049,0.507863,99823.63,-87,-135,-26
92056,8.620,-5.456,1.317,0.120144,-0.143664,0.529680,99823.63,-86,-134,-25
92066,8.799,-5.191,1.636,-0.015012,-0.135682,0.576505,99826.06,-86,-134,-25
92077,9.121,-4.216,1.900,-0.133140,-0.134086,0.663771,99823.41,-84,-136,-26
92086,9.154,-3.557,1.667,-0.175177,-0.186232,0.794138,99823.09,-82,-137,-27
92096,9.251,-3.367,1.966,-0.137397,-0.265517,0.925569,99825.33,-80,-137,-29
92106,9.442,-4.104,2.044,-0.080994,-0.358636,1.049551,99825.33,-80,-137,-29
92116,9.540,-5.147,2.183,-0.092168,-0.429407,1.148523,99824.59,-76,-139,-28
92126,9.700,-5.556,2.366,-0.177838,-0.482085,1.233661,99824.65,-73,-141,-30
92136,10.059,-5.228,2.185,-0.273085,-0.539021,1.326780,99823.34,-68,-142,-31
92146,10.280,-4.832,1.892,-0.294902,-0.631608,1.428413,99824.02,-68,-142,-31
92156,10.222,-4.524,1.608,-0.261911,-0.751865,1.529514,99824.02,-64,-143,-32
92167,10.795,-4.521,1.042,-0.193801,-0.886489,1.619441,99823.30,-58,-145,-34
92176,11.270,-5.529,1.125,-0.128883,-1.022177,1.694468,99824.34,-51,-147,-35
92186,10.966,-6.676,1.978,-0.123030,-1.118489,1.755661,99822.56,-51,-147,-35
92196,10.609,-7.429,2.451,-0.224663,-1.147223,1.807275,99819.28,-46,-147,-37
92207,10.857,-7.584,2.613,-0.393874,-1.143498,1.869000,99819.28,-39,-148,-40
92216,12.509,-7.145,2.634,-0.555103,-1.157865,1.938706,99823.92,-30,-150,-43
92226,14.395,-7.055,3.658,-0.616296,-1.269076,2.008413,99823.77,-30,-150,-43
92236,14.801,-7.405,4.771,-0.638645,-1.327608,2.126541,99822.56,-21,-149,-46
92247,15.944,-7.591,4.279,-0.776993,-1.266947,2.270211,99823.09,-12,-149,-48
92256,17.401,-7.174,3.835,-1.028681,-1.205223,2.381954,99823.09,-1,-148,-52
92266,18.405,-6.329,4.702,-1.336773,-1.106782,2.477201,99825.87,-1,-148,-52
92276,17.931,-5.663,5.450,-1.662956,-0.992379,2.560210,99824.82,+8,-146,-56
92286,17.596,-3.648,6.251,-2.038093,-0.857755,2.633642,99824.71,+20,-141,-62
92297,17.378,-2.618,5.963,-2.398332,-0.768360,2.676210,99820.38,+32,-137,-68
92306,17.514,-2.307,4.850,-2.741010,-0.702911,2.709733,99820.38,+32,-137,-68
92316,17.086,-3.725,2.457,-3.093267,-0.665663,2.804981,99822.90,+44,-130,-75
92326,15.446,-7.761,-0.639,-3.318882,-0.703975,3.003458,99822.85,+57,-122,-83
92337,13.738,-10.423,-0.950,-3.285891,-0.833810,3.071568,99822.74,+69,-112,-90
92347,13.309,-9.882,2.399,-3.218313,-0.792305,2.758333,99821.18,+80,-103,-97
92356,13.043,-8.470,3.440,-3.226826,-0.700783,2.474009,99821.18,+80,-103,-97
92366,11.749,-7.108,2.591,-3.195964,-0.736966,2.401110,99822.97,+91,-93,-104
92377,10.015,-6.606,2.327,-2.810184,-0.813058,2.451660,99824.64,+103,-83,-108
92387,7.446,-6.714,3.833,-2.187084,-0.672049,2.421330,99823.70,+112,-75,-112
92396,6.733,-3.403,5.295,-1.872075,-0.280416,2.005220,99821.56,+112,-75,-112
92406,6.553,0.048,3.290,-2.114717,0.185712,1.347532,99821.56,+119,-67,-116
92417,5.973,-0.867,3.446,-2.419084,0.580006,1.121386,99824.02,+123,-60,-120
92427,6.088,2.267,3.938,-2.179102,0.768372,0.628652,99823.29,+126,-53,-125
92436,5.959,5.196,3.265,-1.775231,0.920556,0.031625,99823.02,+126,-53,-125
92446,5.474,5.490,2.231,-1.186718,0.933326,-0.254118,99818.49,+128,-47,-128
92456,4.587,4.433,1.179,-0.472094,0.841272,-0.502081,99818.49,+129,-46,-131
92467,3.837,3.504,0.432,0.248382,0.765180,-0.800595,99821.13,+129,-47,-132
92476,3.116,2.701,0.274,0.976841,0.730593,-1.090595,99821.75,+129,-47,-132
92486,2.502,1.970,0.525,1.662730,0.765712,-1.418374,99819.86,+130,-50,-132
92496,2.300,1.260,0.788,2.157592,0.877455,-1.795108,99820.08,+128,-58,-132
92507,2.464,0.651,1.211,2.411941,1.043473,-2.167053,99820.08,+124,-66,-131
92517,2.709,0.233,1.489,2.452381,1.251528,-2.519841,99821.04,+124,-66,-131
92526,2.946,-0.286,1.570,2.377353,1.488317,-2.838575,99821.87,+120,-75,-129
92536,3.031,-0.987,1.668,2.299665,1.724042,-3.118465,99819.05,+114,-85,-129
92547,3.356,-1.647,2.012,2.260821,1.958170,-3.381859,99817.02,+104,-95,-128
92557,4.086,-2.244,2.402,2.213464,2.194959,-3.657492,99817.02,+104,-95,-128
92566,4.918,-2.595,2.500,2.090014,2.431216,-3.942703,99820.22,+93,-105,-128
92576,5.859,-2.570,2.372,1.885684,2.681307,-4.206629,99820.53,+79,-114,-127
92587,6.934,-2.348,2.298,1.663794,2.937252,-4.431711,99819.48,+64,-122,-127
92597,8.148,-2.256,2.145,1.514271,3.166591,-4.616886,99818.08,+64,-122,-127
92606,9.258,-2.479,1.892,1.443501,3.371454,-4.796206,99818.08,+44,-130,-126
92616,10.560,-2.840,1.593,1.444033,3.557160,-4.956904,99819.11,+23,-135,-125
92626,12.114,-3.305,1.687,1.521721,3.708811,-5.091527,99819.47,+0,-141,-121
92637,13.958,-4.083,1.827,1.651024,3.810444,-5.219766,99819.78,+0,-141,-121
92647,16.065,-4.977,1.963,1.825556,3.850884,-5.315013,99818.69,-25,-143,-117
92656,18.761,-6.437,2.122,2.119280,3.819490,-5.333105,99818.69,-51,-144,-109
92666,21.601,-9.453,1.952,2.556142,3.705618,-5.290536,99822.57,-75,-145,-98
92677,22.694,-13.359,0.699,2.918509,3.535875,-5.229344,99820.96,-75,-145,-98
92687,22.305,-16.606,-1.542,3.034509,3.398059,-5.094720,99821.38,-99,-141,-85
92696,20.701,-18.939,-4.263,2.938729,3.228848,-4.820151,99819.91,-120,-136,-71
92706,18.512,-20.648,-5.736,2.815280,2.945234,-4.415748,99819.91,-136,-130,-57
92717,17.893,-23.613,-4.787,2.687573,2.573821,-3.946960,99828.22,-136,-130,-57
92727,15.272,-26.018,-4.201,2.397042,2.067252,-3.434538,99826.39,-149,-122,-45
92736,8.907,-29.016,-7.235,2.004877,1.537803,-2.865713,99824.00,-157,-114,-37
92746,2.488,-32.759,-10.991,1.539281,1.199381,-2.249530,99827.59,-164,-110,-30
92756,-0.170,-32.385,-11.827,0.851263,0.871070,-1.295457,99827.59,-164,-110,-30
92767,2.188,-27.266,-10.384,0.261153,0.344281,-0.025843,99828.77,-167,-107,-26
92777,6.852,-21.276,-10.717,-0.167195,-0.237315,1.189496,99828.51,-166,-108,-26
92786,11.775,-18.186,-7.206,-0.355030,-0.796030,2.169642,99824.54,-161,-114,-28
92796,14.598,-10.474,-5.723,0.119080,-1.510654,2.531477,99824.45,-161,-114,-28
92807,15.429,1.037,1.635,0.400034,-2.105020,2.553825,99824.45,-155,-120,-31
92817,29.432,36.516,20.787,1.386565,-1.797461,1.164487,99823.00,-148,-126,-33
92826,24.449,17.403,4.717,-0.398131,-0.672581,1.245899,99822.38,-146,-128,-36
92836,10.590,-16.260,-9.527,-0.609379,-1.655920,3.315806,99825.23,-135,-128,-39
92847,9.026,-19.596,-4.650,1.746804,-2.397148,3.088063,99826.13,-135,-135,-39
92857,7.963,-10.608,-2.628,1.970822,-1.941130,2.099936,99826.13,-128,-143,-38
92866,9.810,-5.141,-1.589,0.617667,-1.168507,2.270211,99827.38,-121,-149,-38
92876,7.932,-7.469,1.552,0.367043,-0.993443,2.254780,99825.82,-114,-153,-39
92887,7.522,-12.959,0.557,0.156327,-0.904049,2.068009,99825.51,-114,-153,-39
92897,8.628,-8.007,0.391,-0.373654,-0.866269,1.755661,99823.90,-108,-157,-41
92906,8.451,-2.513,1.962,-0.587562,-0.676838,1.505037,99823.90,-103,-160,-45
92916,8.266,-4.252,0.714,-0.410902,-0.652361,1.461404,99827.85,-98,-161,-46
92926,8.307,-5.080,0.536,-0.336938,-0.670984,1.363496,99826.45,-98,-161,-46
92937,8.761,-4.849,1.096,-0.486993,-0.577333,1.250688,99824.77,-94,-162,-48
92947,8.707,-4.153,0.616,-0.508278,-0.461865,1.170872,99826.07,-91,-165,-50
92956,9.156,-3.010,0.262,-0.377911,-0.357572,1.111808,99826.07,-87,-166,-51
92966,9.226,-2.522,1.126,-0.185287,-0.345333,1.102230,99826.60,-87,-166,-51
92977,8.874,-3.050,1.674,0.029685,-0.374599,1.062854,99824.77,-84,-168,-52
92987,8.530,-4.413,1.977,0.124401,-0.400141,1.009643,99824.82,-80,-170,-52
92996,8.317,-5.285,2.167,0.046713,-0.377260,0.912799,99823.77,-77,-171,-53
93006,8.170,-5.700,1.848,-0.162938,-0.307553,0.801588,99823.77,-77,-171,-53
93017,8.081,-5.400,1.851,-0.364608,-0.227205,0.684524,99826.45,-75,-172,-53
93027,8.330,-4.428,1.927,-0.466241,-0.157498,0.581294,99826.72,-72,-172,-55
93037,8.675,-3.754,1.605,-0.434314,-0.133021,0.523294,99823.58,-70,-173,-56
93046,8.965,-3.379,1.531,-0.296498,-0.146324,0.497221,99823.42,-70,-173,-56
93057,8.888,-3.484,1.614,-0.133672,-0.160691,0.488707,99823.42,-69,-173,-57
93067,8.681,-4.021,1.714,-0.054920,-0.163884,0.484983,99826.14,-67,-173,-57
93077,8.483,-4.623,1.879,-0.080461,-0.146856,0.456781,99824.22,-66,-174,-58
93086,8.291,-5.127,2.100,-0.181562,-0.101095,0.414744,99822.91,-66,-174,-58
93096,8.342,-5.002,2.148,-0.365672,-0.050012,0.373240,99821.39,-65,-174,-59
93107,8.462,-4.387,2.090,-0.485929,-0.001058,0.346634,99821.39,-64,-174,-60
93117,8.527,-3.806,2.080,-0.493911,0.007456,0.347166,99826.84,-63,-173,-61
93126,8.527,-3.815,1.879,-0.411966,-0.021278,0.359405,99825.48,-63,-173,-61
93136,8.600,-4.302,1.347,-0.306608,-0.067040,0.359937,99823.60,-61,-175,-62
93147,8.659,-4.611,1.241,-0.242223,-0.102159,0.350891,99823.55,-60,-173,-62
93157,8.614,-4.666,1.645,-0.264039,-0.088324,0.345038,99823.55,-58,-174,-64
93167,8.554,-4.805,1.653,-0.348645,-0.055333,0.339184,99827.08,-58,-174,-64
93176,8.553,-4.717,1.521,-0.422608,-0.024471,0.329074,99825.09,-58,-173,-65
93187,8.652,-4.393,1.422,-0.444425,-0.008508,0.342377,99826.50,-57,-174,-66
93197,8.661,-4.220,1.380,-0.416223,-0.014893,0.362065,99820.08,-56,-174,-67
93207,8.614,-4.399,1.167,-0.374718,-0.031921,0.381221,99820.08,-56,-174,-67
93216,8.692,-4.544,1.042,-0.350773,-0.042031,0.392395,99828.24,-55,-173,-67
93227,8.838,-4.633,1.258,-0.372590,-0.034581,0.410487,99824.96,-53,-173,-69
93237,8.718,-4.681,1.470,-0.425269,-0.028196,0.439221,99824.96,-51,-173,-70
93247,8.723,-4.310,1.465,-0.482204,-0.024471,0.487111,99824.90,-51,-173,-70
93256,8.694,-3.687,1.497,-0.499232,-0.038306,0.552028,99824.90,-50,-173,-71
93266,8.698,-3.247,1.693,-0.437507,-0.095242,0.637166,99826.98,-48,-173,-72
93277,8.728,-3.171,1.821,-0.325764,-0.185168,0.736138,99828.27,-46,-173,-75
93287,8.853,-3.464,2.090,-0.206571,-0.272434,0.837239,99825.20,-46,-173,-75
93297,9.192,-4.208,2.165,-0.148039,-0.349058,0.934615,99822.49,-43,-173,-74
93306,9.240,-5.188,2.398,-0.171984,-0.393755,0.993147,99822.49,-39,-175,-76
93317,9.125,-5.457,1.930,-0.273617,-0.421425,1.051147,99827.39,-35,-175,-77
93327,9.179,-5.046,1.707,-0.406645,-0.443241,1.103826,99824.94,-31,-175,-77
93337,9.475,-4.526,1.635,-0.456131,-0.501241,1.173000,99823.31,-31,-176,-78
93346,9.825,-4.244,1.280,-0.425269,-0.594361,1.253349,99823.36,-26,-177,-80
93357,10.107,-4.088,0.907,-0.344388,-0.711957,1.350725,99823.36,-21,-177,-81
93367,10.333,-4.073,0.290,-0.253929,-0.834874,1.453954,99824.19,-14,-177,-82
93377,10.586,-4.457,-0.071,-0.167195,-0.964709,1.539092,99827.06,-14,-177,-82
93386,10.602,-5.232,0.866,-0.118241,-1.096140,1.603477,99823.92,-8,-178,-83
93396,10.335,-6.704,1.926,-0.150700,-1.171700,1.656688,99824.50,-2,-179,-85
93407,10.237,-7.841,2.106,-0.321152,-1.167620,1.704755,99824.50,+5,-179,-85
93417,10.672,-8.178,2.031,-0.540204,-1.138177,1.720541,99826.44,+5,-179,-85
93427,11.858,-7.981,1.642,-0.785507,-1.109443,1.727459,99826.55,+12,-178,-88
93436,13.552,-7.928,2.412,-0.965360,-1.157333,1.714688,99826.33,+20,-177,-91
93447,14.055,-7.770,3.754,-1.065397,-1.203626,1.739165,99823.67,+28,-175,-94
93457,14.798,-7.274,2.734,-1.205873,-1.149883,1.815789,99823.67,+28,-175,-94
93467,16.670,-6.223,1.521,-1.440002,-1.164250,1.872193,99825.79,+36,-172,-98
93476,17.974,-4.121,1.748,-1.666148,-1.211608,1.954670,99825.12,+44,-168,-102
93487,18.585,-2.704,2.057,-1.780020,-1.289828,2.090890,99823.18,+55,-164,-107
93497,19.436,-1.341,2.840,-1.801304,-1.417002,2.246798,99822.46,+55,-164,-107
93507,19.974,-0.762,4.668,-1.762992,-1.536727,2.437825,99822.46,+64,-160,-110
93517,19.269,-1.578,5.450,-1.753947,-1.619204,2.646412,99824.66,+75,-155,-115
93527,17.815,-2.418,5.591,-1.746497,-1.671351,2.794339,99822.84,+87,-149,-117
93537,15.828,-4.636,4.419,-1.818332,-1.643149,2.848614,99823.10,+87,-149,-117
93547,13.904,-8.168,2.014,-1.844937,-1.685186,2.922577,99819.35,+99,-142,-120
93557,12.220,-9.612,1.473,-1.811947,-1.736800,2.849678,99819.35,+110,-135,-124
93566,11.942,-8.878,2.938,-1.791726,-1.656984,2.618743,99824.69,+121,-128,-126
93577,11.209,-8.665,1.819,-1.934332,-1.521828,2.395789,99823.28,+121,-128,-126
93587,9.505,-9.424,0.690,-2.119506,-1.440947,2.405367,99823.33,+130,-120,-128
93597,7.425,-9.910,0.893,-1.980625,-1.353149,2.437293,99822.23,+140,-112,-131
93606,6.531,-8.372,3.351,-1.428828,-1.171700,2.315440,99822.23,+148,-105,-132
93617,5.458,-4.272,6.333,-0.852021,-0.867333,1.839734,99823.27,+148,-105,-132
93627,5.680,-0.687,4.960,-0.781782,-0.418764,1.158633,99821.80,+152,-101,-132
93637,4.090,-2.108,2.768,-1.414461,-0.031388,0.910138,99823.36,+154,-97,-135
93642,3.341,-2.122,3.330,-1.618791,0.142079,0.857992,99819.72,+154,-97,-135
93651,3.162,0.058,3.837,-1.535249,0.340024,0.428047,99819.72,+156,-91,-138
93662,3.229,2.692,4.149,-1.466075,0.684299,-0.212613,99819.72,+155,-87,-140
93672,3.039,3.576,3.634,-1.378809,0.906721,-0.581365,99819.76,+150,-86,-144
93682,2.250,2.786,2.565,-1.132442,0.983877,-0.823475,99820.76,+150,-86,-144
93692,1.486,1.687,1.492,-0.765819,1.040813,-1.089530,99821.30,+146,-84,-148
93702,1.020,1.108,0.778,-0.256590,1.088703,-1.375273,99821.30,+142,-86,-149
93712,0.678,1.012,0.790,0.402694,1.139785,-1.688154,99823.40,+135,-88,-150
93722,0.854,0.910,1.163,1.025795,1.238225,-2.042539,99823.40,+135,-88,-150
93732,1.514,0.603,1.363,1.451483,1.372849,-2.397988,99823.82,+127,-94,-148
93742,2.223,0.415,1.545,1.680290,1.514922,-2.725236,99821.05,+117,-102,-146
93752,2.685,0.317,1.756,1.821831,1.680941,-3.006722,99820.74,+106,-109,-145
93762,3.008,-0.100,2.132,1.969757,1.878886,-3.261070,99820.74,+106,-109,-145
93772,3.566,-0.525,2.632,2.157060,2.047565,-3.501052,99819.81,+94,-116,-141
93783,4.222,-1.109,2.991,2.314564,2.207197,-3.742630,99820.39,+79,-124,-138
93792,4.898,-2.032,3.145,2.386931,2.368959,-3.958134,99817.83,+62,-131,-133
93802,5.765,-2.821,3.169,2.387996,2.550940,-4.137987,99819.30,+62,-131,-133
93812,6.949,-3.391,3.088,2.356069,2.760592,-4.305069,99820.45,+45,-137,-128
93822,8.111,-3.891,2.971,2.334253,2.961197,-4.450867,99819.35,+26,-143,-122
93832,9.295,-4.346,2.869,2.353409,3.157013,-4.597198,99818.57,+7,-147,-116
93842,10.633,-4.788,2.902,2.414601,3.351233,-4.727564,99818.57,+7,-147,-116
93852,12.267,-5.403,3.071,2.502399,3.520976,-4.845160,99819.73,-13,-148,-107
93862,14.110,-6.253,3.154,2.551353,3.647619,-4.963289,99819.73,-33,-149,-98
93872,16.255,-7.442,3.252,2.519959,3.758297,-5.078757,99819.00,-53,-147,-88
93878,18.091,-8.914,3.090,2.474197,3.833857,-5.132500,99820.77,-53,-147,-88
93887,19.569,-10.885,2.640,2.401298,3.872169,-5.156977,99817.84,-73,-144,-78
93897,20.590,-13.079,1.408,2.226234,3.901435,-5.162298,99818.78,-91,-138,-67
93906,21.593,-15.212,-0.440,1.975079,3.931765,-5.072904,99818.78,-91,-138,-67
93917,21.765,-17.120,-2.728,1.679758,3.886003,-4.858463,99821.56,-109,-130,-57
93927,20.875,-18.169,-4.639,1.411042,3.691783,-4.507271,99825.42,-124,-123,-48
93937,20.158,-19.612,-5.251,1.311006,3.307068,-4.026776,99823.86,-136,-115,-38
93947,17.957,-20.730,-6.583,1.347721,2.766445,-3.492006,99823.86,-136,-115,-38
93957,11.499,-24.395,-8.753,1.496712,2.252427,-2.942868,99823.86,-144,-108,-32
93967,5.002,-28.920,-12.098,1.571739,1.868775,-2.395328,99829.71,-151,-103,-25
93977,1.817,-29.411,-14.305,1.173189,1.392005,-1.504576,99828.71,-155,-101,-20
93987,4.039,-24.656,-13.565,0.418125,0.694409,-0.245072,99828.55,-155,-101,-20
93997,8.172,-18.626,-11.768,-0.220406,-0.100031,0.906413,99826.32,-155,-102,-19
94007,13.071,-14.600,-6.224,-0.514663,-0.648104,1.664670,99826.32,-151,-105,-22
94017,13.304,-11.469,-7.564,-0.428993,-1.360599,2.133459,99827.71,-146,-110,-27
94027,13.315,-3.355,1.283,-0.164003,-1.877809,2.307991,99827.35,-146,-110,-27
94038,22.901,18.495,18.537,0.849134,-1.493626,1.449165,99822.71,-140,-116,-30
94047,28.242,26.544,7.496,-0.164003,-0.881168,0.939936,99819.99,-137,-119,-32
94057,11.677,-4.558,-7.267,-1.087745,-1.514378,2.589477,99819.99,-130,-124,-37
94067,9.835,-15.466,-6.963,1.160419,-2.287534,2.816687,99828.23,-130,-124,-37
94077,9.081,-12.126,0.187,2.281042,-2.180580,2.281917,99826.73,-122,-131,-38
94087,7.763,-6.817,0.427,1.287061,-1.454782,2.107917,99825.27,-116,-138,-37
94097,9.830,-7.078,2.078,0.914584,-0.983333,2.174431,99823.55,-110,-143,-37
94107,7.153,-9.612,3.350,0.626712,-1.070067,2.065348,99823.55,-110,-143,-37
94112,6.101,-10.212,3.263,0.203153,-1.044526,1.826431,99823.78,-104,-147,-38
94121,7.818,-8.413,2.428,-0.297030,-0.955663,1.584321,99823.78,-99,-150,-41
94132,9.142,-5.361,0.365,-1.082424,-0.929590,1.376799,99825.61,-99,-150,-41
94142,8.476,-2.215,0.095,-1.255892,-0.806140,1.254945,99821.17,-95,-151,-45
94152,9.151,-2.538,1.054,-1.031342,-0.591700,1.250688,99822.95,-91,-152,-49
94162,9.272,-2.743,-0.127,-0.727507,-0.587975,1.235789,99827.48,-87,-153,-51
94173,9.096,-2.345,0.883,-0.459324,-0.622562,1.196945,99823.35,-87,-153,-51
94182,9.159,-2.207,1.100,-0.212425,-0.636929,1.165551,99824.76,-84,-155,-53
94192,8.928,-2.892,0.948,0.089282,-0.626819,1.131496,99824.76,-80,-157,-54
94202,8.336,-4.794,1.705,0.151006,-0.593296,1.072964,99826.01,-76,-158,-54
94212,7.934,-6.202,1.820,-0.040021,-0.509755,0.972395,99826.01,-76,-158,-54
94222,8.224,-5.880,1.764,-0.365672,-0.377260,0.888854,99825.81,-72,-159,-56
94233,8.645,-4.346,2.254,-0.647868,-0.270838,0.815777,99823.16,-69,-160,-58
94242,9.104,-3.240,2.317,-0.664718,-0.259131,0.788817,99823.16,-67,-160,-59
94253,9.124,-3.068,2.262,-0.514131,-0.301168,0.786689,99824.83,-67,-160,-59
94262,8.645,-3.688,2.327,-0.276810,-0.370342,0.748377,99824.83,-65,-160,-60
94272,7.993,-4.292,2.270,-0.069819,-0.409186,0.661643,99824.18,-63,-162,-61
94282,7.928,-4.776,1.732,-0.009159,-0.434196,0.584487,99823.82,-60,-162,-62
94292,8.013,-5.040,1.300,-0.050663,-0.416636,0.530212,99823.55,-60,-162,-62
94303,8.262,-5.105,1.021,-0.125159,-0.357040,0.475937,99823.55,-59,-164,-62
94312,8.522,-4.596,1.242,-0.207104,-0.301168,0.445074,99823.55,-58,-163,-64
94322,9.008,-3.598,1.508,-0.210296,-0.277755,0.456249,99825.26,-55,-164,-64
94332,9.204,-3.418,1.594,-0.129416,-0.290526,0.487643,99825.99,-55,-164,-64
94343,8.846,-3.998,1.529,-0.018737,-0.321920,0.510524,99825.05,-53,-164,-65
94348,8.493,-4.437,1.460,0.022236,-0.334691,0.511056,99826.66,-51,-165,-65
94357,8.305,-4.663,1.687,0.021172,-0.336819,0.498285,99826.66,-51,-165,-65
94367,8.211,-4.954,1.786,0.003080,-0.330966,0.473276,99824.98,-50,-166,-66
94377,8.244,-4.926,1.453,-0.026718,-0.315003,0.437625,99823.66,-48,-166,-67
94387,8.245,-4.673,0.799,-0.040021,-0.293186,0.408891,99825.76,-46,-167,-67
94397,8.330,-4.168,0.520,-0.026186,-0.282012,0.397184,99822.37,-46,-167,-67
94407,8.462,-4.043,0.272,0.036603,-0.279352,0.395588,99822.37,-44,-167,-67
94417,8.436,-4.265,0.320,0.112162,-0.287865,0.396652,99825.93,-43,-168,-67
94428,8.254,-4.641,0.708,0.165905,-0.277223,0.396652,99826.35,-42,-169,-66
94437,8.194,-5.256,0.590,0.160052,-0.237315,0.378561,99822.95,-42,-169,-66
94447,7.993,-5.512,0.517,0.085557,-0.186765,0.341313,99825.35,-41,-170,-66
94457,7.994,-5.404,1.033,0.005208,-0.125040,0.293955,99825.35,-40,-170,-66
94468,8.172,-5.183,1.474,-0.030975,-0.072361,0.249258,99823.67,-39,-170,-67
94477,8.379,-5.062,1.373,-0.029379,-0.042031,0.225313,99825.34,-39,-170,-67
94487,8.439,-5.328,1.061,-0.037893,-0.012233,0.207221,99825.09,-39,-170,-67
94497,8.222,-5.497,1.277,-0.120902,0.034061,0.199772,99824.83,-38,-170,-67
94508,8.397,-4.972,1.292,-0.245948,0.080887,0.211478,99824.83,-37,-170,-68
94518,8.774,-3.768,1.363,-0.311929,0.092061,0.270010,99827.04,-37,-170,-68
94527,9.022,-3.035,1.640,-0.231048,0.036189,0.360469,99822.80,-37,-170,-67
94537,9.199,-2.975,1.903,-0.082058,-0.062251,0.472744,99824.26,-35,-170,-68
94547,9.191,-3.438,1.951,0.044052,-0.161755,0.594597,99822.70,-33,-170,-69
94557,9.296,-4.133,2.436,0.058419,-0.266581,0.712193,99822.70,-33,-170,-69
94567,9.303,-4.010,3.253,-0.010755,-0.362893,0.831918,99828.70,-30,-172,-69
94577,9.679,-3.748,3.325,-0.068755,-0.486874,0.979845,99824.98,-27,-173,-69
94583,9.760,-3.582,3.083,-0.068223,-0.610324,1.098505,99823.52,-27,-173,-69
94593,9.816,-3.528,2.706,-0.037361,-0.733241,1.217698,99823.52,-22,-173,-70
94603,9.761,-4.135,2.305,0.003612,-0.894471,1.365092,99823.52,-16,-174,-71
94612,9.821,-4.897,2.111,-0.001177,-1.035480,1.486945,99823.52,-11,-175,-72
94622,9.821,-5.491,2.361,-0.065562,-1.153076,1.594963,99824.38,-11,-175,-72
94632,10.145,-6.463,1.982,-0.164535,-1.211076,1.696064,99823.91,-5,-177,-73
94643,10.911,-7.407,0.837,-0.353966,-1.219058,1.756725,99824.11,+2,-177,-74
94652,12.297,-7.818,0.514,-0.620553,-1.207883,1.791844,99824.11,+9,-176,-77
94662,13.298,-7.760,2.273,-0.855745,-1.188195,1.811000,99824.11,+9,-176,-77
94672,13.917,-7.406,2.132,-1.009525,-1.125938,1.886027,99823.65,+17,-175,-80
94683,15.249,-6.767,1.036,-1.077103,-1.120085,1.951477,99824.95,+25,-174,-83
94692,16.226,-6.394,0.818,-1.101048,-1.203626,2.014266,99823.80,+32,-172,-87
94702,16.897,-6.260,2.122,-1.131910,-1.263755,2.106853,99824.05,+32,-172,-87
94712,17.262,-5.558,3.634,-1.246846,-1.271736,2.252119,99824.05,+42,-170,-90
94723,17.542,-5.214,4.589,-1.370828,-1.260562,2.413880,99823.88,+50,-168,-93
94733,17.763,-5.458,5.195,-1.540038,-1.228103,2.542651,99824.82,+60,-164,-97
94742,17.601,-5.645,5.427,-1.860901,-1.103590,2.628853,99823.32,+60,-164,-97
94752,16.955,-5.207,5.518,-2.350442,-0.891810,2.679935,99823.32,+70,-159,-103
94763,15.793,-4.469,4.783,-2.858074,-0.671517,2.731550,99822.23,+80,-152,-109
94773,13.882,-3.726,3.287,-3.217781,-0.511351,2.742724,99822.74,+88,-145,-117
94782,11.246,-5.562,0.550,-3.396037,-0.447498,2.719311,99822.74,+88,-145,-117
94792,8.446,-8.342,-1.666,-3.399762,-0.479425,2.616614,99825.30,+96,-135,-125
94802,7.067,-9.909,-1.460,-3.311432,-0.425682,2.360669,99825.46,+103,-124,-132
94813,7.326,-9.589,-0.459,-3.125726,-0.350654,2.112174,99825.46,+109,-115,-139
94822,7.152,-8.015,0.398,-2.799542,-0.370874,2.077587,99825.34,+109,-115,-139
94832,5.834,-5.475,1.623,-2.320644,-0.327242,2.049385,99822.15,+114,-106,-145
94842,3.659,-2.841,2.995,-1.858772,-0.138343,1.792908,99822.41,+118,-99,-147
94853,2.853,-0.130,3.587,-1.672002,0.168153,1.368817,99820.16,+121,-93,-150
94863,3.830,2.384,2.844,-1.698075,0.445914,0.890982,99824.13,+121,-93,-150
94872,4.096,1.937,0.885,-1.703396,0.577345,0.598322,99822.09,+121,-87,-154
94882,3.423,1.408,0.560,-1.376149,0.643859,0.435496,99821.99,+120,-82,-156
94893,3.155,3.021,0.441,-0.892993,0.748684,0.007680,99822.77,+117,-78,-159
94903,3.065,4.147,0.321,-0.408773,0.836483,-0.382356,99822.77,+117,-78,-159
94912,2.934,4.090,-0.166,0.071722,0.836483,-0.659053,99822.77,+114,-79,-159
94922,2.474,2.955,-0.792,0.549556,0.799235,-0.941072,99822.13,+110,-80,-159
94932,2.103,1.292,-1.117,1.021006,0.804556,-1.252888,99822.28,+107,-84,-158
94938,2.089,0.478,-1.073,1.321648,0.847657,-1.501383,99822.91,+107,-84,-158
94948,2.250,0.094,-0.880,1.528106,0.931730,-1.752007,99822.39,+101,-89,-156
94957,2.780,-0.083,-0.580,1.691464,1.074336,-2.053713,99822.39,+93,-95,-153
94967,3.399,-0.453,-0.208,1.780326,1.216409,-2.293163,99822.72,+93,-95,-153
94978,3.822,-0.969,0.031,1.847904,1.340390,-2.490043,99818.23,+84,-100,-149
94988,4.393,-1.677,0.207,1.892069,1.452133,-2.682667,99821.16,+75,-107,-147
94997,4.865,-2.998,0.242,1.859611,1.553766,-2.866777,99820.42,+66,-112,-144
95007,5.413,-4.349,-0.151,1.705299,1.671363,-3.040245,99820.42,+66,-112,-144
95017,6.143,-4.903,-0.612,1.515336,1.805454,-3.184446,99820.91,+53,-116,-141
95028,7.217,-4.295,-1.145,1.459996,1.902298,-3.310024,99822.27,+41,-120,-138
95038,8.069,-3.483,-2.054,1.614840,1.872500,-3.376006,99820.75,+30,-124,-135
95047,8.687,-3.423,-2.702,1.999556,1.735748,-3.402079,99821.64,+30,-124,-135
95057,9.355,-4.335,-2.920,2.513574,1.572390,-3.459015,99821.64,+18,-128,-128
95068,9.986,-5.687,-2.957,2.958417,1.398922,-3.554795,99825.23,+6,-133,-122
95078,10.429,-6.818,-2.875,3.285133,1.218005,-3.626097,99822.55,-5,-138,-114
95087,10.809,-7.939,-2.622,3.551720,1.045069,-3.655364,99822.98,-5,-138,-114
95097,11.082,-9.170,-2.394,3.778399,0.868941,-3.660685,99821.77,-16,-143,-104
95108,11.410,-10.148,-2.309,3.909297,0.690684,-3.653767,99821.77,-28,-149,-95
95118,11.860,-11.123,-2.171,3.852362,0.509767,-3.626097,99820.64,-37,-152,-84
95127,12.369,-12.708,-1.861,3.614509,0.311822,-3.559584,99824.09,-37,-152,-84
95137,12.448,-14.246,-1.574,3.301096,0.100575,-3.456354,99822.73,-48,-154,-76
95148,11.883,-14.937,-1.237,2.996729,-0.058526,-3.337162,99824.19,-57,-155,-68
95158,11.088,-15.034,-0.731,2.770583,-0.185168,-3.128575,99824.19,-65,-155,-62
95168,10.153,-15.301,-0.118,2.696087,-0.284141,-2.832722,99825.28,-65,-155,-62
95173,9.494,-15.563,0.064,2.710454,-0.340012,-2.575181,99824.55,-72,-154,-56
95182,8.809,-15.800,-0.161,2.762601,-0.396416,-2.279328,99824.55,-78,-154,-50
95193,7.813,-15.760,-0.567,2.843482,-0.472507,-1.861621,99822.94,-78,-154,-50
95203,7.062,-15.650,-1.260,2.882858,-0.553920,-1.397090,99824.23,-82,-155,-43
95213,7.256,-15.046,-2.003,2.839225,-0.645443,-0.950650,99824.23,-84,-157,-38
95222,5.900,-15.960,-2.490,2.687573,-0.714617,-0.476540,99825.17,-84,-158,-32
95233,5.017,-16.218,-2.130,2.397574,-0.800819,0.031093,99826.73,-84,-158,-32
95243,4.150,-15.362,-1.791,2.068198,-0.827425,0.401441,99824.75,-84,-161,-28
95253,3.662,-14.463,-0.882,1.656345,-0.792838,0.806377,99824.75,-80,-164,-24
95262,4.247,-17.095,0.459,1.274822,-0.831682,1.314010,99824.75,-75,-167,-22
95272,5.006,-11.738,2.021,1.245024,-0.943957,1.347532,99824.60,-75,-167,-22
95283,12.295,-0.094,8.845,0.767721,-0.022875,0.575441,99822.73,-73,-169,-20
95293,19.209,1.557,8.532,-0.269360,0.143676,0.768597,99819.59,-71,-170,-20
95303,20.314,-7.309,-0.281,-0.492846,-0.337352,1.397019,99822.15,-67,-172,-22
95312,13.860,-7.856,-8.178,0.015318,-0.949810,1.448633,99822.15,-67,-172,-22
95323,6.713,-3.174,-4.016,0.331924,-0.523590,1.046358,99827.05,-62,-175,-22
95333,6.083,-1.431,-3.539,0.499538,-0.059058,1.007514,99824.88,-60,-176,-21
95343,7.386,-2.706,-1.386,0.381942,0.052685,0.995276,99825.11,-57,-177,-20
95352,8.923,-4.960,1.024,0.246786,0.076630,0.878212,99825.11,-57,-177,-20
95363,9.676,-5.081,1.758,0.064272,0.084079,0.770725,99826.07,-54,-179,-19
95373,9.306,-4.952,1.425,0.094603,0.133566,0.628120,99826.07,-53,-179,-20
95383,8.079,-4.588,1.371,0.215392,0.167621,0.480194,99823.37,-51,-181,-18
95392,7.365,-4.256,1.466,0.129190,0.194758,0.362597,99823.46,-51,-181,-18
