60043,9.558,-2.697,1.822,-0.008822,0.015741,-0.030944,100179.14,+22,-218,+34
60053,9.576,-2.654,1.810,-0.018932,0.015741,-0.027220,100179.13,+22,-218,+34
60063,9.586,-2.607,1.711,-0.021060,0.018401,-0.020834,100177.97,+22,-218,+34
60073,9.555,-2.662,1.641,-0.008822,0.019466,-0.014981,100177.03,+22,-218,+34
60083,9.541,-2.671,1.640,0.001288,0.019998,-0.010192,100177.03,+22,-219,+34
60093,9.525,-2.658,1.709,0.012995,0.021062,-0.006999,100177.03,+22,-219,+34
60103,9.531,-2.707,1.795,0.023637,0.020530,-0.004339,100178.96,+22,-218,+34
60113,9.531,-2.734,1.838,0.027894,0.018401,-0.004871,100178.55,+22,-218,+34
60123,9.504,-2.771,1.858,0.011398,0.018934,-0.003807,100178.49,+22,-218,+34
60129,9.529,-2.799,1.845,-0.005629,0.018934,-0.002743,100179.49,+22,-218,+34
60138,9.553,-2.720,1.786,-0.016271,0.018934,-0.002210,100179.49,+23,-218,+34
60148,9.583,-2.637,1.764,-0.017335,0.019998,-0.002210,100179.68,+23,-218,+34
60158,9.537,-2.643,1.740,-0.001372,0.018401,-0.000614,100178.57,+23,-218,+34
60168,9.511,-2.677,1.748,0.009270,0.017337,0.002579,100178.63,+23,-218,+34
60178,9.502,-2.715,1.694,0.012463,0.018401,0.005239,100178.73,+22,-218,+34
60188,9.505,-2.708,1.718,0.009802,0.019998,0.006835,100178.73,+22,-218,+34
60198,9.575,-2.707,1.759,0.013527,0.022126,0.008432,100179.79,+22,-218,+34
60208,9.554,-2.738,1.785,0.017252,0.022658,0.011092,100179.84,+23,-218,+34
60218,9.509,-2.754,1.795,0.015123,0.022658,0.009496,100178.99,+22,-218,+34
60228,9.518,-2.806,1.718,0.002353,0.023723,0.006303,100176.79,+23,-218,+34
60238,9.569,-2.769,1.738,-0.000308,0.024787,0.002046,100176.79,+23,-218,+34
60249,9.576,-2.710,1.787,0.007142,0.024255,-0.001324,100181.69,+22,-218,+34
60258,9.570,-2.764,1.841,0.017784,0.022658,-0.003275,100179.28,+22,-218,+34
60268,9.519,-2.782,1.898,0.018848,0.019998,-0.005403,100176.45,+22,-218,+34
60278,9.488,-2.754,1.850,0.011398,0.017869,-0.006999,100175.88,+22,-218,+34
60289,9.533,-2.751,1.811,0.002353,0.016805,-0.006999,100175.88,+22,-218,+34
60298,9.519,-2.733,1.789,0.001820,0.017337,-0.005403,100177.90,+23,-218,+35
60308,9.505,-2.739,1.779,0.001288,0.015741,-0.005935,100178.99,+22,-218,+35
60318,9.533,-2.677,1.784,0.001820,0.016273,-0.006999,100175.23,+22,-218,+35
60328,9.572,-2.679,1.835,0.011398,0.015209,-0.005403,100176.74,+23,-218,+34
60338,9.582,-2.709,1.893,0.017252,0.014677,-0.004871,100176.74,+23,-219,+35
60348,9.579,-2.710,1.839,0.017252,0.012548,-0.005935,100177.16,+23,-218,+35
60358,9.566,-2.734,1.788,0.014591,0.013612,-0.006467,100176.48,+23,-218,+35
60368,9.527,-2.715,1.817,0.015123,0.013612,-0.008064,100177.27,+23,-218,+36
60379,9.497,-2.713,1.760,0.019380,0.014145,-0.008596,100176.44,+22,-218,+35
60388,9.515,-2.749,1.808,0.020976,0.016273,-0.009128,100176.44,+23,-218,+35
60398,9.457,-2.726,1.810,0.018848,0.015209,-0.009660,100179.37,+23,-217,+34
60408,9.475,-2.705,1.790,0.010866,0.016273,-0.010192,100179.79,+23,-217,+34
60419,9.527,-2.771,1.731,-0.002436,0.020530,-0.008596,100179.84,+23,-218,+36
60428,9.518,-2.696,1.685,-0.013611,0.024787,-0.008596,100179.63,+23,-218,+36
60438,9.618,-2.555,1.677,0.002885,0.026915,-0.007532,100179.63,+22,-218,+35
60448,9.636,-2.604,1.798,0.034811,0.026383,-0.001678,100177.91,+22,-218,+35
60459,9.557,-2.725,1.863,0.049710,0.021594,0.002579,100179.17,+23,-218,+36
60469,9.537,-2.774,1.962,0.046518,0.019466,0.002046,100176.34,+23,-218,+35
60478,9.500,-2.735,2.020,0.033747,0.017337,0.000450,100176.66,+23,-218,+35
60484,9.548,-2.705,2.037,0.024169,0.014677,-0.002743,100176.66,+23,-218,+35
60493,9.516,-2.684,1.987,0.018316,0.010952,-0.001146,100176.66,+23,-217,+35
60504,9.510,-2.670,1.935,0.009802,0.008291,0.003111,100180.41,+23,-217,+35
60514,9.519,-2.629,1.875,0.007142,0.006695,0.007900,100180.09,+23,-217,+36
60523,9.582,-2.575,1.863,0.015655,0.004567,0.012689,100177.31,+23,-218,+36
60533,9.596,-2.638,1.856,0.026298,0.002438,0.016413,100177.53,+23,-217,+36
60544,9.569,-2.750,1.867,0.026830,0.003502,0.020138,100178.38,+23,-217,+36
60554,9.557,-2.744,1.855,0.023105,0.005099,0.020138,100175.86,+23,-217,+36
60563,9.570,-2.717,1.879,0.023637,0.005631,0.017478,100175.86,+23,-217,+36
60573,9.539,-2.717,1.871,0.024701,0.006163,0.019074,100177.69,+23,-218,+36
60583,9.490,-2.738,1.816,0.024701,0.007227,0.021734,100177.80,+23,-218,+36
60594,9.576,-2.683,1.845,0.026298,0.008291,0.019606,100177.80,+23,-218,+37
60603,9.679,-2.664,1.804,0.029490,0.005631,0.020670,100181.36,+23,-217,+36
60613,9.706,-2.686,1.829,0.033215,-0.003947,0.021202,100179.47,+23,-217,+37
60623,9.699,-2.716,1.804,0.034279,-0.014057,0.020670,100176.17,+23,-217,+36
60634,9.604,-2.753,1.784,0.033747,-0.018314,0.018542,100178.58,+23,-217,+36
60644,9.517,-2.752,1.779,0.034811,-0.019378,0.015881,100181.34,+24,-216,+36
60653,9.504,-2.756,1.758,0.042261,-0.018314,0.014817,100176.04,+24,-217,+36
60663,9.382,-2.812,1.729,0.048646,-0.012993,0.013221,100174.43,+23,-217,+36
60674,9.177,-2.769,1.609,0.052371,-0.005543,0.011092,100177.20,+23,-217,+36
60684,9.324,-2.577,1.644,0.084830,-0.001819,0.009496,100177.20,+24,-218,+36
60693,9.528,-2.541,1.819,0.139105,-0.010332,0.011092,100177.20,+23,-217,+37
60703,9.591,-2.492,2.057,0.164646,-0.035342,0.014817,100178.80,+23,-216,+38
60713,9.547,-2.230,2.375,0.183270,-0.085360,0.018542,100177.17,+23,-216,+38
60719,9.225,-2.227,2.398,0.221050,-0.121543,0.023863,100177.75,+23,-216,+38
60729,9.199,-2.310,2.171,0.237013,-0.124736,0.039294,100177.02,+23,-216,+38
60738,9.148,-2.820,1.894,0.236481,-0.115690,0.051001,100177.02,+23,-215,+38
60748,8.908,-3.153,1.551,0.188059,-0.080039,0.049404,100180.76,+23,-215,+38
60759,8.897,-3.351,1.425,0.113031,-0.041195,0.037698,100179.29,+24,-215,+39
60769,9.060,-3.324,1.565,0.048114,-0.011397,0.011624,100177.93,+24,-215,+39
60778,9.413,-3.217,1.969,0.010334,0.006163,-0.018706,100176.46,+23,-215,+39
60788,9.524,-3.206,2.080,-0.039684,0.013612,-0.047972,100176.46,+23,-216,+39
60798,9.505,-3.108,1.977,-0.075868,0.010420,-0.082559,100179.21,+23,-214,+39
60809,9.214,-3.096,1.619,-0.057776,0.007227,-0.121403,100178.59,+23,-214,+39
60818,8.986,-3.141,1.106,-0.021060,0.025851,-0.157587,100180.41,+23,-214,+39
60828,9.232,-3.322,1.013,0.028958,0.046603,-0.206009,100179.90,+22,-214,+39
60838,9.440,-3.414,1.146,0.043325,0.073209,-0.261880,100179.90,+22,-215,+39
60849,9.673,-3.457,1.364,0.006077,0.099814,-0.309238,100178.58,+21,-215,+39
60859,10.040,-3.093,2.056,-0.036491,0.107264,-0.351274,100177.64,+21,-214,+40
60868,10.277,-2.630,2.773,-0.062565,0.090236,-0.381605,100179.05,+20,-214,+39
60878,10.266,-2.743,3.095,-0.080657,0.057245,-0.405550,100178.47,+19,-214,+38
60889,9.991,-2.792,3.187,-0.126418,0.015209,-0.422577,100178.47,+17,-213,+38
60899,9.772,-2.423,2.653,-0.182289,-0.025232,-0.433751,100179.92,+17,-213,+38
60908,9.777,-2.437,1.908,-0.193464,-0.041195,-0.431623,100179.88,+16,-214,+38
60918,9.803,-2.279,1.340,-0.183354,-0.038534,-0.425238,100177.83,+15,-213,+38
60929,9.820,-1.893,1.173,-0.140785,-0.027360,-0.406614,100174.53,+14,-213,+38
60939,9.850,-1.632,1.513,-0.066822,-0.018846,-0.366706,100174.53,+14,-213,+38
60949,9.751,-1.453,1.980,-0.016803,-0.020443,-0.310302,100179.92,+12,-214,+38
60954,9.663,-1.381,2.221,-0.001372,-0.024699,-0.258155,100176.78,+12,-214,+38
60963,9.588,-1.311,2.323,-0.002969,-0.032149,-0.202816,100176.78,+12,-212,+37
60974,9.527,-1.262,2.306,-0.019464,-0.043855,-0.127788,100176.83,+11,-213,+37
60984,9.604,-1.204,2.117,-0.033831,-0.047048,-0.053825,100178.30,+11,-213,+37
60994,9.676,-1.246,1.934,0.007142,-0.060883,0.010560,100178.30,+11,-213,+37
61003,9.625,-1.628,1.675,0.069931,-0.067268,0.064303,100180.08,+11,-212,+37
61014,9.644,-2.052,1.606,0.095472,-0.066204,0.097294,100178.64,+11,-212,+37
61024,9.600,-2.089,1.768,0.102921,-0.066736,0.107936,100175.86,+12,-212,+37
61033,9.563,-2.097,1.839,0.112499,-0.071525,0.114322,100175.86,+12,-212,+37
61043,9.681,-2.167,1.917,0.141233,-0.078975,0.120175,100175.86,+12,-212,+38
61053,9.669,-2.121,1.910,0.172096,-0.090149,0.128156,100178.31,+12,-212,+38
61064,9.670,-2.324,2.058,0.188591,-0.093874,0.137202,100180.00,+12,-212,+38
61074,9.651,-2.672,1.867,0.143894,-0.090681,0.136138,100178.22,+12,-212,+39
61083,9.661,-2.592,1.686,0.062481,-0.079507,0.128156,100178.84,+12,-212,+39
61093,9.671,-2.355,1.689,0.020976,-0.075250,0.121239,100178.84,+13,-212,+38
61104,9.579,-2.017,1.765,0.015123,-0.078443,0.130285,100178.02,+13,-212,+39
61114,9.686,-1.531,1.882,0.063013,-0.086956,0.155826,100179.02,+12,-212,+39
61124,9.705,-1.696,2.071,0.123142,-0.100259,0.202120,100178.13,+12,-212,+39
61133,9.682,-1.962,2.075,0.127398,-0.106644,0.241496,100178.13,+14,-212,+39
61144,9.632,-2.125,1.835,0.085894,-0.108241,0.276615,100179.47,+14,-212,+39
61154,9.601,-2.162,1.571,0.065674,-0.103452,0.299496,100179.47,+14,-212,+39
61164,9.752,-2.136,1.494,0.078444,-0.096002,0.325037,100175.58,+14,-212,+39
61173,9.713,-2.200,1.644,0.107710,-0.093874,0.348450,100176.89,+16,-212,+39
61184,9.800,-2.338,1.811,0.119949,-0.091213,0.368670,100178.67,+16,-212,+39
61189,9.840,-2.454,1.814,0.099729,-0.088553,0.391019,100178.67,+16,-212,+39
61199,9.765,-2.313,1.784,0.049710,-0.084828,0.417624,100178.71,+16,-212,+39
61209,9.689,-2.008,1.786,-0.001372,-0.075250,0.464982,100180.34,+19,-212,+39
61218,9.637,-1.729,1.815,-0.031170,-0.066736,0.528835,100179.09,+19,-212,+39
61229,9.760,-1.606,1.683,-0.025317,-0.058754,0.593752,100177.82,+20,-214,+39
61239,10.193,-1.714,1.510,0.016187,-0.046516,0.670908,100177.82,+22,-214,+39
61249,10.184,-1.943,1.602,0.025765,-0.031617,0.759239,100179.32,+24,-215,+39
61258,10.238,-1.697,1.651,-0.014143,-0.008204,0.859275,100178.59,+24,-215,+39
61268,10.299,-1.387,1.820,-0.046602,0.001374,0.984321,100179.32,+27,-216,+39
61279,10.408,-0.622,2.167,-0.062565,0.011484,1.133312,100179.12,+30,-217,+39
61289,10.798,0.044,2.461,-0.012546,0.006163,1.309440,100179.12,+36,-218,+39
61298,11.673,0.524,3.036,0.129527,-0.043323,1.496211,100180.88,+36,-218,+39
61308,12.026,-0.451,2.889,0.371105,-0.133250,1.661165,100178.47,+39,-219,+41
61319,12.535,-2.800,1.856,0.471673,-0.100259,1.804834,100176.80,+44,-218,+41
61329,13.502,-5.090,0.977,0.340774,-0.045452,1.868155,100177.58,+50,-220,+42
61338,15.790,-4.915,0.710,-0.032767,0.015741,1.877201,100177.58,+56,-220,+42
61348,18.822,-3.628,1.193,-0.442491,0.105667,1.894229,100179.78,+56,-220,+41
61359,20.139,-2.835,1.564,-0.775592,0.178567,1.969788,100178.63,+62,-223,+39
61369,20.619,-1.861,1.782,-1.070381,0.224328,2.022999,100178.69,+69,-225,+36
61379,20.623,-0.142,2.136,-1.322069,0.223796,2.076210,100177.42,+76,-228,+32
61388,19.242,1.773,2.236,-1.461481,0.203044,2.111862,100177.42,+76,-228,+32
61399,17.875,0.040,1.884,-1.401885,0.174310,2.093770,100177.77,+83,-231,+29
61409,16.654,-3.308,1.415,-1.270454,0.156218,1.912853,100179.55,+90,-235,+24
61419,14.231,-6.651,1.606,-1.142748,0.120034,1.685109,100176.14,+95,-236,+21
61428,11.562,-9.014,2.093,-0.903830,0.048732,1.543568,100176.72,+95,-236,+21
61438,9.048,-9.880,2.488,-0.568069,-0.068865,1.403623,100176.72,+100,-237,+19
61449,6.229,-10.275,3.255,-0.245078,-0.176351,1.218981,100176.77,+103,-238,+18
61459,3.510,-10.891,3.562,-0.037024,-0.209342,1.071055,100177.76,+106,-238,+18
61469,1.331,-11.285,2.963,-0.024785,-0.166241,1.012523,100175.88,+106,-238,+18
61478,0.219,-10.706,1.865,-0.001904,-0.132718,0.990174,100177.24,+110,-236,+17
61489,0.228,-10.509,1.193,-0.021060,-0.097598,0.935367,100177.24,+112,-236,+17
61499,0.107,-10.733,1.533,0.006077,-0.036938,0.949734,100178.64,+115,-235,+18
61509,0.317,-8.264,1.074,0.036408,-0.021507,0.885349,100178.33,+115,-235,+18
61518,0.034,-6.610,0.432,0.018848,-0.025232,0.756046,100175.70,+119,-235,+18
61529,-0.534,-5.775,0.660,0.103453,-0.001819,0.778927,100176.48,+121,-235,+18
61539,-1.050,-5.339,0.543,0.211472,-0.006608,0.799679,100176.48,+124,-234,+18
61549,-1.238,-4.645,0.316,0.272664,0.020530,0.774670,100178.95,+124,-234,+18
61558,-0.979,-3.865,0.167,0.200830,0.056181,0.770945,100176.64,+126,-233,+19
61569,-1.191,-3.959,-0.046,0.160921,0.032768,0.701239,100176.28,+129,-233,+19
61579,-1.737,-4.361,-0.169,0.281178,0.034365,0.602798,100173.28,+130,-232,+19
61589,-2.601,-4.924,0.112,0.459435,0.033301,0.521918,100173.28,+130,-232,+19
61599,-3.270,-5.423,0.428,0.557343,0.030640,0.410175,100177.85,+132,-230,+22
61608,-3.179,-5.385,0.459,0.547233,0.034365,0.267569,100179.54,+133,-230,+23
61619,-2.485,-4.900,0.473,0.467416,0.038090,0.100487,100177.13,+134,-228,+24
61629,-1.684,-4.210,0.258,0.363123,0.031704,-0.054357,100177.34,+134,-228,+24
61639,-1.281,-3.840,0.156,0.271068,0.027979,-0.199623,100177.34,+133,-228,+25
61648,-1.089,-4.086,-0.107,0.215729,-0.005011,-0.333715,100177.04,+132,-228,+26
61659,-0.753,-4.513,-0.594,0.216261,-0.037470,-0.456632,100176.66,+131,-228,+27
61669,-0.013,-4.707,-0.651,0.248187,-0.057690,-0.590724,100177.20,+131,-228,+27
61679,1.152,-4.621,-0.550,0.298206,-0.110369,-0.758338,100178.24,+128,-228,+28
61688,2.469,-4.608,-0.160,0.318426,-0.181140,-0.971182,100178.24,+126,-228,+28
61699,3.772,-4.814,-0.014,0.302462,-0.265213,-1.229256,100180.63,+122,-227,+29
61709,5.022,-4.849,0.121,0.259362,-0.318424,-1.485200,100176.95,+122,-227,+29
61719,6.060,-4.950,0.514,0.280114,-0.352479,-1.660797,100176.59,+115,-228,+31
61729,7.068,-5.309,0.850,0.446132,-0.416332,-1.824686,100176.64,+108,-228,+33
61739,8.301,-5.659,1.005,0.663233,-0.483910,-2.033805,100176.64,+102,-227,+34
61749,9.569,-5.819,1.437,0.839361,-0.504662,-2.220576,100181.05,+102,-227,+34
61759,10.914,-5.701,2.204,0.928756,-0.482314,-2.378080,100179.59,+94,-225,+37
61769,12.370,-5.454,3.153,0.934077,-0.426442,-2.495145,100178.65,+84,-223,+39
61779,14.496,-4.995,3.523,0.851422,-0.314167,-2.605469,100176.51,+76,-221,+42
61789,16.194,-6.057,4.354,0.639288,-0.196039,-2.707989,100176.51,+76,-221,+42
61799,16.060,-10.319,4.934,0.442407,-0.103984,-2.794190,100178.20,+66,-220,+44
61809,15.390,-19.583,12.941,0.489765,0.499429,-2.215255,100180.40,+59,-217,+45
61818,20.913,-11.301,2.647,0.053435,0.265832,-1.685806,100178.98,+55,-217,+44
61829,17.268,-6.871,1.761,-0.893188,0.598933,-1.917806,100180.91,+51,-218,+43
61839,15.324,4.386,-1.871,-1.597702,0.599465,-2.027420,100180.91,+51,-218,+43
61849,15.196,6.622,-4.398,-1.497665,0.586695,-2.116815,100179.28,+45,-220,+39
61859,18.408,0.087,-5.175,-1.079959,0.363741,-1.964099,100180.17,+40,-222,+36
61869,19.885,-3.700,-2.444,-0.152491,0.140255,-1.492650,100177.55,+36,-220,+36
61879,16.417,-0.269,0.772,0.603637,0.039686,-1.221274,100176.14,+36,-220,+36
61889,10.876,1.184,2.502,0.815416,0.102475,-1.129219,100176.14,+33,-218,+38
61899,8.321,-1.840,2.306,0.818077,0.155686,-0.898815,100179.59,+30,-216,+41
61908,7.671,-6.638,4.025,0.588738,0.110456,-0.764192,100179.01,+27,-214,+42
61919,8.012,-5.370,5.757,-0.107262,0.066291,-0.811017,100177.65,+27,-214,+42
61929,8.845,-0.242,5.434,-0.953849,0.154622,-0.772705,100173.93,+26,-214,+40
61939,9.725,1.816,2.870,-1.132638,0.187080,-0.652449,100173.93,+24,-216,+38
61949,9.904,1.160,1.276,-0.553702,0.143447,-0.461953,100181.53,+23,-217,+36
61959,9.519,-0.838,0.529,0.011398,0.074273,-0.301788,100179.33,+23,-217,+36
61969,10.055,-1.945,0.313,0.147619,0.099814,-0.171953,100180.00,+23,-216,+37
61979,10.161,-2.193,0.935,0.204022,0.131741,-0.077770,100177.08,+22,-216,+38
61988,9.592,-2.206,1.734,0.194976,0.128548,-0.034137,100177.08,+23,-215,+38
61999,9.679,-2.270,2.083,0.167307,0.153557,-0.020302,100179.63,+23,-215,+38
62009,9.677,-2.543,2.034,0.180609,0.168456,-0.000082,100178.69,+23,-215,+39
62015,9.701,-2.768,2.013,0.212536,0.173245,0.008964,100180.94,+24,-214,+40
62024,9.767,-3.138,2.066,0.226371,0.172181,0.000450,100180.94,+24,-214,+40
62034,9.971,-3.432,2.579,0.186995,0.170053,-0.018706,100175.64,+24,-214,+41
62044,10.003,-2.881,3.232,0.055564,0.162603,-0.028816,100175.64,+24,-214,+40
62054,9.833,-2.606,3.467,-0.115244,0.146108,-0.041054,100180.19,+23,-214,+40
62064,9.875,-2.108,3.594,-0.204106,0.051924,-0.041054,100178.88,+23,-214,+40
62074,9.551,-2.197,2.864,-0.196656,-0.044387,-0.032009,100178.56,+25,-215,+39
62084,9.582,-2.114,2.242,-0.222730,-0.084828,0.015881,100178.56,+23,-216,+39
62094,9.666,-1.909,1.406,-0.224858,-0.097066,0.054193,100178.56,+24,-216,+38
62104,10.010,-1.907,1.051,-0.180161,-0.075782,0.106340,100178.05,+24,-216,+38
62114,9.747,-2.083,1.426,-0.110455,-0.051837,0.165404,100179.98,+25,-217,+38
62124,9.387,-1.689,1.822,-0.099280,-0.033745,0.229789,100178.36,+25,-216,+38
62134,9.400,-1.413,2.245,-0.113647,-0.019378,0.312266,100177.94,+25,-216,+37
62144,9.390,-1.560,2.198,-0.097152,-0.015654,0.394743,100177.94,+25,-216,+37
62154,9.518,-2.097,1.908,-0.060968,-0.012461,0.466578,100181.05,+27,-218,+38
62164,9.553,-2.585,1.975,-0.016271,-0.010332,0.517661,100180.58,+29,-218,+37
62174,9.359,-2.910,2.239,-0.017868,-0.001287,0.550652,100179.03,+31,-218,+37
62184,9.172,-3.088,2.476,-0.055647,-0.004479,0.564486,100179.03,+31,-218,+37
62194,9.261,-3.056,2.527,-0.076932,-0.026828,0.562890,100180.70,+33,-219,+38
62204,9.518,-3.150,2.167,-0.071611,-0.047580,0.552248,100179.74,+34,-219,+37
62214,9.413,-3.184,1.879,-0.066290,-0.059819,0.542138,100179.74,+35,-220,+36
62224,9.212,-2.957,1.788,-0.046069,-0.058222,0.546395,100180.16,+35,-220,+36
62234,9.309,-2.543,1.925,0.015123,-0.055030,0.565019,100179.80,+37,-220,+36
62244,9.596,-2.031,2.053,0.164114,-0.031085,0.604927,100179.80,+40,-221,+36
62249,9.500,-2.861,1.857,0.288096,-0.025764,0.620890,100182.95,+40,-221,+36
62259,9.150,-3.478,1.634,0.399306,-0.039599,0.624615,100180.48,+40,-221,+38
62269,9.153,-3.971,1.868,0.418462,-0.039066,0.617697,100178.02,+44,-220,+39
62279,9.326,-4.122,1.861,0.332261,-0.025232,0.596413,100176.02,+44,-220,+40
62289,9.202,-3.928,1.896,0.251380,-0.017250,0.585771,100176.02,+44,-220,+40
62299,9.317,-4.138,1.871,0.206151,-0.025232,0.571936,100179.67,+46,-220,+40
62309,9.317,-3.887,1.881,0.121545,-0.010865,0.569275,100179.83,+47,-219,+40
62319,9.275,-3.737,2.208,0.032683,-0.011929,0.580450,100177.89,+49,-220,+41
62329,9.381,-3.252,2.408,-0.042345,-0.025232,0.606523,100178.83,+49,-220,+41
62339,9.422,-2.534,2.657,-0.052455,-0.053433,0.654945,100178.83,+51,-221,+39
62349,9.382,-2.905,2.494,-0.022124,-0.074718,0.716670,100181.61,+53,-221,+40
62359,9.545,-3.316,2.350,0.017252,-0.076314,0.770413,100179.56,+55,-222,+39
62369,9.491,-3.733,2.129,0.045986,-0.067800,0.802872,100177.20,+55,-222,+39
62380,9.215,-4.257,1.758,0.033747,-0.055562,0.821495,100178.20,+58,-222,+40
62389,9.195,-4.551,1.937,-0.017335,-0.047580,0.824156,100178.20,+60,-222,+41
62399,9.250,-4.203,1.966,-0.083317,-0.047580,0.823092,100179.95,+64,-223,+40
62409,9.493,-3.833,1.900,-0.085446,-0.044387,0.834266,100180.89,+64,-223,+40
62419,9.397,-3.625,1.975,-0.028510,-0.054498,0.863532,100179.48,+66,-223,+39
62429,9.403,-3.710,1.936,0.029490,-0.061947,0.910890,100178.33,+69,-223,+40
62439,9.548,-4.135,2.010,0.042793,-0.074186,0.956651,100178.33,+71,-224,+39
62449,9.716,-4.393,2.454,-0.008290,-0.086956,0.993899,100180.60,+71,-224,+39
62459,9.855,-4.296,2.341,-0.095556,-0.103452,1.027954,100180.34,+74,-223,+40
62470,10.056,-4.028,2.157,-0.164730,-0.117819,1.079037,100180.07,+77,-225,+39
62479,10.254,-3.841,1.723,-0.177501,-0.131121,1.150871,100177.24,+81,-226,+39
62489,10.651,-4.083,0.878,-0.167923,-0.140167,1.229624,100177.24,+81,-226,+39
62499,11.307,-4.160,0.637,-0.131207,-0.151874,1.317954,100179.52,+84,-225,+38
62510,11.646,-4.308,0.775,-0.107794,-0.154002,1.421715,100178.47,+89,-226,+38
62519,11.559,-4.122,1.166,-0.115776,-0.155066,1.533458,100178.94,+93,-226,+38
62529,11.470,-4.029,1.675,-0.140785,-0.162516,1.657440,100179.94,+93,-226,+38
62539,11.634,-3.893,2.043,-0.163134,-0.175819,1.777697,100179.94,+98,-226,+36
62550,11.926,-4.169,2.169,-0.187611,-0.183268,1.898486,100180.17,+104,-226,+36
62559,12.369,-4.442,2.282,-0.214216,-0.202424,2.002779,100179.17,+110,-226,+36
62569,13.147,-4.472,2.305,-0.285519,-0.221048,2.095366,100182.22,+110,-226,+36
62579,14.285,-4.071,2.337,-0.323831,-0.267341,2.178908,100178.23,+116,-226,+35
62589,14.514,-3.686,2.400,-0.311060,-0.291286,2.279476,100178.23,+123,-226,+34
62600,14.558,-3.427,2.479,-0.381299,-0.255103,2.376320,100179.02,+130,-226,+33
62609,16.036,-2.916,2.689,-0.494638,-0.181140,2.459862,100179.29,+130,-226,+33
62619,18.066,-2.436,3.167,-0.655335,-0.111965,2.556173,100179.96,+137,-226,+31
62629,20.134,-0.745,4.069,-0.936821,-0.025764,2.645036,100177.82,+146,-226,+28
62640,20.836,1.314,4.553,-1.319940,0.051392,2.755714,100177.82,+155,-226,+24
62649,20.327,3.591,4.785,-1.711041,0.163135,2.855219,100179.03,+155,-226,+24
62659,19.228,3.397,4.072,-1.910050,0.219007,2.945678,100178.41,+165,-226,+19
62669,17.924,0.308,2.690,-1.931866,0.188144,3.037200,100178.09,+174,-227,+13
62680,16.877,-5.771,1.956,-1.760527,0.037557,3.172356,100176.94,+185,-228,+8
62689,16.756,-9.846,2.718,-1.415188,-0.213066,3.437347,100176.94,+185,-228,+8
62699,16.405,-8.217,4.026,-1.103904,-0.430167,3.601769,100179.27,+195,-224,+4
62709,15.263,-3.863,3.672,-0.728766,-0.515305,3.460228,100177.66,+206,-220,+2
62720,13.523,-2.251,4.009,-0.154088,-0.549360,3.199494,100179.33,+215,-216,+2
62729,10.650,-3.755,4.121,0.341839,-0.456240,3.019641,100179.53,+215,-216,+2
62739,7.975,-4.887,4.286,0.596187,-0.301396,2.774338,100179.53,+222,-210,+4
62749,6.328,-2.513,3.576,0.739325,-0.215195,2.240100,100176.78,+229,-205,+6
62759,7.369,-1.351,1.122,0.588738,-0.297140,1.405752,100176.83,+232,-201,+7
62770,6.888,-0.769,2.696,0.536059,-0.118351,0.785312,100177.52,+235,-200,+9
62779,7.002,2.868,1.689,0.396114,-0.067800,0.309606,100177.09,+235,-200,+9
62789,5.818,4.267,0.393,0.356206,-0.243397,-0.328926,100177.09,+233,-200,+9
62799,4.301,3.830,0.586,0.510517,-0.275855,-0.814742,100178.55,+231,-200,+11
62810,3.527,2.577,0.376,0.676004,-0.313635,-1.164338,100177.92,+226,-202,+14
62819,2.864,0.563,0.678,0.919178,-0.334919,-1.551182,100176.88,+226,-202,+14
62829,2.370,-0.979,1.488,1.191618,-0.366846,-1.978466,100176.09,+220,-202,+17
62839,2.196,-1.642,1.577,1.325000,-0.477702,-2.566092,100176.09,+211,-204,+21
62850,2.503,-1.772,1.226,1.280480,-0.557341,-3.082594,100179.40,+200,-207,+25
62860,3.334,-1.774,0.794,1.149581,-0.592993,-3.541272,100175.15,+200,-207,+25
62869,4.012,-1.988,0.771,1.069233,-0.582350,-3.890336,100172.16,+187,-210,+29
62879,4.018,-2.175,1.159,1.070829,-0.558406,-4.204281,100170.54,+174,-213,+33
62889,4.118,-1.884,1.234,1.078278,-0.541378,-4.539511,100170.54,+158,-216,+36
62900,4.862,-1.712,1.290,1.084132,-0.479653,-4.838024,100173.27,+158,-216,+36
62909,5.994,-1.920,1.428,1.049545,-0.402497,-5.095033,100172.48,+141,-218,+40
62919,7.015,-2.347,1.449,0.970260,-0.333323,-5.336079,100173.38,+124,-218,+42
62929,7.768,-2.726,1.547,0.846811,-0.263617,-5.569675,100172.33,+105,-218,+45
62940,8.523,-3.276,1.548,0.705802,-0.188057,-5.770280,100172.33,+105,-218,+45
62950,9.634,-3.922,1.571,0.585545,-0.106644,-5.963968,100176.97,+86,-216,+47
62959,10.848,-4.354,1.731,0.452517,-0.036938,-6.172023,100173.83,+67,-215,+48
62969,12.044,-4.554,1.428,0.255637,0.000842,-6.374225,100175.92,+47,-211,+48
62980,13.094,-4.098,0.812,0.054499,0.009888,-6.533326,100172.36,+47,-211,+48
62989,14.463,-3.509,0.770,0.072059,0.022126,-6.591858,100172.36,+28,-206,+49
62999,16.739,-3.959,1.128,0.392389,0.012016,-6.557803,100176.83,+9,-199,+49
63009,19.248,-5.188,1.313,0.790939,-0.062479,-6.508849,100174.27,-8,-188,+51
63020,20.669,-7.174,1.861,1.161820,-0.160387,-6.421051,100173.22,-8,-188,+51
63030,20.570,-9.151,2.212,1.445434,-0.306718,-6.250775,100177.14,-25,-175,+53
63039,20.054,-10.570,2.230,1.622095,-0.438149,-5.999087,100177.14,-42,-162,+56
63049,19.361,-12.361,2.869,1.877507,-0.511580,-5.618629,100176.70,-54,-146,+58
63059,18.115,-14.469,3.814,2.123342,-0.576497,-5.127492,100177.59,-54,-146,+58
63070,16.111,-16.083,4.734,2.160058,-0.583415,-4.584740,100175.14,-64,-130,+61
63079,14.209,-18.166,4.772,1.964241,-0.499341,-3.998887,100174.72,-73,-115,+63
63089,12.944,-22.016,5.351,1.605599,-0.373231,-3.358759,100174.72,-79,-105,+64
63099,8.930,-24.077,5.675,0.927159,-0.255635,-2.635089,100177.74,-79,-105,+64
63110,7.363,-23.155,6.262,0.144958,-0.011929,-1.698044,100176.48,-83,-97,+64
63120,8.091,-19.851,5.624,-0.457922,0.158346,-0.534852,100175.79,-84,-95,+64
63129,9.023,-17.160,5.403,-0.546253,0.251998,0.603330,100176.85,-82,-98,+64
63139,9.912,-16.306,5.707,-0.211556,0.257851,1.505256,100176.85,-82,-98,+64
63150,9.772,-16.975,5.284,0.138573,0.206236,2.250742,100179.49,-79,-103,+65
63160,9.922,-17.719,6.377,0.221050,0.291906,2.931311,100177.71,-75,-108,+65
63169,13.973,-8.665,4.872,-0.053519,0.367465,3.149476,100176.87,-69,-115,+66
63179,16.060,4.187,0.041,-0.738876,0.186016,2.667916,100179.60,-69,-115,+66
63190,25.053,32.513,-8.054,-1.580142,-0.199231,1.751091,100179.60,-64,-123,+66
63200,20.114,23.907,-4.366,-1.782876,-0.052901,0.413367,100182.58,-64,-130,+61
63209,12.031,-6.200,1.850,0.474334,0.148768,2.066632,100178.81,-60,-132,+63
63219,10.096,-13.870,2.677,2.918846,0.190805,3.178742,100180.44,-60,-132,+63
63229,7.477,-10.977,0.643,2.511782,-0.152406,2.516797,100179.13,-54,-131,+69
63240,11.171,-8.185,-0.956,1.787581,0.032768,2.058119,100179.13,-49,-131,+72
63250,13.932,-5.996,-0.106,1.426810,0.319043,2.136871,100181.95,-44,-130,+75
63259,9.889,-5.613,1.841,0.969728,0.419612,2.010761,100181.06,-40,-132,+77
63269,9.285,-6.297,3.068,0.226371,0.656933,1.916045,100178.44,-40,-132,+77
63280,10.083,-5.236,2.465,-0.487721,0.687796,1.858577,100179.91,-34,-136,+78
63290,8.461,-3.733,1.798,-0.834124,0.646823,1.632431,100179.91,-29,-141,+77
63299,9.381,-3.208,2.896,-1.039518,0.685667,1.562192,100182.19,-24,-147,+76
63310,10.041,-2.529,2.980,-1.176271,0.598224,1.485036,100181.23,-24,-147,+76
63320,9.292,-1.398,2.339,-1.210858,0.560621,1.354137,100180.56,-20,-152,+75
63330,9.451,-1.480,2.292,-0.936821,0.504750,1.247183,100178.41,-16,-157,+74
63339,10.299,-0.711,2.365,-0.408436,0.375979,1.194504,100178.41,-12,-159,+74
63349,10.174,-0.839,2.695,0.054499,0.296163,1.162046,100183.86,-12,-159,+74
63360,9.711,-2.473,2.790,0.186995,0.245080,1.153532,100177.16,-8,-160,+74
63370,9.476,-3.337,2.452,-0.006693,0.222732,1.086486,100179.20,-5,-162,+74
63380,9.261,-3.737,2.329,-0.326491,0.234438,0.960908,100176.27,-3,-164,+74
63389,9.619,-3.840,1.729,-0.563280,0.232842,0.848101,100176.27,-3,-164,+74
63399,10.122,-3.108,1.337,-0.618087,0.220071,0.779459,100180.13,+0,-167,+73
63410,10.142,-2.282,1.628,-0.520711,0.203044,0.712413,100181.84,+1,-168,+72
63420,9.859,-2.079,1.936,-0.380234,0.151429,0.674633,100178.70,+3,-170,+73
63429,9.603,-2.073,2.186,-0.298822,0.112053,0.669312,100179.23,+3,-170,+73
63439,9.536,-2.235,2.178,-0.291372,0.115245,0.658670,100179.23,+5,-172,+72
63450,9.608,-2.571,2.256,-0.346711,0.140787,0.662927,100182.15,+6,-174,+71
63460,9.604,-2.762,2.266,-0.456326,0.177502,0.660266,100179.01,+9,-176,+71
63469,9.627,-2.550,2.038,-0.585097,0.211025,0.643771,100179.26,+9,-176,+71
63479,9.689,-1.915,2.292,-0.613831,0.212089,0.650688,100178.63,+11,-178,+69
63490,9.384,-1.016,2.690,-0.487721,0.123227,0.660266,100178.63,+13,-180,+68
63500,8.834,-0.139,2.975,-0.249867,0.109392,0.662395,100182.37,+14,-182,+68
63510,8.668,0.090,3.607,0.015655,0.147172,0.718266,100179.59,+14,-182,+68
63519,8.337,-0.649,3.842,0.290756,0.107264,0.778395,100179.85,+17,-182,+68
63529,8.359,-2.510,3.070,0.429637,0.084383,0.856615,100179.80,+20,-182,+69
63540,9.057,-4.323,1.825,0.382811,0.095557,0.927917,100179.80,+23,-182,+71
63545,9.735,-5.052,0.758,0.237013,0.100878,0.948670,100182.64,+23,-182,+71
63554,10.325,-5.578,-0.341,0.018848,0.076401,0.939092,100182.64,+25,-182,+71
63564,10.647,-3.984,-1.092,-0.204638,0.109924,0.920468,100182.70,+28,-184,+70
63575,9.758,-2.916,-0.507,-0.182822,0.181759,0.926853,100176.52,+28,-184,+70
63585,9.237,-2.605,0.877,-0.039684,0.186016,0.963569,100182.94,+32,-186,+69
63595,9.156,-2.308,1.791,0.092279,0.183888,0.994431,100183.20,+34,-186,+70
63605,9.388,-2.565,2.371,0.154536,0.185484,1.069459,100181.94,+38,-186,+71
63614,9.481,-2.173,2.542,0.180609,0.180163,1.173220,100180.69,+38,-186,+71
63625,9.590,-2.362,2.228,0.229563,0.155686,1.296669,100180.69,+41,-187,+72
63635,10.108,-2.206,2.175,0.255105,0.147704,1.441403,100181.94,+45,-187,+73
63644,10.569,-2.865,2.325,0.258297,0.183355,1.576559,100181.94,+50,-187,+73
63654,10.618,-3.740,1.884,0.212004,0.202511,1.681385,100179.14,+50,-187,+73
63665,10.556,-3.798,1.954,0.125802,0.214750,1.766522,100183.42,+56,-188,+73
63675,10.816,-3.116,1.912,0.072059,0.202511,1.863898,100182.91,+60,-189,+74
63685,10.945,-2.728,1.711,0.117288,0.189741,2.005972,100179.19,+67,-190,+74
63694,11.602,-3.415,1.245,0.207747,0.195062,2.156559,100179.19,+67,-190,+74
63705,12.439,-4.250,1.353,0.239141,0.194530,2.286394,100180.66,+73,-189,+74
63715,13.503,-4.793,1.789,0.158793,0.192401,2.388559,100178.71,+80,-190,+75
63725,14.085,-5.027,2.212,0.009270,0.206768,2.477953,100177.40,+88,-190,+75
63735,14.229,-4.928,2.631,-0.186546,0.224328,2.562559,100177.40,+88,-190,+75
63745,14.328,-4.580,2.758,-0.422803,0.251466,2.655678,100177.40,+95,-190,+74
63755,14.941,-3.750,2.797,-0.673959,0.265832,2.759971,100183.45,+103,-192,+73
63765,16.019,-3.035,2.423,-0.861794,0.203576,2.878632,100180.99,+112,-193,+70
63774,17.940,-2.410,1.782,-0.974601,0.082787,2.994100,100181.15,+112,-193,+70
63780,19.937,-1.417,1.948,-1.034729,-0.041727,3.066467,100178.48,+121,-196,+68
63790,21.413,-0.491,2.203,-1.125188,-0.031617,3.111696,100178.48,+129,-197,+65
63800,22.618,0.578,2.087,-1.382729,0.121631,3.157990,100180.27,+129,-197,+65
63810,23.609,2.345,2.119,-1.802564,0.322236,3.200558,100180.01,+139,-198,+61
63819,24.149,4.008,2.207,-2.317114,0.483465,3.175017,100179.16,+150,-202,+54
63830,23.235,4.508,2.501,-2.777389,0.519649,3.032412,100178.43,+160,-207,+47
63840,20.824,2.519,2.909,-2.917334,0.403649,2.961641,100178.43,+160,-207,+47
63850,18.292,-2.831,2.908,-2.403316,0.153557,3.209604,100180.19,+169,-209,+39
63860,17.395,-4.843,4.213,-1.458289,-0.054498,3.609219,100177.67,+179,-209,+35
63869,16.247,-1.451,4.565,-0.844766,-0.193378,3.567182,100180.45,+189,-206,+34
63880,13.969,-0.120,3.598,-0.594142,-0.233286,3.146815,100178.14,+189,-206,+34
63890,10.992,-3.909,3.504,-0.552106,-0.176351,2.863733,100178.14,+198,-202,+33
63900,9.272,-8.787,3.387,-0.395666,-0.091213,2.679623,100179.87,+206,-200,+31
63909,7.454,-8.885,6.979,-0.257849,-0.022571,2.279476,100177.57,+211,-198,+30
63920,6.205,-2.266,5.900,-0.077464,-0.001819,1.537715,100176.10,+211,-198,+30
63930,5.941,-0.672,2.541,-0.282858,0.022658,0.600138,100175.99,+215,-197,+30
63940,4.719,0.080,5.913,-0.187611,0.322768,-0.067128,100175.99,+215,-196,+29
63949,4.313,3.757,3.270,-0.459519,0.428658,-0.781219,100180.64,+213,-198,+27
63960,3.066,5.108,0.910,-1.010252,0.435043,-1.464448,100177.56,+213,-198,+27
63970,2.537,4.900,0.041,-1.075170,0.390878,-1.920466,100178.66,+209,-203,+24
63980,2.400,2.768,0.280,-0.948528,0.500493,-2.211530,100176.25,+203,-208,+21
63989,2.685,0.447,0.260,-0.763885,0.507942,-2.511108,100176.25,+196,-214,+19
64000,2.196,-0.808,0.935,-0.416950,0.464309,-2.926686,100175.33,+196,-214,+19
64010,2.191,-0.982,0.940,-0.083849,0.433447,-3.360355,100172.86,+187,-218,+18
64016,2.725,-0.814,0.468,0.082701,0.392475,-3.691327,100175.69,+176,-222,+18
64025,3.455,-0.694,0.146,0.216793,0.371190,-3.985052,100175.69,+176,-222,+18
64035,4.301,-0.383,0.089,0.412077,0.355759,-4.306447,100172.45,+163,-226,+19
64045,4.932,-0.366,0.120,0.585545,0.355759,-4.538446,100172.45,+149,-229,+20
64055,5.010,-0.755,0.246,0.814884,0.335539,-4.752886,100177.91,+134,-231,+22
64065,5.243,-1.028,0.588,0.990480,0.329686,-5.017877,100176.39,+134,-231,+22
64075,6.011,-1.241,1.012,1.111801,0.338199,-5.266372,100174.03,+117,-231,+26
64084,7.092,-1.557,1.310,1.235783,0.355227,-5.511675,100174.03,+99,-230,+30
64095,8.227,-2.199,1.580,1.368278,0.380236,-5.752189,100174.03,+81,-228,+33
64105,9.443,-3.029,1.600,1.403398,0.402053,-5.986849,100176.24,+81,-228,+33
64115,10.453,-3.632,1.420,1.306021,0.421209,-6.220445,100174.04,+62,-224,+38
64124,11.198,-3.704,1.209,1.122444,0.440365,-6.435950,100174.99,+43,-217,+41
64135,12.263,-3.864,0.592,0.909068,0.495172,-6.597179,100175.15,+23,-210,+43
64145,14.395,-4.632,-0.064,0.690371,0.565410,-6.704133,100175.15,+23,-210,+43
64155,17.100,-5.747,-0.321,0.429105,0.585630,-6.771179,100178.78,+6,-202,+46
64165,19.277,-7.044,-0.374,0.168903,0.524970,-6.808426,100177.80,-12,-192,+46
64175,20.490,-8.029,-0.230,0.009270,0.402585,-6.776500,100175.64,-29,-182,+47
64185,21.468,-8.679,0.188,0.088022,0.246677,-6.634427,100175.64,-29,-182,+47
64195,22.761,-10.199,1.038,0.487637,0.107264,-6.353473,100181.34,-45,-170,+47
64205,22.640,-12.789,2.444,1.010701,0.007227,-5.933106,100179.23,-60,-156,+49
64215,20.814,-15.550,4.072,1.529508,-0.032149,-5.370666,100179.23,-70,-141,+51
64225,18.346,-17.832,4.589,1.904113,-0.016718,-4.751290,100178.87,-70,-141,+51
64235,15.221,-22.946,4.410,2.131856,-0.030553,-4.113291,100180.49,-79,-125,+54
64245,10.434,-27.756,3.126,1.768425,-0.043323,-3.501896,100180.49,-84,-111,+57
64250,7.367,-28.565,3.538,0.957490,0.113649,-2.922961,100181.68,-84,-111,+57
64260,6.860,-25.914,4.506,0.041729,0.332346,-2.021567,100179.95,-88,-104,+58
64270,8.307,-20.498,3.614,-0.967683,0.398860,-0.631164,100178.27,-87,-103,+58
64280,10.251,-16.735,4.346,-1.255023,0.376511,0.681018,100178.52,-86,-109,+56
64290,10.713,-14.994,5.574,-0.897977,0.207300,1.693623,100178.52,-86,-109,+56
64300,12.375,-11.631,7.227,-0.150895,0.103539,2.482210,100180.52,-82,-116,+56
64310,13.222,-6.887,2.347,0.359398,-0.149745,3.036669,100180.46,-77,-121,+57
64320,19.332,11.671,0.218,0.707398,-0.314167,3.170228,100179.52,-73,-127,+58
64330,28.777,35.400,-10.880,0.806370,-0.714846,1.610082,100181.66,-73,-127,+58
64339,21.020,3.548,-6.300,0.755820,-0.284369,1.470137,100181.66,-73,-127,+58
64350,14.327,-19.368,3.175,3.772350,-0.074718,3.782686,100183.76,-66,-127,+63
64360,8.868,-15.730,1.822,4.545506,-0.060351,3.927952,100180.87,-59,-125,+69
64370,7.342,-11.939,-0.353,2.167507,0.082787,2.884485,100180.82,-59,-125,+69
64379,9.603,-8.887,0.752,0.558939,0.464309,2.502430,100181.09,-55,-125,+73
64390,8.763,-5.665,6.805,0.367912,0.618089,2.379513,100181.09,-48,-130,+73
64400,9.342,-6.334,6.648,0.168371,0.689392,2.109201,100179.15,-42,-134,+75
64410,11.492,-5.200,1.890,-0.601592,0.564346,2.117715,100179.99,-42,-134,+75
64420,10.441,-3.390,2.655,-1.273115,0.478144,1.900614,100178.99,-38,-140,+74
64430,9.029,-1.541,2.892,-1.409867,0.402053,1.804834,100178.48,-33,-147,+72
64440,9.050,-0.269,1.930,-1.032069,0.356291,1.821330,100178.48,-29,-153,+71
64450,9.360,-1.325,2.223,-0.701629,0.308933,1.707990,100179.41,-29,-153,+71
64460,9.602,-2.116,1.728,-0.435042,0.207833,1.618064,100182.51,-23,-157,+71
64470,9.895,-1.708,1.959,-0.145574,0.135466,1.538779,100181.46,-20,-160,+70
64480,9.886,-1.563,2.101,0.151343,0.047135,1.473330,100180.73,-16,-162,+70
64490,9.573,-1.565,2.099,0.371637,0.009888,1.403091,100180.73,-16,-162,+70
64500,9.375,-2.567,2.507,0.469545,0.006163,1.369568,100180.01,-14,-162,+71
64510,9.468,-3.814,2.592,0.368976,-0.011397,1.319550,100179.18,-10,-163,+73
64520,9.590,-4.110,2.357,0.079508,-0.013525,1.181202,100181.59,-7,-165,+73
64530,9.254,-2.941,2.309,-0.186014,0.005631,1.012523,100181.21,-7,-165,+73
64540,8.935,-1.047,2.891,-0.252528,0.035429,0.904505,100181.21,-5,-166,+72
64550,8.753,-0.752,2.853,-0.116308,0.038622,0.869385,100181.30,-3,-168,+72
64560,9.267,-1.506,2.541,0.150811,0.017869,0.885349,100179.52,+0,-170,+73
64570,10.022,-2.872,1.924,0.355673,-0.007672,0.905569,100181.15,+0,-170,+73
64580,10.220,-4.055,1.504,0.337582,-0.018314,0.918339,100177.90,+1,-170,+73
64590,9.953,-5.394,1.193,0.058224,-0.014057,0.885881,100177.90,+2,-170,+74
64601,9.966,-4.635,0.823,-0.426528,0.042346,0.819367,100183.80,+5,-172,+73
64610,9.764,-3.214,1.102,-0.696840,0.107796,0.762963,100179.61,+5,-172,+73
64620,9.557,-2.260,1.299,-0.661720,0.113649,0.756578,100182.28,+7,-175,+71
64630,9.649,-1.824,1.448,-0.448344,0.093961,0.760835,100179.70,+9,-177,+70
64640,9.645,-2.219,1.887,-0.236565,0.070548,0.778395,100179.70,+11,-178,+70
64650,9.427,-2.806,2.259,-0.149299,0.063099,0.796486,100185.02,+14,-178,+70
64660,9.327,-2.825,2.399,-0.171647,0.067888,0.808193,100182.56,+14,-179,+70
64670,9.238,-2.784,2.047,-0.194528,0.075869,0.832138,100180.83,+16,-181,+69
64680,9.334,-3.361,1.758,-0.160473,0.096089,0.847569,100181.45,+18,-184,+69
64690,9.178,-3.706,1.645,-0.191335,0.114713,0.853954,100181.45,+21,-184,+68
64700,9.099,-3.539,1.601,-0.288179,0.136530,0.867789,100180.71,+21,-184,+68
64710,9.218,-2.938,1.650,-0.320106,0.140255,0.886413,100180.91,+24,-186,+68
64720,9.048,-2.637,1.738,-0.277537,0.151961,0.928449,100180.45,+28,-188,+68
64730,9.097,-2.740,1.712,-0.221134,0.167392,0.980596,100179.98,+29,-189,+68
64740,9.218,-2.550,1.687,-0.163134,0.173778,1.051899,100179.98,+29,-189,+68
64750,9.511,-2.351,1.716,-0.068950,0.169521,1.140229,100182.41,+33,-190,+67
64760,10.019,-2.371,1.955,0.027362,0.171649,1.243459,100181.05,+36,-190,+67
64771,10.168,-2.395,2.363,0.103986,0.168989,1.355201,100178.23,+41,-191,+68
64780,9.943,-2.585,2.700,0.151343,0.166860,1.471734,100181.37,+41,-191,+68
64790,10.158,-3.142,2.564,0.158793,0.173778,1.584009,100181.37,+46,-192,+69
64800,11.163,-4.051,2.256,0.113031,0.192401,1.664357,100183.38,+51,-193,+68
64811,11.681,-4.226,1.481,-0.037556,0.189741,1.765990,100185.16,+57,-194,+68
64820,12.015,-3.257,0.513,-0.110987,0.165264,1.897954,100182.96,+57,-194,+68
64830,12.256,-2.034,0.617,-0.043409,0.141851,2.070889,100181.24,+62,-196,+69
64840,12.639,-1.861,0.774,0.160921,0.095557,2.282669,100181.24,+68,-194,+69
64850,13.465,-2.837,1.360,0.378022,0.065759,2.478485,100181.74,+75,-196,+70
64860,13.933,-3.416,2.264,0.425912,0.022658,2.647696,100184.52,+75,-196,+70
64870,14.278,-3.475,3.137,0.321086,0.021594,2.802540,100180.16,+83,-195,+71
64880,15.137,-3.657,3.483,0.123142,0.059906,2.946210,100179.80,+92,-195,+71
64890,16.573,-3.291,3.317,-0.162069,0.148236,3.085090,100179.80,+101,-195,+70
64901,18.613,-2.465,2.769,-0.441427,0.206236,3.228760,100182.91,+101,-195,+70
64910,21.192,-1.495,3.353,-0.655867,0.251998,3.344228,100183.91,+110,-196,+69
64920,24.134,0.037,3.994,-0.993225,0.397796,3.429898,100178.41,+121,-196,+66
64930,26.990,1.656,4.426,-1.585463,0.646291,3.478320,100180.39,+132,-200,+61
64941,28.868,4.222,3.469,-2.417682,0.884144,3.503329,100180.39,+132,-200,+61
64950,28.258,7.171,2.718,-3.282361,1.093795,3.385732,100182.84,+146,-203,+54
64960,25.061,5.772,1.219,-3.783076,1.081025,3.225035,100179.02,+157,-209,+43
64970,20.029,-1.550,1.456,-3.532984,0.829869,3.337311,100180.54,+170,-214,+33
64980,16.675,-7.932,3.946,-2.773132,0.431851,3.742778,100177.34,+170,-214,+33
64990,14.885,-6.795,4.419,-2.154288,0.137062,3.681053,100177.34,+182,-214,+26
65000,14.064,-6.157,5.178,-1.635481,0.210493,3.488962,100180.17,+192,-213,+20
65010,11.782,-9.752,4.904,-1.321537,0.394603,3.587402,100180.59,+204,-210,+16
65020,7.591,-11.275,7.400,-0.786766,0.389282,3.380944,100175.77,+204,-210,+16
65031,5.652,-5.672,7.236,-0.408436,0.463245,2.551384,100177.70,+214,-207,+14
65040,6.850,0.990,1.008,-0.811775,0.458988,1.367972,100177.70,+220,-204,+11
65050,5.808,2.348,2.087,-0.929904,0.587227,0.578853,100180.90,+224,-204,+8
65060,5.510,4.482,2.491,-0.772399,0.791557,0.167533,100178.23,+224,-204,+8
65071,5.270,5.788,-0.246,-0.808583,0.498364,-0.463017,100177.23,+224,-206,+5
65080,3.530,5.177,-0.428,-0.386088,0.410566,-1.105274,100178.01,+222,-208,+3
65090,2.917,3.850,-0.190,0.016187,0.494640,-1.406448,100178.01,+218,-210,+3
65100,2.302,1.775,-0.434,0.433361,0.416420,-1.684209,100182.23,+218,-210,+3
65111,1.259,-0.689,-0.111,0.978242,0.332346,-2.082760,100178.83,+213,-212,+4
65120,0.710,-2.514,0.241,1.443838,0.229117,-2.559530,100178.25,+206,-213,+7
65130,0.939,-2.989,0.209,1.622095,0.114713,-3.120373,100178.05,+195,-216,+12
65140,1.868,-2.260,-0.063,1.507691,0.045539,-3.672171,100178.05,+185,-217,+16
65150,2.819,-1.187,-0.197,1.398609,0.012016,-4.109034,100178.32,+185,-217,+16
65161,3.042,-0.291,0.388,1.424682,0.014145,-4.471400,100179.73,+171,-220,+19
65170,3.226,-0.001,1.142,1.490664,0.018401,-4.782685,100176.63,+155,-220,+24
65180,4.001,-0.038,1.568,1.552388,-0.005543,-5.068960,100175.85,+138,-221,+28
65190,5.169,-0.480,1.827,1.649232,-0.034810,-5.300427,100175.85,+138,-221,+28
65201,6.251,-1.544,2.040,1.679030,-0.041727,-5.471767,100176.39,+122,-220,+34
65210,7.068,-2.743,1.923,1.635397,-0.042791,-5.633528,100178.02,+104,-218,+38
65220,7.826,-3.561,1.458,1.493856,-0.037470,-5.843179,100175.66,+86,-216,+43
65230,9.042,-3.795,0.570,1.291654,-0.023103,-6.053895,100171.67,+86,-216,+43
65241,10.276,-3.950,0.371,1.150645,0.003502,-6.220445,100171.67,+68,-210,+46
65251,11.212,-4.640,0.774,1.029856,-0.009268,-6.346023,100178.81,+49,-205,+49
65260,12.108,-5.772,1.098,0.900022,-0.058754,-6.468940,100174.67,+31,-198,+51
65270,12.937,-6.829,1.310,0.728682,-0.078975,-6.572702,100177.14,+31,-198,+51
65281,13.643,-7.185,1.442,0.491894,-0.062479,-6.644536,100177.03,+12,-190,+52
65291,14.941,-7.047,1.748,0.330664,0.000842,-6.648794,100177.03,-4,-180,+53
65300,16.915,-7.495,1.829,0.259894,0.058310,-6.596115,100180.66,-19,-170,+54
65311,18.255,-8.823,1.978,0.221050,0.051570,-6.501222,100176.67,-19,-170,+54
65320,19.033,-9.922,1.837,0.246059,-0.035342,-6.369968,100177.98,-33,-160,+54
65331,20.455,-11.304,1.442,0.288628,-0.196571,-6.126262,100175.56,-47,-148,+54
65340,21.529,-12.699,1.383,0.335453,-0.388130,-5.771345,100175.56,-59,-136,+53
65350,20.651,-13.579,2.019,0.511050,-0.570644,-5.305748,100180.06,-59,-136,+53
65360,17.886,-15.220,4.475,0.983563,-0.624387,-4.748097,100177.91,-69,-123,+54
65371,12.862,-18.170,6.271,1.510884,-0.568516,-4.072318,100177.81,-77,-111,+54
65381,8.538,-22.264,6.249,1.473636,-0.245525,-3.254465,100177.08,-82,-99,+55
65390,7.747,-24.515,5.092,0.604701,0.190273,-2.303585,100177.08,-82,-99,+55
65400,8.435,-22.164,2.922,-0.520179,0.460585,-1.263311,100182.27,-83,-95,+56
65411,9.864,-17.812,2.162,-1.134234,0.438236,-0.147476,100178.98,-82,-97,+56
65421,10.155,-14.745,2.485,-1.093794,0.155686,0.947605,100180.02,-81,-103,+55
65430,10.533,-13.903,3.125,-0.746326,-0.026296,1.901146,100178.13,-81,-103,+55
65440,10.861,-13.297,2.489,-0.320106,-0.089085,2.653549,100178.13,-77,-109,+54
65451,11.672,-12.268,1.559,0.166242,-0.055562,3.295806,100182.97,-71,-115,+55
65461,12.776,-10.873,1.463,0.695692,-0.011397,3.797585,100180.23,-66,-123,+56
65470,16.982,-0.478,1.853,0.991013,-0.032681,3.889108,100176.58,-66,-123,+56
65480,16.017,9.735,1.327,0.683453,-0.148681,3.044118,100177.98,-59,-127,+58
65490,27.494,48.362,0.653,0.358334,-0.282773,1.969256,100177.98,-54,-131,+59
65501,22.406,33.392,-6.555,-1.121995,-0.195507,-0.588063,100181.02,-56,-134,+56
65511,14.370,-12.404,1.597,0.127398,0.260511,1.577091,100182.96,-56,-134,+56
65520,9.509,-20.587,10.215,4.439084,-0.240204,4.037567,100178.20,-49,-135,+61
65530,5.623,-10.994,4.234,3.634534,-0.614809,2.790834,100180.45,-45,-131,+66
65541,12.565,-7.457,0.470,1.437453,0.120034,2.186357,100180.45,-40,-131,+69
65546,16.259,-6.292,-1.612,0.859581,0.297759,2.526907,100180.28,-40,-131,+69
65555,11.176,-4.427,0.838,1.168737,0.124823,2.472100,100180.28,-35,-132,+71
65565,7.762,-4.029,2.094,1.411379,0.126952,2.149642,100180.86,-31,-133,+74
65575,9.887,-3.747,1.276,1.017086,0.304677,2.090577,100179.77,-31,-133,+74
65586,9.144,-4.197,2.860,0.577563,0.348842,2.066100,100179.97,-25,-134,+76
65596,9.215,-4.694,2.147,0.180609,0.425998,2.048541,100182.44,-20,-137,+77
65606,10.258,-3.747,2.326,-0.237097,0.477080,2.032045,100179.34,-14,-140,+76
65615,8.921,-4.845,3.078,-0.491445,0.433447,1.838357,100180.34,-14,-140,+76
65626,8.458,-5.611,2.015,-0.733555,0.363209,1.569642,100180.34,-10,-143,+76
65636,9.604,-3.916,1.635,-0.784638,0.386621,1.333385,100178.23,-6,-149,+76
65645,10.262,-2.260,1.375,-0.770271,0.371722,1.224303,100178.23,-2,-153,+75
65655,10.100,-2.115,1.456,-0.630326,0.350970,1.177477,100181.62,-2,-153,+75
65666,9.943,-2.298,1.255,-0.500491,0.345649,1.137036,100183.40,+0,-155,+74
65676,9.773,-3.093,1.606,-0.521243,0.367998,1.079037,100180.99,+3,-158,+74
65686,9.897,-3.291,2.325,-0.684601,0.382897,0.986449,100178.21,+7,-160,+73
65695,9.906,-2.813,2.608,-0.926179,0.370658,0.915679,100178.21,+7,-160,+73
65705,9.832,-1.903,2.970,-1.009188,0.341924,0.874706,100182.27,+9,-165,+71
65716,9.888,-1.952,2.982,-0.900106,0.295099,0.868321,100179.27,+12,-168,+69
65726,10.123,-2.228,2.532,-0.736216,0.245080,0.871514,100181.05,+15,-171,+68
65735,9.837,-2.517,2.321,-0.547317,0.195062,0.873110,100181.05,+15,-171,+68
65745,9.509,-3.105,2.221,-0.443555,0.122163,0.852890,100181.05,+18,-173,+68
65756,9.185,-3.403,2.207,-0.452069,0.063631,0.812450,100182.38,+20,-175,+66
65766,9.196,-3.055,2.373,-0.508473,0.064695,0.754982,100180.64,+22,-177,+65
65775,9.373,-2.716,2.378,-0.568601,0.062567,0.715073,100179.55,+22,-177,+65
65785,9.338,-2.438,2.187,-0.572326,0.049796,0.686872,100179.02,+24,-178,+64
65796,9.389,-2.338,2.189,-0.505280,0.075869,0.695385,100179.02,+27,-182,+63
65806,9.387,-2.459,2.209,-0.375977,0.107796,0.714009,100181.59,+28,-183,+62
65816,9.203,-2.875,2.124,-0.252528,0.141851,0.731037,100179.34,+31,-184,+62
65825,9.038,-3.251,2.057,-0.173776,0.158346,0.741147,100178.77,+31,-184,+62
65836,8.925,-3.418,2.089,-0.148767,0.170585,0.745404,100178.77,+33,-185,+62
65846,8.935,-3.341,2.205,-0.197189,0.190805,0.735294,100180.59,+36,-186,+61
65856,9.036,-2.844,2.338,-0.258913,0.217943,0.723587,100180.22,+38,-188,+60
65865,8.976,-2.183,2.379,-0.273812,0.227521,0.745936,100180.22,+38,-188,+60
65875,8.678,-2.064,2.260,-0.222198,0.214218,0.828945,100180.80,+40,-189,+61
65886,8.780,-2.719,1.962,-0.141317,0.187612,0.951330,100178.55,+44,-189,+60
65896,9.581,-3.828,1.536,-0.161005,0.132273,1.074248,100178.55,+47,-191,+59
65905,10.399,-3.490,1.467,-0.281262,0.146640,1.155128,100182.37,+47,-191,+59
65915,10.460,-2.810,1.634,-0.382363,0.199319,1.231752,100181.10,+50,-192,+59
65926,10.579,-1.901,1.867,-0.342987,0.199319,1.336046,100181.41,+55,-194,+58
65936,10.533,-2.205,2.155,-0.185482,0.134934,1.443532,100176.85,+60,-194,+58
65946,10.390,-2.612,2.309,-0.069482,0.088640,1.564321,100181.22,+60,-194,+58
65955,10.699,-2.544,2.354,0.008206,0.041814,1.702137,100179.48,+64,-196,+58
65966,11.173,-2.509,2.380,0.114096,-0.000222,1.835697,100182.22,+69,-196,+58
65976,11.754,-2.781,2.277,0.188591,-0.028956,1.985219,100182.22,+75,-196,+59
65986,12.176,-2.989,2.271,0.212536,-0.033213,2.163476,100177.66,+75,-196,+59
65995,12.820,-3.252,2.246,0.169435,-0.025232,2.337476,100177.66,+81,-196,+59
66006,13.574,-3.366,2.412,0.098132,-0.009268,2.504027,100179.75,+88,-196,+59
66016,14.012,-3.342,2.611,0.022573,-0.021507,2.658338,100182.22,+95,-197,+58
66026,14.188,-3.427,2.461,-0.075335,-0.006076,2.805201,100179.70,+95,-197,+58
66036,14.805,-3.752,2.178,-0.229647,0.050328,2.906301,100178.97,+104,-197,+58
66045,16.345,-3.500,1.516,-0.454730,0.099814,2.971219,100178.97,+112,-197,+58
66056,19.010,-2.673,2.135,-0.607977,0.093961,3.047311,100181.23,+122,-198,+56
66066,21.834,-2.191,3.258,-0.688326,0.109392,3.170760,100181.46,+122,-198,+56
66076,24.484,-1.217,3.675,-1.057610,0.317979,3.291549,100175.84,+132,-198,+53
66085,26.318,1.057,2.973,-1.831830,0.564346,3.316558,100175.84,+143,-200,+48
66096,26.449,4.624,1.923,-2.592747,0.716529,3.298466,100175.84,+154,-204,+41
66106,24.973,7.155,1.079,-3.119535,0.812841,3.187788,100179.63,+154,-204,+41
66116,22.078,5.230,0.760,-3.210526,0.785704,3.043054,100180.52,+165,-207,+31
66125,18.226,-1.120,2.354,-2.810380,0.596805,3.094136,100180.57,+176,-211,+23
66136,16.003,-6.962,4.155,-2.093096,0.255722,3.393714,100179.37,+187,-211,+15
66146,15.602,-4.877,4.402,-1.698270,0.008291,3.453842,100179.37,+187,-211,+15
66156,15.030,-0.875,4.049,-1.527995,-0.015121,3.085090,100181.52,+197,-208,+11
66166,12.202,-1.172,4.953,-1.060803,0.139722,2.981861,100181.25,+207,-206,+6
66176,9.673,-4.367,4.627,-0.314785,0.268493,2.896724,100178.94,+217,-204,+4
66186,7.041,-6.102,6.315,0.198701,0.237099,2.490192,100176.72,+217,-204,+4
66196,6.283,-3.317,5.604,0.282774,0.151961,1.682981,100181.28,+224,-198,+4
66206,6.006,0.271,0.584,-0.118436,-0.107709,0.559165,100178.45,+226,-196,+4
66215,4.763,1.417,1.887,-0.223262,-0.009268,-0.204944,100178.45,+226,-198,+2
66226,4.402,3.158,2.143,-0.247207,0.038090,-0.787605,100177.41,+226,-198,+2
66236,2.907,3.938,1.030,-0.319574,-0.147617,-1.430925,100180.75,+223,-201,+0
66246,1.356,3.924,1.155,-0.340326,-0.025232,-1.968888,100180.75,+218,-203,+0
66255,1.793,3.619,1.234,-0.199849,0.067888,-2.254631,100178.83,+212,-208,-1
66266,2.157,2.102,1.167,0.069931,-0.022571,-2.540374,100177.36,+212,-208,-1
66276,2.490,0.596,0.969,0.421655,-0.144424,-2.968722,100177.36,+204,-212,-1
66286,2.989,-0.026,0.610,0.776572,-0.284369,-3.447089,100177.45,+194,-216,+0
66296,3.687,-0.047,0.563,1.001123,-0.367910,-3.889272,100178.66,+181,-219,+2
66306,4.488,0.232,0.645,1.170334,-0.409415,-4.288887,100178.97,+167,-223,+5
66316,5.345,-0.075,1.037,1.317196,-0.425910,-4.595914,100177.61,+167,-223,+5
66326,5.966,-1.191,1.715,1.437985,-0.437084,-4.792795,100175.52,+151,-224,+9
66335,5.901,-1.921,2.083,1.467251,-0.481782,-5.014153,100175.52,+135,-226,+13
66345,5.870,-2.104,2.447,1.391159,-0.495617,-5.306813,100175.52,+116,-227,+15
66356,6.575,-2.185,2.897,1.234187,-0.461562,-5.596813,100175.97,+116,-227,+15
66366,7.836,-2.300,3.146,1.080939,-0.419525,-5.864464,100178.28,+97,-226,+19
66371,8.938,-2.576,3.121,1.001123,-0.374828,-6.046445,100174.72,+97,-226,+19
66380,9.989,-2.897,3.040,0.978242,-0.324809,-6.210867,100173.52,+77,-224,+19
66391,11.098,-3.384,3.076,1.010168,-0.243397,-6.419454,100173.52,+57,-221,+21
66401,12.100,-3.806,3.096,1.059655,-0.172094,-6.606757,100174.10,+34,-215,+23
66411,13.242,-4.045,3.001,1.080407,-0.091213,-6.765858,100174.20,+34,-215,+23
66421,15.366,-4.487,3.175,1.095306,0.035961,-6.865362,100174.57,+14,-208,+24
66430,18.389,-6.528,3.909,1.155967,0.172181,-6.858445,100172.48,-5,-198,+26
66441,20.122,-9.998,4.700,1.059655,0.187080,-6.830775,100172.48,-24,-186,+26
66451,20.951,-12.719,4.146,0.628646,0.155154,-6.843014,100177.98,-24,-186,+26
66461,22.103,-14.344,3.595,0.090683,0.215282,-6.706793,100179.12,-42,-175,+27
66470,21.346,-15.117,3.469,-0.241886,0.248273,-6.342299,100176.98,-58,-162,+26
66481,19.575,-16.332,4.760,-0.293500,0.267961,-5.760170,100174.82,-70,-151,+24
66491,17.586,-17.072,5.634,-0.268491,0.317447,-5.105143,100174.82,-70,-151,+24
66501,15.455,-20.704,6.347,-0.251996,0.451007,-4.405419,100180.94,-80,-140,+24
66510,11.090,-24.697,6.042,-0.336069,0.471227,-3.738685,100178.53,-87,-131,+24
66521,7.077,-25.352,5.538,-0.594142,0.563282,-2.914979,100178.94,-91,-125,+24
66531,7.284,-22.582,3.661,-0.908087,0.700034,-1.696980,100177.80,-93,-125,+24
66541,8.753,-17.693,1.481,-0.970876,0.715997,-0.210797,100177.80,-93,-123,+24
66551,10.068,-15.304,0.418,-0.366932,0.547851,1.152468,100178.84,-91,-126,+23
66561,10.241,-16.911,1.402,0.374829,0.363209,2.258724,100178.89,-86,-131,+24
66571,10.849,-16.989,0.631,0.875545,0.161539,3.005806,100178.42,-80,-136,+26
66581,12.940,-12.190,1.603,1.153306,0.072145,3.533127,100176.80,-80,-136,+26
66591,17.545,2.108,-4.223,1.210242,-0.297140,3.400100,100176.80,-75,-143,+28
66600,21.745,27.371,-4.318,0.937802,-0.350351,2.640779,100180.52,-69,-147,+29
66607,31.034,50.977,-11.426,1.046884,-0.816479,1.367972,100184.13,-69,-147,+29
66616,23.299,23.838,-9.281,0.779765,-0.512112,0.305349,100184.13,-70,-147,+30
66626,13.318,-18.244,0.671,2.923635,-0.462094,2.665256,100181.77,-64,-147,+36
66636,9.359,-20.311,6.959,5.952404,-0.109837,4.135475,100177.54,-64,-147,+36
66646,7.520,-11.985,3.887,4.212405,-0.198699,3.150540,100177.54,-58,-141,+44
66656,9.534,-9.305,5.254,1.970626,0.435043,2.339072,100180.20,-52,-141,+50
66666,10.424,-6.451,5.367,1.676902,0.715465,2.571072,100179.79,-46,-143,+54
66676,9.953,-5.230,3.446,1.465654,0.436108,2.297036,100174.98,-46,-143,+54
66685,9.743,-6.574,0.610,0.773380,0.386621,2.082063,100174.98,-40,-143,+56
66696,11.313,-7.280,1.412,-0.142381,0.488786,2.048541,100174.98,-34,-147,+58
66706,10.320,-7.099,2.045,-0.789959,0.419080,1.980430,100182.61,-29,-153,+57
66716,9.745,-4.819,1.189,-1.306105,0.395667,1.829843,100180.45,-29,-153,+57
66726,9.761,-3.241,1.619,-1.576949,0.465374,1.677660,100180.09,-25,-159,+56
66736,9.245,-3.363,1.292,-1.426894,0.396731,1.503660,100176.73,-20,-165,+53
66746,9.189,-1.737,0.788,-0.982050,0.363209,1.317422,100176.73,-16,-170,+51
66756,9.828,-0.129,1.452,-0.499959,0.418016,1.230688,100177.84,-11,-1,+51
66766,10.229,-0.115,2.023,0.041729,0.371190,1.222706,100179.39,-11,-172,+51
66777,9.839,-1.223,2.476,0.490829,0.275943,1.230156,100180.47,-9,-173,+53
66786,9.383,-3.249,2.948,0.580756,0.226456,1.215257,100180.47,-5,-173,+53
66796,9.239,-5.443,3.420,0.257765,0.212622,1.121605,100181.06,-1,-174,+54
66806,9.390,-5.289,3.043,-0.357886,0.202511,0.914083,100181.06,-1,-174,+54
66816,9.511,-3.522,2.910,-0.892656,0.205172,0.735826,100179.08,+0,-178,+53
66826,9.554,-2.127,2.485,-1.058674,0.193466,0.629404,100180.23,+1,-180,+51
66836,9.700,-1.258,1.603,-0.929372,0.178034,0.588963,100179.55,+3,-184,+49
66846,9.815,-0.839,0.912,-0.608509,0.174842,0.620358,100179.55,+3,-184,+49
66856,9.954,-1.134,0.813,-0.201445,0.164200,0.667716,100180.79,+5,-185,+49
66866,9.689,-2.391,1.536,0.068334,0.157814,0.707092,100181.59,+8,-186,+49
66876,9.421,-3.705,2.551,0.001288,0.174310,0.711881,100177.71,+9,-187,+49
66886,9.339,-3.747,3.011,-0.346711,0.205172,0.671973,100175.31,+9,-187,+49
66896,9.311,-2.940,2.952,-0.688326,0.235502,0.629404,100179.52,+12,-188,+47
66907,9.358,-2.241,2.566,-0.825078,0.257851,0.603863,100180.41,+14,-190,+46
66916,9.531,-2.168,2.223,-0.792087,0.260511,0.596413,100178.52,+16,-194,+44
66926,9.660,-2.142,2.017,-0.685665,0.258915,0.603863,100178.52,+16,-194,+44
66936,9.687,-2.193,2.038,-0.571262,0.253594,0.632596,100175.69,+19,-194,+44
66946,9.701,-2.534,2.343,-0.463776,0.245080,0.668780,100175.69,+21,-196,+42
66956,9.584,-3.051,2.581,-0.442491,0.244548,0.694321,100180.98,+24,-198,+41
66966,9.379,-3.346,2.515,-0.551042,0.262640,0.710284,100179.77,+24,-198,+41
66976,9.244,-3.012,2.321,-0.710142,0.287117,0.735826,100180.35,+26,-200,+41
66987,9.111,-2.157,2.124,-0.794748,0.303080,0.789037,100181.35,+29,-202,+39
66996,9.104,-1.354,1.906,-0.742069,0.303612,0.876835,100181.35,+33,-205,+37
67006,9.396,-0.758,2.054,-0.545188,0.239759,0.996027,100179.52,+33,-205,+37
67016,9.601,-1.348,2.299,-0.262638,0.134934,1.112559,100180.41,+36,-206,+36
67026,9.761,-2.467,2.483,-0.057244,0.126420,1.211000,100179.20,+40,-208,+36
67036,10.350,-3.482,2.634,-0.025849,0.140787,1.288156,100179.20,+44,-210,+36
67046,10.240,-3.851,2.608,-0.089170,0.133869,1.339238,100179.20,+44,-210,+36
67056,9.779,-3.077,2.586,-0.232840,0.142383,1.414798,100181.95,+48,-210,+36
67066,10.130,-2.103,2.377,-0.276473,0.112585,1.553678,100182.26,+54,-212,+36
67076,10.687,-1.780,2.113,-0.145042,0.058310,1.715440,100179.01,+58,-213,+34
67086,11.225,-2.018,1.622,0.025765,0.009356,1.895293,100178.18,+58,-213,+34
67096,11.698,-2.286,1.221,0.180077,-0.029488,2.077275,100178.18,+64,-214,+35
67106,12.252,-2.771,1.256,0.285435,-0.039599,2.232119,100182.12,+70,-214,+36
67117,12.675,-3.291,1.469,0.300334,-0.031085,2.386962,100178.09,+77,-214,+36
67126,12.902,-3.205,2.175,0.234885,-0.008736,2.542338,100179.66,+77,-214,+36
67136,13.003,-2.995,3.264,0.148683,0.003502,2.737623,100179.66,+86,-214,+36
67146,13.548,-3.432,3.706,0.046518,0.016805,2.921733,100181.72,+95,-214,+38
67156,15.048,-4.140,3.540,-0.125886,0.055649,3.061678,100181.72,+104,-213,+37
67166,17.686,-4.293,3.740,-0.344583,0.048732,3.170228,100181.34,+104,-213,+37
67176,20.068,-4.211,3.920,-0.625005,0.071080,3.261751,100181.45,+114,-214,+36
67186,22.591,-3.822,2.450,-1.163500,0.175374,3.269732,100180.03,+124,-215,+33
67196,25.683,-1.012,0.865,-2.026937,0.248805,3.257671,100182.02,+134,-217,+28
67206,26.031,3.719,0.843,-2.636912,0.290310,3.323476,100182.02,+134,-217,+28
67216,24.671,7.954,1.097,-2.956177,0.354695,3.392650,100181.48,+146,-220,+20
67226,22.860,8.259,0.970,-2.998214,0.331282,3.357531,100180.44,+157,-223,+11
67236,20.125,5.320,1.290,-2.840178,0.296695,3.135109,100178.50,+167,-226,+2
67247,16.619,-0.630,1.431,-2.419811,0.163135,3.007935,100179.84,+178,-226,-3
67256,13.730,-7.444,2.461,-1.642399,-0.061415,3.169164,100182.77,+178,-226,-3
67266,12.964,-8.146,3.711,-1.072509,-0.264681,3.302723,100178.38,+187,-224,-6
67276,13.245,-4.751,2.454,-1.172546,-0.172094,3.108503,100178.38,+196,-222,-9
67287,11.616,-5.679,5.580,-0.918197,-0.008204,3.082962,100179.52,+206,-219,-11
67296,9.826,-7.028,7.133,-0.095023,0.030108,3.002081,100179.52,+206,-219,-11
67306,6.855,-7.713,5.910,0.200830,-0.063543,2.513605,100179.42,+214,-214,-11
67316,4.571,-6.676,5.448,0.232756,0.110989,1.909128,100180.05,+220,-211,-11
67326,4.561,-3.104,2.400,0.051839,0.135998,1.167367,100182.41,+222,-210,-10
67337,4.180,-2.000,0.693,-0.295097,0.109392,0.457000,100179.16,+222,-210,-10
67346,3.332,-0.089,1.772,-0.489849,0.223796,-0.094798,100179.16,+223,-211,-13
67356,2.761,2.022,2.021,-0.683537,0.169521,-0.663091,100178.73,+220,-213,-14
67366,1.349,3.691,1.201,-0.707482,0.050328,-1.288320,100175.30,+216,-217,-16
67377,0.437,4.451,1.171,-0.700032,0.257319,-1.866723,100177.34,+216,-217,-16
67386,1.158,4.134,1.105,-0.554766,0.349374,-2.196631,100177.34,+210,-221,-19
67396,1.702,1.961,1.172,-0.273812,0.306273,-2.456300,100177.34,+202,-225,-20
67406,2.028,-0.201,1.179,-0.072143,0.257319,-2.790998,100180.09,+193,-230,-20
67417,2.253,-0.933,0.892,0.060885,0.164732,-3.243291,100178.30,+193,-230,-20
67426,2.546,-0.572,0.564,0.116756,0.111521,-3.728043,100177.52,+180,-234,-20
67436,3.089,0.164,0.321,0.223178,0.083319,-4.145749,100174.90,+166,-238,-19
67446,3.958,0.633,0.441,0.416334,0.079062,-4.477786,100174.90,+150,-242,-18
67457,4.809,0.196,0.970,0.657380,0.095557,-4.730006,100178.91,+150,-242,-18
67467,5.219,-0.692,1.600,0.888315,0.105667,-4.949767,100175.46,+133,-244,-16
67476,5.594,-1.176,1.926,1.025067,0.103007,-5.214226,100176.35,+115,-246,-13
67486,6.369,-1.274,2.165,1.066040,0.134934,-5.487730,100176.35,+95,-246,-9
67496,7.421,-1.374,2.476,1.075618,0.183888,-5.709620,100176.72,+95,-246,-9
67507,8.585,-1.622,2.608,1.133086,0.220603,-5.909693,100178.39,+75,-244,-6
67516,9.869,-2.029,2.652,1.177251,0.260511,-6.101785,100178.39,+55,-240,-2
67526,11.297,-2.650,2.527,1.203856,0.288181,-6.282170,100178.34,+33,-235,+1
67536,12.695,-3.189,2.627,1.260792,0.312126,-6.465748,100177.19,+33,-235,+1
67547,14.556,-3.536,2.738,1.277287,0.357887,-6.637619,100177.19,+12,-227,+4
67556,17.224,-4.017,2.999,1.294315,0.403649,-6.777564,100179.33,-7,-217,+8
67566,21.020,-5.790,3.935,1.451287,0.443557,-6.828115,100179.80,-27,-204,+13
67576,22.806,-8.096,4.641,1.438517,0.427594,-6.852059,100173.41,-27,-204,+13
67587,20.997,-11.747,5.208,0.911728,0.332878,-6.885582,100175.08,-46,-190,+16
67597,20.502,-13.380,4.306,0.332261,0.323300,-6.767986,100179.29,-64,-176,+17
67606,20.858,-14.193,3.794,-0.340326,0.502621,-6.405620,100178.76,-78,-162,+16
67616,20.168,-16.018,4.166,-0.658528,0.613300,-5.733033,100177.24,-78,-162,+16
67627,18.786,-17.138,4.379,-0.497831,0.662254,-5.041290,100177.24,-88,-151,+16
67637,17.236,-20.847,3.833,-0.371721,0.747924,-4.417657,100179.91,-97,-139,+16
67646,12.464,-26.343,4.877,-0.209427,0.683007,-3.883419,100179.91,-103,-130,+18
67656,6.245,-26.112,4.420,-0.365867,0.588291,-3.189548,100183.18,-103,-130,+18
67666,6.136,-22.235,3.712,-0.814968,0.750584,-1.901310,100180.66,-107,-123,+19
67677,8.981,-15.471,1.182,-0.948528,0.779318,-0.138431,100180.30,-108,-122,+19
67687,11.163,-14.238,-0.085,-0.214216,0.662786,1.447256,100180.51,-103,-127,+20
67696,11.470,-16.163,0.045,0.535527,0.358420,2.479550,100180.51,-98,-127,+22
67706,12.287,-14.311,2.471,1.052205,0.082255,3.068063,100179.46,-98,-133,+22
67717,15.032,-2.245,-2.844,0.952169,-0.273727,3.042522,100180.04,-93,-138,+24
67727,19.204,17.133,-4.129,0.495618,-0.350351,2.679091,100179.99,-88,-144,+24
67736,29.505,43.042,-13.254,0.325875,-0.748901,1.371165,100179.99,-88,-147,+23
67746,17.703,6.431,-6.063,0.710591,-0.479121,0.974211,100179.99,-88,-147,+23
67757,12.217,-20.071,3.514,4.755689,-0.428039,3.326668,100183.45,-83,-147,+28
67767,9.020,-16.211,0.817,5.337817,-0.495084,3.527274,100180.98,-77,-144,+38
67776,9.710,-11.416,-0.543,2.774112,-0.197103,2.465715,100180.83,-72,-144,+41
67787,11.589,-7.036,2.321,1.321453,0.343166,2.289232,100182.03,-72,-144,+41
67796,8.944,-4.786,6.624,1.128297,0.421209,2.290651,100182.03,-67,-146,+44
67807,9.972,-6.017,4.647,0.649930,0.498897,2.034174,100179.67,-61,-149,+46
67817,11.936,-5.800,1.363,-0.245078,0.443557,2.094834,100177.89,-56,-155,+47
67826,9.187,-3.063,2.365,-0.727702,0.330218,1.957550,100180.36,-56,-155,+47
67836,8.121,-2.073,3.553,-0.877225,0.353631,1.799513,100178.02,-51,-160,+46
67847,9.503,-2.923,2.970,-0.961830,0.351502,1.765458,100182.20,-47,-166,+43
67857,9.807,-3.147,2.368,-0.995353,0.288713,1.663293,100180.42,-42,-170,+43
67866,9.604,-2.716,1.499,-0.869775,0.208365,1.512174,100180.42,-42,-170,+43
67876,10.003,-1.452,1.176,-0.535078,0.201447,1.391385,100176.70,-38,-175,+42
67887,9.990,-0.571,1.451,-0.198253,0.231245,1.358926,100180.69,-34,-178,+42
67897,9.608,-0.814,2.039,0.064077,0.244548,1.380211,100180.69,-31,-181,+43
67906,9.689,-2.061,2.168,0.089086,0.207833,1.394578,100180.40,-31,-181,+43
67916,9.697,-2.936,2.450,-0.015739,0.185484,1.374357,100180.55,-27,-182,+43
67927,9.692,-3.201,3.276,-0.174840,0.167924,1.284963,100181.18,-23,-184,+43
67937,9.299,-3.329,3.453,-0.365867,0.117906,1.166303,100179.55,-19,-187,+43
67947,9.020,-3.015,3.155,-0.550509,0.083851,1.063605,100181.12,-19,-187,+43
67956,9.291,-2.273,2.495,-0.634051,0.060438,0.967294,100181.12,-16,-190,+41
67966,9.722,-1.742,1.783,-0.578711,0.052989,0.910890,100180.49,-13,-194,+39
67977,10.027,-1.651,1.458,-0.436638,0.054585,0.920468,100179.02,-11,-196,+38
67986,10.067,-2.078,1.443,-0.273812,0.060970,0.942284,100179.02,-11,-196,+38
67996,9.724,-2.781,1.802,-0.189207,0.074273,0.943349,100179.02,-9,-197,+38
68006,9.387,-3.336,2.288,-0.262638,0.092365,0.931642,100181.97,-6,-198,+38
68017,9.187,-3.381,2.575,-0.437702,0.115245,0.890138,100182.28,-3,-202,+36
68022,9.232,-3.033,2.532,-0.553702,0.124291,0.855018,100176.83,-3,-202,+36
68031,9.297,-2.758,2.491,-0.593610,0.129612,0.822028,100179.14,-1,-202,+36
68041,9.359,-2.686,2.428,-0.580308,0.135466,0.786908,100179.14,+0,-206,+34
68051,9.518,-2.850,2.406,-0.587757,0.145044,0.771477,100180.35,+0,-206,+34
68062,9.616,-2.986,2.335,-0.632454,0.163667,0.764560,100182.23,+4,-207,+33
68072,9.590,-3.015,2.142,-0.693647,0.181759,0.769881,100177.93,+7,-210,+31
68081,9.551,-2.788,2.065,-0.704289,0.191869,0.781587,100179.71,+9,-212,+29
68091,9.377,-2.681,2.003,-0.645757,0.180695,0.812450,100179.71,+9,-212,+29
68102,9.151,-2.771,2.059,-0.540399,0.162603,0.855550,100183.47,+11,-214,+29
68112,8.974,-3.077,2.199,-0.457922,0.150897,0.894927,100181.27,+15,-216,+28
68121,8.977,-3.365,2.288,-0.442491,0.147704,0.925257,100180.47,+18,-218,+26
68131,9.156,-3.217,2.201,-0.499427,0.122163,0.947605,100180.06,+18,-218,+26
68142,9.277,-2.538,2.042,-0.485237,0.093074,0.984498,100180.06,+22,-220,+25
68152,9.316,-2.291,1.973,-0.356289,0.057778,1.042321,100180.24,+24,-222,+24
68161,9.199,-2.474,1.808,-0.116308,0.029576,1.104578,100181.40,+28,-223,+24
68171,9.388,-3.079,2.137,0.090683,0.009356,1.167899,100176.21,+28,-223,+24
68182,9.200,-3.821,2.226,0.204554,-0.006608,1.221110,100179.15,+32,-223,+24
68192,8.926,-4.237,2.139,0.173692,-0.003415,1.256229,100179.15,+35,-224,+24
68202,9.008,-3.778,2.290,0.062481,0.019466,1.298798,100181.45,+40,-226,+25
68211,9.549,-3.000,2.457,0.007674,0.028512,1.384467,100180.19,+40,-226,+25
68221,10.389,-2.652,2.404,0.049710,0.026383,1.495678,100179.61,+44,-225,+25
68232,11.001,-2.850,2.162,0.159857,0.014677,1.637752,100178.98,+49,-227,+26
68242,11.490,-3.167,1.826,0.254573,0.004034,1.787275,100178.98,+55,-227,+26
68251,12.041,-3.590,1.600,0.289160,-0.001819,1.945311,100183.29,+55,-227,+26
68257,12.313,-3.776,1.579,0.290224,-0.003415,2.059715,100178.10,+62,-228,+27
68267,12.410,-3.798,1.771,0.250316,-0.002351,2.171990,100178.10,+68,-228,+28
68277,12.420,-3.950,2.203,0.190187,-0.001819,2.334284,100179.51,+68,-228,+28
68287,12.807,-4.257,2.730,0.093343,0.003502,2.497641,100178.26,+77,-228,+28
68296,14.248,-4.720,3.177,-0.064693,0.012016,2.642375,100178.26,+86,-228,+28
68306,17.109,-4.998,4.894,-0.256253,-0.037470,2.769549,100180.26,+93,-229,+27
68317,20.054,-4.383,5.611,-0.582436,-0.031617,2.892467,100177.98,+93,-229,+27
68327,21.860,-3.619,4.160,-1.211390,0.087044,2.994632,100180.18,+104,-230,+24
68336,22.594,-2.369,1.584,-1.857371,0.132273,3.087219,100180.18,+114,-234,+18
68346,22.876,-0.900,-0.608,-2.150563,0.088108,3.196301,100180.18,+125,-237,+13
68357,22.671,0.478,-1.175,-2.260710,0.072677,3.174485,100181.15,+125,-237,+13
68367,22.096,1.882,-1.078,-2.454930,0.038622,3.068063,100184.35,+136,-239,+5
68377,20.145,3.529,-0.197,-2.753798,-0.037470,2.862491,100179.26,+145,-241,-2
68386,16.938,3.241,0.984,-2.692783,-0.177947,2.715274,100179.26,+154,-243,-11
68397,12.975,-0.111,2.518,-2.042013,-0.378552,2.664192,100179.26,+154,-243,-11
68407,10.391,-4.523,3.143,-1.112417,-0.539782,2.780724,100179.78,+163,-242,-15
68417,9.624,-5.999,4.072,-0.289244,-0.621194,2.989311,100180.72,+172,-240,-15
68427,9.087,-7.432,4.906,0.362591,-0.615341,3.053164,100177.31,+182,-236,-13
68436,7.873,-9.753,4.962,0.919178,-0.615873,2.900448,100177.31,+182,-236,-13
68447,6.713,-9.179,4.639,0.984095,-0.632901,2.459329,100184.61,+191,-232,-9
68457,5.377,-5.917,3.425,0.707930,-0.661103,1.877201,100184.61,+196,-229,-7
68466,4.370,-1.542,3.097,0.569582,-0.589268,1.308908,100177.91,+199,-226,-4
68476,3.864,2.449,1.331,0.593527,-0.598314,0.749128,100180.63,+199,-226,-4
68487,3.081,2.731,-0.905,0.505728,-0.698883,0.228193,100177.84,+200,-225,-3
68497,1.546,0.439,1.025,0.668554,-0.571708,0.014817,100177.84,+198,-224,+0
68507,1.614,-0.449,1.452,0.770719,-0.469011,-0.192706,100182.62,+197,-223,+3
68516,1.559,-0.508,0.559,0.698352,-0.658442,-0.672669,100182.15,+197,-223,+3
68527,1.575,-0.219,1.153,0.704737,-0.685048,-1.176045,100176.27,+194,-224,+4
68537,2.273,-0.130,1.408,0.755288,-0.719103,-1.586833,100176.82,+187,-225,+9
68547,2.564,-0.620,1.351,0.809031,-0.766460,-1.965696,100180.87,+180,-226,+12
68557,2.623,-1.204,1.547,0.872352,-0.763268,-2.246649,100179.29,+180,-226,+12
68567,2.853,-1.827,1.888,0.943123,-0.765396,-2.489291,100177.35,+171,-227,+16
68577,3.219,-2.528,2.254,0.991545,-0.784020,-2.758007,100177.35,+160,-229,+19
68587,3.751,-2.960,2.457,0.983563,-0.803176,-3.038961,100175.41,+150,-230,+23
68596,4.682,-2.950,2.275,0.901086,-0.820736,-3.341199,100175.41,+150,-230,+23
68606,5.978,-2.844,1.795,0.726554,-0.837231,-3.642905,100180.13,+136,-231,+27
68613,7.056,-2.866,1.467,0.573306,-0.865433,-3.830740,100176.09,+121,-232,+29
68622,7.996,-2.907,0.952,0.491894,-0.923433,-3.970153,100176.25,+121,-232,+29
68632,8.805,-3.118,0.557,0.584481,-1.003249,-4.106373,100175.52,+107,-233,+30
68641,9.254,-3.488,0.376,0.913325,-1.098497,-4.205878,100175.52,+90,-232,+33
68652,9.595,-4.112,0.345,1.392223,-1.231524,-4.281437,100177.98,+75,-229,+38
68662,10.021,-4.650,0.769,1.951471,-1.378919,-4.317621,100176.56,+75,-229,+38
68672,10.693,-5.086,1.285,2.506993,-1.572075,-4.335712,100177.14,+57,-222,+43
68682,11.495,-5.723,1.849,2.985892,-1.782790,-4.337309,100177.52,+40,-214,+51
68691,12.060,-6.827,2.731,3.369543,-1.978074,-4.310703,100177.52,+22,-202,+58
68702,12.427,-8.071,3.490,3.613250,-2.181340,-4.278244,100178.90,+22,-202,+58
68712,12.820,-8.914,4.188,3.692002,-2.354808,-4.254832,100176.59,+4,-190,+66
68722,13.124,-9.670,5.109,3.679763,-2.482514,-4.171290,100176.85,-13,-174,+71
68731,13.250,-10.296,5.834,3.584516,-2.614478,-4.026556,100178.79,-29,-159,+74
68742,13.143,-10.208,6.442,3.373800,-2.701211,-3.864795,100178.79,-29,-159,+74
68752,13.331,-9.617,7.052,3.160956,-2.699083,-3.664722,100175.27,-45,-143,+76
68762,13.438,-9.256,7.738,3.098699,-2.671946,-3.455070,100179.68,-58,-128,+77
68771,13.193,-9.244,8.380,3.280681,-2.619267,-3.248612,100177.16,-71,-112,+76
68782,12.679,-9.789,9.341,3.668589,-2.508588,-3.002245,100175.49,-71,-112,+76
68792,11.857,-11.346,10.106,4.111836,-2.323414,-2.717566,100175.49,-82,-95,+76
68802,10.532,-13.770,10.532,4.306056,-2.035542,-2.406282,100179.57,-90,-76,+76
68812,8.591,-16.035,9.998,4.086295,-1.634863,-2.049769,100176.95,-97,-59,+76
68822,6.739,-17.223,8.933,3.339213,-1.171928,-1.642705,100177.05,-97,-59,+76
68832,5.974,-16.805,8.204,2.392058,-0.725488,-1.161678,100177.37,-101,-47,+77
68842,6.038,-14.994,8.187,1.633801,-0.401965,-0.674797,100177.37,-103,-40,+76
68847,6.297,-13.647,7.838,1.206517,-0.186461,-0.333715,100180.61,-103,-40,+76
68856,6.552,-12.372,7.933,0.864902,0.014677,0.021734,100180.61,-103,-36,+76
68867,7.154,-10.045,8.010,0.527013,0.220071,0.398468,100179.67,-101,-35,+78
68877,7.776,-6.562,6.067,0.379086,0.215814,0.580982,100179.83,-101,-36,+78
68887,6.704,-5.809,5.961,0.553618,0.297759,0.814578,100178.47,-101,-36,+78
68897,8.065,-2.950,6.510,0.842554,0.396199,0.960376,100178.03,-99,-36,+78
68907,11.837,4.178,3.839,1.091581,0.513796,0.777330,100179.08,-97,-35,+81
68917,21.482,10.297,-3.475,0.417930,0.329154,0.144120,100178.66,-97,-35,+83
68927,28.520,-5.837,2.688,0.613747,0.929373,0.651752,100178.66,-97,-35,+83
68937,20.295,-11.855,0.599,0.773380,1.181593,1.783550,100177.72,-92,-35,+85
68946,9.017,-5.387,-2.024,0.859049,0.843172,1.657972,100177.72,-89,-37,+88
68957,1.438,-3.837,-4.071,1.097434,0.688328,1.232816,100181.09,-86,-38,+91
68967,6.314,-3.628,-1.113,1.267177,0.821710,0.997269,100180.23,-86,-38,+91
68977,10.481,-6.088,0.521,1.195343,0.788896,0.868853,100180.23,-82,-37,+93
68987,12.085,-7.537,1.583,0.514242,0.771869,0.742211,100177.38,-80,-36,+96
68997,10.532,-4.739,2.384,-0.208363,0.747392,0.495312,100177.38,-78,-37,+96
69007,8.564,-2.374,1.924,-0.463776,0.660658,0.320248,100178.91,-78,-37,+96
69017,8.903,-2.252,1.232,-0.452069,0.620750,0.265441,100178.75,-75,-39,+98
69027,9.620,-3.054,0.478,-0.466968,0.576052,0.164340,100179.47,-74,-41,+99
69037,10.276,-1.774,-0.183,-0.466968,0.518053,0.090909,100179.47,-72,-43,+100
69047,10.300,-0.469,0.041,-0.337133,0.410034,0.077074,100179.47,-72,-43,+100
69057,9.803,-0.776,0.313,-0.097684,0.344585,0.092505,100179.41,-71,-45,+101
69067,9.631,-1.083,0.483,-0.025849,0.344053,0.129221,100178.25,-69,-45,+101
69076,9.466,-1.422,0.906,0.023637,0.385557,0.123900,100181.14,-68,-45,+103
69087,9.703,-1.810,1.161,0.092279,0.410034,0.106872,100177.27,-68,-45,+103
69097,9.899,-1.572,0.877,0.107178,0.420676,0.106872,100177.27,-68,-45,+103
69107,10.020,-1.015,1.060,0.148151,0.427594,0.139863,100181.63,-65,-44,+104
69117,9.966,-0.479,1.523,0.265747,0.398860,0.193074,100178.23,-64,-44,+104
69127,9.838,-0.387,1.276,0.394517,0.350970,0.262248,100178.07,-62,-44,+106
69137,10.031,-1.217,1.224,0.565857,0.320640,0.337276,100178.07,-62,-44,+106
69147,9.943,-2.424,1.128,0.614811,0.278603,0.378248,100178.89,-62,-42,+106
69157,9.782,-2.514,0.809,0.517967,0.257319,0.372927,100179.05,-60,-41,+108
69167,9.853,-2.024,0.959,0.436554,0.255190,0.392083,100179.05,-59,-41,+108
69177,10.199,-1.444,1.086,0.434426,0.242420,0.432523,100178.27,-59,-41,+108
69187,10.345,-1.372,1.082,0.473270,0.229117,0.479349,100180.41,-58,-41,+109
69197,10.190,-1.533,1.297,0.504664,0.213154,0.529367,100180.41,-58,-40,+109
69202,9.970,-2.071,1.309,0.507325,0.192401,0.551716,100180.05,-58,-40,+109
69212,10.067,-2.398,1.080,0.467949,0.183888,0.570872,100179.63,-57,-40,+110
69222,9.950,-3.020,0.729,0.404095,0.171117,0.568743,100179.58,-55,-40,+111
69232,9.503,-3.129,0.589,0.340242,0.163667,0.527239,100176.69,-55,-40,+111
69242,9.309,-2.750,0.551,0.315233,0.158346,0.479349,100176.69,-54,-39,+112
69252,9.411,-2.619,0.702,0.346628,0.148768,0.447954,100182.22,-53,-39,+112
69262,9.704,-2.601,0.790,0.371105,0.145044,0.425606,100179.28,-53,-39,+113
69272,9.754,-2.798,0.972,0.366848,0.142383,0.418156,100181.02,-53,-39,+113
69282,9.632,-2.964,1.214,0.359398,0.133869,0.408046,100178.81,-52,-39,+113
69292,9.439,-3.311,1.020,0.341306,0.135998,0.391551,100178.81,-51,-39,+114
69302,9.480,-3.456,0.929,0.263618,0.155686,0.368670,100179.94,-50,-39,+114
69312,9.443,-3.061,1.127,0.194444,0.164200,0.336211,100180.09,-49,-39,+114
69322,9.540,-2.777,0.690,0.188591,0.174842,0.310138,100181.09,-49,-39,+114
69331,9.563,-3.250,0.626,0.267875,0.186016,0.282468,100178.58,-49,-39,+114
69342,9.338,-3.897,0.780,0.321618,0.206236,0.227129,100178.58,-48,-38,+116
69352,9.376,-4.026,1.049,0.341306,0.228585,0.149973,100180.80,-47,-37,+116
69362,9.438,-3.934,1.013,0.334389,0.243484,0.064835,100179.13,-47,-37,+116
69372,9.458,-4.014,1.002,0.302995,0.256787,-0.014449,100179.75,-47,-35,+116
69382,9.570,-3.711,1.110,0.251912,0.271686,-0.091073,100176.88,-46,-35,+117
69392,9.742,-3.437,0.891,0.231692,0.295631,-0.141091,100176.88,-44,-34,+118
69402,9.716,-3.098,0.740,0.251380,0.330218,-0.178339,100182.18,-44,-34,+118
69412,9.715,-2.271,1.293,0.328536,0.324365,-0.210797,100178.71,-43,-32,+118
69422,9.636,-1.809,1.421,0.504132,0.261576,-0.227293,100180.76,-43,-31,+119
69432,9.798,-2.169,1.363,0.626517,0.239227,-0.217183,100178.87,-42,-28,+119
69438,9.845,-2.562,1.840,0.677600,0.231777,-0.187917,100178.87,-42,-28,+119
69447,9.699,-2.671,1.947,0.592462,0.225924,-0.162908,100178.87,-41,-25,+121
69457,9.788,-2.501,2.130,0.388664,0.223796,-0.136834,100182.54,-41,-25,+121
69468,9.824,-2.095,2.467,0.233820,0.212089,-0.094798,100183.12,-40,-25,+121
69477,9.692,-1.662,2.675,0.119949,0.193998,-0.037862,100178.98,-40,-23,+121
69487,9.534,-1.348,2.530,0.079508,0.174842,0.027588,100177.82,-40,-23,+121
69497,9.394,-1.988,2.089,0.079508,0.167924,0.074945,100179.91,-40,-23,+121
69508,9.638,-2.964,1.713,-0.024785,0.161539,0.107936,100178.65,-39,-23,+122
69517,9.764,-2.686,1.870,-0.183354,0.157814,0.112725,100178.65,-38,-24,+122
69527,9.675,-2.021,2.112,-0.303078,0.130145,0.118046,100176.87,-38,-25,+122
69537,9.504,-1.745,2.180,-0.282326,0.074273,0.131349,100178.13,-37,-25,+122
69548,9.478,-1.909,1.890,-0.172712,0.034897,0.148909,100178.13,-37,-27,+122
69557,9.547,-2.327,1.883,-0.089702,0.018934,0.181367,100181.57,-38,-27,+122
69567,9.555,-2.510,1.996,-0.072675,0.006163,0.195734,100177.70,-38,-27,+122
69577,9.594,-2.620,1.858,-0.107794,0.027979,0.205312,100177.65,-37,-29,+122
69587,9.449,-3.791,1.377,-0.200913,0.060438,0.175514,100177.90,-37,-29,+122
69598,9.493,-4.375,1.246,-0.355225,0.093429,0.123900,100177.90,-36,-29,+122
69607,9.767,-3.728,1.534,-0.542528,0.119502,0.053661,100179.28,-36,-32,+122
69617,9.721,-2.521,1.589,-0.581904,0.112585,0.004707,100180.94,-35,-33,+122
69627,9.631,-1.994,1.309,-0.433977,0.104071,0.004707,100178.94,-35,-33,+122
69637,9.606,-2.392,1.143,-0.227519,0.089172,0.015349,100178.94,-35,-35,+122
69647,9.474,-2.793,1.418,-0.127482,0.083851,0.031845,100178.94,-34,-35,+123
69657,9.417,-2.843,1.697,-0.170583,0.095557,0.043551,100181.31,-35,-36,+123
69667,9.615,-2.778,2.128,-0.232840,0.103007,0.051533,100178.84,-35,-36,+123
69678,9.606,-2.404,2.265,-0.239757,0.085447,0.063771,100176.55,-34,-37,+122
69688,9.290,-2.417,2.353,-0.194528,0.059906,0.080799,100176.55,-34,-37,+122
69697,9.281,-2.520,2.044,-0.182289,0.040750,0.096762,100176.55,-34,-38,+123
69707,9.446,-2.260,1.376,-0.171115,0.033833,0.124964,100181.68,-34,-38,+123
69718,9.615,-2.175,1.020,-0.086510,0.029044,0.157955,100179.43,-34,-39,+123
69728,9.590,-2.588,0.963,0.023105,0.028512,0.187221,100179.63,-34,-40,+123
69737,9.534,-3.207,1.237,0.066206,0.038622,0.205844,100179.63,-34,-40,+123
69747,9.509,-3.460,1.843,0.007142,0.052989,0.203716,100179.79,-34,-40,+123
69757,9.667,-3.292,2.297,-0.123757,0.061502,0.185624,100179.79,-33,-40,+123
69768,9.646,-2.913,2.093,-0.198785,0.060438,0.169661,100179.38,-33,-39,+122
69777,9.306,-2.653,1.889,-0.196124,0.063631,0.174450,100178.70,-33,-42,+123
69787,9.139,-2.589,1.940,-0.147170,0.076401,0.192542,100178.43,-33,-42,+123
69797,9.673,-2.571,2.017,-0.108858,0.090768,0.217019,100178.43,-33,-43,+123
69808,9.688,-2.681,2.181,-0.112051,0.082787,0.241496,100181.08,-32,-44,+123
69818,9.596,-2.641,2.074,-0.116308,0.058310,0.266505,100178.09,-31,-45,+123
69827,9.636,-2.592,1.883,-0.098216,0.036493,0.293110,100181.23,-31,-45,+123
69837,9.691,-2.701,1.559,-0.071079,0.016805,0.318652,100178.23,-31,-45,+123
69848,9.734,-2.616,1.573,-0.042877,-0.002883,0.343661,100178.92,-31,-46,+123
69858,9.661,-2.529,1.776,0.011931,-0.031617,0.370266,100178.39,-30,-46,+123
69867,9.531,-2.455,2.031,0.067802,-0.060883,0.405918,100178.39,-30,-46,+123
69877,9.667,-2.520,2.136,0.110903,-0.092277,0.446358,100177.19,-31,-47,+123
69888,9.640,-2.605,2.058,0.175820,-0.119415,0.483606,100180.86,-30,-47,+123
69897,9.203,-3.261,1.709,0.247655,-0.138571,0.506486,100180.86,-30,-47,+123
69907,9.152,-3.822,1.631,0.279582,-0.150809,0.501697,100180.70,-30,-47,+123
69917,9.258,-4.232,1.889,0.202426,-0.148149,0.477220,100179.92,-30,-49,+123
69927,9.354,-3.991,1.723,0.086426,-0.142828,0.438909,100177.81,-30,-49,+122
69938,9.338,-3.239,1.864,0.061417,-0.149213,0.424542,100179.97,-31,-49,+123
69947,9.257,-3.193,2.039,0.123674,-0.166773,0.426138,100179.97,-31,-49,+123
69957,9.170,-3.598,1.946,0.158261,-0.182204,0.427734,100179.16,-31,-48,+123
69967,9.288,-3.857,1.888,0.114096,-0.183800,0.425606,100181.20,-31,-49,+123
69978,9.452,-3.858,1.944,0.048646,-0.177947,0.421349,100178.27,-32,-49,+121
69987,9.592,-3.448,2.040,0.008738,-0.173158,0.418156,100178.27,-32,-49,+121
69997,9.764,-3.881,1.693,0.012995,-0.174754,0.405386,100178.27,-31,-51,+122
70007,9.490,-4.058,1.325,0.038004,-0.180608,0.393679,100180.95,-32,-51,+121
70018,9.232,-3.768,1.339,0.033747,-0.178479,0.388358,100178.52,-32,-51,+121
70028,9.193,-3.095,1.459,0.036940,-0.184332,0.401306,100179.18,-33,-52,+121
70037,9.084,-2.571,1.535,0.091747,-0.207745,0.444762,100179.18,-33,-52,+121
70047,9.302,-2.654,1.547,0.167839,-0.233286,0.520853,100179.18,-33,-52,+121
70057,9.539,-2.935,1.742,0.218921,-0.248186,0.603330,100178.91,-33,-53,+120
70068,9.582,-3.497,1.946,0.209343,-0.258296,0.673037,100180.84,-33,-54,+121
70078,9.876,-4.084,1.928,0.125270,-0.267341,0.721991,100178.75,-33,-54,+121
70087,9.962,-4.021,1.960,0.000756,-0.271066,0.768817,100178.75,-34,-55,+120
70097,9.657,-3.743,2.159,-0.094491,-0.285965,0.817771,100179.88,-34,-57,+120
70108,9.478,-3.268,2.132,-0.165794,-0.302461,0.879495,100179.88,-34,-59,+119
70117,9.456,-3.033,1.841,-0.180161,-0.322149,0.964101,100179.73,-34,-59,+119
70127,9.619,-3.396,1.342,-0.116308,-0.350351,1.043385,100178.01,-34,-61,+119
70137,9.802,-4.386,0.957,-0.039684,-0.375892,1.100321,100179.95,-34,-63,+117
70148,10.313,-4.879,0.490,-0.021060,-0.407286,1.128523,100179.95,-34,-65,+118
70158,10.621,-4.833,0.528,-0.049794,-0.429103,1.153000,100180.71,-34,-65,+118
70167,10.757,-4.494,0.848,-0.079060,-0.438149,1.187055,100178.15,-35,-67,+116
70177,10.696,-4.009,1.109,-0.089702,-0.447195,1.239734,100180.66,-35,-70,+116
70188,10.635,-4.184,1.316,-0.070546,-0.461562,1.295073,100178.26,-36,-72,+114
70198,10.676,-4.681,1.273,-0.089170,-0.474332,1.341367,100178.62,-36,-72,+114
70208,10.581,-4.890,1.327,-0.166326,-0.482846,1.381275,100181.66,-36,-75,+114
70217,10.678,-5.234,1.333,-0.225922,-0.511048,1.404156,100179.09,-34,-79,+113
70227,10.999,-5.559,1.403,-0.298822,-0.555213,1.417458,100179.09,-36,-82,+112
70238,11.058,-5.388,1.548,-0.398326,-0.596185,1.428101,100176.52,-36,-82,+112
70247,11.351,-5.302,1.461,-0.519115,-0.639818,1.452578,100176.52,-36,-87,+111
70257,12.087,-5.133,1.353,-0.665445,-0.678662,1.492486,100179.46,-37,-91,+109
70267,12.968,-4.623,1.485,-0.798473,-0.725488,1.550486,100178.26,-36,-96,+107
70278,13.581,-3.916,1.535,-0.910216,-0.776038,1.634027,100178.93,-36,-96,+107
70288,14.338,-2.737,1.640,-1.045904,-0.882460,1.733532,100175.68,-36,-103,+103
70297,15.280,-1.147,2.286,-1.028876,-0.972387,1.860706,100175.68,-37,-109,+101
70307,16.111,-0.315,3.031,-0.843702,-1.019745,2.029385,100179.60,-36,-115,+98
70318,16.792,0.210,3.569,-0.602656,-1.039433,2.177311,100178.87,-36,-115,+98
70328,17.067,0.108,3.934,-0.468565,-1.031983,2.319385,100178.40,-36,-121,+96
70338,16.709,-0.041,3.932,-0.500491,-0.979836,2.424210,100178.40,-34,-127,+94
70347,16.148,0.433,3.920,-0.615427,-0.922369,2.473696,100178.40,-33,-133,+91
70358,15.404,0.939,3.525,-0.726106,-0.889910,2.489127,100179.02,-33,-133,+91
70368,15.061,-0.005,3.005,-0.754307,-0.871818,2.532761,100181.07,-31,-140,+89
70378,15.483,-3.056,2.780,-0.714399,-0.903213,2.646632,100178.35,-28,-146,+86
70383,16.046,-6.098,2.733,-0.613298,-0.993139,2.784448,100175.77,-28,-146,+86
70392,16.836,-7.993,3.000,-0.464840,-1.161286,2.967494,100175.77,-25,-153,+84
70403,17.115,-7.448,3.195,-0.236565,-1.441176,3.156393,100182.31,-22,-158,+80
70413,16.519,-4.615,4.601,0.213068,-1.593891,3.151072,100177.03,-18,-162,+79
70422,14.789,-3.588,5.484,0.900022,-1.665194,2.954724,100177.97,-18,-162,+79
70432,11.960,-5.165,6.663,1.450755,-1.682221,2.760504,100175.77,-16,-163,+79
70443,9.992,-5.596,5.641,1.791838,-1.677964,2.591293,100175.77,-16,-162,+81
70453,9.172,-3.665,4.304,1.937104,-1.783854,2.397605,100178.41,-16,-160,+81
70463,9.135,-2.632,2.421,2.485709,-2.028093,2.019275,100179.46,-16,-160,+81
70472,8.818,-1.879,4.309,3.265782,-1.921139,1.721825,100175.85,-17,-155,+85
70482,8.506,1.356,5.272,3.694130,-1.870056,1.398834,100177.84,-20,-147,+88
70493,7.113,2.666,4.747,3.818112,-1.866863,0.691661,100177.84,-23,-137,+93
70503,5.569,2.705,4.914,3.621231,-1.724790,0.061111,100177.88,-23,-137,+93
70512,4.657,2.422,5.016,3.215764,-1.574735,-0.390651,100175.73,-29,-127,+96
70522,4.099,1.355,5.200,2.723562,-1.481084,-0.804100,100175.52,-35,-117,+98
70533,3.511,-0.186,5.034,2.269140,-1.470442,-1.251072,100174.95,-42,-109,+98
70543,2.793,-1.767,4.679,1.924333,-1.437451,-1.699641,100174.95,-42,-109,+98
70552,2.095,-3.080,4.656,1.608792,-1.349653,-2.145016,100177.61,-49,-99,+98
70562,1.728,-3.937,4.682,1.276223,-1.257598,-2.619658,100176.03,-57,-90,+96
70573,1.945,-3.952,4.362,0.966003,-1.187359,-3.108135,100170.69,-65,-80,+94
70583,2.819,-3.116,3.668,0.633967,-1.122442,-3.614172,100172.00,-65,-80,+94
70592,3.800,-2.229,3.044,0.350352,-1.034644,-4.052630,100172.00,-72,-71,+93
70602,4.067,-1.535,2.763,0.182738,-0.942057,-4.424575,100171.61,-80,-61,+89
70612,4.082,-1.166,2.609,0.116756,-0.815415,-4.727345,100170.14,-86,-47,+87
70619,4.499,-0.977,2.556,0.098664,-0.681323,-4.918373,100170.88,-86,-47,+87
70628,5.253,-1.063,2.763,0.100793,-0.527011,-5.092905,100170.88,-91,-34,+86
70638,6.192,-1.609,3.301,0.153472,-0.337580,-5.297235,100171.55,-95,-20,+84
70647,6.942,-2.143,3.711,0.247123,-0.189653,-5.470170,100171.55,-95,-20,+84
70658,7.817,-2.424,3.790,0.372701,-0.046516,-5.640446,100171.13,-97,-5,+83
70668,8.989,-2.678,3.621,0.563196,0.103007,-5.821363,100174.57,-96,+11,+83
70678,10.335,-2.762,3.557,0.766994,0.238695,-6.018775,100170.98,-94,+31,+83
70687,11.948,-2.727,3.507,0.991545,0.347245,-6.216721,100170.98,-94,+31,+83
70697,13.681,-2.954,3.252,1.237911,0.449410,-6.380078,100170.98,-91,+51,+82
70708,15.327,-3.949,3.332,1.390095,0.556897,-6.488628,100174.77,-84,+72,+81
70718,16.611,-5.449,3.662,1.373067,0.645227,-6.570041,100174.30,-75,+93,+81
70727,17.873,-6.758,4.055,1.171930,0.714933,-6.628573,100171.53,-75,+93,+81
70737,19.422,-7.989,4.324,0.928224,0.781979,-6.645601,100168.33,-64,+111,+79
70748,19.446,-9.629,4.407,0.575967,0.792621,-6.608353,100168.33,-52,+128,+80
70758,18.554,-12.548,4.275,0.094408,0.724511,-6.516830,100172.84,-38,+142,+80
70768,19.534,-14.487,3.935,-0.429721,0.849557,-6.269399,100174.05,-38,+142,+80
70777,19.824,-16.120,3.663,-0.970876,0.925116,-5.743675,100172.31,-24,+152,+82
70788,18.239,-17.461,3.164,-1.243316,0.903832,-5.068960,100172.31,-12,+157,+85
70798,16.641,-18.471,1.475,-1.273115,0.875630,-4.365510,100175.38,+0,+160,+88
70808,15.002,-21.314,2.227,-0.997482,0.798474,-3.714208,100174.24,+0,+160,+88
70817,9.117,-21.156,2.932,-0.746326,0.552640,-3.017676,100174.24,+8,+161,+91
70828,5.804,-21.554,4.231,-0.361611,0.608511,-1.913549,100173.82,+14,+163,+93
70838,7.446,-20.371,2.351,-0.372785,0.708016,-0.493348,100175.87,+18,+163,+94
70848,9.924,-18.074,-0.398,-0.286051,0.751649,0.903440,100175.87,+18,+163,+94
70853,11.408,-17.585,-1.121,0.011398,0.747924,1.750027,100177.16,+18,+160,+94
70862,11.821,-18.233,-1.378,0.229563,0.579245,2.428467,100176.80,+13,+158,+95
70873,12.059,-18.447,-1.011,0.328536,0.335007,3.194705,100177.11,+13,+158,+95
70883,14.845,-10.317,1.584,0.362059,0.259447,3.653384,100176.53,+7,+155,+95
70893,19.096,9.358,-3.443,0.101325,-0.241268,3.239402,100176.53,+0,+151,+95
70902,26.413,47.120,-5.139,0.175820,-0.439745,1.949036,100181.16,-4,+148,+93
70913,23.849,35.632,-10.084,0.536591,-0.736130,0.356432,100177.71,-4,+148,+93
70923,13.752,-11.879,1.579,3.306222,-0.618534,2.186889,100178.76,-7,+151,+91
70933,8.861,-25.334,9.011,7.174660,-0.484974,3.960411,100176.35,-15,+165,+76
70942,5.816,-18.417,3.571,4.707799,-0.806901,3.019641,100176.35,-23,+172,+67
70952,12.627,-8.100,-0.493,1.503434,0.012548,2.173054,100180.38,-23,+172,+67
70963,11.181,-0.913,2.218,0.835636,0.064695,2.361953,100178.24,-28,+170,+66
70973,6.279,-1.719,3.666,1.288994,-0.163048,2.107073,100176.62,-32,+169,+64
70982,8.678,-5.431,2.441,1.212370,0.057778,1.966596,100178.45,-36,+169,+62
70992,11.920,-6.361,2.128,0.516903,0.087044,1.999586,100178.45,-36,+169,+62
71003,10.647,-5.644,1.850,0.047582,0.039154,1.953293,100181.02,-41,+166,+62
71013,10.612,-4.866,1.321,-0.354161,0.115778,1.837825,100176.92,-44,+161,+63
71023,9.275,-3.591,2.475,-0.678216,0.138126,1.759073,100178.50,-47,+156,+63
71032,7.978,-2.741,1.916,-0.753243,0.148768,1.577623,100178.08,-47,+156,+63
71043,9.121,-2.279,1.264,-0.654271,0.155154,1.436082,100178.08,-49,+151,+66
71053,9.673,-1.492,1.813,-0.296693,0.189209,1.337110,100179.45,-53,+148,+67
71063,10.010,-0.937,2.066,-0.006693,0.221135,1.316890,100178.98,-54,+143,+68
71072,9.755,-1.962,2.643,0.186995,0.191337,1.305183,100181.30,-54,+143,+68
71083,9.431,-2.960,2.904,0.212536,0.121631,1.227495,100177.20,-56,+142,+67
71093,9.399,-3.312,3.287,0.093343,0.066291,1.119477,100177.20,-58,+139,+68
71103,9.332,-3.676,3.062,-0.140253,0.023723,1.019972,100179.37,-60,+137,+68
71113,9.482,-3.582,2.597,-0.433445,-0.003947,0.914615,100178.48,-60,+137,+68
71122,9.619,-2.849,1.693,-0.569133,-0.003415,0.817771,100177.16,-60,+133,+69
71133,9.992,-1.881,0.981,-0.537207,0.010420,0.783716,100179.05,-62,+131,+69
71143,9.882,-1.038,1.058,-0.353629,0.024787,0.774138,100179.05,-63,+128,+71
71153,9.480,-1.152,1.273,-0.084381,0.040218,0.784780,100179.16,-63,+128,+71
71162,9.253,-2.064,1.710,0.150279,0.062567,0.793294,100179.12,-65,+125,+71
71173,9.315,-3.428,1.826,0.143362,0.099282,0.780523,100180.59,-66,+125,+71
71183,9.590,-3.812,2.426,-0.103005,0.115245,0.738486,100177.80,-66,+122,+70
71193,9.279,-3.209,2.851,-0.411097,0.112053,0.661862,100177.80,-66,+122,+70
71203,9.272,-2.395,2.289,-0.557959,0.116310,0.641110,100180.30,-68,+120,+72
71208,9.539,-2.454,2.010,-0.539867,0.114713,0.629404,100176.52,-68,+117,+73
71218,9.651,-2.404,1.770,-0.472821,0.109924,0.612908,100176.52,-68,+117,+73
71228,9.724,-2.349,1.571,-0.389812,0.116310,0.617697,100175.31,-68,+114,+74
71238,9.752,-2.737,1.574,-0.323299,0.125888,0.635789,100176.83,-68,+111,+75
71248,9.816,-2.800,1.834,-0.317445,0.136530,0.643239,100177.11,-69,+110,+76
71258,9.748,-2.911,2.137,-0.388216,0.157814,0.659734,100173.28,-69,+110,+76
71268,9.569,-3.086,2.353,-0.473886,0.171117,0.666651,100175.13,-69,+107,+76
71278,9.242,-3.031,2.233,-0.574986,0.182823,0.683679,100176.02,-70,+103,+78
71287,9.274,-2.547,2.077,-0.634583,0.191869,0.727844,100176.02,-71,+99,+79
71298,9.122,-2.442,1.758,-0.605849,0.196126,0.784248,100176.02,-71,+99,+79
71308,9.075,-2.482,1.515,-0.553702,0.205172,0.857147,100179.59,-71,+97,+80
71318,9.209,-2.271,1.436,-0.474950,0.209429,0.934835,100177.55,-71,+93,+81
71328,9.552,-2.477,1.724,-0.375977,0.228585,0.999752,100179.17,-72,+89,+82
71337,9.840,-2.976,2.044,-0.333409,0.240823,1.040725,100177.50,-72,+89,+82
71348,10.124,-3.110,2.150,-0.346711,0.242420,1.074780,100177.50,-73,+86,+83
71358,10.381,-2.996,2.521,-0.324895,0.214750,1.129587,100178.39,-73,+82,+84
71368,9.728,-2.522,2.784,-0.331280,0.192933,1.221110,100178.86,-74,+78,+84
71378,9.456,-1.940,2.841,-0.308932,0.169521,1.334981,100175.77,-74,+78,+84
71388,9.500,-1.658,3.031,-0.211556,0.128548,1.487165,100175.77,-75,+74,+86
71398,10.080,-2.325,3.107,-0.087042,0.095025,1.643605,100179.47,-77,+70,+85
71408,10.841,-2.988,2.653,-0.019996,0.063631,1.784082,100179.47,-79,+66,+86
71418,11.238,-2.982,1.950,0.028958,0.049796,1.913917,100177.80,-79,+66,+86
71428,11.898,-3.184,0.770,0.098664,0.013080,2.030981,100178.69,-79,+61,+88
71438,12.669,-3.320,0.308,0.194444,-0.031085,2.166669,100179.63,-80,+57,+87
71448,13.250,-3.467,0.442,0.274793,-0.061415,2.321513,100179.63,-82,+51,+86
71458,13.925,-4.237,1.104,0.310976,-0.034810,2.476889,100180.29,-84,+45,+86
71469,14.517,-4.611,1.704,0.218921,0.020530,2.625880,100178.30,-84,+45,+86
71478,15.550,-4.268,2.599,0.073123,0.044475,2.742412,100178.77,-86,+39,+87
71488,17.032,-2.988,3.280,-0.029574,0.021062,2.852558,100176.02,-86,+32,+87
71498,18.520,-2.383,4.528,-0.023721,0.019998,2.970155,100175.59,-86,+25,+86
71508,19.070,-1.375,5.129,-0.145042,0.132805,3.077109,100173.81,-86,+25,+86
71518,20.304,-1.122,5.197,-0.481867,0.330750,3.160118,100176.28,-86,+16,+88
71528,22.498,0.071,5.033,-0.993225,0.525502,3.224503,100176.28,-84,+5,+88
71538,24.149,2.043,4.871,-1.695078,0.759098,3.253237,100173.08,-82,-7,+91
71547,24.144,4.356,3.876,-2.507609,0.969814,3.258558,100173.08,-82,-7,+91
71558,22.786,4.822,2.201,-3.246177,1.121465,3.184595,100174.41,-78,-24,+93
71568,20.232,0.669,0.853,-3.618122,1.129447,3.104246,100174.56,-73,-42,+93
71578,17.497,-7.434,1.846,-3.385590,0.956511,3.286228,100174.34,-68,-60,+93
71588,17.416,-11.084,3.138,-3.066856,0.596805,3.673604,100174.09,-68,-60,+93
71598,16.743,-6.031,4.756,-2.968948,0.373319,3.544301,100174.09,-64,-77,+91
71608,15.262,-0.456,5.550,-2.560288,0.362676,3.244191,100175.07,-58,-91,+89
71618,12.674,0.389,3.869,-1.750949,0.399924,3.097861,100175.46,-52,-103,+88
71628,8.155,-3.045,3.940,-1.210326,0.456860,2.826485,100173.84,-52,-103,+88
71638,5.838,-3.214,3.832,-0.895317,0.538805,2.270962,100173.84,-47,-110,+88
71648,6.042,0.097,1.218,-1.141151,0.478144,1.453642,100173.84,-44,-116,+86
71658,6.322,0.169,0.759,-1.024087,0.395667,0.810853,100179.68,-41,-121,+86
71668,6.203,2.087,1.810,-0.491445,0.407906,0.356964,100174.91,-41,-121,+86
71678,5.306,4.176,1.236,-0.165617,0.267961,-0.369189,100175.87,-40,-121,+86
71688,4.215,4.756,1.201,0.238077,0.206236,-0.941916,100175.87,-40,-119,+86
71698,3.284,4.432,0.653,0.731343,0.168456,-1.371861,100175.87,-42,-115,+88
71708,2.733,3.168,0.347,1.200664,0.168456,-1.685806,100176.14,-42,-115,+88
71718,2.422,1.165,0.380,1.694462,0.101943,-2.043383,100174.67,-44,-106,+89
71729,2.271,-0.808,0.522,2.062150,-0.002883,-2.419585,100173.77,-47,-95,+92
71738,2.419,-1.950,0.465,2.130792,-0.134846,-2.840484,100173.77,-51,-84,+93
71748,2.959,-2.040,0.188,1.897727,-0.238075,-3.332153,100173.27,-51,-84,+93
71758,3.697,-1.542,0.260,1.517801,-0.298204,-3.784446,100173.27,-57,-71,+94
71768,4.452,-1.131,0.386,1.249086,-0.340241,-4.135639,100172.80,-60,-59,+95
71778,4.953,-1.074,0.845,1.163948,-0.368974,-4.423511,100172.27,-66,-44,+94
71788,5.067,-1.545,1.184,1.146389,-0.388663,-4.672006,100169.64,-66,-44,+94
71798,5.291,-2.057,1.061,1.073489,-0.408883,-4.941253,100169.64,-69,-31,+93
71809,6.148,-2.351,0.771,0.926627,-0.405158,-5.223804,100169.87,-73,-15,+92
71818,7.426,-2.605,0.650,0.759545,-0.378020,-5.476024,100167.15,-75,-1,+91
71828,8.483,-2.969,0.875,0.605233,-0.341837,-5.688335,100168.46,-75,-1,+91
71838,9.202,-3.382,1.285,0.449325,-0.318956,-5.898519,100167.43,-75,+13,+90
71848,10.110,-3.523,1.635,0.278518,-0.277984,-6.114023,100172.99,-75,+28,+89
71859,11.300,-3.487,1.944,0.191784,-0.217855,-6.320482,100173.09,-73,+45,+88
71868,12.275,-3.375,2.123,0.193380,-0.145488,-6.510445,100169.95,-73,+45,+88
71878,13.557,-3.208,2.118,0.276389,-0.059819,-6.704665,100169.95,-69,+60,+88
71888,15.501,-3.328,2.229,0.511050,0.022658,-6.874408,100171.21,-64,+77,+86
71898,18.028,-4.271,2.994,0.867031,0.088640,-6.953160,100171.21,-55,+95,+85
71908,20.443,-5.752,3.728,1.248021,0.104603,-6.933472,100172.68,-46,+113,+83
71914,21.747,-7.405,4.287,1.375728,0.142383,-6.879729,100173.05,-46,+113,+83
71923,22.530,-10.394,5.036,1.332095,0.182291,-6.778096,100173.10,-34,+131,+80
71933,23.047,-13.696,5.172,1.175655,0.166328,-6.569509,100171.48,-34,+131,+80
71943,22.054,-16.166,4.850,0.819141,0.199851,-6.174152,100171.48,-23,+145,+78
71953,20.028,-17.816,4.670,0.544040,0.222732,-5.512207,100177.16,-11,+157,+78
71963,17.169,-18.810,4.151,0.360995,0.204108,-4.764593,100175.34,+0,+166,+78
71973,14.823,-23.250,4.161,0.314169,0.269025,-4.032410,100174.02,+0,+166,+78
71983,10.193,-25.857,4.597,0.065142,0.221667,-3.373658,100178.63,+7,+172,+77
71993,6.418,-24.815,5.256,-0.309996,0.345117,-2.439805,100178.63,+14,+174,+78
72003,6.816,-21.256,4.081,-0.574986,0.421209,-1.019072,100174.91,+18,+174,+79
72013,8.934,-15.856,1.896,-0.223262,0.411631,0.600138,100176.27,+18,+174,+79
72024,10.760,-14.897,1.748,0.704205,0.338732,1.994797,100177.23,+16,+173,+79
72033,10.842,-17.844,1.551,1.544939,0.053521,2.995696,100178.12,+11,+174,+77
72043,10.984,-17.875,3.539,1.941893,-0.057158,3.618264,100178.12,+2,+174,+73
72053,15.151,-4.641,0.631,1.712553,-0.204553,3.623585,100177.90,+2,+174,+73
72064,16.862,12.324,0.527,1.058058,-0.194975,2.954724,100176.38,-5,+173,+69
72073,27.523,43.123,-8.071,0.425912,-0.599378,1.511642,100175.70,-11,+171,+69
72083,18.858,13.277,-7.458,-0.377574,-0.188057,0.529367,100179.90,-12,+170,+68
72093,14.428,-17.804,2.957,2.928424,-0.186461,3.499072,100179.90,-12,+170,+68
72103,9.619,-16.381,4.416,5.226074,-0.301929,4.055126,100177.86,-21,+174,+59
72114,6.359,-10.961,2.065,3.432864,-0.198167,2.799347,100175.14,-30,+179,+51
72123,10.476,-11.348,2.037,1.515673,0.371722,2.390687,100175.72,-33,+178,+49
72133,10.986,-9.377,3.163,1.243765,0.606915,2.511476,100177.55,-33,+178,+49
72143,12.885,-8.029,1.385,0.757948,0.597869,2.311403,100177.55,-38,+176,+48
72148,12.536,-7.104,-0.786,0.062481,0.524438,2.248082,100178.16,-40,+172,+49
72158,9.996,-5.004,0.884,-0.499427,0.635649,2.159752,100178.16,-40,+172,+49
72168,7.597,-3.965,3.539,-1.008124,0.708548,1.984155,100178.79,-44,+166,+51
72178,8.011,-2.873,2.625,-1.070381,0.630328,1.919238,100176.54,-47,+159,+54
72188,9.226,-2.459,3.088,-1.024619,0.619685,1.751623,100176.38,-49,+153,+58
72199,9.835,-2.749,2.575,-0.893188,0.499961,1.553678,100179.10,-49,+153,+58
72209,9.998,-2.158,2.303,-0.684069,0.425998,1.423312,100178.68,-50,+148,+61
72218,10.040,-2.302,2.155,-0.493042,0.334475,1.322743,100173.27,-52,+144,+63
72228,9.995,-2.667,1.647,-0.367996,0.266897,1.236541,100173.27,-53,+141,+63
72239,10.106,-2.483,1.567,-0.257317,0.263704,1.171092,100174.74,-53,+141,+63
72248,9.918,-2.976,2.056,-0.247739,0.262640,1.148743,100174.74,-55,+137,+63
72258,9.706,-3.816,2.027,-0.402583,0.253062,1.069991,100177.88,-57,+133,+66
72268,9.824,-3.139,2.174,-0.627488,0.256609,0.925966,100176.99,-57,+130,+67
72279,9.830,-2.297,2.287,-0.703225,0.241888,0.850229,100176.99,-57,+130,+67
72289,9.667,-1.797,2.439,-0.638840,0.216346,0.802872,100174.48,-58,+127,+68
72298,9.614,-1.464,2.549,-0.492509,0.189209,0.771477,100174.48,-58,+123,+69
72308,9.537,-2.085,2.377,-0.313721,0.154089,0.772009,100174.48,-60,+121,+71
72318,9.537,-3.236,1.959,-0.224326,0.135998,0.777330,100175.72,-60,+121,+71
72329,9.542,-3.604,1.734,-0.291372,0.147704,0.758174,100175.91,-60,+118,+71
72338,9.519,-3.156,1.681,-0.436106,0.183888,0.736890,100175.91,-61,+116,+72
72348,9.553,-2.319,1.703,-0.518051,0.207833,0.728908,100175.91,-62,+113,+73
72358,9.406,-1.796,2.023,-0.451537,0.200383,0.744340,100175.08,-63,+113,+73
72369,9.260,-2.113,2.308,-0.297225,0.174842,0.774670,100177.55,-63,+110,+76
72378,9.187,-2.854,2.336,-0.198253,0.145044,0.787440,100175.97,-63,+108,+75
72388,9.182,-3.505,2.307,-0.216345,0.135466,0.784248,100176.70,-63,+105,+76
72398,9.117,-3.622,2.371,-0.311592,0.125356,0.777862,100176.70,-64,+102,+77
72409,9.084,-2.877,2.529,-0.388748,0.131741,0.765092,100178.41,-64,+102,+77
72419,9.086,-2.380,2.886,-0.382363,0.143979,0.752321,100175.90,-66,+99,+77
72428,9.103,-2.550,3.248,-0.395133,0.151429,0.748596,100175.66,-64,+96,+78
72438,9.172,-2.640,2.934,-0.436106,0.181759,0.753385,100175.66,-66,+93,+79
72449,9.080,-2.094,2.586,-0.483464,0.209961,0.787440,100179.14,-66,+93,+79
72459,8.881,-2.298,2.168,-0.471757,0.197722,0.875771,100177.14,-67,+90,+79
72468,9.158,-1.911,1.628,-0.432381,0.209961,0.971018,100177.14,-68,+86,+81
72478,9.488,-1.587,1.608,-0.365867,0.208365,1.088082,100179.97,-68,+83,+81
72488,9.632,-0.956,2.366,-0.214748,0.148768,1.212596,100176.41,-68,+83,+81
72499,9.389,-0.548,3.293,0.019380,0.081190,1.341367,100176.41,-68,+80,+82
72508,9.123,-1.645,3.486,0.247123,0.050328,1.474394,100177.71,-70,+77,+83
72518,9.582,-4.979,2.697,0.302995,-0.020975,1.635091,100178.02,-71,+74,+81
72528,10.978,-5.076,1.930,0.093343,-0.035874,1.745770,100175.98,-71,+74,+81
72539,11.321,-4.532,1.936,-0.222730,0.022126,1.809623,100178.38,-73,+70,+82
72549,11.447,-3.191,1.515,-0.377574,0.046071,1.912853,100181.90,-75,+63,+83
72558,12.157,-2.729,0.826,-0.273280,0.030640,2.038963,100176.07,-76,+59,+83
72568,12.819,-3.432,-0.143,-0.065757,-0.018846,2.178375,100177.02,-76,+59,+83
72579,13.110,-3.961,-0.316,0.098132,-0.060351,2.319385,100177.02,-79,+53,+84
72589,13.499,-3.946,0.535,0.200297,-0.109305,2.467843,100175.80,-79,+48,+83
72598,13.983,-3.834,1.998,0.237545,-0.129525,2.623219,100175.80,-80,+41,+83
72608,14.514,-4.287,2.847,0.142830,-0.086424,2.778063,100177.73,-80,+41,+83
72619,15.613,-4.781,2.702,-0.121629,-0.015654,2.920136,100176.48,-82,+36,+84
72629,17.814,-4.259,2.262,-0.477610,-0.028424,3.036136,100179.27,-83,+27,+83
72639,20.812,-3.050,3.296,-0.745262,-0.124736,3.167567,100177.38,-84,+17,+83
72648,23.099,-1.872,3.271,-1.064528,-0.114094,3.286228,100177.38,-84,+17,+83
72658,26.092,-0.039,3.011,-1.632821,0.025319,3.325072,100180.58,-84,+4,+84
72669,28.075,3.689,3.156,-2.259646,0.171649,3.420320,100176.98,-84,-9,+84
72679,27.313,6.934,3.249,-2.704490,0.310530,3.478320,100174.17,-82,-25,+84
72688,24.516,8.383,3.370,-2.944471,0.377576,3.328265,100174.17,-82,-25,+84
72698,20.400,5.525,3.189,-2.963095,0.309465,3.178210,100174.17,-79,-42,+84
72709,16.951,-1.275,3.073,-2.465572,0.103539,3.200026,100176.09,-76,-56,+83
72719,15.200,-8.788,4.695,-1.549812,-0.188057,3.439476,100177.66,-74,-69,+81
72728,15.029,-9.055,5.326,-0.972472,-0.392387,3.567182,100175.40,-74,-69,+81
72738,14.987,-7.586,4.401,-0.876693,-0.363121,3.471934,100176.87,-71,-79,+79
72749,13.760,-8.633,6.388,-0.456858,-0.208809,3.596448,100176.87,-68,-89,+79
72759,11.010,-7.907,7.052,0.275325,-0.198167,3.415531,100176.13,-64,-95,+79
72769,7.280,-4.596,6.680,0.603105,-0.227433,2.704632,100176.71,-64,-95,+79
72778,5.717,-1.385,2.481,0.217857,-0.154002,1.705862,100174.77,-60,-98,+79
72788,5.753,-0.085,1.449,-0.418546,0.011484,0.910890,100175.53,-59,-101,+79
72799,5.518,1.455,1.841,-0.615959,0.135998,0.494780,100178.05,-58,-103,+79
72809,4.567,2.170,0.835,-0.697372,0.082787,0.056322,100175.69,-58,-103,+79
72818,2.932,2.604,-0.021,-0.792087,0.015741,-0.567311,100175.69,-58,-105,+78
72828,1.616,2.544,0.013,-0.843702,0.091833,-1.155824,100176.20,-59,-105,+77
72839,0.939,1.799,-0.063,-0.795812,0.151961,-1.582577,100175.38,-61,-103,+77
72849,0.296,0.439,-0.136,-0.543592,0.125888,-1.950264,100175.38,-61,-103,+77
72858,-0.110,-0.663,0.207,-0.103005,0.073209,-2.333383,100174.59,-64,-99,+77
72868,0.023,-1.014,0.449,0.340242,-0.002883,-2.777695,100174.79,-67,-93,+76
72879,0.607,-0.745,0.425,0.655251,-0.062479,-3.268300,100174.01,-71,-84,+77
72889,1.475,-0.083,0.393,0.829783,-0.075250,-3.718465,100170.40,-77,-73,+77
72899,2.375,0.393,0.498,0.916517,-0.053965,-4.092006,100170.40,-77,-73,+77
72908,2.785,0.482,0.932,1.062315,-0.043323,-4.416061,100173.11,-81,-59,+78
72919,2.897,0.272,1.568,1.251746,-0.042259,-4.710318,100169.33,-83,-44,+78
72929,3.316,0.133,1.810,1.353379,-0.022571,-4.989143,100166.45,-86,-27,+79
72938,4.257,-0.188,1.911,1.423086,0.023190,-5.244024,100166.45,-86,-27,+79
72948,5.577,-0.735,1.932,1.496517,0.071080,-5.465382,100166.45,-88,-9,+79
72958,6.834,-1.581,1.823,1.507159,0.103007,-5.651620,100170.21,-88,+9,+78
72969,7.731,-2.399,1.531,1.475232,0.123759,-5.829345,100171.59,-86,+29,+78
72979,8.385,-2.760,1.398,1.392755,0.163667,-6.007069,100170.16,-86,+29,+78
72988,9.390,-2.892,1.370,1.318792,0.201447,-6.154996,100169.27,-83,+48,+78
72998,11.235,-3.364,1.621,1.245893,0.222199,-6.296005,100169.27,-78,+67,+77
73009,13.168,-4.146,2.075,1.108077,0.212089,-6.421583,100174.08,-70,+87,+76
73019,15.063,-4.538,2.484,0.912792,0.197190,-6.555142,100173.58,-70,+87,+76
73029,17.184,-4.981,2.977,0.799453,0.212622,-6.696683,100170.88,-62,+105,+76
73038,19.747,-6.434,3.656,0.810095,0.249869,-6.766922,100170.88,-51,+122,+74
73049,21.399,-9.238,4.601,0.936205,0.274346,-6.734995,100170.42,-38,+139,+73
73059,20.856,-12.356,4.820,0.890976,0.229117,-6.658904,100170.42,-38,+139,+73
73069,19.780,-15.117,4.334,0.595123,0.247209,-6.467344,100169.42,-25,+153,+72
73078,18.781,-17.257,4.428,0.227435,0.341924,-6.059216,100171.73,-11,+165,+71
73089,17.897,-18.730,5.327,-0.084913,0.415887,-5.426538,100172.88,+0,+173,+72
73094,17.392,-18.890,5.922,-0.228051,0.441429,-4.869419,100172.88,+0,+173,+72
73104,16.211,-18.179,5.440,-0.365335,0.462181,-4.325603,100173.70,+12,+178,+73
73113,14.225,-20.176,3.922,-0.439299,0.502621,-3.658336,100176.17,+22,+178,+74
73123,11.328,-23.883,4.030,-0.473886,0.481337,-3.104410,100174.17,+22,+181,+74
73134,6.616,-22.260,4.511,-1.008656,0.510603,-2.371695,100171.56,+31,+183,+75
73144,6.298,-19.306,4.057,-1.430087,0.646291,-1.139861,100171.56,+34,+179,+79
73154,8.289,-16.635,0.873,-1.351867,0.613832,0.427734,100177.52,+35,+176,+83
73163,9.804,-17.484,0.221,-0.696307,0.508475,1.802174,100177.83,+35,+176,+83
73174,11.577,-17.348,1.452,0.080041,0.321704,2.753586,100173.91,+30,+172,+83
73184,16.429,-4.305,-2.388,0.320554,-0.038002,3.123935,100174.69,+24,+170,+83
73194,20.340,16.643,-3.379,0.051307,-0.325874,2.770082,100174.69,+16,+168,+83
73203,35.160,53.850,-10.042,0.381747,-0.703139,1.396706,100177.60,+16,+168,+83
73213,22.465,14.955,-9.665,0.016187,-0.454644,0.568743,100179.12,+14,+167,+81
73224,10.906,-24.511,4.900,4.304992,-0.402497,3.636356,100175.24,+7,+172,+73
73234,8.028,-24.347,6.272,6.383945,-0.171030,4.480282,100173.66,-2,+183,+61
73243,12.574,-16.140,0.592,2.852865,-0.034277,3.188320,100173.66,-2,+183,+61
73253,12.771,-8.387,-0.913,0.380150,0.511667,2.798283,100174.93,-7,+182,+60
73264,6.565,-1.606,5.665,0.298738,0.525502,2.764760,100177.07,-12,+178,+60
73274,3.230,-2.067,9.211,0.734004,0.491447,2.234779,100174.93,-16,+176,+59
73284,8.527,-3.746,5.837,0.644077,0.562218,2.190082,100174.29,-16,+176,+59
73293,11.764,-4.459,3.959,0.127398,0.335007,2.145917,100174.29,-18,+173,+60
73304,10.028,-4.594,2.621,-0.273812,0.190273,2.022467,100175.74,-23,+170,+60
73314,10.210,-4.323,2.017,-0.620216,0.250401,2.035770,100177.46,-28,+163,+62
73324,10.096,-4.621,2.101,-0.866051,0.281264,1.957018,100176.10,-28,+163,+62
73329,9.026,-5.265,1.292,-1.098583,0.274346,1.809623,100174.21,-30,+158,+65
73338,8.569,-5.289,0.282,-1.208729,0.285521,1.641477,100174.21,-33,+158,+68
73349,9.631,-2.434,-0.197,-1.049096,0.326493,1.464816,100174.21,-33,+152,+68
73359,10.569,-0.072,0.906,-0.571262,0.339796,1.371697,100176.91,-34,+147,+69
73369,10.694,-0.894,2.366,-0.000840,0.222199,1.428101,100175.40,-36,+145,+70
73379,9.870,-2.422,3.140,0.408884,0.062034,1.415862,100174.21,-39,+143,+69
73389,9.184,-4.181,3.576,0.442407,-0.010332,1.315825,100174.21,-39,+143,+69
73399,9.041,-5.185,3.674,0.179545,-0.064608,1.150339,100178.24,-41,+142,+68
73409,9.050,-4.653,3.492,-0.274345,-0.064608,0.982193,100178.24,-43,+139,+69
73418,9.318,-3.517,3.240,-0.615959,-0.063543,0.866193,100176.62,-45,+135,+71
73428,9.691,-2.280,2.552,-0.657996,-0.070461,0.797550,100174.73,-45,+135,+71
73439,9.874,-2.091,2.019,-0.513794,-0.082699,0.761899,100174.30,-46,+132,+71
73449,9.776,-2.349,1.397,-0.310528,-0.064076,0.729440,100174.30,-48,+130,+71
73459,9.449,-3.129,0.976,-0.151427,-0.017782,0.699110,100177.55,-49,+129,+72
73468,9.446,-3.929,1.200,-0.158345,0.034365,0.669844,100177.35,-49,+129,+72
73479,9.451,-4.378,1.840,-0.352033,0.085447,0.617697,100178.87,-49,+126,+72
73489,9.515,-3.856,2.236,-0.646821,0.100878,0.561826,100175.24,-51,+123,+74
73499,9.464,-2.725,2.479,-0.801665,0.070016,0.504358,100175.55,-51,+120,+74
73509,9.241,-2.137,2.390,-0.739941,0.051392,0.479881,100174.40,-51,+120,+74
73519,9.256,-2.610,2.274,-0.569133,0.048732,0.468707,100173.98,-51,+117,+76
73529,9.353,-3.159,2.326,-0.473886,0.056181,0.455404,100173.98,-53,+115,+76
73539,9.470,-3.336,2.281,-0.496766,0.076934,0.453276,100174.93,-53,+112,+77
73548,9.473,-3.205,2.297,-0.555831,0.103007,0.458064,100174.93,-53,+112,+77
73559,9.442,-3.196,2.068,-0.587757,0.131209,0.474028,100176.77,-53,+110,+79
73569,9.612,-3.377,1.979,-0.608509,0.163135,0.488927,100176.86,-53,+107,+80
73579,9.680,-3.110,2.003,-0.651610,0.175374,0.515532,100174.56,-54,+104,+81
73589,9.372,-2.517,1.914,-0.674491,0.174310,0.560762,100174.72,-54,+104,+81
73598,8.807,-1.797,1.880,-0.636711,0.171649,0.636321,100174.72,-54,+101,+82
73609,8.702,-1.307,1.764,-0.517519,0.172713,0.748596,100178.12,-54,+97,+83
73619,8.965,-1.149,1.540,-0.327023,0.164732,0.892798,100175.16,-55,+95,+84
73629,9.293,-1.706,1.420,-0.116840,0.146640,1.047110,100176.10,-55,+95,+84
73639,10.090,-2.321,1.846,0.040132,0.117906,1.175881,100176.10,-56,+92,+84
73649,10.367,-2.741,2.196,0.140169,0.103007,1.285495,100176.10,-57,+90,+84
73659,10.308,-3.348,2.433,0.119949,0.107796,1.369568,100176.98,-59,+87,+85
73669,10.262,-3.473,2.519,0.010334,0.106732,1.455770,100177.52,-59,+87,+85
73678,10.305,-2.881,2.438,-0.080124,0.071612,1.542504,100179.61,-58,+84,+85
73689,10.896,-2.278,2.141,-0.048730,0.015209,1.676064,100177.36,-61,+80,+85
73699,11.344,-2.150,1.574,0.101857,-0.039066,1.858045,100177.36,-62,+77,+85
73709,11.238,-2.546,1.381,0.243930,-0.050241,2.054926,100178.43,-62,+77,+85
73719,11.642,-2.921,1.578,0.273729,-0.030553,2.250210,100178.43,-66,+71,+85
73729,12.497,-3.062,2.677,0.247123,-0.030021,2.406118,100175.79,-66,+67,+85
73739,13.026,-2.836,3.260,0.242866,-0.090149,2.528504,100175.79,-69,+63,+84
73749,13.869,-3.614,3.765,0.216793,-0.108773,2.666852,100180.79,-69,+63,+84
73759,14.807,-4.322,3.175,0.080573,-0.114094,2.789237,100180.79,-71,+57,+85
73768,16.200,-4.237,2.400,-0.182822,-0.076846,2.920669,100175.35,-73,+50,+84
73779,18.281,-3.179,2.584,-0.374913,-0.093342,3.060081,100177.07,-75,+41,+84
73789,19.520,-2.005,3.043,-0.432381,-0.100791,3.221843,100175.60,-76,+41,+84
73799,21.104,-1.823,3.091,-0.614363,0.020530,3.346356,100175.60,-76,+33,+86
73808,24.393,0.216,3.624,-1.029408,0.173778,3.417659,100177.21,-77,+22,+86
73819,25.070,2.518,3.768,-1.572692,0.304144,3.510246,100177.21,-77,+9,+87
73829,25.015,5.284,3.368,-2.168123,0.503153,3.509182,100177.41,-74,-4,+88
73839,24.371,6.765,2.558,-2.775792,0.673429,3.399567,100176.27,-74,-4,+88
73849,21.581,5.316,1.031,-3.211058,0.662786,3.278246,100176.78,-70,-20,+89
73859,17.909,0.291,1.342,-3.080159,0.474952,3.261751,100176.41,-68,-37,+89
73869,14.945,-6.765,3.532,-2.308068,0.140787,3.499072,100172.89,-65,-51,+88
73879,14.428,-8.402,4.018,-1.686564,-0.105580,3.646466,100172.89,-65,-51,+88
73889,14.313,-5.593,5.258,-1.402417,-0.005011,3.409678,100174.42,-62,-63,+87
73899,13.136,-4.494,4.336,-1.225757,0.264768,3.164907,100174.42,-58,-73,+86
73909,10.790,-5.900,5.169,-0.729298,0.367465,3.030283,100177.73,-53,-80,+88
73919,7.681,-6.881,6.347,-0.256785,0.391765,2.506332,100174.75,-53,-80,+88
73929,5.629,-5.043,4.632,-0.273812,0.382365,1.835165,100174.75,-48,-85,+88
73939,5.926,-2.595,-0.022,-0.652142,0.287117,0.902908,100170.61,-46,-87,+88
73949,5.556,-3.369,1.136,-0.707482,0.406309,0.301092,100170.61,-44,-90,+88
73959,5.393,-0.485,1.911,-0.698436,0.375447,-0.183660,100175.40,-44,-90,+88
73969,3.673,1.982,1.188,-0.757500,0.217411,-0.820063,100173.41,-43,-90,+88
73979,2.396,3.842,1.211,-0.787298,0.361080,-1.428797,100172.41,-43,-89,+87
73989,2.200,4.768,0.473,-0.577647,0.416952,-1.814576,100172.41,-44,-87,+88
73999,2.017,3.672,-0.115,-0.149299,0.396731,-2.120539,100172.41,-44,-87,+88
74009,1.779,1.405,-0.082,0.355141,0.303080,-2.447255,100175.69,-45,-81,+89
74019,1.457,-0.652,0.358,0.758481,0.222732,-2.750557,100175.06,-47,-73,+89
74029,1.616,-1.701,0.483,0.976113,0.167924,-3.073548,100171.44,-49,-64,+91
74039,2.179,-1.855,0.558,1.045820,0.133869,-3.458263,100171.55,-49,-64,+91
74049,2.698,-1.441,0.637,1.068701,0.100878,-3.836593,100171.55,-51,-53,+93
74059,2.992,-0.938,0.714,1.088921,0.083319,-4.159584,100173.20,-53,-40,+92
74070,3.249,-0.904,1.108,1.137875,0.078530,-4.452244,100172.98,-54,-27,+93
74079,3.554,-1.116,1.493,1.179379,0.064163,-4.755547,100169.97,-54,-27,+93
74089,4.070,-1.331,1.698,1.147985,0.070016,-5.045015,100169.97,-55,-14,+95
74099,4.804,-1.462,1.703,1.072425,0.115778,-5.291914,100170.26,-54,+0,+94
74109,5.761,-1.668,1.768,1.006444,0.184952,-5.518592,100170.57,-52,+15,+95
74119,6.770,-2.073,1.838,0.976646,0.247209,-5.736225,100170.57,-52,+15,+95
74129,7.696,-2.555,1.726,0.954297,0.302016,-5.952262,100168.48,-49,+30,+95
74139,8.628,-2.908,1.553,0.913857,0.357355,-6.156592,100167.84,-44,+44,+95
74149,9.800,-3.003,1.425,0.842554,0.406842,-6.355069,100167.84,-38,+59,+96
74155,11.107,-2.966,1.328,0.751031,0.436108,-6.500867,100173.05,-38,+59,+96
74164,12.950,-3.068,1.286,0.705802,0.458988,-6.629106,100172.16,-30,+73,+97
74174,15.521,-3.706,1.677,0.860646,0.474952,-6.744041,100169.80,-21,+87,+97
74184,18.258,-4.966,2.379,1.133618,0.456860,-6.808426,100170.80,-21,+87,+97
74194,21.298,-6.778,3.125,1.435856,0.393007,-6.836096,100170.80,-11,+102,+97
74204,24.396,-10.127,3.481,1.702975,0.303612,-6.782885,100174.73,+0,+117,+95
74214,26.407,-14.681,3.278,1.720535,0.157814,-6.630702,100173.95,+11,+130,+94
74224,24.621,-17.808,3.377,1.420957,-0.057158,-6.302922,100172.95,+11,+130,+94
74234,21.133,-18.417,4.901,1.185233,-0.196571,-5.716005,100174.21,+21,+140,+93
74244,18.365,-18.051,7.488,1.163948,-0.166773,-4.937529,100174.21,+29,+148,+90
74254,14.839,-20.027,7.696,1.080939,0.014145,-4.102648,100177.28,+37,+155,+89
74264,11.632,-27.604,7.140,0.756884,0.264768,-3.400795,100174.66,+37,+155,+89
74274,5.715,-29.155,6.528,-0.113647,0.365869,-2.720759,100178.00,+44,+159,+90
74285,5.331,-25.572,6.236,-0.874032,0.645759,-1.582044,100172.61,+49,+158,+91
74294,7.992,-19.867,3.420,-1.237463,0.681410,-0.058614,100172.61,+51,+153,+94
74304,10.428,-16.861,2.918,-0.612766,0.654273,1.540376,100179.18,+51,+153,+94
74314,13.051,-13.451,2.501,0.307251,0.409502,2.624815,100178.02,+48,+152,+96
74324,14.791,-7.106,-3.291,0.585545,-0.155598,3.124999,100179.59,+42,+151,+95
74334,24.579,27.077,-6.718,0.792004,-0.711121,2.941421,100176.40,+35,+151,+93
74344,31.096,44.300,-10.835,0.661637,-0.667488,0.872578,100176.40,+35,+151,+93
74354,14.924,-5.356,-3.439,1.639122,-0.413140,1.648394,100179.30,+33,+152,+93
74364,9.679,-25.580,3.516,5.530973,-0.106644,3.968393,100177.30,+25,+162,+84
74374,9.784,-19.622,-1.039,4.362460,-0.163048,3.862503,100176.25,+17,+170,+76
74384,13.053,-11.110,-0.975,0.966003,0.248273,2.678559,100174.94,+17,+170,+76
74390,11.631,-3.903,1.548,0.069931,0.569135,2.598210,100174.94,+12,+168,+76
74399,7.814,-0.101,6.608,0.260958,0.521245,2.737623,100174.94,+9,+163,+76
74409,5.462,-1.531,8.537,0.686114,0.496236,2.410907,100178.61,+9,+163,+76
74420,9.688,-4.904,4.343,0.591398,0.480273,2.411439,100178.67,+6,+164,+76
74429,11.268,-5.430,2.678,0.198169,0.256787,2.375256,100178.61,+1,+160,+76
74439,8.777,-4.679,2.683,-0.163134,0.172181,2.085256,100174.15,-2,+157,+78
74449,9.648,-3.466,2.039,-0.590418,0.241888,2.056522,100177.76,-2,+157,+78
74460,10.463,-4.163,1.179,-0.870839,0.222732,2.009165,100181.21,-4,+151,+79
74469,9.427,-4.412,0.756,-0.938417,0.133337,1.814412,100181.21,-8,+146,+81
74479,9.037,-2.359,0.789,-0.610638,0.135466,1.614871,100176.45,-11,+142,+83
74489,10.337,-0.315,1.324,-0.166858,0.097154,1.558467,100179.59,-11,+142,+83
74500,9.996,-1.217,1.964,0.337582,0.043411,1.570706,100179.59,-14,+139,+84
74509,9.455,-2.735,2.169,0.625985,0.068952,1.522284,100178.89,-16,+139,+82
74519,9.299,-4.556,2.542,0.513710,0.108328,1.420119,100176.95,-18,+137,+81
74529,9.406,-5.656,2.612,0.040664,0.149300,1.289220,100178.11,-18,+137,+81
74540,9.509,-4.338,2.822,-0.502087,0.175906,1.129587,100176.75,-19,+135,+82
74550,9.644,-2.470,3.005,-0.755372,0.160475,1.012523,100176.75,-22,+131,+84
74559,9.626,-1.697,2.490,-0.645225,0.103007,0.934835,100178.84,-23,+128,+86
74569,9.716,-1.571,2.165,-0.344583,0.041282,0.885881,100178.92,-23,+128,+86
74579,9.458,-2.168,1.817,0.009270,-0.001819,0.860872,100173.53,-24,+127,+85
74589,9.211,-3.648,1.542,0.146554,-0.003415,0.840119,100173.53,-25,+124,+85
74599,9.346,-4.470,1.427,-0.022657,0.035429,0.787973,100173.53,-27,+123,+84
74609,9.595,-3.839,1.404,-0.297757,0.087576,0.724651,100181.44,-27,+123,+84
74619,9.630,-2.896,1.558,-0.430253,0.110456,0.699642,100180.03,-27,+120,+86
74630,9.475,-2.449,1.675,-0.380766,0.118438,0.691129,100177.67,-27,+119,+86
74639,9.400,-2.814,1.724,-0.284455,0.123759,0.686872,100177.88,-28,+116,+86
74649,9.347,-3.473,1.790,-0.251464,0.135466,0.678890,100177.88,-28,+116,+86
74659,9.323,-3.749,1.816,-0.317445,0.156750,0.658670,100177.41,-29,+114,+88
74670,9.473,-3.399,1.821,-0.406308,0.176438,0.640046,100179.02,-30,+111,+89
74680,9.539,-3.166,2.013,-0.430253,0.188144,0.638982,100174.12,-30,+109,+90
74689,9.595,-2.958,2.162,-0.410032,0.180163,0.643771,100174.12,-30,+109,+90
74699,9.644,-2.836,2.418,-0.371721,0.179631,0.658138,100180.31,-30,+106,+91
74710,9.529,-3.329,2.616,-0.386620,0.182823,0.694853,100180.31,-31,+104,+92
74719,9.086,-3.432,2.280,-0.482399,0.198787,0.724119,100178.53,-31,+102,+93
74729,8.752,-3.065,1.624,-0.584032,0.223796,0.772009,100179.95,-31,+102,+93
74739,8.721,-2.690,1.183,-0.579243,0.249337,0.842248,100177.86,-33,+98,+94
74744,8.818,-2.432,1.053,-0.501555,0.253062,0.896523,100177.86,-32,+95,+95
74755,9.015,-2.376,1.303,-0.364271,0.252530,0.957716,100179.45,-32,+95,+95
74764,9.359,-2.856,1.730,-0.210491,0.253062,1.036468,100179.56,-32,+92,+96
74774,10.007,-3.274,2.362,-0.132271,0.261044,1.097660,100178.45,-33,+90,+98
74784,10.074,-3.622,2.611,-0.162069,0.287649,1.169495,100178.03,-33,+87,+98
74795,10.046,-3.543,2.366,-0.202510,0.290310,1.232284,100178.03,-33,+87,+98
74805,9.788,-2.673,2.550,-0.165794,0.239227,1.306247,100180.68,-34,+84,+98
74814,9.695,-2.186,2.697,-0.063629,0.187612,1.412669,100177.38,-34,+81,+98
74824,10.377,-2.468,2.670,0.028426,0.150897,1.523880,100177.49,-35,+78,+99
74834,11.084,-2.650,2.494,0.012463,0.110456,1.676064,100177.70,-35,+78,+99
74845,11.486,-2.224,2.386,-0.005629,0.074805,1.858577,100177.70,-37,+75,+99
74854,12.181,-2.277,2.229,0.092811,0.025319,2.070357,100176.30,-38,+72,+99
74864,12.859,-2.936,2.450,0.203490,-0.020975,2.276816,100179.97,-40,+67,+99
74874,13.588,-3.664,2.645,0.228499,-0.036938,2.452944,100178.44,-40,+67,+99
74885,14.083,-4.402,2.465,0.133784,-0.003415,2.579586,100177.08,-42,+63,+99
74894,14.600,-4.827,1.898,-0.072675,0.059374,2.687604,100177.08,-44,+57,+100
74904,15.602,-4.641,1.160,-0.339794,0.131209,2.797219,100179.87,-46,+51,+101
74914,17.678,-3.785,1.658,-0.536675,0.134401,2.918008,100181.60,-46,+51,+101
74925,19.412,-2.134,3.164,-0.598399,0.057778,3.048907,100176.30,-46,+43,+101
74935,21.037,-0.749,4.032,-0.735684,0.124291,3.177678,100180.02,-48,+35,+102
74944,23.450,0.375,4.758,-1.023023,0.248273,3.286760,100180.02,-48,+25,+104
74954,24.687,1.647,4.169,-1.482766,0.374915,3.387329,100177.70,-48,+25,+104
74964,24.984,3.695,3.225,-2.145774,0.576585,3.369237,100178.23,-47,+12,+106
74975,23.487,5.327,2.299,-2.911480,0.768676,3.247916,100174.87,-46,-1,+108
74984,20.506,4.463,0.843,-3.440930,0.809117,3.098925,100176.45,-42,-19,+108
74994,16.660,-0.115,0.134,-3.361645,0.658530,3.025494,100176.45,-42,-19,+108
75004,13.494,-8.074,0.855,-2.651811,0.375979,3.196833,100177.93,-39,-36,+108
75015,13.374,-10.938,2.705,-2.148967,0.114713,3.321347,100178.35,-37,-49,+108
75024,13.257,-7.035,4.960,-2.079793,0.051924,3.094668,100176.10,-34,-62,+107
75034,12.443,-4.712,4.688,-1.912710,0.187080,2.878100,100174.41,-30,-73,+105
75044,11.211,-5.630,4.682,-1.303977,0.232842,2.874375,100174.41,-30,-73,+105
75055,8.053,-6.630,6.596,-0.741005,0.286053,2.559898,100176.31,-26,-81,+105
75065,4.854,-4.438,6.437,-0.258381,0.328621,2.027256,100178.14,-22,-85,+106
75074,4.947,-0.097,1.683,-0.200913,0.264236,1.134376,100174.53,-20,-88,+106
75084,5.109,-0.824,0.742,-0.316913,0.269025,0.346854,100175.16,-20,-88,+106
75095,4.522,-0.199,2.324,-0.256785,0.398860,-0.062871,100175.16,-18,-89,+107
75105,3.939,2.033,1.409,-0.461115,0.317979,-0.638082,100178.86,-18,-90,+106
75114,2.908,3.856,0.727,-0.562216,0.314787,-1.273953,100179.97,-18,-89,+107
75124,2.026,4.481,0.218,-0.396198,0.353631,-1.749659,100173.83,-18,-89,+107
75134,1.571,3.153,0.079,-0.184418,0.478144,-2.052961,100174.09,-20,-88,+106
75145,1.740,0.894,0.303,0.001288,0.499961,-2.308906,100174.09,-20,-84,+108
75155,1.712,-0.912,0.595,0.275325,0.427594,-2.597310,100175.73,-22,-79,+108
75164,1.881,-1.464,0.620,0.457306,0.370126,-2.985750,100174.00,-22,-79,+108
75174,2.534,-0.930,0.301,0.528609,0.319576,-3.459860,100172.22,-25,-73,+110
75185,3.377,-0.057,0.132,0.573838,0.307869,-3.895658,100173.02,-27,-65,+111
75195,4.065,0.383,0.199,0.644609,0.314254,-4.226098,100173.02,-30,-56,+112
75204,4.453,0.096,0.704,0.760609,0.333943,-4.486832,100173.07,-30,-56,+112
75214,4.538,-0.625,1.456,0.852132,0.359484,-4.727877,100174.18,-33,-45,+113
75225,4.738,-1.079,1.898,0.903214,0.368530,-5.001382,100172.34,-33,-34,+114
75235,5.540,-1.223,2.143,0.920242,0.404713,-5.290318,100169.04,-35,-21,+114
75244,6.820,-1.363,2.238,0.922370,0.454731,-5.538280,100169.04,-35,-21,+114
75254,8.104,-1.644,2.123,0.979838,0.479208,-5.748996,100173.55,-35,-9,+116
75265,9.114,-1.883,1.953,1.086260,0.485062,-5.949069,100174.44,-34,+4,+117
75275,10.257,-2.156,1.882,1.167141,0.491979,-6.141693,100174.86,-32,+19,+118
75285,11.854,-2.643,1.734,1.225673,0.469631,-6.325803,100171.61,-32,+19,+118
75294,13.586,-3.104,1.771,1.276755,0.445686,-6.517363,100171.61,-29,+34,+117
75304,15.589,-3.434,2.051,1.315599,0.434511,-6.690298,100177.63,-24,+50,+117
75315,18.061,-3.940,2.629,1.441177,0.413227,-6.823326,100172.28,-18,+67,+117
75325,21.274,-5.249,2.768,1.656150,0.384493,-6.889839,100174.64,-18,+67,+117
75334,23.662,-9.536,3.814,1.648700,0.357887,-6.878133,100174.22,-10,+83,+115
75344,22.983,-13.980,3.630,1.276223,0.170585,-6.850463,100174.22,-3,+98,+114
75355,22.237,-15.438,3.177,0.603105,0.147172,-6.743509,100175.16,+7,+109,+113
75365,21.638,-15.720,3.836,0.157729,0.273282,-6.274720,100175.20,+7,+109,+113
75374,20.672,-17.020,5.315,0.271068,0.329686,-5.489326,100175.89,+16,+118,+113
75384,18.999,-20.662,4.835,0.542444,0.423337,-4.693290,100176.83,+24,+125,+112
75395,15.179,-28.926,5.675,0.537123,0.531887,-4.048373,100176.83,+33,+130,+111
75405,6.151,-30.354,4.880,-0.160473,0.446750,-3.426869,100178.16,+33,+130,+111
75415,4.611,-27.038,5.405,-0.783041,0.683539,-2.273787,100175.80,+40,+133,+112
75424,7.258,-18.763,1.975,-1.369426,0.747924,-0.627439,100178.78,+44,+129,+114
75435,10.440,-13.622,-0.358,-0.794748,0.720254,1.100853,100177.06,+44,+125,+116
75445,12.439,-14.248,0.228,0.264683,0.449942,2.424742,100177.06,+44,+125,+116
75455,14.070,-9.771,-0.124,1.201196,-0.011397,3.092540,100174.74,+41,+125,+116
75464,15.428,3.624,-2.996,1.151710,-0.635561,2.959512,100177.77,+34,+127,+114
75474,23.363,33.238,-7.014,1.583783,-0.748901,2.354504,100177.93,+29,+129,+111
75485,24.714,29.353,-8.364,1.395416,-0.557873,0.813514,100176.62,+26,+129,+109
75495,15.248,-12.857,-2.344,2.761342,-0.540314,2.305550,100176.62,+26,+132,+109
75504,11.673,-21.943,3.019,5.665065,-0.280112,3.891769,100179.20,+19,+143,+101
75514,9.831,-15.229,-0.068,4.035213,-0.215195,3.343164,100179.89,+12,+153,+93
75525,11.387,-10.278,2.126,1.473636,0.307337,2.464650,100179.09,+9,+154,+91
75535,9.958,-5.471,5.800,0.913857,0.599465,2.594485,100177.63,+9,+154,+91
75544,8.483,-2.971,7.276,0.974517,0.529759,2.430595,100177.63,+7,+153,+91
75554,8.614,-4.440,3.419,0.579160,0.424401,2.172522,100176.63,+3,+151,+89
