110017,9.630,-0.730,1.853,-0.002470,-0.004150,-0.003680,100140.45,-78,+11,-297
110027,9.675,-0.783,1.876,-0.005130,-0.004150,-0.011129,100140.02,-78,+11,-297
110038,9.575,-0.760,1.824,-0.008323,-0.005746,-0.017514,100140.13,-78,+11,-298
110048,9.505,-0.684,1.884,-0.007791,-0.005214,-0.022303,100142.18,-76,+11,-297
110057,9.510,-0.669,1.861,-0.003534,-0.007875,-0.026560,100142.18,-77,+11,-296
110067,9.550,-0.653,1.867,-0.001938,-0.007875,-0.026028,100141.80,-77,+11,-296
110077,9.636,-0.590,1.848,-0.004066,-0.006810,-0.024432,100141.38,-76,+11,-297
110088,9.722,-0.578,1.812,-0.009919,-0.005746,-0.020175,100141.53,-77,+11,-297
110098,9.638,-0.547,1.854,-0.009919,-0.003086,-0.017514,100139.55,-77,+11,-298
110107,9.578,-0.581,1.891,-0.010452,-0.000957,-0.016982,100139.55,-77,+11,-298
110117,9.601,-0.627,1.849,-0.014708,-0.000957,-0.016982,100144.40,-77,+11,-298
110128,9.575,-0.641,1.824,-0.015241,-0.000425,-0.016982,100141.88,-76,+12,-297
110138,9.537,-0.657,1.844,-0.009919,0.000107,-0.017514,100139.68,-78,+12,-297
110147,9.596,-0.624,1.807,-0.005130,0.000107,-0.017514,100141.26,-78,+12,-297
110157,9.608,-0.667,1.866,0.002319,0.001703,-0.017514,100141.26,-76,+12,-297
110168,9.596,-0.658,1.883,0.002851,-0.000957,-0.016450,100145.49,-77,+11,-297
110178,9.590,-0.668,1.925,-0.001938,0.000639,-0.016450,100142.51,-77,+11,-297
110187,9.563,-0.582,1.940,-0.011516,-0.003086,-0.015386,100142.60,-77,+11,-297
110197,9.618,-0.529,1.911,-0.017901,-0.004682,-0.012725,100141.30,-77,+11,-296
110208,9.660,-0.571,1.886,-0.009387,-0.005746,-0.007936,100141.30,-77,+12,-298
110218,9.580,-0.657,1.864,-0.005130,-0.005746,-0.005808,100139.82,-77,+11,-297
110228,9.560,-0.697,1.862,-0.004066,-0.005214,-0.007936,100141.85,-77,+11,-297
110237,9.598,-0.672,1.850,-0.006727,-0.006810,-0.010065,100138.29,-76,+12,-296
110247,9.584,-0.608,1.895,-0.010452,-0.007342,-0.011661,100140.38,-76,+11,-298
110258,9.586,-0.577,1.885,-0.008323,-0.007875,-0.011661,100140.38,-77,+11,-297
110268,9.598,-0.527,1.859,-0.003002,-0.008407,-0.012725,100141.83,-77,+11,-297
110277,9.582,-0.623,1.889,0.004980,-0.006810,-0.010065,100139.00,-77,+12,-296
110287,9.594,-0.609,1.871,-0.001938,-0.008407,-0.010065,100140.61,-76,+13,-296
110298,9.614,-0.619,1.870,-0.008323,-0.008939,-0.011129,100138.31,-76,+11,-297
110303,9.589,-0.644,1.861,-0.010984,-0.008407,-0.010065,100138.31,-76,+11,-297
110312,9.601,-0.564,1.881,-0.013644,-0.007875,-0.010065,100138.31,-76,+11,-296
110323,9.620,-0.562,1.842,-0.011516,-0.007342,-0.006872,100141.98,-77,+12,-296
110332,9.574,-0.587,1.855,-0.012048,-0.007342,-0.004212,100143.49,-77,+12,-296
110343,9.557,-0.539,1.907,-0.008855,-0.006278,-0.001019,100140.49,-76,+11,-297
110353,9.628,-0.569,1.887,-0.007259,-0.005214,0.000577,100140.49,-76,+13,-296
110363,9.594,-0.654,1.865,-0.002470,-0.005214,0.001109,100137.79,-77,+11,-297
110372,9.572,-0.635,1.847,-0.004066,-0.006278,0.001642,100138.46,-77,+11,-297
110383,9.602,-0.648,1.866,-0.004598,-0.005214,0.001109,100138.46,-77,+11,-297
110393,9.624,-0.629,1.860,-0.001406,-0.005746,-0.000487,100139.73,-78,+12,-296
110402,9.605,-0.595,1.878,-0.001938,-0.006810,-0.000487,100138.46,-77,+12,-296
110412,9.606,-0.595,1.885,-0.003002,-0.007875,0.000577,100138.46,-77,+12,-296
110423,9.604,-0.607,1.878,-0.003534,-0.007875,0.003238,100140.77,-76,+12,-296
110433,9.575,-0.599,1.878,-0.006195,-0.011067,0.003770,100139.93,-77,+12,-298
110443,9.604,-0.590,1.866,-0.003534,-0.010535,0.005898,100138.30,-76,+12,-297
110452,9.612,-0.645,1.855,-0.001938,-0.009471,0.005898,100139.62,-76,+12,-297
110462,9.625,-0.632,1.847,-0.005130,-0.008407,0.003770,100143.21,-76,+11,-298
110473,9.598,-0.657,1.820,-0.008323,-0.008407,0.004302,100143.88,-76,+12,-297
110483,9.569,-0.633,1.856,-0.010984,-0.010535,0.002706,100142.57,-76,+12,-297
110493,9.580,-0.585,1.864,-0.007791,-0.009471,0.002706,100143.57,-76,+12,-297
110502,9.626,-0.599,1.840,-0.003534,-0.009471,0.003238,100143.57,-76,+11,-297
110513,9.673,-0.645,1.819,-0.001938,-0.007875,0.003770,100143.57,-77,+12,-297
110523,9.628,-0.608,1.866,-0.007259,-0.007875,0.004302,100142.09,-76,+12,-297
110532,9.679,-0.551,1.904,-0.011516,-0.007342,0.004302,100138.99,-76,+12,-297
110538,9.711,-0.589,1.859,-0.015241,-0.006278,0.006963,100138.68,-77,+12,-298
110547,9.674,-0.590,1.872,-0.017901,-0.006810,0.009091,100141.24,-77,+12,-297
110558,9.616,-0.550,1.834,-0.025351,-0.007875,0.013880,100141.24,-77,+12,-297
110568,9.576,-0.576,1.817,-0.023754,-0.005746,0.019201,100140.90,-77,+13,-298
110577,9.566,-0.584,1.794,-0.018433,-0.006810,0.023990,100141.48,-76,+12,-298
110587,9.699,-0.539,1.823,-0.010984,-0.005746,0.027183,100142.32,-77,+11,-298
110598,9.832,-0.588,1.781,-0.005130,-0.005214,0.030908,100138.34,-77,+11,-298
110608,9.711,-0.577,1.808,-0.012048,-0.002021,0.034632,100138.34,-77,+12,-297
110618,9.654,-0.530,1.743,-0.026415,0.001171,0.041018,100141.28,-76,+11,-298
110627,9.691,-0.486,1.771,-0.028011,0.005428,0.051660,100141.23,-76,+11,-298
110638,9.669,-0.478,1.767,-0.022690,0.011281,0.063898,100140.19,-76,+11,-298
110648,9.686,-0.535,1.737,-0.016837,0.013410,0.077733,100141.17,-76,+11,-297
110658,9.580,-0.617,1.715,-0.012580,0.015006,0.092632,100141.17,-76,+12,-297
110667,9.407,-0.608,1.670,-0.022690,0.015538,0.105403,100141.66,-77,+11,-298
110678,9.399,-0.455,1.665,-0.026415,0.013410,0.118706,100142.97,-77,+11,-298
110688,9.577,-0.417,1.659,-0.004598,0.012346,0.135733,100140.94,-76,+11,-297
110698,9.620,-0.392,1.612,0.034246,0.014474,0.160742,100136.27,-76,+11,-297
110707,9.523,-0.364,1.563,0.072025,0.018731,0.188412,100136.27,-77,+10,-297
110717,9.425,-0.442,1.546,0.102356,0.026180,0.220871,100144.28,-77,+10,-297
110728,9.356,-0.408,1.781,0.110869,0.035758,0.244816,100140.98,-77,+9,-296
110738,9.416,-0.193,1.759,0.145989,0.055979,0.261311,100142.77,-76,+9,-296
110748,9.645,-1.167,1.911,0.234319,0.069813,0.242155,100142.39,-78,+7,-296
110757,9.667,-1.919,1.872,0.262521,0.065024,0.192137,100142.39,-78,+7,-296
110768,9.346,-1.807,2.054,0.224741,0.055979,0.141054,100142.16,-78,+6,-296
110778,8.969,-1.653,2.314,0.196539,0.046933,0.084651,100141.79,-77,+5,-296
110788,8.738,-1.544,2.476,0.149714,0.041080,0.029311,100140.32,-78,+4,-296
110797,8.739,-1.490,2.375,0.119915,0.040015,-0.024964,100140.59,-78,+4,-296
110808,8.879,-1.529,1.921,0.124704,0.032566,-0.079239,100140.59,-78,+4,-296
110818,9.041,-1.444,1.793,0.163548,0.030969,-0.118615,100142.77,-78,+4,-296
110828,9.410,-1.368,2.078,0.226869,0.027245,-0.165441,100140.73,-78,+5,-296
110837,9.838,-1.528,2.103,0.266246,0.014474,-0.218652,100140.32,-78,+5,-296
110848,10.108,-1.628,1.913,0.238044,0.003300,-0.281441,100137.96,-78,+4,-296
110858,10.024,-1.698,1.993,0.159824,-0.013196,-0.344230,100137.96,-78,+4,-296
110868,9.629,-1.523,1.949,0.038503,-0.028095,-0.408615,100144.63,-78,+5,-296
110878,9.223,-0.972,1.807,-0.026947,-0.030223,-0.462358,100140.13,-78,+5,-296
110887,9.084,-0.566,1.701,0.009237,-0.017453,-0.493221,100142.23,-78,+7,-296
110894,9.381,-0.421,1.471,0.086925,-0.004150,-0.514505,100138.98,-78,+7,-296
110903,9.848,-0.759,1.276,0.172062,0.017135,-0.536854,100138.98,-78,+7,-296
110913,10.146,-1.196,1.072,0.236980,0.042676,-0.573569,100138.98,-78,+8,-295
110923,10.172,-1.201,0.996,0.248154,0.065557,-0.626248,100142.15,-78,+9,-296
110932,10.206,-1.051,1.230,0.256135,0.088969,-0.682652,100140.63,-79,+10,-295
110943,10.357,-0.961,1.902,0.250282,0.101740,-0.741716,100140.02,-79,+10,-295
110953,10.267,-0.759,2.443,0.194943,0.093758,-0.794395,100140.02,-79,+11,-294
110963,9.693,-0.442,2.740,0.085328,0.069281,-0.817275,100145.23,-78,+12,-296
110972,9.489,0.165,2.703,-0.051956,0.038419,-0.812486,100145.23,-79,+15,-295
110983,9.464,0.946,2.613,-0.180727,0.012878,-0.764064,100141.66,-79,+15,-295
110993,9.376,1.794,2.408,-0.243516,0.001703,-0.672541,100143.55,-79,+16,-295
111003,9.380,1.861,2.419,-0.220103,0.000107,-0.556542,100140.77,-78,+19,-295
111012,9.328,2.210,2.497,-0.180195,-0.012664,-0.421918,100140.77,-79,+21,-296
111023,9.361,1.896,2.670,-0.122727,-0.028627,-0.292615,100144.84,-79,+21,-296
111033,9.649,1.511,2.472,-0.097718,-0.053104,-0.182468,100141.50,-78,+22,-295
111043,9.686,1.082,2.117,-0.105699,-0.069599,-0.093074,100143.02,-78,+22,-295
111053,9.554,0.762,1.935,-0.134433,-0.080241,-0.024432,100143.11,-78,+23,-296
111063,9.525,0.807,1.728,-0.148800,-0.085030,0.023458,100143.70,-78,+23,-296
111073,9.566,0.839,1.739,-0.116341,-0.081838,0.063898,100141.45,-78,+23,-296
111083,9.550,0.783,1.831,-0.051956,-0.081306,0.100082,100140.71,-78,+22,-296
111093,9.501,0.487,1.816,0.014558,-0.077049,0.125091,100140.71,-77,+22,-296
111102,9.583,0.142,1.868,0.053934,-0.073324,0.138926,100138.40,-77,+22,-296
111113,9.570,-0.104,2.044,0.039567,-0.079177,0.132008,100138.40,-77,+22,-296
111123,9.516,-0.211,2.215,-0.017901,-0.093012,0.119238,100140.13,-77,+22,-296
111133,9.552,-0.102,2.266,-0.083351,-0.115893,0.101146,100138.39,-76,+21,-297
111142,9.680,-0.078,1.919,-0.128580,-0.135049,0.085183,100140.13,-76,+21,-297
111153,9.659,-0.029,1.756,-0.146672,-0.135049,0.077201,100138.13,-75,+23,-297
111163,9.491,0.322,1.722,-0.140818,-0.124939,0.066559,100138.13,-76,+23,-297
111173,9.440,0.552,1.751,-0.121130,-0.114297,0.060706,100142.66,-75,+23,-298
111183,9.491,0.610,1.741,-0.071644,-0.107911,0.077201,100141.12,-75,+23,-298
111193,9.514,0.545,1.779,-0.004066,-0.095141,0.104339,100139.60,-76,+23,-296
111203,9.547,0.342,1.842,0.017218,-0.085030,0.132008,100139.60,-75,+22,-298
111213,9.538,0.211,1.940,-0.004598,-0.081838,0.159678,100139.60,-75,+21,-298
111223,9.532,0.343,1.996,-0.053020,-0.082902,0.183091,100140.48,-74,+21,-298
111233,9.538,0.549,1.987,-0.076965,-0.082902,0.216082,100141.84,-74,+21,-298
111243,9.601,0.664,2.055,-0.059938,-0.079177,0.250669,100140.63,-74,+21,-298
111253,9.584,0.749,1.971,-0.052488,-0.079709,0.300687,100140.73,-74,+20,-298
111263,9.508,0.954,1.785,-0.049296,-0.081306,0.366137,100140.73,-74,+19,-298
111273,9.565,0.868,1.689,-0.040782,-0.075985,0.448614,100144.23,-74,+19,-298
111283,9.588,0.995,1.927,-0.045039,-0.062682,0.536944,100142.13,-74,+19,-299
111293,9.464,1.333,1.866,-0.022158,-0.046186,0.624210,100141.04,-74,+17,-299
111303,9.732,0.713,1.482,0.089585,-0.046719,0.691788,100141.04,-74,+15,-299
111313,9.891,0.221,1.744,0.198668,-0.033416,0.741274,100142.48,-74,+15,-299
111323,10.027,-0.249,2.053,0.112466,-0.033416,0.807256,100142.48,-74,+13,-299
111333,9.802,0.094,1.884,-0.105167,-0.039269,0.888668,100139.80,-73,+12,-299
111343,9.638,1.304,1.513,-0.296727,-0.027563,1.026485,100141.74,-74,+9,-299
111353,9.929,2.707,1.192,-0.369094,0.013410,1.202613,100142.37,-74,+9,-299
111363,10.787,3.419,1.500,-0.209461,0.047465,1.395237,100142.37,-74,+7,-299
111373,11.457,2.496,1.800,0.105548,0.061832,1.596907,100144.17,-74,+3,-299
111383,11.666,0.810,2.119,0.250282,0.093758,1.760264,100140.41,-74,-1,-298
111393,12.238,-0.449,1.448,0.080007,0.142180,1.868283,100141.25,-74,-1,-298
111404,13.291,-1.233,0.629,-0.190305,0.219336,1.942778,100140.41,-76,-5,-297
111413,16.423,-1.547,0.081,-0.415919,0.281061,1.976833,100145.14,-75,-8,-296
111423,21.415,-0.341,0.180,-0.623442,0.302878,2.002374,100143.88,-76,-11,-297
111433,24.670,1.575,0.195,-0.888433,0.352364,2.043879,100143.63,-76,-11,-297
111442,24.079,1.928,0.061,-1.133203,0.439098,2.104007,100143.63,-77,-13,-296
111453,22.421,2.674,-0.362,-1.172579,0.491776,2.101879,100141.05,-78,-15,-294
111463,19.337,4.172,-0.367,-0.844267,0.444951,2.038026,100141.05,-78,-17,-294
111473,14.702,3.590,-0.097,-0.561717,0.295428,2.063035,100143.98,-78,-17,-294
111483,11.766,-2.765,3.838,0.021298,0.313697,2.251756,100142.75,-78,-21,-293
111493,11.749,-7.674,6.565,0.486007,0.384290,2.216282,100142.75,-78,-28,-291
111503,12.071,-8.589,5.067,0.329567,0.340657,1.950227,100138.91,-79,-34,-289
111513,10.827,-9.433,4.015,0.042759,0.317244,1.787934,100138.91,-79,-34,-289
111523,10.076,-9.988,4.999,-0.193497,0.347043,1.723549,100147.76,-78,-36,-287
111534,9.666,-8.091,3.675,-0.426561,0.265630,1.514430,100144.88,-78,-39,-287
111543,8.223,-6.206,3.354,-0.516488,0.239024,1.401090,100140.65,-78,-41,-287
111553,6.984,-5.448,3.051,-0.507974,0.196988,1.303714,100140.65,-78,-41,-287
111563,5.888,-5.100,2.989,-0.468598,0.182089,1.190375,100140.65,-77,-42,-287
111574,4.994,-4.824,2.652,-0.452103,0.166657,1.111090,100141.63,-77,-44,-286
111583,4.279,-4.547,2.281,-0.369094,0.163997,1.048834,100141.73,-76,-45,-286
111593,3.601,-4.287,1.935,-0.225424,0.156547,0.968485,100144.41,-76,-45,-286
111603,2.729,-3.994,1.703,-0.049828,0.145373,0.867384,100139.95,-77,-47,-286
111612,1.962,-3.844,1.713,0.156099,0.137924,0.748724,100139.95,-77,-49,-284
111624,1.373,-3.971,1.694,0.355108,0.120364,0.636449,100143.37,-77,-53,-282
111633,0.927,-3.980,1.574,0.516869,0.094823,0.532687,100141.96,-77,-53,-282
111643,0.581,-3.957,1.346,0.627016,0.069813,0.445953,100140.30,-77,-55,-282
111653,0.315,-3.947,1.134,0.671181,0.042676,0.371458,100140.30,-77,-57,-282
111664,0.042,-3.925,1.003,0.677034,0.019263,0.304944,100140.63,-77,-59,-281
111673,-0.161,-3.939,0.985,0.654686,-0.003086,0.244816,100138.69,-77,-59,-281
111683,-0.277,-3.907,1.072,0.607860,-0.032352,0.185752,100138.69,-76,-62,-279
111693,-0.280,-3.741,1.109,0.542410,-0.068535,0.128284,100138.91,-76,-63,-280
111703,-0.183,-3.497,1.163,0.496117,-0.101526,0.079862,100137.48,-76,-65,-280
111713,-0.103,-3.309,1.296,0.478025,-0.129196,0.025586,100137.48,-76,-65,-279
111723,-0.104,-3.419,1.417,0.476961,-0.156865,-0.028689,100141.27,-76,-66,-279
111733,-0.202,-3.802,1.655,0.474833,-0.173893,-0.092010,100138.60,-74,-67,-279
111744,-0.261,-4.087,1.949,0.435989,-0.199434,-0.165973,100138.29,-75,-68,-279
111754,-0.190,-4.085,2.024,0.392888,-0.224443,-0.239936,100139.80,-76,-69,-280
111763,0.126,-4.063,2.066,0.356172,-0.237214,-0.320285,100143.02,-76,-69,-280
111773,0.526,-4.019,1.933,0.325842,-0.265948,-0.408615,100139.09,-74,-68,-280
111783,0.879,-4.034,1.771,0.269438,-0.294682,-0.494817,100140.19,-74,-68,-281
111794,1.334,-3.977,1.524,0.199732,-0.335122,-0.596450,100139.94,-74,-67,-281
111803,1.764,-3.820,1.362,0.141200,-0.388333,-0.694358,100139.94,-74,-67,-281
111813,2.146,-3.686,1.193,0.115126,-0.436223,-0.793330,100139.94,-73,-65,-282
111823,2.723,-3.614,1.400,0.119383,-0.476663,-0.908266,100145.49,-73,-64,-283
111834,3.587,-3.621,1.740,0.160356,-0.522425,-1.032248,100141.66,-74,-62,-285
111839,4.339,-3.725,2.038,0.207181,-0.555416,-1.129624,100139.73,-74,-62,-285
111848,5.015,-3.940,2.237,0.241768,-0.579360,-1.239238,100140.35,-73,-60,-286
111858,5.908,-4.197,2.389,0.234319,-0.602773,-1.393018,100140.35,-73,-60,-286
111868,6.574,-4.228,2.375,0.157695,-0.607562,-1.555844,100144.46,-72,-57,-287
111878,7.120,-4.116,2.153,0.031585,-0.591599,-1.714944,100144.46,-71,-53,-289
111888,7.610,-3.937,2.060,-0.096653,-0.546370,-1.862871,100140.27,-72,-49,-291
111898,8.682,-3.608,2.250,-0.156782,-0.499012,-2.020375,100140.74,-72,-49,-291
111908,10.147,-3.435,2.377,-0.121662,-0.486241,-2.165109,100140.74,-72,-44,-292
111919,11.585,-3.436,2.472,-0.042378,-0.479856,-2.301862,100141.65,-71,-39,-293
111928,12.957,-3.196,2.517,0.014026,-0.486773,-2.444999,100142.02,-72,-34,-296
111938,14.253,-2.625,2.312,0.029989,-0.501140,-2.571641,100141.49,-72,-34,-296
111948,15.454,-2.033,2.182,0.030521,-0.504333,-2.662100,100140.18,-71,-28,-296
111959,16.313,-1.479,2.194,0.056062,-0.493159,-2.709458,100140.18,-71,-21,-298
111968,16.850,-1.189,2.517,0.169402,-0.425049,-2.703072,100141.50,-71,-16,-300
111978,17.909,-1.486,2.893,0.312007,-0.335122,-2.656779,100142.64,-70,-16,-300
111988,18.721,-2.321,3.602,0.407255,-0.232957,-2.555146,100142.33,-70,-10,-300
111998,18.272,-8.131,8.877,0.627548,0.125685,-2.226302,100140.92,-71,-7,-301
112008,18.957,-6.634,4.024,0.271567,-0.006810,-1.926724,100140.92,-72,-3,-301
112018,17.121,-3.729,-2.429,-0.461149,-0.041397,-1.794761,100144.52,-71,+1,-301
112028,20.291,4.841,-9.963,-1.496102,-0.286700,-1.569679,100144.83,-71,+1,-301
112038,19.988,9.183,-10.315,-1.551441,-0.430902,-1.540945,100146.41,-70,+10,-303
112049,14.955,6.269,1.048,-0.547882,0.093758,-1.407385,100145.25,-69,+15,-302
112058,10.803,1.857,2.832,-0.225424,0.256052,-1.154101,100145.25,-70,+19,-303
112068,9.249,-1.188,-0.164,-0.068451,0.206034,-0.850266,100149.09,-70,+19,-303
112074,9.469,-1.085,0.793,0.161420,0.149098,-0.707129,100145.13,-69,+20,-303
112083,9.430,1.198,1.731,0.449823,0.034162,-0.720431,100145.13,-69,+20,-303
112094,8.488,2.801,3.659,0.830814,0.076199,-0.638487,100145.86,-71,+20,-302
112103,8.884,1.940,4.733,0.882429,0.095887,-0.427771,100141.61,-71,+18,-301
112113,8.666,1.128,4.110,0.365218,0.075135,-0.226101,100141.61,-71,+17,-301
112123,7.861,1.412,3.517,-0.216378,0.088437,-0.132982,100144.42,-71,+17,-301
112134,7.859,2.249,3.257,-0.620249,0.079391,-0.058487,100143.45,-72,+19,-301
112144,8.010,2.875,3.050,-0.712304,0.070878,0.075073,100142.94,-72,+21,-301
112153,8.119,3.397,2.453,-0.471259,0.094291,0.218210,100142.94,-71,+21,-301
112163,8.564,3.193,1.619,-0.035993,0.154419,0.345384,100142.94,-71,+21,-301
112174,9.316,1.761,0.799,0.370007,0.213483,0.440100,100144.62,-73,+20,-300
112183,10.062,-0.176,0.499,0.617438,0.246474,0.498632,100145.77,-73,+18,-300
112194,10.514,-1.591,0.162,0.690337,0.266162,0.517079,100144.88,-74,+15,-299
112203,10.651,-1.847,0.243,0.675970,0.295428,0.510338,100144.88,-74,+15,-299
112214,10.536,-1.350,0.599,0.706300,0.333740,0.475751,100144.88,-74,+11,-298
112224,10.157,-0.891,1.441,0.744612,0.360345,0.410834,100145.20,-76,+8,-298
112233,9.888,-0.473,2.012,0.831346,0.351832,0.348045,100145.09,-77,+5,-296
112243,9.735,-0.721,2.353,0.819640,0.336400,0.312926,100142.45,-78,+3,-296
112253,9.632,-1.033,2.646,0.703108,0.306602,0.281531,100142.45,-78,+3,-296
112264,9.595,-1.044,2.553,0.482282,0.267758,0.239495,100144.67,-78,+0,-295
112273,9.655,-1.148,2.359,0.249218,0.237960,0.200118,100144.67,-80,-1,-294
112283,9.693,-1.174,2.250,0.037438,0.205501,0.151164,100146.39,-80,-1,-294
112293,9.729,-0.995,2.181,-0.081754,0.178896,0.096889,100144.83,-80,-1,-294
112304,9.681,-0.745,2.172,-0.102507,0.154419,0.040486,100143.31,-81,-1,-294
112313,9.786,-0.636,2.041,-0.055681,0.145905,-0.011129,100143.31,-81,+0,-294
112323,9.832,-0.888,2.083,-0.003534,0.153887,-0.053166,100144.72,-82,+0,-293
112333,9.900,-1.110,2.171,-0.040782,0.150694,-0.092010,100143.78,-82,+0,-293
112344,9.902,-0.911,2.424,-0.156250,0.134199,-0.120744,100141.53,-82,+0,-293
112354,9.680,-0.278,2.509,-0.285552,0.107593,-0.124468,100141.84,-82,+1,-293
112363,9.472,0.737,2.461,-0.369094,0.083116,-0.087221,100142.42,-82,+2,-293
112373,9.444,1.512,2.490,-0.361644,0.069281,-0.009001,100143.16,-82,+2,-293
112384,9.365,1.876,2.484,-0.287681,0.063960,0.100614,100143.94,-82,+2,-292
112394,9.412,1.681,2.370,-0.213185,0.060235,0.222467,100143.94,-82,+2,-293
112403,9.493,1.192,2.339,-0.181791,0.052786,0.342192,100139.70,-82,+2,-293
112413,9.511,0.869,2.272,-0.189240,0.040015,0.437972,100139.70,-82,+2,-293
112423,9.602,0.554,2.299,-0.181259,0.028841,0.520981,100145.14,-83,+1,-292
112429,9.594,0.378,2.259,-0.170617,0.019263,0.576320,100142.47,-83,+1,-292
112439,9.509,0.208,2.235,-0.155717,0.014474,0.619953,100141.06,-83,+1,-292
112448,9.464,-0.093,2.171,-0.145075,0.010749,0.666779,100142.16,-83,+0,-291
112458,9.462,-0.297,2.133,-0.147736,0.009685,0.702962,100142.16,-83,-1,-292
112468,9.406,-0.394,2.196,-0.151993,0.007025,0.727439,100144.91,-83,-1,-292
112479,9.350,-0.483,2.162,-0.131240,0.006492,0.748724,100144.02,-82,-2,-292
112488,9.398,-0.617,2.206,-0.100910,0.008089,0.760430,100142.93,-83,-5,-292
112498,9.382,-0.681,2.156,-0.083883,0.008089,0.776393,100140.88,-82,-5,-292
112508,9.437,-0.988,2.085,-0.065259,0.012878,0.781182,100140.88,-82,-5,-292
112519,9.548,-1.386,2.075,-0.047167,0.007557,0.768412,100143.02,-82,-7,-292
112528,9.581,-1.334,2.183,-0.053020,-0.001489,0.753513,100142.53,-82,-9,-293
112538,9.520,-1.340,2.202,-0.064727,-0.012131,0.742870,100142.59,-82,-11,-291
112548,9.411,-1.262,2.300,-0.088140,-0.015324,0.744999,100138.56,-82,-13,-291
112559,9.379,-1.121,2.206,-0.098250,-0.012131,0.748724,100138.56,-82,-13,-291
112569,9.516,-1.305,2.145,-0.087607,-0.005214,0.758302,100142.53,-82,-14,-291
112578,9.486,-1.239,2.089,-0.087607,0.000639,0.771072,100143.95,-82,-15,-292
112588,9.556,-1.372,2.048,-0.072176,0.011281,0.787036,100143.33,-82,-17,-292
112599,9.514,-1.575,2.120,-0.061534,0.017667,0.801935,100139.66,-82,-17,-292
112609,9.475,-1.546,2.256,-0.106763,0.016070,0.821091,100139.66,-82,-19,-291
112618,9.436,-1.197,2.305,-0.138158,0.012346,0.853549,100143.32,-81,-21,-291
112628,9.441,-0.175,2.442,-0.140286,0.012878,0.909421,100146.05,-81,-23,-291
112638,9.493,-0.508,2.184,-0.026415,0.037355,0.965292,100140.76,-81,-23,-291
112649,9.517,-1.508,2.237,0.111402,0.050125,1.015843,100140.55,-80,-25,-291
112658,9.967,-2.296,2.279,0.068301,0.029373,1.047769,100140.55,-80,-28,-290
112668,10.026,-2.249,2.227,-0.053552,0.018731,1.094595,100145.62,-80,-30,-291
112678,9.641,-1.408,2.666,-0.186580,0.008621,1.171751,100142.48,-80,-30,-291
112689,9.926,-1.019,2.496,-0.255754,0.001703,1.269659,100140.85,-80,-33,-290
112699,10.325,-1.474,2.548,-0.216910,0.004896,1.375017,100140.90,-78,-35,-291
112708,10.579,-2.500,2.336,-0.177002,-0.014792,1.449512,100140.90,-78,-37,-291
112718,10.692,-3.111,1.867,-0.182855,-0.048315,1.519751,100143.35,-78,-37,-291
112729,10.661,-2.606,1.622,-0.186580,-0.088755,1.593182,100140.95,-76,-42,-292
112739,11.077,-2.197,1.455,-0.144543,-0.107911,1.676191,100142.62,-76,-45,-291
112748,11.763,-2.005,1.376,-0.069516,-0.122278,1.761329,100136.70,-74,-49,-291
112758,12.714,-1.833,1.966,0.003915,-0.119086,1.842209,100136.70,-74,-49,-291
112769,13.763,-2.075,2.132,0.015090,-0.100462,1.923090,100143.38,-72,-53,-291
112779,14.295,-2.167,1.893,-0.059406,-0.082902,2.014613,100141.38,-70,-58,-291
112784,14.366,-1.978,1.703,-0.133369,-0.070131,2.094961,100141.06,-70,-58,-291
112793,14.452,-1.701,1.434,-0.204139,-0.050443,2.183824,100141.06,-69,-63,-292
112803,15.102,-1.558,1.173,-0.297791,-0.019581,2.318447,100141.48,-66,-67,-292
112814,16.440,-1.306,0.996,-0.421240,0.003832,2.457860,100141.48,-65,-71,-292
112824,18.040,0.008,1.149,-0.622378,0.031502,2.596741,100142.80,-65,-71,-292
112834,19.004,1.855,1.569,-0.831497,0.077795,2.766484,100140.79,-60,-74,-292
112843,19.516,3.111,2.079,-1.025185,0.169318,2.945273,100138.77,-58,-77,-293
112854,20.204,4.377,2.498,-1.283258,0.290107,3.079896,100138.77,-56,-80,-293
112864,20.033,5.344,2.654,-1.607313,0.376841,3.157052,100138.77,-56,-80,-293
112874,18.527,4.726,2.485,-1.971276,0.405043,3.195896,100140.91,-53,-81,-295
112883,16.909,2.628,1.847,-2.247973,0.366199,3.151731,100141.48,-50,-82,-296
112893,15.248,-0.153,2.437,-2.220303,0.327355,3.062337,100141.06,-49,-81,-298
112904,13.816,-3.764,3.861,-1.591882,0.226786,3.113951,100138.91,-49,-81,-298
112914,13.228,-6.961,4.863,-0.777754,0.113446,3.322006,100138.91,-46,-84,-298
112924,13.176,-6.644,5.870,-0.180727,0.155483,3.415126,100140.87,-42,-90,-298
112933,12.570,-5.288,5.260,0.216759,0.213483,3.303915,100138.73,-39,-97,-298
112944,11.010,-3.990,5.519,0.408319,0.318309,3.019236,100136.20,-39,-97,-298
112954,8.749,-2.727,4.312,0.169934,0.243813,2.451475,100136.20,-35,-103,-296
112964,6.671,0.326,1.737,-0.464873,0.006492,1.694815,100138.58,-34,-105,-296
112973,6.126,1.811,0.344,-0.754341,-0.081306,1.121201,100135.77,-32,-104,-298
112984,5.744,1.881,1.057,-0.663882,-0.029159,0.860467,100135.77,-32,-104,-298
112994,5.117,2.723,1.053,-0.681442,-0.182939,0.484797,100135.97,-32,-104,-299
113004,3.541,2.979,0.969,-0.490415,-0.308517,-0.037735,100137.86,-31,-102,-300
113013,2.419,3.094,1.339,-0.206800,-0.352150,-0.507587,100137.86,-31,-101,-301
113024,1.899,2.831,1.020,0.086392,-0.456443,-0.922633,100139.95,-31,-101,-301
113034,1.548,2.036,0.815,0.467915,-0.538920,-1.309477,100138.02,-31,-100,-302
113044,1.421,1.132,0.786,0.861676,-0.605966,-1.686211,100135.19,-33,-99,-301
113054,1.660,0.445,1.036,1.179878,-0.683122,-2.070926,100135.92,-34,-99,-301
113063,2.077,0.073,1.404,1.416667,-0.756021,-2.447660,100137.24,-34,-99,-301
113074,2.389,-0.030,1.923,1.571511,-0.821470,-2.808430,100136.09,-35,-98,-301
113084,2.713,0.024,2.453,1.694428,-0.874149,-3.152173,100133.73,-38,-98,-300
113094,3.078,0.044,2.973,1.813621,-0.923635,-3.490595,100134.15,-40,-97,-300
113103,3.711,-0.072,3.311,1.889180,-0.977378,-3.824228,100134.15,-40,-97,-300
113114,4.425,-0.265,3.419,1.852465,-1.040167,-4.151475,100134.15,-44,-95,-300
113124,5.112,-0.509,3.392,1.719970,-1.086461,-4.437750,100135.36,-47,-91,-300
113134,5.871,-0.761,3.392,1.535327,-1.097103,-4.683053,100135.41,-49,-87,-300
113139,6.520,-0.915,3.489,1.387401,-1.083268,-4.853328,100132.84,-49,-87,-300
113148,7.249,-0.961,3.529,1.257566,-1.062516,-5.017750,100132.69,-52,-80,-301
113159,8.308,-0.973,3.559,1.119750,-1.022076,-5.234850,100132.69,-55,-73,-303
113169,9.521,-1.013,3.563,1.017585,-0.968333,-5.442373,100132.66,-55,-73,-303
113179,10.922,-1.317,3.620,0.901052,-0.913525,-5.629144,100134.29,-58,-64,-303
113188,12.097,-1.650,3.640,0.786649,-0.841691,-5.806336,100132.04,-60,-53,-306
113199,13.069,-1.644,3.595,0.708961,-0.743782,-5.993107,100134.35,-62,-43,-307
113209,14.536,-1.483,3.666,0.665860,-0.635232,-6.184667,100134.35,-62,-43,-307
113219,16.389,-1.330,4.168,0.800484,-0.496883,-6.324080,100136.16,-65,-30,-308
113228,18.694,-1.244,4.603,1.071860,-0.342039,-6.380483,100136.53,-66,-19,-309
113239,20.461,-2.105,5.288,1.299071,-0.159526,-6.349089,100134.95,-67,-9,-311
113249,20.236,-5.209,5.602,1.456575,-0.046719,-6.185199,100135.22,-67,-9,-311
113259,20.126,-8.841,4.358,1.461364,-0.107379,-5.902648,100135.22,-68,+0,-311
113268,20.498,-10.294,3.581,1.222979,-0.146223,-5.554116,100138.13,-67,+9,-312
113278,19.398,-10.936,3.687,1.122410,-0.187728,-4.999658,100138.44,-66,+17,-312
113289,18.063,-10.472,4.982,1.281511,-0.232425,-4.362191,100137.50,-66,+17,-312
113299,16.061,-10.445,6.812,1.269272,-0.244131,-3.723127,100137.70,-64,+23,-313
113308,13.603,-12.840,8.090,1.195841,-0.122278,-3.117586,100137.70,-64,+26,-315
113318,10.637,-15.153,8.151,1.143162,0.032566,-2.565256,100140.08,-62,+28,-315
113329,8.968,-16.391,7.654,0.997364,0.180492,-1.867128,100139.39,-62,+28,-315
113339,9.092,-14.744,6.362,0.882961,0.363006,-0.899220,100138.88,-63,+28,-314
113349,10.498,-12.254,4.279,1.002686,0.571061,0.121898,100138.88,-64,+27,-313
113358,11.835,-11.900,3.431,1.253309,0.753042,1.007861,100138.88,-67,+19,-312
113369,13.192,-11.671,3.265,1.216061,0.786565,1.671402,100141.82,-67,+19,-312
113379,13.070,-12.251,0.651,0.954796,0.613630,2.056117,100138.99,-69,+12,-310
113389,13.768,-9.310,0.051,0.637658,0.509336,2.583438,100141.51,-71,+3,-309
113398,16.714,7.138,-5.520,0.089053,-0.017453,2.351438,100137.57,-71,+0,-309
113409,17.185,26.359,-12.128,-0.788396,-0.448461,1.087145,100137.57,-71,+0,-309
113419,12.815,14.237,-3.568,0.845181,0.102804,1.345219,100142.76,-71,+0,-309
113429,14.342,-5.229,0.953,2.960317,0.584896,2.409970,100139.88,-73,-12,-308
113439,14.510,-11.356,2.071,3.285436,0.780712,2.684007,100141.13,-73,-28,-304
113448,12.173,-6.510,1.342,2.416501,0.734951,2.589823,100139.62,-73,-28,-304
113459,10.177,-2.759,2.194,1.608226,0.692914,2.106136,100139.62,-74,-40,-301
113469,9.374,-1.198,3.295,1.720502,0.822217,1.865090,100141.47,-76,-49,-298
113479,8.428,-1.209,2.820,1.838630,0.860529,1.771439,100138.48,-77,-59,-295
113488,8.015,-2.026,2.692,1.536392,0.783905,1.570833,100137.23,-78,-67,-292
113499,9.558,-2.921,2.278,1.031419,0.685997,1.403751,100138.02,-78,-67,-292
113509,10.853,-3.061,2.029,0.515273,0.596602,1.303182,100138.02,-78,-72,-290
113519,10.726,-2.690,1.370,0.052870,0.510932,1.231879,100141.31,-78,-75,-289
113528,11.321,-2.273,0.701,-0.314818,0.459850,1.204210,100141.05,-78,-77,-287
113539,11.332,-1.998,1.000,-0.513295,0.447611,1.189311,100142.09,-78,-77,-287
113549,10.315,-1.373,1.223,-0.596837,0.423666,1.079696,100141.98,-78,-77,-287
113559,9.364,-0.357,1.251,-0.523937,0.413556,0.933898,100141.98,-78,-79,-287
113569,9.289,0.703,1.228,-0.260543,0.425795,0.819494,100141.30,-79,-81,-287
113579,9.763,0.972,1.490,0.101824,0.459318,0.767880,100142.61,-79,-81,-287
113589,10.017,0.547,1.629,0.344466,0.472621,0.757770,100140.72,-79,-83,-285
113599,9.872,-0.004,1.891,0.383842,0.461978,0.756173,100141.25,-79,-85,-284
113609,9.766,-0.363,2.207,0.263053,0.419410,0.756705,100141.25,-79,-87,-282
113618,9.660,-0.589,2.553,0.049677,0.350235,0.746063,100141.20,-79,-87,-282
113629,9.576,-0.619,2.709,-0.206268,0.260841,0.707219,100144.54,-78,-90,-282
113639,9.551,-0.569,2.388,-0.440396,0.178896,0.655604,100139.84,-78,-90,-282
113649,9.657,-0.472,1.950,-0.620781,0.126749,0.618357,100139.93,-79,-90,-282
113658,9.650,-0.269,1.386,-0.703791,0.106529,0.588559,100139.93,-79,-90,-282
113669,9.613,-0.055,1.160,-0.692084,0.124621,0.572595,100143.80,-78,-89,-283
113679,9.622,0.199,1.101,-0.610671,0.164529,0.563017,100142.29,-77,-89,-282
113689,9.514,0.336,0.915,-0.461681,0.217208,0.539604,100140.30,-77,-89,-283
113699,9.605,0.067,1.258,-0.307901,0.267226,0.525238,100140.40,-77,-89,-283
113709,9.689,-0.134,1.650,-0.204139,0.284786,0.503953,100140.40,-78,-90,-282
113719,9.665,-0.485,2.099,-0.184984,0.277336,0.487990,100143.25,-78,-90,-284
113729,9.527,-0.906,2.407,-0.292647,0.232462,0.486216,100140.63,-77,-91,-282
113739,9.431,-0.700,2.476,-0.464873,0.185813,0.495439,100139.27,-77,-91,-282
113748,9.365,-0.198,2.296,-0.639405,0.146969,0.529494,100143.14,-76,-91,-282
113759,9.467,0.051,1.929,-0.691020,0.125153,0.565678,100143.14,-77,-91,-283
113769,9.625,0.195,1.413,-0.604286,0.119832,0.605054,100143.95,-76,-90,-284
113779,9.675,0.134,1.119,-0.403681,0.135795,0.641237,100141.70,-76,-90,-284
113788,9.741,-0.320,1.154,-0.216910,0.158144,0.670503,100143.48,-75,-90,-284
113799,9.666,-0.593,1.509,-0.124323,0.177832,0.700302,100141.13,-76,-93,-284
113809,9.610,-0.831,1.998,-0.134433,0.196988,0.729568,100141.13,-75,-94,-284
113819,9.545,-0.793,2.345,-0.247240,0.201245,0.755109,100146.50,-75,-94,-284
113829,9.491,-0.565,2.435,-0.366433,0.207098,0.785439,100140.80,-74,-93,-284
113839,9.437,-0.487,2.570,-0.454763,0.196988,0.816302,100142.53,-74,-96,-284
113849,9.499,-0.140,2.318,-0.517020,0.184749,0.864191,100138.81,-73,-95,-284
113859,9.584,0.292,1.975,-0.469662,0.194859,0.955182,100138.81,-73,-95,-284
113869,9.350,0.485,1.727,-0.367497,0.200180,1.074375,100143.42,-73,-97,-284
113879,9.401,1.172,1.709,-0.236598,0.219336,1.214852,100143.63,-71,-99,-284
113889,9.570,1.281,2.063,-0.022690,0.237428,1.372356,100139.23,-71,-102,-283
113899,9.908,0.715,2.255,0.206649,0.250731,1.520815,100139.48,-71,-102,-283
113909,10.035,-0.583,2.626,0.365218,0.260841,1.661824,100139.48,-68,-107,-282
113918,10.244,-1.804,2.340,0.323181,0.232107,1.754411,100142.95,-66,-111,-281
113929,10.528,-1.665,2.178,0.193347,0.191667,1.856576,100140.39,-65,-115,-280
113939,10.886,-1.015,2.401,0.152906,0.171979,1.981090,100142.22,-65,-115,-280
113949,11.210,-0.556,2.656,0.184833,0.138456,2.143383,100140.13,-61,-120,-279
113958,11.691,-0.934,2.845,0.240172,0.115575,2.323236,100140.13,-58,-125,-278
113969,12.677,-2.109,2.274,0.233787,0.103336,2.469567,100141.30,-54,-131,-278
113979,13.838,-2.629,1.770,0.112466,0.113979,2.561621,100143.50,-49,-131,-278
113989,15.002,-2.831,1.496,-0.075901,0.171979,2.612172,100139.36,-49,-136,-277
113999,16.208,-2.843,0.896,-0.270653,0.228914,2.664319,100139.94,-44,-141,-277
114009,17.458,-2.249,0.645,-0.445717,0.231043,2.724979,100139.94,-40,-145,-278
114019,18.719,-1.492,1.038,-0.567038,0.196988,2.790429,100144.92,-35,-148,-279
114029,19.707,-0.651,1.026,-0.762855,0.205501,2.862263,100140.38,-35,-148,-279
114039,21.504,1.325,1.029,-1.133203,0.209758,2.952722,100141.47,-29,-150,-280
114049,22.769,3.638,1.063,-1.537074,0.183153,3.115016,100140.22,-23,-151,-283
114059,23.242,6.889,1.289,-1.911147,0.223061,3.262942,100140.22,-15,-151,-286
114069,23.373,8.963,1.504,-2.270322,0.260309,3.358190,100139.53,-15,-151,-286
114079,22.320,8.372,0.415,-2.768376,0.229446,3.381603,100142.20,-8,-149,-291
114084,20.981,6.586,1.258,-3.116376,0.235300,3.351804,100141.67,-8,-149,-291
114094,18.909,5.648,1.758,-3.149367,0.210823,3.273052,100141.67,-2,-145,-297
114104,15.086,0.918,4.549,-2.110689,0.170382,3.429492,100138.80,+3,-140,-301
114114,14.114,-6.584,4.583,-0.723479,-0.089819,3.896685,100138.80,+12,-143,-303
114124,15.874,-10.494,7.228,0.541878,0.028841,4.392611,100142.13,+12,-143,-303
114135,15.339,-8.059,8.360,1.015456,0.062896,4.248409,100141.15,+22,-150,-301
114144,12.565,-3.535,6.463,0.613181,-0.011067,3.538575,100139.84,+30,-156,-299
114154,8.667,0.480,4.082,0.068833,-0.138241,2.752117,100139.84,+36,-157,-299
114164,5.926,2.510,1.407,-0.136562,-0.249452,2.111989,100139.84,+36,-157,-299
114174,5.288,3.434,2.456,0.272631,-0.084498,1.732063,100142.24,+42,-159,-299
114184,4.682,5.031,2.153,0.442374,-0.166975,1.371292,100141.55,+46,-162,-298
114194,2.654,4.758,0.619,0.595089,-0.353746,0.833329,100139.52,+49,-163,-296
114204,0.870,3.993,0.568,0.768025,-0.401636,0.265568,100138.99,+51,-163,-296
114214,0.334,3.358,0.804,0.823364,-0.487838,-0.262285,100138.99,+51,-166,-294
114225,0.271,3.102,1.059,0.822300,-0.629911,-0.785349,100140.03,+51,-167,-294
114234,0.247,3.018,1.674,0.830282,-0.758681,-1.278615,100141.91,+51,-169,-293
114244,0.246,3.158,1.994,0.881364,-0.863507,-1.754853,100138.33,+49,-171,-291
114254,0.340,3.219,2.157,0.961181,-0.924700,-2.226834,100138.33,+49,-171,-291
114265,0.707,2.957,2.400,1.033548,-0.966736,-2.679127,100141.87,+45,-171,-290
114274,1.211,2.382,2.670,1.057493,-1.015158,-3.101090,100139.55,+40,-172,-288
114284,1.685,1.644,2.968,1.040997,-1.051342,-3.485806,100139.55,+35,-173,-287
114294,2.239,1.155,3.317,0.982997,-1.069966,-3.857751,100137.37,+35,-173,-287
114305,2.986,0.737,3.721,0.868062,-1.079544,-4.225971,100135.37,+29,-171,-286
114314,3.770,0.343,3.935,0.714282,-1.085929,-4.583548,100135.37,+21,-168,-286
114320,4.358,0.144,3.994,0.573273,-1.090718,-4.845879,100140.39,+21,-168,-286
114329,4.984,0.088,3.891,0.434924,-1.081672,-5.084264,100137.47,+13,-165,-286
114339,5.994,0.111,3.712,0.304557,-1.039103,-5.372667,100136.58,+5,-159,-287
114350,7.278,0.214,3.595,0.259860,-0.961415,-5.636593,100136.83,+5,-159,-287
114359,8.836,0.347,3.501,0.280612,-0.871489,-5.871254,100136.83,-3,-153,-288
114369,10.471,0.372,3.528,0.351915,-0.776241,-6.070795,100138.65,-13,-146,-289
114379,12.100,0.127,3.431,0.466319,-0.690571,-6.249052,100137.85,-23,-137,-289
114390,13.506,-0.345,3.429,0.596154,-0.584682,-6.424116,100137.18,-23,-137,-289
114399,15.141,-0.538,3.482,0.665328,-0.493159,-6.617272,100138.07,-32,-129,-289
114409,17.470,-0.350,3.577,0.766961,-0.409085,-6.809896,100138.07,-42,-120,-288
114419,20.695,-0.257,3.941,0.982997,-0.287232,-6.942923,100139.88,-52,-109,-287
114429,24.135,-0.861,4.750,1.224575,-0.104719,-6.999327,100138.63,-52,-109,-287
114439,26.025,-2.813,4.891,1.478392,0.082584,-6.958886,100137.63,-61,-100,-285
114449,25.123,-8.664,5.021,1.401768,0.145373,-6.750831,100138.36,-70,-89,-282
114459,23.167,-12.258,3.318,1.051640,-0.121746,-6.440079,100138.36,-78,-79,-281
114469,23.310,-12.669,2.998,0.789842,-0.219122,-5.862740,100140.75,-78,-79,-281
114480,21.804,-12.421,5.182,1.179346,-0.236682,-5.042227,100140.80,-83,-68,-279
114489,18.676,-12.986,8.345,1.628979,-0.197838,-4.202558,100139.17,-87,-61,-278
114499,15.668,-18.329,10.714,1.718905,0.004896,-3.416632,100135.56,-91,-57,-277
114509,11.108,-23.324,10.274,1.392722,0.187410,-2.803641,100135.56,-94,-53,-274
114520,8.555,-24.901,9.539,0.649897,0.342786,-2.050174,100143.42,-94,-53,-274
114529,9.248,-20.241,7.086,0.014026,0.483795,-0.809826,100139.50,-95,-51,-273
114539,11.172,-14.389,4.021,0.072025,0.683336,0.546522,100140.39,-98,-53,-270
114549,12.380,-12.895,3.914,0.818576,0.934492,1.768778,100138.77,-98,-61,-267
114560,13.910,-12.523,3.745,1.169236,0.929171,2.612704,100138.77,-98,-61,-267
114570,14.053,-8.784,-2.211,0.919676,0.459850,2.925585,100139.10,-96,-70,-264
114579,16.535,6.323,-7.267,0.442906,0.111850,3.018172,100139.41,-94,-81,-263
114589,20.844,37.330,-17.184,-0.431882,-0.420792,1.415457,100142.55,-91,-83,-264
114599,11.743,19.856,-5.907,1.197970,0.079391,1.301054,100140.15,-91,-83,-264
114610,13.137,-9.112,0.154,4.218225,0.692914,2.835658,100140.15,-91,-95,-258
114619,14.346,-14.914,4.424,4.871655,1.119134,3.225162,100138.59,-88,-115,-247
114629,13.647,-9.381,0.633,3.353014,0.923850,3.064997,100138.97,-85,-127,-240
114639,12.297,-6.406,2.794,2.067437,0.973336,2.401989,100138.75,-85,-127,-240
114650,9.623,-3.269,5.395,1.864171,1.229813,2.213622,100135.25,-83,-137,-234
114659,9.206,-2.331,5.121,1.748703,1.218638,1.988539,100135.25,-82,-147,-227
114669,9.545,-4.599,4.168,1.150080,1.000473,1.709182,100137.00,-81,-153,-223
114679,10.707,-5.461,2.816,0.319457,0.790290,1.554870,100136.00,-81,-153,-223
114690,11.124,-3.739,2.457,-0.429222,0.658327,1.450576,100135.91,-80,-155,-221
114700,10.622,-1.908,1.834,-0.903332,0.520510,1.393641,100133.70,-77,-157,-222
114709,10.495,-1.085,1.473,-1.155020,0.440162,1.362778,100133.70,-74,-159,-223
114719,10.288,-0.936,1.895,-1.351900,0.395465,1.318081,100135.43,-74,-159,-223
114729,9.520,-0.787,1.561,-1.425331,0.360877,1.210595,100136.85,-73,-158,-226
114740,9.108,0.105,0.579,-1.181625,0.375244,1.049898,100138.37,-71,-159,-227
114749,9.918,2.320,0.265,-0.593644,0.472088,0.986577,100136.27,-68,-161,-227
114759,10.258,2.156,1.383,-0.073240,0.534345,1.077035,100136.27,-68,-161,-227
114769,9.902,0.015,2.273,0.189622,0.506143,1.143549,100137.62,-67,-163,-225
114780,9.639,-1.495,2.626,0.169402,0.455061,1.060540,100139.29,-66,-167,-223
114789,9.481,-2.093,3.080,-0.101974,0.393336,0.951990,100135.57,-65,-169,-224
114799,9.505,-1.947,3.395,-0.546286,0.298621,0.855146,100134.63,-65,-169,-224
114809,9.607,-0.613,3.153,-0.922488,0.189006,0.769476,100134.63,-63,-168,-225
114820,9.821,0.736,2.335,-0.945900,0.129410,0.707219,100138.75,-62,-168,-227
114829,9.869,0.852,1.672,-0.697405,0.124621,0.699770,100138.44,-60,-168,-228
114839,9.729,0.445,1.269,-0.378139,0.148566,0.704559,100137.92,-60,-168,-228
114849,9.630,-0.618,1.077,-0.097185,0.176768,0.686467,100136.55,-59,-169,-229
114860,9.756,-1.723,1.526,-0.027479,0.198052,0.646559,100136.55,-58,-169,-228
114870,9.827,-1.890,2.086,-0.205204,0.200180,0.584302,100138.91,-57,-172,-227
114879,9.666,-1.264,2.504,-0.476580,0.189006,0.535348,100137.44,-57,-172,-227
114889,9.528,-0.517,2.441,-0.677185,0.175171,0.513531,100135.70,-55,-171,-229
114899,9.429,0.096,2.318,-0.736781,0.164529,0.518852,100139.33,-55,-171,-230
114910,9.417,0.565,2.241,-0.673460,0.158144,0.555036,100139.33,-53,-172,-231
114919,9.374,0.446,2.151,-0.552139,0.163997,0.613036,100137.89,-53,-172,-231
114929,9.588,-0.176,2.035,-0.449974,0.170914,0.662522,100136.95,-53,-172,-232
114939,9.774,-0.818,2.256,-0.432415,0.175703,0.688595,100135.75,-51,-172,-233
114950,9.560,-1.269,2.388,-0.516488,0.178896,0.694981,100136.48,-50,-173,-233
114959,9.507,-1.429,2.243,-0.658029,0.181557,0.683274,100136.48,-50,-173,-233
114969,9.576,-1.180,2.081,-0.765515,0.174639,0.691788,100138.54,-49,-172,-234
114979,9.480,-0.690,1.902,-0.804359,0.174107,0.731164,100139.76,-48,-172,-236
114990,9.310,-0.486,1.738,-0.801699,0.174639,0.793953,100136.09,-46,-173,-238
115000,9.346,-0.012,1.715,-0.700066,0.170914,0.887072,100137.02,-44,-172,-238
115009,9.302,0.264,2.030,-0.510635,0.170914,0.976999,100137.02,-44,-172,-238
115019,9.521,0.105,2.543,-0.371754,0.167190,1.071182,100137.52,-41,-173,-238
115030,9.859,-0.065,2.474,-0.303112,0.152823,1.167494,100135.01,-39,-175,-239
115040,10.069,-0.275,2.117,-0.240855,0.140052,1.279237,100136.74,-36,-177,-240
115049,10.291,-0.010,1.744,-0.181259,0.119300,1.414393,100136.21,-36,-177,-240
115059,10.607,0.151,1.594,-0.061002,0.110254,1.576687,100136.21,-33,-179,-239
115069,11.050,-0.292,1.381,0.093842,0.096951,1.741108,100140.59,-30,-182,-240
115080,11.506,-0.698,1.325,0.243365,0.103336,1.902338,100138.29,-23,-186,-238
115089,11.892,-1.061,1.198,0.265713,0.103336,2.071016,100136.29,-23,-186,-238
115099,12.422,-1.213,1.036,0.236980,0.107061,2.219475,100137.51,-19,-191,-237
115109,12.932,-1.136,1.162,0.234851,0.135795,2.363145,100137.51,-12,-193,-237
115120,13.397,-1.686,1.032,0.237512,0.166125,2.494576,100137.05,-6,-199,-235
115130,13.683,-2.169,1.040,0.181108,0.194859,2.598869,100138.03,-6,-199,-235
115139,13.905,-2.239,1.367,0.032649,0.221465,2.673365,100138.25,+0,-202,-233
115149,14.441,-2.121,1.876,-0.170084,0.241153,2.738814,100136.63,+7,-206,-234
115160,15.585,-1.796,2.359,-0.412194,0.243281,2.807988,100136.63,+14,-207,-235
115170,18.122,-1.209,3.474,-0.713369,0.166657,2.873970,100135.73,+14,-207,-235
115179,21.292,1.392,3.757,-1.139588,0.092162,2.902704,100138.25,+22,-209,-237
115189,23.395,3.565,1.956,-1.655735,0.108125,2.954319,100134.94,+31,-209,-242
115200,23.793,6.367,-0.211,-2.087276,0.088437,3.015511,100135.78,+39,-207,-247
115210,22.393,9.191,-1.345,-2.294799,0.049593,3.107034,100135.78,+39,-207,-247
115220,19.526,10.989,-1.383,-2.254359,0.011813,3.139493,100139.66,+48,-205,-252
115229,17.181,8.949,-1.045,-1.984579,-0.078113,3.105438,100137.20,+57,-202,-257
115239,14.792,5.286,0.124,-1.405643,-0.125471,3.005401,100135.63,+65,-201,-259
115250,12.010,-1.608,2.486,-0.222231,-0.111636,3.075107,100135.95,+65,-201,-259
115260,11.773,-7.920,4.297,0.935640,-0.185599,3.298061,100135.95,+74,-203,-258
115265,12.603,-7.504,5.740,1.294814,-0.304260,3.377346,100139.08,+84,-208,-254
115274,13.481,-5.917,5.851,1.220850,-0.392590,3.423107,100139.08,+84,-208,-254
115284,13.390,-4.385,6.851,1.330465,-0.343104,3.374153,100136.61,+95,-211,-249
115295,11.211,-2.589,6.563,1.308649,-0.347361,2.950062,100134.83,+103,-215,-245
115305,7.671,-0.819,5.237,0.946814,-0.485177,2.337603,100136.92,+110,-217,-242
115315,5.833,1.752,3.395,0.545603,-0.596388,1.596375,100138.64,+110,-217,-242
115324,4.956,3.105,2.512,0.438649,-0.666626,0.974338,100137.86,+115,-217,-240
115335,4.598,5.214,2.789,0.475365,-0.732608,0.532687,100136.81,+117,-219,-238
115345,4.073,5.195,2.199,0.414704,-0.925764,0.127752,100136.81,+119,-220,-236
115354,2.692,4.345,1.793,0.385438,-1.140736,-0.337312,100138.23,+119,-220,-236
115364,1.577,3.488,2.456,0.300833,-1.278021,-0.835899,100138.23,+119,-222,-233
115375,1.243,2.501,3.201,0.206649,-1.390828,-1.247752,100136.25,+117,-223,-232
115385,1.468,1.821,3.545,0.229530,-1.500442,-1.683018,100133.27,+114,-225,-232
115394,1.874,1.717,3.796,0.327970,-1.621231,-2.169366,100133.84,+114,-225,-232
115404,2.431,1.858,3.985,0.453548,-1.707965,-2.650393,100137.56,+109,-227,-229
115415,2.939,2.173,4.094,0.578062,-1.751066,-3.098962,100137.56,+102,-229,-226
115425,3.444,2.209,4.063,0.720135,-1.756919,-3.486870,100136.26,+92,-231,-223
115435,3.999,1.718,4.112,0.875511,-1.728185,-3.800283,100132.93,+92,-231,-223
115444,4.873,0.914,4.452,0.988851,-1.675506,-4.070062,100132.46,+83,-233,-220
115454,5.731,0.247,4.813,1.009603,-1.629213,-4.352080,100132.46,+71,-234,-216
115465,6.164,0.059,5.400,0.960649,-1.590369,-4.675071,100132.46,+58,-234,-215
115475,6.813,0.009,5.916,0.879236,-1.528112,-4.995401,100135.75,+58,-234,-215
115484,7.820,0.279,6.395,0.789842,-1.431800,-5.275823,100134.59,+42,-232,-212
115494,9.046,0.631,6.533,0.803676,-1.276956,-5.495584,100132.92,+26,-230,-210
115505,10.100,1.038,6.583,0.992575,-1.073158,-5.679163,100131.45,+10,-225,-208
115515,11.643,1.302,6.502,1.333658,-0.856590,-5.854227,100131.45,+10,-225,-208
115525,13.570,0.913,6.343,1.796593,-0.670883,-6.000024,100131.92,-8,-220,-203
115534,15.545,-0.013,6.422,2.251015,-0.491562,-6.098997,100136.11,-28,-213,-198
115545,17.514,-1.237,6.702,2.571345,-0.315434,-6.143162,100131.36,-44,-207,-191
115555,19.323,-2.745,7.124,2.732574,-0.157930,-6.167107,100131.36,-44,-207,-191
115565,20.373,-3.798,7.653,2.705969,-0.063214,-6.203290,100135.84,-62,-198,-183
115574,20.837,-4.247,7.642,2.597950,0.010749,-6.196905,100139.24,-78,-186,-176
115585,21.430,-6.813,5.973,2.277088,0.046933,-6.083566,100139.24,-92,-173,-171
115595,21.310,-11.904,5.042,1.602905,-0.164315,-5.808997,100136.37,-92,-173,-171
115605,19.502,-11.647,4.630,0.949474,-0.392590,-5.400869,100134.37,-105,-159,-169
115614,19.243,-9.868,6.339,0.769089,-0.348957,-4.817677,100134.37,-115,-146,-169
115620,18.560,-9.153,7.533,0.901052,-0.332994,-4.358466,100137.88,-115,-146,-169
115630,17.447,-11.495,9.701,1.021841,-0.149416,-3.842319,100136.67,-123,-135,-167
115640,13.520,-16.402,10.715,1.226172,0.092694,-3.124503,100132.64,-129,-126,-166
115650,9.614,-20.108,9.988,1.267144,0.300217,-2.463623,100133.38,-133,-120,-162
115659,8.961,-20.714,8.218,1.137309,0.419942,-1.580853,100133.38,-133,-120,-162
115670,10.061,-16.428,5.857,0.929786,0.581703,-0.516633,100134.02,-135,-117,-159
115680,11.502,-12.589,3.571,1.045254,0.761024,0.535348,100137.99,-134,-119,-155
115690,12.624,-13.007,3.522,1.207548,0.910547,1.491017,100136.52,-132,-125,-150
115699,13.523,-13.078,1.794,0.972355,0.754639,2.067824,100133.02,-132,-125,-150
115709,12.806,-15.087,0.044,0.605199,0.627997,2.539805,100133.02,-128,-131,-146
115720,17.185,-1.208,-4.740,0.100759,0.218272,2.853218,100137.30,-123,-141,-144
115730,20.653,26.416,-17.339,-1.070414,-0.626718,1.632026,100137.36,-120,-145,-149
115740,14.314,20.618,-7.025,0.126301,-0.003618,1.183990,100138.98,-120,-145,-149
115749,13.631,-2.549,-1.120,3.144959,0.548712,2.621218,100136.83,-116,-150,-143
115760,14.326,-12.646,1.172,4.140005,0.908951,2.925585,100136.83,-111,-161,-132
115770,12.491,-9.592,3.860,3.721234,1.048363,3.016043,100139.63,-105,-171,-121
115780,12.055,-6.637,4.303,2.738427,1.137758,2.527566,100136.27,-105,-171,-121
115789,12.111,-5.061,3.919,1.939199,1.215978,2.118906,100133.03,-99,-177,-113
115800,9.230,-2.123,2.396,1.178814,1.120730,2.033237,100133.08,-94,-183,-107
115810,7.266,-1.251,3.736,0.789842,1.010051,1.830503,100133.08,-90,-187,-103
115820,8.919,-4.263,3.486,0.107145,0.801464,1.703329,100137.26,-90,-187,-103
115829,10.216,-3.145,2.886,-0.545222,0.635978,1.624044,100136.37,-85,-191,-102
115840,9.903,-0.861,2.241,-1.006561,0.468364,1.497402,100136.15,-82,-195,-103
115850,9.990,-0.346,1.477,-1.208230,0.357153,1.453237,100135.79,-78,-199,-106
115855,10.465,-0.297,1.179,-1.252928,0.339593,1.426632,100135.79,-78,-199,-106
115865,9.945,-0.402,0.317,-1.053919,0.333208,1.332980,100135.79,-74,-201,-108
115875,9.618,-0.380,-0.562,-0.595240,0.404510,1.187714,100137.35,-71,-203,-108
115885,10.037,0.391,-0.423,-0.070048,0.492841,1.153127,100137.55,-71,-203,-108
115895,10.470,0.752,0.804,0.400869,0.562015,1.147274,100137.60,-67,-206,-105
115905,10.152,-0.684,1.509,0.580190,0.545520,1.118008,100136.29,-65,-209,-103
115915,9.440,-1.774,2.006,0.403530,0.493905,1.043512,100137.34,-62,-211,-101
115924,9.386,-1.962,2.889,0.014026,0.433244,0.973274,100134.09,-62,-211,-101
115935,9.808,-1.857,3.312,-0.491479,0.324162,0.888668,100134.09,-59,-213,-100
115945,9.956,-0.933,2.679,-0.933130,0.195391,0.817898,100136.80,-57,-214,-103
115955,9.848,0.118,1.601,-1.016671,0.149630,0.784907,100133.93,-55,-216,-105
115964,9.873,0.661,0.765,-0.794781,0.164529,0.777990,100133.93,-55,-216,-105
115976,9.998,0.383,0.691,-0.414323,0.194505,0.805482,100135.82,-52,-216,-107
115985,9.839,-0.321,0.827,-0.126984,0.210823,0.822155,100135.82,-49,-218,-106
115995,9.704,-1.565,1.085,-0.008855,0.221465,0.804595,100138.91,-48,-220,-106
116005,9.860,-2.405,1.457,-0.165295,0.220401,0.757770,100135.09,-48,-220,-106
116015,9.863,-1.938,1.739,-0.463809,0.205501,0.701898,100139.47,-44,-222,-107
116025,9.691,-1.062,1.989,-0.667607,0.198052,0.671568,100137.58,-43,-223,-108
116035,9.563,-0.418,1.926,-0.691020,0.186878,0.658797,100134.08,-41,-225,-110
116045,9.560,-0.131,1.769,-0.578745,0.186878,0.664118,100133.50,-41,-225,-110
116055,9.527,0.017,1.727,-0.419112,0.190602,0.685935,100133.50,-39,-226,-111
116065,9.499,-0.056,1.949,-0.256286,0.200712,0.722650,100133.50,-37,-226,-111
116075,9.383,-0.382,2.087,-0.114745,0.208694,0.771072,100135.96,-33,-228,-111
116085,9.295,-1.637,1.944,-0.042378,0.194859,0.824815,100136.23,-33,-228,-111
116094,9.679,-2.328,1.188,-0.126451,0.152290,0.854613,100137.70,-32,-229,-111
116105,10.003,-2.018,1.101,-0.250433,0.166657,0.862063,100136.54,-29,-230,-111
116115,9.906,-2.065,1.219,-0.370690,0.167722,0.871109,100136.54,-26,-232,-113
116125,9.788,-1.341,1.236,-0.435607,0.165593,0.883880,100139.37,-26,-232,-113
116135,9.475,-1.092,1.234,-0.386653,0.170382,0.917402,100136.23,-23,-234,-113
116145,9.340,-1.101,1.433,-0.293534,0.165593,0.966357,100137.16,-20,-235,-115
116155,9.274,-0.857,1.553,-0.196158,0.145373,1.028081,100137.16,-16,-236,-114
116165,9.526,-0.667,1.767,-0.087607,0.136859,1.109494,100137.55,-16,-236,-114
116174,9.796,-0.433,1.866,0.024136,0.125153,1.211659,100137.55,-13,-238,-113
116185,10.104,-0.386,1.776,0.123640,0.114511,1.345219,100137.35,-8,-240,-113
116195,10.469,-0.583,1.513,0.188558,0.110254,1.490485,100138.29,-3,-241,-113
116205,11.204,-0.749,1.200,0.236447,0.096951,1.641072,100135.73,-3,-241,-113
116210,11.828,-0.675,1.107,0.285934,0.087373,1.754411,100135.73,+1,-244,-111
116219,11.821,-0.594,0.875,0.310411,0.103868,1.879457,100138.59,+7,-246,-111
116230,12.284,-0.806,0.367,0.336484,0.121428,2.054521,100140.06,+7,-246,-111
116240,12.835,-1.098,-0.094,0.453016,0.115043,2.246080,100135.19,+15,-248,-110
116250,13.361,-1.483,0.391,0.596154,0.099612,2.406778,100135.92,+24,-251,-107
116259,13.956,-1.579,1.330,0.679163,0.082584,2.535548,100135.92,+32,-252,-105
116270,14.512,-1.827,2.237,0.648832,0.087905,2.644631,100135.48,+32,-252,-105
116280,15.257,-1.658,2.423,0.486007,0.094291,2.734557,100139.53,+42,-254,-103
116290,16.640,-1.250,2.300,0.241236,0.079391,2.826612,100137.59,+52,-257,-102
116300,18.650,-0.426,3.089,-0.032800,0.031502,2.913346,100135.70,+62,-258,-103
116310,20.752,0.689,2.685,-0.452103,0.065557,2.977731,100135.70,+62,-258,-103
116320,23.234,2.918,1.826,-1.048598,0.122492,3.034135,100139.78,+73,-259,-105
116330,25.250,6.838,0.637,-1.588157,0.137924,3.115016,100138.38,+84,-260,-110
116340,24.800,10.781,0.099,-1.922322,0.200180,3.217181,100138.27,+96,-259,-116
116349,22.641,12.336,-0.113,-2.085148,0.246474,3.278373,100134.66,+96,-259,-116
116360,19.828,10.813,-0.285,-1.973404,0.268290,3.264539,100134.66,+108,-257,-123
116370,16.407,7.628,0.218,-1.385955,0.194859,3.202814,100137.88,+119,-256,-128
116380,12.145,-1.276,3.493,-0.491479,-0.085563,3.500263,100137.15,+132,-254,-130
116390,13.554,-10.958,6.498,0.634998,-0.164847,4.231382,100137.77,+132,-254,-130
116400,15.670,-9.236,10.442,1.179878,-0.032884,4.268097,100133.38,+148,-252,-127
116410,15.778,-2.528,8.120,0.807933,-0.088223,3.066061,100133.38,+160,-250,-123
116420,12.150,3.311,3.551,0.056594,-0.261691,1.922558,100136.66,+167,-248,-123
116430,8.420,4.643,1.605,-0.261607,-0.310645,1.533586,100138.33,+167,-248,-123
116440,7.800,5.194,3.189,-0.201479,-0.314902,1.266999,100135.77,+173,-246,-125
116446,7.087,5.344,2.883,-0.262139,-0.474535,0.933898,100133.83,+176,-245,-124
116455,5.440,5.180,2.433,-0.201479,-0.601177,0.536944,100133.83,+176,-245,-124
116465,3.829,4.581,2.856,0.006044,-0.651195,0.078797,100133.83,+177,-245,-124
116475,2.810,3.172,2.696,0.230062,-0.718773,-0.331459,100135.04,+176,-245,-123
116486,2.069,1.884,2.691,0.473768,-0.821470,-0.780028,100136.62,+174,-246,-120
116495,1.724,1.185,2.991,0.705236,-0.937470,-1.234449,100135.96,+174,-246,-120
116505,1.593,0.928,2.822,0.807401,-1.093378,-1.724522,100135.96,+169,-248,-116
116515,1.661,1.122,2.614,0.848906,-1.218956,-2.212999,100134.85,+161,-250,-113
116525,1.842,1.541,2.523,0.936704,-1.312075,-2.622192,100134.85,+153,-254,-107
116535,2.173,1.547,2.564,1.135713,-1.371672,-2.948907,100135.79,+153,-254,-107
116545,2.692,1.173,3.053,1.382080,-1.392956,-3.249549,100135.43,+141,-256,-103
116555,3.282,0.682,3.790,1.584814,-1.417433,-3.553916,100133.12,+128,-258,-96
116564,4.067,0.358,4.540,1.726887,-1.445103,-3.877971,100133.12,+113,-260,-90
116575,4.972,-0.013,5.182,1.776905,-1.449892,-4.214264,100137.45,+113,-260,-90
116585,5.586,-0.159,5.480,1.745511,-1.459470,-4.562796,100135.46,+97,-261,-84
116595,6.154,-0.091,5.591,1.706135,-1.443507,-4.864502,100133.63,+80,-260,-77
116605,6.875,-0.072,5.661,1.781162,-1.334424,-5.098098,100130.54,+61,-259,-72
116616,7.940,0.074,5.736,1.954098,-1.190755,-5.289658,100135.24,+61,-259,-72
116625,9.237,-0.000,5.683,2.184501,-1.049745,-5.455676,100134.93,+40,-255,-66
116635,10.627,-0.530,5.767,2.381914,-0.926296,-5.590832,100132.73,+20,-249,-59
116645,12.034,-1.366,5.637,2.427675,-0.843287,-5.730245,100132.73,+0,-242,-52
116655,13.283,-1.945,5.497,2.341474,-0.770920,-5.902648,100133.93,+0,-242,-52
116665,14.369,-2.387,5.413,2.173859,-0.696957,-6.076648,100133.93,-19,-232,-46
116675,15.527,-2.780,5.551,2.022740,-0.628847,-6.225639,100135.69,-39,-220,-42
116685,17.634,-3.792,5.701,1.951082,-0.508945,-6.321951,100133.91,-60,-205,-38
116695,19.052,-6.309,6.215,1.722098,-0.426645,-6.351749,100133.91,-60,-205,-38
116705,20.270,-9.235,5.948,1.178814,-0.517636,-6.330997,100134.38,-76,-191,-35
116715,22.106,-10.761,5.373,0.513677,-0.589471,-6.194244,100134.38,-93,-175,-36
116725,22.172,-11.258,5.697,0.054466,-0.574571,-5.837199,100133.60,-107,-160,-38
116736,20.636,-12.221,7.245,-0.099314,-0.529874,-5.262520,100135.68,-118,-146,-40
116746,18.880,-13.141,8.231,0.040631,-0.477195,-4.514906,100135.76,-118,-146,-40
116755,16.939,-16.476,9.748,0.352447,-0.249985,-3.764099,100135.76,-126,-133,-40
116765,12.468,-19.685,10.426,0.487071,-0.038205,-3.121843,100135.76,-132,-123,-40
116775,8.928,-20.597,9.670,0.317860,0.175703,-2.471605,100133.81,-135,-116,-40
116785,10.157,-18.817,8.519,-0.080690,0.404510,-1.502101,100137.38,-135,-116,-40
116795,11.900,-14.319,5.430,-0.464873,0.520510,-0.325074,100134.08,-137,-113,-39
116805,13.135,-11.216,3.074,-0.181791,0.642896,0.791825,100131.25,-134,-117,-38
116815,14.289,-10.086,1.892,0.382245,0.670033,1.682044,100131.25,-130,-122,-35
116826,12.841,-15.418,-0.084,0.564227,0.592877,2.483933,100137.15,-130,-122,-35
116835,17.447,-4.653,-3.948,0.438649,0.311923,3.054887,100133.80,-124,-129,-32
116845,22.209,26.190,-17.322,-0.729864,-0.560205,1.884246,100137.38,-121,-137,-34
116855,15.503,25.552,-8.137,-0.108892,-0.055764,0.822687,100137.38,-119,-139,-32
116866,12.524,-1.773,-1.120,3.054501,0.506676,2.414759,100135.17,-119,-139,-32
116876,14.255,-12.732,2.567,4.463528,0.997281,2.881419,100135.95,-113,-143,-23
116885,12.881,-8.551,3.721,4.016555,0.936088,2.996887,100135.95,-106,-145,-12
116895,10.832,-5.087,6.715,3.168372,1.006327,2.412099,100133.48,-100,-147,-4
116905,12.143,-4.568,6.215,2.818244,1.255354,1.971512,100130.45,-100,-147,-4
116915,11.245,-3.655,3.738,2.003052,1.077097,1.883714,100130.45,-94,-149,+3
116921,9.321,-1.844,2.910,1.481052,0.946198,1.786338,100135.95,-89,-149,+7
116930,8.168,-3.761,2.874,0.978208,0.836051,1.631494,100135.58,-89,-151,+7
116940,10.038,-6.656,1.701,0.010301,0.650345,1.436742,100132.86,-85,-153,+10
116951,11.914,-5.877,0.552,-0.948029,0.522107,1.363310,100134.33,-81,-159,+8
116960,11.957,-2.835,1.045,-1.680744,0.400254,1.257953,100134.33,-81,-159,+8
116970,10.859,-0.494,1.381,-2.094193,0.295960,1.193567,100134.31,-77,-165,+6
116980,9.404,0.336,0.973,-1.991496,0.288511,1.064265,100136.52,-75,-171,+2
116990,9.015,1.063,0.718,-1.434909,0.333740,0.932302,100135.52,-71,-176,+0
117000,9.636,2.095,0.981,-0.695809,0.373648,0.842907,100135.84,-69,-176,+0
117010,10.193,2.722,1.059,0.031053,0.438566,0.805127,100135.84,-69,-178,+0
117020,9.742,2.197,1.166,0.579658,0.518914,0.832265,100136.27,-67,-179,+2
117030,9.243,0.729,2.045,0.781860,0.526364,0.862595,100138.56,-64,-181,+4
117041,9.503,-1.183,2.668,0.571677,0.420474,0.828540,100136.00,-62,-181,+6
117050,9.495,-2.279,3.016,-0.008855,0.296492,0.777458,100135.16,-62,-181,+6
117060,9.784,-1.295,3.024,-0.685699,0.174639,0.722650,100135.16,-59,-183,+6
117070,9.726,0.474,2.636,-1.082121,0.086309,0.679017,100135.91,-57,-186,+3
117081,9.558,1.715,1.852,-1.110854,0.061832,0.665715,100137.32,-55,-189,+1
117090,9.473,2.203,0.772,-0.800102,0.104933,0.690192,100138.21,-55,-189,+1
117100,9.546,1.848,0.159,-0.368561,0.179428,0.751384,100135.76,-53,-192,+0
117110,9.497,0.600,0.277,-0.029075,0.241685,0.784907,100135.76,-51,-193,+0
117121,9.623,-0.888,1.071,0.010301,0.278400,0.768412,100136.44,-48,-195,+1
117130,9.689,-1.604,1.898,-0.273314,0.280529,0.713604,100137.69,-48,-195,+1
117140,9.544,-0.893,2.186,-0.628231,0.262437,0.654540,100133.88,-46,-197,+0
117150,9.380,0.220,2.218,-0.813405,0.241685,0.640173,100132.88,-43,-199,-1
117155,9.359,0.768,2.144,-0.785735,0.237428,0.647623,100132.88,-43,-199,-1
117166,9.502,1.110,2.048,-0.656965,0.245942,0.668375,100132.88,-42,-201,-2
117176,9.643,1.163,1.956,-0.409002,0.257116,0.731164,100135.30,-40,-204,-3
117185,9.716,0.719,1.989,-0.167424,0.270419,0.818430,100138.87,-40,-204,-3
117195,9.705,0.002,2.045,-0.043974,0.284786,0.896650,100137.82,-36,-205,-3
117206,9.624,-0.690,2.125,-0.096121,0.292767,0.965824,100134.66,-33,-207,-2
117216,9.553,-0.595,2.151,-0.246708,0.294364,1.024357,100138.22,-31,-209,-3
117225,9.669,-0.170,2.110,-0.354727,0.294896,1.091934,100135.91,-26,-209,-3
117235,9.738,-0.240,1.818,-0.345149,0.297556,1.166430,100135.91,-26,-211,-3
117245,9.894,-0.359,1.576,-0.291938,0.299685,1.237200,100137.80,-22,-213,-5
117256,10.032,-0.684,1.635,-0.250433,0.297556,1.296797,100135.17,-18,-215,-3
117265,10.130,-0.716,1.916,-0.248837,0.273611,1.340430,100135.17,-14,-218,-4
117275,10.233,-0.298,2.323,-0.270653,0.235832,1.403751,100137.07,-14,-218,-4
117285,10.106,-0.058,2.439,-0.270653,0.204969,1.488888,100136.66,-8,-220,-3
117296,10.100,0.197,2.409,-0.263736,0.177832,1.625641,100137.65,-3,-223,-5
117306,10.246,0.403,2.232,-0.258415,0.160272,1.796980,100132.05,+1,-225,-5
117315,10.798,0.284,1.952,-0.201479,0.160804,1.986411,100138.28,+1,-225,-5
117325,11.536,-0.232,1.360,-0.116341,0.167722,2.145512,100137.30,+8,-229,-6
117336,12.176,-0.927,0.543,-0.025883,0.185813,2.282264,100136.09,+16,-231,-6
117346,13.057,-1.307,-0.065,0.069897,0.184217,2.396135,100138.55,+24,-233,-5
117355,13.609,-1.390,0.107,0.173658,0.177832,2.521713,100138.55,+24,-233,-5
117365,13.578,-1.145,0.739,0.241768,0.186878,2.655805,100138.55,+33,-235,-4
117376,13.426,-0.961,1.513,0.240704,0.213483,2.804264,100140.59,+42,-236,-3
117386,13.656,-0.839,1.995,0.170466,0.248070,2.954851,100138.96,+53,-237,-3
117395,14.872,-0.608,2.238,0.049145,0.261905,3.103841,100138.91,+53,-237,-3
117405,17.206,-0.377,3.348,-0.106763,0.220401,3.241658,100136.40,+63,-240,-3
117415,20.109,-0.042,4.729,-0.445185,0.183153,3.336905,100136.40,+74,-241,-5
117426,22.827,1.305,4.094,-1.145974,0.235832,3.351804,100135.95,+87,-243,-9
117436,24.557,3.662,1.990,-1.936689,0.234767,3.364575,100135.55,+87,-243,-9
117445,25.101,5.881,-0.139,-2.517221,0.214547,3.392777,100137.31,+98,-246,-16
117455,24.103,8.625,-1.232,-2.998248,0.201245,3.295933,100137.31,+110,-248,-27
117466,20.168,10.289,-1.206,-3.492046,0.141116,3.214520,100137.16,+122,-252,-38
117475,15.976,11.733,0.657,-3.476082,0.010217,3.195364,100137.16,+122,-252,-38
117485,11.673,10.333,3.129,-2.043111,-0.119086,3.189511,100137.22,+133,-252,-47
117495,9.220,2.563,2.133,0.450888,-0.278718,3.498135,100137.00,+144,-250,-48
117506,10.482,-7.292,5.274,2.272299,0.211355,3.888171,100136.17,+158,-245,-41
117516,13.582,-14.639,9.695,2.321785,0.312988,3.887639,100136.17,+158,-245,-41
117526,12.905,-11.133,7.805,1.050575,-0.016388,2.828208,100136.02,+170,-240,-36
117535,10.009,-0.521,4.288,-0.715497,-0.365452,1.445255,100137.96,+176,-238,-38
117545,7.054,7.375,1.236,-1.387552,-0.426113,0.593880,100134.20,+176,-239,-42
117556,5.672,9.644,2.028,-0.944836,-0.233489,0.267696,100134.91,+176,-239,-42
117566,5.253,8.473,1.824,-0.530855,-0.356406,0.167660,100135.39,+177,-239,-44
117575,4.838,5.796,0.768,-0.071644,-0.510718,-0.095735,100136.80,+176,-240,-44
117585,4.097,3.442,1.536,0.355108,-0.477727,-0.499606,100138.16,+174,-240,-44
117596,3.385,2.264,2.126,0.597750,-0.509654,-0.959349,100138.16,+174,-240,-44
117606,3.101,1.648,2.289,0.708961,-0.644278,-1.498376,100132.50,+169,-240,-40
117615,3.131,1.306,2.225,0.774410,-0.783158,-2.046981,100132.50,+161,-241,-38
117625,3.261,1.146,2.164,0.789309,-0.875746,-2.511513,100135.13,+152,-242,-36
117636,3.501,1.093,2.266,0.859548,-0.924700,-2.893568,100134.13,+152,-242,-36
117646,3.869,1.059,2.515,0.989383,-0.955030,-3.227201,100132.20,+141,-244,-32
117656,4.412,0.960,2.770,1.106979,-0.980571,-3.537421,100133.62,+128,-244,-28
117665,4.934,0.861,3.043,1.177750,-1.007709,-3.850301,100133.62,+114,-244,-24
117676,5.432,0.870,3.495,1.230428,-1.035378,-4.166906,100133.46,+114,-244,-24
117686,5.845,0.480,3.980,1.295346,-1.049745,-4.490961,100130.84,+96,-244,-21
117696,6.555,-0.261,4.456,1.319823,-1.058791,-4.809163,100129.74,+80,-240,-17
117705,7.430,-0.924,4.889,1.250649,-1.039635,-5.107144,100129.74,+62,-238,-14
117715,8.244,-1.134,4.994,1.156465,-0.980571,-5.360960,100129.74,+62,-238,-14
117726,9.262,-0.970,4.792,1.149548,-0.870957,-5.582850,100134.16,+43,-232,-11
117736,10.564,-0.921,4.434,1.262355,-0.737397,-5.785052,100132.80,+24,-226,-9
117745,12.005,-1.027,4.190,1.406025,-0.608626,-5.959052,100132.43,+6,-218,-6
117755,13.579,-1.358,4.018,1.485309,-0.497948,-6.104850,100129.55,-11,-208,-4
117766,15.283,-1.787,3.998,1.444869,-0.410682,-6.241070,100129.55,-11,-208,-4
117776,17.119,-2.241,4.065,1.338979,-0.344168,-6.368776,100135.18,-28,-197,-1
117786,19.271,-3.121,4.444,1.268208,-0.231361,-6.479988,100136.38,-45,-183,+0
117795,19.881,-4.249,4.143,1.095805,-0.133985,-6.577363,100135.91,-61,-169,+0
117806,20.059,-7.608,3.595,0.634466,-0.104186,-6.539052,100135.91,-61,-169,+0
117816,20.972,-9.211,2.894,0.258796,-0.241471,-6.392190,100137.52,-75,-155,+0
117825,21.418,-9.322,3.089,-0.054617,-0.355342,-6.061749,100137.52,-88,-141,-1
117835,20.544,-9.576,5.075,0.011365,-0.425581,-5.493456,100135.80,-99,-128,-3
117846,19.562,-9.922,6.843,0.458869,-0.437819,-4.801181,100137.47,-99,-128,-3
117856,18.577,-13.641,8.833,0.912227,-0.242535,-4.074319,100136.11,-106,-115,-3
117866,13.794,-19.454,9.690,1.210740,0.001171,-3.354197,100135.75,-111,-105,-2
117875,10.621,-22.647,8.573,1.021309,0.169850,-2.832375,100135.75,-116,-95,-1
117885,9.528,-22.109,6.816,0.326374,0.336400,-1.968761,100136.33,-116,-95,-1
117896,10.166,-16.884,4.473,-0.240323,0.452400,-0.750230,100133.13,-117,-93,-1
117906,11.155,-13.684,2.797,-0.172745,0.521043,0.520449,100136.28,-116,-95,+0
117916,11.532,-14.338,3.259,0.197603,0.560951,1.611274,100138.95,-112,-100,+1
117925,11.780,-15.313,4.310,0.451420,0.624804,2.355163,100138.16,-112,-100,+1
117936,13.609,-10.396,3.120,0.335952,0.543391,2.780851,100138.27,-107,-105,+4
117946,14.878,-2.525,-3.157,-0.117938,0.151758,2.731897,100138.27,-102,-115,+4
117955,16.633,14.231,-8.178,-0.142947,0.009685,2.490851,100138.31,-98,-121,+3
117965,19.215,36.539,-13.180,-0.169020,-0.327673,0.949861,100138.31,-98,-121,+3
117976,14.129,14.462,-3.780,1.871089,0.156547,1.431421,100140.34,-98,-122,+3
117986,14.817,-9.643,1.434,4.634335,0.739208,2.863860,100138.78,-92,-122,+12
117995,13.070,-14.204,4.155,4.894536,1.031336,3.087878,100138.47,-85,-122,+22
118005,12.310,-9.778,2.238,3.204023,0.904162,2.680814,100136.42,-85,-122,+22
118016,11.914,-5.446,3.129,1.750832,0.876492,2.229585,100136.42,-79,-122,+27
118026,9.599,-2.909,5.102,1.400704,1.028143,2.129548,100136.59,-73,-125,+32
118036,9.751,-2.123,4.192,1.294282,1.048895,1.824118,100135.81,-67,-127,+36
118046,10.663,-4.410,2.200,0.570612,0.823281,1.633622,100135.55,-67,-127,+36
118055,10.744,-4.134,1.439,-0.097185,0.715795,1.560723,100135.55,-64,-130,+38
118066,10.875,-2.672,2.016,-0.647387,0.621611,1.463879,100135.55,-59,-134,+38
118076,10.364,-1.518,1.990,-0.944304,0.505079,1.417586,100138.66,-56,-139,+37
118085,10.002,-0.692,1.927,-0.997515,0.482199,1.340962,100138.55,-56,-139,+37
118095,10.064,-0.864,1.586,-1.058176,0.447611,1.268595,100138.14,-51,-143,+37
118102,9.805,-0.840,1.421,-1.110322,0.416217,1.209531,100137.25,-49,-149,+35
118111,9.516,-0.192,1.413,-1.111387,0.422602,1.144081,100137.25,-49,-149,+35
118121,9.936,0.892,1.260,-0.968249,0.428455,1.088742,100139.02,-46,-153,+34
118130,10.048,1.760,1.412,-0.719222,0.421006,1.137164,100141.00,-42,-157,+33
118140,9.711,2.136,2.484,-0.369626,0.429520,1.189843,100138.02,-39,-160,+33
118151,9.592,0.815,3.215,-0.224360,0.349703,1.184522,100136.70,-39,-160,+33
118161,9.477,-0.909,2.962,-0.368561,0.233703,1.123861,100136.70,-35,-162,+33
118171,9.505,-1.432,2.742,-0.644726,0.166125,1.053090,100140.55,-33,-166,+32
118180,9.802,-0.724,2.509,-0.845864,0.112914,0.992430,100138.66,-30,-170,+32
118191,9.796,0.100,2.123,-0.883644,0.087373,0.955182,100135.95,-30,-170,+32
118201,9.543,0.185,1.533,-0.751680,0.099079,0.932302,100135.84,-28,-173,+30
118211,9.557,-0.028,1.200,-0.560121,0.124621,0.924320,100135.84,-25,-176,+28
118220,9.538,-0.150,0.967,-0.370690,0.153355,0.911017,100139.56,-23,-177,+28
118231,9.504,-0.680,1.340,-0.241387,0.182621,0.887604,100137.47,-23,-177,+28
118241,9.508,-1.311,2.051,-0.271185,0.190070,0.845568,100138.73,-20,-179,+27
118251,9.643,-1.464,2.388,-0.445717,0.176768,0.792357,100135.95,-18,-181,+27
118260,9.690,-1.083,2.487,-0.632488,0.162933,0.746063,100135.95,-16,-183,+25
118270,9.563,-0.559,2.327,-0.716029,0.149630,0.715201,100138.53,-16,-183,+25
118281,9.466,-0.559,2.219,-0.691020,0.136859,0.709347,100139.06,-14,-186,+24
118291,9.686,-0.721,2.159,-0.642066,0.120364,0.707219,100137.38,-12,-189,+23
118301,9.708,-1.000,1.854,-0.606947,0.115575,0.700834,100136.59,-10,-191,+21
118310,9.629,-1.287,1.418,-0.604286,0.125153,0.708283,100136.59,-10,-191,+21
118321,9.569,-1.238,1.263,-0.567570,0.131538,0.723714,100139.02,-8,-193,+20
118331,9.417,-1.162,1.273,-0.484029,0.141648,0.741806,100138.28,-5,-194,+19
118341,9.377,-1.051,1.458,-0.397295,0.152823,0.763091,100138.59,-3,-197,+18
118350,9.443,-0.711,1.789,-0.326525,0.159740,0.797146,100136.41,-3,-197,+18
118361,9.472,-0.410,1.902,-0.244048,0.170914,0.847696,100136.41,+0,-198,+17
118371,9.526,-0.437,1.878,-0.146672,0.178364,0.913678,100136.43,+2,-199,+18
118381,9.756,-0.736,2.050,-0.073773,0.168254,0.989769,100139.62,+5,-201,+18
118390,10.131,-0.903,2.322,-0.089204,0.135263,1.073843,100136.16,+5,-201,+18
118401,10.359,-0.609,2.287,-0.150396,0.105465,1.170155,100134.70,+8,-203,+17
118411,10.067,-0.281,2.188,-0.161039,0.088437,1.287219,100134.70,+12,-204,+17
118421,9.764,0.104,1.884,-0.113149,0.063428,1.431421,100138.45,+16,-205,+17
118430,10.129,0.231,1.581,0.012429,0.049061,1.603292,100140.19,+16,-205,+17
118440,11.209,-0.047,1.868,0.182704,0.028841,1.777824,100140.03,+21,-207,+17
118451,11.682,-0.161,1.822,0.274759,0.047997,1.945971,100135.22,+27,-209,+18
118461,12.159,-0.625,0.953,0.262521,0.087905,2.159879,100135.22,+33,-211,+18
118471,13.093,-0.900,-0.083,0.253475,0.104933,2.369530,100141.05,+33,-211,+18
118480,14.024,-0.704,0.243,0.352447,0.090566,2.574924,100138.38,+41,-212,+20
118491,14.689,-0.147,1.355,0.489200,0.074602,2.769676,100138.53,+48,-213,+20
118501,15.220,-0.152,2.341,0.563163,0.088437,2.946869,100137.44,+57,-213,+22
118511,15.997,-0.929,2.348,0.476961,0.132070,3.092135,100137.44,+67,-213,+24
118520,17.364,-1.445,2.162,0.211970,0.156547,3.199089,100139.84,+67,-215,+24
118531,20.014,-1.068,3.039,-0.174873,0.112914,3.282098,100139.11,+78,-215,+24
118541,22.950,1.471,3.306,-0.719222,0.124089,3.317217,100136.48,+88,-216,+22
118551,24.809,4.266,2.340,-1.366267,0.199116,3.368832,100137.91,+98,-220,+18
118560,24.901,9.006,1.437,-1.966487,0.243813,3.420447,100137.91,+98,-220,+18
118571,22.642,11.986,0.197,-2.325661,0.217740,3.543364,100137.91,+109,-224,+10
118581,20.136,10.661,-1.688,-2.383129,0.153355,3.480043,100138.49,+121,-226,+5
118591,17.342,7.983,-1.901,-2.386322,0.105465,3.156520,100138.80,+131,-228,-2
118601,12.920,6.481,0.604,-1.923386,0.090034,2.863328,100137.24,+131,-228,-2
118610,9.218,-2.020,2.983,-0.505846,-0.139838,3.044245,100137.24,+139,-230,-5
118621,9.340,-12.142,5.918,0.476429,-0.065342,3.639676,100139.43,+152,-227,-5
118631,13.118,-12.635,10.849,0.682355,-0.057361,3.745034,100135.98,+163,-223,-1
118641,14.610,-6.777,8.037,0.219420,-0.398975,2.960704,100134.20,+163,-223,-1
118650,11.931,1.404,3.411,-0.618121,-0.682058,1.859237,100133.77,+170,-223,-1
118661,8.428,5.563,0.669,-0.759662,-0.677269,1.209531,100133.77,+172,-223,-3
118671,7.129,5.444,1.647,-0.465405,-0.649599,1.040320,100138.06,+174,-223,-3
118681,6.069,5.519,1.682,-0.247240,-0.857654,0.783843,100137.27,+174,-223,-3
118691,4.470,5.444,1.934,0.106613,-0.990681,0.406577,100136.13,+174,-224,-3
118701,3.037,5.012,2.710,0.563695,-1.007709,0.011752,100137.02,+173,-224,+0
118711,1.928,4.313,3.125,1.098997,-1.046021,-0.399037,100137.02,+169,-222,+5
118721,1.646,3.410,3.335,1.730080,-1.109874,-0.831642,100137.38,+169,-222,+5
118731,1.980,2.344,3.743,2.282942,-1.184901,-1.216890,100135.13,+164,-221,+12
118740,2.469,1.295,4.199,2.722464,-1.249287,-1.573403,100132.73,+157,-218,+21
118751,2.816,0.327,4.871,2.933712,-1.297709,-1.966100,100133.62,+149,-215,+31
118761,3.084,-0.358,5.339,2.843253,-1.372204,-2.384871,100133.62,+149,-215,+31
118771,3.348,-0.583,5.463,2.510152,-1.475433,-2.824926,100136.09,+137,-211,+39
118780,3.523,-0.356,5.409,2.058923,-1.580791,-3.265512,100133.27,+123,-209,+46
118791,3.939,0.039,5.275,1.619401,-1.665396,-3.673109,100134.09,+108,-205,+50
118801,4.821,0.280,5.194,1.267144,-1.719139,-4.036540,100132.06,+108,-205,+50
118811,5.958,-0.120,5.095,0.989915,-1.745745,-4.351549,100132.06,+91,-204,+54
118821,6.678,-0.907,4.798,0.755787,-1.752130,-4.638356,100134.67,+72,-201,+55
118831,7.306,-1.523,4.564,0.558906,-1.726057,-4.921970,100133.56,+53,-198,+55
118841,8.293,-1.629,4.528,0.381713,-1.660607,-5.206117,100133.61,+53,-198,+55
118851,9.611,-1.337,4.506,0.236980,-1.575470,-5.449291,100134.34,+35,-191,+55
118861,10.746,-0.931,4.422,0.216759,-1.458938,-5.636593,100134.34,+14,-187,+52
118871,11.597,-0.703,4.459,0.370007,-1.290259,-5.780795,100136.72,-3,-178,+51
118881,12.441,-0.655,4.652,0.602007,-1.096039,-5.918079,100131.44,-3,-178,+51
118891,13.615,-0.649,5.047,0.876575,-0.900755,-6.050043,100135.63,-21,-167,+49
118901,15.308,-0.700,5.525,1.217658,-0.685250,-6.171364,100130.91,-37,-154,+48
118910,17.637,-1.677,6.287,1.556612,-0.447397,-6.242135,100130.91,-52,-139,+48
118921,18.656,-2.768,7.138,1.858850,-0.237214,-6.297474,100134.52,-52,-139,+48
118931,18.704,-3.621,7.687,2.155767,-0.046186,-6.280978,100136.15,-64,-122,+49
118941,19.908,-5.960,6.945,2.336684,0.129410,-6.145823,100136.10,-75,-103,+50
118951,20.843,-11.866,6.560,2.113199,0.129942,-5.864869,100135.99,-83,-83,+51
118961,20.004,-14.031,5.050,1.475731,-0.087159,-5.492392,100135.99,-83,-83,+51
118971,18.962,-13.270,5.791,0.863273,-0.099930,-4.897493,100136.98,-91,-68,+50
118981,18.062,-12.545,6.662,0.832410,-0.123342,-4.186062,100135.87,-96,-56,+49
118991,17.144,-15.518,8.397,0.773346,-0.019049,-3.468246,100132.95,-99,-44,+49
119001,13.074,-19.069,9.410,0.724924,0.120896,-2.794595,100133.04,-101,-44,+49
119011,8.846,-19.628,9.598,0.572741,0.246474,-2.093275,100133.04,-101,-37,+49
119021,8.503,-18.696,8.716,0.666392,0.417281,-1.010431,100136.90,-101,-31,+50
119031,9.957,-15.245,5.510,0.911163,0.579043,0.247476,100136.90,-100,-30,+51
119041,11.373,-12.177,3.002,1.794997,0.822217,1.338833,100134.60,-99,-31,+55
119051,13.704,-10.084,0.762,2.685216,0.873299,2.177438,100136.01,-99,-31,+55
119061,12.070,-15.975,-0.322,2.961381,0.789226,2.784575,100136.01,-95,-31,+58
119071,16.614,-3.660,-5.919,2.305290,0.362474,3.038924,100141.48,-92,-33,+60
119081,19.474,24.232,-16.844,0.500374,-0.491562,1.660228,100141.28,-93,-36,+59
119091,13.592,22.918,-5.697,0.670117,0.114511,0.878026,100140.50,-93,-36,+59
119101,15.187,-3.260,-0.176,3.205620,0.707813,2.219475,100136.14,-92,-35,+62
119111,16.376,-16.118,1.488,3.405693,1.091996,2.711144,100136.14,-87,-33,+66
119121,14.763,-10.729,1.038,2.258464,1.065923,2.856942,100141.00,-83,-35,+70
119131,12.441,-4.535,4.326,1.195841,1.104767,2.441365,100137.22,-83,-35,+70
119141,11.962,-1.206,5.893,1.283107,1.323464,2.214686,100135.70,-79,-37,+73
119151,9.887,-0.001,3.599,1.293217,1.198418,2.106668,100136.48,-74,-39,+77
119161,6.405,0.804,2.384,1.247456,1.082418,1.839549,100136.48,-70,-41,+81
119166,5.979,-0.302,3.049,1.320355,1.071776,1.736319,100136.33,-70,-41,+81
119176,8.487,-2.983,2.781,1.116557,0.978125,1.641604,100136.33,-66,-41,+83
119186,11.282,-5.440,1.437,0.561566,0.803593,1.539439,100136.17,-66,-41,+83
119196,12.082,-4.753,0.790,-0.178066,0.667373,1.451641,100138.36,-64,-44,+85
119206,11.339,-2.667,0.791,-0.807020,0.557226,1.371824,100136.06,-61,-49,+86
119217,9.982,-2.064,0.568,-1.071478,0.493905,1.252100,100139.46,-59,-55,+86
119226,9.667,-1.336,0.727,-1.053387,0.476345,1.127054,100137.84,-59,-55,+86
119236,9.977,0.033,0.895,-0.779882,0.471024,1.026485,100134.43,-57,-60,+88
119246,9.959,1.712,0.897,-0.281295,0.507740,0.937091,100134.43,-54,-64,+87
119256,10.084,2.381,1.313,0.296044,0.566804,0.938687,100136.99,-53,-65,+88
119266,9.802,1.077,1.971,0.714282,0.567868,0.978063,100136.99,-49,-65,+88
119276,9.574,-1.119,2.390,0.716410,0.509336,0.957843,100138.58,-49,-65,+90
119286,9.420,-2.182,2.651,0.338612,0.416749,0.894522,100136.48,-47,-65,+91
119297,9.624,-1.432,2.461,-0.250965,0.313520,0.843439,100134.91,-45,-67,+92
119306,9.624,-0.180,2.121,-0.598433,0.244878,0.816834,100137.00,-44,-70,+91
119316,9.560,0.261,1.360,-0.617589,0.227850,0.786503,100137.00,-44,-70,+91
119326,9.838,0.324,0.647,-0.484561,0.262969,0.780118,100138.18,-43,-73,+91
119336,9.793,-0.024,0.508,-0.326525,0.302345,0.781714,100136.40,-41,-77,+91
119347,9.581,-0.481,0.475,-0.273314,0.329483,0.765219,100134.68,-39,-79,+91
119356,9.502,-0.813,1.253,-0.284488,0.339593,0.743935,100134.68,-39,-79,+91
119366,9.673,-0.927,1.949,-0.388782,0.326290,0.723182,100134.68,-38,-80,+93
119376,9.797,-0.995,2.435,-0.580873,0.302878,0.708815,100137.34,-36,-84,+92
119386,9.659,-0.366,2.448,-0.744231,0.282125,0.718393,100138.70,-34,-87,+92
119396,9.515,0.238,2.054,-0.767644,0.274144,0.751916,100135.55,-34,-87,+92
119406,9.454,0.359,1.846,-0.642066,0.265630,0.802999,100137.96,-33,-91,+92
119416,9.612,0.154,1.540,-0.444121,0.275208,0.871109,100137.96,-30,-95,+92
119427,9.716,-0.267,1.455,-0.250965,0.295960,0.925916,100140.13,-28,-97,+91
119436,9.729,-0.851,1.629,-0.148268,0.314584,0.964228,100138.86,-28,-97,+91
119446,9.770,-1.490,1.752,-0.173809,0.327355,0.980723,100137.64,-26,-98,+93
119456,9.808,-1.962,1.679,-0.293002,0.343850,0.976999,100137.64,-24,-101,+93
119467,9.648,-2.048,1.770,-0.395167,0.361410,0.968485,100139.30,-21,-104,+92
119477,9.546,-2.164,1.680,-0.454231,0.372052,0.951990,100137.47,-21,-104,+92
119486,9.699,-2.087,1.580,-0.484561,0.376841,0.939751,100137.47,-19,-107,+92
119496,9.862,-1.611,1.832,-0.455827,0.357685,0.939751,100137.67,-16,-109,+93
119506,9.940,-1.201,2.107,-0.385057,0.334272,0.972210,100135.27,-14,-112,+92
119516,9.807,-0.955,1.981,-0.325460,0.321501,1.037659,100135.27,-14,-112,+92
119526,9.661,-0.404,1.550,-0.301516,0.318841,1.154191,100138.01,-10,-114,+92
119536,10.035,0.358,1.483,-0.271185,0.333740,1.317017,100140.10,-8,-118,+93
119546,10.576,0.725,1.922,-0.182855,0.325758,1.508576,100138.32,-4,-120,+93
119557,11.095,0.434,1.901,-0.078029,0.333208,1.710778,100137.01,-4,-120,+93
119567,11.783,-0.608,1.383,-0.023754,0.346511,1.892760,100141.41,+0,-123,+93
119576,12.559,-1.216,0.316,-0.013112,0.339593,2.060374,100138.47,+3,-125,+93
119586,13.401,-1.383,-0.078,0.047548,0.314052,2.213090,100137.42,+9,-128,+94
119597,13.796,-1.083,0.548,0.172062,0.294896,2.370062,100135.28,+9,-128,+94
119606,13.960,-0.970,1.296,0.296044,0.288511,2.525438,100135.28,+14,-130,+95
119616,13.960,-1.247,1.569,0.332759,0.318309,2.663787,100135.28,+19,-132,+96
119626,14.704,-1.283,1.567,0.248154,0.341722,2.788300,100139.63,+26,-135,+96
119636,16.209,-0.849,1.561,0.120447,0.322033,2.920796,100139.73,+26,-135,+96
119646,17.982,0.153,2.741,0.027860,0.281061,3.042117,100139.37,+33,-137,+97
119656,19.472,0.251,3.045,-0.195094,0.330015,3.116080,100138.26,+40,-140,+97
119666,22.100,1.448,2.372,-0.751148,0.457189,3.121933,100138.26,+48,-145,+96
119676,24.231,4.667,1.164,-1.420010,0.529024,3.151199,100137.58,+48,-145,+96
119687,23.889,8.453,0.222,-2.027148,0.618951,3.196429,100137.42,+56,-151,+93
119696,22.372,10.495,-0.478,-2.473588,0.672694,3.180465,100135.55,+64,-161,+89
119706,19.741,10.952,-1.110,-2.744964,0.639703,3.083621,100135.55,+74,-170,+84
119716,16.475,9.097,-1.004,-2.567239,0.551905,2.998484,100135.55,+74,-170,+84
119727,13.311,2.246,1.391,-1.760561,0.449208,3.041584,100136.10,+82,-177,+78
119736,11.697,-7.543,3.034,-0.752213,0.270951,3.137896,100137.57,+91,-182,+76
119746,12.331,-11.400,3.751,-0.737313,0.009685,3.085750,100133.12,+99,-185,+75
119756,14.448,-8.563,7.474,-0.998047,-0.024370,3.044777,100134.05,+107,-187,+73
119767,14.469,-4.750,6.244,-1.006029,-0.162719,2.931970,100134.05,+107,-187,+73
119777,10.795,-2.808,6.154,-0.519148,-0.169104,2.599401,100136.87,+114,-189,+71
119786,7.053,-0.954,5.578,-0.157846,-0.169104,2.139126,100132.95,+119,-189,+72
119796,4.628,2.033,3.551,-0.066323,-0.276058,1.634686,100133.68,+122,-189,+71
119806,4.627,2.813,1.310,0.219420,-0.376627,1.071714,100133.48,+122,-189,+71
119817,4.780,1.665,1.768,0.687144,-0.386205,0.705623,100134.80,+123,-188,+74
119827,4.229,2.097,2.309,0.691401,-0.552755,0.241623,100137.67,+122,-186,+75
119836,2.814,3.218,2.414,0.565823,-0.732608,-0.316028,100137.67,+119,-186,+77
119846,1.200,3.707,2.455,0.574869,-0.851801,-0.868890,100135.00,+119,-186,+77
119857,0.448,2.889,2.464,0.595621,-0.926296,-1.343000,100136.16,+114,-185,+79
119866,0.656,1.830,2.426,0.648832,-0.952369,-1.696321,100136.16,+107,-184,+82
119876,1.074,1.290,2.217,0.819108,-1.007177,-2.038467,100137.39,+98,-183,+84
119886,1.578,1.135,2.172,0.901585,-1.097103,-2.416265,100135.23,+98,-183,+84
119897,2.173,0.789,2.229,0.780796,-1.250883,-2.823861,100131.73,+87,-180,+87
119907,2.675,0.354,1.998,0.590832,-1.359965,-3.219751,100131.89,+75,-179,+88
119916,2.982,0.272,2.305,0.554117,-1.364754,-3.576265,100131.89,+62,-176,+89
119926,3.330,0.910,2.876,0.650961,-1.327507,-3.949273,100133.77,+62,-176,+89
119937,4.159,1.526,3.195,0.790906,-1.306754,-4.330796,100134.42,+47,-173,+91
119947,5.167,1.377,3.505,0.961713,-1.266314,-4.643677,100129.34,+32,-166,+93
119956,5.761,1.023,3.847,1.027163,-1.230131,-4.906539,100129.34,+16,-160,+93
119966,6.381,0.721,3.810,0.986722,-1.215232,-5.175786,100129.34,+16,-160,+93
119976,7.309,0.685,3.845,0.920741,-1.167874,-5.441841,100131.91,+1,-149,+95
119987,8.581,0.850,4.162,0.878172,-1.093378,-5.663731,100129.03,-13,-140,+96
119996,10.333,0.807,4.249,0.945218,-1.027397,-5.843052,100129.86,-29,-127,+96
120006,11.976,0.637,4.075,1.153273,-0.922571,-6.011199,100126.98,-29,-127,+96
120016,13.638,0.358,3.979,1.450190,-0.794333,-6.197969,100126.98,-42,-113,+96
120027,15.575,-0.126,3.920,1.758281,-0.661305,-6.384740,100132.10,-53,-94,+97
120037,17.876,-0.611,4.047,2.059455,-0.546902,-6.530006,100132.29,-64,-73,+98
120046,21.014,-1.494,4.859,2.439914,-0.434627,-6.618868,100132.88,-64,-73,+98
120056,24.428,-3.277,5.982,2.749602,-0.340443,-6.644941,100132.88,-71,-49,+100
120067,25.481,-5.984,6.191,2.725657,-0.315966,-6.619400,100133.95,-76,-26,+100
120077,24.426,-11.076,7.078,2.111602,-0.405893,-6.423052,100133.95,-78,-4,+99
120086,22.640,-12.924,6.368,1.451254,-0.640021,-6.048978,100133.79,-78,-4,+99
120096,21.128,-12.554,8.327,1.154337,-0.553819,-5.445034,100131.70,-80,+14,+97
120107,18.668,-12.226,9.937,1.426777,-0.425049,-4.699016,100134.59,-80,+31,+96
120112,17.715,-13.695,10.564,1.412942,-0.251049,-4.115824,100134.59,-80,+31,+96
120122,16.433,-18.486,10.748,1.116557,-0.018517,-3.515604,100133.60,-78,+45,+96
120131,12.410,-24.142,9.900,0.565291,0.223061,-2.879201,100133.87,-76,+55,+96
120141,8.624,-24.284,9.604,-0.193497,0.308731,-2.242265,100131.45,-74,+57,+97
120152,8.309,-18.566,8.108,-0.720286,0.390676,-1.127495,100133.29,-74,+57,+97
120162,10.572,-11.742,5.279,-0.638341,0.518382,0.209696,100133.29,-71,+57,+98
120171,11.840,-9.498,4.369,0.487071,0.804657,1.525604,100134.55,-71,+55,+99
120181,13.736,-9.650,3.159,1.628447,0.949391,2.497768,100135.55,-69,+54,+101
120192,13.769,-10.387,-2.022,1.980171,0.603520,2.857475,100133.56,-69,+54,+101
120202,15.946,-1.116,-6.868,1.511914,0.240621,2.980392,100135.50,-69,+53,+102
120211,19.820,25.126,-16.786,0.304557,-0.335654,1.863494,100135.50,-71,+48,+101
120221,13.568,19.911,-6.669,0.965970,0.144841,1.232412,100142.57,-71,+50,+101
120231,14.113,-3.378,-1.148,3.350354,0.736015,2.523310,100139.63,-71,+50,+101
120242,14.634,-13.481,-0.149,3.682922,1.064859,2.967089,100135.45,-69,+55,+101
120252,12.680,-9.663,0.593,2.677235,1.033464,2.984117,100133.51,-69,+57,+101
120261,10.191,-5.061,2.912,1.632171,0.978657,2.440300,100133.51,-67,+57,+103
120271,9.656,-2.850,7.098,1.627914,1.230877,2.035897,100139.11,-67,+57,+103
120282,10.585,-2.484,5.882,1.598648,1.291538,1.838485,100134.30,-63,+58,+104
120292,10.780,-3.181,3.359,0.957988,1.064859,1.670338,100138.17,-61,+58,+106
120301,10.352,-3.281,1.810,0.226869,0.835519,1.600099,100135.59,-59,+55,+108
120311,9.537,-2.010,2.414,-0.241919,0.776987,1.547420,100135.59,-59,+55,+108
120322,9.382,-2.258,1.927,-0.535112,0.661520,1.483035,100139.65,-58,+50,+110
120332,10.538,-2.568,1.075,-0.821919,0.548180,1.398962,100140.80,-58,+44,+110
120341,11.050,-2.081,1.035,-1.110854,0.500822,1.330320,100136.35,-57,+38,+113
120351,10.464,-1.244,0.900,-1.230047,0.449740,1.240925,100137.55,-57,+38,+113
120361,9.557,-0.083,0.756,-1.025185,0.432180,1.115879,100137.55,-55,+31,+115
120372,9.379,1.323,0.945,-0.537240,0.496033,1.009990,100137.53,-55,+27,+116
120382,9.618,2.122,1.233,0.046484,0.561483,0.980723,100135.75,-53,+25,+116
120391,9.570,1.634,1.941,0.552521,0.600859,1.009457,100135.33,-53,+25,+116
120401,9.485,0.215,2.527,0.801548,0.573189,1.000412,100135.55,-51,+26,+118
120412,9.539,-1.280,2.784,0.682887,0.494437,0.965824,100135.55,-49,+27,+118
120422,9.618,-1.991,2.951,0.251879,0.389611,0.912081,100138.80,-49,+25,+119
120431,9.771,-1.427,2.652,-0.271185,0.275740,0.854613,100137.97,-49,+25,+119
120441,9.712,-0.444,2.275,-0.518616,0.222529,0.814173,100137.75,-48,+21,+120
120452,9.691,0.061,1.540,-0.486690,0.204969,0.799806,100138.48,-47,+18,+120
120462,9.753,-0.059,0.760,-0.359516,0.223593,0.794485,100138.48,-47,+15,+121
120467,9.797,-0.319,0.458,-0.247240,0.259777,0.793421,100139.56,-47,+15,+121
120476,9.813,-0.421,0.450,-0.204139,0.290107,0.783843,100139.56,-46,+13,+121
120486,9.698,-0.668,0.771,-0.206800,0.312988,0.759366,100141.97,-45,+11,+122
120497,9.698,-1.207,1.515,-0.230745,0.320437,0.725843,100137.05,-45,+11,+122
120507,9.759,-1.347,1.959,-0.296727,0.310859,0.671036,100137.20,-43,+9,+123
120517,9.638,-1.257,2.368,-0.434011,0.301281,0.641770,100137.54,-44,+6,+123
120526,9.535,-1.037,2.517,-0.596304,0.268290,0.635384,100137.07,-42,+2,+124
120537,9.625,-0.569,2.433,-0.702726,0.236896,0.640705,100134.09,-42,+2,+124
120547,9.712,-0.077,2.111,-0.679846,0.222529,0.665182,100134.09,-41,+0,+125
120557,9.590,0.241,1.697,-0.540965,0.223593,0.717329,100137.65,-41,-3,+125
120566,9.548,0.039,1.622,-0.348873,0.242217,0.796614,100137.65,-40,-6,+125
120577,9.539,-0.727,1.740,-0.203075,0.260841,0.852485,100139.41,-40,-6,+125
120587,9.637,-1.312,1.775,-0.194029,0.276804,0.878026,100139.99,-39,-8,+126
120597,9.636,-1.660,1.974,-0.284488,0.289043,0.899843,100136.63,-37,-11,+126
120607,9.667,-1.331,1.952,-0.386653,0.284786,0.911017,100133.96,-35,-14,+127
120616,9.796,-0.862,2.063,-0.385057,0.282125,0.941347,100133.96,-35,-14,+127
120627,9.862,-0.860,2.272,-0.313754,0.284254,0.988705,100141.27,-35,-17,+127
120637,10.148,-1.117,2.357,-0.274378,0.271483,1.033402,100139.15,-33,-19,+127
120647,10.148,-0.824,2.654,-0.294066,0.258712,1.097256,100137.63,-32,-23,+127
120656,10.056,-0.704,2.259,-0.333974,0.231043,1.189311,100137.63,-32,-23,+127
120667,9.983,-0.140,1.714,-0.335571,0.235832,1.311164,100137.63,-31,-27,+128
120677,10.208,-0.311,1.240,-0.267993,0.236364,1.466540,100139.27,-30,-30,+128
120687,10.840,-0.319,1.003,-0.181259,0.224657,1.620319,100140.21,-27,-33,+128
120696,11.883,-0.447,1.178,-0.048231,0.209226,1.807090,100139.12,-27,-33,+128
120707,12.207,-0.807,1.156,0.066172,0.218804,1.974705,100136.49,-26,-37,+130
120717,12.710,-1.042,0.750,0.085328,0.243813,2.110924,100136.49,-24,-40,+130
120727,13.215,-1.222,0.135,0.120980,0.245410,2.259383,100141.47,-21,-43,+130
120737,13.517,-0.854,0.452,0.239640,0.221997,2.420080,100137.70,-18,-43,+130
120747,13.791,-0.605,1.302,0.385970,0.206034,2.596741,100137.16,-18,-46,+130
120757,14.154,-0.947,2.241,0.455677,0.235300,2.740942,100137.16,-15,-49,+132
120767,15.016,-1.506,2.362,0.322117,0.252859,2.850557,100137.48,-12,-52,+132
120777,16.821,-1.008,2.631,0.072558,0.233703,2.949529,100137.74,-9,-57,+133
120786,18.919,0.241,3.617,-0.199350,0.203373,3.033603,100137.74,-9,-57,+133
120797,20.450,1.815,3.371,-0.570763,0.281061,3.070318,100137.16,-6,-63,+132
120807,21.870,3.239,2.509,-1.082121,0.350767,3.124062,100136.91,-1,-71,+132
120816,23.389,6.084,1.731,-1.588689,0.370455,3.171419,100136.91,+2,-81,+131
120826,23.517,9.078,0.393,-2.078230,0.412492,3.185254,100137.19,+2,-81,+131
120837,22.077,9.997,-0.638,-2.471459,0.448144,3.165034,100136.30,+7,-93,+128
120847,19.292,9.028,-1.360,-2.687496,0.385887,3.093731,100137.03,+13,-107,+126
120857,15.321,4.361,0.013,-2.271386,0.306070,3.150667,100133.67,+19,-118,+123
120867,13.006,-3.973,1.905,-1.070414,0.207630,3.375749,100135.93,+19,-118,+123
120877,12.599,-8.895,2.968,-0.157314,0.096419,3.406612,100135.62,+26,-123,+123
120887,13.146,-6.326,5.918,-0.262139,0.016070,3.127254,100134.57,+31,-127,+122
120897,12.910,-4.891,5.748,-0.486158,-0.128663,3.009126,100133.93,+35,-131,+121
120906,11.892,-3.380,6.202,-0.330782,-0.028095,2.942080,100133.93,+35,-131,+121
120916,9.400,-2.564,6.718,0.099695,0.062364,2.605254,100133.93,+39,-133,+121
120927,6.086,-0.642,5.644,0.201860,-0.036608,2.059310,100135.48,+43,-133,+121
120937,5.435,2.437,1.986,-0.070580,-0.319691,1.290411,100137.52,+44,-135,+121
120946,5.683,1.986,0.718,0.016154,-0.383012,0.767347,100136.27,+44,-135,+121
120956,5.152,2.620,1.704,0.180044,-0.372902,0.457128,100134.23,+44,-134,+121
120967,4.144,4.582,1.285,0.072558,-0.614480,-0.084560,100134.23,+41,-135,+120
120977,2.283,5.443,1.045,0.070429,-0.790608,-0.684780,100136.16,+36,-135,+120
120987,1.165,5.164,1.303,0.233787,-0.852333,-1.151972,100133.95,+36,-135,+120
120997,0.807,3.807,1.520,0.447163,-0.915122,-1.501568,100133.73,+30,-132,+120
121007,0.758,1.975,1.504,0.694594,-1.024204,-1.826155,100133.73,+23,-128,+120
121017,0.908,0.588,2.029,0.938832,-1.116791,-2.176816,100133.73,+15,-123,+120
121027,1.302,0.087,2.548,1.043658,-1.231195,-2.579623,100137.23,+15,-123,+120
121036,1.967,0.244,2.691,1.012264,-1.367947,-3.029788,100131.64,+4,-116,+120
121047,2.672,0.719,2.646,1.033548,-1.457874,-3.470375,100132.42,-5,-107,+120
121057,3.364,1.287,2.852,1.129860,-1.476497,-3.873182,100134.30,-17,-99,+118
121067,4.055,1.463,3.191,1.230961,-1.465323,-4.236613,100134.30,-17,-99,+118
121077,4.523,1.163,3.584,1.298539,-1.440314,-4.568117,100133.48,-29,-87,+118
121086,5.102,0.760,4.054,1.270337,-1.412644,-4.882594,100131.34,-39,-73,+116
121097,6.071,0.563,4.222,1.133052,-1.403598,-5.189089,100128.29,-50,-59,+115
121107,7.396,0.451,4.277,0.993107,-1.372736,-5.477493,100129.27,-50,-59,+115
121117,8.823,0.312,4.405,0.905841,-1.305158,-5.732373,100129.70,-59,-43,+113
121127,10.333,0.181,4.516,0.822832,-1.239709,-5.937235,100131.59,-66,-27,+110
121137,11.698,0.176,4.401,0.821768,-1.151378,-6.113364,100131.59,-72,-9,+108
121147,13.005,0.411,4.212,0.976080,-1.003984,-6.298006,100131.99,-72,-9,+108
121157,14.859,0.620,4.236,1.219254,-0.864039,-6.494886,100130.59,-77,+9,+106
121166,17.445,0.349,4.658,1.599713,-0.715581,-6.667290,100130.59,-77,+31,+103
121178,21.678,-0.534,5.566,2.088012,-0.524553,-6.788788,100131.66,-75,+54,+99
121187,25.596,-2.082,6.871,2.467052,-0.381948,-6.823730,100131.66,-75,+54,+99
121197,27.461,-4.240,8.652,2.689473,-0.269673,-6.810428,100129.91,-70,+80,+96
121207,25.615,-6.667,8.391,2.581455,-0.184535,-6.667290,100130.75,-62,+105,+91
121217,23.283,-12.206,8.317,1.905676,-0.190920,-6.285768,100130.75,-53,+124,+88
121227,20.416,-14.586,7.285,1.506061,-0.342572,-5.699914,100132.80,-53,+124,+88
121237,19.346,-14.140,7.419,1.257034,-0.203691,-4.994869,100131.46,-44,+141,+84
121247,18.575,-14.844,8.094,1.005346,-0.093012,-4.169567,100133.35,-36,+153,+81
121256,15.778,-20.277,9.302,0.691933,0.067685,-3.368742,100133.35,-28,+162,+79
121267,10.457,-24.130,11.015,0.115126,0.244878,-2.745641,100133.35,-22,+162,+79
121277,7.287,-22.030,9.760,-0.560121,0.285850,-1.932577,100134.34,-22,+167,+81
121287,9.000,-16.643,7.687,-0.800102,0.409299,-0.598046,100136.48,-18,+167,+81
121296,11.278,-11.150,5.061,0.075750,0.617887,0.862595,100134.30,-18,+165,+82
121307,11.755,-10.653,3.498,1.560869,0.960565,2.038026,100134.81,-19,+167,+80
121317,12.169,-13.369,3.249,2.369143,1.055281,2.814374,100134.81,-19,+167,+80
121327,13.854,-11.126,-0.770,2.236648,0.750382,3.047438,100140.23,-23,+169,+77
121337,14.967,-2.958,-6.464,1.164979,0.339593,2.960172,100138.34,-28,+166,+76
121347,20.945,28.073,-18.236,-0.383460,-0.410150,1.873072,100141.16,-33,+161,+76
121357,13.804,23.029,-10.149,0.052337,-0.126535,0.957843,100141.16,-33,+161,+76
121367,15.038,-3.406,-1.888,2.857088,0.586492,2.497768,100142.52,-35,+163,+73
121377,14.740,-12.647,1.959,3.711124,0.977593,3.045309,100142.52,-37,+168,+67
121387,11.017,-8.831,3.414,2.962978,0.996749,2.934098,100138.07,-41,+169,+64
121397,9.502,-5.910,7.194,2.238776,1.165960,2.343457,100136.96,-41,+169,+64
121407,12.527,-4.877,6.331,2.081272,1.393170,1.933732,100135.76,-42,+171,+62
121417,12.456,-4.812,2.138,1.522557,1.163831,1.856576,100135.76,-42,+171,+62
121427,9.843,-2.965,1.338,0.928190,0.987171,1.689494,100139.60,-44,+171,+62
121437,9.000,-2.443,2.227,0.301365,0.872767,1.560191,100136.66,-44,+171,+62
121447,9.673,-2.573,2.215,-0.166360,0.747721,1.512833,100136.82,-44,+166,+64
121457,9.922,-2.294,2.122,-0.492543,0.608841,1.432485,100137.73,-46,+163,+66
121467,10.409,-0.872,1.729,-0.829901,0.484859,1.369164,100137.37,-48,+158,+69
121477,10.149,-0.012,1.415,-0.960267,0.433244,1.287219,100139.15,-48,+158,+69
121487,9.468,-0.053,0.762,-0.749552,0.434841,1.180797,100137.77,-49,+152,+70
121497,9.309,0.142,0.642,-0.403681,0.460914,1.092467,100137.77,-51,+149,+72
121507,9.763,0.868,0.891,-0.026947,0.508804,1.050962,100137.52,-51,+147,+74
121517,10.206,1.189,0.975,0.375328,0.560951,1.020632,100137.52,-51,+147,+74
121527,9.766,0.663,1.556,0.704172,0.608309,1.028081,100140.91,-51,+147,+74
121537,9.541,-0.609,2.377,0.746741,0.582235,1.016907,100138.62,-52,+146,+73
121547,9.733,-2.083,2.450,0.408319,0.467299,0.955714,100135.01,-52,+146,+74
121558,9.869,-2.163,2.545,-0.112617,0.363006,0.899311,100140.18,-52,+146,+74
121567,9.803,-0.741,2.415,-0.512763,0.267758,0.862063,100140.18,-52,+142,+75
121577,9.667,0.399,2.254,-0.626635,0.214015,0.855678,100139.11,-54,+139,+76
121587,9.577,0.739,1.538,-0.560121,0.198584,0.860467,100138.19,-55,+136,+77
121597,9.693,0.481,0.845,-0.412726,0.230511,0.893457,100138.97,-55,+136,+77
121607,9.789,-0.074,0.499,-0.315350,0.279465,0.925384,100138.97,-55,+133,+79
121617,9.691,-0.729,0.458,-0.235534,0.322033,0.914742,100138.97,-56,+130,+80
121627,9.697,-1.273,1.354,-0.224360,0.350767,0.890265,100138.43,-57,+127,+81
121637,9.645,-1.523,1.895,-0.335038,0.336400,0.840246,100135.76,-57,+127,+81
121647,9.598,-1.468,2.293,-0.495736,0.309263,0.803531,100137.63,-57,+125,+83
121657,9.674,-0.766,2.135,-0.591515,0.270419,0.787568,100136.16,-57,+121,+84
121667,9.663,-0.238,2.245,-0.573424,0.246474,0.795017,100136.16,-58,+117,+86
121677,9.562,0.002,2.314,-0.490947,0.227850,0.821623,100139.76,-58,+117,+86
121688,9.487,-0.097,2.066,-0.383993,0.217208,0.872173,100136.82,-58,+114,+86
121697,9.565,-0.484,1.738,-0.248837,0.218804,0.924852,100134.84,-59,+111,+87
121707,9.606,-1.267,1.563,-0.108360,0.219336,0.951457,100134.84,-59,+109,+88
121717,9.647,-2.150,1.752,-0.061534,0.227318,0.947733,100138.83,-59,+109,+88
121728,9.548,-2.491,2.080,-0.171149,0.232639,0.922724,100138.83,-60,+107,+89
121737,9.447,-2.375,2.583,-0.364837,0.234235,0.894522,100136.36,-60,+104,+89
121747,9.540,-1.813,2.867,-0.563314,0.231575,0.877494,100137.63,-62,+101,+90
121757,9.780,-1.172,2.753,-0.642066,0.223061,0.884412,100135.80,-62,+101,+93
121767,10.212,-0.599,2.546,-0.588855,0.206211,0.920772,100136.25,-62,+96,+93
121777,10.325,-0.530,1.975,-0.455827,0.194327,0.977531,100136.25,-62,+93,+93
121787,10.096,-0.639,1.346,-0.319607,0.186878,1.061072,100138.77,-63,+89,+94
121797,9.605,-0.245,0.802,-0.249901,0.172511,1.197824,100135.94,-64,+85,+94
121807,9.739,0.539,0.530,-0.122195,0.152290,1.390448,100140.02,-64,+85,+94
121818,10.838,0.403,1.035,0.101292,0.140052,1.603824,100138.06,-65,+82,+94
121827,11.860,-0.271,1.678,0.301897,0.150694,1.799640,100138.58,-66,+78,+95
121837,12.188,-1.155,1.222,0.315200,0.170382,1.968851,100138.84,-67,+75,+95
121847,13.183,-1.665,0.444,0.282209,0.167722,2.116778,100138.84,-67,+75,+95
121858,13.895,-1.585,0.238,0.304025,0.148566,2.263640,100135.44,-69,+71,+95
121867,14.418,-0.909,0.768,0.387567,0.125685,2.417952,100135.44,-70,+67,+95
121877,14.661,-0.776,1.569,0.491328,0.128346,2.570135,100141.96,-71,+61,+96
121887,14.926,-1.141,1.941,0.477138,0.168963,2.703695,100136.98,-71,+61,+96
121897,15.879,-1.238,2.008,0.303493,0.191134,2.798943,100136.98,-73,+57,+96
121908,17.575,-0.378,2.951,0.041163,0.159208,2.898447,100136.46,-74,+49,+96
121917,19.055,0.628,3.452,-0.304176,0.176768,2.975071,100136.46,-75,+41,+96
121927,20.850,2.648,3.167,-0.800635,0.272015,3.017640,100140.43,-75,+41,+96
121937,22.113,5.539,2.972,-1.191203,0.311923,3.116080,100135.82,-75,+31,+99
121948,22.727,7.926,2.327,-1.464175,0.404510,3.214520,100137.18,-75,+18,+99
121957,22.846,9.051,1.373,-1.866982,0.514657,3.218245,100137.18,-73,+4,+100
121967,21.133,9.477,0.213,-2.482634,0.521043,3.134704,100137.18,-73,+4,+100
121977,17.965,7.734,-0.811,-2.966321,0.417281,3.080961,100138.03,-72,-9,+101
121988,14.752,2.655,-0.089,-2.672597,0.363006,3.131511,100137.30,-69,-25,+101
121997,12.958,-5.142,2.144,-1.594010,0.312988,3.362447,100137.09,-66,-37,+100
122007,12.767,-8.461,3.222,-0.826708,0.159208,3.407144,100137.45,-66,-37,+100
122017,13.631,-4.571,6.410,-0.703258,0.079924,3.200685,100137.45,-64,-47,+99
122028,13.325,-4.019,7.242,-0.842671,0.087373,3.061273,100139.98,-61,-55,+99
122038,11.511,-4.098,7.089,-0.361644,0.128878,2.930374,100137.77,-58,-63,+98
122047,8.368,-3.900,6.992,0.149714,0.208694,2.553640,100134.90,-58,-63,+98
122057,6.004,-0.948,4.871,0.058723,0.049061,1.957145,100134.90,-55,-67,+99
122067,6.337,1.986,0.897,-0.285020,-0.229764,1.204210,100138.23,-55,-70,+98
122078,6.169,1.912,0.614,-0.093993,-0.199434,0.795549,100135.56,-55,-71,+97
122087,5.165,3.772,1.198,0.108209,-0.218590,0.422540,100135.56,-55,-71,+97
122097,3.788,5.394,1.591,0.074686,-0.364920,-0.148946,100137.23,-53,-71,+97
122107,2.389,6.152,1.870,0.280080,-0.471874,-0.707661,100135.77,-56,-69,+95
122117,1.254,5.471,1.756,0.671713,-0.552223,-1.130156,100135.77,-58,-65,+94
122127,0.694,3.652,1.648,1.039933,-0.615012,-1.431862,100135.33,-58,-65,+94
122137,0.592,1.729,2.077,1.367713,-0.655984,-1.762834,100135.84,-61,-57,+94
122147,0.879,0.427,2.579,1.545970,-0.731544,-2.193311,100134.33,-65,-49,+92
122158,1.485,0.256,2.553,1.543841,-0.859782,-2.697751,100132.03,-68,-37,+91
122168,2.334,1.031,2.352,1.497015,-0.988553,-3.200595,100133.73,-68,-37,+91
122177,3.163,1.620,2.339,1.490630,-1.067305,-3.627879,100130.28,-73,-26,+89
122187,3.604,1.639,2.508,1.498080,-1.125837,-3.975879,100131.95,-77,-11,+86
122198,3.953,1.143,2.880,1.442208,-1.169470,-4.290356,100130.44,-81,+2,+83
122207,4.625,0.618,3.287,1.304924,-1.208314,-4.598979,100130.44,-81,+2,+83
122217,5.430,0.182,3.530,1.097933,-1.232259,-4.895897,100130.44,-83,+17,+79
122227,6.314,-0.193,3.567,0.898924,-1.232259,-5.193346,100130.52,-85,+33,+74
122237,7.436,-0.473,3.573,0.707897,-1.193415,-5.480153,100130.20,-85,+48,+71
122243,8.275,-0.601,3.599,0.551988,-1.151378,-5.684484,100130.72,-85,+48,+71
122252,9.205,-0.492,3.566,0.406723,-1.095507,-5.869125,100128.52,-85,+65,+67
122262,10.503,-0.257,3.401,0.314668,-0.996534,-6.096336,100128.52,-81,+81,+63
122272,11.848,-0.043,3.354,0.381181,-0.842755,-6.298006,100133.73,-81,+81,+63
122283,13.530,0.175,3.348,0.578062,-0.678333,-6.486905,100131.27,-76,+98,+61
122293,15.832,0.147,3.730,0.889878,-0.504333,-6.661969,100129.54,-68,+116,+57
122302,19.067,-0.498,4.488,1.369309,-0.346296,-6.787015,100129.27,-58,+135,+54
122312,23.144,-1.783,5.096,1.988153,-0.177085,-6.850336,100129.27,-58,+135,+54
122322,25.848,-4.617,5.273,2.337217,-0.047783,-6.840758,100134.04,-45,+154,+50
122333,25.099,-10.002,5.837,2.192483,-0.058957,-6.664629,100134.09,-32,+173,+43
122342,23.223,-13.320,4.801,1.853529,-0.245196,-6.396978,100133.66,-17,+188,+38
122352,22.711,-15.260,4.972,1.473603,-0.337251,-5.918612,100133.77,-17,+188,+38
122362,20.641,-15.315,7.086,1.489566,-0.412278,-5.197071,100133.77,-3,+200,+35
122373,17.653,-14.044,9.515,1.570979,-0.356939,-4.360594,100137.52,+8,+210,+30
122382,16.246,-16.846,11.152,1.388465,-0.165911,-3.424081,100135.54,+16,+217,+26
122392,13.176,-22.479,10.647,1.218722,0.058639,-2.588669,100134.80,+16,+217,+26
122402,9.115,-24.883,9.719,0.834007,0.259777,-1.914486,100134.34,+23,+221,+23
122413,8.201,-22.564,9.181,0.322117,0.460914,-0.932211,100134.34,+28,+224,+23
122423,9.483,-17.074,6.509,0.129493,0.648749,0.337403,100135.66,+27,+224,+23
122432,11.166,-14.091,4.687,0.624888,0.888198,1.558063,100138.38,+27,+224,+23
122442,13.346,-12.850,3.851,1.188924,1.028675,2.541934,100134.09,+24,+223,+22
122452,15.359,-8.126,-1.614,1.043658,0.659923,2.931438,100134.87,+17,+222,+20
122463,17.369,3.975,-9.643,0.438117,0.101208,2.976667,100134.87,+8,+219,+18
122472,22.410,40.468,-19.897,-0.993790,-0.601709,1.312760,100142.84,+8,+219,+18
122482,10.652,21.610,-3.584,0.673842,0.113446,1.054687,100141.10,+6,+216,+22
122492,13.570,-8.978,-0.595,4.027197,0.646620,2.752649,100138.38,+0,+218,+14
122503,15.623,-15.949,3.708,4.362959,1.222363,3.141621,100136.18,-5,+222,+5
122512,12.864,-10.470,1.227,2.817712,0.977593,3.068722,100136.18,-5,+222,+5
122522,11.330,-6.986,5.388,1.822667,1.097317,2.334411,100140.80,-11,+220,+1
122532,11.992,-3.560,5.916,1.591731,1.294730,2.076337,100136.30,-15,+221,-1
122543,10.620,-2.228,3.082,1.093144,1.080290,1.920961,100134.52,-19,+219,-3
122553,8.533,-2.425,2.687,0.613181,0.914804,1.702264,100138.50,-23,+217,-2
122562,9.252,-3.532,2.674,0.028925,0.786033,1.629897,100138.50,-23,+217,-2
122572,10.570,-3.523,2.121,-0.497864,0.677483,1.575622,100141.93,-26,+214,+0
122583,10.878,-3.117,2.055,-1.091699,0.537006,1.497934,100138.90,-28,+209,+2
122593,11.034,-0.866,1.885,-1.763221,0.384290,1.488356,100138.05,-33,+203,+8
122598,10.178,0.498,1.677,-1.895716,0.333208,1.459622,100137.90,-33,+203,+8
122607,9.218,0.486,1.206,-1.552505,0.359281,1.359054,100137.90,-36,+198,+11
122617,9.018,0.282,0.721,-0.859167,0.413556,1.195696,100137.90,-36,+198,+11
122628,9.641,1.301,1.273,-0.313222,0.463575,1.125457,100140.77,-38,+194,+14
122638,10.559,0.669,1.668,-0.035461,0.446015,1.135035,100141.55,-40,+192,+15
122647,10.208,-0.364,1.673,0.050209,0.403978,1.125457,100136.48,-42,+190,+16
122657,9.361,-0.433,2.371,0.041695,0.394400,1.065329,100136.48,-42,+190,+16
122668,9.446,-1.212,3.355,-0.167424,0.356089,1.022760,100138.66,-43,+188,+17
122678,9.596,-1.705,3.264,-0.597901,0.245942,0.940283,100138.66,-46,+185,+18
122687,9.623,-0.289,2.488,-0.851717,0.152290,0.871109,100141.74,-47,+181,+20
122697,9.799,0.504,2.032,-0.762855,0.120896,0.852485,100136.77,-47,+181,+20
122707,9.887,0.426,1.516,-0.523405,0.109722,0.850889,100136.41,-49,+178,+23
122718,9.811,0.251,1.302,-0.300451,0.123557,0.859935,100136.41,-51,+175,+23
122728,9.690,-0.348,1.294,-0.128048,0.141648,0.863659,100139.52,-53,+173,+24
122737,9.552,-1.153,1.413,-0.065791,0.167190,0.821623,100138.78,-53,+173,+24
122747,9.454,-1.538,1.868,-0.130176,0.183685,0.758834,100139.03,-53,+171,+25
122758,9.490,-1.374,2.275,-0.281295,0.181024,0.703494,100139.79,-55,+170,+26
122768,9.662,-1.115,2.476,-0.423901,0.173043,0.661458,100138.43,-56,+167,+27
122777,9.741,-0.966,2.522,-0.514359,0.167722,0.641237,100138.70,-57,+165,+28
122787,9.671,-0.753,2.158,-0.582470,0.162401,0.637513,100139.99,-57,+165,+28
122798,9.548,-0.594,1.858,-0.627699,0.161868,0.656669,100139.99,-58,+161,+30
122808,9.374,-0.492,1.634,-0.604286,0.161336,0.691788,100137.12,-58,+159,+31
122817,9.339,-0.460,1.551,-0.524470,0.162401,0.737017,100137.12,-60,+156,+33
122827,9.398,-0.524,1.676,-0.403149,0.165061,0.788632,100141.22,-60,+156,+33
122838,9.416,-0.988,2.012,-0.302048,0.167722,0.834393,100139.48,-61,+154,+33
122848,9.401,-1.581,2.075,-0.281828,0.167190,0.853549,100136.61,-63,+151,+34
122858,9.481,-1.890,1.989,-0.355259,0.162933,0.870045,100135.77,-64,+148,+36
122867,9.505,-1.652,1.805,-0.459552,0.156015,0.870577,100135.77,-64,+148,+36
122877,9.681,-1.201,1.628,-0.515424,0.157079,0.898779,100138.16,-66,+145,+37
122888,9.823,-0.880,1.454,-0.488818,0.159740,0.944540,100140.26,-67,+141,+38
122898,10.103,-0.687,1.622,-0.380268,0.164529,1.008925,100137.38,-68,+138,+39
122907,9.989,-0.517,1.716,-0.267993,0.162933,1.092999,100137.38,-68,+138,+39
122917,9.829,-0.271,1.636,-0.181259,0.142713,1.218577,100137.38,-70,+134,+40
122928,9.842,-0.156,1.580,-0.072176,0.119300,1.365439,100141.91,-73,+131,+40
122938,10.268,-0.514,1.411,0.084264,0.098015,1.507512,100140.44,-74,+129,+40
122947,11.205,-0.748,1.628,0.192282,0.070878,1.644264,100138.30,-74,+129,+40
122953,12.050,-0.668,1.859,0.219952,0.040547,1.763989,100140.08,-77,+125,+42
122962,11.901,-0.466,1.701,0.220484,0.050125,1.896484,100140.08,-77,+125,+42
122973,11.801,-0.521,0.812,0.177915,0.079924,2.086447,100138.44,-80,+121,+41
122983,12.709,-0.688,0.340,0.263053,0.090566,2.287585,100139.48,-83,+115,+40
122992,13.659,-0.997,0.779,0.424282,0.083648,2.473823,100138.02,-86,+109,+41
123002,14.165,-1.517,1.609,0.503567,0.096951,2.622282,100138.64,-90,+109,+41
123013,14.594,-1.762,2.103,0.423218,0.097483,2.735621,100138.64,-90,+103,+41
123023,15.493,-1.274,2.590,0.260392,0.055979,2.840447,100138.92,-92,+97,+41
123032,17.372,-0.775,3.651,0.023603,0.003832,2.949529,100140.28,-96,+89,+40
123042,19.923,0.794,5.073,-0.294598,-0.023306,3.024557,100134.80,-99,+80,+42
123053,22.079,2.102,3.498,-0.821919,0.044272,3.096924,100138.19,-99,+80,+42
123063,24.432,3.199,0.422,-1.430652,0.060768,3.187915,100138.19,-101,+69,+42
123073,25.919,7.102,-0.745,-1.942542,0.052254,3.261346,100142.38,-104,+55,+45
123082,23.619,12.796,-0.198,-2.235203,0.111318,3.342227,100139.33,-105,+39,+47
123092,19.213,13.795,-0.233,-2.232010,0.078327,3.464612,100137.61,-105,+39,+47
123103,16.756,9.886,-1.093,-1.863790,-0.036608,3.469933,100137.23,-107,+25,+48
123113,13.902,5.435,-0.099,-1.078928,-0.040333,3.305511,100137.23,-107,+13,+48
123122,10.908,-2.017,1.628,0.157695,-0.046186,3.376281,100139.52,-106,+5,+48
123132,10.719,-7.962,3.153,0.964374,-0.101526,3.449181,100137.00,-106,+5,+48
123143,12.311,-7.725,4.802,0.824429,-0.160058,3.211328,100135.44,-106,-1,+48
123153,13.631,-6.668,4.931,0.128429,-0.269673,2.976667,100134.22,-107,-9,+47
123162,13.097,-2.982,5.359,-0.397295,-0.354278,2.668043,100134.22,-107,-17,+47
123172,10.196,-0.517,4.725,-0.287149,-0.506994,2.269493,100137.20,-107,-17,+47
123183,6.786,0.851,5.116,0.286466,-0.479324,1.856044,100142.44,-107,-23,+47
123193,4.248,1.725,4.995,0.779731,-0.443140,1.440998,100134.16,-107,-25,+45
123203,3.593,0.831,3.059,1.032484,-0.560205,0.948265,100133.80,-107,-25,+45
123212,4.451,-1.644,2.854,1.261291,-0.593727,0.581641,100133.80,-107,-25,+45
123223,4.162,-1.631,3.304,1.338447,-0.690571,0.207036,100134.09,-108,-23,+45
123233,2.961,0.466,2.747,1.193181,-0.935342,-0.267606,100133.52,-110,-20,+43
123243,1.438,2.646,2.858,1.161786,-1.064112,-0.803973,100135.88,-114,-15,+40
123252,0.418,3.194,2.686,1.310245,-1.164681,-1.312670,100138.39,-114,-15,+40
123262,0.146,1.984,2.764,1.489034,-1.270571,-1.642578,100138.39,-116,-7,+37
123273,0.172,0.824,3.041,1.602905,-1.289727,-1.919275,100134.16,-118,+1,+34
123283,1.365,0.956,3.423,1.464557,-1.320589,-2.275256,100135.25,-119,+11,+30
123292,2.079,2.441,2.788,1.369841,-1.562699,-2.764797,100136.25,-119,+11,+30
123302,3.161,2.441,3.323,1.064942,-1.769690,-3.178779,100136.72,-123,+23,+26
123313,3.698,1.958,2.814,0.886686,-1.948479,-3.591696,100136.72,-125,+35,+20
123323,4.213,1.879,2.767,1.001621,-1.937304,-4.001952,100133.46,-127,+50,+14
123333,5.035,1.843,3.530,1.209676,-1.858552,-4.312705,100134.35,-127,+50,+14
123342,6.183,1.251,4.587,1.402832,-1.798956,-4.573438,100132.21,-126,+67,+7
123353,6.997,0.278,5.320,1.473603,-1.768094,-4.845346,100132.90,-124,+84,+1
123363,7.765,-0.028,5.958,1.356539,-1.744681,-5.133750,100132.90,-121,+103,-4
123373,8.930,0.430,6.557,1.073988,-1.718075,-5.433860,100133.51,-121,+103,-4
123382,10.737,0.790,6.797,0.747273,-1.674974,-5.715346,100132.98,-116,+121,-10
123393,11.989,0.828,6.926,0.580190,-1.543011,-5.942025,100130.95,-109,+139,-15
123403,12.831,0.674,7.422,0.548796,-1.324314,-6.191584,100131.57,-98,+158,-20
123413,14.299,0.403,7.582,0.526447,-1.085397,-6.463492,100131.57,-98,+158,-20
123422,16.522,-0.032,7.933,0.546667,-0.845415,-6.694427,100133.80,-85,+177,-24
123432,19.523,-0.863,8.221,0.585511,-0.619269,-6.864171,100131.87,-70,+196,-27
123443,22.737,-2.944,8.762,0.548264,-0.311709,-6.972721,100131.09,-53,+213,-30
123453,22.957,-5.440,9.458,0.240172,-0.019049,-7.008372,100128.88,-53,+213,-30
123462,20.322,-7.025,9.191,-0.253094,0.249134,-6.889180,100128.88,-32,+228,-28
123472,20.257,-10.763,7.570,-1.012946,0.464107,-6.584281,100133.76,-10,+240,-27
123483,19.760,-15.305,5.323,-1.800469,0.329483,-6.097933,100136.05,+8,+247,-22
123493,19.428,-14.216,3.628,-2.192634,0.342254,-5.441841,100136.90,+26,+247,-22
123503,18.883,-12.797,3.821,-1.964891,0.356621,-4.679328,100136.16,+26,+251,-14
123512,17.830,-14.456,5.442,-1.489184,0.450804,-3.900319,100136.16,+41,+253,-10
123523,13.925,-18.408,7.423,-0.936855,0.556162,-3.105347,100137.35,+51,+254,-6
123533,8.661,-19.065,7.669,-0.444653,0.665244,-2.302394,100137.52,+59,+256,-5
123543,7.807,-18.618,5.839,0.119561,0.809978,-1.111177,100137.73,+59,+256,-5
123552,9.841,-15.664,3.081,0.623823,0.939813,0.084119,100137.46,+62,+257,-5
123563,11.845,-12.548,-1.375,1.487437,1.085611,1.249971,100137.46,+59,+259,-9
123573,12.722,-12.498,-3.294,2.538886,1.190969,2.182759,100139.27,+54,+262,-17
123583,14.167,-12.094,-1.844,2.987455,1.120730,2.821291,100139.53,+54,+262,-17
123593,14.619,-7.450,-8.226,2.665528,0.432712,2.926649,100139.80,+46,+264,-25
123602,17.111,11.635,-11.743,2.081272,0.032566,2.905896,100138.42,+36,+264,-32
123613,22.165,45.430,-17.349,1.253309,-0.395783,0.830136,100138.42,+34,+265,-37
123623,14.220,15.040,-3.353,3.362592,0.202841,1.500063,100144.59,+34,+265,-37
123633,14.513,-14.552,0.945,6.369012,0.845097,3.073511,100139.94,+26,+268,-52
123642,12.592,-20.401,4.459,6.032719,1.294198,3.323603,100139.31,+16,+269,-69
123653,12.866,-11.962,0.632,2.941161,0.833923,2.818630,100137.11,+7,+267,-76
123663,11.791,-3.844,2.980,1.196551,0.915691,2.239695,100137.11,+7,+267,-76
123673,9.237,0.017,6.757,1.287896,1.136694,2.237035,100141.05,+0,+264,-77
123682,9.466,-1.858,5.200,1.274061,1.057409,1.967255,100142.10,-5,+262,-80
123693,10.900,-5.895,2.148,0.430135,0.791886,1.799640,100141.21,-10,+259,-79
123703,11.325,-4.802,1.870,-0.366965,0.709942,1.793255,100139.38,-10,+259,-79
123713,10.346,-2.949,2.739,-0.887901,0.589153,1.643732,100139.38,-17,+256,-76
123723,10.023,-1.713,2.053,-1.255056,0.431648,1.509641,100140.34,-21,+252,-72
123732,10.074,-0.589,1.443,-1.355625,0.381630,1.401622,100136.88,-25,+249,-67
123743,9.629,-0.426,1.251,-1.240157,0.381098,1.304778,100139.45,-25,+249,-67
123753,9.587,-0.506,1.130,-0.951222,0.383226,1.187182,100139.19,-30,+246,-63
123763,10.163,0.213,1.198,-0.627699,0.405575,1.096723,100139.19,-33,+243,-60
123772,10.221,1.106,1.581,-0.269589,0.449208,1.064265,100143.45,-36,+241,-59
123783,9.679,1.299,2.047,0.069897,0.483795,1.079164,100137.95,-36,+241,-59
123793,9.431,0.148,2.401,0.225273,0.446015,1.079164,100141.20,-39,+240,-59
123803,9.611,-1.508,2.907,0.074686,0.366199,1.019568,100138.42,-42,+236,-59
123812,9.616,-2.108,3.118,-0.323332,0.266162,0.916870,100138.42,-44,+235,-57
123823,9.705,-0.818,2.702,-0.712836,0.170382,0.836522,100142.48,-44,+235,-57
123833,9.869,0.490,2.445,-0.837350,0.126217,0.822687,100137.87,-46,+233,-54
123843,9.768,1.027,2.147,-0.761791,0.105465,0.840246,100136.09,-48,+231,-52
123853,9.417,0.683,1.446,-0.601625,0.113979,0.857274,100136.24,-51,+228,-50
123863,9.327,0.008,1.005,-0.450506,0.148566,0.835990,100136.24,-51,+228,-50
123873,9.456,-0.606,0.943,-0.351002,0.186878,0.755109,100141.71,-54,+226,-49
123883,9.576,-1.239,1.565,-0.295662,0.226786,0.651880,100141.24,-55,+224,-47
123893,9.768,-1.619,2.181,-0.388249,0.225722,0.598137,100139.62,-57,+222,-45
123902,9.812,-1.431,2.293,-0.598433,0.203373,0.585366,100139.24,-57,+222,-45
123913,9.772,-0.664,2.406,-0.779882,0.184217,0.572595,100139.24,-58,+220,-44
123923,9.586,0.177,2.650,-0.831497,0.163465,0.568338,100140.13,-60,+218,-41
123933,9.469,0.491,2.456,-0.751680,0.141648,0.591219,100140.28,-62,+216,-39
123942,9.571,0.152,2.159,-0.600561,0.131006,0.640705,100141.59,-62,+216,-39
123953,9.600,-0.429,1.993,-0.456892,0.123024,0.686467,100138.39,-63,+214,-37
123963,9.525,-0.965,1.870,-0.397827,0.121960,0.716265,100138.39,-65,+211,-36
123973,9.490,-1.349,1.873,-0.436139,0.124089,0.744467,100139.09,-67,+209,-34
123983,9.598,-1.318,2.028,-0.528194,0.123024,0.762559,100138.57,-67,+209,-34
123993,9.752,-1.068,2.085,-0.589919,0.116107,0.781714,100139.87,-69,+207,-33
124003,9.702,-0.746,2.251,-0.597901,0.115575,0.803531,100141.29,-71,+205,-30
124013,9.672,-0.726,2.018,-0.554800,0.117703,0.840779,100141.29,-73,+201,-29
124023,9.796,-0.843,1.802,-0.489882,0.118235,0.888136,100139.26,-75,+199,-28
124033,9.859,-0.703,1.771,-0.432947,0.103868,0.959439,100139.05,-75,+199,-28
124043,9.699,-0.487,2.026,-0.349405,0.099079,1.036595,100137.16,-77,+197,-27
124053,9.645,-0.147,1.905,-0.300983,0.087373,1.135035,100138.79,-80,+193,-25
124063,9.672,0.588,1.971,-0.250965,0.077263,1.271788,100138.79,-83,+189,-25
124072,9.988,1.019,1.958,-0.146140,0.073538,1.448448,100141.79,-83,+189,-25
124083,10.782,0.704,2.029,0.014026,0.084180,1.644796,100138.38,-87,+185,-24
124093,11.341,-0.200,1.807,0.138007,0.097483,1.822521,100137.23,-92,+180,-24
124103,11.467,-1.142,1.021,0.140136,0.118235,1.987475,100137.34,-96,+175,-23
124112,11.991,-1.240,0.354,0.137475,0.121960,2.140191,100137.34,-96,+175,-23
124123,12.679,-1.198,0.405,0.227934,0.116639,2.282796,100140.08,-100,+169,-24
124133,12.860,-1.317,1.095,0.351383,0.133667,2.423805,100140.33,-105,+163,-23
124143,13.060,-1.532,1.658,0.393420,0.143245,2.552043,100137.25,-110,+155,-24
124153,13.758,-1.646,2.245,0.336484,0.149098,2.663787,100137.34,-110,+155,-24
124163,15.170,-1.493,2.918,0.167805,0.133667,2.771273,100137.34,-115,+148,-23
124173,17.084,-0.964,4.316,-0.067919,0.080988,2.881952,100140.04,-121,+139,-23
124183,18.836,-0.881,4.535,-0.473387,0.088437,2.966557,100137.26,-126,+131,-22
124193,21.317,0.548,2.779,-1.084249,0.092162,3.003273,100140.13,-126,+131,-22
124203,23.581,3.158,0.094,-1.640836,0.030437,3.095860,100138.57,-130,+118,-18
124213,24.664,7.414,-1.182,-1.955845,0.038951,3.220373,100138.57,-135,+106,-16
124223,23.788,10.349,-0.856,-2.042047,0.162401,3.351272,100140.74,-139,+91,-13
124233,21.352,11.350,-0.755,-2.055882,0.204969,3.384795,100141.52,-139,+91,-13
124243,18.646,9.619,-0.194,-2.053221,0.146437,3.352869,100137.60,-142,+77,-10
124254,15.453,7.673,1.896,-1.742114,0.077086,3.155633,100138.23,-145,+65,-8
124263,12.066,3.128,4.409,-0.821387,-0.156333,3.165034,100138.23,-147,+54,-8
124273,10.676,-6.019,2.686,0.606796,-0.381416,3.621052,100139.50,-147,+54,-8
124283,12.167,-10.833,7.835,1.548098,0.042676,4.098886,100138.25,-149,+43,-8
124293,13.916,-9.229,9.405,1.548630,-0.057361,3.733327,100135.63,-150,+33,-8
124303,12.890,-3.195,6.742,0.896796,-0.222315,2.620686,100136.05,-151,+24,-10
124313,9.107,3.418,3.010,-0.098782,-0.446865,1.620852,100136.05,-151,+24,-10
124323,6.012,4.934,1.204,-0.397295,-0.460700,1.128650,100141.30,-152,+20,-10
124333,5.701,4.311,2.600,-0.321736,-0.436755,0.928577,100137.43,-154,+16,-11
124343,5.290,4.326,2.605,-0.365369,-0.659177,0.562485,100138.16,-154,+15,-13
124353,4.026,4.199,2.205,-0.321736,-0.839030,0.070284,100139.21,-154,+15,-13
124363,2.793,4.020,2.338,-0.142415,-0.892773,-0.402762,100139.21,-155,+16,-16
124374,1.991,3.364,2.441,0.132154,-0.966204,-0.851862,100139.80,-157,+19,-19
124383,1.688,2.159,2.723,0.434392,-1.068901,-1.266908,100138.34,-157,+24,-23
124393,1.815,1.035,2.958,0.674906,-1.173727,-1.671844,100135.09,-157,+24,-23
124403,2.201,0.692,3.170,0.826025,-1.270571,-2.093807,100136.98,-158,+31,-27
124413,2.666,1.135,3.312,0.965438,-1.346663,-2.505660,100136.98,-158,+41,-32
124423,3.132,1.782,3.501,1.140502,-1.395085,-2.882926,100135.97,-158,+54,-37
124433,3.514,1.998,3.718,1.345896,-1.414773,-3.209109,100135.92,-158,+54,-37
124443,3.938,1.816,4.021,1.533199,-1.399342,-3.514008,100135.09,-157,+67,-44
124453,4.531,1.217,4.539,1.646538,-1.371140,-3.829549,100133.67,-154,+83,-49
124463,5.185,0.355,5.281,1.653988,-1.346131,-4.152007,100133.67,-150,+99,-55
124473,5.719,-0.260,5.830,1.533731,-1.346663,-4.484576,100133.97,-146,+99,-55
124483,6.295,-0.445,6.043,1.337383,-1.340809,-4.824062,100135.38,-146,+117,-62
124493,7.225,-0.285,6.064,1.145291,-1.293452,-5.134282,100132.81,-138,+135,-68
124503,8.390,-0.115,5.897,1.037805,-1.207782,-5.400869,100132.03,-128,+153,-74
124513,9.462,0.032,5.686,1.027695,-1.093378,-5.637658,100132.03,-116,+2,-81
124523,10.500,0.120,5.463,1.111236,-0.949709,-5.860612,100136.10,-116,+173,-81
124533,11.903,0.033,5.264,1.251181,-0.818810,-6.067603,100133.70,-102,+191,-86
124544,13.874,-0.170,5.511,1.457107,-0.704938,-6.254373,100137.10,-85,+209,-92
124553,16.525,-1.116,6.168,1.717841,-0.538920,-6.394850,100134.43,-67,+225,-98
124563,19.538,-2.896,6.979,1.870024,-0.356939,-6.493822,100134.43,-67,+225,-98
124573,21.705,-4.689,7.994,1.809364,-0.180810,-6.577896,100139.31,-47,+242,-105
124583,21.986,-5.989,9.195,1.643346,-0.008939,-6.612483,100135.97,-26,+256,-109
124593,20.769,-7.500,9.737,1.517236,0.157079,-6.501272,100135.03,-3,+267,-114
124603,20.665,-12.325,9.699,1.169236,0.223593,-6.201162,100135.03,-3,+267,-114
124609,20.255,-16.666,8.972,0.832942,0.167190,-5.841988,100135.03,+18,+276,-116
124618,19.057,-17.399,7.658,0.387034,0.130474,-5.394484,100135.03,+18,+276,-116
124628,17.849,-15.538,7.333,-0.192965,0.289575,-4.624521,100137.77,+36,+282,-117
124639,17.480,-14.934,6.537,-0.462745,0.340125,-3.812521,100136.05,+51,+286,-115
124648,16.288,-17.771,5.657,-0.679846,0.252327,-3.185696,100132.74,+62,+288,-113
124658,11.172,-16.649,7.690,-1.063497,0.245942,-2.704137,100134.73,+62,+288,-113
124668,7.764,-14.189,8.445,-0.808616,0.488052,-1.933642,100139.54,+72,+290,-110
124679,8.800,-13.530,6.220,-0.205204,0.718455,-0.710321,100137.96,+76,+290,-108
124688,11.057,-13.342,1.628,0.632337,0.928107,0.770008,100137.96,+73,+290,-110
124698,11.944,-17.199,0.637,1.461364,1.091996,1.945971,100137.87,+73,+290,-110
124708,14.139,-15.146,0.554,1.543841,1.028143,2.630264,100137.49,+66,+290,-115
124719,14.799,-9.318,-6.893,0.675970,0.373648,2.821291,100137.49,+55,+288,-118
124728,19.252,11.597,-15.300,0.256668,-0.131324,2.743071,100140.98,+44,+285,-119
124738,20.683,40.195,-19.535,-0.357919,-0.468150,0.887072,100144.07,+42,+285,-118
124748,11.154,19.175,-4.347,2.196208,0.090566,1.466540,100140.35,+42,+285,-118
124759,12.041,-10.100,0.006,5.407490,0.648217,2.867053,100141.82,+33,+282,-133
124769,13.585,-16.779,4.920,5.790609,1.153721,3.119272,100140.24,+21,+276,-151
124778,14.617,-12.148,1.980,3.776574,0.987703,2.874502,100140.09,+12,+271,-159
124788,12.327,-6.882,5.281,1.929621,1.048363,2.202980,100140.77,+12,+271,-159
124798,9.247,-0.216,7.865,1.613015,1.303776,2.077402,100137.26,+4,+267,-162
124808,9.377,0.809,6.493,1.618336,1.144143,1.947567,100137.26,-3,+262,-166
124818,9.644,-3.759,3.725,1.077713,0.832859,1.802833,100137.26,-10,+260,-166
124828,10.749,-5.271,1.745,0.285401,0.643960,1.770374,100142.55,-10,+260,-166
124838,11.051,-4.167,1.880,-0.389314,0.516254,1.727806,100142.19,-16,+257,-166
124849,11.166,-3.025,1.424,-0.884708,0.395465,1.599035,100141.08,-23,+254,-162
124858,11.010,-2.709,0.733,-1.376909,0.277868,1.455365,100140.19,-26,+252,-158
124868,9.720,-1.842,0.695,-1.512597,0.251263,1.304246,100140.19,-26,+252,-158
124878,9.074,-0.026,0.991,-1.215680,0.270951,1.120668,100141.90,-32,+251,-152
124889,9.577,1.563,1.407,-0.659625,0.291171,0.974870,100139.49,-34,+249,-150
124899,9.924,2.581,1.407,0.047016,0.357685,0.930173,100138.13,-39,+247,-150
124908,9.871,2.000,1.225,0.691401,0.451868,0.957311,100138.13,-39,+247,-150
124918,9.514,-0.019,2.532,0.927126,0.524235,0.989769,100140.85,-41,+246,-150
124929,9.418,-2.246,2.966,0.515805,0.438033,0.946136,100140.85,-44,+243,-152
124938,9.559,-2.411,3.429,-0.192433,0.296492,0.858338,100141.16,-47,+241,-151
124948,9.473,-0.785,3.451,-0.842671,0.158144,0.806724,100141.05,-47,+241,-151
124958,9.510,0.673,2.668,-1.095423,0.070346,0.784907,100139.34,-51,+240,-147
124963,9.630,0.979,1.847,-1.018799,0.052254,0.788100,100139.34,-52,+239,-145
124974,9.821,1.010,1.154,-0.842671,0.062896,0.795549,100141.01,-52,+239,-145
124983,9.744,0.772,0.534,-0.583002,0.100676,0.814173,100140.07,-55,+238,-142
124993,9.566,0.327,0.122,-0.368561,0.158676,0.825880,100139.34,-58,+236,-141
125003,9.483,-0.377,0.753,-0.264800,0.212419,0.818430,100138.45,-60,+234,-140
125014,9.558,-0.855,1.785,-0.347277,0.233703,0.779054,100138.45,-60,+234,-140
125024,9.605,-0.812,2.458,-0.555864,0.226254,0.750320,100139.21,-62,+233,-138
125033,9.582,-0.286,2.753,-0.713369,0.214015,0.745531,100140.46,-65,+230,-135
125043,9.558,-0.040,2.617,-0.751148,0.199648,0.770540,100140.57,-67,+230,-133
125053,9.723,-0.096,2.290,-0.675589,0.188474,0.788100,100138.05,-67,+230,-133
125064,9.612,-0.387,1.965,-0.588323,0.182621,0.812577,100138.05,-69,+227,-131
125073,9.599,-0.627,1.732,-0.502653,0.187410,0.848760,100141.84,-73,+226,-129
125083,9.576,-0.858,1.862,-0.459552,0.193263,0.898246,100139.01,-74,+223,-127
125093,9.373,-0.867,2.006,-0.448910,0.194859,0.940283,100139.10,-74,+223,-127
125104,9.333,-0.650,2.068,-0.413259,0.192731,0.990834,100137.80,-78,+222,-125
125113,9.544,-0.673,2.000,-0.324928,0.194327,1.035531,100137.80,-80,+219,-123
125123,9.760,-0.964,2.091,-0.226488,0.198584,1.062136,100142.09,-84,+216,-123
125133,9.911,-1.317,2.290,-0.183919,0.197520,1.070650,100141.30,-84,+216,-123
125144,9.909,-1.403,2.583,-0.220635,0.190602,1.075439,100139.30,-87,+215,-122
125154,9.687,-1.145,2.687,-0.315883,0.174107,1.099916,100135.54,-90,+211,-121
125163,9.704,-0.078,2.364,-0.374947,0.156547,1.170155,100135.54,-93,+209,-119
125173,9.639,0.622,2.038,-0.270653,0.145905,1.327659,100141.05,-93,+209,-119
125184,10.090,0.421,1.621,-0.096121,0.144841,1.498466,100140.59,-97,+204,-118
125194,10.819,-0.263,1.360,0.040631,0.147501,1.667677,100136.55,-102,+200,-119
125203,11.277,-0.845,1.452,0.107677,0.161868,1.806026,100139.27,-107,+193,-118
125213,11.495,-1.085,1.246,0.093310,0.174639,1.943842,100139.27,-107,+193,-118
125223,11.895,-1.279,0.565,0.077879,0.173575,2.094429,100140.45,-110,+189,-118
125234,12.934,-1.414,0.093,0.103420,0.175703,2.243952,100140.34,-116,+182,-116
125243,13.911,-1.489,0.546,0.156631,0.185281,2.391879,100138.20,-122,+174,-116
125253,14.255,-1.312,1.094,0.180576,0.211887,2.537677,100135.31,-122,+174,-116
125263,14.436,-1.261,1.488,0.153970,0.244878,2.680814,100135.31,-128,+167,-115
125274,15.220,-1.185,1.581,0.058191,0.259245,2.813309,100139.95,-133,+157,-115
125284,17.114,-0.540,2.508,-0.093461,0.216144,2.952190,100138.26,-139,+147,-113
125293,19.106,0.409,3.794,-0.278635,0.167190,3.088942,100137.84,-139,+147,-113
125303,20.941,0.667,3.001,-0.699534,0.243813,3.176740,100134.45,-144,+137,-112
125314,23.103,2.034,1.332,-1.316781,0.300217,3.225162,100134.45,-149,+127,-109
125324,24.822,4.968,-0.820,-1.927111,0.263501,3.287951,100139.43,-156,+115,-105
125333,24.822,8.046,-1.740,-2.385257,0.285850,3.332649,100137.60,-156,+115,-105
125343,23.875,9.572,-2.481,-2.725276,0.241153,3.286887,100136.55,-160,+103,-101
