100018,9.418,-1.861,2.514,0.151062,0.026868,0.010885,100150.23,+23,-214,+39
100028,9.340,-1.976,2.386,0.160108,0.019418,0.010353,100154.25,+23,-214,+39
100038,9.351,-1.915,2.348,0.151595,0.012501,0.008757,100154.25,+22,-213,+40
100048,9.312,-1.952,2.165,0.149466,0.009840,0.014610,100151.84,+23,-213,+39
100058,9.309,-1.987,2.120,0.152659,0.010905,0.018335,100151.16,+22,-213,+41
100068,9.289,-1.830,2.226,0.162237,0.007712,0.026317,100154.16,+22,-213,+41
100078,9.243,-1.800,2.349,0.181393,0.005051,0.036427,100154.16,+23,-212,+40
100088,9.248,-1.731,2.522,0.203741,0.001327,0.045473,100152.62,+23,-212,+42
100099,9.261,-1.788,2.562,0.215448,-0.001866,0.055583,100150.26,+23,-212,+42
100108,9.255,-1.935,2.441,0.217044,0.002391,0.058775,100153.30,+23,-212,+42
100118,9.339,-2.055,2.388,0.202677,0.003455,0.056647,100152.33,+24,-211,+42
100128,9.360,-2.151,2.351,0.178200,0.005584,0.051858,100153.69,+24,-211,+44
100139,9.371,-2.163,2.361,0.139888,0.013033,0.044408,100152.06,+24,-210,+44
100148,9.446,-2.204,2.375,0.102640,0.009840,0.036959,100150.11,+24,-210,+44
100158,9.477,-2.143,2.226,0.073374,0.013033,0.032170,100150.11,+25,-211,+44
100168,9.447,-2.340,2.040,0.035595,0.011437,0.030041,100151.59,+24,-210,+43
100178,9.484,-2.272,1.809,-0.044754,0.014097,0.020463,100151.59,+24,-210,+44
100188,9.637,-1.933,1.969,-0.094240,0.025804,0.012482,100152.98,+24,-210,+44
100198,9.607,-1.958,2.005,-0.099029,0.019418,0.017803,100150.99,+25,-211,+44
100208,9.603,-1.864,2.129,-0.091580,0.019951,0.018867,100153.09,+25,-211,+43
100218,9.532,-1.746,2.303,-0.060185,0.021547,0.018867,100150.35,+24,-211,+42
100229,9.361,-1.759,2.376,0.001540,0.018354,0.020996,100150.35,+24,-211,+42
100238,9.221,-1.951,2.399,0.061136,0.014629,0.020996,100152.91,+25,-211,+42
100248,9.112,-1.963,2.576,0.096787,0.007180,0.016207,100150.79,+25,-211,+43
100258,9.120,-2.022,2.601,0.124457,0.006116,0.008757,100153.10,+26,-211,+44
100269,9.161,-2.162,2.467,0.134567,0.008244,0.000243,100153.10,+26,-211,+44
100278,9.168,-2.204,2.299,0.118072,0.009840,-0.008271,100153.10,+25,-211,+44
100288,9.239,-2.120,2.206,0.089870,0.013565,-0.017849,100153.95,+25,-210,+44
100298,9.357,-2.056,2.169,0.073906,0.022079,-0.022105,100154.13,+24,-211,+44
100308,9.435,-2.140,2.039,0.052090,0.026868,-0.024234,100151.86,+24,-211,+44
100318,9.471,-1.940,2.129,0.022292,0.045492,-0.030087,100151.23,+25,-210,+44
100328,9.514,-1.786,2.257,0.023356,0.052941,-0.034344,100151.23,+25,-210,+45
100338,9.609,-1.901,2.350,0.053154,0.051345,-0.036472,100152.54,+25,-209,+45
100348,9.593,-1.818,2.580,0.091998,0.050281,-0.041261,100150.34,+25,-209,+45
100359,9.361,-1.719,2.776,0.137228,0.039107,-0.044454,100150.70,+25,-209,+45
100368,9.203,-1.867,2.580,0.189906,0.033785,-0.048179,100150.70,+24,-209,+45
100378,9.139,-1.726,2.627,0.228750,0.028464,-0.051904,100152.05,+24,-209,+46
100388,9.037,-1.604,2.777,0.279301,0.019418,-0.046582,100152.05,+24,-209,+46
100399,9.057,-1.962,2.557,0.328787,0.014629,-0.039133,100153.52,+26,-208,+47
100408,9.150,-1.981,2.435,0.322402,0.015162,-0.038601,100153.10,+25,-207,+47
100418,9.190,-1.849,2.532,0.290475,0.021547,-0.034876,100151.16,+24,-207,+48
100428,9.290,-1.831,2.471,0.255888,0.035382,-0.030087,100151.16,+24,-207,+48
100439,9.382,-1.776,2.490,0.218640,0.046024,-0.026894,100154.28,+25,-206,+50
100449,9.367,-1.749,2.487,0.191503,0.058262,-0.019977,100153.02,+24,-205,+49
100458,9.281,-1.861,2.406,0.172879,0.068373,-0.008803,100151.59,+25,-205,+50
100468,9.477,-2.095,2.362,0.131374,0.059327,-0.005610,100150.13,+24,-205,+50
100478,9.636,-1.841,2.471,0.056347,0.056666,-0.009867,100151.95,+24,-205,+50
100489,9.522,-1.664,2.580,0.028677,0.057198,-0.000821,100149.91,+24,-205,+51
100498,9.367,-1.762,2.495,0.037723,0.054538,0.011950,100149.91,+25,-205,+50
100508,9.403,-1.876,2.583,0.035595,0.050281,0.015142,100149.91,+26,-205,+51
100518,9.369,-1.902,2.666,0.019631,0.045492,0.018335,100151.11,+26,-205,+51
100529,9.151,-1.917,2.580,0.010053,0.045492,0.020996,100151.11,+26,-205,+51
100538,9.162,-1.855,2.473,0.015907,0.042299,0.020996,100154.25,+26,-205,+51
100544,9.391,-1.770,2.533,0.023888,0.034850,0.019399,100154.83,+26,-205,+51
100553,9.581,-1.703,2.558,0.032934,0.031657,0.019931,100150.84,+26,-205,+52
100563,9.637,-1.718,2.427,0.042512,0.033253,0.024188,100149.63,+26,-204,+51
100573,9.715,-2.107,2.380,0.028145,0.033253,0.026317,100149.63,+26,-204,+51
100583,9.835,-2.230,2.410,-0.067103,0.030061,0.016207,100152.53,+27,-205,+51
100593,9.860,-2.040,2.497,-0.174589,0.032721,0.005032,100151.91,+27,-205,+51
100603,9.661,-1.980,2.726,-0.253873,0.029529,0.005564,100155.05,+26,-205,+50
100614,9.526,-1.797,2.983,-0.299635,0.014097,0.006096,100150.42,+26,-205,+50
100623,9.441,-1.629,3.133,-0.286332,-0.010380,0.006629,100150.42,+27,-206,+49
100633,9.285,-1.560,3.175,-0.235781,-0.037517,0.011418,100153.38,+26,-206,+49
100643,9.180,-1.408,3.251,-0.167671,-0.068912,0.015674,100152.86,+26,-207,+47
100654,9.193,-1.636,3.048,-0.078809,-0.102435,0.023124,100151.70,+26,-207,+47
100663,9.322,-1.816,2.919,-0.013360,-0.129572,0.018867,100152.55,+26,-207,+49
100673,9.338,-1.963,2.779,0.024420,-0.146600,0.015142,100152.55,+26,-207,+48
100683,9.251,-2.144,2.567,0.035595,-0.155114,0.008225,100154.36,+26,-207,+48
100694,9.198,-2.115,2.445,0.013778,-0.158838,0.000775,100152.16,+26,-207,+48
100704,9.182,-1.916,2.498,-0.014424,-0.162563,0.001840,100150.84,+25,-207,+49
100713,9.297,-1.742,2.488,-0.026130,-0.162031,0.007161,100150.69,+26,-207,+47
100723,9.436,-1.840,2.346,-0.027194,-0.157774,0.013546,100150.69,+24,-207,+48
100733,9.516,-2.101,2.017,-0.040497,-0.147132,0.015674,100150.73,+24,-208,+47
100744,9.430,-2.169,1.811,-0.075616,-0.127444,0.008225,100152.67,+24,-208,+47
100753,9.350,-2.138,1.792,-0.108607,-0.110948,0.001840,100152.36,+24,-207,+47
100763,9.363,-1.991,1.966,-0.124570,-0.096581,-0.005610,100152.98,+23,-207,+47
100773,9.423,-2.178,1.965,-0.142130,-0.085407,-0.010931,100152.98,+23,-207,+46
100784,9.467,-2.585,1.793,-0.208644,-0.069976,-0.021041,100151.64,+23,-207,+46
100793,9.501,-2.832,1.611,-0.333157,-0.042838,-0.041793,100155.00,+23,-208,+45
100803,9.468,-2.432,1.670,-0.485341,-0.013572,-0.068399,100153.44,+22,-209,+44
100813,9.354,-1.038,2.564,-0.516735,0.002391,-0.084362,100150.97,+22,-210,+43
100824,9.180,-0.798,2.955,-0.351249,-0.014637,-0.056160,100150.97,+22,-210,+43
100834,9.243,-1.761,2.609,-0.178314,-0.031664,-0.030087,100154.61,+21,-211,+42
100843,9.315,-2.319,2.320,-0.167139,-0.031664,-0.034344,100150.56,+22,-211,+41
100853,9.410,-2.274,2.249,-0.233121,-0.024747,-0.049243,100151.67,+22,-212,+41
100864,9.440,-2.066,2.174,-0.288992,-0.016765,-0.063078,100150.41,+22,-212,+41
100874,9.381,-1.780,2.196,-0.312405,-0.012508,-0.066803,100150.41,+22,-211,+40
100883,9.326,-1.634,2.200,-0.294846,-0.011444,-0.054032,100150.72,+21,-214,+39
100893,9.306,-1.653,2.156,-0.251213,-0.016233,-0.034876,100154.13,+22,-213,+39
100903,9.158,-1.783,2.096,-0.209176,-0.021022,-0.018381,100153.50,+22,-213,+39
100914,9.030,-1.920,2.020,-0.184699,-0.015169,-0.001353,100150.97,+21,-213,+39
100923,9.032,-2.013,1.949,-0.178846,-0.012508,0.010885,100150.97,+22,-213,+38
100933,9.174,-1.815,2.029,-0.169800,-0.009315,0.012482,100155.30,+22,-215,+37
100943,9.333,-1.575,2.161,-0.121910,-0.006123,0.018867,100151.74,+22,-215,+37
100954,9.488,-1.457,2.165,-0.029323,-0.010912,0.034830,100153.68,+22,-215,+37
100964,9.567,-1.700,2.452,0.062200,-0.020490,0.054518,100149.12,+22,-215,+37
100973,9.518,-1.860,2.408,0.106365,-0.033793,0.070482,100149.12,+22,-215,+37
100983,9.485,-1.883,2.472,0.113815,-0.048159,0.079528,100152.55,+22,-215,+37
100994,9.437,-1.811,2.463,0.094659,-0.064655,0.096555,100154.75,+22,-214,+38
101004,9.503,-1.682,2.440,0.080824,-0.078490,0.115711,100153.59,+22,-214,+38
101014,9.475,-1.708,2.459,0.079582,-0.090374,0.141784,100151.19,+23,-215,+38
101023,9.527,-1.649,2.514,0.082420,-0.104563,0.163069,100151.19,+23,-215,+38
101033,9.668,-1.783,2.387,0.088273,-0.126912,0.186482,100152.88,+22,-215,+39
101044,9.684,-1.886,2.167,0.079760,-0.137554,0.209894,100153.73,+24,-214,+38
101053,9.676,-1.819,2.109,0.052090,-0.148196,0.234904,100151.41,+24,-215,+39
101063,9.631,-1.651,2.090,0.032934,-0.155646,0.262041,100150.51,+24,-215,+39
101073,9.717,-1.698,2.141,0.040384,-0.165224,0.292371,100150.51,+24,-215,+38
101084,9.753,-1.841,2.119,0.051558,-0.174269,0.322702,100154.81,+24,-215,+38
101094,9.641,-1.894,2.238,0.057943,-0.184380,0.357821,100154.50,+26,-215,+39
101103,9.470,-1.895,2.609,0.058475,-0.203536,0.393472,100151.39,+26,-215,+39
101113,9.354,-1.830,2.823,0.051558,-0.228545,0.429124,100150.88,+25,-215,+39
101124,9.391,-1.775,2.917,0.054751,-0.250893,0.468500,100150.88,+28,-215,+39
101134,9.551,-1.677,2.738,0.058475,-0.277499,0.519050,100155.95,+29,-216,+39
101143,9.589,-1.248,2.550,0.054751,-0.301976,0.586628,100152.59,+29,-216,+39
101153,9.854,-0.734,2.507,0.091998,-0.341884,0.690390,100152.44,+30,-216,+39
101164,10.852,-0.531,2.658,0.184053,-0.430214,0.814371,100148.97,+31,-217,+38
101174,12.017,-0.456,2.939,0.267594,-0.546214,0.945270,100148.97,+32,-217,+39
101184,12.940,-0.995,3.207,0.300053,-0.669132,1.088940,100154.29,+35,-217,+39
101193,13.995,-1.883,2.885,0.230347,-0.783003,1.220903,100149.04,+35,-217,+39
101203,15.382,-2.281,2.114,0.047833,-0.851645,1.301252,100152.46,+37,-219,+39
101214,17.740,-2.863,1.750,-0.219818,-0.950618,1.374151,100150.66,+39,-219,+37
101224,22.538,-0.955,1.507,-0.617836,-1.061296,1.444389,100150.66,+41,-221,+35
101233,26.454,2.235,2.221,-1.125469,-0.966581,1.591251,100152.67,+41,-221,+35
101243,24.329,0.927,0.686,-1.257432,-0.957535,1.850921,100154.34,+45,-225,+30
101250,21.433,-0.461,-1.307,-1.385138,-1.016599,1.936059,100152.45,+45,-225,+30
101259,18.667,-0.670,-1.110,-1.679395,-1.071407,1.832829,100152.45,+49,-229,+25
101269,14.295,-1.190,1.684,-1.604368,-1.126746,1.867949,100152.30,+52,-233,+20
101278,11.902,-4.327,4.610,-0.689671,-1.155480,2.091967,100152.30,+58,-235,+18
101288,11.166,-7.892,5.520,0.192567,-1.159205,2.199985,100152.26,+58,-235,+18
101299,9.562,-11.701,5.233,0.499594,-1.104930,2.163269,100151.23,+64,-235,+18
101309,8.501,-15.505,2.873,0.247374,-1.069278,2.156884,100148.63,+68,-235,+19
101318,7.934,-17.571,0.273,-0.297506,-1.010746,2.155288,100148.63,+73,-236,+16
101328,7.866,-15.817,-0.067,-0.732772,-0.936251,1.996719,100148.63,+73,-236,+16
101339,8.276,-12.336,-1.100,-0.965304,-0.921352,1.781747,100154.01,+79,-237,+15
101349,5.730,-9.290,0.384,-0.992441,-0.858031,1.871141,100153.12,+83,-238,+10
101358,3.993,-7.659,1.147,-0.569414,-0.800563,1.921160,100150.38,+88,-240,+10
101368,3.024,-7.683,0.741,-0.012295,-0.761719,2.011086,100150.87,+88,-240,+10
101379,2.507,-7.354,0.058,0.330383,-0.711700,2.029710,100150.87,+94,-240,+10
101389,1.891,-6.423,-0.177,0.386787,-0.620710,1.944040,100148.91,+100,-239,+11
101399,0.932,-4.963,-0.188,0.298457,-0.522801,1.835490,100150.33,+105,-239,+12
101408,0.335,-3.518,-0.178,0.277705,-0.458948,1.736517,100148.72,+111,-239,+13
101419,0.078,-2.538,-0.510,0.398493,-0.432343,1.634352,100148.72,+111,-237,+13
101429,-0.205,-2.230,-1.043,0.602291,-0.413187,1.529527,100153.40,+115,-235,+14
101439,-0.598,-2.125,-1.519,0.755007,-0.389242,1.409270,100147.10,+120,-234,+16
101448,-0.859,-1.686,-1.807,0.842273,-0.364765,1.248573,100147.10,+122,-233,+19
101458,-0.894,-0.948,-1.859,0.879521,-0.354123,1.070848,100149.82,+122,-233,+19
101469,-0.806,-0.362,-1.821,0.897612,-0.356251,0.897912,100150.35,+125,-229,+22
101479,-0.830,-0.043,-1.787,0.895484,-0.357847,0.740408,100150.35,+126,-227,+24
101484,-1.019,0.018,-1.716,0.873135,-0.357847,0.631325,100151.13,+126,-227,+24
101493,-1.303,0.085,-1.597,0.825778,-0.355187,0.513729,100150.13,+128,-225,+27
101504,-1.689,0.303,-1.213,0.767246,-0.335499,0.344518,100149.49,+128,-224,+28
101514,-1.863,0.509,-0.808,0.766181,-0.300380,0.155619,100150.13,+128,-224,+28
101524,-2.003,0.367,-0.529,0.822585,-0.243976,-0.041793,100150.13,+128,-221,+32
101533,-2.075,0.090,-0.302,0.854511,-0.162563,-0.261023,100153.09,+126,-221,+33
101543,-1.741,0.158,-0.292,0.786934,-0.086471,-0.520692,100148.88,+125,-220,+36
101554,-1.056,0.577,-0.149,0.639007,-0.013040,-0.800050,100149.26,+125,-220,+36
101564,-0.367,0.874,-0.030,0.486824,0.052409,-1.066637,100152.88,+122,-219,+38
101573,0.165,0.509,-0.215,0.344218,0.106684,-1.305022,100152.88,+119,-219,+38
101583,0.678,-0.185,-0.410,0.187246,0.164152,-1.560967,100150.88,+114,-219,+40
101594,1.305,-0.494,-0.381,0.033998,0.222152,-1.864269,100151.04,+114,-219,+40
101604,2.031,-0.567,-0.138,-0.042626,0.288666,-2.172893,100155.20,+108,-219,+39
101614,3.078,-0.617,-0.019,-0.077213,0.364758,-2.486306,100150.88,+102,-220,+39
101623,4.286,-0.634,0.443,-0.120314,0.452024,-2.800250,100150.88,+94,-221,+39
101634,5.469,-0.901,0.911,-0.184699,0.533969,-3.092379,100153.18,+94,-221,+39
101644,6.811,-1.285,1.098,-0.309745,0.619638,-3.360562,100150.55,+85,-221,+39
101654,8.530,-1.161,1.607,-0.450754,0.724996,-3.618635,100152.18,+75,-222,+38
101663,10.470,-1.014,2.147,-0.573671,0.823436,-3.840525,100152.82,+65,-223,+37
101673,12.494,-1.465,2.352,-0.657212,0.905913,-3.977277,100152.82,+54,-223,+37
101684,14.464,-3.085,2.259,-0.722662,0.993711,-4.026763,100154.18,+54,-221,+35
101694,16.051,-5.275,2.208,-0.862075,1.091087,-4.043791,100154.29,+43,-221,+34
101704,17.150,-6.514,2.563,-1.103120,1.220390,-4.049644,100151.09,+32,-221,+32
101713,18.346,-6.375,3.029,-1.326606,1.388005,-4.006543,100150.04,+22,-220,+29
101724,19.473,-5.873,3.216,-1.497946,1.551895,-3.824562,100150.04,+22,-220,+29
101734,20.153,-5.806,4.701,-1.563927,1.726959,-3.529241,100155.47,+14,-220,+27
101744,20.208,-9.357,18.202,-1.198368,2.144665,-3.203058,100150.42,+8,-219,+25
101753,51.622,-18.698,-6.870,1.259447,0.827693,-0.930417,100152.47,+9,-215,+30
101764,64.911,-27.845,-30.213,1.719722,-0.007187,1.051692,100156.25,+9,-215,+30
101774,11.890,-3.301,-8.828,-0.591763,2.069105,-1.705701,100156.25,+9,-215,+33
101784,-16.183,9.514,9.740,-2.991046,2.043032,-1.024600,100154.40,+10,-217,+27
101793,-10.646,18.205,11.871,-3.151211,0.577069,0.431784,100149.99,+12,-223,+21
101804,10.420,3.750,7.375,-0.335286,0.329638,-0.614876,100153.30,+12,-223,+21
101814,12.940,-7.745,3.460,1.469630,0.262060,-0.640949,100154.46,+11,-221,+24
101824,10.445,-9.599,3.177,1.231777,0.270042,-0.121610,100154.46,+10,-218,+27
101834,11.173,-4.173,3.248,0.214916,0.305161,-0.034876,100155.00,+12,-218,+27
101843,8.763,1.561,3.103,-0.244827,0.329106,-0.135445,100151.89,+12,-218,+27
101854,6.463,3.205,3.438,-0.078809,0.247161,-0.011463,100153.84,+11,-218,+28
101864,8.797,1.333,2.373,0.505980,0.123180,0.192867,100152.42,+11,-217,+29
101874,11.674,-1.405,0.402,0.881649,0.098171,0.320573,100152.42,+13,-216,+32
101883,11.900,-3.437,-0.220,0.804493,0.178519,0.370060,100152.12,+13,-216,+32
101894,10.591,-3.813,1.101,0.437337,0.256739,0.382830,100153.90,+14,-215,+33
101904,9.541,-2.407,2.058,0.094127,0.257272,0.356225,100153.43,+15,-215,+34
101914,9.510,-1.209,2.832,-0.012295,0.206189,0.368463,100149.02,+17,-215,+33
101923,9.646,-1.293,3.321,0.018567,0.143400,0.420078,100149.02,+17,-215,+33
101934,9.096,-1.689,3.188,0.055815,0.093914,0.464775,100151.45,+19,-216,+34
101944,8.444,-2.073,2.858,0.063264,0.051345,0.497234,100154.92,+20,-216,+35
101954,8.755,-2.192,2.344,0.023888,0.019951,0.500426,100152.25,+23,-216,+35
101964,9.557,-2.119,2.101,-0.058057,0.019418,0.515858,100151.56,+23,-216,+35
101974,9.662,-2.317,1.981,-0.163414,0.027400,0.553105,100151.56,+24,-217,+34
101984,9.484,-2.017,2.222,-0.190020,0.036446,0.566408,100156.05,+25,-219,+34
101994,9.404,-1.376,2.914,-0.059121,0.010905,0.579179,100154.59,+28,-219,+33
102004,9.235,-1.433,3.195,0.208530,-0.037517,0.613234,100153.80,+28,-219,+33
102013,9.176,-1.981,3.008,0.478310,-0.081150,0.628133,100149.85,+31,-219,+35
102024,9.400,-2.529,2.405,0.566108,-0.117866,0.621747,100149.85,+32,-218,+35
102034,9.545,-2.976,1.827,0.503851,-0.119994,0.645692,100154.17,+34,-217,+37
102044,9.616,-3.218,1.513,0.372952,-0.085939,0.660059,100155.75,+34,-217,+37
102053,9.379,-3.069,1.516,0.200016,-0.042838,0.653674,100153.81,+35,-218,+38
102064,9.230,-2.328,1.678,0.069650,-0.015701,0.651546,100150.30,+37,-218,+39
102074,9.304,-2.042,1.984,0.071423,-0.009138,0.658286,100150.30,+39,-218,+39
102084,9.443,-2.388,2.051,0.129246,-0.011444,0.669105,100151.39,+39,-218,+39
102094,9.494,-2.977,2.004,0.114879,-0.029536,0.661656,100153.44,+41,-219,+39
102104,9.349,-3.374,2.068,0.020163,-0.035921,0.642500,100150.81,+42,-219,+39
102114,9.144,-3.419,2.409,-0.082002,-0.042838,0.623344,100150.23,+45,-219,+39
102124,8.876,-3.172,2.454,-0.149580,-0.060398,0.600995,100150.23,+45,-219,+39
102134,8.891,-2.826,2.394,-0.165011,-0.071572,0.588225,100152.27,+47,-220,+39
102144,9.105,-2.824,2.242,-0.163414,-0.079554,0.594610,100152.02,+48,-221,+38
102154,9.154,-2.945,2.028,-0.167139,-0.075829,0.611637,100154.95,+50,-221,+38
102164,9.127,-2.684,2.010,-0.189488,-0.064655,0.630793,100153.38,+52,-221,+37
102174,9.175,-2.530,2.163,-0.198002,-0.064123,0.660059,100153.38,+52,-221,+37
102184,9.234,-2.785,2.340,-0.165011,-0.074765,0.694646,100153.02,+54,-223,+35
102194,9.100,-3.022,2.354,-0.136809,-0.077426,0.723912,100155.59,+56,-223,+36
102204,8.956,-3.153,2.330,-0.141598,-0.080086,0.743601,100152.39,+58,-225,+36
102214,9.064,-3.320,2.255,-0.155965,-0.091260,0.759564,100155.38,+58,-225,+36
102224,9.207,-3.438,2.305,-0.168203,-0.096581,0.765417,100155.38,+60,-225,+35
102234,9.289,-3.739,2.155,-0.183103,-0.105095,0.766481,100153.91,+62,-226,+34
102244,9.375,-3.954,1.963,-0.202258,-0.110416,0.761160,100155.95,+64,-227,+33
102254,9.264,-3.888,2.091,-0.223543,-0.102967,0.761160,100153.33,+64,-227,+33
102264,9.008,-3.839,2.135,-0.207580,-0.091260,0.769142,100152.75,+68,-227,+33
102274,9.053,-3.971,2.023,-0.169268,-0.085407,0.776591,100152.75,+69,-228,+33
102284,9.198,-3.957,2.248,-0.149580,-0.082215,0.787766,100157.20,+71,-228,+32
102294,9.178,-4.058,2.734,-0.132552,-0.068912,0.809050,100152.30,+71,-228,+32
102304,8.821,-5.046,4.086,-0.167139,-0.013572,0.832463,100152.30,+74,-229,+32
102313,9.356,-4.533,3.425,-0.332625,0.001327,0.802665,100150.37,+77,-230,+30
102324,9.642,-5.121,3.322,-0.531102,0.021015,0.798408,100150.37,+80,-231,+29
102334,10.263,-4.633,3.248,-0.750864,0.072097,0.804261,100150.68,+80,-231,+29
102344,10.571,-3.889,3.002,-0.976478,0.088593,0.859600,100153.10,+82,-232,+27
102354,11.027,-3.759,2.512,-1.076515,0.072629,0.971876,100154.88,+86,-235,+23
102364,11.908,-3.426,1.896,-1.147285,0.045492,1.090536,100151.95,+90,-237,+20
102374,12.452,-3.670,1.378,-1.166973,-0.022086,1.245380,100151.95,+90,-237,+20
102384,12.766,-3.723,1.058,-1.195175,-0.094985,1.384793,100153.78,+94,-238,+16
102394,12.974,-3.544,0.996,-1.179212,-0.175334,1.525270,100153.41,+99,-241,+13
102404,13.387,-3.699,0.991,-1.132918,-0.270049,1.656701,100153.25,+104,-243,+8
102414,13.982,-4.033,0.808,-1.117487,-0.375407,1.774829,100152.41,+104,-243,+8
102424,14.568,-3.705,0.870,-1.130790,-0.479701,1.870609,100152.41,+110,-243,+5
102434,15.519,-3.415,1.119,-1.134515,-0.594636,1.945104,100154.93,+116,-245,+3
102445,16.637,-3.101,1.613,-1.155799,-0.710636,2.001508,100151.95,+122,-245,+0
102454,17.961,-1.847,2.753,-1.272863,-0.802159,2.037159,100152.15,+122,-245,+0
102464,18.886,0.168,4.178,-1.413340,-0.863352,2.122829,100153.41,+127,-247,-5
102474,18.989,2.234,5.368,-1.552753,-0.870801,2.244150,100153.41,+134,-249,-9
102484,18.592,3.865,5.957,-1.750166,-0.833021,2.356425,100152.87,+140,-249,-14
102494,18.083,4.044,5.473,-2.013028,-0.793113,2.516590,100149.34,+140,-249,-14
102504,18.071,1.724,4.165,-2.176918,-0.788324,2.771471,100148.82,+149,-250,-20
102514,18.629,-2.536,3.188,-2.100294,-0.780875,3.129049,100153.38,+158,-250,-27
102524,18.695,-4.039,3.255,-2.193945,-0.767572,3.286553,100153.38,+169,-249,-33
102534,17.369,-1.147,4.706,-2.305156,-0.658489,3.041783,100153.34,+169,-249,-33
102545,16.763,0.291,4.665,-1.905897,-0.526349,2.895275,100151.19,+179,-247,-39
102554,16.058,-0.744,4.298,-1.487303,-0.477572,2.787966,100150.45,+189,-245,-45
102564,14.539,-0.720,3.712,-1.101524,-0.403077,2.494774,100149.83,+198,-243,-47
102574,12.624,0.691,3.500,-0.791304,-0.301444,2.055251,100149.83,+198,-243,-47
102584,9.848,0.721,2.688,-0.382112,-0.243976,1.671068,100151.19,+204,-241,-50
102594,3.361,-1.842,3.283,0.153723,-0.313682,1.692884,100151.50,+208,-239,-49
102604,6.615,-11.850,0.578,0.300053,-0.380196,1.934462,100149.66,+215,-236,-48
102615,7.928,-6.900,0.806,0.157980,-0.094985,0.739876,100151.28,+217,-236,-47
102624,7.936,1.498,1.948,0.153191,0.107217,-0.144491,100151.28,+217,-235,-47
102634,4.777,5.721,1.069,0.488952,0.026336,-0.388197,100154.59,+213,-235,-47
102644,2.462,5.136,0.480,0.916236,-0.133829,-0.425977,100151.60,+212,-235,-44
102654,2.380,2.896,-0.108,1.416419,-0.177462,-0.746839,100151.29,+209,-235,-39
102664,2.995,1.270,-0.373,1.697905,-0.172141,-1.156563,100153.07,+209,-235,-39
102674,3.545,0.397,-0.821,1.712805,-0.198214,-1.502435,100153.07,+203,-236,-34
102684,3.692,-0.747,-1.196,1.585630,-0.224288,-1.816912,100150.65,+197,-237,-28
102694,3.680,-1.471,-1.113,1.408438,-0.225884,-2.161187,100152.95,+189,-239,-24
102705,3.771,-1.208,-0.764,1.271686,-0.216306,-2.537920,100146.96,+189,-239,-24
102714,4.275,-0.543,-0.630,1.232309,-0.209921,-2.893370,100148.91,+178,-241,-20
102724,5.140,-0.057,-0.777,1.313190,-0.214178,-3.176984,100148.91,+167,-243,-16
102734,6.004,0.307,-0.916,1.422805,-0.231205,-3.413773,100148.41,+155,-244,-11
102745,6.649,0.452,-0.712,1.552639,-0.235462,-3.644709,100149.73,+155,-244,-11
102754,7.184,0.148,-0.085,1.708548,-0.221095,-3.859149,100146.10,+140,-245,-6
102764,7.611,-0.639,0.779,1.866052,-0.216306,-4.044323,100145.32,+124,-245,+0
102774,7.819,-1.600,1.404,1.989502,-0.210453,-4.217791,100145.32,+110,-243,+5
102785,7.915,-2.521,1.944,1.997483,-0.182251,-4.390194,100146.55,+110,-243,+5
102794,8.243,-3.027,2.445,1.880951,-0.127444,-4.580690,100143.50,+94,-240,+11
102804,8.891,-3.209,2.655,1.679814,-0.054013,-4.795662,100145.81,+76,-236,+16
102814,9.806,-3.524,2.349,1.408970,0.013565,-4.988286,100145.34,+60,-232,+20
102824,10.666,-4.392,1.736,1.092365,0.108281,-5.130359,100145.34,+60,-232,+20
102835,11.176,-4.974,1.493,0.739044,0.251950,-5.230928,100147.23,+43,-228,+23
102844,11.526,-5.085,1.886,0.372952,0.412115,-5.304891,100147.66,+27,-223,+25
102854,12.149,-4.986,2.448,0.008989,0.550464,-5.391625,100148.30,+11,-217,+25
102864,12.869,-4.887,2.891,-0.292717,0.697326,-5.484745,100147.61,+11,-217,+25
102875,13.561,-4.941,2.773,-0.456607,0.850042,-5.546469,100147.61,-4,-211,+25
102884,14.283,-5.060,2.220,-0.473102,1.003289,-5.560836,100153.31,-19,-205,+25
102894,15.149,-5.287,1.775,-0.376790,1.136849,-5.524652,100151.16,-32,-195,+26
102904,15.843,-5.436,1.388,-0.223543,1.218262,-5.443240,100152.27,-32,-195,+26
102915,16.140,-5.793,0.967,-0.058589,1.237418,-5.296378,100149.17,-45,-187,+27
102924,16.468,-6.529,0.572,0.079228,1.203363,-5.082469,100149.17,-54,-177,+29
102934,16.844,-7.612,0.105,0.186714,1.133656,-4.807901,100151.25,-64,-166,+32
102944,16.609,-8.604,-0.044,0.271851,1.068739,-4.517369,100151.25,-64,-166,+32
102955,15.923,-9.774,0.204,0.356457,1.010739,-4.202360,100149.27,-71,-155,+33
102965,14.883,-11.025,0.430,0.446383,0.946886,-3.805406,100151.56,-79,-146,+36
102974,13.937,-12.312,0.685,0.600695,0.885693,-3.346727,100151.56,-83,-136,+39
102984,13.701,-14.663,0.644,0.783209,0.792574,-2.749168,100153.82,-83,-136,+39
102994,12.631,-17.451,0.176,0.883778,0.658482,-2.021774,100153.45,-86,-128,+42
103005,11.367,-19.431,-0.345,0.915704,0.481290,-1.222545,100152.51,-87,-122,+44
103014,10.631,-20.936,-0.343,0.941778,0.237051,-0.301995,100150.13,-88,-120,+47
103024,9.812,-21.522,-0.297,0.972640,-0.047095,0.672830,100150.13,-88,-120,+47
103034,8.519,-20.961,0.450,1.046071,-0.273774,1.586462,100154.28,-86,-120,+48
103045,8.141,-19.159,4.450,1.202511,-0.338159,2.295233,100154.80,-82,-122,+49
103054,8.937,-12.897,14.261,0.950823,0.011969,2.605985,100152.81,-78,-126,+51
103064,19.483,19.859,14.390,-0.874313,0.608464,1.394903,100150.81,-78,-126,+51
103074,29.477,31.375,-5.724,-2.363156,-0.406269,1.201747,100150.81,-75,-132,+50
103085,21.879,-1.866,-5.981,0.084549,-0.775021,3.808553,100156.53,-71,-142,+45
103095,21.612,-20.749,0.894,2.543960,-0.308361,4.032039,100152.91,-64,-144,+50
103104,11.240,-12.149,-3.306,1.263172,-0.145536,3.113085,100154.11,-58,-148,+52
103114,1.797,2.008,-0.703,0.143081,0.038042,2.461783,100154.53,-58,-148,+52
103124,4.960,4.333,3.315,0.569301,-0.084343,2.960902,100154.53,-54,-153,+52
103130,5.706,-2.285,4.784,1.200915,-0.156710,3.093929,100154.91,-54,-153,+52
103139,9.028,-10.222,3.366,1.299887,-0.139682,2.892792,100154.91,-47,-157,+55
103149,15.677,-15.460,-0.643,0.276108,-0.213646,2.786370,100152.75,-40,-161,+56
103159,14.466,-8.880,2.451,-1.025432,0.145528,2.281930,100152.13,-35,-167,+54
103170,10.470,-1.843,2.106,-1.368111,0.343473,1.739710,100150.66,-35,-167,+54
103180,8.349,-1.136,1.664,-1.051506,0.246097,1.788664,100154.98,-30,-173,+52
103190,8.787,-1.494,2.095,-0.598680,0.142868,1.749288,100153.62,-25,-178,+50
103199,9.186,-2.399,1.941,-0.358167,0.076354,1.582738,100152.04,-21,-181,+50
103209,9.471,-2.371,1.971,-0.287396,0.070501,1.416719,100152.04,-21,-181,+50
103220,10.183,-2.480,1.781,-0.310809,0.063051,1.259747,100152.93,-18,-183,+49
103229,10.292,-2.927,1.732,-0.360827,0.074758,1.122995,100152.93,-15,-186,+49
103239,9.948,-2.624,1.956,-0.430001,0.104024,0.954316,100155.26,-11,-189,+47
103249,9.261,-1.937,2.352,-0.415102,0.133822,0.801601,100153.48,-11,-189,+47
103260,8.785,-1.595,2.500,-0.313469,0.129033,0.690922,100153.68,-9,-190,+47
103270,8.883,-1.509,2.229,-0.206515,0.104556,0.605252,100151.12,-7,-192,+46
103279,9.175,-1.532,1.972,-0.128295,0.092850,0.529692,100151.12,-5,-193,+47
103289,9.430,-1.573,1.717,-0.082534,0.101363,0.485527,100155.73,-5,-193,+47
103300,9.837,-1.842,1.342,-0.087323,0.117327,0.460518,100153.61,-3,-194,+46
103310,9.999,-1.929,0.937,-0.171928,0.133822,0.441362,100150.95,-2,-195,+46
103319,9.734,-1.698,1.045,-0.264515,0.184905,0.430188,100150.95,+0,-195,+45
103329,9.488,-1.457,1.283,-0.342735,0.226409,0.444555,100150.95,-166,-195,+45
103340,9.520,-1.197,1.589,-0.369341,0.254079,0.469032,100154.69,+0,-197,+45
103350,9.417,-0.960,1.985,-0.348057,0.260996,0.500959,100152.31,+1,-199,+45
103359,9.315,-1.111,2.244,-0.309745,0.256207,0.545124,100153.38,+3,-200,+44
103369,9.188,-1.309,2.431,-0.308680,0.253015,0.596738,100153.69,+7,-202,+44
103379,8.952,-1.227,2.738,-0.350717,0.257272,0.649949,100153.69,+7,-202,+44
103390,8.753,-0.831,2.967,-0.373598,0.247161,0.715399,100152.75,+9,-203,+43
103400,8.648,0.155,3.324,-0.314002,0.238116,0.792555,100153.70,+12,-205,+42
103409,8.373,1.002,3.930,-0.157029,0.214171,0.893123,100152.89,+15,-206,+42
103419,7.899,1.142,4.498,0.118604,0.174795,1.049032,100152.89,+15,-206,+42
103430,7.620,0.278,4.552,0.396897,0.100299,1.241123,100152.93,+18,-206,+44
103440,7.925,-0.965,3.789,0.588457,0.008776,1.428426,100154.66,+22,-207,+45
103449,9.187,-1.806,2.647,0.622512,-0.077958,1.594444,100154.66,+27,-207,+47
103459,10.777,-2.736,0.987,0.464475,-0.154049,1.712040,100151.98,+27,-207,+47
103470,12.002,-3.196,-0.045,0.187778,-0.130636,1.786536,100153.82,+32,-207,+48
103480,11.739,-3.441,-0.024,-0.072956,-0.032196,1.839215,100153.82,+38,-209,+46
103489,10.278,-3.486,0.831,-0.201194,0.063584,1.853049,100155.46,+43,-211,+47
103499,9.078,-4.014,1.945,-0.197469,0.101363,1.822719,100155.82,+43,-211,+47
103510,8.869,-4.801,2.652,-0.162350,0.111473,1.723215,100155.82,+49,-213,+47
103520,9.364,-5.029,3.277,-0.218754,0.119987,1.597105,100153.46,+54,-214,+45
103530,9.787,-4.872,3.587,-0.366148,0.109345,1.515160,100156.94,+59,-215,+44
103539,10.297,-5.066,3.457,-0.575800,0.091253,1.484829,100155.30,+59,-215,+44
103549,10.941,-5.041,3.202,-0.841854,0.070501,1.472059,100152.47,+64,-217,+43
103560,11.567,-4.474,3.125,-1.106845,0.045492,1.481637,100152.47,+68,-221,+41
103570,12.424,-3.663,2.720,-1.278716,-0.010380,1.536976,100152.00,+73,-223,+37
103579,13.211,-3.176,2.301,-1.330863,-0.074765,1.633288,100152.00,+73,-223,+37
103589,13.752,-2.912,1.974,-1.287762,-0.135425,1.743435,100155.70,+78,-227,+32
103600,13.955,-2.975,1.544,-1.173891,-0.187040,1.875398,100154.12,+84,-229,+29
103610,14.014,-3.404,1.009,-1.063212,-0.243976,2.011086,100152.49,+90,-231,+25
103620,14.316,-3.285,0.647,-1.054166,-0.299847,2.145178,100154.74,+90,-231,+25
103629,14.906,-2.888,0.727,-1.119084,-0.366893,2.295233,100154.74,+97,-233,+23
103640,15.655,-2.144,1.583,-1.226038,-0.441921,2.452205,100155.70,+105,-235,+20
103650,16.540,-1.578,2.932,-1.383542,-0.513756,2.611306,100152.85,+112,-237,+15
103660,17.533,-1.097,4.063,-1.634698,-0.563774,2.751783,100153.34,+112,-237,+15
103669,18.508,-0.761,4.463,-1.989083,-0.581866,2.823618,100153.34,+121,-240,+10
103680,19.825,0.922,4.198,-2.484477,-0.610067,2.751251,100153.34,+129,-243,+3
103690,20.760,4.561,3.633,-2.950605,-0.626563,2.537343,100154.93,+138,-245,-5
103700,20.224,7.354,2.576,-3.017119,-0.681370,2.431985,100153.45,+138,-245,-5
103709,19.566,5.965,1.720,-2.573872,-0.867076,2.739012,100152.35,+145,-247,-13
103719,20.688,-0.226,2.206,-1.700147,-1.068214,3.417984,100153.51,+155,-248,-20
103730,21.017,-3.750,3.632,-1.003084,-1.067682,4.038956,100153.51,+168,-245,-22
103740,20.129,-5.198,4.998,-1.136111,-1.027774,3.792057,100152.87,+168,-245,-22
103750,18.754,-1.042,6.409,-0.947212,-0.904856,3.444057,100153.71,+179,-243,-25
103759,18.231,-0.477,6.565,-0.358699,-0.783535,3.324333,100151.66,+191,-240,-25
103770,16.628,0.307,7.183,0.162237,-0.583462,2.930572,100151.34,+199,-235,-25
103780,13.470,3.302,5.527,0.353264,-0.445645,2.222334,100150.49,+206,-232,-24
103790,4.007,5.040,2.621,0.127117,-0.781939,1.826444,100155.38,+206,-232,-24
103799,5.360,-9.314,2.621,0.138824,-1.044269,2.525104,100155.38,+211,-229,-22
103810,9.603,-11.039,2.026,0.641668,-0.736710,1.088408,100151.18,+215,-225,-20
103820,9.023,-1.554,1.967,0.645392,-0.396691,-0.155133,100149.87,+213,-227,-16
103830,5.741,1.962,1.444,0.308035,-0.388178,-0.277518,100149.87,+213,-227,-16
103839,2.362,2.412,0.691,0.095191,-0.507902,-0.348289,100156.86,+211,-226,-16
103849,1.097,2.159,-0.262,0.225558,-0.559517,-0.698417,100154.13,+208,-226,-15
103860,1.843,1.650,-0.495,0.559723,-0.536104,-1.155499,100152.23,+204,-229,-11
103870,2.686,0.612,0.222,0.863557,-0.504178,-1.540215,100148.50,+204,-229,-11
103880,2.686,-0.157,0.404,1.096089,-0.485554,-1.941957,100156.59,+196,-230,-8
103889,2.491,-0.694,0.467,1.194530,-0.424361,-2.363388,100150.17,+188,-231,-4
103900,2.354,-1.211,0.151,1.199319,-0.377535,-2.728948,100147.61,+177,-232,+0
103910,2.646,-0.899,-0.325,1.143979,-0.340288,-3.056195,100147.97,+177,-232,+0
103919,3.154,-0.224,-0.256,1.106732,-0.303040,-3.363755,100147.97,+166,-234,+3
103929,3.838,-0.032,0.080,1.137594,-0.264196,-3.618635,100147.97,+154,-236,+6
103940,4.550,0.128,0.040,1.198254,-0.243976,-3.824030,100150.02,+139,-237,+10
103950,5.182,-0.228,-0.209,1.337135,-0.205664,-4.016121,100149.24,+139,-237,+10
103960,5.883,-1.016,-0.205,1.449410,-0.179058,-4.190121,100146.46,+124,-237,+16
103970,6.531,-1.927,-0.064,1.474952,-0.188104,-4.352415,100146.77,+109,-235,+20
103980,6.909,-2.846,0.230,1.469098,-0.197682,-4.537057,100146.77,+94,-234,+23
103990,7.321,-3.188,0.771,1.409502,-0.176930,-4.741387,100150.61,+94,-234,+23
104000,7.782,-3.299,1.546,1.337667,-0.120526,-4.934011,100147.30,+77,-231,+28
104010,8.301,-3.283,2.515,1.254126,-0.039646,-5.125570,100144.45,+60,-227,+32
104019,8.857,-3.192,3.472,1.168988,0.065180,-5.298506,100144.45,+43,-221,+35
104030,9.674,-3.569,3.849,1.068420,0.177987,-5.422488,100144.45,+43,-221,+35
104040,10.693,-4.504,3.454,0.888034,0.295051,-5.501240,100147.84,+26,-214,+37
104050,11.500,-5.002,3.096,0.646457,0.440317,-5.541148,100147.84,+9,-207,+39
104059,12.217,-5.450,3.119,0.411796,0.576537,-5.538487,100149.42,-4,-200,+40
104070,13.275,-6.162,3.132,0.212787,0.684024,-5.535295,100149.20,-4,-200,+40
104080,14.384,-6.872,3.338,-0.019213,0.776079,-5.570946,100149.20,-18,-191,+41
104090,15.282,-6.993,3.474,-0.278350,0.871858,-5.640121,100148.22,-32,-182,+42
104100,15.874,-7.075,3.138,-0.499708,0.970299,-5.632139,100151.06,-43,-173,+42
104110,16.608,-7.587,2.728,-0.609322,1.067142,-5.517203,100149.38,-43,-173,+42
104120,17.551,-8.497,2.351,-0.648699,1.148023,-5.322983,100150.73,-53,-163,+42
104130,18.058,-9.483,2.186,-0.659341,1.212941,-5.038836,100153.09,-62,-155,+43
104140,17.778,-10.393,1.884,-0.641781,1.255509,-4.704139,100152.00,-69,-146,+44
104150,17.205,-12.150,1.668,-0.610919,1.253913,-4.355075,100152.00,-69,-146,+44
104160,15.798,-14.561,0.990,-0.729047,1.251785,-3.902250,100150.69,-75,-137,+45
104170,13.651,-16.472,0.146,-0.975946,1.294886,-3.429736,100154.63,-79,-132,+45
104180,12.464,-18.089,-0.784,-1.311175,1.265087,-2.831645,100154.63,-81,-128,+46
104190,11.226,-19.997,-1.777,-1.546190,1.097295,-2.005101,100155.41,-81,-128,+46
104200,9.777,-20.628,-2.598,-1.569781,0.883565,-1.233719,100155.41,-81,-127,+45
104210,9.082,-18.969,-1.842,-1.399505,0.612721,-0.337114,100156.91,-81,-129,+44
104220,9.892,-16.643,-1.551,-0.885487,0.309418,0.557362,100153.66,-80,-132,+44
104230,10.237,-14.232,1.652,-0.121910,0.044960,1.408206,100153.66,-80,-132,+44
104240,11.776,-8.607,9.540,0.475117,0.021547,1.874866,100153.88,-77,-136,+45
104250,24.704,11.376,-2.019,0.064861,-0.555260,1.664150,100156.15,-73,-139,+45
104260,31.758,12.363,-8.218,0.010053,-1.007021,2.093563,100154.15,-71,-144,+43
104269,23.562,-8.209,-0.342,1.824015,-0.632416,3.841012,100154.15,-71,-144,+43
104280,19.971,-17.680,-0.451,2.183722,-0.320068,3.907525,100154.15,-64,-148,+47
104290,9.814,-11.610,-1.938,0.328787,-0.027939,3.219507,100157.59,-58,-153,+48
104300,1.663,-1.363,2.501,-1.049909,0.067840,2.852884,100156.23,-51,-160,+47
104310,0.440,-1.513,7.554,-0.754056,-0.054545,2.673563,100150.81,-45,-166,+45
104320,9.884,-6.567,4.294,0.073906,-0.344012,2.568205,100150.30,-45,-166,+45
104330,15.307,-8.226,1.489,-0.051139,-0.416912,2.423471,100150.30,-40,-170,+45
104340,13.117,-6.071,1.772,-0.605066,-0.211517,2.064297,100156.06,-35,-176,+43
104350,10.334,-3.599,1.385,-0.725322,-0.102967,1.769508,100154.36,-32,-180,+42
104360,9.292,-1.551,1.342,-0.511414,-0.073701,1.571031,100153.70,-32,-180,+42
104370,9.665,-0.851,1.374,-0.275690,-0.077426,1.467802,100153.70,-28,-184,+41
104380,9.192,-1.600,1.141,-0.081470,-0.084343,1.419380,100154.58,-24,-187,+40
104390,9.053,-2.302,1.344,-0.046882,-0.063591,1.272518,100154.58,-20,-189,+40
104400,10.114,-2.657,1.634,-0.229928,-0.035389,1.119270,100155.80,-20,-189,+40
104410,10.694,-2.939,1.960,-0.458735,0.000262,0.989967,100153.53,-18,-191,+40
104420,10.107,-2.339,2.299,-0.636460,0.049217,0.847894,100152.53,-17,-193,+39
104430,9.158,-1.422,2.527,-0.722662,0.081143,0.729766,100152.53,-13,-196,+37
104440,9.003,-1.315,2.506,-0.692332,0.079015,0.641968,100156.12,-13,-196,+37
104451,9.452,-1.821,1.854,-0.623157,0.055070,0.583968,100155.60,-12,-198,+36
104460,9.751,-1.578,1.804,-0.604001,0.065180,0.520647,100152.34,-10,-201,+33
104470,9.534,-1.047,2.254,-0.588570,0.090721,0.479142,100152.59,-9,-202,+33
104480,9.010,-0.906,2.581,-0.505029,0.115730,0.471692,100153.43,-9,-202,+33
104491,8.489,-0.656,3.044,-0.414038,0.130629,0.461582,100153.48,-7,-204,+32
104500,8.201,-0.544,3.327,-0.344332,0.104024,0.483931,100153.48,-6,-205,+32
104510,8.129,-0.422,3.581,-0.229928,0.058795,0.532353,100152.43,-4,-206,+30
104520,8.099,-0.085,3.953,-0.096901,0.009308,0.594078,100153.48,-4,-206,+30
104529,8.233,0.523,4.299,0.037191,-0.034857,0.664848,100153.48,-2,-207,+30
104540,8.759,-0.389,4.006,0.131374,-0.100306,0.763821,100153.39,+0,-208,+31
104550,9.958,-2.144,2.263,0.016439,-0.182251,0.852683,100154.91,+1,-209,+31
104560,11.215,-2.535,1.265,-0.251213,-0.165756,0.895252,100154.02,+1,-209,+31
104570,11.091,-2.354,1.007,-0.556644,-0.109352,0.969215,100154.75,+3,-210,+29
104580,10.316,-1.636,1.078,-0.750332,-0.055077,1.053288,100154.75,+7,-213,+27
104590,9.610,-1.226,1.451,-0.839194,-0.044435,1.152793,100155.27,+10,-217,+25
104600,9.383,-0.793,2.176,-0.811524,-0.061994,1.254426,100154.42,+10,-217,+25
104610,9.424,-1.047,2.773,-0.702974,-0.099242,1.343288,100151.91,+13,-219,+23
104620,9.441,-1.478,3.285,-0.580056,-0.113609,1.396499,100151.91,+18,-221,+22
104630,9.246,-1.765,3.686,-0.470974,-0.125848,1.407674,100151.91,+22,-223,+20
104640,9.054,-2.251,3.647,-0.397011,-0.149792,1.410866,100153.48,+22,-223,+20
104650,9.297,-2.801,3.128,-0.356038,-0.199811,1.419912,100152.70,+26,-225,+18
104660,9.917,-3.273,2.738,-0.377677,-0.250361,1.440487,100153.74,+30,-227,+17
104670,10.578,-3.439,2.543,-0.497047,-0.275370,1.475784,100153.74,+35,-229,+16
104680,11.077,-3.010,2.350,-0.684350,-0.278563,1.533251,100153.74,+35,-229,+16
104690,11.165,-2.338,2.550,-0.841854,-0.283352,1.626371,100154.98,+39,-233,+14
104700,11.483,-2.038,2.163,-0.870588,-0.332306,1.766315,100153.98,+45,-234,+11
104711,12.131,-2.172,1.388,-0.782790,-0.411590,1.908921,100153.74,+51,-237,+8
104720,12.743,-2.675,1.112,-0.709891,-0.470123,2.046737,100153.74,+51,-237,+8
104730,13.300,-2.873,0.741,-0.681157,-0.495664,2.177636,100156.85,+56,-239,+6
104740,13.640,-2.777,0.441,-0.676368,-0.520673,2.298957,100156.85,+64,-241,+3
104750,14.178,-2.347,0.275,-0.639121,-0.574948,2.433581,100157.63,+71,-243,+1
104760,15.005,-2.395,0.048,-0.574203,-0.656361,2.584700,100156.01,+79,-243,+0
104770,15.854,-2.556,0.141,-0.589102,-0.736177,2.732627,100155.74,+79,-244,+0
104780,16.525,-2.348,0.903,-0.735432,-0.802691,2.864058,100155.74,+88,-246,-1
104791,16.807,-1.969,2.188,-0.916350,-0.835150,2.978462,100153.61,+96,-247,-5
104800,16.628,-1.785,3.387,-1.166973,-0.843664,3.073177,100151.50,+106,-249,-8
104810,16.495,-1.538,4.238,-1.603836,-0.811737,3.125324,100150.19,+106,-249,-8
104820,17.489,-0.343,4.899,-2.288661,-0.767572,3.143948,100154.84,+117,-249,-15
104830,19.676,2.995,5.212,-3.080972,-0.794709,3.071049,100156.26,+127,-252,-25
104841,20.926,7.888,5.708,-3.490165,-0.900599,2.917269,100153.84,+136,-254,-36
104850,22.367,6.951,4.561,-3.106514,-1.074067,3.019966,100153.57,+136,-254,-36
104860,22.836,0.244,3.747,-2.243964,-1.266691,3.629764,100153.57,+147,-255,-43
104870,22.798,-4.789,4.714,-1.628845,-1.265095,4.086314,100152.01,+160,-253,-47
104880,21.888,-4.548,6.649,-1.562863,-1.172507,4.032571,100152.01,+174,-249,-51
104890,20.733,-4.473,7.660,-1.074919,-1.180489,3.643599,100152.95,+174,-249,-51
104896,20.789,-3.884,7.645,-0.459267,-1.117700,3.498333,100152.32,+186,-245,-52
104905,19.063,-2.323,9.376,0.101576,-0.892086,3.204608,100154.26,+186,-245,-52
104915,16.018,3.060,8.743,0.776291,-0.684563,2.252664,100151.59,+196,-241,-49
104925,9.109,3.891,5.988,1.396199,-0.920819,1.617857,100151.59,+200,-238,-45
104935,3.588,-10.246,4.626,1.418548,-1.145902,2.398994,100154.00,+208,-233,-40
104945,7.056,-7.600,1.198,0.641668,-1.031498,1.077233,100157.45,+208,-233,-40
104955,7.948,1.157,1.135,0.036127,-0.788324,-0.230160,100152.36,+208,-233,-37
104966,4.794,1.719,0.568,-0.186827,-0.785664,-0.303059,100150.11,+206,-233,-37
104975,1.880,1.147,0.129,-0.163947,-0.753205,-0.491426,100150.11,+204,-233,-37
104985,1.346,1.251,0.739,0.186714,-0.622838,-0.932545,100155.98,+204,-233,-37
104995,1.607,2.039,1.031,0.650181,-0.528655,-1.424747,100154.83,+200,-235,-34
105006,1.995,2.666,0.717,1.058842,-0.491939,-1.831811,100152.31,+192,-235,-31
105015,2.008,1.974,0.475,1.386621,-0.461077,-2.107976,100150.73,+185,-235,-27
105025,1.851,0.626,0.620,1.646291,-0.386581,-2.358067,100150.73,+176,-237,-20
105035,2.177,0.120,1.072,1.838915,-0.269517,-2.631572,100153.09,+176,-237,-20
105046,2.516,0.362,1.222,1.980988,-0.145003,-2.932746,100151.52,+167,-237,-14
105055,3.133,0.485,1.224,2.096456,-0.048159,-3.223278,100148.63,+156,-237,-7
105065,3.758,-0.094,0.999,2.186382,-0.000270,-3.445699,100147.78,+143,-236,-1
105075,4.316,-1.163,0.505,2.234804,0.040703,-3.630874,100147.78,+143,-236,-1
105085,4.988,-1.746,0.000,2.203410,0.079015,-3.828819,100150.62,+132,-235,+6
105096,5.738,-1.789,-0.088,2.101777,0.105088,-4.068268,100148.09,+119,-233,+11
105105,6.406,-2.025,0.101,1.928841,0.099767,-4.315699,100145.57,+105,-230,+17
105115,6.897,-2.790,0.444,1.669172,0.106684,-4.528011,100144.84,+105,-230,+17
105125,7.266,-3.569,0.814,1.271153,0.147125,-4.721699,100144.84,+90,-227,+22
105131,7.478,-3.659,1.183,0.894420,0.211510,-4.860047,100146.55,+90,-227,+22
105140,7.711,-3.346,1.605,0.526732,0.310483,-4.985093,100146.55,+75,-225,+25
105150,8.257,-2.884,1.622,0.120200,0.439253,-5.119185,100148.91,+61,-222,+25
105160,9.161,-3.087,1.309,-0.154901,0.550996,-5.209112,100149.13,+45,-219,+25
105170,10.153,-4.115,0.935,-0.370937,0.660079,-5.278286,100145.78,+45,-219,+25
105181,11.106,-5.081,0.443,-0.573139,0.780868,-5.372469,100150.88,+31,-217,+25
105191,12.053,-5.265,0.084,-0.749799,0.916556,-5.501772,100150.19,+17,-213,+23
105200,13.100,-4.604,-0.124,-0.854093,1.046922,-5.627882,100148.25,+3,-208,+22
105210,14.211,-3.768,-0.176,-0.853029,1.157069,-5.693331,100148.25,+3,-208,+22
105221,15.170,-3.340,-0.388,-0.747671,1.251785,-5.660341,100149.45,-10,-203,+22
105230,15.678,-3.833,-0.738,-0.561433,1.339051,-5.570414,100149.45,-22,-195,+22
105240,15.732,-5.579,-0.621,-0.333157,1.423124,-5.442708,100149.09,-34,-188,+22
105250,15.883,-7.352,0.159,-0.138405,1.489638,-5.309148,100150.30,-44,-179,+23
105261,16.440,-7.992,1.299,0.111686,1.511454,-5.200066,100147.45,-44,-179,+23
105271,17.469,-7.348,1.775,0.566108,1.504537,-5.093644,100150.83,-53,-167,+26
105280,18.277,-7.788,1.255,1.072677,1.463032,-4.920708,100150.83,-61,-157,+30
105290,17.740,-9.638,0.084,1.311594,1.373638,-4.645075,100152.94,-68,-146,+34
105300,16.734,-11.692,-0.553,1.284456,1.241675,-4.309846,100151.98,-68,-146,+34
105311,15.911,-14.054,-0.165,1.016805,1.071931,-3.874048,100150.89,-73,-135,+37
105320,14.616,-16.946,0.201,0.606548,0.956996,-3.346727,100150.89,-77,-126,+40
105330,13.041,-20.037,-0.257,0.133503,0.894739,-2.720434,100150.89,-80,-121,+41
105340,11.724,-23.444,-1.447,-0.327836,0.739895,-1.806269,100156.28,-80,-121,+41
105351,10.444,-24.204,-1.292,-0.767359,0.442978,-0.678729,100155.28,-81,-119,+40
105360,9.563,-20.726,0.951,-1.014258,0.090721,0.401454,100152.97,-80,-122,+39
105370,9.375,-15.880,2.308,-0.750332,-0.216838,1.341692,100152.34,-78,-128,+37
105380,9.504,-10.977,4.256,0.085081,-0.339224,1.967985,100152.34,-78,-128,+37
105391,7.237,-9.142,18.755,1.090768,0.116795,2.395269,100156.41,-73,-132,+39
105401,17.058,17.474,16.417,0.479374,0.541950,1.427362,100150.12,-69,-134,+40
105410,38.258,35.500,-8.892,-1.471340,-0.798434,0.664316,100154.10,-69,-140,+35
105420,30.267,-6.013,-3.954,1.546254,-1.002232,4.477947,100154.10,-69,-140,+35
105431,27.068,-26.490,-3.627,4.223831,-0.482893,4.718992,100154.20,-59,-144,+42
105441,13.371,-18.063,-5.496,1.402052,0.166281,3.128516,100154.20,-52,-146,+44
105450,-1.049,0.441,1.116,-1.522423,0.321125,2.837985,100155.13,-45,-157,+42
105460,-5.158,6.779,9.765,-1.019047,-0.005591,2.938553,100155.35,-45,-157,+42
105470,3.797,0.667,9.257,1.059374,-0.145003,2.531489,100153.40,-39,-161,+41
105481,13.201,-5.530,2.884,1.888401,-0.458948,2.492645,100153.40,-35,-162,+45
105490,16.143,-8.663,-0.036,1.292438,-0.506838,2.484132,100157.12,-30,-163,+45
105500,14.299,-8.637,0.357,0.362310,-0.351994,2.247875,100152.65,-30,-163,+45
105510,11.779,-5.248,0.005,-0.217158,-0.240251,1.944040,100153.76,-26,-167,+45
105521,10.387,-2.145,-0.802,-0.226736,-0.179058,1.708316,100151.29,-23,-171,+45
105531,8.975,-1.533,-1.081,0.063796,-0.115737,1.650848,100158.14,-18,-174,+46
105540,8.234,-1.551,-0.680,0.314420,-0.027939,1.598169,100152.63,-18,-174,+46
105550,9.352,-1.859,0.323,0.352200,0.079547,1.477912,100153.20,-15,-175,+46
105561,10.379,-2.510,1.265,0.183521,0.159895,1.386921,100153.20,-10,-177,+47
105571,10.360,-2.787,2.226,-0.112332,0.207253,1.279435,100154.00,-7,-179,+47
105580,9.227,-2.284,2.645,-0.374130,0.230666,1.151197,100154.00,-7,-179,+47
105590,8.506,-1.373,2.593,-0.541744,0.236519,0.983582,100157.34,-3,-181,+46
105601,8.846,-0.760,2.573,-0.638588,0.238648,0.837252,100153.87,-1,-184,+45
105611,9.598,-0.486,2.391,-0.687543,0.230134,0.771802,100154.18,+1,-185,+44
105621,9.992,-0.082,2.375,-0.634864,0.240244,0.760096,100153.13,+1,-185,+44
105630,9.648,0.252,2.746,-0.493322,0.246097,0.774463,100153.13,+3,-188,+42
105640,9.049,0.048,3.031,-0.345396,0.213639,0.825545,100154.88,+6,-191,+41
105651,8.930,-0.380,3.058,-0.228864,0.160428,0.879821,100153.90,+9,-191,+41
105661,9.178,-0.881,3.053,-0.188424,0.108813,0.928243,100152.12,+9,-191,+41
105670,9.134,-1.021,2.932,-0.202791,0.068373,0.983582,100152.12,+11,-193,+42
105680,9.032,-0.696,3.108,-0.180974,0.026336,1.039986,100152.12,+14,-195,+40
105691,8.973,-0.327,3.101,-0.080937,-0.023682,1.116077,100155.50,+17,-196,+40
105701,9.306,-0.333,2.801,0.054218,-0.069976,1.196958,100155.30,+20,-196,+42
105710,9.688,-0.911,2.209,0.160108,-0.099774,1.274114,100152.83,+20,-197,+42
105716,9.937,-1.445,1.803,0.169686,-0.102435,1.332646,100150.78,+24,-198,+40
105725,9.952,-1.885,1.734,0.096255,-0.093921,1.381068,100150.78,+24,-198,+40
105736,9.835,-2.064,1.845,-0.049011,-0.083279,1.430022,100154.74,+28,-199,+41
105746,9.585,-1.927,2.307,-0.177249,-0.074765,1.486958,100153.76,+32,-201,+39
105755,9.385,-1.823,2.625,-0.246956,-0.081682,1.544426,100152.23,+36,-203,+40
105765,9.474,-2.218,2.636,-0.272497,-0.097646,1.596573,100153.12,+36,-203,+40
105776,9.806,-2.826,2.302,-0.332625,-0.100306,1.646059,100153.12,+41,-205,+39
105786,9.958,-2.904,2.115,-0.448093,-0.085407,1.686499,100156.34,+46,-207,+37
105795,9.925,-2.753,2.384,-0.542277,-0.075829,1.725875,100153.40,+51,-210,+36
105805,9.594,-3.295,4.382,-0.627414,-0.021554,1.757270,100154.55,+51,-210,+36
105816,10.333,-3.182,3.629,-0.742350,-0.017829,1.759930,100153.80,+56,-211,+35
105826,10.686,-4.282,3.418,-0.846111,-0.019958,1.750352,100153.80,+62,-213,+32
105836,11.143,-4.455,3.164,-1.041928,0.001859,1.713104,100154.84,+67,-217,+28
105845,11.606,-3.838,2.743,-1.278716,0.023143,1.728536,100153.58,+67,-217,+28
105856,12.315,-2.972,1.831,-1.401102,0.005051,1.786536,100154.73,+71,-220,+25
105866,13.082,-2.395,1.483,-1.421322,-0.048692,1.902536,100153.69,+77,-223,+21
105876,13.741,-2.261,0.952,-1.343634,-0.140214,2.070150,100153.69,+83,-226,+17
105885,14.016,-2.104,0.680,-1.245194,-0.205664,2.238297,100158.16,+83,-226,+17
105895,14.396,-2.341,0.408,-1.139304,-0.283884,2.408040,100154.53,+91,-229,+13
105906,15.097,-2.776,0.296,-1.086625,-0.373279,2.556499,100155.33,+99,-230,+10
105916,15.590,-3.056,0.429,-1.150478,-0.438728,2.691122,100153.33,+106,-232,+6
105925,16.031,-2.760,1.191,-1.329267,-0.476508,2.814040,100153.33,+106,-232,+6
105935,16.874,-2.547,2.546,-1.625120,-0.530783,2.922058,100155.20,+115,-235,+3
105946,18.545,-1.325,4.294,-2.141267,-0.575480,2.976865,100154.72,+123,-236,-4
105956,20.434,1.539,5.715,-2.780330,-0.591976,3.000810,100154.30,+132,-239,-12
105966,20.799,6.757,6.136,-3.169302,-0.636673,2.986975,100153.83,+141,-241,-22
105975,21.256,9.599,5.457,-3.046385,-0.795242,3.016773,100153.83,+141,-241,-22
105986,22.844,5.756,3.769,-2.720734,-1.049590,3.365837,100156.14,+152,-243,-30
105996,23.424,0.787,3.694,-2.417432,-1.177296,3.845268,100154.98,+164,-241,-38
106006,23.257,-1.040,5.788,-1.923101,-1.085241,4.145378,100153.36,+176,-239,-44
106015,22.222,-2.963,7.164,-1.508588,-0.938911,4.317781,100153.41,+176,-239,-44
106025,19.752,-3.892,6.351,-1.305322,-0.929333,3.758534,100153.41,+190,-237,-47
106036,18.888,-1.658,6.497,-1.032882,-0.797902,3.366902,100155.37,+200,-233,-51
106046,17.860,-1.155,7.622,-0.522589,-0.578673,2.978462,100153.79,+209,-229,-52
106055,14.772,2.617,6.743,-0.147451,-0.405205,2.224994,100152.79,+209,-229,-52
106065,4.090,6.642,5.331,-0.069231,-0.598361,1.686499,100153.21,+213,-227,-53
106076,5.848,-8.662,3.858,-0.032515,-0.905920,2.278205,100153.21,+221,-224,-53
106086,8.245,-7.506,1.663,0.089338,-0.551535,0.651013,100153.08,+221,-224,-53
106096,7.332,0.252,1.310,-0.268240,-0.286013,-0.374894,100153.14,+221,-224,-53
106105,3.093,3.621,-0.209,-0.540148,-0.363168,-0.588802,100151.92,+219,-225,-55
106116,0.280,3.274,-1.050,-0.310277,-0.409462,-0.776637,100154.55,+215,-228,-57
106126,1.127,1.419,-1.327,0.293136,-0.337095,-1.168270,100154.55,+210,-230,-56
106136,2.341,0.855,-1.236,0.734255,-0.291866,-1.671113,100155.64,+210,-230,-56
106145,2.957,1.353,-1.010,1.073741,-0.229077,-2.165443,100154.22,+204,-232,-54
106156,3.039,2.290,-0.185,1.406841,-0.139682,-2.503333,100151.75,+195,-234,-50
106166,2.791,2.502,0.511,1.777190,-0.076361,-2.814617,100151.17,+185,-237,-45
106176,2.676,1.570,0.836,2.135832,0.010373,-3.125902,100151.17,+185,-237,-45
106186,3.334,0.414,0.501,2.281807,0.095865,-3.419449,100151.21,+173,-239,-40
106195,3.818,-0.683,0.158,2.190107,0.166281,-3.653754,100151.21,+160,-241,-33
106206,4.475,-1.774,-0.219,1.920859,0.245565,-3.915552,100149.54,+147,-243,-28
106216,5.417,-2.049,-0.624,1.534016,0.305694,-4.195974,100149.54,+147,-243,-28
106226,6.307,-1.598,-0.983,1.184420,0.359437,-4.499809,100149.54,+132,-244,-25
106235,7.073,-1.409,-1.167,0.879521,0.395620,-4.748837,100148.98,+116,-245,-22
106246,7.664,-1.916,-1.160,0.548548,0.428611,-4.929222,100146.98,+99,-246,-20
106256,8.012,-2.137,-0.551,0.306971,0.529712,-5.088855,100146.29,+99,-246,-20
106266,8.336,-1.970,0.053,0.220769,0.664335,-5.215497,100142.77,+81,-246,-22
106275,9.015,-2.310,0.413,0.169686,0.776611,-5.286799,100142.77,+64,-246,-21
106286,9.810,-2.820,0.857,0.105301,0.880904,-5.368212,100147.98,+46,-243,-20
106296,10.883,-3.200,1.055,0.034530,0.989455,-5.500175,100148.30,+46,-243,-20
106306,11.829,-3.386,0.662,-0.001653,1.095876,-5.623093,100148.52,+28,-239,-20
106315,12.480,-3.648,0.157,0.027613,1.200702,-5.692267,100147.98,+9,-234,-20
106326,13.266,-3.848,0.048,0.051558,1.289032,-5.734304,100147.98,-8,-227,-18
106336,14.526,-3.968,0.365,0.019631,1.362463,-5.789111,100150.95,-8,-227,-18
106346,15.815,-4.099,0.475,0.002604,1.423656,-5.831680,100152.68,-25,-219,-16
106356,17.077,-4.357,0.644,0.088273,1.476867,-5.855625,100151.05,-41,-209,-15
106365,18.298,-4.786,0.575,0.286750,1.510922,-5.841790,100152.88,-58,-197,-11
106376,19.212,-6.002,0.131,0.536842,1.519968,-5.723661,100152.88,-58,-197,-11
106386,19.600,-7.538,-0.655,0.693282,1.477931,-5.547534,100153.34,-70,-185,-7
106396,19.368,-8.784,-0.837,0.747025,1.392794,-5.334690,100153.39,-82,-171,-3
106405,18.789,-10.344,-0.413,0.774163,1.272005,-5.018084,100152.19,-92,-157,+0
106416,18.197,-12.676,0.016,0.774163,1.144831,-4.570048,100149.72,-92,-157,+0
106426,17.217,-16.140,-0.061,0.715099,1.050115,-3.969828,100149.72,-100,-145,+5
106436,15.489,-20.269,-0.726,0.559723,0.974555,-3.244562,100156.30,-105,-133,+7
106446,12.646,-25.062,-1.494,0.223429,0.858023,-2.405425,100153.99,-108,-126,+10
106456,9.753,-27.822,-1.390,-0.368809,0.622831,-1.405059,100154.41,-109,-124,+10
106466,8.721,-26.508,-0.910,-0.822166,0.281216,-0.330729,100153.26,-109,-124,+10
106476,8.602,-21.739,-0.849,-0.808331,-0.027939,0.717527,100153.26,-109,-126,+8
106486,7.312,-16.948,0.650,-0.314002,-0.206728,1.576352,100155.95,-107,-131,+7
106496,5.720,-10.715,10.854,0.419246,-0.098178,2.032902,100152.21,-104,-135,+9
106506,9.328,6.623,27.378,0.490016,0.729785,1.664150,100149.85,-104,-135,+9
106516,32.327,27.546,3.905,-1.641083,0.010905,0.544591,100150.54,-101,-137,+10
106526,30.390,-0.153,-12.504,-1.134515,-1.456654,3.653177,100150.54,-97,-148,+4
106535,26.861,-22.259,-1.828,2.422639,-0.818122,4.172515,100155.70,-89,-155,+8
106546,22.726,-15.100,-2.268,1.452071,-0.328049,3.255159,100156.61,-89,-155,+8
106556,6.667,-3.675,-0.877,-0.594423,-0.129572,2.938553,100156.23,-83,-161,+8
106566,0.581,3.527,4.027,-0.350717,-0.259407,3.241324,100153.23,-77,-170,+6
106575,1.752,-0.407,5.676,1.236034,-0.339224,3.099251,100153.23,-70,-174,+9
106586,9.130,-6.777,2.520,2.199685,-0.428618,2.808718,100153.91,-70,-174,+9
106596,14.416,-10.838,0.457,1.554768,-0.545682,2.761361,100155.27,-64,-177,+13
106606,14.288,-9.759,0.609,0.255356,-0.417444,2.488389,100154.01,-58,-181,+12
106616,12.697,-5.524,0.548,-0.527378,-0.262068,2.133471,100152.65,-53,-187,+11
106626,10.081,-3.057,0.080,-0.717873,-0.187572,1.896682,100152.65,-53,-187,+11
106636,8.563,-1.708,0.481,-0.626882,-0.135958,1.741306,100158.13,-49,-191,+10
106646,8.061,-1.103,0.779,-0.448093,-0.093921,1.597637,100155.03,-45,-195,+7
106656,8.892,-1.885,0.659,-0.270191,-0.065187,1.462126,100154.61,-41,-199,+7
106665,10.162,-2.571,0.730,-0.247488,-0.016233,1.357655,100154.28,-41,-199,+7
106676,10.707,-2.821,1.008,-0.324644,0.059859,1.231545,100154.28,-37,-200,+7
106686,10.269,-2.566,1.342,-0.431598,0.126373,1.105435,100156.75,-34,-203,+6
106696,9.625,-2.242,1.609,-0.518864,0.159363,0.978261,100154.64,-31,-206,+5
106706,9.288,-2.161,1.644,-0.585910,0.166281,0.855344,100153.02,-31,-206,+5
106716,9.522,-1.961,1.592,-0.635396,0.168409,0.729234,100151.13,-28,-209,+3
106726,9.825,-1.478,1.626,-0.636460,0.187033,0.624408,100151.13,-26,-210,+3
106736,9.751,-0.938,1.588,-0.560368,0.229602,0.552041,100153.85,-24,-212,+1
106746,9.423,-0.645,1.875,-0.444368,0.267382,0.530757,100155.01,-24,-212,+1
106756,9.194,-0.699,2.244,-0.345396,0.279620,0.553637,100154.10,-22,-213,+0
106766,9.005,-0.981,2.510,-0.278350,0.283345,0.580775,100151.38,-20,-215,+1
106776,8.873,-1.245,2.786,-0.278350,0.271638,0.600463,100151.38,-17,-217,+0
106786,8.833,-1.355,3.073,-0.325176,0.247161,0.614298,100154.27,-17,-217,+0
106796,8.836,-0.961,3.372,-0.356038,0.222684,0.622280,100151.80,-15,-217,+0
106806,8.683,-0.716,3.597,-0.339543,0.181180,0.650481,100154.16,-13,-219,+0
106816,8.598,-0.936,3.323,-0.290057,0.119455,0.703160,100154.58,-11,-220,-1
106826,8.788,-1.338,2.847,-0.233121,0.052409,0.754243,100154.58,-11,-220,-1
106836,9.094,-1.689,2.414,-0.187892,-0.001866,0.810114,100151.12,-8,-221,-1
106846,9.437,-1.973,1.954,-0.179378,-0.032196,0.868646,100152.32,-5,-223,-3
106856,9.745,-2.080,1.645,-0.225139,-0.041774,0.927711,100152.16,-2,-225,-3
106866,9.814,-1.725,1.676,-0.300167,-0.039114,0.999545,100155.05,-2,-225,-3
106876,9.788,-1.147,1.960,-0.342203,-0.044967,1.092665,100155.05,+0,-225,-3
106886,9.746,-0.902,2.272,-0.290589,-0.068380,1.200683,100156.30,+3,-228,-5
106896,9.778,-1.255,2.312,-0.185763,-0.107224,1.302848,100155.23,+7,-230,-5
106906,9.750,-1.854,2.132,-0.101158,-0.133297,1.385325,100150.52,+11,-230,-5
106916,9.659,-2.405,2.187,-0.065506,-0.137022,1.444921,100153.77,+11,-231,-6
106926,9.573,-3.128,2.244,-0.095837,-0.133829,1.479508,100153.77,+15,-234,-6
106936,9.620,-3.622,2.311,-0.189488,-0.127444,1.492279,100156.14,+21,-235,-6
106946,9.971,-3.827,2.719,-0.320387,-0.109352,1.477380,100155.67,+26,-237,-8
106956,10.302,-4.044,2.901,-0.460864,-0.089664,1.456096,100155.63,+26,-237,-8
106967,10.576,-4.063,3.059,-0.590699,-0.059334,1.432151,100151.16,+30,-239,-10
106976,10.877,-3.943,2.931,-0.703506,-0.058802,1.412995,100151.16,+35,-241,-12
106986,11.259,-3.693,2.637,-0.780130,-0.088600,1.409802,100158.01,+40,-243,-14
106996,11.803,-3.669,2.034,-0.832808,-0.157774,1.437472,100152.23,+40,-243,-14
107006,12.598,-3.347,1.764,-0.894179,-0.240783,1.491924,100152.54,+45,-245,-16
107016,12.784,-3.203,1.938,-0.935506,-0.289737,1.565710,100155.16,+50,-247,-20
107026,12.860,-2.681,2.120,-0.963708,-0.328049,1.674793,100155.16,+55,-249,-23
107036,13.274,-2.463,1.935,-0.934442,-0.395095,1.792921,100155.62,+55,-249,-23
107046,13.826,-2.581,1.456,-0.891873,-0.467462,1.917435,100153.52,+62,-251,-26
107056,14.171,-2.535,1.313,-0.895597,-0.517480,2.040352,100153.41,+68,-252,-30
107066,14.329,-2.597,1.042,-0.923799,-0.584526,2.166462,100151.05,+75,-255,-32
107076,14.444,-2.460,0.947,-1.015322,-0.658489,2.268095,100151.05,+75,-255,-32
107086,14.501,-2.202,1.170,-1.147817,-0.726067,2.371856,100154.16,+82,-255,-35
107097,14.732,-1.739,1.601,-1.304258,-0.774489,2.466572,100154.70,+91,-257,-40
107106,14.814,-1.010,2.300,-1.504863,-0.781407,2.541600,100151.96,+100,-259,-45
107116,14.474,0.274,2.852,-1.742716,-0.772361,2.588425,100155.01,+100,-259,-45
107126,13.826,1.802,3.171,-2.010368,-0.754269,2.563416,100155.01,+108,-259,-50
107137,13.600,2.679,2.903,-2.359964,-0.751609,2.531489,100155.31,+117,-260,-58
107146,14.906,2.620,1.899,-2.812257,-0.796838,2.628333,100153.95,+127,-261,-68
107156,18.027,1.292,1.683,-3.115560,-0.923480,2.889599,100153.64,+127,-261,-68
107166,21.099,-0.827,1.827,-2.991046,-1.042673,3.588791,100151.33,+138,-261,-78
107176,21.662,-1.976,4.034,-2.541945,-1.065021,3.684039,100151.33,+152,-258,-86
107187,22.306,0.814,6.696,-1.990147,-1.084177,3.650516,100155.73,+164,-257,-91
107196,21.583,-0.913,6.900,-1.405891,-1.198049,3.643067,100152.06,+164,-257,-91
107206,20.093,-1.326,5.574,-0.991909,-1.297021,3.430223,100152.95,+177,-252,-94
107216,18.460,-1.682,5.600,-0.712020,-1.272544,3.185452,100153.58,+189,-248,-96
107227,16.762,-0.572,6.283,-0.232057,-1.117700,2.710810,100153.58,+198,-245,-94
107236,11.791,7.386,6.517,0.426163,-1.067150,1.679049,100154.85,+198,-245,-94
107242,2.943,9.492,7.348,1.007227,-1.164526,1.628499,100152.49,+202,-243,-91
107251,4.528,-8.403,5.618,1.408438,-1.425260,2.445820,100152.49,+211,-239,-84
107261,8.330,-19.690,1.492,1.429722,-1.310324,1.535380,100151.18,+211,-239,-84
107272,7.266,-4.185,1.349,0.910915,-0.840471,-0.388197,100151.13,+211,-239,-79
107281,3.387,3.498,2.841,0.658163,-0.598893,-0.775573,100151.13,+208,-239,-76
107291,-0.884,2.654,1.553,0.683704,-0.721810,-0.663830,100151.03,+204,-241,-74
107301,-1.630,0.736,0.188,0.756071,-0.805352,-0.882527,100151.38,+204,-241,-74
107312,0.968,-0.039,-0.189,0.825245,-0.781407,-1.315664,100151.75,+201,-243,-71
107321,3.133,0.167,-0.066,0.757668,-0.719682,-1.746141,100151.75,+194,-245,-67
107331,4.151,0.186,0.120,0.814071,-0.647847,-2.086691,100151.75,+185,-248,-63
107341,4.277,-0.811,0.435,1.124291,-0.579737,-2.328269,100154.51,+185,-248,-63
107352,4.419,-1.756,0.335,1.521245,-0.518012,-2.562397,100150.20,+177,-249,-58
107361,4.524,-1.964,0.217,1.782511,-0.470123,-2.840159,100149.84,+166,-253,-52
107371,4.700,-1.445,0.383,1.864988,-0.428618,-3.149314,100150.98,+155,-253,-47
107381,5.139,-0.881,0.593,1.863392,-0.392435,-3.430268,100150.98,+155,-253,-47
107392,5.909,-0.893,0.684,1.849025,-0.369554,-3.651626,100152.02,+141,-255,-40
107402,6.697,-1.634,0.565,1.841575,-0.353058,-3.829351,100150.25,+126,-256,-34
107411,7.042,-2.951,0.492,1.746860,-0.345077,-4.010800,100146.70,+111,-256,-28
107421,7.178,-3.967,0.417,1.494640,-0.329113,-4.203424,100146.70,+111,-256,-28
107431,7.135,-4.476,0.775,1.203575,-0.272710,-4.375296,100147.46,+96,-255,-25
107442,7.391,-4.348,1.328,1.015209,-0.184380,-4.541314,100147.46,+78,-255,-21
107451,8.307,-3.923,1.926,0.963594,-0.099242,-4.690304,100147.95,+61,-253,-18
107461,9.504,-3.608,2.247,0.987007,-0.040178,-4.819075,100148.46,+61,-253,-18
107471,10.637,-3.880,2.144,1.090768,-0.008251,-4.886653,100145.84,+43,-250,-15
107476,11.351,-4.373,1.942,1.223264,0.003987,-4.896231,100145.84,+26,-245,-11
107487,11.908,-4.937,1.716,1.408438,0.006648,-4.882928,100149.16,+26,-245,-11
107496,12.425,-5.815,1.537,1.687263,-0.006655,-4.848341,100151.00,+9,-239,-5
107506,12.575,-6.817,1.805,1.944804,-0.018361,-4.783424,100148.80,-6,-231,+0
107516,12.600,-7.734,2.332,2.150199,-0.033260,-4.723295,100149.58,-21,-221,+6
107527,12.677,-8.438,2.619,2.282694,-0.057205,-4.690304,100149.58,-21,-221,+6
107536,12.740,-8.717,2.734,2.306107,-0.093921,-4.664231,100148.88,-36,-211,+12
107546,12.927,-8.503,2.664,2.222566,-0.137022,-4.637094,100147.56,-50,-197,+17
107556,13.497,-8.300,2.666,2.077832,-0.162563,-4.596121,100148.97,-63,-185,+22
107567,14.247,-8.407,2.437,1.938419,-0.176398,-4.507259,100147.30,-63,-185,+22
107576,14.768,-9.051,2.482,1.861263,-0.168948,-4.367846,100147.30,-75,-171,+27
107586,14.914,-9.744,2.744,1.839979,-0.152453,-4.186929,100150.98,-85,-159,+29
107596,14.472,-9.772,3.070,1.867116,-0.122123,-3.963974,100151.24,-94,-144,+33
107607,13.746,-8.642,3.183,2.016639,-0.067315,-3.710158,100147.30,-94,-144,+33
107617,13.466,-8.389,4.073,2.425299,-0.021554,-3.419094,100149.09,-102,-130,+37
107626,12.908,-9.553,3.945,2.845134,-0.039114,-3.017351,100149.09,-107,-116,+40
107636,11.816,-10.940,3.934,3.191537,-0.026343,-2.597517,100152.07,-111,-102,+46
107646,11.755,-12.088,4.360,3.408638,-0.021554,-2.151609,100153.48,-111,-102,+46
107657,10.746,-13.517,4.492,3.262308,-0.058270,-1.663132,100151.85,-115,-89,+49
107666,9.130,-14.213,4.347,2.892492,-0.046563,-1.222013,100150.43,-116,-78,+52
107676,8.404,-14.738,3.951,2.502455,-0.011444,-0.722362,100150.43,-116,-70,+55
107686,7.888,-15.244,3.491,2.116144,0.048152,-0.194509,100153.91,-116,-70,+55
107697,7.227,-14.710,3.144,1.768676,0.110409,0.256188,100152.23,-115,-65,+57
107707,6.537,-13.565,2.239,1.517520,0.134354,0.682408,100152.81,-116,-62,+59
107716,6.508,-11.727,1.534,1.363208,0.131162,1.036261,100152.28,-113,-62,+59
107726,7.200,-11.013,2.736,1.253594,0.180648,1.355527,100152.28,-113,-62,+59
107737,8.460,-7.680,7.731,0.979557,0.378060,1.502389,100152.66,-112,-63,+62
107747,16.742,9.862,6.579,0.153723,0.483950,0.964958,100152.20,-109,-66,+64
107756,29.757,19.357,-3.934,-1.062680,0.035914,0.745197,100151.66,-109,-71,+64
107766,26.470,-1.175,-1.956,0.171283,0.434464,2.739012,100151.09,-109,-71,+64
107777,20.350,-15.797,-1.369,1.441961,0.794702,3.242920,100151.09,-104,-77,+66
107787,10.030,-13.981,-4.084,0.077099,0.902721,2.703361,100154.96,-98,-83,+69
107796,-0.895,-3.830,2.488,-1.582019,1.009675,1.969581,100152.38,-92,-92,+70
107806,3.070,-2.425,10.555,-1.188258,0.834611,2.042480,100151.12,-92,-92,+70
107816,12.339,-5.395,9.420,0.248971,0.464262,2.318113,100149.07,-88,-100,+71
107827,15.406,-7.498,1.772,0.463411,0.157235,2.048334,100149.07,-85,-103,+73
107837,12.013,-6.881,0.111,-0.110736,0.241308,1.709912,100152.48,-81,-108,+73
107846,10.462,-2.102,2.321,-0.532166,0.306758,1.475784,100151.96,-81,-108,+73
107856,9.725,0.233,2.192,-0.518332,0.192886,1.363508,100151.80,-79,-114,+74
107867,9.102,-1.021,1.443,-0.257598,0.067840,1.363508,100147.12,-77,-117,+73
107877,8.840,-2.107,0.943,-0.046350,-0.005591,1.212389,100147.12,-74,-119,+73
107886,9.224,-1.008,0.818,0.137760,-0.063059,0.988903,100151.80,-72,-119,+73
107896,10.147,-1.062,0.371,0.370292,-0.132765,0.887802,100152.42,-72,-122,+73
107907,10.628,-2.222,-0.546,0.515025,-0.163095,0.853747,100151.75,-71,-122,+73
107917,10.639,-2.126,-0.853,0.522475,-0.116270,0.767013,100150.64,-71,-122,+74
107926,10.063,-1.755,-0.704,0.507044,-0.055077,0.676555,100150.64,-69,-122,+75
107936,9.306,-2.257,-0.747,0.480970,-0.012508,0.617491,100152.59,-69,-122,+75
107947,9.296,-2.998,-0.780,0.301649,0.040525,0.518163,100151.49,-68,-123,+75
107957,9.592,-3.030,-0.615,0.021760,0.112006,0.399858,100151.12,-68,-123,+75
107967,9.630,-2.648,-0.620,-0.314002,0.190226,0.299289,100149.34,-66,-126,+76
107976,9.640,-1.843,-0.673,-0.551855,0.253547,0.228518,100149.34,-66,-126,+76
107986,9.550,-1.248,-0.258,-0.617836,0.292923,0.193931,100154.66,-64,-127,+76
107997,9.391,-0.910,0.443,-0.520992,0.297712,0.191271,100153.44,-64,-129,+76
108007,9.146,-0.458,1.009,-0.339543,0.281216,0.201381,100150.77,-64,-130,+74
108016,8.941,-0.155,1.602,-0.118717,0.253015,0.215748,100152.97,-64,-130,+74
108026,9.192,-0.613,1.497,0.114347,0.211510,0.241821,100152.97,-62,-130,+76
108037,9.819,-1.568,0.438,0.193631,0.149785,0.272151,100154.76,-61,-131,+76
108047,10.294,-1.862,-0.232,0.114879,0.126905,0.281197,100152.60,-60,-130,+76
108056,10.484,-1.244,0.017,-0.019745,0.138611,0.288647,100150.66,-60,-130,+76
108066,10.320,-0.643,0.666,-0.092112,0.140739,0.331748,100150.09,-60,-132,+77
108077,9.919,-0.371,0.906,-0.093708,0.113070,0.406243,100150.09,-58,-133,+76
108087,9.561,-0.242,1.383,-0.008038,0.077951,0.471692,100153.85,-57,-134,+76
108097,9.434,-0.161,2.097,0.121264,0.027400,0.536078,100151.32,-57,-134,+76
108106,9.472,-0.754,2.075,0.210659,-0.050820,0.603656,100150.07,-56,-134,+78
108116,9.707,-1.846,1.450,0.231411,-0.130636,0.664316,100151.07,-55,-135,+78
108127,10.032,-2.739,0.530,0.132439,-0.211517,0.680812,100151.07,-54,-136,+78
108137,10.534,-2.727,0.077,-0.100626,-0.255682,0.681876,100153.21,-54,-136,+78
108146,10.235,-2.551,-0.024,-0.358699,-0.281224,0.715931,100152.57,-54,-138,+76
108156,9.713,-1.771,0.006,-0.473634,-0.283352,0.710078,100152.21,-54,-140,+74
108167,9.445,-1.238,0.225,-0.396479,-0.300912,0.728701,100149.90,-52,-143,+74
108177,9.776,-1.380,0.524,-0.259194,-0.346673,0.766481,100149.90,-52,-143,+74
108186,10.102,-1.809,0.949,-0.163947,-0.391902,0.786701,100153.45,-52,-145,+73
108196,10.079,-1.885,1.209,-0.088919,-0.424361,0.785637,100151.20,-51,-147,+72
108207,10.102,-1.603,1.550,-0.021341,-0.454159,0.774463,100149.41,-51,-148,+72
108217,9.982,-1.677,1.568,0.051026,-0.513223,0.784041,100150.73,-51,-148,+72
108227,9.777,-1.801,1.219,0.152659,-0.548875,0.795215,100150.73,-51,-150,+71
108236,9.386,-2.113,0.773,0.275044,-0.575480,0.810646,100151.94,-50,-151,+71
108247,9.199,-2.692,0.222,0.362842,-0.618581,0.824481,100153.67,-51,-152,+70
108257,9.441,-2.852,-0.117,0.370292,-0.620710,0.823417,100152.05,-51,-152,+70
108267,9.781,-3.204,-0.467,0.341558,-0.625499,0.822353,100153.36,-50,-153,+70
108276,10.227,-3.761,-0.852,0.242585,-0.632948,0.809582,100153.36,-49,-153,+69
108286,10.748,-3.750,-0.904,0.061136,-0.621242,0.781380,100153.64,-49,-155,+68
108297,11.177,-3.340,-0.761,-0.127231,-0.626031,0.767546,100156.47,-49,-155,+68
108307,11.695,-2.493,-0.578,-0.227268,-0.664875,0.766481,100155.11,-49,-156,+67
108317,12.103,-2.041,-0.407,-0.186827,-0.718086,0.805325,100151.53,-50,-158,+64
108326,12.593,-1.601,-0.243,-0.103818,-0.788856,0.867050,100151.53,-49,-161,+63
108337,13.059,-1.338,0.082,-0.042626,-0.864948,0.960169,100154.46,-49,-161,+63
108347,13.784,-0.908,-0.353,0.010585,-0.981480,1.074573,100151.51,-50,-163,+63
108357,14.245,-0.501,-0.385,0.090934,-1.085774,1.194830,100150.88,-50,-165,+60
108366,14.433,-0.427,-0.656,0.196292,-1.219865,1.334242,100149.46,-49,-165,+59
108377,14.603,-0.428,-0.759,0.259613,-1.376838,1.466206,100149.46,-49,-169,+56
108387,14.683,-0.240,-0.388,0.310163,-1.515718,1.589655,100155.02,-49,-169,+56
108397,14.750,-0.201,0.030,0.404347,-1.635443,1.700866,100152.17,-49,-171,+54
108406,14.763,-0.677,0.581,0.455961,-1.738140,1.801435,100152.66,-49,-173,+53
108417,14.310,-0.576,1.617,0.368163,-1.789755,1.873802,100154.70,-47,-177,+50
108427,13.612,-0.251,2.952,0.227686,-1.837113,1.955747,100154.70,-47,-177,+50
108437,13.166,0.138,4.294,0.053686,-1.892452,2.032370,100153.17,-46,-180,+47
108446,12.752,0.711,5.500,-0.149580,-1.948323,2.065361,100150.92,-47,-184,+44
108456,13.379,1.466,6.050,-0.296974,-2.049957,2.051526,100150.81,-46,-187,+40
108467,15.168,0.829,7.194,-0.292717,-2.139351,2.097820,100148.88,-46,-187,+40
108477,16.955,-1.097,5.769,-0.296974,-2.185112,2.426132,100148.88,-44,-193,+35
108487,16.888,-1.157,5.486,-0.398075,-2.297388,2.616095,100149.45,-41,-198,+31
108496,17.453,-2.048,6.385,-0.282075,-2.455956,2.727306,100151.07,-38,-204,+27
108507,18.100,-2.445,6.649,0.449044,-2.375076,2.637379,100151.18,-38,-204,+27
108517,17.247,-1.118,5.981,1.158346,-2.262800,2.391545,100151.43,-35,-206,+25
108527,14.451,1.580,5.448,1.758566,-2.030801,2.039288,100151.43,-33,-207,+26
108536,10.852,3.942,4.455,2.400290,-1.861590,1.655105,100152.85,-33,-204,+30
108547,4.247,-0.145,5.605,3.148437,-1.819553,1.834426,100150.27,-33,-204,+30
108557,6.078,-9.553,2.400,3.593812,-2.136690,2.493177,100148.87,-30,-201,+37
108567,10.886,-7.841,2.060,3.984381,-1.927039,1.511435,100149.29,-29,-197,+42
108576,10.567,-1.524,5.036,4.495739,-1.569993,0.617491,100149.29,-31,-187,+50
108587,7.955,0.249,5.374,4.692619,-1.433773,0.391876,100150.49,-31,-187,+50
108597,5.249,-0.346,5.224,4.375482,-1.377370,0.288647,100152.02,-34,-177,+59
108607,4.406,-1.139,3.913,3.929042,-1.364599,0.085381,100148.87,-37,-167,+65
108617,3.988,-0.953,3.874,3.519849,-1.248599,-0.282839,100151.80,-41,-157,+69
108626,4.418,-0.176,4.319,3.175574,-1.143241,-0.666490,100151.80,-41,-157,+69
108637,4.899,-0.286,4.313,2.817464,-1.124085,-0.983096,100152.13,-46,-148,+73
108647,4.965,-1.487,3.863,2.480639,-1.105462,-1.263517,100148.61,-51,-139,+76
108652,5.069,-2.460,3.484,2.211923,-1.057040,-1.480086,100148.56,-51,-139,+76
108661,5.330,-3.262,3.334,1.893190,-0.986269,-1.713150,100148.56,-57,-130,+78
108672,5.742,-3.362,3.086,1.451007,-0.879847,-2.059554,100146.45,-64,-122,+78
108682,6.163,-2.441,2.719,1.062566,-0.769700,-2.413407,100146.45,-70,-114,+77
108692,6.358,-1.400,2.276,0.808750,-0.648911,-2.711920,100148.71,-70,-114,+77
108702,6.612,-0.580,2.159,0.679980,-0.536636,-2.950305,100147.74,-77,-106,+76
108712,6.914,-0.184,2.215,0.672530,-0.435535,-3.151443,100143.70,-81,-96,+76
108722,7.171,-0.062,2.477,0.823117,-0.316875,-3.344067,100143.70,-88,-86,+76
108732,7.669,-0.309,2.812,1.080658,-0.193425,-3.520195,100143.70,-88,-86,+76
108742,8.240,-1.131,3.047,1.381832,-0.066251,-3.682488,100145.48,-93,-73,+76
108751,8.773,-1.921,2.953,1.631924,0.059327,-3.834672,100147.22,-97,-58,+77
108762,9.037,-2.632,2.900,1.805924,0.187033,-3.948543,100144.80,-100,-42,+78
108768,9.158,-3.037,2.832,1.909685,0.276427,-4.005479,100144.53,-100,-42,+78
108777,9.360,-3.310,2.761,1.964492,0.369015,-4.072525,100144.53,-100,-26,+79
108787,9.990,-3.581,2.803,1.957575,0.493528,-4.200232,100145.60,-100,-26,+79
108796,10.777,-3.506,3.006,1.865520,0.613785,-4.359864,100146.02,-101,-8,+81
108807,11.466,-3.591,3.071,1.672896,0.709033,-4.503002,100145.87,-100,+8,+81
108817,11.923,-3.986,3.014,1.407906,0.806941,-4.623791,100146.02,-96,+25,+83
108827,12.266,-4.445,3.061,1.099282,0.929326,-4.756818,100146.02,-96,+25,+83
108837,12.655,-5.060,2.981,0.737979,1.053308,-4.872818,100150.07,-92,+41,+84
108847,12.946,-5.681,2.379,0.314952,1.159197,-4.955827,100146.87,-86,+56,+85
108857,13.257,-5.187,1.479,-0.095304,1.262959,-5.027130,100148.82,-78,+68,+87
108867,13.632,-3.935,0.869,-0.332625,1.347032,-5.032983,100144.82,-69,+80,+89
108877,14.169,-3.051,0.226,-0.295378,1.392262,-4.968066,100144.82,-69,+80,+89
108887,14.810,-2.936,-0.384,-0.012295,1.402904,-4.872286,100146.94,-60,+91,+93
108897,15.363,-3.305,-0.753,0.384126,1.394390,-4.772781,100146.83,-51,+102,+94
108907,15.906,-4.009,-0.859,0.778420,1.367785,-4.687112,100147.41,-39,+114,+94
108917,16.562,-5.208,-0.896,1.087576,1.286904,-4.586543,100147.67,-39,+114,+94
108926,16.570,-6.611,-1.277,1.246144,1.148555,-4.433827,100147.67,-28,+128,+94
108937,15.729,-8.545,-1.147,1.403117,0.991583,-4.196507,100148.65,-17,+139,+93
108947,14.661,-11.282,0.175,1.632988,0.823436,-3.819241,100151.23,-8,+150,+90
108957,14.343,-14.543,1.658,1.800071,0.669124,-3.307883,100146.65,-8,+150,+90
108967,13.688,-17.487,2.040,1.726107,0.556849,-2.798122,100147.91,+0,+161,+87
108977,12.307,-19.587,1.637,1.443025,0.488739,-2.198967,100147.91,+7,+167,+85
108987,10.729,-21.538,0.624,1.030640,0.402537,-1.335884,100151.16,+10,+173,+84
108997,9.925,-22.819,-0.387,0.473521,0.255675,-0.342435,100151.54,+10,+173,+84
109002,9.714,-21.992,-0.970,-0.043158,0.112538,0.332280,100153.52,+11,+173,+83
109011,9.048,-19.535,-0.833,-0.432130,-0.016765,0.882481,100153.52,+11,+173,+83
109022,8.081,-15.350,0.035,-0.564625,-0.160967,1.496004,100152.21,+7,+170,+84
109032,8.617,-11.068,2.685,-0.244295,-0.248233,1.937655,100152.21,+3,+166,+84
109042,8.900,-4.343,12.106,0.114879,-0.027939,2.113251,100152.60,-1,+164,+84
109052,19.894,21.327,8.199,-0.487469,-0.036453,1.162371,100151.84,-1,+164,+84
109063,30.909,21.446,-6.681,-0.829084,-0.915498,1.393839,100152.60,-3,+160,+87
109072,25.036,-9.634,-0.559,2.029942,-0.658489,3.991066,100152.60,-13,+156,+83
109082,24.726,-21.008,0.851,3.459721,-0.152985,4.116112,100152.60,-21,+159,+77
109092,13.494,-12.427,-0.825,1.454199,0.160960,3.171085,100154.23,-27,+156,+76
109102,1.484,0.053,1.051,-0.583781,0.213106,2.836920,100152.96,-27,+156,+76
109112,-2.005,5.013,4.517,-0.474167,-0.057737,2.917269,100153.59,-32,+150,+78
109122,2.514,1.057,4.993,0.855576,-0.212581,2.461251,100150.34,-38,+146,+76
109132,9.758,-7.283,2.994,1.451007,-0.272710,2.154223,100150.34,-42,+145,+73
109143,16.243,-11.656,-0.723,0.902933,-0.364233,2.272352,100153.79,-42,+145,+73
109152,16.821,-7.776,0.074,-0.103818,-0.130636,2.081856,100152.85,-47,+142,+73
109162,12.376,-3.926,0.349,-0.674240,0.098171,1.765783,100152.82,-50,+137,+74
109172,9.685,-3.245,-0.867,-0.646038,0.086464,1.708848,100152.82,-52,+132,+75
109182,7.889,-1.062,0.844,-0.422552,0.156703,1.484297,100151.88,-52,+132,+75
109193,7.067,-0.494,0.703,-0.150644,0.159895,1.280499,100152.97,-54,+128,+76
109202,8.741,-1.652,0.369,0.064329,0.147125,1.212921,100152.97,-57,+126,+76
109212,10.279,-2.582,0.677,0.013778,0.210446,1.099582,100150.45,-57,+123,+76
109222,11.130,-2.572,1.355,-0.228332,0.292923,1.014444,100150.77,-57,+123,+76
109232,10.590,-2.091,2.121,-0.458203,0.316336,0.951123,100150.77,-58,+120,+78
109238,9.680,-1.730,2.569,-0.518864,0.308354,0.904830,100152.83,-58,+120,+78
109247,8.888,-1.472,2.615,-0.522589,0.282281,0.837252,100151.47,-58,+117,+81
109257,8.595,-1.264,2.095,-0.545469,0.230666,0.743601,100151.42,-58,+114,+81
109267,9.395,-0.881,1.766,-0.548130,0.209382,0.689325,100151.00,-60,+110,+82
109277,10.096,-0.449,1.716,-0.499176,0.211510,0.671234,100151.00,-60,+110,+82
109287,10.041,-0.240,1.531,-0.407653,0.225877,0.691454,100153.20,-59,+107,+83
109297,9.638,-0.475,1.457,-0.309745,0.239180,0.724977,100153.99,-59,+104,+84
109307,9.422,-0.730,1.607,-0.261323,0.241840,0.759032,100152.26,-60,+102,+85
109318,9.433,-0.560,1.896,-0.283671,0.233859,0.795747,100149.10,-60,+102,+85
109327,9.326,-0.367,2.441,-0.328368,0.212042,0.834591,100149.10,-60,+99,+86
109337,9.151,-0.512,2.770,-0.328901,0.181712,0.874500,100153.83,-61,+96,+87
109347,9.065,-0.875,2.914,-0.257066,0.149253,0.922389,100152.16,-62,+93,+88
109358,9.065,-1.342,2.654,-0.181506,0.112006,0.973472,100149.89,-62,+91,+87
109367,9.267,-1.394,2.198,-0.141066,0.076354,1.022958,100150.84,-62,+91,+87
109377,9.708,-0.972,2.033,-0.135745,0.054006,1.076169,100150.84,-64,+88,+88
109387,9.921,-0.690,1.963,-0.145323,0.038042,1.160775,100153.80,-66,+86,+89
109398,9.872,-1.097,2.035,-0.115525,0.019951,1.258151,100153.23,-66,+82,+89
109407,9.739,-1.531,1.998,-0.096369,-0.000802,1.336371,100151.60,-66,+82,+89
109417,9.631,-1.767,2.226,-0.112864,-0.016765,1.395435,100147.45,-68,+78,+89
109427,9.489,-2.280,2.245,-0.142130,-0.038049,1.454499,100147.45,-69,+75,+89
109437,9.556,-2.825,1.894,-0.212369,-0.043903,1.490151,100147.58,-70,+70,+89
109447,9.735,-3.081,1.680,-0.330497,-0.046031,1.501857,100152.41,-70,+70,+89
109457,10.038,-2.903,1.905,-0.424680,-0.050288,1.502389,100150.05,-72,+66,+89
109467,10.203,-2.948,2.254,-0.454478,-0.064123,1.509307,100147.69,-74,+60,+90
109477,10.259,-3.264,2.546,-0.467781,-0.074765,1.519949,100147.69,-75,+56,+91
109488,10.352,-3.704,3.177,-0.553451,-0.084875,1.524738,100151.67,-75,+56,+91
109497,10.389,-4.210,4.097,-0.737561,-0.057737,1.541233,100150.14,-77,+50,+91
109507,10.883,-3.870,3.781,-1.019047,-0.042838,1.555600,100150.88,-77,+44,+91
109517,11.152,-3.766,3.218,-1.266478,-0.061462,1.599765,100149.83,-77,+36,+91
109528,11.535,-3.382,2.934,-1.447395,-0.085407,1.664683,100149.83,-77,+36,+91
109537,12.152,-2.964,2.090,-1.527744,-0.147132,1.773765,100150.85,-79,+27,+93
109547,13.039,-2.696,1.073,-1.501138,-0.232802,1.903068,100150.63,-81,+18,+93
109557,13.941,-2.805,0.412,-1.434093,-0.323260,2.044609,100152.37,-82,+8,+91
109568,14.772,-2.987,0.462,-1.398973,-0.441389,2.196792,100150.12,-82,+8,+91
109577,15.562,-2.658,1.172,-1.437285,-0.551535,2.352700,100150.12,-83,+0,+90
109587,16.255,-2.746,1.910,-1.514973,-0.618581,2.525104,100150.61,-85,-11,+89
109597,17.027,-2.757,2.410,-1.637358,-0.669664,2.684737,100150.08,-85,-22,+87
109607,17.951,-2.307,2.680,-1.807634,-0.753737,2.812975,100149.66,-85,-22,+87
109618,19.531,-1.113,3.103,-2.038037,-0.896342,2.900774,100147.45,-86,-35,+84
109627,22.045,1.072,3.620,-2.326973,-1.093223,2.961434,100147.45,-88,-49,+82
109637,24.301,4.748,4.104,-2.661670,-1.237425,2.989104,100150.33,-88,-64,+77
109647,23.859,9.514,4.493,-2.800018,-1.313516,2.994425,100148.97,-88,-64,+77
109658,22.549,9.692,3.870,-2.355707,-1.401315,3.090737,100148.23,-89,-79,+71
109667,21.696,0.414,2.639,-1.828386,-1.645021,3.578149,100147.48,-88,-92,+66
109677,19.561,-5.123,4.621,-1.632569,-1.633314,3.827709,100147.48,-87,-106,+61
109687,19.699,-4.476,6.694,-0.839726,-1.327883,3.685635,100149.20,-87,-106,+61
109698,18.727,-3.651,7.161,-0.217158,-1.052783,3.440865,100150.13,-85,-116,+57
109708,16.892,-0.602,8.147,0.048010,-0.674985,3.018724,100148.35,-81,-123,+56
109717,14.366,4.311,8.193,0.219705,-0.305701,2.355893,100148.82,-77,-128,+56
109727,9.419,6.728,4.050,0.465539,-0.295591,1.760462,100148.82,-77,-128,+56
109737,0.205,-0.360,2.130,0.562915,-0.636141,2.060040,100150.33,-75,-130,+56
109748,5.089,-12.233,1.834,0.501191,-0.477572,2.004169,100149.28,-71,-134,+55
109757,8.912,-5.425,1.178,0.011118,-0.060398,0.508408,100150.17,-71,-134,+56
109767,7.893,2.787,1.768,-0.480020,0.202464,-0.354142,100148.64,-71,-134,+56
109777,3.895,5.920,1.076,-0.547598,0.237051,-0.515903,100148.64,-71,-134,+55
109788,1.526,5.281,0.290,-0.161286,0.253547,-0.590399,100151.78,-71,-134,+54
109797,1.940,3.739,-0.214,0.588989,0.436060,-0.962875,100149.16,-72,-131,+57
109807,2.619,2.002,0.516,1.176438,0.623895,-1.318325,100148.73,-73,-123,+59
109817,3.080,0.765,1.445,1.487190,0.727124,-1.629609,100144.59,-73,-123,+59
109828,3.419,0.250,1.595,1.563814,0.759051,-1.982930,100144.59,-73,-116,+63
109838,3.282,-0.441,1.329,1.520181,0.781400,-2.359131,100146.74,-75,-107,+67
109847,3.622,-0.465,0.544,1.345649,0.819712,-2.763535,100148.16,-77,-96,+69
109857,4.156,0.227,0.007,1.038089,0.869198,-3.160489,100145.27,-77,-96,+69
109868,5.185,1.392,-0.616,0.697539,0.882500,-3.501039,100144.54,-79,-86,+73
109878,6.374,1.958,-1.262,0.516622,0.872390,-3.753259,100144.54,-81,-76,+75
109887,7.564,1.513,-1.694,0.496934,0.854831,-3.940030,100148.18,-83,-64,+76
109897,8.410,0.702,-1.798,0.582603,0.854831,-4.107645,100146.38,-83,-64,+76
109907,8.478,0.005,-1.460,0.783209,0.892078,-4.290690,100146.12,-83,-52,+78
109918,8.417,-0.681,-0.670,1.063631,0.941033,-4.487571,100145.54,-85,-38,+81
109927,8.839,-1.248,-0.194,1.286585,0.960189,-4.661038,100145.54,-84,-23,+83
109937,9.445,-1.273,0.669,1.435575,0.993711,-4.841424,100144.11,-84,-23,+83
109943,9.965,-1.198,1.415,1.487190,1.010739,-4.995203,100142.53,-82,-6,+86
109953,10.599,-1.255,1.990,1.477080,1.014996,-5.133552,100142.53,-82,-6,+86
109963,11.432,-1.725,2.393,1.372786,1.020317,-5.294781,100143.06,-79,+9,+88
109973,12.110,-2.540,2.311,1.166328,1.041601,-5.437919,100144.64,-76,+26,+89
109982,12.650,-3.105,2.139,0.896016,1.096408,-5.577864,100144.64,-69,+42,+90
109992,13.311,-3.348,1.959,0.603888,1.157069,-5.703974,100146.47,-64,+42,+90
110003,14.072,-3.517,1.704,0.342622,1.202830,-5.777405,100142.27,-64,+57,+93
110013,14.890,-3.889,1.537,0.122328,1.231032,-5.800817,100144.69,-55,+70,+94
110022,15.897,-4.457,1.558,-0.099029,1.251253,-5.801882,100144.69,-45,+82,+96
110032,16.879,-5.119,1.592,-0.284203,1.275197,-5.771552,100144.69,-35,+82,+96
110043,17.861,-6.210,1.713,-0.300699,1.339051,-5.684286,100148.49,-35,+92,+98
110053,18.638,-7.946,1.367,-0.241102,1.408225,-5.508689,100146.71,-24,+103,+100
110062,18.481,-9.600,0.541,-0.243763,1.473142,-5.228268,100146.09,-12,+110,+103
110072,17.693,-10.575,-0.494,-0.271433,1.522096,-4.851534,100147.51,-1,+116,+105
110083,17.040,-11.609,-0.928,-0.205451,1.500812,-4.363057,100147.51,-1,+116,+105
110093,16.412,-14.576,-0.547,-0.043690,1.377362,-3.767626,100146.84,+9,+122,+106
110103,14.708,-18.755,-0.527,0.065925,1.181014,-3.104085,100147.03,+18,+126,+108
110112,12.484,-21.160,-0.488,-0.029855,1.027766,-2.460232,100147.73,+26,+129,+108
110123,11.098,-20.360,-0.372,-0.176185,0.853767,-1.742416,100147.73,+26,+129,+108
110133,10.253,-19.271,-0.674,-0.057525,0.599418,-0.813885,100150.92,+30,+130,+109
110142,9.409,-19.575,-1.536,0.249503,0.295051,0.215748,100150.92,+31,+130,+109
110152,8.753,-20.133,-2.769,0.594842,0.030061,1.110224,100152.70,+28,+130,+108
110162,8.557,-18.381,-2.271,0.844934,-0.147132,1.709380,100152.39,+28,+130,+108
110173,8.683,-12.957,5.922,0.974236,-0.153517,1.988205,100150.59,+25,+132,+106
110183,12.825,3.411,18.315,0.537374,0.228005,1.724279,100150.59,+23,+132,+106
110193,34.254,27.591,-7.356,-1.148882,-0.837278,0.912279,100147.21,+18,+126,+108
110202,35.894,1.577,-9.781,0.585796,-1.522104,3.523874,100155.98,+18,+126,+108
110213,30.876,-20.412,-3.160,3.347978,-1.008618,4.638644,100154.30,+6,+129,+103
110223,17.009,-17.160,-3.288,1.689392,-0.306765,3.545158,100150.62,+0,+131,+98
110233,0.973,0.103,1.746,-0.628478,0.104556,2.946003,100153.46,-5,+124,+100
110242,-8.307,5.537,6.041,-0.648699,-0.287609,3.284425,100148.99,-5,+124,+100
110253,-1.247,-3.899,5.607,1.054585,-0.579205,2.726242,100148.99,-11,+118,+100
110263,12.577,-12.567,2.574,1.620217,-0.727132,2.354829,100152.84,-17,+120,+96
110273,20.933,-14.055,0.020,0.852915,-0.778746,2.467104,100150.79,-22,+120,+94
110282,19.294,-9.621,-0.151,-0.002185,-0.462141,2.087710,100150.79,-22,+120,+94
110292,12.608,-5.172,0.900,-0.444901,-0.151389,1.696609,100151.41,-26,+116,+95
110303,8.475,-1.344,1.619,-0.469378,-0.072637,1.540701,100151.98,-30,+111,+95
110313,6.782,0.478,1.559,-0.217158,-0.147132,1.526866,100150.83,-32,+107,+95
110323,5.778,-1.143,0.842,0.210659,-0.213646,1.481105,100150.30,-32,+107,+95
110332,7.957,-2.444,0.432,0.370292,-0.176930,1.249105,100150.30,-34,+106,+95
110343,10.703,-3.449,0.268,0.080824,-0.112013,1.113949,100151.77,-35,+104,+94
110353,11.867,-3.640,0.777,-0.305488,0.026868,1.026683,100151.40,-37,+101,+95
110363,11.326,-2.706,1.690,-0.568350,0.172666,0.883545,100150.62,-37,+101,+95
110372,9.537,-1.771,2.156,-0.655616,0.241308,0.788830,100150.62,-37,+97,+96
110383,8.148,-1.129,2.275,-0.578460,0.250354,0.692518,100150.62,-37,+94,+96
110393,8.200,-0.869,2.303,-0.472038,0.235987,0.574390,100154.25,-37,+91,+98
110403,8.962,-1.038,2.161,-0.420423,0.219492,0.481803,100152.09,-37,+91,+98
110413,9.837,-0.931,2.307,-0.352491,0.231021,0.430543,100151.20,-37,+89,+99
110423,9.727,-0.791,2.356,-0.295378,0.246097,0.442959,100151.20,-37,+88,+99
110433,9.196,-0.990,2.355,-0.295378,0.250354,0.477014,100151.20,-37,+86,+101
110443,9.176,-1.205,2.544,-0.380515,0.234923,0.527032,100148.56,-37,+86,+101
110453,9.506,-0.889,2.944,-0.507689,0.202996,0.568536,100152.17,-37,+83,+101
110462,9.606,-0.560,3.412,-0.605598,0.151914,0.619087,100151.03,-36,+80,+101
110473,9.527,-0.012,3.596,-0.626882,0.092850,0.687729,100151.03,-37,+77,+103
110483,9.521,0.143,3.530,-0.566754,0.019951,0.762224,100150.98,-38,+77,+104
110492,9.784,-0.717,3.140,-0.491194,-0.068380,0.840977,100150.98,-38,+74,+104
110502,10.224,-1.783,2.684,-0.441176,-0.110416,0.900041,100149.15,-39,+71,+104
110513,9.983,-2.255,2.447,-0.519928,-0.102435,0.928775,100150.20,-41,+68,+104
110523,9.301,-2.290,2.488,-0.680093,-0.087004,0.957509,100149.62,-41,+63,+104
110532,9.167,-2.040,2.684,-0.839194,-0.094453,1.007527,100149.62,-41,+63,+104
110543,9.245,-1.421,3.269,-0.978074,-0.103499,1.070316,100149.94,-43,+58,+105
110553,9.334,-0.620,3.635,-1.065341,-0.124783,1.162903,100150.67,-44,+52,+105
110563,9.393,-0.213,3.623,-1.047781,-0.164692,1.285820,100150.52,-46,+46,+106
110573,9.777,-0.222,3.469,-0.914753,-0.199279,1.416719,100148.74,-46,+46,+106
110583,10.361,-0.801,3.126,-0.789708,-0.222159,1.544958,100151.73,-47,+41,+105
110593,10.595,-1.931,2.594,-0.718937,-0.235462,1.660958,100151.46,-49,+36,+106
110603,10.516,-2.941,2.033,-0.741286,-0.249829,1.746627,100150.30,-50,+29,+106
110613,10.498,-3.155,1.925,-0.863139,-0.266324,1.812609,100150.30,-50,+29,+106
110623,10.573,-3.237,2.108,-0.981799,-0.308893,1.872205,100147.90,-51,+23,+106
110632,10.870,-3.281,1.984,-1.057891,-0.371150,1.922224,100147.90,-52,+16,+105
110643,11.210,-3.256,1.418,-1.086625,-0.446710,1.977031,100150.88,-54,+8,+105
110653,11.598,-3.219,1.078,-1.062148,-0.519077,2.027581,100150.57,-54,+8,+105
110663,12.229,-3.190,0.848,-0.957854,-0.596233,2.080792,100148.26,-56,+0,+105
110672,12.890,-3.252,0.837,-0.820038,-0.663278,2.131343,100151.88,-58,-7,+103
110683,13.546,-3.325,0.875,-0.704038,-0.723407,2.182957,100151.88,-60,-14,+101
110693,14.141,-3.318,1.183,-0.717341,-0.788856,2.249471,100150.60,-60,-14,+101
110703,14.514,-3.118,1.555,-0.755121,-0.855902,2.333012,100148.87,-61,-21,+100
110713,14.794,-3.172,1.413,-0.830148,-0.910709,2.420278,100149.13,-64,-28,+98
110723,15.334,-2.976,1.067,-1.015322,-0.954342,2.499031,100149.13,-65,-36,+96
110733,16.087,-2.436,0.789,-1.262753,-1.002232,2.586829,100149.13,-65,-36,+96
110743,16.810,-1.710,0.744,-1.541579,-1.037884,2.679416,100153.61,-66,-47,+93
110752,17.955,0.300,1.185,-1.906606,-1.065553,2.768810,100151.14,-66,-58,+90
110763,19.874,3.881,2.077,-2.254606,-1.157608,2.855012,100151.72,-68,-70,+86
110773,22.025,7.568,3.364,-2.312074,-1.414085,2.913012,100149.05,-68,-70,+86
110783,22.638,9.815,3.375,-1.927890,-1.626397,2.899709,100149.05,-68,-84,+80
110793,21.536,5.701,2.783,-1.070662,-1.778580,3.151397,100146.91,-69,-94,+75
110803,20.509,-3.196,2.598,-0.340075,-1.913736,3.751617,100152.31,-69,-104,+72
110813,19.611,-6.654,4.966,-0.319323,-1.911076,3.788865,100147.30,-69,-104,+72
110823,18.683,-4.324,8.136,0.102640,-1.742397,3.475452,100147.30,-68,-112,+68
110833,19.055,-3.886,8.537,0.682108,-1.583828,3.472791,100151.34,-67,-118,+66
110842,18.235,-1.828,8.835,1.020530,-1.419406,3.112553,100151.34,-64,-121,+64
110853,15.546,3.927,8.230,1.429190,-1.155480,2.393673,100147.41,-64,-121,+64
110863,11.703,6.341,4.352,1.792089,-1.183150,1.785471,100147.50,-63,-122,+65
110873,3.512,-3.276,3.979,1.868181,-1.478471,2.204242,100145.83,-64,-120,+66
110882,5.087,-10.422,4.224,1.521777,-1.327883,1.992462,100145.83,-64,-120,+65
110893,7.933,-2.985,2.785,0.877392,-0.950618,0.298225,100150.18,-64,-120,+65
110903,7.006,1.777,2.498,0.308035,-0.853242,-0.331261,100149.02,-66,-118,+64
110913,3.503,2.883,2.325,0.011118,-0.877719,-0.402032,100147.71,-68,-116,+63
110923,2.091,1.996,2.215,0.236732,-0.783535,-0.644674,100145.51,-72,-114,+62
110934,2.888,0.279,2.149,0.607080,-0.648379,-1.055995,100148.49,-72,-114,+62
110943,3.532,-0.759,1.808,0.764585,-0.569627,-1.445499,100146.55,-74,-110,+64
110953,3.384,-0.664,1.500,0.667209,-0.494600,-1.812655,100147.38,-78,-104,+62
110963,3.018,0.203,1.536,0.545356,-0.401480,-2.204820,100147.38,-83,-98,+61
110972,3.273,0.847,1.590,0.549080,-0.340820,-2.560801,100145.98,-86,-98,+61
110983,4.056,0.940,1.183,0.680512,-0.299315,-2.839627,100145.98,-86,-88,+62
110993,4.708,0.334,0.614,0.853447,-0.239187,-3.067902,100143.88,-91,-79,+62
110998,5.081,-0.252,0.441,0.974236,-0.183315,-3.226470,100144.66,-91,-79,+62
111008,5.428,-0.692,0.630,1.098750,-0.117334,-3.385571,100144.81,-94,-68,+62
111017,5.841,-1.180,1.036,1.277007,-0.040178,-3.592030,100142.34,-98,-54,+63
111028,6.069,-1.685,1.536,1.441429,0.031657,-3.790507,100142.34,-101,-40,+64
111038,6.208,-2.096,2.239,1.568603,0.100299,-3.995901,100144.06,-101,-40,+64
111048,6.355,-2.316,2.580,1.609575,0.161492,-4.221516,100140.70,-102,-25,+64
111057,6.666,-2.383,2.854,1.479741,0.220556,-4.454048,100141.28,-103,-8,+66
111068,7.250,-2.110,2.998,1.210493,0.274299,-4.680727,100142.70,-102,+7,+66
111078,7.923,-1.896,3.134,0.927411,0.355712,-4.874947,100142.70,-102,+7,+66
111088,8.670,-2.195,3.071,0.664548,0.456281,-5.021809,100143.30,-100,+23,+66
111098,9.245,-2.983,2.736,0.411264,0.577069,-5.136212,100143.41,-96,+39,+67
111108,9.810,-3.596,2.534,0.100512,0.719675,-5.259662,100142.36,-91,+54,+69
111118,10.660,-3.911,2.730,-0.278705,0.881259,-5.393576,100144.19,-91,+54,+69
111128,11.347,-4.379,3.041,-0.525781,1.019785,-5.481019,100144.19,-85,+67,+71
111138,12.180,-5.024,3.122,-0.634864,1.179418,-5.558176,100143.85,-76,+80,+74
111148,13.294,-5.099,3.031,-0.593359,1.352353,-5.651827,100145.80,-66,+92,+76
111158,14.586,-4.643,2.676,-0.426277,1.503472,-5.736432,100143.76,-66,+92,+76
111168,15.647,-4.066,2.060,-0.151176,1.603509,-5.759313,100145.59,-54,+104,+79
111178,16.347,-3.945,1.368,0.211723,1.657252,-5.699717,100145.59,-41,+116,+82
111188,17.114,-5.026,0.368,0.507044,1.621601,-5.577864,100145.55,-27,+129,+83
111198,17.939,-5.764,-0.238,0.628365,1.497619,-5.435258,100145.87,-27,+129,+83
111208,18.906,-6.293,-0.245,0.734787,1.319895,-5.240506,100146.65,-11,+140,+85
111218,19.207,-7.625,0.189,0.815668,1.129399,-4.937736,100147.55,+1,+150,+84
111228,18.546,-10.036,1.256,0.881117,1.036812,-4.544507,100147.55,+15,+159,+83
111238,17.284,-12.775,2.251,1.007759,1.051711,-4.058690,100148.37,+26,+167,+82
111248,15.446,-16.010,2.495,1.138658,1.103858,-3.416966,100147.95,+26,+167,+82
111258,13.017,-19.796,2.109,1.160475,1.111308,-2.679461,100148.70,+36,+174,+81
111268,10.870,-21.810,1.421,0.864622,1.058629,-1.928123,100146.63,+45,+178,+79
111278,9.720,-20.943,1.111,0.385723,0.912299,-1.185829,100146.63,+50,+179,+79
111288,8.990,-19.123,0.765,-0.041561,0.649969,-0.366380,100154.97,+50,+179,+79
111298,8.486,-17.319,0.948,-0.175653,0.397749,0.457326,100152.30,+51,+179,+81
111308,7.578,-16.975,1.825,-0.032515,0.235987,1.162903,100153.45,+49,+178,+81
111318,7.030,-16.516,0.769,0.105833,0.097106,1.741838,100152.45,+46,+176,+81
111328,6.956,-13.435,0.841,0.304842,0.009840,2.121233,100152.45,+46,+176,+81
111338,7.882,-3.784,8.854,0.606016,0.038574,2.073343,100154.39,+41,+176,+79
111348,17.131,28.305,14.296,0.435741,0.339749,1.035729,100146.19,+39,+177,+78
111353,34.178,42.985,-6.088,-0.888148,-0.461077,-0.081702,100151.55,+39,+177,+78
111363,37.125,7.292,-14.913,0.131906,-1.501351,2.842773,100151.55,+33,+173,+78
111373,32.412,-27.126,-1.057,4.635151,-0.727664,5.066460,100155.02,+20,+180,+68
111383,22.860,-21.731,-6.898,2.978161,-0.024215,3.374883,100155.02,+20,+180,+68
111393,3.441,-6.141,-3.841,-0.891341,0.389235,2.863526,100151.78,+14,+181,+66
111404,-5.371,4.100,3.078,-1.961945,0.113070,3.220572,100150.22,+7,+171,+71
111413,-0.069,2.853,6.049,-0.734900,-0.061462,2.680480,100149.31,+2,+165,+72
111423,9.229,-6.407,6.840,0.348475,-0.114673,2.405911,100149.31,+2,+165,+72
111433,17.537,-11.855,3.477,0.312292,-0.341352,2.735287,100149.31,-3,+163,+71
111443,17.394,-9.208,1.791,-0.362423,-0.253554,2.514462,100153.23,-10,+159,+71
111453,12.280,-4.674,0.711,-0.721598,-0.065719,2.052058,100149.94,-13,+153,+72
111463,9.332,-1.958,1.361,-0.609855,-0.036985,1.891893,100150.72,-17,+153,+73
111473,8.717,-0.429,1.534,-0.252809,-0.066251,1.799306,100150.36,-17,+148,+73
111483,8.537,-1.072,0.477,0.099980,-0.086471,1.754609,100150.36,-20,+146,+73
111494,8.122,-3.392,0.100,0.244182,-0.059334,1.606683,100151.06,-24,+143,+73
111503,9.513,-4.222,0.216,0.042512,0.000795,1.365637,100151.22,-26,+140,+73
111513,10.763,-3.830,0.620,-0.318790,0.075822,1.163967,100151.59,-26,+140,+73
111523,10.833,-2.947,1.116,-0.553451,0.168409,0.996885,100151.59,-28,+138,+75
111534,10.096,-2.186,1.625,-0.611451,0.238116,0.863857,100152.58,-29,+134,+75
111543,9.448,-1.922,1.729,-0.531634,0.239180,0.771802,100150.00,-30,+132,+77
111553,9.422,-1.870,1.475,-0.485873,0.231730,0.678683,100150.00,-30,+132,+77
111563,9.666,-1.745,1.574,-0.534827,0.242372,0.597803,100149.06,-30,+130,+78
111574,9.905,-1.520,1.908,-0.582717,0.260464,0.548316,100152.89,-30,+127,+79
111583,9.963,-1.507,2.208,-0.585377,0.276427,0.524903,100152.89,-30,+123,+81
111593,9.407,-1.475,2.678,-0.594955,0.287602,0.507876,100153.14,-30,+123,+81
111603,8.897,-0.997,3.049,-0.629010,0.273767,0.506280,100149.67,-30,+122,+82
111613,8.786,-0.582,3.240,-0.625818,0.247161,0.535014,100151.83,-32,+118,+84
111624,8.899,-0.584,3.248,-0.578992,0.214171,0.580775,100148.73,-30,+115,+84
111633,8.905,-0.582,3.219,-0.522589,0.180116,0.625472,100153.29,-30,+115,+84
111643,8.775,-0.378,3.358,-0.463524,0.154574,0.674426,100150.51,-30,+114,+86
111653,8.683,-0.525,3.444,-0.394350,0.123180,0.744133,100150.88,-32,+110,+86
111664,8.641,-0.975,3.178,-0.334754,0.078483,0.831399,100150.88,-32,+108,+88
111673,8.682,-0.689,3.110,-0.261855,0.070501,0.905362,100146.30,-32,+108,+88
111683,8.674,-0.038,3.578,-0.179378,0.087528,0.988371,100146.30,-34,+106,+88
111693,8.328,-0.218,3.808,-0.095837,0.074226,1.118738,100152.20,-35,+103,+88
111704,8.214,-0.722,3.439,0.003136,0.027932,1.265600,100148.15,-36,+102,+88
111713,8.719,-0.943,2.758,0.094127,-0.044967,1.416187,100151.62,-36,+102,+88
111723,9.614,-1.672,2.008,0.137760,-0.119994,1.557729,100147.88,-39,+98,+88
111733,10.497,-2.490,1.365,0.064329,-0.159903,1.681710,100147.88,-41,+96,+88
111744,11.014,-2.969,1.157,-0.107011,-0.142875,1.762059,100148.64,-43,+91,+88
111754,11.069,-3.535,1.249,-0.297506,-0.084343,1.818462,100151.94,-43,+91,+88
111763,10.898,-3.695,1.862,-0.474699,-0.008783,1.845600,100151.47,-46,+88,+88
111773,10.810,-3.542,3.084,-0.614111,0.025272,1.843471,100151.47,-48,+82,+88
111783,10.883,-3.733,3.784,-0.661469,-0.002398,1.839747,100151.47,-50,+75,+89
111794,11.091,-4.227,3.766,-0.703506,-0.025811,1.829637,100151.01,-50,+75,+89
111803,11.420,-4.561,3.243,-0.856753,-0.033793,1.817930,100151.10,-51,+69,+89
111813,12.259,-4.305,2.501,-1.058423,-0.080618,1.840811,100149.74,-53,+64,+91
111823,13.186,-3.631,2.035,-1.219475,-0.139328,1.896328,100150.71,-54,+55,+93
111834,13.984,-3.058,1.730,-1.268606,-0.180123,1.979692,100150.71,-54,+55,+93
111844,14.576,-2.820,1.550,-1.269671,-0.228545,2.104737,100152.34,-56,+47,+92
111853,15.018,-2.629,1.481,-1.263285,-0.282288,2.253728,100151.13,-58,+38,+93
111863,15.211,-2.517,1.358,-1.292019,-0.325921,2.405911,100148.88,-59,+29,+93
111874,15.303,-2.700,0.940,-1.369175,-0.369022,2.553306,100148.88,-59,+29,+93
111884,15.830,-2.576,0.874,-1.543707,-0.433407,2.681012,100152.19,-61,+19,+92
111893,16.895,-1.842,1.504,-1.773579,-0.547278,2.791691,100151.61,-63,+8,+92
111903,18.548,-0.571,2.439,-2.021542,-0.696269,2.865122,100151.61,-64,-4,+91
111913,21.192,1.518,3.114,-2.315799,-0.850581,2.892792,100151.70,-64,-4,+91
111924,23.780,5.065,3.791,-2.626019,-1.000636,2.885342,100148.50,-66,-18,+89
111933,24.223,8.916,4.203,-2.588239,-1.144838,2.888535,100148.50,-68,-32,+86
111939,23.899,8.589,4.195,-2.141799,-1.254984,3.024755,100153.00,-68,-32,+86
111948,23.074,3.426,3.745,-1.403762,-1.341718,3.492480,100152.78,-69,-44,+81
111959,20.926,-3.250,4.022,-0.712020,-1.287975,4.045341,100148.42,-69,-56,+79
111969,19.392,-4.130,5.565,-0.687010,-1.157608,3.904332,100148.22,-68,-66,+78
111978,18.085,-2.143,6.606,-0.577928,-1.005425,3.635617,100148.22,-68,-66,+78
111988,17.580,-1.258,6.912,-0.331029,-0.738838,3.446186,100151.23,-66,-75,+76
111998,15.681,1.491,6.662,-0.184167,-0.477040,2.983783,100148.34,-62,-82,+75
112009,12.605,7.145,3.820,-0.108075,-0.316875,2.239361,100148.71,-60,-87,+75
112018,5.863,5.627,2.047,-0.074552,-0.500985,1.876462,100147.82,-60,-87,+75
112028,2.439,-11.049,1.530,-0.488001,-0.695205,2.605453,100147.82,-58,-92,+74
112038,8.379,-7.625,1.649,-0.783854,-0.340820,1.240059,100149.58,-56,-98,+74
112049,9.829,2.381,2.476,-0.826423,-0.013572,-0.151408,100149.06,-55,-99,+72
112059,6.167,5.941,2.840,-0.451818,0.067486,-0.432894,100149.02,-55,-99,+72
112068,3.834,4.177,1.188,0.040916,0.056666,-0.494619,100145.97,-54,-99,+73
112078,3.142,1.069,-0.358,0.574622,0.103492,-0.740986,100145.97,-55,-96,+74
112089,3.300,-0.021,0.023,0.956677,0.237583,-1.138472,100149.94,-55,-91,+77
112099,3.422,0.472,1.287,1.105667,0.366354,-1.578526,100149.31,-55,-91,+77
112108,3.515,1.175,1.724,1.159410,0.442446,-1.993572,100146.63,-54,-84,+79
112118,3.702,0.956,1.517,1.161539,0.495125,-2.354342,100147.20,-55,-77,+81
112129,3.824,-0.136,0.921,1.114713,0.527583,-2.661902,100147.20,-54,-68,+84
112139,4.036,-1.396,0.450,0.963062,0.576537,-2.955626,100147.73,-54,-68,+84
112148,4.445,-1.830,0.345,0.715099,0.645180,-3.265314,100143.88,-55,-59,+86
112158,5.048,-1.198,0.489,0.428292,0.712225,-3.602672,100142.41,-56,-50,+88
112168,5.724,-0.225,0.237,0.214383,0.763308,-3.889479,100142.73,-55,-42,+90
112174,6.175,0.332,0.055,0.150530,0.807473,-4.064011,100142.73,-55,-42,+90
112184,6.607,0.369,-0.200,0.141484,0.840996,-4.222048,100142.73,-55,-33,+93
112194,7.056,-0.100,-0.352,0.172879,0.874519,-4.398708,100145.41,-54,-25,+95
112203,7.340,-0.683,-0.339,0.215980,0.909106,-4.562066,100142.01,-54,-25,+95
112214,7.506,-1.145,0.230,0.280365,0.960721,-4.747240,100141.32,-52,-15,+97
112224,7.919,-1.283,0.698,0.301117,0.994244,-4.943589,100144.62,-49,-5,+100
112234,8.893,-1.072,1.167,0.263338,1.021913,-5.159626,100146.30,-45,+5,+101
112243,10.133,-0.979,1.492,0.188310,1.055436,-5.365552,100144.77,-45,+5,+101
112253,11.203,-1.294,1.499,0.110622,1.113968,-5.525717,100144.77,-42,+15,+105
112264,12.118,-1.853,1.458,0.071246,1.202830,-5.660341,100142.37,-36,+25,+106
112274,12.944,-2.662,1.203,0.089338,1.294886,-5.783258,100144.35,-31,+35,+110
112283,13.676,-3.427,0.712,0.122328,1.373106,-5.876909,100144.35,-31,+35,+110
112293,14.456,-3.711,0.311,0.153723,1.426317,-5.934909,100147.08,-24,+45,+112
112304,15.543,-3.773,0.284,0.235668,1.445473,-5.976946,100146.39,-16,+55,+115
112314,16.764,-4.152,0.372,0.355393,1.416739,-5.994505,100146.08,-7,+65,+117
112324,17.712,-4.951,0.524,0.438934,1.332133,-5.974285,100144.88,-7,+65,+117
112333,18.333,-6.159,0.577,0.494273,1.226775,-5.891276,100148.22,+1,+75,+118
112344,19.040,-7.191,0.596,0.522475,1.145895,-5.743350,100146.22,+10,+83,+120
112354,19.968,-8.315,0.775,0.587392,1.122482,-5.507093,100143.97,+19,+92,+121
112364,20.579,-10.757,1.062,0.716695,1.116629,-5.171332,100147.06,+19,+92,+121
112373,18.864,-13.766,0.965,0.753411,1.135785,-4.709460,100147.06,+29,+100,+122
112384,15.897,-16.517,0.633,0.782677,1.201234,-4.186397,100147.06,+39,+106,+122
112394,13.982,-19.108,-0.012,0.752346,1.184207,-3.457938,100151.16,+47,+112,+122
112404,11.984,-21.981,-0.701,0.583136,1.037876,-2.563462,100148.16,+53,+112,+123
112413,10.419,-23.086,-1.368,0.258549,0.780868,-1.629077,100152.37,+53,+115,+123
112423,9.886,-22.292,-1.570,-0.019745,0.428079,-0.567518,100150.43,+57,+116,+122
112434,9.404,-20.471,-1.293,-0.049011,0.071033,0.523839,100150.43,+55,+115,+123
112444,8.663,-18.040,-0.644,0.083484,-0.198747,1.451307,100150.03,+52,+114,+122
112454,8.182,-13.830,0.813,0.407007,-0.361572,2.055251,100149.64,+52,+114,+122
112463,7.366,-8.651,11.021,0.901337,-0.220031,2.306939,100145.05,+47,+116,+122
112474,12.174,10.347,19.115,0.697007,0.288666,1.912646,100145.05,+46,+117,+121
112484,36.317,36.403,-11.323,-1.021175,-1.050654,0.860665,100157.06,+40,+112,+122
112493,35.295,-5.243,-12.310,0.917833,-1.786562,4.272020,100157.06,+40,+112,+122
112503,30.567,-26.431,-0.601,4.034932,-0.792049,4.997818,100153.86,+28,+117,+116
112514,18.564,-18.819,-2.048,1.812841,-0.032196,3.278039,100152.08,+22,+121,+114
112524,0.980,-1.985,-0.353,-1.427175,0.130629,3.147140,100150.72,+17,+112,+117
112533,-9.386,4.430,7.550,-1.440478,-0.221627,3.440865,100150.72,+17,+112,+117
112544,-0.028,-4.757,9.674,0.909319,-0.335499,2.949728,100149.74,+12,+106,+117
112553,16.519,-12.283,1.311,2.067722,-0.778746,2.891728,100149.48,+7,+110,+113
112564,20.793,-12.087,-1.707,1.080126,-0.694141,2.692719,100150.26,+1,+108,+112
112574,14.736,-8.610,0.521,-0.142662,-0.210453,2.260645,100150.86,+1,+108,+112
112584,10.721,-4.424,1.189,-0.740754,-0.065719,1.993526,100150.91,-1,+104,+113
112593,7.992,-1.540,1.140,-0.687010,-0.093389,1.769508,100152.22,-3,+99,+113
112604,7.834,-0.834,1.246,-0.309213,-0.133297,1.642866,100152.22,-6,+95,+114
112614,7.224,-1.781,0.941,0.108494,-0.139150,1.481637,100148.59,-6,+95,+114
112623,8.334,-2.339,0.524,0.281961,-0.129040,1.292206,100149.70,-9,+94,+113
112633,10.877,-2.207,0.517,0.147870,-0.083279,1.199619,100149.70,-9,+93,+113
112644,11.580,-2.795,0.615,-0.088387,0.020483,1.128316,100150.75,-11,+90,+113
112654,10.905,-2.449,1.334,-0.311873,0.125840,1.035197,100151.33,-11,+90,+113
112664,9.552,-1.910,2.066,-0.462992,0.175327,0.918133,100150.39,-11,+87,+114
112674,8.416,-1.945,2.011,-0.530570,0.167345,0.803729,100149.97,-12,+84,+115
112684,8.465,-1.974,1.680,-0.574735,0.153510,0.669105,100149.97,-12,+81,+116
112694,9.239,-1.540,1.531,-0.625286,0.167345,0.532885,100151.26,-12,+81,+116
112704,9.654,-1.169,1.610,-0.651891,0.201932,0.447748,100152.84,-12,+78,+117
112714,9.734,-0.949,1.704,-0.604533,0.238648,0.437105,100152.99,-12,+76,+118
112723,9.490,-0.731,1.933,-0.514075,0.264721,0.473821,100152.99,-11,+72,+119
112734,9.117,-0.486,2.567,-0.423616,0.275895,0.512665,100152.99,-11,+72,+119
112744,9.154,-0.688,2.832,-0.408185,0.250886,0.568536,100151.51,-11,+72,+120
112754,9.588,-1.058,2.676,-0.473634,0.207785,0.621215,100152.66,-10,+69,+120
112763,9.790,-1.361,2.453,-0.566222,0.171070,0.654206,100149.93,-11,+65,+121
112774,9.589,-1.387,2.305,-0.624222,0.145528,0.689325,100149.62,-11,+65,+121
112784,9.218,-1.312,2.234,-0.616240,0.126905,0.735619,100149.62,-11,+62,+122
112794,8.835,-1.168,2.154,-0.541744,0.111473,0.794151,100152.39,-11,+58,+122
112803,8.759,-0.819,2.391,-0.399139,0.091253,0.848958,100150.27,-11,+56,+122
112814,9.093,-0.790,2.716,-0.241635,0.047620,0.917068,100149.67,-11,+56,+122
112824,9.491,-1.279,2.718,-0.130956,0.007180,1.000610,100149.67,-13,+54,+122
112834,9.767,-1.507,2.672,-0.092112,-0.014637,1.071380,100150.45,-13,+52,+123
112843,9.708,-1.339,2.853,-0.088387,-0.030068,1.132573,100150.45,-13,+50,+123
112854,9.580,-1.120,2.886,-0.074552,-0.051884,1.210261,100152.13,-13,+50,+123
112864,9.411,-0.614,3.177,0.016439,-0.058802,1.289545,100148.55,-15,+48,+123
112874,9.427,-0.792,3.292,0.203741,-0.093389,1.389050,100151.34,-15,+46,+123
112883,9.617,-1.586,2.926,0.332512,-0.165224,1.518884,100151.34,-17,+44,+122
112893,9.715,-2.451,2.775,0.341026,-0.216838,1.613068,100151.18,-18,+44,+122
112904,9.909,-3.218,2.755,0.305906,-0.240783,1.683838,100152.43,-18,+42,+122
112914,10.010,-3.695,3.108,0.143081,-0.225352,1.732793,100148.87,-20,+42,+122
112924,10.266,-3.787,3.026,-0.079341,-0.205664,1.768444,100150.28,-21,+38,+122
112934,10.503,-4.077,2.806,-0.307084,-0.197150,1.792921,100151.44,-22,+34,+122
112944,10.818,-4.314,2.645,-0.556644,-0.184912,1.803563,100147.81,-22,+34,+122
112954,10.889,-4.428,2.573,-0.806735,-0.182251,1.808352,100147.81,-24,+28,+122
112964,11.166,-4.712,1.986,-1.005212,-0.197150,1.802499,100150.59,-25,+22,+122
112973,11.878,-4.484,1.000,-1.188790,-0.205132,1.791857,100149.44,-26,+14,+122
112984,12.528,-4.069,0.654,-1.319689,-0.217902,1.812077,100149.44,-26,+14,+122
112994,13.347,-3.437,0.407,-1.278184,-0.249297,1.864224,100151.77,-27,+7,+122
113004,13.816,-3.135,0.006,-1.165909,-0.314746,1.960536,100151.04,-28,-1,+121
113014,13.791,-3.152,0.105,-1.113230,-0.371150,2.092499,100150.88,-29,-8,+121
113024,14.187,-3.403,0.032,-1.122808,-0.443517,2.223930,100150.57,-29,-8,+121
113034,14.903,-3.444,0.123,-1.221781,-0.501517,2.337801,100150.57,-30,-16,+120
113044,15.729,-2.817,1.033,-1.406423,-0.535572,2.455930,100149.33,-32,-24,+118
113054,16.395,-2.001,2.483,-1.631505,-0.566434,2.594278,100148.34,-32,-34,+117
113064,16.765,-1.174,3.820,-1.897560,-0.578141,2.745929,100149.14,-32,-34,+117
113074,17.251,-0.492,4.336,-2.239175,-0.585590,2.869911,100149.14,-32,-48,+116
113084,17.536,1.141,3.933,-2.723395,-0.629755,2.913544,100149.14,-32,-60,+112
113094,17.988,4.770,3.131,-3.135780,-0.769168,2.805526,100147.10,-32,-75,+108
113103,20.443,6.849,2.010,-3.200697,-0.970838,2.704425,100151.15,-32,-75,+108
113115,23.788,4.606,1.465,-2.853761,-1.228734,3.120180,100149.07,-31,-90,+103
113124,24.359,1.765,2.667,-2.204056,-1.328416,3.703727,100149.07,-31,-104,+98
113134,22.664,1.183,4.626,-1.471340,-1.334269,4.012351,100149.07,-28,-116,+94
113144,21.670,-2.104,6.227,-1.064276,-1.359278,4.155488,100151.54,-28,-116,+94
113154,19.957,-2.502,6.650,-0.327836,-1.403443,3.636149,100149.54,-26,-124,+91
113164,18.800,-3.135,7.082,0.333576,-1.237957,3.352535,100148.57,-23,-128,+89
113174,16.134,-1.489,7.149,0.727337,-0.942636,2.776792,100148.57,-20,-132,+89
113184,11.025,5.217,4.131,0.854511,-0.816526,1.722682,100147.94,-20,-132,+89
113193,-0.001,2.643,6.231,1.236034,-1.005957,1.661490,100147.94,-21,-130,+89
113204,4.250,-15.760,4.018,1.416952,-1.189003,2.187214,100145.05,-19,-130,+90
113214,5.696,-7.814,2.111,0.708181,-0.784067,-0.010931,100148.36,-22,-128,+90
113224,4.638,2.623,2.592,-0.060185,-0.536104,-0.893169,100150.56,-22,-128,+90
113233,0.670,3.860,2.226,-0.276754,-0.607407,-0.783022,100150.56,-25,-127,+88
113244,-0.113,2.136,1.304,0.028145,-0.659021,-0.947976,100149.82,-29,-126,+87
113254,1.872,0.495,0.649,0.396897,-0.603150,-1.371536,100150.77,-32,-122,+88
113264,3.108,0.358,0.558,0.568769,-0.521737,-1.758379,100144.21,-32,-122,+88
113274,3.516,1.348,0.313,0.670934,-0.444049,-2.105315,100146.82,-37,-118,+88
113284,3.674,1.495,-0.195,0.987539,-0.384985,-2.404893,100145.98,-42,-112,+88
113294,4.364,0.424,-0.625,1.418548,-0.347737,-2.652324,100143.71,-47,-102,+89
113304,5.061,-1.198,-0.483,1.717594,-0.322728,-2.857186,100144.98,-47,-102,+89
113314,5.408,-2.166,-0.327,1.818162,-0.292930,-3.080140,100144.98,-51,-91,+90
113324,5.633,-1.965,-0.069,1.818162,-0.234398,-3.349388,100143.13,-56,-80,+91
113334,6.077,-1.208,0.202,1.805924,-0.184912,-3.612250,100143.13,-61,-66,+92
113344,6.781,-0.623,0.700,1.870309,-0.159903,-3.810727,100146.70,-61,-66,+92
113349,7.461,-0.889,1.137,1.976731,-0.154581,-3.926727,100143.61,-64,-52,+94
113359,8.046,-2.031,1.366,2.031538,-0.158838,-4.028892,100141.72,-67,-38,+94
113369,8.674,-3.783,1.342,1.864988,-0.162563,-4.179479,100140.94,-67,-38,+94
113379,9.023,-4.872,1.262,1.428126,-0.140214,-4.354011,100140.94,-69,-23,+95
113389,9.431,-4.674,1.342,0.876860,-0.092325,-4.533864,100145.41,-71,-10,+94
113399,10.029,-3.765,1.547,0.451172,-0.017829,-4.695626,100145.36,-72,+2,+93
113409,10.921,-3.313,1.559,0.239393,0.050813,-4.787681,100143.73,-72,+2,+93
113419,11.893,-3.468,1.506,0.169154,0.100831,-4.829717,100140.47,-72,+14,+93
113429,12.564,-3.842,1.565,0.243117,0.159895,-4.866433,100140.47,-71,+25,+93
113439,13.003,-3.921,1.736,0.432548,0.225877,-4.894103,100145.97,-68,+38,+93
113449,13.323,-3.578,1.796,0.680512,0.268978,-4.905277,100143.50,-68,+38,+93
113459,13.509,-3.584,1.881,0.966255,0.297180,-4.873350,100143.02,-64,+51,+93
113469,13.725,-4.005,1.813,1.241887,0.303565,-4.820672,100144.55,-60,+66,+92
113479,13.865,-4.373,1.668,1.435043,0.290794,-4.768525,100144.55,-55,+80,+91
113489,13.950,-4.497,1.649,1.522309,0.254611,-4.722763,100147.08,-55,+80,+91
113499,14.210,-4.623,1.627,1.525502,0.189161,-4.680194,100149.28,-49,+95,+89
113509,14.617,-4.538,1.522,1.488254,0.115730,-4.637094,100144.77,-43,+109,+87
113519,15.052,-4.492,1.505,1.444089,0.052941,-4.582286,100142.94,-35,+122,+85
113529,15.236,-4.399,1.912,1.444621,0.034850,-4.491295,100142.94,-35,+122,+85
113540,15.395,-4.120,2.521,1.562217,0.043363,-4.356140,100146.80,-28,+134,+83
113549,15.420,-4.130,2.854,1.771869,0.061987,-4.166708,100148.74,-20,+146,+79
113559,15.064,-4.876,3.147,2.062401,0.058795,-3.924066,100145.85,-12,+159,+75
113569,14.296,-6.288,2.955,2.339097,0.037510,-3.622360,100145.96,-12,+159,+75
113579,13.457,-8.024,2.788,2.475318,0.017822,-3.297241,100145.96,-4,+171,+71
113589,12.553,-9.164,2.585,2.397098,0.002391,-2.985957,100149.84,+3,+182,+64
113599,11.428,-9.707,2.872,2.185850,0.016226,-2.673076,100149.84,+9,+191,+61
113609,10.287,-10.236,3.320,1.925116,0.038042,-2.311242,100148.94,+9,+191,+61
113619,8.968,-11.080,3.526,1.632988,0.072629,-1.903113,100149.27,+16,+199,+56
113629,8.138,-11.302,3.213,1.336071,0.113602,-1.481682,100149.27,+19,+205,+52
113639,7.936,-10.978,3.046,1.122695,0.129565,-1.043224,100151.20,+23,+207,+50
113649,7.942,-10.452,2.907,1.079062,0.077418,-0.579756,100152.91,+25,+207,+47
113659,7.918,-9.629,2.759,1.227520,-0.010380,-0.119481,100150.62,+25,+211,+47
113669,7.775,-8.730,2.719,1.516988,-0.082747,0.307271,100148.04,+24,+214,+44
113679,7.138,-8.456,2.894,1.870309,-0.130636,0.683472,100148.04,+22,+217,+38
113689,6.191,-8.645,3.147,2.160309,-0.154581,0.988903,100151.79,+18,+220,+33
113699,5.554,-8.401,3.449,2.351336,-0.159370,1.199619,100150.95,+18,+220,+33
113710,4.919,-7.800,4.289,2.537575,-0.129572,1.339563,100149.85,+13,+225,+27
113719,3.655,-7.834,4.931,2.643996,-0.063059,1.491215,100148.90,+10,+227,+20
113729,5.380,-6.560,4.841,2.690290,-0.029004,1.570499,100148.90,+5,+230,+12
113739,11.154,1.042,7.397,2.539703,0.059859,1.490151,100151.60,+5,+230,+12
113750,28.840,40.554,3.263,1.180695,-0.188636,-0.221114,100147.24,+4,+233,+7
113759,47.006,13.458,-1.053,-0.083598,-0.361572,1.604554,100148.18,+0,+231,+7
113769,29.096,-20.790,4.484,1.829869,1.084702,5.457028,100150.13,-13,+226,+3
113779,10.735,-29.640,4.901,2.117208,1.529546,3.500993,100150.13,-13,+226,+3
113789,5.001,-31.031,4.611,0.347943,1.557748,3.370626,100147.89,-18,+223,+3
113799,18.025,-15.125,-6.945,-1.406423,0.453088,4.061837,100150.25,-30,+213,+8
113809,12.092,0.501,-2.612,-1.889046,0.756923,3.068920,100148.52,-35,+206,+14
113819,5.253,0.131,-1.705,-0.568350,0.815987,2.630462,100149.67,-35,+206,+14
113829,7.715,3.995,5.870,0.384659,0.724996,2.711342,100149.67,-43,+200,+16
113840,7.875,-3.304,3.119,0.819392,0.062519,2.694315,100148.07,-49,+196,+15
113849,10.205,-5.893,-1.937,0.967851,-0.071040,2.269159,100151.70,-54,+193,+11
113859,10.790,-6.996,-0.922,0.921025,0.020483,1.655105,100148.82,-54,+193,+11
113869,10.170,-4.009,-0.273,0.682640,0.089657,1.242720,100148.60,-58,+191,+10
113880,10.539,-3.122,-0.625,0.489484,0.127437,1.065527,100148.60,-60,+189,+10
113889,10.276,-3.431,-1.445,0.310163,0.202996,0.903233,100149.34,-60,+188,+10
113899,10.032,-3.121,-1.561,0.113283,0.323785,0.657399,100150.44,-60,+188,+10
113909,9.580,-2.605,-0.760,-0.100626,0.383382,0.475417,100147.19,-63,+187,+10
113920,9.473,-2.091,-0.249,-0.223011,0.405198,0.341326,100146.34,-62,+185,+11
113929,9.114,-2.090,-0.401,-0.247488,0.433932,0.239160,100146.34,-62,+184,+13
113935,9.091,-1.907,-0.809,-0.250680,0.453088,0.173711,100149.41,-62,+184,+13
113944,9.456,-1.252,-0.728,-0.219286,0.474372,0.106665,100149.41,-62,+183,+15
113954,9.756,-0.870,-0.214,-0.107543,0.503106,0.038555,100150.56,-61,+184,+15
113965,9.394,-1.433,-0.050,-0.027726,0.572813,-0.000289,100148.09,-61,+184,+15
113975,9.272,-1.943,0.078,-0.089451,0.643583,-0.031151,100149.83,-60,+183,+18
113984,9.446,-1.473,0.763,-0.208644,0.684024,-0.083298,100150.86,-58,+183,+19
113994,9.423,-0.670,2.018,-0.215029,0.689345,-0.132784,100149.19,-56,+183,+21
114004,9.351,-0.784,2.633,-0.154369,0.638794,-0.134381,100149.50,-56,+183,+21
114014,9.600,-0.977,2.340,-0.165011,0.568024,-0.117885,100149.50,-56,+183,+22
114024,9.801,-0.877,1.995,-0.194277,0.517473,-0.113096,100150.33,-54,+183,+24
114034,9.787,-0.852,1.471,-0.237910,0.481290,-0.096069,100150.33,-53,+183,+25
114044,10.025,-0.906,0.867,-0.246956,0.429143,-0.075316,100150.05,-53,+183,+25
114055,9.853,-0.597,0.776,-0.193213,0.376464,-0.057225,100151.95,-52,+183,+27
114064,9.338,-0.248,1.066,-0.093708,0.338152,-0.010399,100147.84,-51,+182,+27
114074,9.691,-0.238,1.431,-0.027194,0.280152,0.055583,100149.57,-51,+181,+27
114084,10.385,-0.032,1.726,0.034530,0.228538,0.099216,100149.57,-51,+181,+27
114095,10.583,-0.173,1.535,0.107429,0.187565,0.169454,100152.43,-51,+181,+28
114105,10.837,-0.762,0.860,0.117007,0.137015,0.243949,100150.66,-52,+181,+28
114114,10.670,-0.699,0.708,0.088806,0.109345,0.276940,100145.96,-52,+181,+28
114124,9.914,-0.450,0.757,0.119136,0.085932,0.322702,100145.96,-52,+181,+28
114135,9.461,-0.987,0.829,0.169154,0.034318,0.380170,100145.96,-52,+181,+28
114145,9.458,-1.396,0.827,0.165429,-0.024215,0.406775,100153.40,-53,+179,+28
114154,9.393,-1.306,1.106,0.157448,-0.067848,0.411564,100153.02,-54,+179,+27
114164,9.005,-1.434,1.358,0.175007,-0.100306,0.428592,100148.24,-54,+179,+27
114169,8.790,-1.639,1.283,0.175007,-0.115205,0.439766,100147.20,-55,+180,+27
114180,8.851,-1.724,1.093,0.153191,-0.127976,0.441362,100147.20,-57,+179,+26
114190,9.247,-1.476,1.026,0.120200,-0.145536,0.434445,100150.77,-57,+179,+26
114199,9.763,-1.209,1.028,0.117539,-0.160435,0.436041,100149.71,-58,+177,+25
114209,10.317,-1.163,0.831,0.146273,-0.184912,0.444023,100148.55,-59,+177,+25
114220,10.260,-1.069,0.863,0.190439,-0.208857,0.455729,100148.62,-60,+177,+25
114230,9.844,-1.006,0.967,0.285686,-0.246104,0.478610,100148.62,-60,+177,+25
114239,9.516,-1.457,0.860,0.402218,-0.291866,0.506812,100149.66,-62,+176,+22
114249,9.207,-2.023,0.778,0.449044,-0.317407,0.518518,100152.17,-64,+176,+22
114259,8.895,-2.211,0.632,0.442126,-0.325389,0.500959,100149.97,-66,+175,+20
114270,8.641,-2.545,0.563,0.449576,-0.335499,0.471160,100146.45,-66,+175,+20
114279,8.349,-3.095,0.541,0.409136,-0.330710,0.436041,100146.45,-66,+176,+18
114289,8.383,-2.645,0.736,0.296328,-0.327517,0.382830,100150.89,-68,+175,+17
114299,8.604,-1.382,0.993,0.314420,-0.342948,0.336004,100150.27,-69,+175,+15
114310,8.816,-1.442,0.916,0.497998,-0.369554,0.344518,100147.69,-69,+175,+15
114320,8.911,-2.222,0.416,0.651778,-0.366361,0.345050,100147.91,-71,+175,+15
114329,8.639,-2.461,0.286,0.712970,-0.343480,0.309399,100147.91,-73,+175,+11
114339,8.505,-2.773,0.200,0.716695,-0.354655,0.266298,100152.05,-75,+177,+9
114350,9.291,-2.205,0.314,0.648585,-0.378068,0.200849,100151.43,-75,+177,+9
114360,10.158,-1.160,0.922,0.638475,-0.382857,0.165729,100148.65,-75,+178,+7
114369,10.773,-1.281,1.112,0.710842,-0.402012,0.186482,100149.74,-76,+177,+5
114379,11.296,-1.809,0.970,0.695411,-0.405205,0.213087,100149.74,-77,+179,+3
114390,11.158,-1.878,0.906,0.629429,-0.398288,0.220537,100152.44,-77,+179,+3
114400,11.081,-2.163,0.577,0.546420,-0.409994,0.237032,100150.19,-79,+180,+1
114405,10.921,-2.311,0.319,0.472989,-0.417444,0.239693,100150.08,-79,+179,+0
114414,10.516,-2.117,0.301,0.434145,-0.425425,0.229583,100150.08,-79,+179,+0
114424,10.019,-2.121,0.485,0.399026,-0.449370,0.234372,100147.39,-81,+179,-3
114435,9.834,-2.122,0.644,0.356989,-0.493003,0.239160,100147.39,-82,+180,-4
114445,9.922,-2.002,0.824,0.327723,-0.532911,0.233307,100150.11,-84,+179,-6
114455,10.056,-2.344,0.806,0.296860,-0.579737,0.235968,100149.84,-84,+179,-6
114464,10.218,-2.550,0.514,0.198952,-0.618049,0.224794,100146.64,-85,+179,-8
114475,10.063,-2.265,0.319,0.089870,-0.635609,0.212023,100146.64,-86,+179,-10
114485,9.998,-2.149,-0.002,0.037191,-0.667535,0.218940,100146.64,-87,+178,-12
114495,10.036,-2.309,-0.333,0.018035,-0.697865,0.237032,100151.42,-87,+178,-12
114504,9.762,-2.374,-0.561,0.000475,-0.720746,0.255656,100149.80,-89,+177,-13
114514,9.336,-2.429,-0.594,-0.037837,-0.739370,0.279601,100152.31,-92,+176,-15
114525,9.125,-2.265,-0.430,-0.093176,-0.752141,0.296096,100147.44,-93,+176,-16
114534,9.096,-1.647,0.059,-0.073488,-0.776086,0.303014,100147.44,-93,+176,-16
114545,9.094,-1.147,0.454,0.114347,-0.831957,0.313124,100148.95,-94,+175,-18
114554,9.029,-1.593,0.645,0.388915,-0.901664,0.343454,100148.28,-96,+174,-20
114565,9.216,-2.445,0.357,0.521943,-0.970838,0.367399,100149.28,-99,+175,-25
114575,9.576,-2.746,-0.019,0.479374,-1.008618,0.370592,100149.28,-99,+175,-25
114585,10.024,-2.770,-0.407,0.338365,-1.040544,0.371656,100151.41,-102,+175,-28
114594,10.588,-2.655,-0.718,0.144677,-1.100673,0.383894,100150.37,-103,+173,-32
114605,11.161,-1.912,-0.483,-0.020277,-1.151223,0.403582,100150.37,-104,+172,-33
114615,11.574,-1.317,-0.163,-0.036772,-1.211352,0.461582,100148.26,-104,+172,-33
114625,11.902,-1.197,0.090,0.021760,-1.297021,0.542463,100150.95,-107,+171,-37
114634,12.143,-1.398,0.396,0.092530,-1.408764,0.618023,100150.95,-110,+169,-40
114640,12.324,-1.495,0.627,0.131374,-1.500819,0.660059,100153.27,-110,+169,-40
114650,12.699,-1.633,0.758,0.159044,-1.592874,0.694114,100149.38,-112,+167,-45
114660,13.607,-1.812,0.723,0.149466,-1.719516,0.727105,100149.84,-117,+165,-50
114669,14.934,-1.877,0.763,0.074971,-1.859461,0.740940,100148.38,-120,+163,-55
114679,16.072,-1.542,0.995,-0.069763,-2.013773,0.753179,100148.38,-120,+163,-55
114690,16.719,-0.552,1.344,-0.174589,-2.126580,0.756903,100149.66,-122,+161,-60
114700,17.307,-0.097,1.328,-0.187892,-2.241516,0.804793,100147.70,-126,+157,-66
114710,17.627,-0.593,1.998,-0.185763,-2.459149,0.855344,100145.50,-129,+155,-73
114719,17.609,0.543,4.656,-0.098497,-2.652837,0.824481,100146.81,-129,+155,-73
114729,16.906,2.478,7.128,0.487888,-2.778947,0.875564,100146.81,-132,+153,-81
114740,14.555,0.741,7.016,1.059906,-2.787993,1.165564,100149.15,-135,+150,-89
114750,12.538,-3.313,5.403,1.379704,-2.703387,1.456096,100148.79,-138,+145,-100
114759,12.812,-5.505,2.415,1.654272,-2.662415,1.423637,100147.84,-138,+145,-100
114769,12.763,-5.909,2.265,1.975135,-2.568231,1.292206,100147.10,-140,+142,-110
114780,13.280,-6.245,3.560,3.115978,-2.580470,1.456096,100147.10,-143,+137,-123
114790,13.326,-2.284,4.726,5.198656,-2.682103,1.484297,100147.63,-144,+131,-138
114799,11.097,0.784,9.041,7.126489,-2.563442,1.374683,100144.63,-144,+131,-138
114809,8.924,-0.868,11.349,8.149204,-2.457021,1.610940,100144.94,-145,+122,-156
114820,7.921,-3.785,10.040,8.359387,-2.485754,1.851453,100144.63,-145,+110,-174
114830,7.227,-6.225,8.674,7.914012,-2.371883,1.757270,100144.63,-145,+97,-190
114840,7.340,-6.477,7.699,6.752948,-2.097846,1.319875,100147.63,-145,+97,-190
114849,7.668,-5.177,6.278,5.233775,-1.891920,0.842041,100146.05,-143,+86,-202
114860,7.304,-3.123,4.769,3.865188,-1.771131,0.446683,100145.16,-141,+78,-210
114870,7.522,-0.823,3.876,2.903134,-1.659388,0.097619,100143.70,-139,+74,-217
114875,7.772,0.732,3.644,2.469465,-1.591278,-0.113628,100143.70,-139,+74,-217
114884,7.663,1.634,3.617,2.284290,-1.559351,-0.271665,100143.70,-136,+72,-222
114894,7.357,1.750,3.334,2.251832,-1.544984,-0.483977,100147.45,-133,+70,-229
114905,7.322,1.166,3.034,2.314088,-1.514122,-0.737793,100144.13,-133,+70,-229
114915,7.487,0.824,2.914,2.392841,-1.455590,-1.017151,100142.51,-129,+70,-234
114925,7.455,0.997,3.016,2.496070,-1.394397,-1.305554,100142.51,-126,+69,-240
114935,7.278,1.427,3.494,2.737648,-1.333737,-1.598747,100143.48,-121,+70,-246
114945,7.342,1.428,4.032,3.165464,-1.286379,-1.872251,100142.59,-121,+70,-246
114955,7.555,0.727,4.246,3.639574,-1.257113,-2.125003,100142.59,-115,+70,-252
114965,7.783,-0.139,4.287,4.049831,-1.225186,-2.370306,100140.18,-111,+68,-258
114974,8.015,-0.682,4.616,4.339830,-1.186874,-2.620929,100141.85,-105,+66,-264
114984,8.429,-1.265,5.088,4.507445,-1.142177,-2.821003,100141.85,-105,+66,-264
114995,9.029,-1.838,5.109,4.502124,-1.094819,-2.980103,100139.95,-101,+64,-269
115005,9.422,-2.368,5.357,4.363775,-1.025645,-3.137608,100140.26,-95,+62,-275
115015,9.679,-2.935,5.749,4.124326,-0.948489,-3.296709,100139.68,-90,+61,-280
115024,9.937,-3.479,5.957,3.767812,-0.867608,-3.462195,100140.99,-90,+61,-280
115035,10.215,-3.869,6.096,3.296363,-0.763315,-3.628745,100140.94,-84,+62,-284
115045,10.485,-4.117,6.211,2.787134,-0.624434,-3.805406,100137.94,-79,+64,-286
115055,10.618,-4.425,6.299,2.332712,-0.458416,-3.967699,100139.25,-75,+67,-290
115065,10.530,-4.808,6.289,1.904896,-0.265260,-4.110837,100139.78,-75,+67,-290
115075,10.510,-5.095,6.183,1.474419,-0.050820,-4.252910,100139.78,-69,+74,-290
115085,10.649,-5.028,6.075,1.054053,0.184905,-4.387534,100139.78,-65,+81,-292
115095,10.967,-4.546,6.014,0.731062,0.434996,-4.489167,100139.95,-61,+89,-291
115104,11.275,-3.894,5.804,0.545356,0.683491,-4.546103,100140.62,-61,+89,-291
115110,11.493,-3.643,5.519,0.470860,0.856427,-4.565259,100137.21,-56,+99,-290
115120,11.651,-3.603,5.022,0.420842,1.008610,-4.563663,100138.30,-53,+106,-289
115130,11.810,-3.745,4.373,0.375081,1.203363,-4.541846,100138.30,-53,+106,-289
115140,12.007,-3.956,3.739,0.341026,1.372573,-4.516304,100143.05,-49,+116,-286
115149,12.291,-4.351,3.037,0.308567,1.515179,-4.476929,100141.73,-45,+124,-285
115160,12.490,-5.077,2.260,0.291007,1.649271,-4.412011,100139.00,-41,+132,-282
115170,12.939,-7.063,0.758,0.164365,1.717913,-4.306121,100143.16,-41,+132,-282
115180,12.940,-8.193,-0.357,-0.201726,1.711527,-4.207681,100143.16,-37,+141,-279
115190,13.270,-7.820,-0.785,-0.553451,1.675876,-4.100195,100146.52,-33,+150,-275
115200,13.960,-6.827,-1.503,-0.651891,1.562537,-3.916085,100145.31,-28,+159,-272
115210,14.444,-6.926,-1.402,-0.412974,1.401839,-3.655351,100143.36,-28,+159,-272
115220,14.787,-8.446,-1.594,-0.000057,1.140042,-3.310544,100145.41,-22,+166,-270
115230,13.885,-10.195,-1.954,0.534181,0.932519,-2.786416,100145.41,-18,+170,-269
115239,12.756,-12.452,-2.519,1.124291,0.772886,-2.107976,100146.85,-14,+170,-271
115250,11.246,-15.075,-2.812,1.552107,0.570684,-1.258729,100146.38,-14,+170,-271
115260,9.237,-16.766,-2.232,1.647887,0.340813,-0.479188,100149.37,-13,+167,-274
115270,8.670,-17.309,-1.361,1.734089,0.097639,0.230115,100146.85,-13,+163,-276
115279,8.452,-17.009,0.808,1.817630,-0.072104,0.900573,100146.85,-15,+157,-280
