139272,8.776,-4.050,1.300,-0.002773,0.001070,-0.004558,99823.16,-208,+101,-21
139282,8.792,-4.032,1.299,-0.005434,0.001602,-0.005091,99824.13,-208,+101,-21
139292,8.774,-4.024,1.296,-0.007030,0.001602,-0.004026,99824.13,-208,+101,-20
139302,8.790,-4.019,1.282,-0.006498,0.001070,-0.002430,99822.72,-207,+101,-20
139312,8.803,-4.012,1.246,-0.004370,-0.001590,-0.001366,99820.89,-208,+101,-20
139322,8.803,-4.026,1.346,0.003612,-0.005315,-0.000834,99821.11,-208,+101,-20
139332,8.817,-4.031,1.290,0.002548,-0.005315,0.001295,99823.52,-208,+103,-21
139342,8.811,-4.006,1.280,-0.000113,-0.006379,0.003423,99825.03,-207,+101,-21
139352,8.759,-3.980,1.271,0.001483,-0.005847,0.005552,99821.58,-208,+102,-21
139362,8.753,-4.010,1.262,0.007869,-0.003719,0.006084,99821.58,-208,+102,-21
139372,8.749,-4.054,1.255,0.006272,-0.004251,0.005020,99821.83,-209,+101,-21
139382,8.723,-4.109,1.326,0.006805,-0.002122,0.001827,99821.83,-208,+102,-21
139392,8.783,-4.106,1.306,0.001483,-0.000526,0.000231,99826.41,-208,+101,-21
139398,8.807,-4.085,1.295,-0.000113,-0.000526,-0.002962,99824.27,-208,+101,-21
139407,8.783,-4.048,1.308,-0.001177,0.001602,-0.001366,99823.12,-209,+101,-21
139417,8.808,-4.035,1.229,-0.003838,0.001602,0.000231,99821.45,-209,+101,-21
139426,8.778,-3.992,1.295,-0.002241,0.001070,0.001295,99821.45,-207,+101,-20
139437,8.770,-3.998,1.294,-0.000113,0.001070,0.003423,99823.23,-209,+101,-21
139447,8.783,-4.031,1.270,0.004144,0.000006,0.005020,99822.03,-208,+101,-21
139457,8.790,-4.055,1.347,0.006805,-0.001058,0.006616,99821.45,-207,+101,-21
139467,8.788,-4.056,1.297,0.004676,-0.001590,0.004487,99823.97,-207,+101,-21
139476,8.738,-4.062,1.270,0.004144,0.000006,0.003423,99823.97,-208,+101,-20
139487,8.771,-4.058,1.218,0.000419,0.003731,0.000763,99824.59,-207,+101,-21
139497,8.753,-4.029,1.262,0.002548,0.006391,-0.001898,99822.03,-207,+101,-20
139507,8.756,-4.011,1.262,0.005740,0.007988,-0.001898,99823.39,-207,+101,-20
139517,8.756,-4.064,1.276,0.009820,0.008342,-0.002962,99820.67,-208,+102,-20
139527,8.765,-4.082,1.298,0.008933,0.008520,-0.004558,99820.67,-208,+101,-21
139537,8.768,-4.085,1.317,0.006272,0.009584,-0.006155,99825.97,-208,+101,-21
139547,8.783,-4.046,1.278,0.004676,0.010648,-0.006155,99823.14,-208,+101,-21
139557,8.774,-4.029,1.326,0.004144,0.011180,-0.007751,99823.63,-207,+101,-20
139567,8.811,-4.015,1.338,0.004144,0.010116,-0.005091,99820.95,-209,+102,-20
139577,8.813,-4.016,1.335,0.007869,0.008520,-0.003494,99820.95,-208,+101,-21
139587,8.754,-4.005,1.295,0.011594,0.006923,-0.001898,99825.63,-208,+101,-21
139597,8.748,-4.067,1.273,0.011061,0.006923,-0.002430,99824.43,-207,+102,-21
139607,8.772,-4.047,1.289,0.009465,0.007456,-0.002962,99821.87,-209,+101,-21
139617,8.764,-4.055,1.317,0.008933,0.007988,-0.004026,99820.71,-207,+102,-20
139627,8.779,-4.024,1.341,0.008401,0.007988,-0.003494,99820.71,-207,+102,-20
139637,8.755,-4.098,1.270,0.009997,0.007988,-0.005091,99822.96,-208,+102,-20
139646,8.741,-4.035,1.256,0.008933,0.009584,-0.006687,99823.65,-208,+101,-20
139657,8.774,-4.032,1.301,0.009465,0.009584,-0.006687,99821.40,-208,+101,-20
139667,8.778,-4.058,1.296,0.011594,0.010116,-0.005091,99822.54,-208,+101,-20
139677,8.760,-4.074,1.297,0.012658,0.010116,-0.007219,99822.54,-208,+102,-20
139687,8.770,-4.009,1.357,0.008933,0.011180,-0.008815,99822.33,-209,+102,-20
139697,8.771,-4.046,1.316,0.006272,0.011712,-0.009880,99822.95,-209,+101,-20
139707,8.784,-4.019,1.298,0.005740,0.012245,-0.010944,99824.52,-209,+101,-20
139717,8.791,-4.048,1.343,0.006272,0.011712,-0.008815,99820.81,-208,+101,-20
139727,8.814,-4.013,1.300,0.002548,0.012245,-0.007219,99820.81,-208,+102,-20
139737,8.808,-4.000,1.339,0.003080,0.012245,-0.007219,99824.30,-208,+101,-20
139747,8.795,-4.007,1.387,0.005740,0.012245,-0.003494,99823.63,-208,+101,-20
139757,8.783,-3.998,1.358,0.005208,0.010648,-0.001366,99823.72,-208,+102,-20
139767,8.762,-4.001,1.347,0.005740,0.007988,0.000231,99821.78,-208,+101,-20
139777,8.793,-4.001,1.394,0.005740,0.006923,0.003955,99821.78,-209,+101,-20
139787,8.765,-4.015,1.363,0.008401,0.004795,0.005552,99822.41,-209,+101,-20
139797,8.760,-4.023,1.376,0.011061,0.003731,0.006084,99819.12,-208,+102,-20
139807,8.774,-4.048,1.352,0.009997,0.004795,0.005552,99821.68,-208,+101,-20
139817,8.779,-4.035,1.339,0.006805,0.005859,0.003955,99821.32,-208,+101,-20
139827,8.789,-4.003,1.334,0.005208,0.006923,0.005020,99821.32,-208,+101,-20
139837,8.797,-4.001,1.337,0.006805,0.007456,0.005552,99822.66,-208,+102,-20
139847,8.759,-4.042,1.322,0.007869,0.006391,0.005552,99824.44,-208,+102,-20
139857,8.770,-3.999,1.319,0.011061,0.005859,0.005020,99821.19,-208,+101,-20
139867,8.754,-4.048,1.353,0.014786,0.004795,0.002891,99822.70,-208,+101,-20
139877,8.744,-4.046,1.362,0.014254,0.006923,0.001295,99822.70,-209,+101,-20
139887,8.738,-4.053,1.338,0.012658,0.006391,-0.000302,99823.52,-209,+101,-20
139897,8.760,-4.021,1.332,0.012126,0.006923,0.000763,99823.68,-208,+101,-19
139907,8.792,-4.030,1.331,0.012126,0.006391,-0.000834,99822.48,-208,+101,-19
139917,8.770,-4.043,1.355,0.013190,0.007456,-0.001898,99821.37,-209,+101,-19
139927,8.808,-4.043,1.373,0.014254,0.006923,-0.000834,99821.37,-207,+101,-20
139937,8.774,-4.048,1.356,0.012126,0.008520,-0.002962,99823.09,-207,+101,-20
139948,8.754,-4.068,1.396,0.008933,0.012245,-0.001366,99823.16,-209,+101,-19
139957,8.777,-3.992,1.285,0.003080,0.010648,-0.002430,99825.92,-209,+101,-19
139967,8.754,-3.999,1.380,0.014786,0.010648,-0.002962,99822.31,-208,+102,-19
139977,8.826,-4.028,1.320,0.014254,0.009584,-0.003494,99822.31,-208,+102,-19
139987,8.805,-4.080,1.375,0.015318,0.009584,-0.002962,99825.17,-208,+102,-20
139997,8.758,-4.035,1.326,0.005740,0.014373,-0.004558,99822.52,-208,+102,-20
140007,8.762,-4.007,1.371,0.003612,0.014373,-0.005091,99823.97,-209,+102,-19
140017,8.771,-3.991,1.383,0.004676,0.015437,-0.003494,99823.03,-208,+102,-19
140027,8.774,-3.980,1.371,0.010529,0.011180,-0.002962,99823.03,-208,+102,-20
140038,8.754,-4.036,1.399,0.013190,0.011180,-0.004026,99824.09,-208,+102,-20
140047,8.767,-4.032,1.368,0.008933,0.012245,-0.004026,99823.46,-208,+102,-19
140057,8.785,-4.025,1.358,0.006805,0.012245,-0.005091,99823.93,-208,+101,-19
140067,8.795,-4.006,1.387,0.008933,0.014905,-0.005623,99820.34,-208,+101,-19
140078,8.764,-4.056,1.333,0.010529,0.012245,-0.005091,99820.34,-208,+101,-19
140087,8.774,-4.022,1.373,0.011061,0.014373,-0.005623,99822.34,-208,+101,-19
140097,8.788,-3.999,1.328,0.007869,0.014905,-0.006155,99822.65,-207,+102,-19
140107,8.783,-4.005,1.362,0.009465,0.014905,-0.005091,99818.32,-208,+102,-19
140118,8.774,-4.000,1.426,0.012126,0.013841,-0.002962,99818.88,-208,+102,-19
140127,8.796,-4.023,1.389,0.013722,0.014373,-0.003494,99818.88,-208,+102,-19
140137,8.778,-4.030,1.432,0.012658,0.013841,-0.004558,99824.58,-208,+102,-19
140147,8.758,-4.025,1.376,0.008933,0.013841,-0.006687,99823.11,-209,+101,-19
140157,8.758,-4.003,1.446,0.008401,0.013841,-0.007751,99822.64,-209,+101,-19
140168,8.761,-3.983,1.401,0.005740,0.012245,-0.006155,99823.22,-208,+101,-19
140177,8.771,-3.982,1.363,0.008933,0.011180,-0.003494,99823.22,-208,+102,-19
140187,8.779,-3.980,1.416,0.012126,0.009052,-0.001366,99826.22,-208,+102,-19
140197,8.804,-3.995,1.388,0.014254,0.006923,-0.000834,99824.70,-208,+102,-19
140208,8.778,-4.003,1.454,0.016383,0.004263,0.001295,99824.45,-207,+101,-19
140217,8.789,-4.001,1.461,0.015850,0.003731,0.003423,99822.36,-209,+103,-19
140223,8.778,-4.035,1.438,0.013722,0.002667,0.004487,99822.36,-209,+103,-19
140232,8.766,-4.029,1.408,0.008933,0.001602,0.003955,99822.36,-208,+101,-19
140242,8.771,-4.029,1.417,0.006805,0.002134,0.004487,99825.67,-208,+101,-19
140253,8.780,-4.025,1.391,0.006805,0.001070,0.003423,99824.67,-208,+102,-19
140262,8.779,-4.050,1.431,0.008933,0.000006,0.004487,99822.64,-208,+102,-19
140272,8.784,-4.038,1.431,0.009997,0.000006,0.005020,99825.53,-207,+101,-19
140282,8.755,-4.060,1.404,0.006805,-0.001590,0.003955,99824.69,-207,+101,-19
140293,8.761,-4.024,1.418,0.003612,-0.001058,0.002359,99821.23,-208,+101,-19
140302,8.762,-4.054,1.394,0.001483,0.000006,0.002891,99821.23,-208,+101,-19
140312,8.764,-4.028,1.398,-0.001709,0.000538,0.002891,99823.75,-209,+101,-19
140322,8.768,-3.992,1.369,-0.000645,0.001602,0.001295,99822.59,-208,+102,-19
140333,8.788,-3.980,1.385,0.002548,0.002134,0.001295,99822.59,-208,+101,-19
140338,8.771,-4.006,1.417,0.004144,0.001602,0.002359,99825.14,-208,+101,-19
140347,8.786,-4.038,1.434,0.004676,0.001070,0.002891,99822.69,-208,+102,-19
140357,8.792,-4.036,1.437,0.006805,-0.001590,0.004487,99823.73,-208,+102,-19
140367,8.772,-4.037,1.449,0.007337,-0.000526,0.004487,99820.91,-209,+101,-19
140378,8.790,-4.050,1.412,0.004144,-0.000526,0.002891,99820.91,-209,+101,-19
140387,8.771,-4.034,1.391,0.001483,-0.000526,0.001827,99823.51,-208,+101,-19
140397,8.756,-4.025,1.401,-0.001177,0.000538,0.000763,99822.98,-208,+101,-19
140407,8.795,-4.030,1.407,-0.002241,0.001602,-0.000302,99823.55,-209,+101,-19
140418,8.796,-4.032,1.399,-0.001177,0.002667,-0.000302,99821.20,-208,+101,-19
140427,8.777,-4.030,1.412,-0.000113,0.002134,-0.000302,99821.20,-209,+101,-19
140437,8.777,-4.017,1.444,-0.000645,0.002667,0.000231,99823.92,-208,+101,-19
140447,8.793,-3.985,1.440,0.002016,0.002667,0.000231,99822.61,-208,+101,-19
140457,8.771,-4.101,1.393,0.003612,0.002134,-0.000302,99822.03,-208,+101,-19
140468,8.749,-4.042,1.471,-0.001177,0.001070,-0.001898,99822.41,-209,+101,-19
140477,8.771,-4.059,1.532,-0.008095,0.002667,-0.002430,99822.41,-207,+101,-19
140487,8.795,-4.022,1.319,-0.019801,0.003731,-0.001898,99822.70,-207,+101,-19
140497,8.783,-3.997,1.428,-0.017140,0.002134,-0.003494,99821.13,-208,+101,-19
140508,8.774,-3.962,1.419,-0.012351,0.001602,-0.000834,99820.46,-208,+101,-19
140517,8.766,-3.982,1.419,-0.007030,-0.001058,0.000763,99820.51,-209,+101,-19
140527,8.767,-4.015,1.411,-0.004370,-0.001590,0.003955,99820.51,-209,+101,-19
140537,8.779,-4.041,1.407,-0.005966,-0.002122,0.004487,99824.30,-207,+101,-19
140548,8.760,-4.022,1.437,-0.008095,-0.001590,0.004487,99823.09,-209,+101,-19
140558,8.759,-4.024,1.405,-0.005434,-0.003187,0.003423,99822.31,-208,+102,-19
140567,8.744,-4.032,1.385,-0.003306,-0.004251,0.003423,99822.31,-208,+102,-19
140577,8.759,-4.046,1.417,-0.002773,-0.003187,0.002359,99822.31,-208,+101,-18
140588,8.773,-4.042,1.410,-0.004370,-0.002122,0.002359,99826.34,-209,+101,-19
140598,8.767,-4.017,1.412,-0.001709,-0.002122,0.001827,99823.31,-208,+101,-19
140607,8.783,-4.023,1.446,0.002548,-0.004251,0.003423,99821.80,-208,+101,-19
140617,8.762,-4.001,1.408,0.004144,-0.004783,0.005020,99821.44,-209,+101,-19
140627,8.777,-4.006,1.422,0.004144,-0.005315,0.003955,99821.44,-209,+102,-19
140638,8.770,-4.031,1.416,0.004676,-0.005315,0.004487,99824.20,-209,+102,-19
140647,8.784,-4.038,1.398,0.005208,-0.006379,0.004487,99824.94,-209,+102,-19
140657,8.766,-4.024,1.428,0.005208,-0.007444,0.004487,99823.42,-209,+102,-19
140667,8.773,-4.017,1.465,0.005740,-0.006911,0.005020,99822.27,-208,+101,-19
140678,8.776,-4.040,1.423,0.004144,-0.007976,0.004487,99822.27,-208,+101,-19
140688,8.784,-4.024,1.408,0.004676,-0.006911,0.005020,99822.52,-208,+101,-19
140697,8.797,-4.028,1.432,0.004676,-0.006379,0.006616,99821.90,-208,+101,-19
140707,8.759,-4.059,1.430,0.004144,-0.006911,0.005552,99822.10,-209,+101,-19
140718,8.779,-4.015,1.398,0.003612,-0.006379,0.005020,99820.48,-209,+101,-19
140728,8.797,-4.047,1.416,0.005740,-0.006379,0.003955,99820.48,-209,+101,-19
140737,8.765,-4.032,1.417,0.005740,-0.005315,0.003955,99823.36,-209,+101,-19
140747,8.746,-4.024,1.422,0.004144,-0.003719,0.002359,99821.95,-209,+101,-19
140758,8.771,-4.034,1.416,0.004676,-0.003719,0.003955,99822.58,-208,+101,-19
140768,8.786,-3.974,1.411,0.003612,-0.003187,0.003955,99820.22,-208,+101,-19
140777,8.761,-4.042,1.404,0.008401,-0.004251,0.003955,99820.22,-208,+102,-19
140787,8.748,-4.059,1.422,0.007869,-0.004251,0.003423,99823.98,-208,+100,-19
140797,8.773,-4.019,1.400,0.001483,-0.002655,0.003423,99825.45,-208,+101,-19
140808,8.786,-4.031,1.396,0.000419,-0.003187,0.002891,99825.54,-208,+101,-19
140818,8.776,-3.982,1.389,0.000419,-0.001590,0.002891,99824.29,-207,+101,-19
140827,8.748,-4.044,1.414,0.005208,-0.003187,0.002359,99824.29,-209,+101,-19
140837,8.758,-4.078,1.420,0.002016,-0.003187,0.002891,99824.57,-209,+101,-19
140848,8.749,-4.076,1.414,-0.002241,-0.000526,0.000763,99823.05,-209,+101,-19
140858,8.764,-4.037,1.450,-0.007562,-0.001058,0.001295,99822.70,-209,+101,-19
140867,8.744,-3.995,1.429,-0.009159,-0.001590,0.001827,99821.76,-208,+101,-19
140877,8.762,-3.967,1.435,-0.008095,-0.002655,0.004487,99821.76,-208,+101,-19
140888,8.771,-3.982,1.446,-0.001177,-0.004783,0.006616,99825.87,-207,+101,-19
140898,8.771,-4.043,1.404,0.006805,-0.005315,0.009809,99824.55,-207,+101,-18
140907,8.741,-4.062,1.394,0.005208,-0.003719,0.007680,99823.71,-209,+101,-19
140917,8.722,-4.070,1.386,-0.002773,0.000006,0.003955,99825.23,-209,+101,-19
140928,8.722,-4.036,1.418,-0.005434,0.002667,0.000231,99825.23,-209,+101,-19
140938,8.731,-4.037,1.456,-0.003838,0.002134,-0.002430,99822.30,-209,+101,-19
140948,8.795,-4.044,1.424,0.000951,0.001602,-0.001898,99823.44,-209,+101,-19
140957,8.778,-4.066,1.392,-0.002241,0.002134,-0.000834,99821.19,-208,+101,-19
140967,8.748,-4.055,1.377,-0.003306,0.006391,-0.001366,99822.86,-208,+101,-18
140978,8.753,-3.999,1.410,0.000419,0.007456,-0.000302,99822.86,-208,+101,-18
140988,8.758,-4.021,1.435,0.006805,0.005327,-0.001366,99826.92,-208,+101,-19
140997,8.750,-4.059,1.420,0.012126,0.003199,0.000763,99826.77,-209,+101,-19
141007,8.726,-4.084,1.430,0.011061,0.003199,-0.001898,99821.64,-209,+101,-19
141018,8.741,-4.078,1.462,0.002548,0.004263,-0.005091,99823.27,-209,+101,-19
141028,8.762,-4.048,1.428,-0.003306,0.004795,-0.005623,99823.27,-209,+101,-19
141038,8.798,-3.992,1.420,-0.004370,0.003731,-0.005091,99822.91,-207,+101,-19
141043,8.780,-4.011,1.426,-0.003306,0.002667,-0.004026,99826.74,-207,+101,-19
141052,8.814,-3.977,1.376,0.001483,0.002134,-0.002430,99826.74,-208,+101,-19
141063,8.802,-3.977,1.381,0.008933,0.001070,-0.000834,99822.51,-209,+101,-19
141073,8.743,-4.040,1.419,0.013190,0.001070,-0.000302,99823.02,-209,+101,-19
141083,8.734,-4.048,1.454,0.012658,0.000006,-0.001366,99823.02,-208,+101,-18
141092,8.732,-4.038,1.484,0.011061,-0.000526,-0.000834,99823.45,-209,+101,-18
141103,8.764,-4.019,1.499,0.009997,-0.001058,-0.002962,99823.16,-209,+101,-19
141113,8.779,-4.025,1.465,0.009465,-0.003187,-0.002430,99820.18,-209,+101,-19
141123,8.777,-4.005,1.437,0.005740,-0.003187,-0.001898,99820.18,-209,+101,-19
141132,8.782,-4.005,1.424,0.003080,-0.002122,-0.001366,99820.18,-208,+101,-19
141143,8.797,-4.019,1.383,0.002016,-0.001590,-0.002430,99825.30,-207,+101,-19
141153,8.773,-4.032,1.347,0.003612,0.000006,-0.001898,99823.36,-207,+101,-19
141163,8.764,-4.009,1.406,0.004144,0.000538,-0.002962,99824.09,-207,+101,-19
141172,8.762,-4.047,1.441,0.003080,0.002667,-0.001898,99821.42,-209,+101,-18
141182,8.738,-4.029,1.442,-0.000113,0.004263,-0.002962,99821.42,-208,+101,-18
141193,8.809,-4.019,1.462,-0.001709,0.001602,-0.001366,99824.84,-208,+101,-18
141203,8.773,-4.023,1.377,-0.001709,0.000006,-0.000302,99824.11,-208,+101,-18
141213,8.753,-3.977,1.455,0.002016,-0.001058,-0.000302,99823.06,-208,+101,-18
141222,8.857,-4.003,1.412,-0.001177,-0.001590,0.001295,99823.06,-209,+101,-18
141233,8.808,-4.021,1.355,-0.001709,-0.001590,0.000763,99823.63,-209,+101,-18
141243,8.768,-4.015,1.516,0.002016,0.000006,0.001827,99823.63,-209,+101,-18
141253,8.782,-4.004,1.417,-0.005966,0.000006,0.003423,99825.61,-208,+101,-18
141262,8.722,-4.043,1.407,-0.007562,-0.001590,0.002359,99822.22,-209,+101,-19
141273,8.742,-4.026,1.438,-0.007030,0.000538,0.003955,99820.44,-208,+101,-18
141278,8.831,-3.906,1.443,-0.015012,-0.002655,0.006616,99820.44,-208,+101,-18
141288,8.826,-3.928,1.462,-0.016608,-0.002655,0.010341,99823.78,-208,+101,-19
141298,8.772,-3.953,1.429,-0.013948,-0.004251,0.013533,99822.31,-208,+101,-19
141307,8.735,-3.985,1.396,-0.011819,-0.008508,0.017258,99823.72,-208,+101,-18
141318,8.735,-3.989,1.355,-0.007562,-0.009572,0.016726,99823.30,-207,+101,-18
141328,8.782,-4.077,1.399,-0.005434,-0.010104,0.015130,99823.30,-208,+101,-19
141338,8.784,-4.061,1.405,-0.008627,-0.006379,0.014065,99824.71,-208,+101,-19
141347,8.747,-4.035,1.444,-0.013416,-0.005847,0.014065,99824.04,-209,+101,-18
141358,8.747,-4.012,1.527,-0.010223,-0.006379,0.015662,99823.46,-208,+101,-19
141368,8.805,-4.071,1.466,-0.001177,-0.010636,0.015130,99820.27,-208,+101,-18
141378,8.710,-4.137,1.376,0.003612,-0.011168,0.011937,99820.27,-208,+101,-18
141387,8.708,-4.131,1.334,0.003080,-0.002655,0.003955,99826.18,-209,+101,-19
141399,8.723,-4.117,1.329,-0.001177,0.002667,-0.002607,99822.26,-208,+101,-17
141408,8.747,-4.071,1.422,-0.004902,0.006923,-0.010412,99821.79,-208,+101,-19
141418,8.780,-4.012,1.460,-0.005434,0.009584,-0.012008,99824.24,-208,+101,-19
141427,8.758,-4.048,1.449,-0.005966,0.008520,-0.008815,99824.24,-208,+101,-19
141437,8.795,-3.988,1.462,-0.008095,0.008520,-0.007751,99824.74,-208,+101,-19
141448,8.782,-3.995,1.394,-0.014480,0.006923,-0.004026,99824.54,-209,+100,-19
141458,8.753,-3.961,1.468,-0.009691,0.004263,0.000231,99823.38,-207,+101,-19
141468,8.777,-3.982,1.462,-0.001177,0.001602,0.005552,99820.30,-207,+101,-19
141477,8.764,-4.041,1.436,0.013722,-0.002655,0.006616,99820.30,-209,+101,-18
141488,8.765,-4.090,1.425,0.017447,-0.001590,0.005552,99823.15,-209,+101,-19
141498,8.714,-4.091,1.363,0.015318,0.001602,0.002359,99823.57,-208,+101,-19
141508,8.707,-4.071,1.368,0.010529,0.006923,-0.001898,99822.93,-208,+101,-19
141513,8.730,-4.076,1.374,0.006272,0.010116,-0.005091,99822.37,-208,+101,-18
141522,8.725,-4.067,1.408,0.007869,0.012245,-0.008815,99822.37,-208,+101,-18
141533,8.738,-4.066,1.446,0.007337,0.015437,-0.010944,99822.37,-207,+101,-19
141543,8.716,-4.042,1.453,0.006805,0.015969,-0.013072,99825.51,-208,+101,-17
141553,8.719,-4.068,1.441,0.001483,0.017566,-0.013604,99822.12,-209,+101,-18
141563,8.742,-4.028,1.435,-0.004370,0.020758,-0.015201,99821.43,-209,+101,-18
141573,8.768,-3.968,1.444,-0.003838,0.021290,-0.012008,99821.43,-208,+101,-18
141583,8.767,-3.969,1.481,-0.000645,0.017566,-0.007219,99823.89,-209,+101,-18
141593,8.766,-3.957,1.428,0.005208,0.013309,-0.005091,99823.89,-209,+101,-18
141603,8.762,-4.001,1.419,0.009997,0.013309,-0.001366,99823.47,-209,+101,-18
141613,8.765,-3.961,1.370,0.013722,0.011180,-0.000834,99824.36,-209,+101,-17
141623,8.747,-3.965,1.343,0.018511,0.014373,0.000231,99824.36,-209,+101,-19
141633,8.750,-3.977,1.335,0.029331,0.020049,0.000231,99826.33,-209,+101,-18
141642,8.758,-4.032,1.391,0.044052,0.018098,-0.002962,99826.33,-208,+101,-18
141654,8.755,-4.068,1.472,0.056291,0.017566,-0.007751,99821.36,-208,+101,-18
141663,8.743,-4.073,1.564,0.050970,0.018630,-0.010944,99824.66,-208,+102,-17
141673,8.701,-4.094,1.523,0.037135,0.020226,-0.015201,99821.08,-209,+101,-17
141683,8.750,-4.064,1.471,0.019575,0.024483,-0.017861,99822.44,-209,+101,-17
141693,8.788,-3.992,1.416,0.016915,0.021822,-0.020522,99821.92,-209,+101,-17
141703,8.819,-3.987,1.478,0.029685,0.019694,-0.020522,99822.03,-209,+102,-17
141713,8.808,-3.965,1.513,0.047245,0.014373,-0.018925,99822.03,-209,+101,-18
141723,8.782,-4.004,1.492,0.053630,0.009052,-0.016265,99821.23,-209,+101,-18
141732,8.793,-4.041,1.509,0.045116,0.005327,-0.014136,99821.23,-209,+101,-18
141743,8.829,-3.981,1.590,0.033410,0.005859,-0.011476,99825.59,-208,+102,-17
141749,8.823,-3.985,1.513,0.026493,0.004795,-0.009347,99823.65,-208,+102,-17
141758,8.783,-3.936,1.537,0.023300,0.002667,-0.005091,99822.71,-209,+101,-17
141768,8.748,-3.953,1.559,0.031814,-0.003719,-0.005091,99821.45,-208,+101,-17
141777,8.814,-3.890,1.553,0.058419,-0.016489,-0.006155,99821.45,-208,+101,-17
141788,8.782,-3.848,1.511,0.085557,-0.031388,-0.001898,99823.81,-208,+101,-17
141798,8.789,-3.839,1.444,0.101520,-0.048416,0.009809,99824.64,-209,+101,-17
141808,8.833,-3.886,1.450,0.102584,-0.061719,0.024176,99825.64,-209,+101,-19
141818,8.855,-3.862,1.382,0.102052,-0.063315,0.035882,99822.23,-208,+101,-18
141828,8.868,-3.894,1.358,0.102584,-0.065976,0.048120,99822.23,-208,+101,-18
141838,8.851,-3.963,1.485,0.108970,-0.065444,0.055038,99824.68,-209,+101,-17
141848,8.827,-4.006,1.559,0.116951,-0.066508,0.061423,99823.54,-208,+101,-19
141858,8.726,-4.119,1.606,0.108438,-0.072361,0.061955,99823.70,-207,+99,-19
141868,8.679,-4.192,1.624,0.094603,-0.070232,0.055570,99821.02,-209,+99,-19
141878,8.694,-4.265,1.572,0.064272,-0.062251,0.047056,99821.02,-209,+99,-19
141888,8.670,-4.343,1.521,0.036071,-0.053205,0.034818,99823.09,-208,+99,-20
141898,8.662,-4.335,1.471,0.011594,-0.042031,0.016726,99822.94,-209,+99,-20
141908,8.662,-4.265,1.428,-0.008627,-0.028196,0.002891,99821.22,-209,+99,-20
141918,8.716,-4.168,1.464,-0.019801,-0.018086,-0.006155,99824.88,-209,+99,-20
141928,8.804,-4.071,1.519,-0.016608,-0.012765,-0.010412,99824.88,-208,+99,-20
141938,8.799,-3.957,1.508,-0.001709,-0.010104,-0.006687,99824.38,-209,+99,-20
141948,8.785,-4.037,1.395,0.014254,-0.005847,-0.003494,99823.71,-209,+99,-20
141958,8.746,-4.068,1.368,0.031814,-0.004251,-0.008283,99823.49,-209,+99,-20
141968,8.738,-4.224,1.476,0.020107,0.000006,-0.017329,99821.62,-209,+99,-20
141978,8.699,-4.389,1.535,-0.019801,0.008520,-0.029035,99821.62,-209,+100,-19
141988,8.645,-4.359,1.616,-0.077269,0.021290,-0.045531,99822.26,-209,+100,-20
141998,8.692,-4.100,1.584,-0.125159,0.029272,-0.054045,99822.88,-209,+100,-20
142008,8.801,-3.908,1.539,-0.146443,0.028740,-0.052448,99820.57,-209,+100,-20
142018,8.823,-3.829,1.491,-0.142718,0.018098,-0.042338,99818.85,-209,+101,-19
142028,8.793,-3.846,1.502,-0.135269,0.010648,-0.029035,99818.85,-209,+101,-19
142039,8.785,-3.880,1.408,-0.123030,0.006391,-0.019457,99822.45,-209,+101,-19
142048,8.835,-3.801,1.400,-0.103874,0.003731,-0.009880,99823.55,-209,+101,-19
142058,8.884,-3.733,1.429,-0.070883,-0.003719,0.002891,99822.30,-208,+101,-19
142068,8.815,-3.903,1.387,-0.046939,-0.014361,0.011937,99821.77,-209,+101,-19
142078,8.750,-3.987,1.332,-0.021929,-0.014361,0.012469,99821.77,-209,+101,-19
142088,8.743,-3.985,1.367,-0.017140,-0.013297,0.012469,99823.27,-208,+101,-18
142098,8.722,-4.046,1.363,-0.013416,-0.011700,0.009809,99824.79,-208,+101,-19
142108,8.789,-4.066,1.363,-0.018737,-0.006379,0.007148,99823.48,-208,+101,-19
142118,8.752,-4.077,1.332,-0.018737,-0.002122,0.001827,99820.91,-208,+101,-19
142128,8.716,-4.056,1.406,-0.019801,0.002134,-0.001898,99820.91,-209,+100,-19
142138,8.724,-4.023,1.407,-0.021397,0.003731,-0.002430,99826.38,-208,+101,-19
142148,8.749,-4.018,1.484,-0.022994,0.004263,-0.001366,99824.45,-208,+101,-19
142158,8.776,-4.005,1.499,-0.019269,0.002667,-0.000302,99824.29,-208,+101,-19
142169,8.773,-4.053,1.521,-0.024590,-0.002655,0.003955,99821.26,-209,+101,-19
142178,8.764,-4.034,1.479,-0.030975,-0.003719,0.004487,99821.26,-207,+101,-19
142188,8.796,-3.945,1.399,-0.032039,-0.004251,0.008212,99825.16,-209,+101,-19
142198,8.805,-3.953,1.443,-0.021397,-0.006379,0.012469,99822.64,-209,+101,-19
142209,8.731,-4.049,1.474,-0.020333,-0.009572,0.015662,99824.06,-208,+101,-19
142219,8.763,-4.022,1.427,-0.022107,-0.010814,0.016903,99818.56,-208,+101,-19
142228,8.767,-3.975,1.416,-0.020333,-0.011700,0.018854,99818.56,-208,+100,-19
142238,8.778,-4.004,1.468,-0.017672,-0.013829,0.019387,99825.37,-208,+100,-19
142248,8.807,-4.086,1.489,-0.025654,-0.014361,0.023111,99822.45,-209,+100,-19
142258,8.815,-4.064,1.458,-0.037893,-0.013829,0.025240,99822.54,-208,+101,-19
142268,8.813,-3.997,1.442,-0.040021,-0.014893,0.026836,99823.23,-208,+101,-18
142278,8.783,-3.995,1.462,-0.029911,-0.017022,0.032157,99823.23,-208,+101,-18
142288,8.784,-4.041,1.471,-0.024058,-0.020214,0.034286,99825.58,-208,+100,-20
142299,8.760,-4.079,1.419,-0.023526,-0.023407,0.034818,99822.23,-208,+100,-19
142308,8.708,-4.066,1.383,-0.025654,-0.021811,0.031625,99822.44,-209,+100,-19
142318,8.720,-4.083,1.310,-0.023526,-0.018618,0.028965,99822.70,-209,+100,-19
142328,8.713,-4.036,1.337,-0.020333,-0.016489,0.025772,99822.70,-208,+100,-18
142339,8.734,-4.017,1.380,-0.016608,-0.013297,0.023643,99826.41,-209,+100,-19
142348,8.731,-4.042,1.355,-0.010223,-0.013829,0.023643,99825.37,-209,+99,-19
142358,8.748,-4.028,1.422,-0.010223,-0.013829,0.025772,99824.95,-209,+99,-19
142368,8.738,-4.056,1.422,-0.008095,-0.013297,0.027900,99824.63,-209,+99,-19
142379,8.773,-4.024,1.393,-0.004902,-0.015425,0.027900,99824.63,-209,+100,-19
142388,8.778,-4.025,1.379,-0.004370,-0.015425,0.029497,99825.87,-208,+101,-19
142398,8.718,-4.095,1.386,-0.001709,-0.014361,0.030029,99824.82,-209,+99,-19
142408,8.708,-4.100,1.389,-0.006498,-0.012765,0.030029,99824.46,-209,+99,-19
142418,8.728,-4.053,1.391,-0.009691,-0.012765,0.030029,99820.54,-209,+99,-19
142428,8.730,-4.058,1.375,-0.003838,-0.012233,0.028965,99820.54,-209,+99,-20
142438,8.718,-4.090,1.375,0.001483,-0.012233,0.026836,99823.35,-209,+99,-20
142448,8.749,-4.119,1.368,0.002548,-0.012765,0.025772,99824.38,-209,+99,-20
142454,8.752,-4.128,1.388,0.002016,-0.012233,0.024708,99821.62,-208,+99,-19
142464,8.756,-4.109,1.402,-0.000113,-0.010636,0.023111,99821.62,-208,+99,-19
142474,8.785,-4.095,1.395,0.003612,-0.009572,0.022047,99821.26,-209,+99,-19
142483,8.792,-4.095,1.322,0.009997,-0.007444,0.022047,99821.26,-207,+99,-20
142493,8.734,-4.104,1.311,0.013722,-0.004783,0.020451,99824.49,-209,+99,-19
142503,8.687,-4.173,1.317,0.013190,0.001070,0.017258,99822.82,-209,+99,-19
142514,8.692,-4.134,1.387,0.007337,0.003731,0.011937,99823.87,-209,+99,-19
142523,8.713,-4.134,1.476,0.003612,0.005327,0.011405,99823.87,-209,+99,-20
142533,8.697,-4.149,1.377,-0.004370,0.004795,0.008744,99823.87,-209,+99,-19
142543,8.708,-4.085,1.453,-0.004902,0.004795,0.006084,99825.03,-209,+99,-19
142554,8.724,-4.086,1.454,-0.004370,0.003199,0.007680,99825.34,-209,+99,-18
142563,8.747,-4.086,1.383,-0.002773,0.002667,0.010873,99823.20,-208,+98,-19
142573,8.743,-4.035,1.398,0.000419,0.001070,0.011937,99820.84,-208,+99,-19
142583,8.728,-4.086,1.377,0.005208,0.000538,0.014598,99820.84,-209,+99,-19
142594,8.713,-4.115,1.352,0.007337,0.001602,0.014065,99826.57,-209,+99,-19
142604,8.707,-4.145,1.331,0.009465,0.003199,0.013001,99822.38,-209,+99,-19
142613,8.687,-4.152,1.367,0.013190,0.005327,0.008212,99822.54,-209,+99,-18
142623,8.713,-4.165,1.456,0.009465,0.006391,0.005552,99821.74,-209,+99,-19
142633,8.747,-4.161,1.428,0.000419,0.007988,0.003955,99823.37,-209,+99,-19
142644,8.773,-4.089,1.383,-0.007030,0.010116,0.002891,99823.41,-209,+99,-19
142653,8.776,-4.011,1.399,-0.004370,0.010648,0.005020,99823.41,-209,+99,-19
142663,8.741,-4.044,1.345,-0.000645,0.010648,0.009809,99823.21,-209,+99,-19
142673,8.732,-4.089,1.380,0.004676,0.010648,0.010873,99822.41,-209,+99,-19
142684,8.746,-4.106,1.402,0.006272,0.010648,0.011405,99822.41,-209,+99,-19
142689,8.725,-4.107,1.367,0.004144,0.011180,0.011937,99822.77,-209,+99,-19
142698,8.705,-4.152,1.398,0.006272,0.010648,0.011937,99824.08,-209,+99,-19
142708,8.693,-4.122,1.428,0.002548,0.012777,0.011405,99821.67,-209,+98,-18
142718,8.724,-4.071,1.438,0.002548,0.010116,0.010341,99821.36,-209,+98,-19
142729,8.758,-4.031,1.414,0.006272,0.006391,0.013533,99821.36,-209,+98,-19
142738,8.795,-4.038,1.418,0.012658,0.000538,0.018854,99822.59,-209,+99,-19
142748,8.756,-4.056,1.453,0.021704,-0.001590,0.024176,99822.44,-209,+99,-19
142758,8.813,-4.088,1.454,0.028621,-0.005315,0.026836,99822.70,-209,+98,-19
142769,8.827,-4.168,1.449,0.031282,-0.007444,0.026836,99824.58,-209,+98,-19
142778,8.762,-4.149,1.435,0.024364,-0.007444,0.023643,99824.58,-209,+99,-19
142788,8.662,-4.169,1.438,0.014254,-0.005847,0.020451,99822.40,-209,+98,-19
142798,8.685,-4.143,1.472,0.006272,-0.004251,0.020983,99823.13,-209,+99,-19
142809,8.725,-4.071,1.426,0.007337,-0.005847,0.019387,99823.54,-209,+99,-19
142819,8.717,-4.030,1.489,0.023300,-0.009572,0.017790,99821.71,-209,+98,-18
142828,8.722,-4.030,1.416,0.040860,-0.015957,0.018854,99821.71,-209,+98,-19
142838,8.725,-4.114,1.356,0.059483,-0.018086,0.018854,99823.29,-209,+99,-19
142849,8.700,-4.229,1.301,0.069061,-0.013829,0.016726,99824.23,-209,+97,-19
142859,8.640,-4.286,1.321,0.060548,-0.002655,0.011937,99822.49,-209,+97,-19
142868,8.600,-4.228,1.349,0.047777,0.006391,0.004487,99822.02,-209,+97,-19
142878,8.621,-4.114,1.368,0.046713,0.012777,-0.000834,99822.02,-209,+97,-19
142888,8.576,-4.064,1.319,0.057355,0.015969,-0.004558,99824.01,-209,+97,-19
142899,8.582,-4.031,1.130,0.075447,0.019694,-0.006687,99823.07,-209,+97,-19
142909,8.732,-3.952,1.109,0.088749,0.021290,-0.008283,99823.01,-209,+97,-19
142918,8.802,-3.821,1.400,0.113759,0.019694,-0.009347,99821.18,-209,+97,-19
142924,8.799,-3.807,1.544,0.149942,0.015437,-0.011476,99821.18,-209,+97,-19
142934,8.808,-3.871,1.559,0.196768,-0.006911,-0.006155,99821.18,-208,+97,-19
142944,8.692,-3.932,1.666,0.252639,-0.037242,0.002891,99824.55,-209,+97,-20
142954,8.454,-4.249,1.622,0.264878,-0.045223,0.008212,99821.47,-209,+97,-20
142963,8.361,-4.483,1.144,0.202621,-0.018086,0.007148,99824.34,-209,+97,-19
142973,8.454,-4.382,0.968,0.091942,0.026611,0.005552,99823.19,-208,+97,-20
142984,8.607,-4.270,1.339,0.022768,0.061199,-0.000302,99822.63,-209,+96,-19
142994,8.651,-4.114,1.634,0.021172,0.069712,-0.009880,99822.72,-209,+96,-19
143003,8.712,-4.044,1.516,0.037667,0.060134,-0.012540,99822.72,-209,+97,-19
143013,8.700,-4.273,1.523,0.071722,0.051621,-0.021586,99822.20,-209,+97,-19
143024,8.710,-4.169,1.560,0.087685,0.050024,-0.033292,99821.78,-209,+96,-19
143034,8.694,-4.059,1.468,0.103649,0.051621,-0.042338,99821.78,-209,+96,-19
143043,8.634,-4.080,1.396,0.127593,0.056942,-0.048191,99824.17,-209,+97,-19
143053,8.627,-3.946,1.231,0.136107,0.071841,-0.054045,99823.86,-209,+97,-19
143064,8.665,-3.822,1.095,0.154731,0.086208,-0.054577,99822.86,-209,+97,-18
143074,8.607,-3.704,1.028,0.211135,0.098978,-0.055109,99821.77,-209,+96,-18
143084,8.585,-3.932,1.162,0.280841,0.111749,-0.061494,99823.16,-209,+96,-18
143093,8.592,-4.538,1.307,0.313300,0.136758,-0.083311,99824.48,-209,+98,-18
143104,8.479,-5.012,1.414,0.253704,0.184648,-0.122155,99824.10,-209,+97,-18
143114,8.498,-5.036,1.643,0.147282,0.243712,-0.176962,99822.34,-209,+98,-17
143123,8.664,-4.733,1.823,0.066933,0.288410,-0.236026,99822.34,-209,+98,-17
143133,8.786,-4.523,1.940,0.037135,0.308630,-0.286577,99822.34,-209,+99,-16
143143,8.754,-4.423,1.952,0.031282,0.315015,-0.327017,99824.18,-209,+99,-16
143154,8.726,-4.264,1.847,0.025428,0.321400,-0.354687,99825.63,-208,+101,-14
143159,8.807,-4.097,1.723,0.013722,0.329382,-0.363732,99824.70,-208,+101,-14
143168,8.881,-3.900,1.746,-0.007030,0.336299,-0.363200,99824.76,-209,+103,-13
143178,9.021,-3.570,1.932,-0.036296,0.337896,-0.344044,99824.76,-209,+103,-13
143188,9.123,-3.232,2.141,-0.044278,0.317143,-0.305200,99825.09,-209,+104,-12
143199,9.147,-3.070,2.385,-0.026186,0.274575,-0.247733,99824.47,-209,+105,-11
143209,9.143,-3.141,2.718,-0.015544,0.215510,-0.183879,99822.58,-209,+105,-11
143218,9.056,-3.332,2.993,-0.038957,0.151125,-0.119494,99821.91,-209,+105,-11
143228,9.005,-3.399,3.026,-0.084718,0.089933,-0.060962,99821.91,-208,+105,-10
143239,8.953,-3.430,2.940,-0.134737,0.027144,-0.005091,99824.43,-208,+105,-10
143249,8.919,-3.357,2.525,-0.157617,-0.027664,0.043864,99824.63,-209,+105,-11
143258,9.005,-3.362,2.322,-0.142186,-0.076618,0.083240,99819.73,-209,+105,-11
143268,8.986,-3.587,2.134,-0.125159,-0.113865,0.116763,99823.59,-209,+105,-10
143279,8.865,-3.695,2.069,-0.133140,-0.141003,0.139643,99823.59,-210,+105,-11
143289,8.804,-3.788,2.085,-0.143782,-0.154838,0.155075,99827.30,-209,+105,-12
143299,8.786,-3.756,1.989,-0.150700,-0.170269,0.164120,99822.33,-209,+105,-12
143308,8.747,-3.815,1.969,-0.143250,-0.183040,0.165717,99822.48,-209,+104,-11
143319,8.758,-3.973,1.820,-0.124094,-0.193682,0.159331,99823.42,-209,+103,-11
143329,8.732,-4.035,1.656,-0.127287,-0.194746,0.148689,99823.42,-209,+103,-12
143339,8.728,-4.058,1.617,-0.135801,-0.185168,0.139643,99825.46,-209,+103,-13
143348,8.762,-4.011,1.651,-0.148571,-0.176122,0.132194,99823.90,-209,+103,-13
143358,8.825,-3.878,1.812,-0.154957,-0.175590,0.133790,99823.63,-209,+103,-12
143369,8.863,-3.781,1.963,-0.159214,-0.187829,0.144964,99822.38,-209,+101,-13
143379,8.900,-3.782,2.035,-0.165599,-0.209113,0.167845,99822.38,-209,+102,-14
143389,8.960,-3.615,2.029,-0.160810,-0.236251,0.202964,99826.61,-209,+102,-14
143394,8.934,-3.475,1.956,-0.153360,-0.255939,0.231166,99823.94,-209,+101,-14
143404,8.884,-3.646,1.752,-0.128883,-0.278820,0.258836,99823.94,-209,+101,-14
143414,8.973,-3.660,1.610,-0.081526,-0.307553,0.287570,99822.38,-209,+100,-16
143424,9.107,-3.718,1.697,-0.061838,-0.333627,0.321093,99821.28,-209,+98,-17
143434,9.157,-3.883,2.018,-0.054388,-0.369278,0.356212,99821.28,-209,+97,-17
143443,9.090,-3.962,2.293,-0.065030,-0.423553,0.390799,99821.96,-209,+97,-17
143454,9.116,-3.540,2.577,-0.064498,-0.496452,0.439753,99820.98,-209,+97,-18
143464,9.175,-3.485,2.448,-0.036828,-0.577865,0.498817,99819.98,-209,+94,-20
143473,9.278,-3.679,2.290,-0.000645,-0.666728,0.567992,99819.98,-209,+93,-22
143483,9.444,-3.716,1.966,-0.018737,-0.732177,0.655790,99819.98,-209,+93,-22
143494,9.703,-3.819,1.954,-0.108663,-0.775278,0.771258,99824.40,-209,+90,-25
143504,10.061,-3.676,2.424,-0.220938,-0.815718,0.908010,99822.41,-209,+87,-27
143514,10.462,-3.238,2.879,-0.349177,-0.866269,1.060193,99822.62,-209,+84,-29
143523,10.894,-3.563,2.707,-0.416755,-0.922672,1.199606,99821.41,-209,+84,-29
143534,11.965,-4.450,2.126,-0.448149,-0.960452,1.312413,99821.41,-209,+80,-31
143544,13.313,-6.004,1.613,-0.533819,-0.939700,1.375734,99823.88,-208,+76,-34
143554,14.015,-7.206,0.921,-0.684938,-0.914691,1.412982,99824.14,-208,+71,-37
143564,15.380,-7.410,0.999,-0.933966,-0.875847,1.421496,99821.31,-209,+66,-39
143574,17.477,-6.946,2.426,-1.208534,-0.820507,1.431074,99821.31,-209,+66,-39
143584,18.660,-5.786,3.203,-1.438938,-0.789645,1.484285,99823.02,-207,+63,-40
143594,18.003,-4.258,3.263,-1.594314,-0.797094,1.545477,99823.02,-207,+59,-42
143604,16.980,-3.532,2.463,-1.642204,-0.809865,1.552395,99824.91,-207,+55,-45
143613,15.883,-3.500,1.416,-1.544295,-0.810397,1.507697,99821.19,-207,+55,-45
143624,13.651,-3.524,0.972,-1.359121,-0.789113,1.416175,99821.77,-206,+51,-46
143629,11.311,-3.779,0.804,-1.188846,-0.772085,1.312413,99821.77,-206,+51,-46
143639,8.740,-4.814,0.341,-0.994094,-0.760911,1.207588,99822.42,-205,+47,-49
143648,5.621,-7.711,-1.104,-0.712608,-0.781663,1.108615,99823.14,-205,+44,-51
143659,3.610,-10.127,-1.912,-0.409305,-0.838599,1.053808,99823.36,-203,+40,-53
143669,3.313,-10.299,-2.165,-0.067159,-0.866801,0.996340,99821.27,-203,+40,-53
143679,3.354,-8.413,-2.996,0.130786,-0.901920,0.895771,99821.27,-202,+38,-55
143689,2.443,-6.582,-3.305,0.172291,-0.892342,0.823404,99823.00,-200,+34,-58
143698,0.597,-7.328,-3.640,0.138236,-0.838599,0.837239,99821.17,-200,+31,-60
143709,0.258,-7.317,-2.887,0.214327,-0.781663,0.781900,99821.91,-200,+31,-60
143719,0.336,-6.917,-2.349,0.237208,-0.666728,0.652597,99820.03,-198,+28,-62
143729,-0.137,-6.889,-2.311,0.162713,-0.576801,0.612689,99820.03,-198,+26,-65
143738,-0.448,-6.597,-2.462,0.112162,-0.490067,0.551496,99821.77,-196,+24,-66
143749,-0.621,-5.997,-2.378,0.022768,-0.392159,0.478597,99820.97,-196,+24,-66
143759,-0.713,-5.250,-2.286,-0.104406,-0.300104,0.420597,99821.55,-196,+22,-66
143769,-0.707,-4.499,-2.218,-0.221471,-0.237847,0.363129,99821.81,-195,+22,-67
143778,-0.538,-3.702,-2.240,-0.269360,-0.209645,0.307258,99821.81,-195,+21,-67
143789,-0.251,-2.823,-2.404,-0.220938,-0.213370,0.252983,99823.45,-195,+21,-67
143799,-0.053,-2.184,-2.581,-0.093764,-0.239975,0.190194,99823.80,-195,+21,-69
143809,-0.041,-1.898,-2.695,0.066401,-0.261792,0.109845,99822.34,-195,+21,-69
143819,0.015,-1.839,-2.760,0.226566,-0.264985,0.013533,99819.73,-194,+20,-70
143828,0.264,-1.890,-2.654,0.374492,-0.251682,-0.099274,99819.73,-194,+20,-70
143839,0.595,-2.135,-2.394,0.517098,-0.231994,-0.222191,99824.21,-194,+20,-70
143849,0.925,-2.572,-2.318,0.645868,-0.214966,-0.351494,99823.21,-194,+19,-71
143859,1.249,-3.127,-2.178,0.760272,-0.191554,-0.483989,99820.34,-193,+19,-71
143864,1.531,-3.542,-2.016,0.826786,-0.163352,-0.584026,99819.20,-193,+19,-71
143874,1.923,-3.957,-1.821,0.868822,-0.122379,-0.692044,99819.20,-194,+21,-72
143884,2.628,-4.242,-1.461,0.884786,-0.054269,-0.842631,99819.20,-194,+22,-72
143894,3.525,-4.393,-1.109,0.879997,0.019162,-0.987897,99822.79,-194,+22,-72
143904,4.638,-4.720,-0.915,0.883189,0.079822,-1.126246,99823.15,-194,+24,-71
143915,5.736,-5.276,-0.825,0.906070,0.122923,-1.252356,99819.52,-194,+28,-70
143924,6.696,-5.905,-0.641,0.937465,0.168685,-1.356649,99819.52,-196,+31,-70
143934,7.364,-6.491,-0.554,0.963538,0.222960,-1.429016,99822.89,-196,+31,-70
143944,7.766,-6.969,-0.363,0.994932,0.287877,-1.480631,99822.89,-195,+34,-69
143953,8.035,-7.291,-0.182,1.021538,0.367162,-1.513622,99823.00,-197,+38,-67
143964,8.193,-7.588,0.167,1.040162,0.454428,-1.510961,99822.22,-196,+42,-67
143974,8.515,-7.419,0.349,1.064639,0.549675,-1.458282,99822.06,-196,+42,-67
143984,7.629,-10.940,0.327,0.930547,0.697070,-1.275769,99822.06,-198,+45,-64
143994,8.290,-18.130,-0.862,0.969923,0.794978,-1.024613,99820.31,-199,+49,-62
144004,12.403,-13.123,-1.189,0.956620,0.736978,-1.067714,99822.41,-200,+51,-61
144014,12.762,-5.693,1.267,0.304254,0.874794,-1.156044,99821.67,-200,+51,-61
144024,15.172,0.932,5.388,0.038199,1.022189,-1.223090,99821.57,-200,+55,-58
144034,15.148,-2.591,3.444,0.253704,0.995583,-1.280026,99821.68,-202,+59,-54
144045,13.493,-6.115,1.303,0.397905,0.749217,-1.251292,99824.29,-202,+63,-53
144054,12.720,-6.460,1.283,0.567648,0.665675,-1.275769,99822.73,-203,+66,-51
144064,13.302,-5.281,0.630,0.424511,0.687492,-1.289603,99822.73,-203,+66,-51
144074,14.895,-3.812,-1.811,0.255300,0.607143,-1.226815,99821.88,-202,+70,-50
144083,16.423,-1.733,-2.813,0.316492,0.469327,-1.156576,99821.88,-203,+74,-49
144094,15.411,-2.810,-0.455,0.480914,0.442721,-0.941604,99827.52,-203,+77,-47
144104,11.821,-3.828,1.027,0.508584,0.525730,-0.693641,99823.70,-203,+77,-47
144114,8.911,-3.568,0.748,0.389391,0.541694,-0.543586,99822.18,-203,+78,-46
144124,8.052,-3.867,0.610,0.321814,0.484226,-0.484521,99819.77,-203,+80,-45
144134,7.759,-4.451,1.547,0.311703,0.403877,-0.475476,99819.77,-204,+81,-44
144144,7.723,-5.067,2.905,0.289887,0.357584,-0.473879,99824.92,-204,+81,-44
144154,8.074,-5.440,2.981,0.203685,0.353327,-0.482925,99822.02,-204,+83,-43
144164,8.540,-5.207,1.836,0.091410,0.364501,-0.498888,99824.22,-203,+84,-43
144174,8.583,-4.507,1.280,0.014786,0.378868,-0.504742,99824.22,-204,+86,-41
144184,8.542,-4.273,1.138,-0.031507,0.395364,-0.499420,99824.22,-204,+86,-41
144194,8.731,-4.256,1.198,-0.050131,0.399620,-0.493567,99823.18,-204,+87,-40
144204,8.974,-4.106,1.136,-0.037361,0.398556,-0.491439,99825.07,-204,+89,-39
144215,8.979,-4.023,0.938,-0.013948,0.399620,-0.489843,99823.60,-205,+91,-37
144224,8.956,-4.122,0.919,0.000951,0.407602,-0.485054,99823.55,-205,+91,-37
144234,8.981,-4.095,1.167,-0.024058,0.415052,-0.469622,99823.55,-204,+93,-36
144244,9.160,-3.655,1.460,-0.075140,0.415052,-0.429182,99825.09,-204,+95,-35
144254,9.379,-3.068,1.899,-0.100149,0.377272,-0.362136,99822.30,-205,+96,-34
144264,9.557,-2.738,2.917,-0.078865,0.282024,-0.260503,99822.60,-205,+96,-34
144274,9.665,-2.124,3.461,-0.057581,0.160171,-0.133861,99822.60,-204,+96,-33
144284,9.572,-2.232,2.817,-0.010223,0.032465,-0.003494,99824.91,-205,+96,-34
144294,9.291,-2.576,2.558,0.071190,-0.102159,0.119423,99824.91,-204,+95,-33
144304,9.116,-3.039,2.541,0.105245,-0.200067,0.217331,99824.96,-204,+95,-33
144314,9.309,-3.472,1.966,0.071190,-0.269242,0.293955,99823.40,-205,+95,-33
144324,9.418,-3.713,1.327,0.021172,-0.317664,0.355680,99823.60,-204,+94,-35
144334,9.147,-3.810,1.070,-0.021929,-0.336819,0.398249,99823.60,-204,+93,-36
144345,8.942,-3.757,1.428,-0.043746,-0.351719,0.434432,99823.73,-204,+93,-36
144354,8.991,-3.718,1.811,-0.041617,-0.384177,0.470616,99822.78,-205,+91,-38
144364,8.956,-3.764,1.795,-0.017140,-0.434728,0.502542,99822.42,-204,+89,-38
144374,8.760,-4.028,1.569,0.005208,-0.479425,0.523827,99819.75,-205,+87,-40
144385,8.697,-4.163,1.253,-0.040021,-0.506030,0.551496,99824.52,-205,+87,-40
144394,8.928,-4.044,1.100,-0.126755,-0.521462,0.586083,99821.95,-204,+86,-40
144404,9.272,-3.743,1.317,-0.196993,-0.548067,0.642487,99822.38,-203,+84,-42
144414,9.476,-3.542,1.720,-0.231581,-0.616177,0.728157,99822.38,-203,+81,-44
144424,9.760,-3.155,2.400,-0.195929,-0.722599,0.846285,99825.61,-203,+81,-44
144434,9.904,-3.379,2.516,-0.161342,-0.840195,0.975588,99825.61,-203,+78,-46
144444,9.847,-3.876,2.261,-0.094296,-0.975883,1.093184,99824.18,-203,+75,-48
144454,10.037,-4.354,2.239,-0.074608,-1.052507,1.186303,99824.02,-202,+72,-51
144464,10.487,-5.104,2.109,-0.154425,-1.107847,1.257606,99825.70,-202,+72,-51
144475,11.248,-5.536,2.467,-0.274149,-1.119553,1.305496,99823.60,-202,+66,-55
144484,12.009,-6.315,1.449,-0.410369,-1.113168,1.316670,99823.60,-200,+63,-58
144494,12.196,-6.995,0.357,-0.505617,-1.122213,1.315606,99823.88,-200,+59,-61
144504,13.064,-6.712,0.384,-0.637048,-1.105186,1.306560,99823.84,-198,+59,-61
144515,14.547,-6.519,0.931,-0.806791,-1.053571,1.314542,99820.49,-198,+55,-64
144524,14.866,-5.688,1.499,-0.972809,-1.052507,1.389037,99820.49,-197,+53,-67
144534,14.609,-4.632,1.625,-1.095727,-1.079113,1.466725,99820.49,-196,+49,-69
144544,14.708,-4.966,1.268,-1.175011,-1.129663,1.511954,99827.41,-194,+46,-72
144555,15.198,-5.652,0.978,-1.281433,-1.161058,1.517808,99822.70,-194,+46,-72
144564,14.981,-5.504,1.049,-1.443727,-1.145094,1.485349,99823.84,-192,+42,-76
144574,13.728,-4.887,1.388,-1.576222,-1.087094,1.444376,99821.66,-191,+40,-79
144584,12.018,-4.479,1.681,-1.608148,-1.029626,1.388505,99821.66,-189,+38,-82
144594,10.286,-4.694,1.216,-1.493745,-1.001425,1.308156,99821.64,-189,+38,-82
144605,7.874,-6.137,-0.287,-1.302717,-0.999828,1.266652,99823.73,-187,+36,-85
144614,5.718,-7.451,-0.819,-1.056883,-1.024305,1.339551,99821.58,-186,+34,-87
144624,5.005,-7.699,-0.233,-0.655140,-1.021645,1.362432,99821.58,-183,+30,-90
144634,5.230,-6.554,0.517,-0.265104,-0.956727,1.301771,99821.24,-183,+30,-90
144645,4.723,-4.866,0.787,-0.083122,-0.858819,1.203863,99821.24,-180,+26,-92
144654,3.630,-3.805,1.173,-0.141122,-0.628948,1.049019,99821.82,-180,+23,-94
144664,3.183,-2.942,1.027,-0.397067,-0.282544,0.804781,99823.24,-178,+22,-94
144674,3.553,-2.498,1.023,-0.527434,0.026611,0.594597,99820.52,-178,+22,-94
144685,4.574,-0.673,1.918,-0.447617,0.252758,0.373240,99820.52,-178,+21,-94
144694,5.316,1.643,2.698,-0.297562,0.450171,0.109845,99820.52,-180,+21,-91
144704,5.391,3.041,2.908,-0.170920,0.608207,-0.082779,99820.20,-180,+21,-90
144714,5.179,3.847,2.874,-0.032572,0.755070,-0.280191,99817.84,-180,+21,-90
144724,4.932,4.210,2.974,0.123869,0.903528,-0.524962,99817.91,-181,+22,-87
144735,4.737,4.053,2.980,0.286162,1.049858,-0.793145,99822.63,-182,+24,-84
144744,4.697,3.617,3.044,0.485171,1.208959,-1.071971,99821.78,-185,+25,-80
144754,4.920,3.075,2.929,0.702272,1.387748,-1.358246,99821.06,-185,+25,-80
144764,5.296,2.409,2.811,0.854455,1.578243,-1.638668,99821.06,-187,+29,-75
144775,5.855,1.676,2.703,0.908198,1.771931,-1.913236,99819.28,-189,+34,-70
144784,6.568,0.958,2.548,0.885850,1.958702,-2.175566,99819.28,-192,+39,-64
144794,7.387,0.367,2.348,0.845410,2.123656,-2.413951,99821.20,-192,+39,-64
144804,8.250,-0.372,2.068,0.825012,2.278323,-2.631584,99820.55,-193,+45,-58
144815,8.955,-1.036,1.786,0.814547,2.396628,-2.778447,99820.55,-196,+51,-49
144825,10.006,-1.751,1.404,0.789006,2.513160,-2.905089,99819.91,-198,+60,-43
144834,11.203,-2.422,0.994,0.757079,2.601491,-2.993951,99819.91,-198,+60,-43
144844,12.294,-3.028,0.660,0.742712,2.650977,-3.045566,99822.63,-198,+67,-35
144855,13.149,-3.478,0.468,0.754951,2.660023,-3.066850,99819.39,-200,+76,-28
144865,13.650,-3.758,0.453,0.795923,2.630224,-3.062593,99820.95,-200,+82,-20
144874,13.894,-3.965,0.489,0.873079,2.565307,-3.029070,99820.95,-200,+82,-20
144884,14.054,-4.272,0.570,0.993868,2.464206,-2.980648,99820.95,-201,+91,-13
144894,14.154,-4.611,0.551,1.136474,2.336500,-2.914667,99821.87,-202,+99,-6
144905,14.265,-5.056,0.537,1.267905,2.190702,-2.838575,99822.60,-202,+106,-1
144914,14.124,-5.670,0.554,1.371666,2.031069,-2.746520,99822.20,-202,+106,-1
144924,13.455,-6.307,0.478,1.464253,1.837913,-2.617749,99820.51,-201,+113,+2
144934,12.825,-6.532,0.275,1.537684,1.620812,-2.474080,99820.51,-200,+121,+8
144945,12.230,-6.922,-0.226,1.577593,1.402115,-2.318704,99824.16,-201,+127,+9
144955,11.558,-7.230,-0.560,1.510015,1.216409,-2.169181,99820.98,-201,+127,+9
144964,11.190,-7.389,-0.491,1.312070,1.084978,-2.010612,99821.68,-200,+134,+12
144974,11.242,-7.346,-0.271,1.049208,0.980684,-1.849915,99821.68,-198,+140,+14
144985,11.186,-7.135,0.211,0.811887,0.853510,-1.675915,99825.42,-198,+145,+16
144995,10.655,-6.980,0.599,0.663428,0.706648,-1.463071,99821.70,-196,+145,+16
145004,9.804,-6.880,0.553,0.576694,0.539033,-1.220429,99821.70,-196,+151,+18
145014,8.828,-6.780,0.415,0.511777,0.370354,-0.956503,99824.58,-196,+155,+19
145025,8.269,-6.827,0.128,0.411740,0.225621,-0.675549,99822.28,-196,+157,+19
145035,8.249,-6.868,-0.196,0.281373,0.095254,-0.395659,99822.28,-195,+157,+19
145044,8.529,-6.831,-0.490,0.183997,-0.038838,-0.141311,99822.84,-195,+158,+19
145054,8.748,-7.041,-0.633,0.148878,-0.196342,0.107717,99826.71,-196,+160,+19
145064,8.805,-7.390,-0.592,0.197832,-0.368746,0.342377,99822.59,-196,+158,+18
145075,8.789,-8.117,-0.683,0.263814,-0.546471,0.582359,99821.07,-198,+156,+16
145085,8.504,-9.040,-0.721,0.280841,-0.715150,0.825533,99825.84,-198,+156,+16
145094,8.592,-9.785,0.077,0.259557,-0.862012,1.079881,99825.44,-200,+153,+14
145104,6.742,-11.513,-0.309,0.181869,-0.965241,1.377863,99823.39,-202,+149,+11
145115,6.423,-11.996,0.181,0.016915,-1.085498,1.701918,99823.39,-206,+142,+8
145125,7.564,-8.921,1.996,-0.054920,-1.046122,1.777477,99821.14,-206,+142,+8
145134,8.820,-3.218,5.391,-0.195397,-0.879039,1.681165,99821.14,-208,+136,+6
145144,13.362,6.688,11.451,-0.152828,-0.670984,1.395422,99822.36,-210,+131,+4
145155,19.308,15.793,10.937,-0.267232,-0.553920,0.836707,99820.06,-211,+129,+4
145165,15.495,3.828,0.319,-0.845635,-0.805608,1.232065,99819.11,-211,+129,+4
145175,8.968,-6.545,-3.698,-0.252865,-1.364856,1.872725,99823.30,-212,+124,+1
145184,8.544,-10.043,-1.612,0.898088,-1.570782,1.718413,99823.30,-214,+117,-3
145195,8.887,-9.336,-0.970,0.851795,-1.289828,1.584321,99827.17,-215,+111,-7
145205,10.608,-7.447,-1.002,0.297337,-0.842324,1.594431,99823.77,-215,+111,-7
145215,10.678,-5.887,-0.482,0.057887,-0.718342,1.649239,99824.30,-216,+106,-10
145224,8.602,-4.168,-0.160,-0.051728,-0.649168,1.633807,99824.30,-218,+101,-12
145234,8.051,-3.484,0.621,-0.244883,-0.530507,1.532707,99824.30,-218,+95,-13
145245,8.341,-4.139,1.522,-0.351837,-0.481021,1.475771,99820.69,-218,+95,-13
145255,8.713,-5.008,1.720,-0.436975,-0.437388,1.418303,99824.34,-219,+89,-14
145264,8.804,-4.932,1.835,-0.592351,-0.423021,1.333165,99821.63,-219,+84,-16
145274,8.592,-4.620,1.909,-0.669507,-0.400141,1.250688,99819.22,-220,+80,-16
145285,8.444,-3.813,1.533,-0.637048,-0.395352,1.191092,99819.22,-220,+80,-16
145295,8.513,-3.133,1.338,-0.456663,-0.421957,1.142670,99824.22,-220,+78,-16
145305,8.893,-2.959,1.103,-0.152296,-0.475168,1.117661,99822.44,-220,+73,-18
145314,9.004,-3.568,1.213,0.099392,-0.509755,1.086799,99823.52,-221,+69,-20
145325,8.748,-4.831,0.960,0.185061,-0.513480,1.051679,99823.52,-221,+69,-20
145335,8.349,-5.329,0.894,0.131318,-0.484746,0.997936,99825.38,-221,+65,-21
145345,8.082,-4.874,1.673,0.022768,-0.401205,0.926102,99823.02,-221,+62,-22
145354,8.225,-4.455,2.188,-0.116113,-0.329902,0.862248,99823.02,-221,+59,-24
145364,8.475,-4.515,1.985,-0.147507,-0.317664,0.793606,99825.12,-221,+59,-24
145375,8.663,-4.503,1.452,-0.091636,-0.321920,0.738267,99820.93,-221,+56,-24
145385,8.540,-4.659,1.061,-0.030975,-0.327242,0.703680,99820.93,-221,+54,-25
145394,8.164,-5.149,0.750,0.012126,-0.311810,0.662707,99824.54,-221,+52,-25
145404,7.896,-5.425,0.731,-0.005434,-0.272966,0.613221,99824.45,-221,+52,-25
145415,7.983,-5.337,1.266,-0.063434,-0.214966,0.566395,99821.09,-221,+49,-27
145425,8.294,-5.196,1.127,-0.145379,-0.145792,0.532340,99821.98,-221,+47,-28
145435,8.586,-5.099,0.588,-0.190076,-0.092581,0.500946,99826.10,-221,+45,-28
145444,8.625,-5.091,0.703,-0.196461,-0.052673,0.469019,99825.68,-221,+45,-28
145455,8.452,-5.111,0.887,-0.214021,-0.018086,0.442414,99821.80,-221,+43,-27
145465,8.237,-5.463,1.191,-0.233177,0.011180,0.409423,99820.76,-221,+43,-27
145474,8.187,-5.640,1.271,-0.288516,0.036722,0.365258,99820.76,-221,+42,-27
145484,8.443,-5.439,1.309,-0.348645,0.051621,0.321093,99820.76,-221,+42,-27
145495,8.643,-5.064,1.635,-0.381103,0.050556,0.292891,99827.38,-221,+42,-27
145505,8.491,-4.939,1.479,-0.350241,0.036722,0.276928,99823.55,-221,+40,-27
145515,8.234,-4.917,1.279,-0.289581,0.008520,0.265221,99823.15,-220,+40,-27
145525,8.166,-5.054,0.954,-0.222003,-0.017022,0.248726,99824.66,-221,+39,-27
145534,8.239,-5.237,0.749,-0.193269,-0.032453,0.240212,99824.66,-221,+39,-27
145545,8.392,-5.422,0.821,-0.227324,-0.027132,0.248726,99823.56,-220,+38,-27
145555,8.598,-5.467,0.974,-0.315654,-0.003719,0.265221,99822.52,-221,+37,-27
145565,8.790,-5.244,1.173,-0.410369,0.025547,0.288634,99822.67,-220,+36,-27
145574,8.724,-5.069,1.119,-0.476883,0.048960,0.314707,99822.67,-220,+36,-27
145585,8.615,-5.054,1.030,-0.515195,0.059602,0.340249,99822.67,-220,+36,-27
145595,8.546,-4.979,0.987,-0.547122,0.067584,0.361001,99825.45,-219,+34,-25
145605,8.456,-5.057,0.837,-0.566810,0.067052,0.380157,99821.84,-219,+34,-26
145614,8.406,-5.049,0.683,-0.575856,0.065988,0.400909,99826.49,-219,+34,-26
145625,8.442,-4.960,0.535,-0.575856,0.052685,0.415808,99822.88,-219,+34,-26
145635,8.440,-4.867,0.834,-0.560424,0.027676,0.437625,99822.88,-220,+32,-27
145645,8.359,-4.885,0.957,-0.541269,0.004263,0.470616,99826.11,-219,+30,-25
145655,8.380,-4.823,0.956,-0.521580,-0.022875,0.514781,99821.98,-219,+30,-25
145665,8.495,-4.926,0.979,-0.505085,-0.061719,0.561606,99823.97,-219,+29,-26
145675,8.234,-5.056,1.228,-0.500828,-0.102691,0.618542,99822.62,-219,+27,-27
145685,8.311,-4.886,1.398,-0.520516,-0.142599,0.685588,99824.82,-219,+25,-27
145695,8.568,-4.358,1.789,-0.510406,-0.231462,0.770725,99821.16,-219,+25,-27
145704,8.712,-4.017,2.160,-0.443892,-0.351719,0.886725,99821.16,-218,+22,-28
145715,8.997,-4.234,2.035,-0.356094,-0.493792,1.020817,99823.66,-218,+20,-29
145725,9.568,-4.587,1.934,-0.305012,-0.627351,1.159166,99820.79,-216,+17,-32
145734,10.230,-5.312,1.713,-0.309269,-0.728984,1.281551,99820.79,-216,+17,-32
145744,10.869,-5.680,1.307,-0.351837,-0.808269,1.390633,99821.50,-215,+11,-33
145755,11.319,-5.498,1.039,-0.391214,-0.887021,1.493330,99824.06,-213,+7,-36
145765,11.598,-5.317,0.770,-0.372590,-0.976947,1.594963,99822.70,-212,+1,-40
145775,11.744,-5.307,0.499,-0.324700,-1.083902,1.701918,99820.61,-212,+1,-40
145785,11.825,-5.673,0.428,-0.286920,-1.196177,1.807275,99824.80,-209,-1,-43
145795,11.848,-6.236,0.960,-0.303415,-1.279718,1.908908,99823.65,-205,-7,-47
145805,12.009,-6.807,1.125,-0.389085,-1.316434,1.990853,99822.66,-203,-13,-51
145815,12.631,-6.882,1.180,-0.531691,-1.343571,2.051514,99822.04,-203,-13,-51
145824,14.275,-6.783,1.581,-0.659929,-1.402103,2.087697,99822.04,-200,-19,-55
145835,15.569,-7.325,3.384,-0.730700,-1.486177,2.122284,99822.04,-194,-25,-61
145845,16.224,-7.773,4.224,-0.870112,-1.443076,2.218596,99824.32,-189,-30,-66
145855,17.799,-7.771,4.644,-1.173415,-1.328140,2.318101,99823.43,-189,-30,-66
145860,19.322,-7.104,5.054,-1.493213,-1.250984,2.388339,99821.34,-184,-35,-69
145869,19.786,-6.580,5.487,-1.800240,-1.201498,2.518706,99820.98,-180,-39,-75
145880,19.146,-4.674,6.117,-2.089176,-1.179149,2.712394,99820.98,-180,-39,-75
145890,17.985,-3.539,5.586,-2.295635,-1.149883,2.873623,99822.07,-175,-42,-80
145900,16.524,-4.135,4.092,-2.548919,-1.104122,2.972064,99821.02,-168,-47,-85
145910,14.865,-6.765,2.841,-2.747928,-1.121681,3.046559,99822.54,-161,-49,-91
145920,14.067,-7.896,4.182,-2.687799,-1.172764,2.970467,99819.87,-161,-49,-91
145930,13.461,-7.225,4.580,-2.592552,-1.136580,2.700155,99819.87,-155,-51,-96
145940,12.211,-7.583,2.013,-2.727708,-1.018452,2.346835,99823.49,-149,-53,-103
145950,11.615,-9.540,-0.616,-2.911285,-1.000360,2.122284,99825.41,-143,-51,-108
145959,9.567,-10.378,-0.944,-2.595212,-1.171700,2.234027,99819.77,-143,-51,-108
145970,7.045,-9.095,1.309,-1.798112,-1.067938,2.317036,99819.46,-136,-52,-113
145980,5.654,-4.507,4.927,-1.053690,-0.738740,1.871483,99819.46,-131,-53,-117
145990,6.887,0.566,4.446,-0.856277,-0.369810,1.167147,99821.46,-128,-54,-118
145999,5.728,-0.598,2.874,-1.106369,-0.148985,0.894707,99820.30,-128,-54,-118
146010,4.714,-0.284,4.071,-0.907892,-0.027132,0.776579,99818.79,-126,-53,-120
146020,4.683,2.722,3.653,-0.740278,0.218703,0.144964,99818.32,-125,-53,-120
146030,4.800,4.176,3.107,-0.691856,0.443786,-0.259439,99818.32,-127,-50,-119
146040,4.322,3.621,2.274,-0.421012,0.519345,-0.465898,99821.47,-127,-50,-119
146050,3.545,2.461,1.242,-0.053324,0.572024,-0.730356,99819.22,-128,-49,-120
146060,2.962,1.714,0.209,0.379814,0.642795,-1.027273,99817.86,-130,-47,-119
146070,2.408,1.088,-0.227,0.922565,0.725272,-1.327915,99817.70,-133,-46,-116
146080,2.201,0.493,-0.291,1.487666,0.829033,-1.660484,99817.70,-133,-46,-116
146089,2.449,-0.069,0.010,1.972950,0.941308,-2.020722,99819.62,-136,-46,-112
146100,3.040,-0.323,0.433,2.300730,1.067950,-2.344245,99819.41,-141,-45,-108
146110,3.817,-0.080,0.673,2.423647,1.188739,-2.629988,99818.99,-146,-45,-103
146120,4.242,-0.336,1.201,2.518363,1.352629,-2.907217,99816.74,-146,-45,-103
146129,4.769,-0.955,1.837,2.640748,1.503216,-3.183382,99816.74,-152,-43,-98
146140,5.303,-1.765,2.299,2.748766,1.636775,-3.448905,99818.64,-159,-41,-91
146150,5.886,-2.901,2.321,2.741317,1.792684,-3.668134,99818.75,-166,-36,-85
146160,6.217,-3.945,2.158,2.611482,1.972537,-3.838941,99815.66,-166,-36,-85
146170,6.658,-4.408,1.730,2.448124,2.139619,-4.009748,99813.98,-174,-31,-79
146180,7.114,-4.502,1.290,2.300198,2.314151,-4.185345,99813.98,-182,-24,-71
146190,7.745,-4.801,1.031,2.129922,2.494004,-4.379565,99820.92,-192,-15,-64
146200,8.671,-5.339,0.934,1.904840,2.680775,-4.592941,99818.67,-192,-15,-64
146210,9.727,-5.749,1.035,1.620161,2.873931,-4.799932,99818.31,-200,-2,-54
146220,10.706,-5.890,1.418,1.335483,3.078261,-4.978720,99815.80,-207,+9,-46
146230,11.604,-6.176,1.934,1.100290,3.272481,-5.136225,99815.80,-214,+26,-36
146240,12.361,-6.533,2.273,0.916180,3.443288,-5.249032,99822.42,-218,+26,-25
146250,13.087,-6.630,2.280,0.733666,3.616756,-5.332573,99819.97,-218,+44,-25
146259,14.692,-6.983,1.969,0.589997,3.794481,-5.369289,99820.59,-220,+65,-14
146270,17.183,-8.289,0.955,0.560199,3.901967,-5.293197,99818.50,-219,+84,-3
146280,19.060,-10.559,-0.694,0.700144,3.888132,-5.082482,99818.50,-218,+103,+7
146290,19.875,-12.913,-2.597,0.982694,3.736481,-4.790353,99824.56,-218,+103,+7
146299,19.760,-14.539,-4.961,1.342400,3.415087,-4.476941,99820.22,-212,+121,+17
146310,19.626,-16.394,-6.945,1.722859,2.964390,-4.103932,99822.27,-205,+137,+23
146320,18.516,-18.429,-7.965,2.104381,2.431216,-3.709107,99822.78,-199,+149,+25
146330,15.928,-19.693,-7.127,2.375757,1.902830,-3.304703,99822.78,-199,+149,+25
146340,12.014,-20.373,-6.247,2.529005,1.392537,-2.826336,99826.24,-193,+160,+25
146350,7.962,-22.938,-6.413,2.554014,0.918427,-2.236227,99826.02,-187,+169,+22
146360,4.784,-26.020,-7.333,2.253372,0.547547,-1.526924,99826.60,-184,+172,+19
146370,3.402,-26.859,-8.191,1.454143,0.300648,-0.658521,99825.24,-184,+172,+19
146380,5.127,-25.161,-8.365,0.448988,0.047364,0.303533,99825.24,-184,+173,+17
146391,7.940,-21.796,-7.463,-0.334810,-0.243700,1.076156,99825.03,-186,+170,+16
146400,7.375,-21.206,-9.298,-0.870644,-0.720471,1.822174,99827.55,-189,+164,+15
146410,12.404,-13.736,-4.960,-0.872241,-1.290360,2.257440,99824.61,-189,+164,+15
146420,21.012,10.297,10.936,-0.151232,-1.655920,1.754064,99821.33,-193,+157,+12
146429,30.772,30.104,14.208,0.029153,-1.023241,0.711129,99821.33,-194,+154,+7
146440,17.808,-2.324,-3.089,-1.523543,-1.148287,2.371312,99825.55,-198,+145,+4
146450,10.229,-16.469,-6.861,0.236676,-2.184304,3.258871,99825.96,-198,+145,+4
146460,9.397,-10.830,0.550,2.206546,-2.265185,2.694834,99823.15,-201,+134,-4
146470,6.823,-5.588,-1.782,1.385501,-1.644745,2.388339,99822.15,-202,+127,-11
146480,6.798,-7.469,-0.621,0.761336,-1.121149,2.323954,99822.15,-204,+117,-15
146490,6.993,-12.859,1.626,0.478254,-0.974287,2.196779,99824.09,-204,+117,-15
146500,8.901,-12.265,0.134,-0.104406,-0.926397,1.872725,99825.13,-206,+109,-18
146510,9.582,-5.741,0.624,-0.878094,-0.769957,1.605606,99822.52,-206,+105,-20
146520,8.722,-2.432,1.841,-1.161176,-0.621498,1.546009,99820.43,-207,+100,-21
146530,7.717,-1.392,1.715,-0.920663,-0.567223,1.500248,99820.43,-207,+100,-21
146540,8.621,-2.663,1.452,-0.618957,-0.592764,1.463532,99826.50,-209,+95,-22
146550,9.291,-4.000,0.696,-0.317782,-0.662471,1.374670,99824.56,-209,+91,-24
146561,9.549,-3.781,0.630,-0.173049,-0.666195,1.308156,99824.41,-209,+87,-26
146570,9.163,-3.702,1.279,-0.151232,-0.631076,1.257074,99821.80,-209,+87,-26
146580,8.510,-3.488,2.568,-0.142186,-0.586911,1.175661,99821.80,-209,+84,-27
146590,7.921,-4.071,2.527,-0.152296,-0.555517,1.096377,99822.95,-210,+79,-30
146600,8.161,-5.033,1.805,-0.163471,-0.542746,1.013900,99822.95,-210,+74,-32
146610,8.656,-5.085,1.794,-0.264571,-0.478893,0.913863,99821.85,-210,+74,-32
146620,8.564,-5.206,1.285,-0.401856,-0.390563,0.840432,99820.12,-209,+72,-32
146630,8.388,-4.517,1.115,-0.448681,-0.345333,0.769129,99820.12,-210,+70,-33
146640,8.499,-3.701,1.288,-0.381103,-0.328306,0.707937,99823.73,-210,+67,-33
146650,8.717,-3.748,1.076,-0.257654,-0.344801,0.677074,99822.43,-210,+67,-33
146660,8.491,-4.298,0.888,-0.140590,-0.359700,0.648340,99824.57,-209,+66,-35
146670,8.315,-4.995,0.726,-0.095361,-0.333627,0.605239,99826.09,-209,+64,-37
146680,8.481,-5.384,0.758,-0.177305,-0.279884,0.549900,99826.09,-210,+61,-37
146691,8.813,-5.060,1.186,-0.327892,-0.211774,0.491368,99822.74,-210,+61,-37
146700,8.978,-4.501,1.533,-0.426333,-0.154838,0.460506,99822.74,-210,+61,-37
146710,8.768,-4.149,1.673,-0.428461,-0.135150,0.450395,99821.07,-209,+60,-37
146720,8.498,-4.275,1.710,-0.361947,-0.144196,0.446671,99820.49,-209,+58,-38
146731,8.280,-4.435,1.634,-0.306608,-0.155902,0.437093,99820.49,-209,+58,-38
146740,8.234,-4.746,1.464,-0.276278,-0.164416,0.424854,99822.51,-209,+57,-38
146750,8.178,-4.842,1.583,-0.281067,-0.157498,0.409423,99824.49,-209,+56,-40
146760,8.142,-4.899,1.784,-0.301287,-0.137278,0.395588,99821.73,-208,+55,-40
146770,8.148,-5.015,1.775,-0.342259,-0.108544,0.387606,99822.55,-209,+53,-39
146780,8.327,-4.602,1.787,-0.386957,-0.081407,0.383350,99822.55,-209,+53,-39
146790,8.494,-4.115,2.151,-0.376847,-0.075554,0.393460,99824.89,-209,+53,-40
146800,8.250,-4.223,2.400,-0.317250,-0.087792,0.425918,99823.27,-208,+51,-40
146810,8.062,-4.211,2.716,-0.248076,-0.096306,0.465827,99823.80,-209,+49,-40
146821,8.007,-3.732,3.187,-0.181030,-0.096838,0.536597,99821.17,-209,+49,-40
146830,7.429,-4.068,2.619,-0.092700,-0.132489,0.605239,99821.17,-209,+48,-40
146840,6.791,-5.425,1.106,-0.013416,-0.228269,0.604175,99824.40,-209,+45,-41
146850,7.934,-4.665,0.806,-0.038957,-0.245829,0.615882,99823.66,-209,+43,-42
146861,8.892,-5.440,-1.172,-0.139526,-0.250086,0.629716,99820.16,-209,+43,-42
146870,9.811,-5.291,-1.896,-0.261911,-0.245829,0.635570,99824.24,-209,+40,-43
146880,10.430,-4.082,-1.256,-0.357158,-0.200067,0.691973,99824.24,-207,+39,-43
146890,9.839,-3.502,-0.352,-0.342259,-0.221884,0.781900,99827.19,-208,+36,-43
146900,9.138,-3.173,1.242,-0.195929,-0.300636,0.896836,99826.41,-208,+36,-43
146911,8.941,-3.731,2.146,-0.029379,-0.402269,1.006982,99824.73,-207,+34,-45
146920,9.038,-5.224,2.798,0.057887,-0.491663,1.082542,99823.17,-207,+30,-46
146930,8.904,-5.858,2.844,-0.003306,-0.522526,1.162358,99823.17,-206,+26,-48
146940,8.809,-5.829,2.299,-0.161874,-0.538489,1.236321,99823.31,-206,+26,-48
146951,9.193,-5.064,2.053,-0.254461,-0.587443,1.318799,99826.97,-205,+22,-48
146960,9.725,-4.954,0.952,-0.251801,-0.683755,1.415110,99824.41,-203,+18,-51
146970,10.544,-4.904,0.456,-0.209764,-0.813058,1.506101,99822.73,-203,+13,-54
146980,10.981,-5.388,0.017,-0.201250,-0.923204,1.586982,99822.73,-203,+13,-54
146991,11.293,-5.862,-0.032,-0.242755,-1.014727,1.663074,99824.61,-200,+7,-57
147000,11.538,-6.546,0.657,-0.305012,-1.094012,1.729055,99825.41,-198,+2,-60
147010,11.499,-7.275,1.437,-0.388021,-1.142434,1.776413,99823.41,-196,-1,-64
147020,11.361,-7.596,1.936,-0.504553,-1.158929,1.829624,99823.47,-196,-1,-64
147031,11.749,-7.642,1.959,-0.646094,-1.165314,1.872193,99823.47,-191,-8,-67
147036,12.398,-7.511,2.066,-0.761030,-1.173296,1.907312,99825.16,-188,-13,-72
147045,13.680,-7.155,1.733,-0.882883,-1.191388,1.954670,99825.16,-188,-13,-72
147055,16.081,-6.635,2.541,-1.006864,-1.292489,2.016927,99822.93,-185,-17,-75
147065,17.249,-6.657,4.705,-1.079231,-1.402635,2.136119,99822.24,-182,-22,-80
147076,18.022,-7.035,4.564,-1.219708,-1.373369,2.320229,99820.93,-175,-27,-85
147086,19.317,-6.672,3.902,-1.480442,-1.310048,2.445807,99822.19,-175,-27,-85
147095,19.672,-5.125,3.836,-1.823121,-1.202562,2.528816,99822.67,-171,-32,-90
147105,19.427,-4.199,4.084,-2.167928,-1.078048,2.639495,99818.59,-165,-35,-95
147116,19.409,-3.072,4.358,-2.428130,-1.034415,2.797532,99818.59,-160,-38,-99
147126,19.365,-2.190,4.129,-2.639377,-1.057828,2.959293,99822.61,-160,-38,-99
147135,17.404,-3.519,2.485,-2.793689,-1.134452,3.072100,99822.61,-154,-41,-105
147145,14.368,-6.408,2.689,-2.720258,-1.236085,3.053476,99824.73,-147,-43,-112
147155,13.582,-7.117,4.047,-2.585634,-1.231828,2.752302,99823.48,-141,-44,-117
147166,12.074,-8.259,1.914,-2.726111,-1.123810,2.394192,99821.77,-141,-44,-117
147176,11.224,-9.239,0.659,-3.001744,-1.087094,2.169642,99821.23,-136,-43,-122
147185,10.402,-7.694,0.627,-2.805928,-1.183938,2.207954,99821.23,-130,-42,-128
147195,8.254,-6.181,1.920,-2.138662,-1.187131,2.295752,99824.30,-126,-42,-133
147206,6.576,-4.425,2.979,-1.372424,-1.096672,2.168046,99822.43,-126,-42,-133
147216,5.370,-2.052,3.780,-0.920131,-0.809865,1.717881,99819.71,-121,-44,-136
147225,5.038,-1.952,0.943,-1.008461,-0.413975,1.238450,99819.71,-119,-44,-138
147235,2.801,-3.770,0.387,-1.345286,-0.071829,1.041569,99819.71,-117,-43,-139
147246,3.117,-2.377,2.133,-1.228222,0.258079,0.638230,99819.27,-117,-43,-139
147256,3.436,0.030,2.756,-1.015910,0.578409,0.060359,99823.51,-120,-39,-140
147265,3.493,1.636,2.644,-0.769544,0.759327,-0.324888,99820.70,-122,-37,-139
147275,3.107,1.844,2.005,-0.372058,0.818391,-0.587751,99818.60,-125,-34,-138
147286,2.590,1.605,1.246,0.088217,0.825840,-0.851677,99818.60,-125,-34,-138
147296,2.169,1.265,0.597,0.565520,0.822116,-1.136356,99821.57,-129,-32,-135
147306,1.772,0.730,0.594,1.055061,0.832226,-1.417310,99821.57,-133,-29,-133
147315,1.674,0.373,0.989,1.515868,0.908317,-1.736044,99817.99,-137,-28,-129
147325,1.884,0.256,1.398,1.858547,1.047730,-2.090961,99817.99,-137,-28,-129
147336,2.340,0.137,1.752,2.066069,1.210556,-2.429383,99820.65,-143,-25,-125
147345,2.694,-0.145,1.952,2.185262,1.360078,-2.719914,99820.65,-148,-23,-120
147355,2.990,-0.913,1.971,2.260289,1.488317,-2.971602,99818.55,-153,-18,-114
147365,3.114,-1.934,2.062,2.292216,1.626133,-3.203070,99815.37,-153,-18,-114
147376,3.514,-2.764,2.366,2.268271,1.805454,-3.469125,99816.88,-160,-13,-109
147386,3.955,-3.161,2.592,2.163445,2.016702,-3.749015,99816.88,-165,-5,-102
147395,4.454,-3.179,2.760,1.985189,2.258812,-4.007088,99820.06,-172,+3,-95
147405,5.251,-3.092,2.883,1.769684,2.518481,-4.232170,99817.23,-172,+3,-95
147416,6.128,-3.210,3.032,1.554180,2.763252,-4.412024,99818.17,-176,+15,-88
147426,6.914,-3.703,3.013,1.375391,2.997380,-4.564739,99815.92,-182,+26,-81
147436,7.871,-4.077,2.977,1.243960,3.213949,-4.702023,99820.63,-185,+40,-72
147445,9.159,-4.396,2.938,1.168932,3.420940,-4.845160,99820.48,-185,+40,-72
147456,10.723,-5.034,2.955,1.162015,3.630059,-4.969142,99820.84,-189,+53,-62
147466,12.411,-5.638,3.037,1.181703,3.829068,-5.062794,99820.84,-193,+67,-53
147476,14.237,-5.784,3.119,1.217886,4.011581,-5.136225,99817.54,-194,+83,-42
147485,16.445,-6.036,3.262,1.313666,4.173343,-5.167619,99817.54,-194,+83,-42
147495,19.274,-7.316,2.503,1.531831,4.250499,-5.086206,99821.47,-194,+99,-30
147506,20.632,-9.857,0.993,1.826443,4.131484,-4.931008,99820.14,-193,+116,-20
147515,20.668,-11.405,-0.669,2.053299,3.982848,-4.854739,99820.14,-189,+131,-11
147525,21.629,-13.323,-2.486,2.134712,3.790756,-4.663179,99820.95,-184,+147,-6
147535,21.570,-15.531,-4.601,2.136308,3.514591,-4.367326,99820.95,-184,+147,-6
147546,20.259,-17.347,-5.554,2.179941,3.163399,-4.002831,99826.41,-178,+160,-2
147556,18.524,-19.372,-4.777,2.271464,2.720683,-3.592575,99823.27,-173,+172,-1
147566,15.595,-20.866,-5.352,2.262418,2.162500,-3.061529,99821.08,-168,+179,-2
147575,10.307,-24.608,-7.704,2.223574,1.684133,-2.492172,99821.08,-168,+179,-2
147586,5.712,-28.775,-10.840,2.044785,1.396794,-1.930796,99821.08,-165,+184,-3
147596,3.462,-28.710,-11.523,1.287061,1.130739,-1.133163,99828.12,-164,+187,-4
147605,4.210,-24.556,-9.853,0.259025,0.683767,-0.059898,99828.12,-166,+185,-4
147615,7.216,-20.683,-8.348,-0.470498,0.051621,0.960157,99828.27,-166,+185,-4
147625,8.753,-19.458,-7.209,-0.885544,-0.558177,1.791844,99822.41,-169,+180,-3
147636,11.755,-17.841,-4.217,-0.931305,-1.003021,2.381422,99822.41,-174,+174,-4
147646,13.922,-10.074,-5.305,-0.700369,-1.382947,2.529880,99825.77,-178,+166,-8
147656,17.337,2.028,0.295,-0.592883,-1.881002,2.655458,99824.62,-178,+166,-8
147665,30.450,37.184,16.515,0.751758,-1.934745,1.381055,99822.34,-182,+158,-12
147676,26.010,27.126,5.638,0.118016,-1.190856,1.115533,99822.34,-184,+156,-17
147686,7.295,-8.817,-7.057,0.423979,-1.921442,2.894376,99827.70,-186,+145,-24
147696,8.861,-19.603,-3.658,3.170729,-2.756855,3.134889,99822.35,-186,+145,-24
147705,7.491,-14.451,0.652,3.879499,-2.567956,2.498486,99822.35,-188,+131,-37
147716,9.023,-9.783,-4.476,2.149611,-1.511186,2.201569,99822.35,-189,+122,-43
147726,8.351,-7.259,-0.295,0.967263,-0.989186,2.224449,99824.24,-190,+114,-47
147735,4.971,-9.114,3.491,0.415465,-0.786452,2.006816,99824.24,-190,+114,-47
147745,8.451,-10.061,2.414,-0.041617,-0.670452,1.682230,99824.17,-192,+107,-49
147756,9.424,-5.480,1.762,-0.622149,-0.742287,1.414578,99824.86,-193,+102,-50
147766,9.254,-5.463,1.861,-0.919599,-0.650232,1.352321,99823.55,-193,+99,-52
147776,8.607,-4.343,1.326,-1.053690,-0.631608,1.267716,99821.88,-193,+99,-52
147786,8.489,-3.063,1.644,-0.963764,-0.477296,1.222487,99827.63,-193,+97,-52
147795,8.742,-3.417,0.028,-0.751452,-0.418232,1.161294,99824.90,-193,+93,-52
147806,9.131,-2.397,0.181,-0.501892,-0.443241,1.101166,99825.32,-194,+90,-54
147816,9.285,-2.585,1.156,-0.241159,-0.441645,1.073496,99822.76,-194,+90,-54
147825,8.850,-4.026,1.476,-0.036296,-0.452819,1.022946,99822.76,-194,+87,-55
147835,8.639,-4.363,2.068,-0.034168,-0.423021,0.943661,99822.76,-194,+84,-56
147846,8.401,-4.953,2.238,-0.178902,-0.371407,0.870230,99824.88,-194,+82,-56
147856,8.396,-5.627,2.516,-0.381636,-0.295847,0.770193,99824.88,-194,+82,-56
147865,8.364,-5.149,2.238,-0.604057,-0.237847,0.652597,99822.48,-194,+79,-58
147875,8.657,-3.913,1.938,-0.666846,-0.202728,0.591937,99820.90,-194,+78,-58
147886,8.840,-3.485,1.898,-0.541801,-0.216031,0.556285,99820.90,-194,+77,-58
147896,8.839,-3.568,1.623,-0.356094,-0.243700,0.531276,99826.35,-194,+77,-58
147906,8.741,-3.798,1.289,-0.242223,-0.252214,0.517441,99823.30,-194,+74,-58
147916,8.535,-4.407,1.276,-0.210828,-0.233058,0.497753,99821.96,-194,+74,-60
147926,8.554,-4.720,1.704,-0.267232,-0.191554,0.484450,99821.96,-194,+72,-59
147936,8.494,-4.609,1.975,-0.364608,-0.146856,0.473276,99821.96,-194,+72,-59
147946,8.553,-4.311,1.976,-0.413030,-0.123976,0.464762,99826.45,-194,+71,-59
147955,8.637,-3.997,1.781,-0.407177,-0.129297,0.469019,99824.51,-194,+70,-60
147965,8.548,-4.043,1.944,-0.360883,-0.145260,0.483918,99822.74,-194,+69,-61
147977,8.584,-4.225,2.158,-0.325055,-0.164416,0.498285,99821.91,-194,+68,-61
147986,8.719,-4.295,2.086,-0.321507,-0.175058,0.510524,99821.91,-194,+68,-61
147996,8.758,-4.335,2.064,-0.343856,-0.184104,0.537129,99823.90,-194,+66,-61
148005,8.591,-4.419,1.851,-0.364608,-0.179847,0.563735,99823.84,-194,+65,-62
148016,8.498,-4.183,1.768,-0.377379,-0.175590,0.589276,99823.27,-194,+63,-61
148026,8.521,-4.021,1.671,-0.359287,-0.184104,0.624395,99823.77,-194,+63,-61
148036,8.591,-4.089,1.253,-0.299691,-0.202728,0.662175,99823.30,-194,+62,-62
148046,8.553,-4.449,1.031,-0.259250,-0.223480,0.685056,99823.77,-194,+60,-63
148056,8.494,-4.756,1.319,-0.254993,-0.225076,0.702615,99823.77,-194,+58,-64
148066,8.550,-4.856,1.242,-0.289048,-0.218159,0.727625,99823.34,-194,+58,-64
148076,8.539,-4.656,1.574,-0.329489,-0.208049,0.748909,99821.00,-194,+56,-64
148085,8.443,-4.354,1.878,-0.315122,-0.211774,0.776047,99821.00,-194,+54,-64
148096,8.414,-4.414,1.614,-0.267764,-0.242636,0.817551,99824.67,-194,+51,-65
148106,8.352,-4.720,1.383,-0.237966,-0.272966,0.860652,99823.78,-194,+51,-65
148116,8.469,-4.881,1.244,-0.232645,-0.301700,0.905349,99824.45,-194,+48,-65
148126,8.535,-5.048,0.933,-0.247012,-0.338416,0.935680,99823.16,-193,+47,-67
148136,8.920,-4.896,1.156,-0.286920,-0.365021,0.980377,99825.97,-193,+43,-67
148146,9.048,-5.228,1.404,-0.293837,-0.382581,1.020817,99822.11,-193,+43,-67
148156,9.149,-5.432,0.982,-0.291709,-0.395352,1.066579,99820.84,-193,+40,-68
148166,9.448,-5.657,1.188,-0.321507,-0.407590,1.109147,99825.08,-193,+36,-70
148175,9.744,-5.523,1.444,-0.371525,-0.441645,1.157037,99825.08,-191,+33,-70
148186,10.176,-5.030,1.699,-0.415691,-0.507095,1.220890,99825.08,-191,+33,-70
148196,10.420,-4.770,1.537,-0.414094,-0.597553,1.316670,99826.36,-191,+30,-72
148206,10.686,-4.656,1.042,-0.386425,-0.702379,1.426285,99822.22,-189,+26,-74
148211,11.009,-4.839,0.960,-0.373654,-0.788049,1.510358,99825.20,-189,+26,-74
148220,11.212,-5.231,0.918,-0.365672,-0.869993,1.589110,99824.00,-187,+22,-77
148231,11.353,-5.892,1.015,-0.401324,-0.954599,1.688615,99824.00,-185,+17,-78
148241,11.215,-6.175,1.119,-0.487525,-1.015260,1.774817,99823.15,-184,+11,-82
148251,11.064,-6.483,1.444,-0.599801,-1.059425,1.862615,99820.21,-184,+11,-82
148260,11.054,-6.586,1.930,-0.724846,-1.090819,1.933385,99824.93,-180,+7,-84
148271,11.463,-6.684,2.354,-0.832865,-1.127535,1.990853,99822.41,-178,+3,-87
148281,12.722,-6.800,2.276,-0.925452,-1.175424,2.045128,99822.41,-173,-1,-91
148291,14.823,-7.220,2.916,-1.014314,-1.263223,2.071202,99822.57,-173,-1,-91
148301,15.696,-7.942,4.465,-1.123397,-1.305259,2.110046,99824.24,-170,-5,-94
148311,16.407,-8.177,3.833,-1.382002,-1.182874,2.189330,99822.68,-167,-9,-98
148321,18.209,-6.351,3.778,-1.810350,-1.060489,2.231899,99823.15,-163,-13,-102
148331,18.788,-4.559,3.614,-2.174845,-0.999296,2.292027,99823.15,-163,-13,-102
148341,18.539,-4.132,3.643,-2.352570,-0.983865,2.376101,99824.70,-159,-15,-105
148350,18.113,-3.922,3.891,-2.549983,-0.982269,2.462302,99820.42,-155,-17,-109
148361,17.226,-3.248,3.611,-2.824552,-0.988654,2.568724,99822.45,-150,-19,-112
148371,14.968,-4.256,2.567,-3.089010,-1.034948,2.681000,99820.89,-150,-19,-112
148381,13.641,-5.061,3.386,-2.977799,-1.171168,2.752302,99820.89,-146,-19,-117
148390,13.200,-5.701,4.165,-2.529763,-1.211608,2.655458,99823.05,-141,-21,-121
148401,12.173,-7.530,1.995,-2.338203,-1.202562,2.411752,99822.54,-136,-22,-125
148411,11.455,-8.954,0.604,-2.469102,-1.231828,2.139844,99822.16,-136,-22,-125
148421,10.460,-8.434,0.347,-2.473359,-1.323351,2.099936,99820.60,-133,-22,-129
148430,8.318,-7.352,0.709,-2.232846,-1.258434,2.201036,99820.60,-128,-21,-134
148441,6.511,-6.384,2.312,-1.751818,-1.106782,2.121220,99824.11,-123,-22,-136
148447,5.084,-4.815,3.797,-1.305910,-0.977480,1.843459,99821.06,-123,-22,-136
148456,4.540,-2.949,3.831,-0.946204,-0.764104,1.478431,99821.06,-121,-23,-138
148466,3.967,-3.216,1.114,-1.007929,-0.354379,1.069771,99821.75,-120,-23,-140
148476,2.845,-4.305,0.958,-1.330387,-0.011168,0.887790,99818.98,-120,-23,-140
148486,3.442,-2.336,2.128,-1.323470,0.270850,0.433368,99818.98,-120,-21,-139
148496,3.627,0.301,2.669,-1.297929,0.582666,-0.100338,99822.43,-121,-17,-138
148506,3.782,1.943,2.577,-1.180864,0.797106,-0.424925,99820.10,-125,-13,-136
148516,3.492,2.307,1.970,-0.880755,0.868409,-0.641494,99818.01,-125,-13,-136
148526,3.067,1.940,1.398,-0.480608,0.893418,-0.873494,99818.01,-128,-9,-135
148536,2.598,1.393,0.849,-0.055452,0.929602,-1.145402,99818.01,-130,-5,-132
148546,2.249,1.086,0.671,0.357465,0.989198,-1.435934,99819.63,-134,-1,-129
148556,2.197,0.913,0.653,0.760804,1.101473,-1.740833,99819.20,-134,-1,-129
148566,2.658,0.744,0.417,1.125299,1.249932,-2.044135,99819.16,-138,+1,-125
148576,3.271,0.515,0.460,1.457868,1.371253,-2.307529,99822.34,-142,+5,-122
148586,3.963,0.039,0.557,1.819170,1.463308,-2.539529,99822.34,-147,+8,-117
148596,4.403,-0.687,1.021,2.163445,1.539932,-2.763016,99820.88,-147,+8,-117
148606,4.805,-1.447,1.501,2.428968,1.642097,-2.998740,99817.55,-152,+13,-111
148616,5.066,-1.944,1.910,2.589665,1.779381,-3.222758,99817.74,-156,+17,-106
148626,5.468,-2.262,2.262,2.659904,1.934225,-3.430281,99817.74,-160,+24,-99
148636,6.061,-2.754,2.645,2.669482,2.092794,-3.620776,99819.34,-160,+24,-99
148646,6.423,-3.563,2.790,2.628509,2.264133,-3.791584,99819.34,-164,+32,-93
148656,6.852,-4.317,2.700,2.544436,2.449839,-3.932060,99820.07,-168,+40,-87
148666,7.448,-5.078,2.485,2.425243,2.647784,-4.042739,99817.98,-171,+51,-82
148676,8.230,-5.567,2.199,2.310840,2.825509,-4.167785,99818.13,-171,+51,-82
148681,8.955,-5.828,1.996,2.226234,2.956940,-4.282188,99818.13,-173,+62,-75
148691,9.791,-6.107,1.826,2.112363,3.089435,-4.401913,99819.79,-174,+62,-75
148701,10.947,-6.524,1.747,1.905904,3.263967,-4.553032,99820.05,-174,+76,-69
148711,11.993,-6.913,1.968,1.669116,3.421472,-4.683399,99817.29,-173,+89,-62
148721,13.074,-7.346,2.381,1.441905,3.578976,-4.813766,99819.32,-173,+101,-55
148731,14.383,-7.863,2.883,1.243428,3.738077,-4.922849,99819.32,-170,+116,-48
148741,16.053,-8.355,3.076,1.088584,3.883343,-4.987234,99820.61,-170,+116,-48
148751,17.980,-9.169,2.750,0.991208,3.994022,-4.988830,99822.08,-168,+130,-40
148761,19.499,-10.555,1.831,0.947575,4.055214,-4.916463,99819.05,-163,+143,-30
148771,20.287,-12.749,0.524,0.905006,4.051490,-4.751509,99820.34,-159,+156,-22
148781,20.506,-14.873,-0.038,0.872015,4.000939,-4.521106,99820.34,-159,+156,-22
148791,18.679,-16.500,-3.307,0.887446,3.692848,-4.136922,99824.45,-151,+168,-14
148801,15.947,-17.879,-5.239,0.867226,3.175637,-3.545749,99823.77,-145,+177,-8
148811,15.732,-17.361,-5.573,1.179574,2.776023,-3.103034,99822.26,-140,+183,-4
148822,13.305,-17.901,-7.215,1.452547,2.389711,-2.659254,99820.48,-140,+183,-4
148831,9.932,-18.909,-9.756,1.587703,2.023087,-2.226649,99820.48,-136,+189,-1
148841,8.055,-20.563,-12.060,1.542473,1.682537,-1.810539,99827.65,-132,+192,-1
148851,6.703,-20.742,-12.483,1.108804,1.165326,-1.141677,99828.59,-129,+194,+0
148861,6.435,-18.835,-11.902,0.473997,0.463474,-0.183347,99825.71,-129,+194,+0
148871,7.722,-16.220,-10.992,0.023832,-0.278820,0.768065,99823.09,-131,+193,-1
148881,11.039,-14.274,-7.499,0.000951,-0.915223,1.555055,99823.09,-132,+190,-3
148891,11.385,-12.626,-8.782,0.410144,-1.528745,2.027569,99824.23,-136,+185,-9
148901,10.461,-6.041,2.208,0.773043,-2.099699,2.400046,99825.44,-136,+185,-9
148911,21.995,19.815,27.046,2.047977,-1.433498,1.314542,99820.94,-137,+179,-16
148921,29.132,19.005,5.386,0.046181,-0.344801,0.806909,99820.16,-139,+176,-17
148931,14.550,-11.626,-10.468,-1.768846,-1.692635,2.934816,99820.16,-143,+169,-20
148941,10.505,-18.848,-5.155,0.839024,-2.381717,2.963018,99825.09,-143,+169,-20
148952,9.611,-11.925,-3.062,0.999721,-1.933149,2.027037,99823.42,-144,+160,-27
148961,11.382,-3.568,-2.155,-0.385360,-1.266415,2.139844,99822.11,-146,+155,-30
148971,9.107,-3.329,2.367,-0.256058,-1.169039,2.211147,99824.41,-150,+149,-32
148981,6.916,-9.406,1.581,-0.066094,-1.087626,2.080248,99824.41,-150,+149,-32
148992,7.691,-8.751,0.503,-0.503489,-0.993443,1.865275,99825.48,-150,+144,-34
149001,8.723,-3.178,1.830,-0.486461,-0.913094,1.659349,99823.86,-151,+139,-36
149011,9.080,-3.777,2.141,-0.211893,-0.877443,1.610927,99822.19,-153,+135,-38
149021,8.705,-5.268,1.594,-0.212425,-0.923204,1.572083,99823.97,-153,+135,-38
149031,8.669,-4.471,1.630,-0.501892,-0.881700,1.478963,99823.97,-154,+132,-40
149042,8.159,-4.168,1.730,-0.600333,-0.761975,1.371477,99824.32,-154,+127,-41
149051,8.171,-3.584,1.608,-0.526369,-0.656085,1.254945,99824.16,-155,+124,-42
149061,8.494,-2.764,2.026,-0.439636,-0.642250,1.184175,99821.23,-155,+124,-42
149071,8.632,-2.971,2.257,-0.226259,-0.701315,1.133624,99824.01,-156,+122,-44
149082,8.653,-3.564,2.353,-0.010755,-0.746012,1.066579,99824.01,-157,+118,-45
149091,8.542,-4.326,2.199,0.054162,-0.742287,1.004854,99822.34,-156,+116,-46
149101,8.370,-4.882,1.973,-0.004902,-0.703975,0.930358,99821.34,-156,+116,-46
149111,8.134,-4.928,1.461,-0.156553,-0.606067,0.855863,99820.09,-157,+114,-48
149122,8.385,-4.636,1.003,-0.315122,-0.503902,0.781900,99822.49,-157,+111,-49
149131,8.734,-4.231,1.316,-0.381636,-0.431535,0.719111,99822.49,-158,+110,-49
149141,8.790,-3.976,1.742,-0.359287,-0.398544,0.673349,99825.23,-158,+110,-49
149151,8.686,-3.870,2.153,-0.284969,-0.397480,0.640536,99824.88,-158,+108,-50
149161,8.522,-3.941,2.268,-0.223067,-0.406526,0.612689,99819.95,-158,+107,-50
149172,8.305,-4.117,2.222,-0.187415,-0.405462,0.592469,99821.27,-158,+106,-52
149181,8.213,-4.504,1.930,-0.206571,-0.383113,0.564799,99821.27,-158,+106,-52
149191,8.334,-4.796,1.563,-0.268828,-0.351186,0.533405,99827.24,-158,+104,-51
149201,8.542,-4.535,1.423,-0.330021,-0.309150,0.509992,99823.63,-158,+103,-53
149212,8.577,-4.155,1.507,-0.340663,-0.276691,0.496157,99824.05,-158,+102,-53
149221,8.536,-3.980,1.714,-0.301287,-0.268177,0.494561,99822.45,-158,+101,-54
149231,8.437,-3.936,1.814,-0.225195,-0.290526,0.506267,99822.45,-158,+101,-54
149241,8.342,-4.116,1.909,-0.132608,-0.328306,0.523827,99822.41,-158,+99,-54
149252,8.279,-4.384,1.908,-0.061838,-0.362361,0.531808,99823.51,-158,+97,-55
149261,8.431,-4.832,1.583,-0.019269,-0.402269,0.537129,99823.40,-159,+96,-57
149271,8.498,-5.207,1.138,-0.037893,-0.410783,0.515313,99819.79,-159,+96,-57
149281,8.736,-5.084,0.948,-0.135269,-0.368214,0.501478,99819.79,-159,+95,-58
149292,8.893,-4.766,0.876,-0.240094,-0.309150,0.511588,99826.57,-158,+93,-58
149302,8.705,-4.483,0.748,-0.283727,-0.283608,0.521698,99823.85,-158,+93,-58
149311,8.647,-4.299,1.084,-0.278938,-0.269242,0.536597,99822.80,-158,+93,-58
149321,8.607,-4.412,1.193,-0.239030,-0.273498,0.558946,99823.12,-158,+91,-58
149331,8.487,-4.795,1.284,-0.212425,-0.276159,0.573313,99823.12,-158,+90,-60
149342,8.343,-5.098,1.180,-0.226259,-0.273498,0.582891,99825.50,-159,+88,-60
149351,8.246,-5.148,1.079,-0.272021,-0.260728,0.585019,99823.58,-159,+88,-60
149361,8.292,-5.001,1.015,-0.319911,-0.245297,0.593001,99820.75,-159,+87,-61
149371,8.553,-4.716,1.023,-0.343856,-0.244764,0.613221,99823.20,-159,+86,-62
149382,8.643,-4.378,1.068,-0.332681,-0.266581,0.649404,99823.20,-159,+85,-61
149391,8.714,-4.211,1.095,-0.286920,-0.302232,0.701019,99822.24,-159,+85,-61
149401,8.662,-4.123,1.031,-0.240094,-0.343205,0.771790,99824.43,-159,+82,-62
149411,8.703,-4.307,0.919,-0.201250,-0.376728,0.839368,99824.02,-158,+81,-63
149422,8.716,-4.776,0.944,-0.183159,-0.409719,0.897368,99824.02,-158,+78,-64
149431,8.788,-5.341,1.189,-0.198590,-0.432599,0.943661,99824.02,-158,+78,-64
149441,8.991,-5.866,1.143,-0.259250,-0.460801,0.984634,99823.30,-159,+76,-65
149451,9.077,-5.673,1.266,-0.353966,-0.500177,1.034120,99823.25,-158,+72,-66
149462,9.177,-5.248,1.311,-0.426333,-0.544342,1.089459,99824.03,-157,+71,-67
149472,9.435,-5.125,0.964,-0.430590,-0.625755,1.151716,99824.34,-157,+71,-67
149481,9.883,-5.113,0.928,-0.406645,-0.732177,1.212909,99824.34,-157,+68,-68
149491,10.234,-5.407,1.017,-0.373122,-0.831682,1.283147,99823.01,-156,+64,-70
149501,10.463,-5.850,0.815,-0.363544,-0.912562,1.354450,99825.79,-156,+61,-72
149512,10.605,-6.135,0.770,-0.396003,-0.979608,1.425220,99821.54,-156,+61,-72
149521,10.734,-6.311,0.983,-0.454535,-1.039737,1.484817,99820.51,-155,+57,-75
149531,10.715,-6.585,1.543,-0.510938,-1.110507,1.552927,99820.51,-153,+53,-77
149541,10.578,-7.080,2.068,-0.615232,-1.155736,1.626358,99824.13,-151,+50,-78
149552,10.835,-7.521,2.090,-0.762094,-1.174360,1.700853,99825.38,-151,+50,-78
149562,11.831,-7.583,1.632,-0.916938,-1.194580,1.754064,99822.66,-149,+46,-82
149571,13.535,-7.483,1.106,-1.045176,-1.250984,1.760450,99822.15,-148,+42,-84
149581,14.702,-7.372,2.385,-1.096259,-1.347296,1.782798,99822.15,-145,+38,-88
149592,15.355,-7.381,2.750,-1.149470,-1.358470,1.875917,99824.87,-145,+38,-88
149602,17.208,-7.099,2.652,-1.291543,-1.350489,1.969037,99823.93,-143,+35,-90
149611,18.646,-6.017,3.411,-1.493213,-1.346232,2.064816,99822.93,-140,+31,-94
149622,18.356,-5.198,3.941,-1.681934,-1.299938,2.216290,99820.73,-137,+28,-97
149632,17.906,-5.000,3.863,-1.847066,-1.261626,2.352688,99820.73,-137,+28,-97
149642,17.366,-4.748,3.761,-2.109396,-1.217461,2.495293,99824.34,-134,+24,-101
149651,16.617,-3.882,3.742,-2.448882,-1.192452,2.633110,99823.03,-132,+21,-103
149661,14.864,-3.430,2.887,-2.753249,-1.188727,2.737935,99821.89,-128,+19,-107
149671,12.227,-4.767,2.347,-2.782515,-1.228635,2.738999,99820.84,-125,+19,-107
149682,11.173,-6.921,2.552,-2.544662,-1.231828,2.582559,99820.84,-125,+17,-111
149692,10.447,-8.415,1.301,-2.439304,-1.177553,2.321293,99822.69,-122,+15,-116
149701,10.228,-9.112,1.059,-2.565946,-1.053571,1.975422,99821.33,-118,+15,-119
149711,10.185,-9.150,1.734,-2.630332,-1.031755,1.806211,99822.69,-115,+15,-122
149722,8.729,-7.826,1.138,-2.393543,-1.025370,1.939771,99820.59,-115,+15,-122
149732,6.763,-7.274,1.826,-1.850791,-0.951406,2.030761,99820.59,-112,+16,-126
149741,4.923,-5.769,2.723,-1.188846,-0.813058,1.766835,99822.14,-109,+13,-129
149751,4.884,-2.410,3.143,-0.764755,-0.591168,1.263991,99819.73,-107,+12,-131
149762,4.406,-1.406,0.304,-0.805195,-0.369810,0.793074,99820.00,-107,+12,-131
149772,3.234,-3.307,0.435,-0.979727,-0.120783,0.763808,99817.75,-107,+13,-132
149781,3.559,-0.940,1.781,-0.815305,0.095254,0.392395,99817.75,-106,+14,-133
149791,3.770,2.139,2.467,-0.617360,0.314483,-0.170045,99822.77,-106,+15,-133
149801,3.921,3.481,2.583,-0.323636,0.450703,-0.452595,99821.46,-106,+15,-133
149812,3.347,2.568,2.021,0.090878,0.460281,-0.639897,99819.84,-107,+17,-134
149822,2.881,0.900,1.039,0.521355,0.424630,-0.847420,99818.23,-109,+18,-133
149831,2.267,-0.451,-0.283,0.880529,0.414519,-1.062925,99818.23,-109,+17,-133
149841,1.623,-1.498,-0.645,1.227996,0.500721,-1.320998,99822.01,-109,+17,-133
149852,1.659,-1.827,-0.288,1.516400,0.674189,-1.633879,99820.90,-110,+18,-133
149857,1.899,-1.765,0.090,1.660070,0.818923,-1.872796,99818.82,-113,+18,-132
149866,2.361,-1.704,0.375,1.756382,0.959932,-2.082979,99818.82,-113,+18,-132
149876,2.861,-1.736,0.511,1.837262,1.120629,-2.323493,99818.02,-116,+18,-130
149886,3.275,-2.094,0.617,1.902180,1.264299,-2.520373,99818.02,-119,+19,-128
149897,3.508,-2.695,0.767,1.994767,1.410097,-2.715658,99820.71,-119,+19,-128
149907,3.996,-3.376,0.870,2.071923,1.569198,-2.927969,99818.51,-123,+20,-125
149917,4.743,-3.931,0.859,2.036803,1.734152,-3.134960,99817.93,-128,+21,-122
149926,5.314,-4.076,0.790,1.912822,1.886867,-3.304171,99817.93,-134,+26,-119
149937,5.980,-4.420,0.347,1.817574,2.014041,-3.440391,99817.93,-139,+26,-119
149947,6.651,-5.237,-0.107,1.789904,2.122592,-3.563841,99822.80,-139,+30,-115
149956,7.424,-6.408,-0.538,1.776602,2.215711,-3.685162,99819.09,-144,+34,-111
149966,8.134,-7.025,-1.083,1.731904,2.269986,-3.776152,99817.26,-148,+40,-106
149977,8.868,-7.117,-1.211,1.703171,2.308830,-3.828831,99817.62,-153,+46,-101
149987,9.590,-6.844,-0.929,1.759574,2.306702,-3.854905,99817.62,-153,+46,-101
149997,10.204,-6.622,-0.624,1.906436,2.251894,-3.861290,99820.70,-157,+53,-96
150006,10.818,-6.800,-0.335,2.129922,2.163564,-3.841602,99819.54,-161,+60,-92
150017,11.254,-7.386,-0.206,2.402363,2.065124,-3.806483,99820.30,-163,+65,-88
150027,11.543,-8.052,-0.318,2.652986,1.990629,-3.782006,99820.30,-163,+65,-88
150037,11.519,-8.688,-0.487,2.807298,1.950188,-3.764978,99820.91,-166,+71,-85
150047,11.591,-8.900,-0.483,2.843482,1.939546,-3.761786,99820.28,-168,+77,-82
150056,12.145,-8.956,-0.510,2.763133,1.946463,-3.781473,99820.28,-170,+84,-78
150067,12.872,-9.158,-0.566,2.592858,1.924115,-3.799033,99819.34,-170,+84,-78
150077,13.376,-9.405,-0.726,2.377886,1.854408,-3.803822,99819.75,-172,+91,-75
150086,13.902,-9.586,-1.054,2.154399,1.730427,-3.790519,99819.75,-173,+99,-73
150096,14.437,-10.042,-1.260,2.014987,1.546317,-3.735180,99821.18,-173,+108,-70
150107,14.304,-10.481,-1.208,2.038399,1.322831,-3.608538,99824.99,-173,+108,-70
150117,13.775,-10.623,-0.697,2.183133,1.121693,-3.453162,99818.98,-171,+116,-69
150127,13.128,-10.757,-0.023,2.380014,0.960464,-3.258410,99824.01,-171,+122,-69
150136,12.362,-10.989,0.410,2.569445,0.833822,-3.027474,99822.35,-169,+128,-69
150147,11.437,-11.751,0.062,2.659904,0.744960,-2.782703,99822.10,-169,+128,-69
150157,9.924,-13.316,-0.203,2.598711,0.725272,-2.483658,99820.79,-168,+131,-70
150167,8.376,-14.554,-1.097,2.299133,0.753473,-2.144704,99820.79,-167,+135,-71
150176,7.051,-15.345,-2.356,1.758510,0.777418,-1.753071,99823.24,-166,+137,-70
150187,6.515,-15.279,-2.741,1.084327,0.812005,-1.340686,99823.24,-166,+137,-70
150197,6.699,-14.573,-2.632,0.428236,0.764648,-0.905420,99825.23,-167,+141,-70
150207,7.294,-12.309,-2.519,-0.023880,0.571669,-0.410913,99823.98,-168,+143,-69
150216,8.036,-9.883,-2.374,-0.046939,0.291602,0.002359,99823.98,-168,+143,-68
150226,8.639,-8.244,-2.718,0.298401,-0.152709,0.484450,99825.38,-168,+143,-68
150237,8.850,-8.133,-3.685,0.776767,-0.657150,0.994212,99825.38,-168,+141,-70
150247,9.698,-7.059,-3.191,1.284400,-1.053571,1.377331,99824.29,-169,+135,-74
150257,6.809,-9.641,-4.925,1.548327,-1.305259,1.789716,99824.66,-170,+127,-78
150267,9.428,-5.784,0.574,1.779794,-1.425516,1.932853,99819.05,-170,+127,-78
150277,13.099,8.541,12.868,2.055427,-1.183938,1.279954,99819.05,-169,+120,-85
150287,20.025,19.555,15.976,1.790969,-0.388434,0.508395,99819.05,-169,+114,-88
150297,18.854,-3.342,-0.889,0.052566,-0.388434,1.468321,99824.47,-171,+111,-88
150306,13.759,-16.399,-5.863,0.051502,-1.343571,2.325550,99823.33,-171,+111,-88
150317,11.760,-12.307,0.689,1.331226,-1.492562,1.894009,99825.05,-169,+103,-94
150327,12.696,-4.680,-2.129,0.588933,-0.889682,1.846651,99822.44,-170,+96,-97
150337,10.485,-2.990,-3.729,-0.108131,-0.650232,2.081312,99822.44,-170,+89,-98
150347,8.145,-5.192,-0.512,0.364914,-0.501241,1.992450,99823.82,-170,+89,-98
150356,8.450,-6.594,0.106,0.535190,-0.259664,1.757789,99821.93,-170,+84,-99
150367,9.447,-4.240,1.571,0.460162,-0.253810,1.672652,99820.91,-171,+77,-100
150377,9.102,-3.381,2.896,0.439942,-0.246361,1.564633,99820.91,-172,+72,-100
150387,7.736,-5.006,3.070,0.254236,-0.300636,1.449165,99823.92,-172,+72,-100
150396,7.411,-4.851,2.647,-0.177838,-0.255407,1.257074,99822.41,-171,+68,-100
150407,8.190,-4.667,1.555,-0.534351,-0.156966,1.074028,99822.41,-172,+64,-101
150417,8.949,-3.845,1.009,-0.570535,-0.138343,0.922909,99819.27,-171,+63,-101
150427,9.549,-1.843,1.107,-0.459856,-0.096838,0.833514,99822.61,-171,+63,-101
150436,9.846,-0.746,1.078,-0.247012,-0.121315,0.830854,99822.61,-171,+61,-102
150447,9.843,-0.845,0.901,0.105245,-0.172398,0.843092,99820.53,-173,+59,-101
150457,9.970,-1.481,1.001,0.367575,-0.218691,0.863845,99823.94,-172,+56,-103
150467,9.488,-2.931,1.331,0.443667,-0.243700,0.859056,99823.52,-171,+53,-104
150477,8.959,-3.930,1.498,0.306914,-0.207517,0.813826,99823.89,-171,+53,-104
150487,8.895,-4.022,1.663,0.071190,-0.148453,0.752634,99825.75,-171,+50,-103
150497,8.949,-3.460,1.936,-0.108663,-0.100563,0.701019,99823.19,-171,+49,-103
150507,9.084,-2.889,1.971,-0.131544,-0.086196,0.663239,99820.58,-171,+46,-104
150517,9.161,-2.559,2.099,-0.066094,-0.096306,0.633441,99823.03,-171,+46,-104
150526,9.050,-2.633,1.781,0.002548,-0.113865,0.614817,99823.03,-171,+44,-104
150537,8.910,-3.239,1.600,0.063208,-0.112269,0.591404,99823.03,-171,+43,-103
150547,8.956,-3.372,1.329,0.054694,-0.100031,0.559478,99822.90,-171,+40,-104
150557,8.876,-3.406,1.274,0.024896,-0.073957,0.532872,99822.90,-171,+40,-104
150562,8.869,-3.573,1.367,0.005208,-0.042031,0.515313,99822.85,-170,+40,-104
150572,9.025,-3.519,1.195,-0.021929,-0.021811,0.490836,99821.34,-170,+40,-104
150582,9.094,-3.546,1.165,-0.082058,0.029272,0.456781,99821.34,-171,+38,-104
150592,9.157,-3.525,1.377,-0.138994,0.083015,0.427515,99822.71,-170,+37,-105
150602,9.162,-3.363,1.485,-0.186883,0.118134,0.400377,99822.60,-171,+36,-104
150611,9.044,-3.230,1.442,-0.177838,0.135162,0.370047,99823.29,-171,+36,-104
150622,8.956,-3.246,1.707,-0.121966,0.136758,0.335992,99821.93,-171,+36,-103
150632,8.884,-3.461,1.782,-0.068755,0.134630,0.302469,99821.93,-171,+35,-104
150642,8.487,-3.828,1.971,-0.056516,0.140483,0.274267,99823.93,-172,+34,-103
150651,8.536,-3.922,2.274,-0.082590,0.133566,0.254047,99825.18,-172,+34,-103
150662,9.039,-3.584,2.122,-0.145911,0.106960,0.243937,99824.04,-171,+34,-101
150672,9.107,-3.350,2.084,-0.180498,0.093657,0.241808,99820.59,-171,+33,-102
150677,9.104,-3.223,1.920,-0.156553,0.085676,0.237552,99820.59,-171,+33,-102
150687,8.948,-3.117,1.517,-0.117177,0.072373,0.235955,99820.59,-172,+32,-103
150697,8.875,-3.319,1.068,-0.037893,0.068116,0.229038,99823.87,-172,+33,-101
150707,8.979,-3.641,0.812,0.020639,0.084611,0.205625,99822.09,-172,+31,-101
150717,9.008,-3.861,1.049,0.037667,0.104832,0.173698,99820.62,-172,+31,-101
150727,8.965,-4.094,1.855,0.012126,0.110685,0.150286,99821.81,-172,+32,-102
150737,9.112,-3.746,2.370,-0.048535,0.086740,0.134854,99823.48,-172,+30,-101
150747,9.064,-3.179,2.372,-0.046939,0.064923,0.147625,99823.91,-173,+30,-101
150757,8.776,-3.339,1.957,0.025961,0.047364,0.162524,99823.91,-173,+30,-101
150767,8.543,-3.865,1.441,0.102584,0.037786,0.144964,99822.86,-172,+30,-101
150777,8.573,-4.036,1.817,0.128658,0.058006,0.088561,99822.44,-173,+29,-100
150787,8.542,-4.218,1.690,0.090878,0.084611,0.030029,99822.44,-173,+28,-100
150797,8.749,-3.949,1.440,0.025961,0.106428,-0.012008,99824.33,-173,+28,-100
150807,8.943,-3.769,1.618,0.008933,0.137822,-0.040210,99821.41,-172,+28,-99
150817,9.002,-3.713,1.618,0.031814,0.150061,-0.059898,99822.81,-173,+29,-100
150828,8.868,-4.125,1.692,0.069594,0.141015,-0.080118,99825.06,-174,+29,-99
150837,8.835,-4.477,1.982,0.010529,0.137290,-0.114705,99824.02,-174,+29,-99
150847,8.829,-4.359,2.141,-0.157085,0.155914,-0.147164,99822.35,-173,+29,-99
150857,8.877,-3.989,2.132,-0.299691,0.184648,-0.159934,99821.37,-174,+30,-98
150867,8.948,-3.520,2.239,-0.361947,0.196354,-0.162595,99823.20,-175,+32,-98
150877,8.944,-3.148,2.191,-0.377911,0.193162,-0.153549,99823.20,-175,+32,-98
150887,8.862,-3.195,2.128,-0.348645,0.180391,-0.139714,99823.20,-175,+33,-98
150897,8.852,-3.205,2.206,-0.311397,0.172410,-0.125879,99825.37,-175,+34,-98
150907,8.878,-3.458,2.037,-0.300223,0.164428,-0.111512,99824.48,-176,+35,-96
150913,8.917,-3.621,1.977,-0.302351,0.160171,-0.104063,99822.07,-176,+35,-96
150922,8.916,-3.728,2.043,-0.328957,0.163364,-0.097146,99821.80,-175,+35,-96
150932,8.926,-3.479,2.017,-0.388553,0.168685,-0.088100,99821.80,-176,+36,-95
150942,9.054,-3.063,1.891,-0.404516,0.166024,-0.071604,99822.56,-176,+36,-95
150952,9.241,-2.651,2.081,-0.336406,0.143676,-0.038081,99823.77,-176,+37,-96
150962,9.278,-2.766,2.106,-0.237966,0.103767,0.000763,99821.78,-176,+38,-95
150972,9.199,-3.229,2.352,-0.169856,0.059070,0.038010,99821.78,-176,+38,-95
150982,8.953,-3.338,2.697,-0.186351,0.029804,0.060891,99821.78,-176,+38,-95
150992,8.890,-3.410,2.704,-0.243819,0.001602,0.085368,99824.56,-177,+38,-95
151002,8.954,-3.305,2.996,-0.270425,-0.038306,0.113038,99823.52,-177,+38,-95
151012,8.928,-3.078,2.816,-0.262443,-0.088324,0.145497,99824.88,-176,+38,-95
151022,8.906,-3.017,2.327,-0.206571,-0.147388,0.177955,99821.17,-176,+38,-95
151032,9.040,-3.124,1.877,-0.120902,-0.197939,0.202964,99821.17,-176,+39,-96
151043,9.131,-3.546,1.632,-0.056516,-0.228269,0.212010,99823.49,-175,+38,-96
151052,9.065,-3.706,1.645,-0.043214,-0.240508,0.211478,99824.65,-175,+37,-98
151062,9.002,-3.712,1.908,-0.057581,-0.250618,0.210414,99822.66,-175,+37,-98
151072,8.965,-3.500,2.173,-0.067691,-0.270838,0.215735,99821.87,-175,+36,-98
151083,9.011,-3.258,2.305,-0.051195,-0.300104,0.232763,99821.87,-175,+36,-98
151092,8.999,-3.202,2.167,0.010529,-0.346397,0.255111,99826.73,-173,+35,-99
151102,9.008,-3.369,2.054,0.084493,-0.387902,0.275331,99823.85,-173,+35,-99
151112,8.935,-3.712,1.824,0.121208,-0.426746,0.288634,99821.55,-174,+34,-101
151122,8.789,-3.830,1.665,0.122805,-0.442709,0.292891,99824.01,-172,+33,-101
151132,8.803,-3.821,1.590,0.108970,-0.443774,0.293423,99824.01,-171,+32,-103
151142,8.861,-3.925,1.666,0.087153,-0.452819,0.295552,99825.06,-171,+32,-103
151148,8.898,-4.073,1.628,0.060548,-0.461333,0.293955,99822.81,-170,+31,-104
151157,8.852,-3.986,1.564,0.027557,-0.466654,0.297148,99822.81,-169,+30,-105
151168,8.864,-3.855,1.637,-0.012351,-0.463462,0.299276,99820.63,-169,+30,-105
151178,8.828,-3.764,1.742,-0.025122,-0.478893,0.308854,99823.08,-168,+28,-107
151187,8.831,-3.628,1.476,-0.005966,-0.500709,0.320561,99823.08,-168,+28,-107
151197,8.872,-3.746,1.247,0.036603,-0.521994,0.328010,99824.86,-166,+27,-109
151207,8.840,-3.975,1.197,0.078639,-0.541150,0.330139,99819.92,-166,+27,-109
151218,8.838,-4.185,1.156,0.092474,-0.547535,0.328010,99822.28,-165,+26,-111
151227,8.874,-4.422,1.326,0.075447,-0.550728,0.316836,99822.28,-165,+24,-111
151237,8.846,-4.519,1.466,0.040860,-0.552324,0.296084,99822.28,-164,+24,-113
151247,8.813,-4.410,1.466,-0.011287,-0.550728,0.281185,99824.73,-164,+24,-113
151258,8.853,-4.046,1.167,-0.036296,-0.562434,0.277460,99824.16,-161,+23,-114
151268,8.980,-3.691,0.888,-0.028492,-0.579816,0.287570,99821.28,-161,+24,-115
151277,9.021,-3.651,0.768,0.009997,-0.599682,0.303001,99821.28,-160,+22,-117
151287,8.895,-3.904,0.730,0.062676,-0.623094,0.315240,99821.28,-160,+22,-117
151298,8.718,-4.347,0.949,0.071722,-0.638526,0.323221,99823.49,-158,+21,-118
151308,8.713,-4.712,1.145,0.019575,-0.645975,0.324285,99821.38,-157,+20,-120
151317,8.799,-4.649,1.009,-0.054388,-0.647572,0.321093,99822.20,-155,+19,-122
151327,8.785,-4.262,0.842,-0.100149,-0.655553,0.316304,99822.20,-155,+19,-122
151337,8.760,-4.078,1.018,-0.087379,-0.682159,0.312579,99824.05,-153,+18,-123
151347,8.871,-4.127,0.839,-0.036296,-0.723131,0.316836,99824.05,-152,+17,-125
151357,8.753,-4.416,0.677,-0.009691,-0.759847,0.320561,99822.90,-150,+17,-127
151367,8.736,-4.647,0.559,-0.018205,-0.768893,0.317900,99823.68,-150,+17,-127
151377,8.908,-4.710,0.518,-0.042150,-0.776874,0.308854,99820.60,-148,+15,-128
151387,8.949,-4.836,0.312,-0.053856,-0.781131,0.287570,99820.60,-147,+15,-131
151398,8.833,-4.955,-0.004,-0.086847,-0.781663,0.267350,99826.79,-145,+15,-132
151407,8.795,-4.802,0.077,-0.144315,-0.771021,0.246597,99822.71,-145,+15,-132
151417,8.967,-4.598,0.184,-0.182627,-0.763572,0.229038,99824.27,-143,+15,-133
151428,9.068,-4.395,0.049,-0.197526,-0.779003,0.229038,99822.90,-142,+14,-135
151438,9.057,-4.264,-0.118,-0.183159,-0.810397,0.236487,99824.41,-139,+14,-137
151447,9.099,-4.238,-0.206,-0.151764,-0.857755,0.247662,99827.34,-137,+14,-140
151457,9.050,-4.388,-0.381,-0.132076,-0.905113,0.265221,99822.68,-137,+14,-140
151468,8.950,-4.396,-0.238,-0.126755,-0.947149,0.277992,99822.68,-135,+13,-141
151478,8.803,-4.439,-0.181,-0.122498,-0.983333,0.296616,99823.01,-132,+13,-143
151487,8.817,-4.479,-0.248,-0.118773,-1.018984,0.312579,99823.01,-130,+13,-146
151497,8.766,-4.511,-0.367,-0.096957,-1.057296,0.317900,99823.41,-130,+13,-146
151507,8.612,-4.650,-0.349,-0.074608,-1.095608,0.325350,99821.78,-126,+13,-148
151518,8.457,-4.917,-0.317,-0.062370,-1.122746,0.324285,99825.39,-124,+11,-150
151527,8.358,-5.092,-0.343,-0.076205,-1.141902,0.319496,99822.47,-121,+11,-153
151537,8.555,-5.239,-0.380,-0.106003,-1.156801,0.307790,99822.47,-121,+11,-153
151547,8.859,-5.345,-0.317,-0.128883,-1.167443,0.299808,99823.96,-117,+10,-155
151558,9.088,-5.422,-0.550,-0.140058,-1.176489,0.284909,99821.74,-114,+11,-157
151568,9.288,-5.643,-1.030,-0.151764,-1.174360,0.257240,99822.21,-110,+11,-159
151577,9.513,-5.667,-1.309,-0.194333,-1.166911,0.224781,99822.21,-110,+11,-159
151587,9.992,-5.520,-1.380,-0.249672,-1.173296,0.191790,99822.21,-108,+10,-162
151598,10.714,-5.492,-1.019,-0.276810,-1.195113,0.160396,99826.07,-104,+11,-165
151608,10.928,-5.416,-0.868,-0.268296,-1.222250,0.154010,99823.26,-100,+11,-166
151617,10.873,-5.237,-1.058,-0.278938,-1.243002,0.175295,99822.15,-100,+11,-166
151627,11.273,-5.098,-1.139,-0.332681,-1.288232,0.196579,99819.85,-97,+11,-167
151638,11.956,-4.893,-1.000,-0.401324,-1.353681,0.230102,99819.85,-92,+12,-171
151648,12.690,-4.660,-0.625,-0.458791,-1.438287,0.271607,99824.98,-88,+13,-174
151658,13.319,-4.469,-0.427,-0.497103,-1.556415,0.331735,99823.73,-88,+13,-174
151667,14.077,-4.388,-0.423,-0.521048,-1.705938,0.403038,99822.56,-84,+14,-177
151677,14.866,-4.474,-0.109,-0.556168,-1.882066,0.477533,99822.56,-78,+15,-179
151688,15.521,-4.465,0.441,-0.671103,-2.074690,0.545643,99821.99,-71,+17,-182
151697,15.870,-4.638,1.848,-0.798810,-2.254011,0.597258,99821.99,-71,+17,-182
151707,16.026,-4.722,2.838,-0.893525,-2.393424,0.694634,99823.04,-64,+17,-186
151717,15.628,-4.757,2.984,-0.987709,-2.501442,0.822340,99822.62,-57,+19,-189
151728,14.671,-4.882,2.499,-1.066993,-2.604671,0.953239,99822.21,-46,+22,-192
151737,13.563,-5.469,2.039,-1.130846,-2.723864,1.044762,99822.21,-46,+22,-192
151747,12.700,-7.135,1.691,-1.066461,-2.889350,1.122982,99821.30,-37,+24,-196
151757,13.783,-8.031,1.003,-0.733892,-3.137845,1.171404,99823.03,-26,+25,-198
151768,14.400,-6.478,2.291,-0.246480,-3.341111,1.153844,99821.45,-16,+25,-201
151778,14.019,-5.107,3.339,0.231887,-3.414542,1.098505,99821.42,-16,+25,-201
151788,13.151,-4.910,3.266,0.707061,-3.546505,1.045826,99823.88,-3,+22,-203
151797,12.333,-4.869,2.645,1.261519,-3.824267,1.022946,99819.02,+8,+18,-203
151808,12.323,-3.936,2.258,1.994235,-4.197808,1.015496,99820.22,+25,+9,-204
151818,12.086,-1.668,2.504,2.991408,-4.567092,0.980909,99820.22,+25,+9,-204
151827,10.333,-2.458,3.155,4.218985,-4.808138,0.960157,99820.53,+39,-1,-201
151837,7.709,-6.094,5.616,5.320453,-4.833679,0.990487,99820.53,+57,-19,-196
151847,6.691,-6.933,7.284,5.698250,-4.571881,0.820212,99822.81,+71,-38,-190
151858,5.813,-6.555,7.724,5.330030,-4.097771,0.641423,99820.25,+71,-38,-190
151868,4.922,-6.289,7.425,4.469077,-3.562469,0.441882,99820.41,+84,-55,-181
151877,4.118,-6.038,6.902,3.479885,-3.076120,0.160396,99818.84,+93,-65,-172
151887,3.605,-5.418,6.057,2.638619,-2.660543,-0.195586,99818.84,+100,-74,-166
151898,3.106,-4.736,5.312,1.980932,-2.278488,-0.581365,99822.48,+100,-74,-166
151908,2.427,-4.346,4.766,1.510547,-1.900158,-0.972466,99821.05,+104,-80,-160
151918,2.012,-3.982,4.359,1.154565,-1.525021,-1.361970,99818.33,+105,-84,-156
151927,1.883,-3.562,3.950,0.889042,-1.173828,-1.738704,99818.33,+106,-87,-153
151938,1.862,-3.342,3.591,0.752290,-0.868397,-2.081915,99818.33,+106,-87,-153
151948,1.960,-3.544,3.294,0.738988,-0.615645,-2.381493,99819.82,+104,-91,-148
151957,2.103,-3.769,3.307,0.801244,-0.374599,-2.657126,99819.88,+100,-94,-146
151967,2.529,-3.566,3.851,0.922033,-0.119187,-2.933823,99816.95,+94,-98,-142
151977,2.974,-3.064,4.444,1.081134,0.148997,-3.203602,99817.05,+87,-103,-138
151988,3.563,-2.596,4.894,1.249813,0.427290,-3.430281,99817.05,+87,-103,-138
151998,4.110,-2.627,5.195,1.401996,0.697602,-3.600556,99819.44,+76,-108,-135
152007,4.583,-2.944,5.335,1.554180,0.935987,-3.746886,99819.13,+67,-112,-131
152017,5.151,-3.343,5.274,1.771813,1.135528,-3.872464,99816.06,+55,-117,-126
152028,5.857,-3.944,5.286,2.073519,1.320170,-3.977822,99816.06,+55,-117,-126
152038,6.398,-4.678,5.147,2.414601,1.501620,-4.073070,99818.48,+42,-122,-120
152047,6.734,-5.328,4.932,2.748234,1.694243,-4.159271,99818.48,+27,-127,-113
152057,7.246,-5.805,4.783,2.975445,1.918794,-4.258244,99815.60,+12,-131,-104
152068,7.927,-6.044,4.776,3.068032,2.148665,-4.375308,99817.07,+12,-131,-104
152078,8.774,-6.308,4.795,3.072289,2.391840,-4.492372,99814.93,-4,-135,-95
152088,9.965,-7.040,5.496,2.974735,2.664989,-4.598262,99819.34,-21,-135,-85
152097,11.155,-7.858,5.938,2.719500,2.896811,-4.671161,99819.34,-37,-133,-74
152108,12.299,-8.613,5.357,2.308711,3.176701,-4.732353,99818.56,-37,-133,-74
152118,13.329,-9.610,4.643,1.926657,3.550775,-4.774390,99817.94,-53,-128,-65
152128,14.438,-10.527,3.731,1.565354,3.973802,-4.782904,99819.25,-68,-121,-56
152138,15.726,-11.401,2.837,1.233850,4.348407,-4.710005,99819.78,-81,-114,-48
152147,17.572,-13.233,1.238,1.066767,4.575086,-4.514188,99820.72,-81,-114,-48
152158,17.209,-15.981,-0.734,1.017813,4.520811,-4.278996,99819.09,-94,-107,-38
152168,17.259,-18.288,-4.077,1.008767,4.340425,-4.027308,99819.09,-104,-101,-30
152177,17.895,-20.031,-6.788,0.991740,4.086609,-3.704318,99820.45,-114,-94,-22
152187,16.737,-20.417,-8.562,0.875740,3.777453,-3.369621,99820.45,-114,-94,-22
152198,14.492,-19.262,-8.436,0.618199,3.382628,-3.032263,99825.70,-123,-89,-15
152208,12.414,-17.954,-8.456,0.374492,2.863289,-2.631584,99822.51,-129,-84,-8
152217,9.908,-18.110,-8.659,0.351080,2.283289,-2.133530,99824.02,-135,-79,-3
152227,7.975,-19.334,-8.670,0.527208,1.766610,-1.575346,99822.15,-135,-79,-3
152238,7.034,-19.193,-9.600,0.573501,1.247803,-0.907549,99822.15,-139,-76,+0
152248,7.067,-17.519,-10.657,0.409080,0.808813,-0.131201,99825.77,-139,-77,+2
152258,7.600,-16.212,-11.527,0.198896,0.342153,0.629184,99824.55,-139,-78,+3
152267,8.105,-16.033,-12.006,0.019043,-0.213902,1.327312,99825.17,-139,-78,+3
152278,9.605,-15.763,-10.178,-0.123030,-0.750801,1.876449,99825.17,-136,-82,+2
152288,13.213,-9.619,-5.877,-0.028315,-1.107847,2.097807,99825.17,-132,-86,+0
152298,13.210,-1.174,-2.019,0.044052,-1.614415,2.180816,99824.45,-127,-93,-2
152307,21.604,20.607,19.023,1.030584,-1.424452,1.498652,99824.41,-127,-93,-2
152317,29.421,26.617,9.544,0.421850,-0.687480,0.552028,99818.55,-126,-95,-3
152324,18.439,-2.134,-5.689,-0.830204,-1.213736,1.821110,99820.17,-122,-98,-6
152333,10.823,-15.599,-7.940,0.226566,-2.063516,2.931623,99820.17,-122,-98,-6
152343,9.433,-19.552,-1.395,1.991042,-2.271038,2.420266,99824.72,-116,-105,-8
152352,8.424,-11.626,-1.062,1.555776,-1.858121,1.875385,99824.25,-111,-110,-8
152363,9.704,-1.982,0.812,0.506456,-1.243535,1.899330,99822.00,-106,-114,-9
152373,7.034,-2.707,1.395,0.224437,-1.241938,1.810468,99820.28,-106,-114,-9
152383,6.400,-7.110,1.802,0.121740,-1.150947,1.679037,99820.28,-102,-117,-12
152392,9.051,-8.233,2.225,0.035006,-1.063681,1.585918,99824.52,-98,-121,-13
152402,9.538,-5.811,1.189,0.125465,-1.130727,1.443312,99824.99,-94,-124,-14
152413,8.777,-4.219,0.881,0.083428,-1.023241,1.308156,99822.59,-94,-124,-14
152423,7.997,-4.582,1.364,-0.145379,-0.893406,1.270377,99821.45,-91,-126,-16
152432,8.249,-5.076,0.999,-0.441232,-0.759847,1.185239,99821.45,-87,-128,-19
152442,8.539,-4.960,-0.001,-0.662590,-0.629480,1.101698,99822.80,-85,-129,-20
152453,8.771,-4.080,0.096,-0.653544,-0.515608,1.043698,99823.85,-85,-129,-20
152463,8.862,-2.992,1.446,-0.475819,-0.448563,1.003257,99821.13,-82,-130,-23
152473,8.851,-3.197,2.313,-0.194333,-0.472507,1.002725,99821.80,-79,-131,-24
152482,8.936,-2.997,2.372,0.001483,-0.530507,0.985698,99821.80,-76,-133,-25
152493,8.652,-4.284,2.051,0.081300,-0.559773,0.974524,99826.89,-76,-133,-25
152503,8.208,-5.310,1.838,0.061612,-0.534232,0.908542,99823.39,-75,-135,-25
152513,7.933,-5.216,1.702,-0.130480,-0.458673,0.824469,99821.61,-71,-135,-27
152522,8.123,-4.851,1.629,-0.332681,-0.377260,0.746781,99822.61,-69,-136,-27
152532,8.568,-4.598,1.778,-0.414626,-0.330434,0.679735,99822.61,-69,-136,-27
152543,8.893,-4.084,1.892,-0.402920,-0.327242,0.631845,99824.22,-68,-137,-29
152553,8.834,-3.805,1.857,-0.320975,-0.356508,0.610028,99821.44,-66,-139,-30
152558,8.716,-3.719,1.843,-0.223599,-0.375131,0.606836,99820.14,-66,-139,-30
152567,8.682,-3.877,1.760,-0.156553,-0.375663,0.594597,99820.14,-64,-137,-31
152578,8.643,-4.319,1.493,-0.127287,-0.365021,0.578102,99820.14,-62,-139,-32
152588,8.499,-4.770,1.328,-0.158682,-0.328306,0.558414,99820.14,-61,-139,-32
152598,8.312,-5.066,1.221,-0.257654,-0.271370,0.533405,99824.27,-61,-139,-32
152608,8.524,-4.997,1.622,-0.365140,-0.218691,0.499350,99822.43,-59,-139,-33
152617,8.637,-4.677,1.498,-0.431122,-0.216031,0.464762,99821.91,-58,-140,-35
152628,8.603,-4.656,1.454,-0.435379,-0.201131,0.459441,99821.91,-57,-140,-36
152638,8.482,-4.635,1.253,-0.403452,-0.201664,0.459441,99821.91,-57,-140,-36
152648,8.330,-4.826,1.343,-0.400259,-0.185700,0.460506,99824.65,-55,-141,-37
152657,8.397,-4.952,1.175,-0.422076,-0.175590,0.471148,99823.60,-53,-140,-38
152668,8.607,-4.972,1.102,-0.481672,-0.153774,0.477001,99824.45,-51,-141,-40
152678,8.730,-5.038,1.158,-0.552975,-0.131957,0.481258,99823.60,-51,-141,-40
152688,8.637,-5.213,1.095,-0.640241,-0.111737,0.492964,99823.60,-50,-141,-41
152698,8.610,-5.048,0.994,-0.737085,-0.083003,0.510524,99824.17,-50,-141,-42
152708,8.556,-4.746,1.389,-0.798810,-0.064911,0.526487,99823.02,-48,-141,-45
152718,8.504,-4.426,1.849,-0.776993,-0.080875,0.541386,99822.17,-48,-141,-45
152728,8.445,-4.463,1.823,-0.687067,-0.121847,0.560542,99822.17,-46,-140,-46
152738,8.349,-4.882,1.355,-0.607782,-0.158563,0.573845,99823.88,-44,-140,-48
152748,8.365,-5.306,1.072,-0.599268,-0.161755,0.570652,99824.76,-43,-141,-49
152758,8.431,-5.426,0.995,-0.645030,-0.145792,0.563203,99824.76,-43,-141,-49
152768,8.262,-5.385,1.133,-0.684938,-0.127700,0.552561,99824.04,-41,-141,-51
152778,8.261,-5.109,1.192,-0.707287,-0.127168,0.540854,99820.90,-40,-139,-53
152787,8.062,-5.066,1.328,-0.678021,-0.141003,0.529148,99820.90,-39,-140,-55
152794,8.184,-4.842,1.460,-0.654608,-0.169737,0.549368,99824.66,-39,-140,-55
152803,8.309,-5.018,0.942,-0.602461,-0.201664,0.574377,99825.53,-37,-140,-56
152813,8.337,-4.966,0.705,-0.556700,-0.222948,0.609496,99822.30,-35,-139,-58
152823,8.562,-5.110,0.533,-0.526369,-0.255407,0.648872,99823.50,-35,-139,-58
152833,8.780,-5.339,0.663,-0.526902,-0.294783,0.683992,99823.50,-32,-139,-60
152843,8.901,-5.100,1.071,-0.552975,-0.335755,0.728689,99823.47,-30,-139,-61
152853,9.132,-4.516,1.294,-0.527966,-0.418764,0.808505,99822.58,-28,-139,-62
152863,9.515,-4.226,1.146,-0.450278,-0.537957,0.901092,99822.33,-28,-139,-62
152872,9.769,-4.235,1.371,-0.334278,-0.673113,1.006450,99823.53,-25,-139,-64
152883,10.325,-4.483,1.051,-0.215617,-0.828489,1.136285,99823.53,-20,-139,-64
152893,10.942,-5.022,0.724,-0.135801,-0.970030,1.263459,99825.88,-16,-140,-66
152903,11.186,-5.543,0.481,-0.129416,-1.072727,1.376266,99823.79,-16,-140,-66
152912,11.378,-5.949,0.203,-0.164003,-1.138177,1.476303,99824.52,-10,-142,-67
152923,11.377,-6.174,0.186,-0.242223,-1.188195,1.550798,99826.09,-5,-142,-69
152933,11.492,-6.665,0.216,-0.318847,-1.230232,1.608798,99826.09,+0,-143,-70
152943,11.791,-6.931,0.306,-0.403984,-1.268012,1.653496,99823.33,+0,-143,-70
152953,12.884,-6.912,0.475,-0.502424,-1.303663,1.677973,99824.38,+6,-143,-72
152963,14.468,-7.005,1.734,-0.550314,-1.399975,1.696064,99821.03,+12,-143,-74
152973,14.470,-7.181,3.836,-0.577984,-1.470745,1.753532,99819.72,+19,-141,-77
152983,14.416,-7.122,4.155,-0.707819,-1.427644,1.879642,99819.72,+19,-141,-77
152993,15.473,-6.439,4.202,-0.930241,-1.416470,1.988725,99823.22,+26,-140,-79
153003,16.028,-6.070,4.836,-1.161176,-1.385608,2.102596,99821.70,+33,-139,-82
153013,16.827,-5.680,5.367,-1.501727,-1.291424,2.231367,99825.38,+41,-136,-86
153023,17.976,-4.291,5.552,-1.860368,-1.185535,2.368119,99821.77,+41,-136,-86
153028,18.235,-2.979,4.915,-2.089176,-1.136048,2.485183,99821.77,+50,-131,-91
153038,17.848,-1.624,4.237,-2.206772,-1.145094,2.578302,99821.77,+58,-126,-96
153049,16.548,-1.167,2.741,-2.247745,-1.167975,2.609697,99820.23,+58,-126,-96
153058,13.848,-5.480,0.023,-2.343524,-1.180213,2.659183,99821.80,+67,-122,-101
153068,11.899,-11.397,-2.299,-2.442497,-1.302067,2.756027,99822.02,+76,-114,-107
153078,11.153,-12.899,-1.886,-2.474423,-1.417534,2.720376,99823.92,+85,-108,-111
153089,11.730,-11.572,0.253,-2.356827,-1.303663,2.496357,99822.77,+85,-108,-111
153098,11.031,-9.361,1.643,-2.272754,-1.165314,2.300009,99823.92,+92,-101,-116
153108,9.709,-6.526,2.449,-2.150901,-1.070067,2.124945,99823.92,+100,-94,-120
153118,8.112,-4.879,3.007,-1.985946,-0.970562,2.014798,99819.38,+106,-87,-122
153128,6.683,-3.057,3.405,-1.787470,-0.814654,1.874853,99821.36,+106,-87,-122
153138,6.031,-0.459,3.286,-1.661892,-0.579994,1.540156,99821.36,+110,-80,-125
153148,5.978,-0.859,1.346,-1.637415,-0.335755,1.178854,99820.32,+114,-74,-129
153158,4.294,-3.542,0.470,-1.665616,-0.118122,1.072964,99822.52,+117,-70,-132
153168,3.857,-2.834,1.192,-1.567708,0.125052,0.755294,99822.04,+117,-70,-132
153179,3.623,-0.870,1.891,-1.346351,0.377804,0.254579,99820.90,+118,-65,-135
153188,3.453,0.625,2.127,-1.012186,0.542758,-0.077457,99823.19,+117,-62,-138
153198,3.360,1.556,1.771,-0.579048,0.616189,-0.323292,99820.78,+116,-61,-140
153208,3.021,1.599,1.266,-0.069287,0.635345,-0.564870,99820.89,+116,-61,-140
153219,2.639,0.902,0.955,0.468144,0.665143,-0.800062,99818.73,+113,-61,-141
153228,2.308,0.007,0.685,0.983758,0.722611,-1.048026,99818.73,+111,-65,-141
153238,2.031,-0.681,0.411,1.423281,0.791785,-1.309292,99818.73,+107,-69,-140
153248,1.854,-1.158,0.505,1.783519,0.891822,-1.573750,99820.79,+107,-69,-140
153259,1.946,-1.497,0.893,2.071390,1.028574,-1.850447,99820.10,+103,-75,-140
153264,2.218,-1.660,1.180,2.241133,1.137125,-2.068612,99820.26,+96,-84,-138
153273,2.564,-1.982,1.279,2.365115,1.239822,-2.267089,99818.63,+96,-84,-138
153283,2.990,-2.407,1.345,2.464087,1.350500,-2.492172,99818.63,+89,-91,-135
153293,3.476,-2.837,1.590,2.523684,1.439363,-2.719914,99821.43,+81,-101,-133
153304,4.007,-3.274,2.220,2.568913,1.570262,-3.000869,99819.24,+71,-110,-130
153313,4.753,-3.399,2.610,2.541243,1.721913,-3.290336,99818.51,+71,-110,-130
153323,5.215,-3.302,2.659,2.449720,1.885271,-3.548409,99816.93,+60,-118,-127
153333,5.857,-3.064,2.624,2.291152,2.056078,-3.773492,99816.93,+46,-126,-125
153344,6.494,-3.245,2.663,2.063941,2.244977,-3.965051,99821.36,+31,-133,-121
153353,7.023,-3.830,2.516,1.834069,2.416849,-4.140647,99818.13,+31,-133,-121
153363,7.584,-4.328,2.202,1.649427,2.572225,-4.313583,99819.02,+14,-138,-117
153373,8.214,-4.857,2.145,1.527574,2.731858,-4.475344,99819.33,-4,-143,-114
153383,9.133,-5.506,2.365,1.448822,2.902133,-4.624867,99819.33,-25,-147,-109
153393,10.079,-6.093,2.578,1.380180,3.079857,-4.748317,99820.50,-25,-147,-109
153403,11.070,-6.299,2.742,1.300896,3.271417,-4.843032,99817.88,-48,-146,-104
153413,12.320,-6.307,3.071,1.231189,3.467233,-4.894647,99818.50,-70,-146,-97
153423,13.704,-6.570,3.436,1.202455,3.652940,-4.897307,99819.70,-96,-143,-87
153433,15.164,-7.024,3.612,1.211501,3.830664,-4.852610,99819.70,-96,-143,-87
153443,16.589,-7.426,3.198,1.247685,3.984976,-4.759491,99823.27,-119,-137,-75
153453,17.992,-7.848,2.549,1.318987,4.085545,-4.634977,99822.70,-142,-130,-61
153463,19.104,-8.439,1.801,1.398272,4.133435,-4.509932,99819.04,-161,-118,-46
153474,20.211,-9.391,0.949,1.410510,4.129710,-4.372115,99822.01,-161,-118,-46
153483,20.653,-10.432,-0.771,1.320051,4.010517,-4.191730,99822.01,-177,-104,-29
153493,20.257,-11.704,-2.750,1.149244,3.779050,-3.952281,99821.74,-188,-89,-12
153499,20.196,-11.948,-3.628,1.103483,3.522041,-3.722409,99821.48,-188,-89,-12
153508,19.897,-12.610,-4.287,1.244492,3.156481,-3.454758,99821.48,-194,-73,+1
153519,16.820,-14.318,-5.112,1.672308,2.530720,-3.042373,99823.05,-198,-58,+14
153529,11.158,-19.371,-6.512,2.213464,2.001803,-2.608704,99821.16,-198,-45,+22
153538,5.013,-26.090,-9.362,2.337445,1.633051,-2.084575,99821.16,-198,-45,+22
153548,1.169,-26.830,-12.807,1.569079,1.164794,-1.217769,99825.99,-196,-36,+30
153559,4.399,-20.331,-9.173,0.409612,0.573620,-0.072668,99825.90,-192,-34,+33
153569,9.519,-13.626,-5.317,-0.270425,-0.146856,0.913331,99822.87,-189,-34,+33
153578,11.486,-11.548,-4.371,-0.439636,-0.779003,1.666798,99822.87,-189,-34,+33
153588,11.882,-12.759,-4.688,-0.092168,-1.293553,2.251055,99822.87,-186,-39,+31
153598,12.724,-9.727,-4.222,0.576162,-1.691571,2.571917,99826.47,-182,-44,+28
153609,12.777,-2.542,-3.534,0.928951,-2.299772,2.699623,99826.78,-178,-51,+25
153614,19.830,13.076,14.199,1.732437,-2.227937,2.234027,99824.02,-178,-51,+25
153623,34.633,34.423,17.709,2.051702,-1.527681,0.910670,99818.94,-175,-52,+25
153633,24.198,-0.087,-7.728,-0.916406,-1.306856,2.096211,99818.94,-175,-52,+25
153644,8.342,-21.552,-11.120,-0.514663,-2.434396,3.794173,99827.36,-167,-58,+17
153653,9.915,-19.732,-0.963,1.036969,-2.235387,2.983770,99825.47,-161,-66,+14
153663,11.234,-7.645,-2.231,0.045116,-1.623461,2.383018,99821.77,-155,-72,+9
153673,9.608,3.600,0.451,-0.366736,-1.261094,2.504339,99825.53,-155,-72,+9
153683,3.864,1.404,4.077,0.220181,-1.371773,2.353220,99825.53,-151,-78,+6
153694,3.794,-6.491,4.303,0.713978,-1.353681,2.112174,99824.08,-144,-84,+3
153703,8.911,-11.370,3.149,0.870951,-1.407424,1.969037,99822.72,-141,-87,+1
153713,10.411,-8.932,0.007,0.674070,-1.570782,1.709367,99823.30,-136,-91,+0
153723,9.730,-6.654,-0.481,0.277116,-1.323351,1.537496,99822.88,-136,-91,+0
153734,8.188,-5.702,0.156,-0.206217,-1.069712,1.422028,99822.88,-132,-93,-3
153743,7.549,-5.036,-0.083,-0.507213,-0.874782,1.291661,99822.97,-128,-97,-5
153753,8.209,-4.293,-0.894,-0.646626,-0.668324,1.156505,99824.53,-125,-99,-8
153763,8.867,-3.047,-0.441,-0.623746,-0.553388,1.055936,99824.38,-125,-99,-8
153774,9.248,-2.834,0.585,-0.442828,-0.450691,1.013900,99821.34,-123,-101,-10
153783,9.438,-2.893,1.334,-0.208700,-0.423553,0.997936,99821.34,-120,-103,-11
153793,8.953,-3.444,1.801,0.007337,-0.441645,0.991019,99828.00,-119,-105,-12
153803,8.467,-4.524,2.240,0.147282,-0.458673,0.983569,99823.92,-119,-105,-12
153814,8.111,-4.703,2.754,0.070126,-0.445902,0.946322,99825.23,-116,-106,-12
153824,8.005,-4.868,2.717,-0.188480,-0.385774,0.863845,99822.98,-114,-108,-13
153833,8.225,-4.758,2.363,-0.325232,-0.371407,0.752634,99822.98,-112,-109,-15
153843,8.498,-4.249,2.013,-0.327360,-0.371939,0.655790,99822.92,-112,-109,-15
153853,8.832,-3.694,1.472,-0.257122,-0.367682,0.607368,99822.92,-110,-110,-16
153864,8.999,-3.234,1.205,-0.186883,-0.379388,0.604175,99822.72,-109,-110,-17
153873,8.977,-3.349,1.379,-0.089507,-0.378324,0.613221,99822.09,-106,-111,-18
153883,8.923,-3.775,1.221,-0.011819,-0.383113,0.618010,99822.09,-106,-111,-18
153893,8.612,-4.111,1.383,0.023832,-0.383113,0.616414,99823.73,-105,-113,-18
153904,8.513,-4.618,1.818,0.019575,-0.366085,0.597790,99826.34,-103,-114,-19
153914,8.406,-4.593,2.444,-0.044278,-0.341608,0.579166,99821.38,-102,-115,-19
153923,8.384,-4.504,2.164,-0.175177,-0.297975,0.546175,99823.69,-102,-115,-19
153933,8.470,-4.211,1.701,-0.256590,-0.272434,0.519038,99823.69,-100,-116,-20
153944,8.732,-4.034,1.564,-0.215085,-0.251150,0.491900,99825.72,-100,-116,-21
153954,8.703,-4.242,1.547,-0.131012,-0.264453,0.478597,99823.25,-98,-117,-22
153963,8.430,-4.580,1.580,-0.063434,-0.279884,0.459441,99823.09,-98,-117,-22
153969,8.316,-4.880,1.422,-0.054388,-0.270838,0.436561,99822.20,-96,-117,-23
153978,8.185,-5.179,1.199,-0.085250,-0.252746,0.413680,99822.20,-94,-118,-24
153989,8.279,-5.078,0.973,-0.141122,-0.218691,0.387074,99822.20,-94,-118,-24
153999,8.525,-4.595,0.855,-0.195397,-0.180379,0.377496,99823.83,-94,-119,-24
154008,8.700,-4.259,0.831,-0.211360,-0.152177,0.388671,99826.91,-92,-120,-24
154018,8.789,-4.237,0.858,-0.210296,-0.135682,0.410487,99822.55,-92,-120,-25
154029,8.782,-4.331,1.388,-0.207104,-0.133021,0.445606,99822.55,-92,-120,-25
154039,8.671,-4.265,1.844,-0.246480,-0.128765,0.491900,99822.84,-91,-120,-26
154048,8.626,-4.530,2.018,-0.302351,-0.133021,0.539258,99822.84,-89,-121,-27
154058,8.601,-4.490,1.796,-0.366204,-0.137278,0.594065,99824.24,-87,-122,-28
154068,8.597,-4.161,1.436,-0.411966,-0.151113,0.655790,99821.73,-87,-122,-28
154079,8.638,-4.128,1.392,-0.410902,-0.171865,0.718579,99821.84,-85,-122,-29
154088,8.811,-4.320,1.531,-0.375782,-0.188893,0.770193,99821.84,-84,-123,-30
154098,8.998,-4.718,1.629,-0.336938,-0.200599,0.810102,99824.15,-80,-124,-31
154108,8.955,-5.497,1.759,-0.338003,-0.203260,0.828193,99821.23,-80,-124,-31
154119,8.803,-6.346,1.594,-0.427929,-0.175590,0.820744,99824.41,-79,-125,-31
154129,8.562,-6.144,1.323,-0.559892,-0.152177,0.815955,99823.45,-76,-126,-33
154138,8.439,-5.121,1.290,-0.658865,-0.169737,0.835111,99826.16,-74,-126,-35
154148,8.528,-4.141,1.581,-0.664186,-0.244764,0.900560,99824.48,-74,-126,-35
154159,8.908,-3.658,1.697,-0.589158,-0.367150,1.004854,99823.91,-71,-127,-37
154169,9.355,-3.987,1.586,-0.512002,-0.504966,1.125111,99823.91,-67,-128,-38
154178,9.910,-4.625,1.620,-0.484865,-0.619902,1.248560,99822.34,-63,-129,-40
154188,10.341,-5.036,1.617,-0.477415,-0.722067,1.369881,99822.34,-63,-129,-40
154199,10.849,-5.317,1.103,-0.471562,-0.823700,1.480560,99823.71,-58,-130,-43
154209,11.457,-5.544,0.506,-0.467305,-0.931718,1.565165,99825.23,-53,-131,-45
154219,11.463,-5.737,0.221,-0.466241,-1.033883,1.647110,99820.88,-48,-131,-48
154228,11.473,-6.040,-0.047,-0.515195,-1.107847,1.727459,99824.02,-48,-131,-48
154238,11.887,-6.138,0.126,-0.615232,-1.165847,1.808339,99824.02,-41,-133,-50
154249,13.341,-5.787,0.500,-0.664186,-1.249388,1.896138,99822.40,-33,-132,-53
154259,14.712,-6.112,2.339,-0.601397,-1.426048,1.978615,99822.35,-25,-133,-56
154269,14.830,-6.912,4.314,-0.533287,-1.552158,2.110046,99819.68,-25,-133,-56
154278,15.995,-7.487,4.526,-0.607250,-1.584617,2.266486,99819.68,-15,-133,-59
154289,17.405,-7.327,5.342,-0.786571,-1.629314,2.405899,99819.68,-5,-133,-62
154299,17.991,-7.618,6.594,-1.015910,-1.595791,2.553293,99823.41,+6,-131,-67
154308,18.738,-7.772,7.041,-1.388387,-1.452654,2.693770,99820.63,+6,-131,-67
154318,20.278,-6.050,7.297,-1.943378,-1.255241,2.825733,99819.49,+17,-129,-71
154329,21.023,-4.823,6.520,-2.487194,-1.146158,2.983770,99821.84,+30,-123,-77
154339,20.905,-4.783,4.261,-2.879891,-1.142966,3.166284,99821.84,+44,-117,-85
154349,19.186,-5.682,1.659,-3.190111,-1.171700,3.341880,99821.77,+44,-117,-85
154358,16.541,-8.384,1.018,-3.379010,-1.229700,3.465861,99824.27,+57,-108,-92
154369,15.561,-8.760,4.298,-3.409340,-1.207351,3.224283,99820.92,+71,-99,-99
154379,14.453,-7.845,4.497,-3.429028,-1.094012,2.902357,99820.92,+84,-88,-106
154389,13.170,-7.260,2.602,-3.346551,-1.044526,2.695899,99823.77,+84,-88,-106
154398,11.735,-6.716,2.167,-2.934698,-1.109975,2.544779,99823.77,+96,-78,-112
154408,9.428,-6.050,2.142,-2.214754,-1.166379,2.488376,99820.67,+106,-68,-116
154419,6.822,-4.718,3.366,-1.728937,-0.970562,2.321293,99820.47,+117,-61,-119
154429,6.652,-1.893,2.394,-1.697543,-0.583718,1.786523,99821.56,+125,-61,-121
154438,5.531,-2.462,1.741,-1.867286,-0.262856,1.489606,99821.56,+125,-53,-121
154448,5.470,0.898,2.460,-1.658167,-0.031388,1.010707,99818.05,+132,-46,-124
154459,5.012,3.232,2.613,-1.309635,0.223492,0.453056,99819.88,+135,-42,-127
154469,4.397,4.178,2.309,-0.813177,0.323529,0.142304,99818.52,+138,-39,-130
154479,3.594,3.934,1.574,-0.240094,0.324593,-0.141311,99820.45,+138,-39,-130
154488,2.757,3.238,1.023,0.343098,0.325125,-0.431843,99821.16,+141,-40,-131
154499,1.940,2.640,0.749,0.939593,0.362373,-0.744723,99820.60,+141,-42,-132
154509,1.391,1.990,0.683,1.465850,0.456556,-1.096448,99820.02,+141,-46,-132
154519,1.096,1.216,0.626,1.848436,0.601290,-1.460411,99820.02,+141,-46,-132
154528,0.957,0.452,0.715,2.060748,0.787528,-1.804154,99821.01,+142,-53,-132
154539,0.933,-0.082,0.770,2.146418,1.006758,-2.129805,99821.01,+137,-62,-132
154549,1.156,-0.391,1.065,2.163977,1.244611,-2.449603,99818.04,+134,-71,-130
154554,1.404,-0.491,1.242,2.164510,1.419143,-2.685859,99816.88,+134,-71,-130
154564,1.693,-0.721,1.373,2.148014,1.601124,-2.923712,99818.77,+127,-80,-130
154573,2.276,-1.055,1.625,2.099592,1.846427,-3.251492,99817.46,+127,-80,-130
154584,3.214,-1.295,1.701,2.000620,2.071509,-3.565969,99817.46,+117,-90,-131
154594,4.272,-1.551,1.680,1.883556,2.277968,-3.832024,99819.74,+106,-100,-131
154604,4.940,-1.815,1.539,1.793097,2.475381,-4.062959,99816.49,+92,-110,-130
154613,5.563,-1.881,1.436,1.743079,2.656830,-4.275803,99815.91,+92,-110,-130
