200017,9.433,-2.483,2.226,-0.005635,-0.009385,0.003736,99940.80,-104,+75,-61
200028,9.420,-2.514,2.218,-0.003507,-0.010449,0.004800,99941.42,-101,+77,-69
200038,9.427,-2.519,2.261,0.002346,-0.012046,0.007461,99938.06,-101,+77,-67
200047,9.391,-2.526,2.271,0.005007,-0.014174,0.009589,99938.06,-103,+75,-61
200057,9.390,-2.550,2.271,-0.001379,-0.015238,0.008525,99942.22,-103,+75,-61
200068,9.411,-2.511,2.259,-0.005635,-0.016835,0.006396,99940.75,-101,+79,-69
200078,9.423,-2.529,2.206,-0.003507,-0.015238,0.005332,99939.08,-101,+77,-66
200088,9.407,-2.528,2.182,-0.001911,-0.015238,0.006396,99939.92,-103,+75,-62
200097,9.419,-2.537,2.172,-0.002443,-0.013110,0.007461,99939.92,-103,+75,-62
200108,9.432,-2.510,2.180,-0.000847,-0.012578,0.006396,99942.54,-99,+77,-69
200118,9.433,-2.533,2.214,0.005007,-0.011514,0.005864,99940.96,-101,+77,-66
200128,9.389,-2.558,2.228,0.009264,-0.011514,0.004268,99940.34,-103,+74,-61
200137,9.397,-2.540,2.176,0.006071,-0.010449,0.001607,99937.60,-103,+74,-61
200147,9.407,-2.556,2.193,0.003942,-0.009917,0.000543,99937.60,-100,+77,-69
200158,9.386,-2.551,2.164,0.010328,-0.011514,-0.001585,99942.98,-101,+77,-66
200168,9.397,-2.535,2.174,0.011392,-0.011514,-0.003182,99941.20,-102,+75,-61
200178,9.432,-2.582,2.171,0.011924,-0.011514,-0.004246,99940.35,-99,+78,-69
200187,9.403,-2.569,2.181,0.010860,-0.010981,-0.006374,99940.57,-99,+78,-69
200198,9.407,-2.533,2.187,0.009264,-0.009917,-0.006906,99940.57,-101,+76,-66
200208,9.447,-2.555,2.171,0.006603,-0.009917,-0.007971,99942.02,-103,+74,-62
200218,9.396,-2.513,2.169,0.009796,-0.008853,-0.007438,99941.95,-99,+77,-70
200227,9.411,-2.495,2.235,0.015117,-0.009385,-0.005842,99941.55,-99,+77,-70
200238,9.419,-2.529,2.286,0.019374,-0.010449,-0.006374,99941.48,-101,+76,-65
200248,9.390,-2.557,2.263,0.015117,-0.011514,-0.007971,99941.48,-102,+75,-63
200258,9.390,-2.575,2.202,0.005539,-0.009917,-0.011695,99939.97,-99,+77,-70
200267,9.437,-2.601,2.098,-0.001379,-0.008321,-0.014888,99941.44,-99,+77,-70
200278,9.404,-2.557,2.187,0.001282,-0.008321,-0.018081,99939.44,-101,+75,-64
200288,9.396,-2.511,2.229,0.006071,-0.009917,-0.019145,99938.81,-103,+75,-63
200298,9.416,-2.546,2.192,0.009796,-0.010449,-0.018968,99938.81,-99,+78,-70
200308,9.415,-2.529,2.183,0.008731,-0.008853,-0.020209,99942.34,-99,+78,-70
200317,9.409,-2.471,2.178,0.012988,-0.008853,-0.020209,99943.91,-102,+76,-64
200328,9.416,-2.527,2.176,0.017777,-0.008853,-0.019677,99938.83,-101,+75,-63
200338,9.414,-2.539,2.189,0.023098,-0.008853,-0.018613,99939.61,-99,+78,-69
200348,9.420,-2.531,2.205,0.024163,-0.008321,-0.020209,99939.61,-99,+78,-69
200357,9.452,-2.517,2.236,0.023098,-0.007789,-0.021805,99942.52,-102,+75,-64
200368,9.447,-2.480,2.226,0.023098,-0.007789,-0.022870,99939.67,-102,+75,-62
200378,9.435,-2.466,2.231,0.025759,-0.008853,-0.020741,99941.09,-99,+78,-69
200388,9.437,-2.462,2.235,0.030548,-0.010449,-0.017016,99941.88,-99,+78,-69
200397,9.416,-2.448,2.210,0.036401,-0.010981,-0.013292,99941.88,-103,+75,-64
200408,9.384,-2.447,2.205,0.035337,-0.013110,-0.009567,99942.99,-101,+76,-63
200418,9.463,-2.432,2.213,0.040658,-0.013642,-0.008503,99940.43,-100,+78,-71
200428,9.452,-2.482,2.219,0.043851,-0.014706,-0.005842,99941.90,-100,+78,-71
200438,9.413,-2.503,2.199,0.044915,-0.016303,-0.003714,99940.48,-102,+76,-63
200448,9.434,-2.541,2.208,0.040126,-0.017899,-0.005310,99940.48,-101,+75,-63
200458,9.415,-2.528,2.218,0.027355,-0.017899,-0.004246,99943.21,-99,+77,-71
200468,9.408,-2.482,2.211,0.022034,-0.018431,-0.006906,99941.80,-99,+77,-71
200478,9.433,-2.456,2.210,0.023631,-0.019495,-0.008503,99938.02,-101,+75,-63
200487,9.458,-2.501,2.194,0.019906,-0.021092,-0.003182,99937.66,-102,+75,-64
200498,9.431,-2.495,2.212,0.023098,-0.021624,-0.005310,99937.66,-99,+77,-71
200508,9.433,-2.497,2.228,0.022566,-0.022156,-0.002117,99943.16,-99,+77,-71
200518,9.447,-2.517,2.212,0.017245,-0.021624,-0.003182,99941.44,-102,+75,-63
200527,9.449,-2.521,2.212,0.022566,-0.021092,-0.004246,99942.11,-101,+75,-64
200534,9.415,-2.509,2.195,0.018309,-0.021092,-0.005842,99940.22,-101,+75,-64
200543,9.387,-2.507,2.211,0.010860,-0.020027,-0.009567,99940.22,-98,+78,-71
200553,9.421,-2.458,2.187,0.007667,-0.017367,-0.010631,99940.22,-102,+75,-63
200563,9.409,-2.454,2.201,0.011392,-0.016303,-0.012760,99942.80,-101,+76,-65
200573,9.419,-2.487,2.184,0.010860,-0.016835,-0.010099,99939.62,-101,+76,-65
200583,9.416,-2.519,2.172,0.005007,-0.016303,-0.010099,99938.35,-99,+78,-70
200593,9.432,-2.473,2.134,-0.000847,-0.014706,-0.010631,99938.35,-102,+76,-63
200603,9.426,-2.405,2.167,0.001282,-0.012578,-0.010099,99940.78,-101,+75,-65
200612,9.453,-2.424,2.207,0.010860,-0.012578,-0.004246,99940.78,-101,+75,-65
200623,9.449,-2.487,2.192,0.021502,-0.013110,-0.001585,99940.36,-99,+77,-69
200633,9.439,-2.532,2.177,0.030016,-0.014174,-0.000521,99942.19,-102,+75,-63
200643,9.403,-2.592,2.176,0.024163,-0.013110,-0.003714,99941.83,-102,+75,-65
200653,9.428,-2.553,2.184,0.009796,-0.011514,-0.007971,99941.83,-102,+75,-65
200664,9.444,-2.525,2.186,0.002346,-0.008853,-0.009567,99942.34,-99,+77,-70
200673,9.409,-2.455,2.205,-0.001379,-0.008321,-0.008503,99941.13,-102,+75,-63
200683,9.422,-2.448,2.149,-0.002975,-0.008321,-0.008503,99940.76,-101,+76,-66
200693,9.435,-2.492,2.140,-0.002443,-0.009385,-0.007971,99939.41,-101,+76,-66
200704,9.444,-2.486,2.158,-0.001379,-0.006725,-0.006906,99942.98,-99,+77,-70
200713,9.457,-2.497,2.177,0.003410,-0.006725,-0.009035,99940.04,-103,+74,-63
200723,9.439,-2.519,2.224,0.005007,-0.005128,-0.012760,99941.62,-101,+76,-67
200733,9.470,-2.572,2.202,0.002878,-0.005660,-0.018081,99941.62,-101,+76,-67
200742,9.478,-2.592,2.196,-0.009360,-0.008321,-0.024466,99940.93,-99,+77,-70
200753,9.422,-2.517,2.199,-0.023195,-0.009385,-0.029787,99940.93,-102,+75,-62
200763,9.420,-2.478,2.187,-0.032241,-0.009385,-0.031383,99943.09,-100,+77,-67
200773,9.443,-2.446,2.170,-0.033837,-0.009385,-0.031916,99941.63,-100,+77,-67
200783,9.514,-2.392,2.218,-0.027452,-0.010981,-0.028191,99940.63,-99,+77,-70
200794,9.538,-2.405,2.196,-0.024791,-0.023752,-0.028723,99937.91,-102,+75,-63
200803,9.664,-2.406,2.280,-0.023195,-0.046633,-0.030851,99937.91,-100,+77,-66
200813,9.636,-2.401,2.229,-0.029048,-0.064725,-0.033512,99942.77,-100,+77,-66
200823,9.695,-2.425,2.122,-0.039691,-0.062596,-0.031383,99942.22,-99,+78,-69
200834,9.555,-2.418,1.985,-0.056718,-0.046633,-0.026062,99939.44,-102,+75,-63
200843,9.420,-2.331,1.909,-0.065764,-0.032266,-0.017549,99939.44,-99,+77,-67
200853,9.445,-2.277,1.908,-0.055122,-0.024816,-0.006906,99939.44,-99,+77,-67
200863,9.340,-2.253,2.031,-0.022663,-0.026945,0.007461,99942.39,-99,+78,-69
200873,9.397,-2.306,2.074,0.011392,-0.032798,0.019699,99942.02,-102,+75,-63
200883,9.445,-2.526,2.066,0.017245,-0.033330,0.027149,99940.19,-99,+77,-68
200893,9.361,-2.692,2.110,0.000218,-0.032266,0.025552,99939.14,-99,+77,-70
200903,9.279,-2.572,2.168,-0.036498,-0.033862,0.022892,99939.14,-99,+77,-70
200913,9.354,-2.470,2.141,-0.058314,-0.034394,0.024488,99939.91,-102,+75,-62
200924,9.354,-2.460,1.985,-0.062039,-0.036523,0.028745,99939.45,-99,+78,-69
200933,9.324,-2.386,1.803,-0.056186,-0.036523,0.035662,99939.48,-99,+77,-71
200943,9.373,-2.252,1.647,-0.042351,-0.034926,0.047369,99939.48,-99,+77,-71
200953,9.451,-2.065,1.651,0.001814,-0.039715,0.069717,99940.50,-101,+75,-63
200963,9.569,-1.797,1.843,0.078970,-0.066321,0.100580,99940.50,-99,+78,-69
200973,9.432,-1.532,2.194,0.195502,-0.111018,0.146341,99942.28,-99,+77,-70
200983,9.195,-1.537,2.346,0.290750,-0.141348,0.201149,99941.23,-99,+77,-70
200993,9.183,-1.920,2.487,0.340768,-0.146137,0.257020,99939.61,-101,+74,-64
201003,9.208,-2.027,2.539,0.345557,-0.120064,0.280965,99939.61,-99,+75,-71
201014,8.837,-3.064,2.520,0.307777,-0.106761,0.275112,99941.81,-99,+73,-71
201023,8.451,-3.515,1.816,0.231153,-0.100376,0.244249,99942.13,-99,+73,-71
201033,8.648,-3.124,1.621,0.172089,-0.080156,0.196360,99942.02,-102,+70,-64
201043,8.923,-2.836,2.213,0.277447,-0.090798,0.158048,99940.81,-99,+73,-71
201054,9.174,-3.051,2.539,0.423777,-0.126981,0.113350,99941.47,-99,+71,-71
201063,9.498,-3.328,2.107,0.476988,-0.147734,0.034066,99942.58,-99,+71,-71
201073,9.470,-3.837,1.619,0.415795,-0.116871,-0.021273,99938.27,-101,+68,-65
201083,9.482,-4.110,1.374,0.267337,-0.057275,-0.088319,99938.27,-98,+71,-72
201093,9.579,-3.472,1.605,0.128456,-0.003000,-0.158026,99939.80,-98,+70,-71
201103,9.824,-2.750,2.013,0.081631,0.012431,-0.204319,99939.80,-98,+70,-71
201113,9.844,-2.557,2.062,0.100254,0.009239,-0.215493,99941.19,-101,+69,-65
201123,9.784,-2.746,2.013,0.112493,0.017753,-0.220814,99942.50,-98,+71,-72
201133,9.724,-2.818,2.016,0.078970,0.035312,-0.238906,99941.67,-99,+71,-71
201143,9.845,-2.647,2.398,0.077374,0.041697,-0.261787,99938.20,-99,+71,-71
201153,9.839,-2.600,2.633,0.108768,0.031055,-0.283603,99938.20,-101,+69,-64
201163,9.584,-2.859,2.575,0.125264,0.019349,-0.301163,99942.80,-97,+72,-72
201174,9.370,-3.203,2.500,0.071520,0.019349,-0.332558,99942.64,-98,+72,-70
201184,9.385,-3.049,2.299,-0.031177,0.028927,-0.371934,99940.33,-98,+72,-70
201193,9.517,-2.730,2.134,-0.125360,0.035844,-0.399603,99940.33,-101,+71,-66
201203,9.530,-2.364,2.155,-0.145048,0.037973,-0.412374,99940.33,-97,+75,-73
201213,9.476,-2.157,2.083,-0.141856,0.032119,-0.407585,99943.85,-98,+75,-69
201223,9.452,-2.119,2.278,-0.124828,0.020413,-0.391090,99940.38,-98,+75,-69
201233,9.397,-2.067,2.408,-0.104608,0.015092,-0.376191,99940.80,-100,+74,-65
201243,9.395,-2.012,2.279,-0.128553,0.006578,-0.358631,99939.55,-96,+78,-73
201253,9.553,-1.845,2.287,-0.165268,-0.000339,-0.341603,99939.55,-98,+77,-69
201264,9.578,-1.547,2.341,-0.173782,-0.008853,-0.313934,99943.22,-98,+77,-69
201273,9.556,-1.220,2.224,-0.147709,-0.028009,-0.269236,99939.61,-99,+77,-64
201283,9.636,-1.028,2.120,-0.097158,-0.057807,-0.210704,99940.03,-96,+81,-73
201293,9.850,-1.051,2.037,-0.018938,-0.083348,-0.148980,99940.03,-98,+79,-69
201304,9.876,-1.278,1.939,0.058218,-0.099844,-0.090448,99940.14,-98,+79,-69
201313,9.742,-1.555,2.020,0.119410,-0.106229,-0.045218,99940.14,-98,+78,-66
201323,9.605,-1.754,2.048,0.153465,-0.118468,-0.014888,99941.83,-95,+81,-74
201333,9.532,-1.979,2.184,0.158786,-0.132302,0.005332,99942.03,-98,+79,-69
201344,9.511,-2.161,2.327,0.157190,-0.141348,0.012782,99940.41,-98,+79,-66
201353,9.541,-2.319,2.359,0.130585,-0.148798,0.012782,99940.41,-98,+78,-66
201363,9.489,-2.337,2.419,0.083227,-0.156247,0.003204,99940.69,-93,+81,-76
201373,9.500,-2.139,2.313,0.030016,-0.159440,-0.009035,99939.53,-98,+79,-71
201383,9.636,-1.766,2.110,-0.001379,-0.165293,-0.005842,99939.47,-98,+77,-68
201394,9.630,-1.610,1.962,-0.000314,-0.172743,0.011185,99940.69,-98,+77,-68
201404,9.617,-1.626,1.903,0.053429,-0.170082,0.038323,99940.63,-94,+80,-76
201413,9.715,-1.713,1.915,0.128988,-0.161568,0.060672,99940.63,-97,+78,-71
201423,9.698,-1.946,1.935,0.166236,-0.145073,0.088341,99940.95,-97,+77,-69
201434,9.641,-2.151,2.062,0.142291,-0.125917,0.109626,99940.95,-97,+77,-69
201443,9.656,-2.071,1.993,0.033209,-0.109954,0.126121,99940.10,-93,+79,-76
201453,9.610,-1.860,2.135,-0.074810,-0.103036,0.151662,99940.10,-96,+76,-71
201463,9.627,-1.386,2.260,-0.128553,-0.114211,0.190506,99941.80,-97,+77,-70
201474,9.768,-1.125,2.291,-0.143984,-0.145605,0.253295,99939.82,-97,+77,-70
201483,9.890,-1.008,2.134,-0.146112,-0.187110,0.338965,99938.51,-93,+79,-77
201493,10.039,-0.996,2.042,-0.133342,-0.216376,0.433148,99937.35,-96,+75,-71
201503,10.151,-0.903,2.199,-0.096094,-0.238724,0.539038,99937.35,-96,+75,-71
201513,10.161,-0.537,2.617,-0.033305,-0.250963,0.668873,99940.79,-96,+75,-71
201524,10.213,0.212,2.696,0.043851,-0.237128,0.840212,99942.12,-93,+75,-78
201533,10.389,0.581,2.418,0.110364,-0.202009,1.058377,99937.82,-96,+71,-72
201543,10.729,0.059,2.139,0.105575,-0.167422,1.300487,99937.82,-96,+68,-73
201553,11.302,-0.499,1.854,-0.015746,-0.147734,1.509074,99937.82,-96,+68,-73
201564,11.773,-0.725,1.961,-0.182296,-0.133899,1.699570,99942.09,-94,+67,-79
201573,12.196,-1.258,1.750,-0.353103,-0.161568,1.851221,99942.20,-97,+61,-72
201583,13.051,-2.039,1.998,-0.458461,-0.225422,1.943276,99939.88,-97,+59,-73
201593,15.117,-2.745,2.608,-0.503690,-0.297789,1.975735,99939.88,-97,+59,-73
201604,18.148,-3.619,2.845,-0.526039,-0.352064,1.983716,99939.88,-95,+58,-80
201614,20.064,-3.852,3.391,-0.544131,-0.332376,1.965625,99943.22,-98,+52,-73
201623,19.262,-3.689,3.088,-0.671837,-0.295660,1.837918,99943.13,-98,+50,-75
201633,17.102,-4.806,2.925,-0.967690,-0.244578,1.686799,99940.44,-98,+50,-75
201644,15.655,-4.673,3.385,-1.193304,-0.163697,1.500561,99940.44,-95,+51,-81
201654,13.624,-3.170,3.201,-1.260350,-0.184981,1.330818,99939.70,-98,+46,-74
201664,10.415,-3.382,2.377,-1.200222,-0.257880,1.265368,99939.96,-98,+48,-77
201673,8.691,-7.773,2.897,-1.011323,-0.353128,1.497900,99939.96,-98,+48,-77
201683,8.473,-9.823,2.943,-0.393544,-0.397293,1.617093,99939.74,-95,+49,-83
201694,7.952,-9.385,1.374,-0.116846,-0.306834,1.511735,99942.95,-98,+42,-77
201703,7.176,-11.313,0.269,-0.598406,-0.179128,1.536744,99942.95,-97,+42,-80
201713,6.992,-9.574,-0.252,-1.036864,-0.130706,1.446285,99942.08,-97,+42,-80
201723,6.596,-5.844,-0.351,-1.355598,-0.038651,1.165331,99941.50,-94,+43,-86
201734,6.297,-5.077,-0.101,-1.554075,-0.011514,1.063166,99943.75,-98,+38,-79
201744,5.432,-5.137,-0.309,-1.285360,-0.048761,1.014744,99940.28,-96,+42,-82
201753,4.770,-4.791,-0.699,-0.882552,-0.094523,0.978029,99941.45,-96,+42,-82
201763,4.227,-4.387,-0.771,-0.446222,-0.130174,0.939717,99938.66,-95,+44,-87
201774,3.625,-4.201,-0.619,-0.050333,-0.133899,0.882249,99937.57,-98,+38,-80
201784,2.813,-4.155,-0.436,0.239135,-0.112082,0.817864,99937.57,-96,+39,-84
201793,1.876,-4.080,-0.399,0.441869,-0.081220,0.744965,99936.62,-96,+39,-84
201803,1.070,-4.111,-0.410,0.563722,-0.042908,0.657699,99936.62,-96,+38,-87
201814,0.525,-4.252,-0.466,0.602566,0.008707,0.568836,99937.98,-97,+31,-82
201824,0.233,-4.283,-0.598,0.541905,0.065642,0.463479,99941.70,-97,+33,-85
201833,0.091,-4.361,-0.739,0.400896,0.111936,0.341093,99940.50,-96,+33,-88
201843,0.073,-4.312,-0.839,0.242328,0.149716,0.211791,99937.45,-96,+33,-88
201853,0.126,-4.078,-0.916,0.090144,0.175789,0.084617,99937.45,-99,+28,-80
201864,0.311,-3.726,-0.902,-0.035966,0.191220,-0.040961,99943.40,-98,+32,-84
201874,0.667,-3.505,-0.884,-0.114718,0.188028,-0.171328,99941.51,-97,+33,-86
201883,1.014,-3.448,-0.856,-0.141856,0.169936,-0.294778,99937.79,-97,+33,-86
201893,1.130,-3.715,-0.836,-0.123232,0.147587,-0.409713,99937.79,-99,+29,-79
201904,1.180,-3.892,-0.807,-0.090773,0.125771,-0.521989,99937.79,-98,+34,-83
201914,1.432,-3.958,-0.757,-0.038094,0.112468,-0.631071,99940.41,-98,+36,-86
201923,2.046,-4.135,-0.581,0.030548,0.111936,-0.753988,99941.14,-98,+36,-86
201933,2.934,-4.197,-0.368,0.083227,0.115661,-0.891273,99939.77,-99,+32,-77
201944,3.746,-4.254,-0.171,0.125264,0.128431,-1.030153,99941.14,-98,+39,-82
201954,4.417,-4.320,0.014,0.151337,0.150248,-1.152007,99941.14,-98,+41,-84
201964,4.788,-4.558,0.127,0.168364,0.182174,-1.260025,99942.68,-98,+41,-84
201973,5.109,-4.869,0.303,0.207208,0.224211,-1.364318,99940.16,-100,+38,-76
201984,5.710,-5.108,0.574,0.265740,0.271569,-1.481382,99941.37,-98,+46,-81
201994,6.687,-5.332,0.881,0.333318,0.310945,-1.610153,99941.37,-98,+48,-81
202004,7.761,-5.432,0.984,0.397704,0.327440,-1.731474,99941.80,-98,+48,-81
202013,8.754,-5.405,1.275,0.482841,0.332761,-1.841621,99940.81,-101,+47,-73
202023,9.814,-5.297,1.490,0.611080,0.337018,-1.920905,99940.81,-99,+55,-78
202034,10.837,-5.469,1.674,0.732933,0.342339,-1.957621,99939.34,-98,+56,-79
202044,11.965,-5.832,1.853,0.851593,0.333826,-1.971456,99939.23,-98,+56,-79
202053,13.166,-5.979,2.205,0.948437,0.316266,-1.960813,99939.23,-101,+55,-71
202063,13.753,-5.674,2.603,1.009630,0.274229,-1.931547,99943.18,-98,+61,-77
202074,13.416,-5.036,2.960,1.037832,0.249752,-1.859712,99940.71,-98,+62,-76
202084,12.729,-4.519,3.002,1.023465,0.282211,-1.743181,99940.40,-98,+62,-76
202094,12.460,-4.009,2.984,0.976639,0.391294,-1.622392,99940.30,-99,+61,-69
202103,11.564,-5.608,4.064,0.821263,0.532835,-1.532997,99942.05,-98,+67,-76
202114,13.198,-4.991,5.219,0.690896,0.870724,-1.393584,99941.32,-99,+69,-74
202124,18.096,-2.461,0.874,0.313098,0.792504,-1.458502,99940.32,-99,+69,-74
202134,24.728,1.919,-1.254,-0.365874,0.463660,-1.407419,99939.38,-101,+68,-66
202143,24.320,1.561,2.336,-0.198259,0.361495,-1.175951,99939.38,-98,+75,-71
202153,15.488,-0.535,4.300,0.365245,0.414174,-0.719401,99939.38,-99,+74,-70
202164,8.178,-3.155,0.522,0.371630,0.294450,-0.463989,99941.84,-99,+74,-70
202174,5.447,-4.173,-0.304,0.284896,0.258266,-0.411310,99943.26,-101,+73,-64
202179,6.875,-3.342,0.931,0.231153,0.314138,-0.493255,99941.79,-98,+77,-71
202188,9.261,-2.355,2.948,0.280107,0.325844,-0.531034,99939.43,-98,+77,-71
202199,9.915,-1.448,5.267,0.296071,0.260927,-0.452814,99939.43,-99,+76,-69
202209,8.710,-1.435,5.357,0.099722,0.200266,-0.338411,99942.69,-102,+75,-63
202219,8.595,-1.864,3.729,-0.082791,0.174193,-0.264980,99941.11,-99,+79,-69
202228,9.059,-2.023,2.635,-0.234443,0.149184,-0.213897,99940.31,-99,+79,-69
202238,9.283,-1.474,2.234,-0.373855,0.133752,-0.150576,99940.95,-100,+78,-67
202249,9.803,-1.106,1.709,-0.355764,0.121514,-0.073420,99940.95,-102,+77,-61
202259,10.108,-1.390,1.267,-0.121635,0.098101,0.006396,99944.25,-99,+80,-69
202268,9.876,-1.869,1.313,0.200823,0.074688,0.060139,99940.73,-99,+80,-69
202278,9.677,-2.380,1.694,0.399832,0.073624,0.075039,99940.64,-101,+77,-66
202289,9.713,-2.665,2.161,0.434951,0.089055,0.079295,99940.06,-103,+75,-61
202299,9.620,-2.397,2.575,0.404621,0.097037,0.083552,99940.06,-100,+77,-69
202309,9.419,-1.950,2.718,0.355135,0.089055,0.098451,99941.61,-100,+77,-69
202318,9.371,-1.829,2.639,0.353539,0.069899,0.125057,99942.61,-101,+76,-65
202329,9.441,-1.962,2.436,0.366841,0.052872,0.156983,99942.50,-103,+73,-61
202339,9.572,-2.090,2.289,0.383337,0.039569,0.188910,99939.61,-101,+75,-68
202349,9.471,-1.972,2.263,0.399832,-0.000871,0.207534,99939.61,-101,+75,-68
202358,9.378,-2.071,2.267,0.406217,-0.023220,0.229882,99941.70,-103,+73,-66
202369,9.514,-2.540,2.454,0.447190,-0.031734,0.253827,99940.29,-104,+70,-61
202379,9.523,-2.909,2.548,0.443465,-0.016835,0.254360,99940.96,-101,+71,-69
202389,9.353,-2.838,2.884,0.403557,-0.007789,0.239993,99939.76,-101,+71,-69
202398,9.226,-2.671,3.054,0.328529,-0.046633,0.219240,99939.76,-103,+70,-66
202408,9.259,-2.684,2.864,0.249777,-0.117935,0.191571,99941.98,-104,+67,-63
202415,9.398,-2.792,2.631,0.190713,-0.148798,0.168690,99940.30,-104,+67,-63
202424,9.386,-2.827,2.562,0.124731,-0.172743,0.156983,99940.30,-101,+69,-69
202434,9.320,-2.784,2.272,0.068328,-0.160504,0.153791,99938.47,-102,+68,-66
202444,9.346,-2.747,2.078,0.056621,-0.123257,0.170286,99938.89,-103,+66,-63
202454,9.384,-2.720,2.132,0.092273,-0.074302,0.187314,99938.89,-103,+66,-63
202464,9.378,-2.675,2.244,0.144419,-0.041844,0.201681,99942.73,-100,+68,-71
202474,9.379,-2.673,2.187,0.140163,-0.016835,0.209662,99941.31,-102,+65,-66
202484,9.498,-2.735,2.424,0.088548,0.000725,0.213387,99939.75,-103,+64,-63
202493,9.545,-2.625,2.611,0.017777,0.011367,0.220837,99939.75,-103,+64,-63
202504,9.504,-2.322,2.644,-0.018938,0.010303,0.235736,99939.75,-100,+67,-71
202514,9.385,-2.217,2.764,-0.034902,0.004450,0.254892,99942.90,-103,+64,-66
202524,9.334,-2.254,2.819,-0.059911,-0.003532,0.277772,99937.85,-103,+63,-63
202533,9.365,-2.278,2.748,-0.117911,-0.005660,0.305974,99938.38,-103,+63,-63
202544,9.288,-2.334,2.645,-0.191874,0.004450,0.341626,99939.96,-100,+65,-71
202554,9.380,-2.331,2.474,-0.264241,0.009771,0.381534,99939.96,-103,+62,-65
202564,9.425,-2.205,2.472,-0.280736,-0.000871,0.425167,99944.81,-103,+61,-63
202574,9.298,-2.061,2.405,-0.222736,-0.013642,0.472525,99939.98,-103,+61,-63
202584,9.285,-2.383,2.338,-0.150901,-0.023752,0.525203,99940.25,-102,+64,-71
202594,9.206,-2.802,2.347,-0.110993,-0.012578,0.569369,99940.25,-104,+61,-64
202604,9.171,-2.974,2.297,-0.131213,0.011367,0.594378,99941.30,-105,+60,-63
202613,9.161,-2.995,2.316,-0.175379,0.035844,0.605552,99941.30,-105,+60,-63
202624,9.183,-2.989,2.463,-0.185489,0.040101,0.613534,99939.88,-103,+61,-71
202634,9.071,-3.012,2.528,-0.142388,0.020413,0.624176,99942.15,-105,+57,-64
202644,8.974,-3.148,2.443,-0.098223,-0.001936,0.638011,99939.30,-104,+56,-64
202649,8.996,-3.146,2.289,-0.078535,-0.007257,0.649717,99939.30,-104,+56,-64
202658,9.068,-3.312,2.313,-0.083324,-0.004596,0.652910,99940.63,-103,+57,-69
202669,9.202,-3.627,2.262,-0.083324,-0.010981,0.638543,99940.68,-105,+52,-63
202679,9.203,-3.402,2.331,-0.047672,-0.026945,0.628965,99938.52,-105,+52,-63
202689,9.104,-3.786,2.554,-0.034369,-0.067917,0.616194,99937.90,-105,+53,-64
202698,8.947,-4.084,2.585,-0.066296,-0.109422,0.598102,99937.90,-102,+53,-70
202708,8.878,-4.025,2.418,-0.179103,-0.120064,0.581075,99940.53,-105,+50,-63
202719,9.039,-3.505,2.231,-0.272755,-0.112082,0.583736,99941.22,-105,+50,-63
202729,9.194,-2.830,2.284,-0.274351,-0.102504,0.624176,99938.44,-105,+49,-64
202739,9.235,-2.629,2.237,-0.169525,-0.099844,0.676323,99940.38,-103,+50,-71
202748,9.141,-2.926,2.342,-0.065232,-0.115807,0.735919,99940.38,-105,+45,-63
202759,8.952,-3.529,2.685,-0.034369,-0.163697,0.787534,99938.16,-105,+45,-63
202769,8.910,-3.718,2.874,-0.112590,-0.211055,0.818928,99940.63,-105,+45,-65
202779,8.803,-3.358,2.939,-0.235507,-0.240853,0.868946,99938.74,-102,+46,-72
202788,8.961,-2.640,3.037,-0.272222,-0.255752,0.940781,99938.43,-104,+40,-64
202799,9.158,-2.539,2.983,-0.181764,-0.290871,1.031240,99938.43,-104,+40,-64
202809,9.431,-3.276,2.824,-0.046608,-0.349403,1.122231,99942.37,-103,+40,-67
202819,9.575,-4.216,2.625,0.018309,-0.390376,1.195662,99941.48,-101,+39,-73
202829,9.450,-4.954,2.460,-0.029580,-0.418045,1.252597,99940.43,-102,+34,-65
202839,9.338,-4.745,2.546,-0.153030,-0.427623,1.289845,99937.12,-102,+34,-65
202849,9.386,-4.306,2.517,-0.237103,-0.440926,1.339331,99937.12,-101,+33,-69
202859,9.905,-4.323,2.370,-0.245617,-0.474449,1.402652,99940.09,-99,+32,-76
202869,10.233,-4.705,1.992,-0.227525,-0.517550,1.472891,99941.45,-99,+25,-69
202878,10.480,-4.954,1.770,-0.239232,-0.551073,1.543129,99942.29,-99,+25,-69
202885,10.962,-5.016,1.721,-0.276479,-0.565972,1.589423,99939.93,-98,+25,-72
202894,11.619,-5.080,1.818,-0.306278,-0.561715,1.634652,99939.93,-95,+24,-79
202904,12.603,-5.205,1.712,-0.346718,-0.542027,1.705423,99939.93,-95,+24,-79
202914,13.534,-5.186,1.483,-0.385030,-0.521275,1.785771,99942.80,-97,+17,-71
202925,14.426,-4.867,1.491,-0.395140,-0.524999,1.881551,99940.94,-94,+17,-76
202934,14.770,-4.661,1.548,-0.389287,-0.531385,2.001276,99939.08,-91,+15,-81
202944,15.070,-4.725,1.625,-0.437176,-0.520743,2.121001,99939.08,-91,+15,-81
202954,16.124,-4.894,1.913,-0.548387,-0.507972,2.215716,99940.73,-92,+8,-74
202963,17.421,-4.162,2.789,-0.715470,-0.486688,2.296065,99940.73,-90,+7,-80
202974,18.408,-2.546,4.078,-0.946406,-0.457954,2.395037,99941.16,-87,+5,-84
202984,18.909,-0.944,5.341,-1.143286,-0.413788,2.541899,99938.91,-87,+5,-84
202994,19.538,-0.145,6.302,-1.343359,-0.326522,2.701000,99938.17,-87,-1,-77
203003,19.942,-0.334,5.807,-1.603029,-0.241385,2.851055,99938.17,-84,+0,-85
203014,19.643,-1.901,3.997,-1.989873,-0.185513,2.997917,99940.02,-83,-1,-88
203024,19.003,-2.468,2.364,-2.446955,-0.149330,3.050064,99941.02,-83,-1,-88
203034,17.330,-3.959,1.581,-2.839652,-0.238724,3.003771,99939.28,-81,-7,-84
203044,14.841,-6.899,3.000,-3.024294,-0.585660,2.965459,99938.75,-78,-2,-92
203055,13.280,-5.545,4.585,-2.707689,-0.806486,2.903202,99938.22,-75,-4,-97
203064,13.538,-4.095,3.872,-1.962203,-0.754871,2.840945,99939.89,-75,-4,-97
203074,13.255,-4.218,2.826,-1.369433,-0.778816,2.847862,99937.22,-71,-11,-93
203084,10.814,-4.987,3.603,-0.739947,-0.847990,2.763789,99937.22,-67,-8,-100
203094,8.393,-4.379,3.799,-0.231250,-0.610669,2.538175,99937.80,-65,-11,-103
203104,5.644,-2.900,4.313,-0.187085,-0.252559,2.095991,99937.80,-65,-11,-103
203114,5.207,0.563,2.824,-0.230186,0.017753,1.451074,99940.81,-62,-20,-97
203119,6.013,1.183,1.197,-0.340333,0.022541,0.953020,99941.17,-61,-17,-103
203129,5.374,-0.090,1.374,-0.362149,0.044890,0.677919,99937.77,-61,-17,-103
203139,4.726,0.143,2.046,-0.373855,0.232725,0.318745,99937.30,-61,-18,-104
203149,4.083,1.722,1.390,-0.236039,0.249752,-0.295842,99937.30,-59,-22,-98
203159,3.060,2.562,1.100,0.016713,0.304028,-0.900851,99940.83,-61,-16,-104
203169,2.672,2.406,1.038,0.126328,0.438119,-1.297805,99938.73,-61,-16,-104
203179,2.595,1.378,0.775,0.267337,0.504101,-1.610685,99938.67,-61,-16,-103
203189,2.092,-0.025,0.573,0.619061,0.508890,-1.932612,99937.63,-63,-20,-97
203199,1.690,-0.723,0.455,1.025593,0.528046,-2.321052,99937.63,-64,-14,-101
203209,2.219,-0.956,0.461,1.319850,0.569550,-2.734501,99938.12,-64,-14,-101
203219,3.256,-0.986,0.637,1.445428,0.633403,-3.114427,99935.02,-67,-15,-97
203229,3.941,-1.074,0.781,1.451813,0.695660,-3.457638,99936.23,-70,-18,-90
203239,4.196,-1.245,0.987,1.407116,0.775477,-3.777968,99934.07,-73,-11,-93
203249,4.332,-1.348,1.270,1.347520,0.873917,-4.083931,99934.07,-73,-11,-93
203259,4.651,-1.129,1.303,1.238437,0.969165,-4.378720,99937.61,-76,-9,-89
203269,5.296,-0.885,1.175,1.108070,1.066009,-4.647967,99934.19,-81,-8,-83
203279,6.407,-0.958,1.071,0.996859,1.166045,-4.887417,99932.45,-84,+1,-86
203289,7.649,-1.368,1.060,0.926089,1.263421,-5.098132,99934.67,-84,+1,-86
203299,8.715,-1.980,1.065,0.902676,1.362394,-5.290756,99934.67,-88,+6,-82
203310,9.796,-2.574,1.038,0.822859,1.455513,-5.489233,99935.41,-93,+11,-73
203319,11.084,-3.215,0.775,0.665887,1.500742,-5.677068,99935.61,-96,+23,-77
203329,12.241,-3.486,0.683,0.569043,1.504999,-5.832444,99936.08,-96,+23,-77
203339,13.049,-3.250,0.866,0.540309,1.472540,-5.964407,99935.88,-99,+31,-70
203350,13.958,-2.958,0.888,0.614805,1.431568,-6.048481,99935.88,-104,+39,-63
203355,15.154,-3.086,1.072,0.748364,1.432632,-6.047416,99933.95,-104,+39,-63
203364,16.753,-3.912,1.265,0.947373,1.426247,-5.988884,99933.95,-103,+54,-66
203374,18.084,-6.230,1.557,1.281006,1.350687,-5.856389,99936.41,-105,+63,-60
203384,17.780,-9.089,1.628,1.692859,1.169238,-5.691967,99936.41,-104,+71,-54
203395,17.723,-11.357,1.787,2.027024,0.995770,-5.508921,99934.79,-104,+71,-54
203405,17.345,-13.060,1.859,2.141428,0.851036,-5.285435,99937.61,-101,+84,-59
203414,16.248,-13.945,2.049,2.051501,0.752064,-4.968297,99938.28,-99,+89,-56
203424,14.922,-14.357,3.098,1.790235,0.720669,-4.545270,99939.13,-99,+95,-51
203435,13.897,-14.939,4.089,1.291116,0.734504,-4.079142,99939.13,-99,+95,-51
203444,12.897,-16.161,3.931,0.668015,0.750468,-3.570446,99936.70,-94,+104,-58
203454,11.718,-17.188,2.894,0.106640,0.783458,-3.044189,99936.70,-92,+108,-53
203464,10.610,-17.407,2.044,-0.268498,0.807403,-2.471639,99940.92,-92,+112,-48
203474,9.614,-16.801,1.489,-0.463782,0.808468,-1.802777,99939.88,-92,+112,-48
203485,9.244,-15.270,1.356,-0.602663,0.779734,-1.029621,99938.67,-90,+118,-52
203494,9.731,-13.729,1.138,-0.658534,0.642981,-0.180374,99938.67,-90,+118,-48
203504,10.222,-13.162,0.692,-0.574993,0.418963,0.626836,99938.67,-92,+116,-43
203514,11.203,-12.519,1.084,-0.340865,0.229532,1.273882,99940.80,-92,+116,-43
203525,11.096,-12.911,-2.044,-0.208901,-0.051954,1.759698,99942.11,-91,+116,-50
203534,12.620,-12.615,-1.123,-0.262112,-0.311623,2.503055,99940.27,-92,+109,-45
203544,18.628,4.013,-0.686,0.471667,-0.690486,2.554670,99940.27,-94,+102,-45
203554,26.665,29.017,-2.969,0.573832,-0.868742,1.354763,99940.27,-94,+102,-45
203565,18.202,9.935,-2.292,0.496676,-1.164595,1.512267,99943.06,-92,+102,-53
203574,10.561,-12.798,1.459,1.660932,-1.000173,2.756872,99943.73,-93,+94,-50
203584,10.340,-10.305,1.364,3.464252,-1.032100,3.345385,99939.48,-95,+83,-52
203589,9.777,-5.684,0.172,3.258858,-0.891623,3.163404,99939.48,-95,+83,-52
203599,9.994,-4.836,-1.111,2.139831,-0.580871,2.731863,99939.48,-94,+75,-61
203610,9.505,-4.882,0.566,1.460859,-0.262669,2.554138,99942.88,-96,+68,-56
203619,6.839,-4.327,3.765,1.695519,-0.181257,2.471129,99942.71,-96,+68,-56
203629,7.016,-6.787,4.661,1.393813,0.000725,2.158780,99939.46,-97,+61,-55
203639,10.264,-7.083,3.633,0.701538,0.070963,1.991698,99939.99,-96,+56,-61
203650,10.004,-4.187,3.216,-0.001379,0.021477,1.811845,99939.99,-97,+52,-55
203659,8.895,-2.538,2.153,-0.672901,0.040633,1.671900,99944.19,-97,+52,-55
203669,9.991,-3.221,1.465,-1.081029,0.022541,1.668175,99940.72,-98,+50,-54
203679,10.216,-3.740,1.776,-1.069855,-0.014174,1.628799,99940.09,-98,+49,-59
203689,9.481,-3.293,1.526,-0.884681,0.015624,1.485662,99940.89,-97,+46,-55
203699,9.113,-2.444,1.188,-0.642571,0.025734,1.363808,99940.89,-97,+46,-55
203709,9.103,-2.276,1.646,-0.322241,0.059789,1.298359,99943.48,-98,+44,-53
203719,9.574,-2.442,1.490,-0.095562,0.127367,1.277074,99941.44,-98,+43,-59
203729,9.924,-2.631,1.159,0.020970,0.189092,1.279735,99941.95,-98,+39,-54
203740,9.683,-3.582,1.761,0.027355,0.180578,1.237698,99940.97,-98,+39,-54
203749,9.326,-4.141,2.577,-0.046608,0.151312,1.107332,99940.97,-99,+36,-52
203759,8.979,-4.311,3.184,-0.239764,0.147587,0.950891,99940.34,-98,+36,-58
203769,8.746,-4.497,2.967,-0.518057,0.151312,0.797644,99939.70,-98,+32,-51
203780,9.167,-3.826,2.708,-0.742608,0.161954,0.654506,99942.90,-98,+32,-51
203789,9.522,-3.223,2.298,-0.835727,0.174193,0.570965,99939.54,-99,+33,-52
203799,9.856,-2.529,2.236,-0.786241,0.173129,0.524139,99939.54,-99,+34,-57
203809,9.885,-1.888,2.303,-0.651085,0.155569,0.508708,99944.79,-99,+32,-50
203820,9.625,-2.053,2.295,-0.454204,0.130028,0.521479,99937.76,-99,+32,-50
203830,9.365,-2.746,2.475,-0.296167,0.093844,0.527332,99940.49,-100,+32,-53
203839,9.165,-3.319,2.976,-0.296700,0.072028,0.496469,99941.80,-99,+32,-57
203849,9.009,-3.700,3.336,-0.422810,0.077881,0.439534,99941.80,-99,+30,-50
203859,8.937,-3.615,3.213,-0.623415,0.100230,0.374616,99940.29,-99,+30,-50
203870,9.052,-3.008,2.672,-0.786241,0.116193,0.334176,99940.66,-100,+30,-53
203879,9.229,-2.424,2.207,-0.800075,0.107679,0.330451,99939.82,-100,+33,-57
203889,9.417,-2.205,1.995,-0.697378,0.074156,0.366635,99938.82,-99,+30,-50
203899,9.484,-2.240,2.083,-0.557965,0.042230,0.431020,99938.82,-99,+30,-50
203910,9.447,-2.610,2.211,-0.451543,0.029459,0.487956,99942.94,-100,+31,-53
203919,9.413,-3.056,2.193,-0.425470,0.029991,0.523607,99942.73,-99,+32,-56
203929,9.276,-3.279,2.326,-0.464846,0.047019,0.541699,99940.95,-99,+29,-50
203939,9.086,-3.245,2.668,-0.574993,0.077881,0.554469,99941.64,-99,+29,-50
203950,9.034,-2.963,2.850,-0.691525,0.118321,0.574158,99941.64,-99,+30,-52
203960,8.917,-2.073,3.117,-0.747396,0.159294,0.621515,99940.44,-99,+30,-56
203969,8.698,-0.861,3.547,-0.694718,0.182174,0.727937,99940.33,-99,+27,-49
203979,8.295,0.274,3.696,-0.486131,0.155037,0.922157,99943.73,-99,+27,-49
203990,8.216,0.409,3.391,-0.148773,0.066174,1.132341,99941.53,-100,+27,-51
204000,8.848,-1.946,2.444,0.080566,-0.074835,1.319111,99941.53,-99,+26,-56
204009,10.154,-3.651,1.567,0.169429,-0.162633,1.446818,99943.05,-98,+19,-49
204019,10.996,-4.612,1.423,0.079502,-0.186046,1.521845,99940.69,-98,+18,-53
204029,10.977,-4.056,1.688,-0.086516,-0.169550,1.582505,99943.00,-98,+18,-53
204040,10.898,-3.145,2.151,-0.193470,-0.179660,1.664450,99937.44,-97,+17,-56
204049,11.012,-2.572,2.499,-0.142388,-0.258412,1.798010,99937.44,-95,+9,-50
204060,11.157,-2.638,2.577,-0.023550,-0.390021,1.968640,99941.37,-95,+7,-55
204069,11.525,-3.175,2.536,0.056089,-0.503183,2.099716,99939.59,-95,+7,-55
204080,12.427,-3.768,2.327,0.068328,-0.604284,2.218909,99940.48,-92,+5,-57
204090,13.112,-4.308,2.655,0.005007,-0.664412,2.331184,99940.85,-91,-2,-52
204099,13.489,-4.489,3.171,-0.086516,-0.693146,2.436542,99940.85,-89,-5,-58
204109,13.895,-4.611,3.584,-0.228057,-0.701660,2.524340,99943.05,-89,-5,-58
204120,14.296,-4.955,3.687,-0.430259,-0.683036,2.568505,99940.22,-87,-8,-61
204130,15.143,-4.861,3.384,-0.711213,-0.666541,2.569037,99938.91,-84,-15,-56
204139,16.810,-4.356,2.516,-0.995360,-0.672394,2.583404,99938.64,-82,-17,-64
204149,19.167,-3.481,2.653,-1.167763,-0.750614,2.614798,99938.64,-82,-17,-64
204160,21.119,-2.024,3.113,-1.260350,-0.810210,2.697275,99943.25,-78,-20,-68
204170,22.441,-0.658,3.400,-1.495543,-0.752210,2.806890,99936.64,-75,-25,-64
204179,23.975,1.895,4.069,-1.849396,-0.667073,2.895752,99940.78,-73,-25,-71
204189,23.937,5.697,4.873,-2.195799,-0.552669,2.973972,99937.89,-73,-25,-71
204199,21.823,7.269,5.262,-2.435781,-0.448908,2.999514,99937.89,-69,-27,-76
204210,19.013,6.376,4.755,-2.471964,-0.438266,2.944174,99940.13,-64,-31,-74
204220,15.697,1.705,3.421,-2.286258,-0.546284,2.870743,99934.41,-63,-30,-82
204229,13.150,-6.063,1.819,-1.830240,-0.729330,3.018670,99938.34,-63,-30,-82
204239,12.790,-11.648,2.621,-1.388057,-1.018265,3.284192,99938.19,-59,-34,-85
204250,12.707,-13.625,3.821,-1.098057,-1.153421,3.424137,99938.19,-52,-39,-84
204260,12.119,-14.083,6.214,-0.549984,-1.166724,3.417220,99940.05,-49,-42,-90
204269,10.685,-9.761,8.244,0.336511,-0.991660,3.048468,99939.58,-49,-42,-90
204279,8.441,-1.785,7.225,0.557869,-0.707513,2.237533,99937.84,-44,-46,-92
204290,6.676,6.181,5.393,0.057686,-0.336633,1.281331,99939.63,-42,-50,-87
204295,6.295,9.055,3.201,-0.393544,-0.151991,0.688029,99939.63,-42,-50,-87
204305,5.450,6.480,2.928,-0.683543,-0.159440,0.451240,99939.63,-43,-48,-93
204315,4.300,2.887,3.458,-0.717598,-0.012578,0.341093,99942.04,-41,-47,-94
204324,4.036,2.423,2.642,-0.688332,0.089055,-0.175585,99938.95,-42,-47,-90
204335,3.388,3.190,2.269,-0.710681,0.203991,-0.900319,99940.93,-42,-47,-90
204345,2.928,2.781,2.290,-0.816571,0.371606,-1.445199,99937.43,-45,-41,-95
204355,2.906,1.556,1.289,-0.862864,0.410982,-1.925694,99937.38,-48,-36,-93
204364,2.997,0.284,0.345,-0.654809,0.435459,-2.375327,99937.01,-50,-34,-90
204375,3.367,-0.109,0.165,-0.239764,0.482284,-2.803675,99937.01,-50,-34,-90
204385,3.895,0.207,0.373,0.179007,0.542945,-3.201694,99935.65,-56,-26,-93
204395,4.340,0.599,0.742,0.503594,0.619036,-3.537455,99937.85,-59,-20,-90
204404,4.651,1.069,1.113,0.822859,0.696725,-3.805638,99937.85,-63,-16,-83
204414,4.964,1.331,1.409,1.177777,0.755789,-4.005179,99937.26,-63,-16,-83
204425,5.372,1.050,2.083,1.581116,0.813257,-4.189289,99936.05,-70,-7,-85
204435,5.928,-0.172,2.981,1.908895,0.872321,-4.396811,99932.12,-72,-1,-79
204445,6.506,-1.663,3.268,2.107905,0.917018,-4.654885,99932.70,-75,+4,-72
204454,7.109,-2.826,3.166,2.188785,1.009605,-4.911362,99932.70,-75,+4,-72
204465,7.769,-3.491,3.049,2.212198,1.144761,-5.108775,99934.73,-78,+17,-73
204475,8.577,-3.759,2.834,2.214859,1.276724,-5.290756,99931.48,-78,+26,-67
204485,9.765,-3.752,2.442,2.173886,1.358669,-5.500407,99931.95,-80,+34,-61
204494,11.132,-3.695,2.234,2.066932,1.383678,-5.714848,99931.95,-80,+34,-61
204505,12.466,-3.821,2.425,1.915281,1.382082,-5.885655,99931.95,-79,+50,-63
204515,13.744,-4.337,2.739,1.667318,1.334192,-6.028260,99933.23,-73,+60,-58
204525,15.067,-5.553,2.948,1.318786,1.314504,-6.147985,99934.64,-68,+70,-54
204534,16.333,-7.428,3.176,0.908529,1.381550,-6.250682,99935.11,-68,+70,-54
204545,17.209,-9.259,3.233,0.543502,1.482118,-6.319324,99936.84,-63,+84,-58
204555,18.284,-10.615,3.075,0.250309,1.576834,-6.303893,99936.84,-56,+90,-54
204565,19.513,-12.417,2.902,0.090676,1.642816,-6.150645,99939.48,-50,+97,-50
204575,19.839,-14.583,2.542,0.108768,1.642816,-5.858517,99939.88,-50,+97,-50
204584,19.532,-16.787,2.594,0.151337,1.586944,-5.454114,99938.80,-47,+108,-52
204595,17.941,-18.735,3.008,0.239135,1.476265,-4.907637,99938.80,-43,+110,-46
204605,14.871,-19.473,2.485,0.247649,1.363458,-4.236647,99940.72,-42,+114,-42
204614,12.548,-20.930,1.204,0.157722,1.231495,-3.454446,99940.72,-42,+114,-42
204624,10.594,-22.908,-0.410,0.186988,1.056963,-2.655749,99941.09,-42,+121,-45
204635,8.978,-22.918,-1.213,0.122603,0.917550,-1.830979,99939.20,-41,+120,-39
204645,8.291,-20.646,-1.500,-0.103012,0.718541,-0.867860,99941.52,-42,+121,-35
204654,8.389,-18.531,-1.482,-0.174846,0.479092,0.267130,99941.52,-42,+121,-35
204665,9.213,-17.387,-0.963,0.043851,0.192817,1.342524,99942.63,-43,+125,-38
204675,10.677,-14.937,-2.161,0.534456,-0.080688,2.101312,99943.36,-45,+121,-35
204685,11.123,-16.076,-4.215,0.229557,-0.485091,2.844670,99942.67,-49,+117,-34
204695,19.218,2.502,-1.425,0.910125,-1.028375,3.318779,99943.72,-52,+114,-42
204705,33.011,43.585,-4.062,1.613575,-1.186944,1.450542,99946.61,-52,+114,-42
204715,21.845,12.845,-5.651,0.723887,-1.289109,1.534083,99944.83,-50,+110,-39
204725,11.342,-21.423,3.052,2.380345,-0.977293,3.492779,99944.83,-53,+104,-38
204735,9.115,-16.430,2.364,4.986086,-1.147036,4.255293,99940.05,-56,+96,-47
204744,8.465,-7.780,-1.176,2.534124,-0.638871,3.191605,99940.25,-56,+96,-47
204754,9.051,-4.811,1.367,0.872346,-0.038651,2.893624,99940.25,-57,+89,-43
204766,4.877,-2.792,6.308,1.139997,-0.089202,2.744456,99942.69,-59,+85,-41
204775,6.423,-5.872,6.545,1.107006,-0.007257,2.492413,99942.69,-62,+81,-45
204785,11.300,-7.183,3.530,0.683447,-0.170614,2.442927,99941.81,-62,+81,-45
204794,11.358,-7.706,1.497,0.149208,-0.292467,2.245514,99942.97,-61,+75,-42
204805,10.459,-8.260,0.662,-0.785176,-0.260541,2.039056,99942.97,-63,+73,-40
204815,9.872,-6.646,0.856,-1.408277,-0.274376,1.863459,99941.61,-64,+75,-45
204825,8.909,-4.594,1.621,-1.644001,-0.269055,1.611772,99941.77,-64,+75,-45
204835,8.306,-3.266,1.713,-1.653579,-0.346743,1.390946,99939.45,-63,+71,-39
204845,8.550,-1.442,0.966,-1.251304,-0.274376,1.330285,99939.45,-64,+71,-40
204855,9.994,0.188,1.180,-0.572864,-0.151458,1.375515,99939.45,-64,+72,-43
204865,10.394,-0.743,2.460,0.195502,-0.142413,1.454267,99944.31,-64,+72,-43
204875,9.376,-3.280,2.771,0.698878,-0.220101,1.428194,99941.42,-64,+67,-39
204884,8.643,-5.538,2.303,0.691960,-0.225422,1.287717,99939.33,-65,+65,-40
204895,8.637,-6.597,2.471,0.127392,-0.148798,1.067423,99938.17,-66,+65,-44
204905,8.728,-5.334,3.152,-0.578186,-0.071642,0.832763,99938.17,-66,+65,-44
204915,9.015,-3.391,2.960,-1.021965,-0.039715,0.669405,99941.28,-65,+62,-38
204924,9.589,-2.146,2.499,-1.008130,-0.030669,0.593313,99942.70,-65,+63,-40
204935,9.998,-1.366,1.921,-0.676094,-0.040780,0.602891,99941.00,-66,+64,-43
204945,9.943,-1.520,1.496,-0.243489,-0.067385,0.655038,99941.00,-66,+64,-43
204955,9.602,-2.350,1.369,0.100254,-0.091862,0.700268,99942.47,-66,+61,-38
204964,9.188,-3.600,1.846,0.212530,-0.086541,0.703992,99942.47,-66,+61,-40
204975,8.889,-4.547,2.418,-0.005635,-0.035991,0.654506,99941.41,-66,+61,-43
204985,8.842,-4.417,2.578,-0.400993,0.043294,0.565644,99941.83,-66,+61,-43
204995,9.091,-3.472,2.344,-0.681415,0.113000,0.486359,99940.63,-66,+58,-38
205004,9.362,-2.765,1.941,-0.728773,0.140670,0.449644,99940.63,-66,+60,-39
205015,9.384,-2.589,1.593,-0.630332,0.127367,0.451772,99942.92,-67,+61,-42
205025,9.348,-2.827,1.526,-0.498901,0.113532,0.468800,99942.03,-67,+61,-42
205035,9.405,-3.116,1.605,-0.441433,0.116725,0.489020,99939.52,-66,+58,-37
205045,9.335,-3.297,1.833,-0.461121,0.127899,0.512965,99939.64,-68,+59,-39
205056,9.256,-3.188,2.109,-0.507415,0.145459,0.538506,99941.17,-68,+60,-41
205065,9.335,-3.105,2.295,-0.540938,0.157697,0.569901,99942.42,-68,+60,-41
205075,9.252,-2.878,2.321,-0.548920,0.163018,0.616194,99940.80,-67,+56,-35
205085,9.050,-2.283,2.336,-0.544131,0.153441,0.692818,99940.80,-69,+58,-38
205094,9.131,-1.550,2.275,-0.465378,0.120982,0.812543,99938.13,-69,+58,-39
205105,9.609,-1.160,2.317,-0.259452,0.069367,0.962066,99938.13,-69,+58,-39
205115,10.035,-1.697,2.420,-0.010957,-0.009917,1.122763,99942.32,-68,+54,-32
205120,10.026,-2.495,2.664,0.124731,-0.053018,1.233974,99940.16,-70,+54,-37
205130,9.818,-3.245,2.937,0.143887,-0.083348,1.315386,99939.49,-70,+54,-37
205139,9.579,-3.223,3.207,0.057153,-0.113146,1.405845,99941.90,-70,+53,-39
205150,9.730,-2.558,3.301,-0.038626,-0.155183,1.506946,99941.90,-69,+48,-33
205160,10.303,-2.408,3.105,-0.050865,-0.216376,1.641038,99939.86,-70,+46,-36
205170,11.072,-2.666,2.554,-0.034369,-0.274908,1.779918,99941.06,-70,+46,-36
205179,12.306,-3.167,1.352,-0.033837,-0.334504,1.918267,99940.59,-70,+45,-38
205190,13.143,-3.430,0.896,0.005007,-0.395165,2.049698,99941.33,-70,+39,-33
205200,13.776,-3.578,1.247,0.018309,-0.446247,2.176340,99941.33,-70,+38,-37
205210,14.245,-3.877,1.982,-0.025856,-0.493605,2.313624,99939.47,-70,+38,-37
205220,14.285,-3.810,2.685,-0.085452,-0.542559,2.449844,99939.31,-70,+34,-38
205230,14.296,-3.759,3.262,-0.177507,-0.575550,2.573294,99939.36,-68,+29,-33
205240,14.864,-3.676,3.611,-0.327030,-0.593109,2.690358,99938.41,-69,+27,-37
205250,16.151,-3.366,3.921,-0.518589,-0.604816,2.815936,99938.41,-69,+27,-37
205260,18.563,-2.914,5.212,-0.714406,-0.636743,2.944174,99938.88,-68,+23,-38
205270,21.059,-1.486,7.223,-0.893195,-0.628761,3.065495,99939.56,-66,+18,-32
205280,21.379,-0.074,7.908,-1.170956,-0.466467,3.179367,99939.34,-67,+16,-36
205290,22.782,1.480,7.506,-1.603029,-0.310027,3.241091,99937.45,-67,+16,-36
205300,23.801,4.121,6.835,-2.170790,-0.146137,3.271954,99937.45,-66,+13,-36
205310,21.827,4.519,5.260,-2.744404,0.031055,3.300688,99939.54,-65,+9,-30
205320,19.806,2.822,2.649,-3.208404,0.148652,3.253862,99938.02,-67,+9,-33
205330,16.865,-0.935,1.472,-3.556936,0.056064,3.041018,99939.45,-67,+9,-33
205340,12.425,-7.611,2.078,-3.622386,-0.267458,3.041018,99938.71,-68,+9,-33
205350,11.944,-11.083,2.790,-3.356330,-0.395165,3.191605,99938.71,-66,+5,-29
205360,13.023,-11.092,5.220,-2.944478,-0.503715,3.404449,99940.04,-68,+5,-34
205370,12.046,-9.259,6.088,-1.700405,-0.428155,3.336339,99940.30,-68,+5,-34
205380,9.656,-5.672,7.111,-0.747396,-0.162633,2.923422,99941.35,-68,+1,-33
205390,7.223,0.382,5.734,-0.518589,0.180578,2.112487,99938.88,-68,-4,-30
205400,6.766,6.172,2.884,-0.905965,0.377991,1.202047,99938.88,-72,-1,-34
205410,6.494,6.355,1.045,-1.161378,0.323716,0.598635,99940.46,-75,-2,-34
205420,5.888,3.591,1.759,-0.993231,0.419495,0.435809,99941.24,-75,-2,-34
205430,5.477,3.196,1.915,-0.653213,0.465789,-0.030319,99937.41,-77,-4,-31
205440,4.247,3.984,1.633,-0.171122,0.519000,-0.705566,99937.30,-83,+0,-35
205450,3.167,3.759,1.759,0.084823,0.696192,-1.145089,99937.30,-86,+1,-33
205460,2.542,2.230,1.023,0.271062,0.733972,-1.473401,99937.79,-86,+1,-33
205470,2.428,0.153,0.376,0.633428,0.716413,-1.868936,99942.26,-89,+1,-30
205480,2.904,-1.029,0.130,1.041556,0.699917,-2.264648,99940.74,-96,+9,-35
205490,3.759,-1.141,0.146,1.377850,0.699385,-2.748336,99935.43,-100,+11,-33
205500,4.745,-0.551,0.258,1.497575,0.732908,-3.180941,99935.43,-100,+11,-33
205510,5.195,-0.018,0.407,1.485868,0.801550,-3.528941,99940.91,-103,+15,-30
205520,5.004,-0.065,0.726,1.533226,0.864871,-3.806170,99937.23,-108,+26,-35
205530,5.180,-0.080,1.121,1.743409,0.923403,-4.071160,99934.77,-112,+30,-33
205540,5.982,-0.399,1.580,1.887079,0.992045,-4.337748,99932.41,-112,+30,-33
205550,6.802,-1.505,1.862,1.830143,1.055367,-4.594757,99932.41,-115,+36,-30
205560,7.356,-2.534,1.757,1.659868,1.112834,-4.845912,99935.10,-120,+48,-35
205570,7.761,-3.008,1.467,1.465116,1.177220,-5.085894,99932.84,-122,+56,-33
205580,8.388,-3.239,1.212,1.266639,1.269807,-5.313105,99931.48,-122,+56,-33
205590,9.421,-3.272,1.008,1.111972,1.385452,-5.540493,99931.59,-125,+65,-29
205600,10.466,-3.337,1.106,1.024529,1.476265,-5.703673,99931.59,-128,+80,-31
205611,11.557,-3.533,1.499,0.955355,1.532137,-5.876077,99935.80,-129,+90,-27
205620,12.695,-3.425,2.234,0.843612,1.529476,-6.082535,99935.00,-129,+90,-27
205630,14.063,-3.460,2.346,0.637153,1.578430,-6.255471,99935.80,-129,+105,-22
205640,15.815,-4.005,2.089,0.467942,1.688045,-6.346462,99934.69,-127,+125,-24
205650,17.647,-5.168,2.087,0.448254,1.805641,-6.356572,99934.69,-121,+141,-19
205660,18.757,-7.313,1.997,0.598841,1.840228,-6.283673,99936.04,-121,+141,-19
205670,18.949,-9.605,1.605,0.839887,1.809898,-6.112334,99936.15,-113,+156,-16
205680,18.982,-12.408,1.666,1.005373,1.704008,-5.805838,99936.66,-105,+174,-21
205690,19.005,-15.347,1.910,1.105942,1.543311,-5.400371,99934.37,-95,+182,-20
205700,18.999,-17.436,2.393,1.079868,1.420926,-4.907105,99934.37,-95,+182,-20
205710,17.841,-18.676,2.987,1.017079,1.294816,-4.365417,99939.09,-87,+190,-21
205720,14.995,-19.205,2.234,0.967061,1.170302,-3.843950,99939.25,-81,+199,-27
205730,12.508,-21.123,1.057,0.982492,1.047385,-3.293216,99940.45,-74,+201,-26
205741,10.307,-23.167,0.801,0.881391,0.981403,-2.714281,99940.45,-74,+201,-26
205750,8.150,-22.305,0.668,0.260419,0.925000,-1.968263,99940.45,-71,+203,-26
205760,7.525,-20.242,0.680,-0.576589,0.833477,-0.912557,99943.55,-70,+207,-30
205770,8.523,-17.946,-0.102,-1.127323,0.612119,0.226690,99942.93,-71,+204,-24
205780,9.816,-16.219,-1.633,-0.899048,0.300303,1.251001,99941.82,-71,+204,-24
205790,10.612,-15.530,-1.079,-0.299360,0.066174,2.095991,99941.77,-76,+201,-22
205800,12.538,-12.376,-0.265,0.314695,-0.131770,2.716431,99941.77,-80,+198,-27
205810,15.128,-6.363,-5.642,0.283832,-0.626100,2.996853,99943.91,-84,+188,-25
205820,21.344,15.576,-1.986,0.902676,-1.115109,3.096358,99944.70,-84,+188,-25
205826,28.494,44.441,-4.288,2.275519,-1.202375,1.799074,99940.60,-89,+181,-29
205835,24.902,31.502,-1.906,1.877501,-1.269953,0.975368,99940.60,-91,+180,-40
205845,12.474,-10.306,-2.195,1.904106,-1.407770,2.469000,99942.29,-91,+180,-40
205855,9.549,-21.728,5.061,4.756747,-1.234834,3.984981,99942.29,-96,+168,-43
205865,8.538,-12.250,0.908,5.143590,-1.075733,3.638577,99941.83,-102,+154,-52
205876,10.127,-9.082,-0.741,2.243060,-0.319073,2.656835,99944.39,-106,+147,-58
205885,8.763,-5.465,3.627,1.203850,0.022541,2.707917,99939.63,-106,+147,-58
205895,6.767,-4.236,5.992,1.100089,-0.061532,2.430688,99939.63,-109,+139,-56
205905,9.628,-5.317,4.050,0.681318,0.043294,2.262010,99939.63,-113,+132,-56
205916,11.654,-5.861,2.532,-0.006168,-0.122724,2.230083,99942.96,-115,+129,-60
205925,10.315,-6.795,2.601,-0.563287,-0.311091,2.011918,99942.70,-115,+129,-60
205935,9.200,-6.030,2.445,-0.934699,-0.403146,1.826744,99944.37,-117,+123,-56
205945,9.330,-3.732,2.310,-1.158717,-0.420174,1.663918,99942.43,-119,+121,-56
205956,9.037,-2.877,2.502,-1.458827,-0.418577,1.546322,99942.43,-120,+120,-60
205966,8.716,-2.835,1.937,-1.499268,-0.323862,1.497900,99946.25,-120,+120,-60
205975,8.849,-1.999,1.093,-1.037396,-0.198284,1.409570,99940.91,-120,+117,-55
205985,9.913,-0.575,1.477,-0.277544,-0.132835,1.364341,99941.50,-123,+114,-56
205996,9.976,-1.378,2.404,0.310438,-0.242981,1.375515,99941.50,-123,+112,-59
206006,9.348,-3.665,2.316,0.566915,-0.348871,1.298891,99943.02,-123,+112,-59
206015,9.101,-5.279,2.111,0.371098,-0.320669,1.144579,99941.64,-124,+107,-56
206025,8.945,-5.426,2.412,-0.146645,-0.224890,0.953020,99941.64,-125,+104,-58
206035,8.810,-4.089,3.042,-0.691525,-0.141348,0.772102,99944.27,-126,+104,-61
206046,9.176,-2.455,3.143,-0.908626,-0.088137,0.663020,99943.59,-126,+104,-61
206055,9.613,-1.495,2.530,-0.806461,-0.070046,0.647589,99943.59,-125,+103,-56
206065,9.869,-1.378,1.926,-0.490387,-0.079091,0.686965,99941.03,-127,+102,-57
206075,9.656,-2.009,1.579,-0.160479,-0.098780,0.732726,99940.72,-127,+101,-61
206086,9.316,-3.188,1.874,-0.033305,-0.100908,0.749222,99939.56,-127,+101,-56
206096,9.056,-4.007,2.336,-0.179635,-0.067917,0.714634,99941.39,-127,+98,-56
206105,9.086,-3.670,2.499,-0.448883,-0.005660,0.649717,99943.13,-128,+98,-58
206115,9.311,-2.905,2.466,-0.605323,0.039037,0.609809,99940.93,-128,+98,-60
206126,9.396,-2.414,2.283,-0.588296,0.057129,0.614598,99940.20,-129,+94,-55
206135,9.318,-2.478,2.031,-0.520186,0.063514,0.651846,99940.20,-129,+94,-55
206145,9.291,-2.659,1.939,-0.484002,0.069367,0.692818,99940.82,-131,+94,-56
206155,9.348,-2.553,1.874,-0.456332,0.081606,0.731662,99940.82,-129,+94,-59
206166,9.487,-2.466,2.036,-0.418021,0.089055,0.790194,99940.83,-130,+91,-54
206176,9.501,-2.824,2.178,-0.394608,0.060321,0.856176,99938.56,-130,+91,-54
206185,9.348,-2.948,2.199,-0.421213,0.022541,0.913644,99938.09,-131,+90,-56
206195,9.089,-2.759,2.242,-0.436644,0.009239,0.974836,99938.47,-132,+89,-58
206205,8.952,-2.546,2.087,-0.444626,-0.001936,1.050396,99938.47,-133,+85,-53
206216,9.045,-2.377,2.047,-0.420149,-0.020559,1.141387,99938.54,-133,+85,-53
206226,9.508,-2.207,2.350,-0.324369,-0.055679,1.240359,99941.63,-134,+83,-55
206235,9.862,-2.798,2.449,-0.177507,-0.096119,1.336671,99942.79,-134,+81,-57
206245,9.961,-3.618,2.625,-0.065764,-0.120064,1.413827,99942.79,-134,+75,-53
206256,9.951,-4.412,2.518,-0.066296,-0.132302,1.454799,99942.79,-134,+75,-53
206266,9.773,-4.491,2.500,-0.171654,-0.124321,1.484597,99942.72,-136,+73,-55
206275,9.948,-3.736,2.426,-0.303617,-0.126981,1.505882,99944.45,-136,+69,-58
206285,10.926,-2.662,2.441,-0.342993,-0.183385,1.600065,99939.98,-136,+64,-53
206296,11.826,-2.577,1.922,-0.258388,-0.254688,1.748524,99937.78,-136,+64,-53
206305,12.532,-3.117,1.248,-0.130149,-0.300981,1.901771,99937.78,-138,+60,-57
206316,13.304,-3.428,0.943,-0.096094,-0.338761,2.049698,99944.11,-138,+56,-59
206325,13.850,-3.458,1.281,-0.115782,-0.405807,2.202945,99943.69,-137,+48,-56
206336,14.400,-3.340,1.730,-0.147177,-0.470192,2.368432,99940.28,-137,+48,-56
206346,14.537,-3.234,2.393,-0.153562,-0.527660,2.516890,99940.28,-138,+44,-61
206356,14.651,-3.176,2.981,-0.219012,-0.561183,2.665349,99941.03,-138,+37,-63
206365,15.086,-3.371,3.347,-0.374920,-0.570229,2.804229,99941.34,-136,+28,-59
206375,16.041,-3.335,3.731,-0.583507,-0.569165,2.897349,99941.34,-136,+28,-59
206386,17.522,-2.824,4.372,-0.811250,-0.558522,2.984082,99940.61,-138,+23,-66
206396,20.125,-1.974,6.447,-0.990039,-0.594706,3.041018,99939.41,-136,+16,-67
206405,21.939,-0.723,7.971,-1.304515,-0.542027,3.101679,99939.41,-134,+7,-65
206415,23.097,0.381,8.401,-1.919634,-0.378669,3.105403,99940.40,-134,+7,-65
206426,24.510,3.202,8.074,-2.814111,-0.184449,3.004303,99936.77,-134,+4,-72
206436,23.208,6.607,7.209,-3.674532,0.011367,2.872339,99939.82,-134,+1,-74
206446,19.502,8.047,4.661,-4.123101,0.148119,2.751019,99936.09,-131,-1,-74
206455,15.077,1.932,0.919,-3.943780,-0.024284,2.815936,99942.18,-131,-1,-74
206466,12.529,-8.474,-0.556,-3.217450,-0.473917,3.184156,99940.66,-133,-1,-81
206476,12.314,-13.324,2.930,-2.397469,-0.840541,3.427330,99938.87,-128,-6,-84
206486,12.083,-13.367,4.805,-1.509910,-0.857568,3.362945,99938.29,-124,-14,-85
206495,11.150,-13.144,7.242,-0.756974,-0.715495,3.356027,99938.29,-124,-14,-85
206505,8.224,-9.107,7.666,0.097594,-0.445183,2.943110,99938.29,-123,-20,-91
206516,6.216,-1.511,6.097,0.182731,0.097569,2.082689,99943.09,-120,-27,-91
206526,6.572,5.290,2.402,-0.390351,0.341275,1.163735,99939.00,-118,-30,-89
206531,6.161,6.797,0.277,-0.801140,0.208780,0.568836,99938.48,-118,-30,-89
206540,5.083,4.525,0.887,-0.853286,0.222615,0.398029,99940.16,-120,-29,-95
206551,4.588,2.225,1.716,-0.795819,0.354046,0.207534,99940.16,-120,-29,-93
206561,3.991,2.649,1.288,-0.516993,0.371073,-0.400668,99941.25,-120,-29,-93
206571,2.934,3.679,1.545,-0.228057,0.537092,-0.980135,99938.58,-120,-29,-92
206580,2.117,3.148,1.555,-0.004039,0.660009,-1.349419,99937.73,-125,-25,-94
206590,1.846,1.653,0.622,0.333851,0.668523,-1.746373,99938.31,-126,-23,-92
206601,1.803,-0.122,0.160,0.694089,0.688211,-2.136942,99938.31,-126,-23,-92
206611,2.035,-1.378,0.148,1.027722,0.706835,-2.493455,99940.18,-127,-19,-88
206620,2.730,-1.509,0.315,1.262382,0.752064,-2.877639,99938.38,-132,-12,-88
206630,3.756,-0.873,0.662,1.376253,0.840394,-3.281510,99937.29,-134,-8,-86
206641,4.595,0.240,1.034,1.400198,0.943623,-3.653455,99935.09,-134,-8,-86
206651,4.405,0.934,1.441,1.454474,1.011734,-3.959418,99935.09,-135,-2,-80
206660,4.451,1.356,1.991,1.674235,1.068669,-4.223876,99939.13,-141,+7,-80
206670,5.557,0.606,2.454,1.894528,1.136779,-4.462261,99934.30,-141,+15,-76
206681,6.608,-1.108,2.845,1.951996,1.211275,-4.680426,99936.51,-141,+15,-76
206691,7.182,-2.686,2.724,1.866859,1.284706,-4.918279,99934.68,-143,+23,-71
206700,7.678,-3.456,2.313,1.709354,1.369311,-5.154536,99934.68,-147,+36,-71
206710,8.492,-3.566,1.975,1.493850,1.481586,-5.389196,99936.95,-147,+46,-66
206721,9.784,-3.438,1.622,1.321446,1.564063,-5.618536,99936.63,-147,+46,-66
206731,11.132,-3.167,1.619,1.210767,1.643880,-5.818609,99935.90,-147,+58,-60
206741,12.349,-2.983,1.880,1.099024,1.670485,-5.978774,99935.79,-147,+74,-61
206750,13.398,-3.135,2.029,1.014951,1.681128,-6.128297,99935.79,-144,+87,-55
206760,14.600,-3.762,2.290,0.829245,1.722100,-6.277820,99940.85,-144,+87,-55
206767,15.791,-4.580,2.317,0.650456,1.751898,-6.391159,99938.91,-141,+102,-47
206776,17.243,-5.230,2.132,0.494548,1.768926,-6.494389,99938.91,-136,+121,-47
206786,19.171,-6.025,1.871,0.351942,1.804045,-6.552920,99936.60,-136,+121,-47
206795,20.716,-7.142,1.849,0.349282,1.817348,-6.500774,99936.76,-129,+135,-41
206806,21.434,-8.814,1.654,0.522217,1.750834,-6.321985,99936.76,-122,+150,-35
206816,21.457,-11.158,1.900,0.798914,1.623128,-5.981966,99937.80,-115,+166,-36
206826,20.716,-13.937,2.334,1.100089,1.494357,-5.487104,99939.96,-115,+166,-36
206836,19.150,-16.213,2.257,1.296437,1.390064,-4.878371,99941.54,-105,+174,-33
206845,17.224,-18.808,1.612,1.334217,1.279917,-4.220684,99941.54,-98,+183,-30
206856,14.302,-22.892,-0.246,1.389556,1.100596,-3.572574,99941.54,-92,+191,-36
206866,10.883,-25.461,-1.173,1.288455,1.042596,-2.944685,99942.88,-92,+191,-36
206875,8.059,-24.004,-1.446,0.660566,1.014926,-2.066703,99942.88,-86,+193,-33
206885,7.618,-20.747,-0.922,-0.165268,0.838266,-0.783254,99942.09,-84,+196,-30
206896,9.483,-17.004,-1.147,-0.602131,0.435991,0.591185,99940.52,-85,+197,-32
206906,10.497,-16.079,-0.991,-0.473360,0.014560,1.738946,99940.52,-85,+197,-32
206916,11.776,-14.946,1.257,0.142291,-0.292467,2.553606,99946.13,-87,+191,-29
206925,12.111,-14.333,-3.547,0.314695,-0.667605,3.034101,99941.69,-91,+186,-29
206936,17.952,-1.468,2.849,0.862768,-0.957073,3.668376,99940.56,-96,+180,-36
206946,31.041,40.804,-0.975,2.560730,-1.065091,2.119404,99940.56,-96,+180,-36
206956,23.661,18.622,-5.648,0.769116,-1.124687,1.443093,99946.43,-96,+172,-38
206965,11.503,-21.465,0.819,1.398602,-1.093825,3.450743,99946.43,-99,+168,-40
206976,8.225,-19.010,3.058,4.959480,-1.092761,4.380339,99943.49,-105,+156,-53
206986,7.674,-9.058,-2.544,2.916179,-0.725605,3.195862,99942.60,-105,+156,-53
206996,9.545,-8.297,0.005,0.376419,0.025734,2.658963,99943.29,-107,+145,-53
207001,7.643,-5.911,5.827,0.266273,0.057661,2.694083,99943.29,-112,+140,-52
207010,6.204,-5.903,8.497,0.357795,0.057129,2.400358,99941.76,-112,+140,-52
207021,9.798,-6.961,5.284,0.103979,0.196009,2.223698,99943.07,-114,+136,-56
207031,12.489,-5.401,1.754,-0.523910,-0.014706,2.187514,99940.60,-116,+129,-51
207041,10.239,-5.893,2.366,-1.266736,-0.003000,1.966157,99942.34,-119,+127,-50
207050,8.863,-4.375,1.801,-1.563121,0.031587,1.840579,99942.34,-119,+127,-50
207060,8.930,-2.582,2.893,-1.449249,0.103954,1.740010,99944.21,-121,+126,-52
207071,9.664,-2.928,2.528,-1.307708,-0.003000,1.617093,99945.68,-121,+122,-47
207081,9.652,-1.900,1.939,-0.942681,-0.109422,1.544194,99940.18,-124,+119,-46
207091,9.449,-2.094,2.089,-0.538277,-0.145073,1.511735,99941.70,-124,+119,-46
207100,9.897,-2.282,2.262,-0.204645,-0.206266,1.459056,99941.70,-126,+118,-50
207111,9.601,-2.624,2.676,-0.063103,-0.215312,1.401588,99941.68,-126,+112,-47
207121,9.185,-4.665,3.463,-0.192938,-0.188706,1.348909,99941.04,-127,+111,-48
207131,9.281,-5.019,3.026,-0.493580,-0.139220,1.154689,99942.93,-127,+111,-48
207140,9.026,-3.607,2.794,-0.748993,-0.074835,0.944506,99939.57,-128,+110,-50
207151,8.936,-2.683,2.813,-0.713874,-0.074302,0.834891,99939.57,-127,+107,-47
207161,9.125,-2.248,2.644,-0.574461,-0.105165,0.780616,99941.18,-130,+106,-47
207171,9.359,-2.877,2.520,-0.480277,-0.124321,0.755607,99943.54,-130,+106,-47
207180,9.575,-3.492,2.325,-0.433984,-0.120596,0.725277,99939.40,-130,+106,-49
207191,9.512,-3.693,2.299,-0.509543,-0.076431,0.677919,99943.27,-129,+104,-46
207201,9.361,-3.367,2.418,-0.632461,-0.027477,0.624708,99943.27,-131,+103,-46
207211,9.191,-2.776,2.565,-0.694718,0.002321,0.591185,99941.05,-131,+103,-46
207221,9.038,-2.653,2.589,-0.651617,0.001789,0.582139,99940.83,-132,+102,-49
207230,8.883,-2.819,2.697,-0.544131,-0.024284,0.586396,99938.16,-131,+100,-45
207237,8.740,-3.005,2.705,-0.496773,-0.042376,0.587992,99939.00,-131,+100,-45
207246,8.630,-3.266,2.821,-0.476553,-0.043972,0.579479,99939.00,-133,+100,-46
207256,8.640,-3.443,2.981,-0.513800,-0.041844,0.568304,99939.00,-133,+101,-48
207266,8.651,-3.163,3.082,-0.574993,-0.032798,0.557662,99941.42,-131,+98,-43
207276,8.662,-2.540,3.124,-0.620222,-0.022688,0.565112,99940.80,-131,+98,-43
207286,8.770,-2.057,3.066,-0.650553,-0.018963,0.600231,99942.06,-134,+98,-46
207296,8.831,-1.995,2.902,-0.580846,-0.029605,0.663020,99942.06,-134,+98,-47
207306,8.799,-2.025,2.849,-0.470699,-0.036523,0.740176,99939.66,-133,+94,-43
207315,8.664,-2.155,2.977,-0.388755,-0.034394,0.810414,99939.66,-133,+94,-43
207326,8.366,-2.074,3.271,-0.328094,-0.048229,0.875332,99941.09,-135,+94,-45
207336,7.897,-1.744,3.247,-0.240828,-0.078559,0.977497,99941.98,-135,+93,-47
207346,7.933,-2.878,2.473,-0.134406,-0.146669,1.108928,99942.66,-134,+88,-43
207355,9.482,-4.066,1.318,-0.069489,-0.227018,1.212157,99942.66,-134,+88,-43
207366,10.976,-4.452,1.027,-0.143452,-0.251495,1.280799,99944.77,-136,+87,-45
207376,11.421,-4.210,1.288,-0.303085,-0.243513,1.292506,99941.20,-136,+85,-48
207386,11.097,-3.372,1.680,-0.430259,-0.255220,1.322836,99941.42,-135,+80,-45
207396,10.697,-2.436,2.242,-0.348846,-0.320137,1.422341,99937.43,-135,+80,-45
207406,10.466,-2.637,2.629,-0.114186,-0.414321,1.560157,99942.77,-137,+78,-47
207416,10.609,-3.406,2.413,0.055025,-0.496798,1.697973,99941.84,-137,+73,-50
207426,11.193,-3.916,2.010,0.074181,-0.546284,1.815037,99942.93,-136,+68,-47
207436,11.666,-4.201,1.876,0.026291,-0.565440,1.917203,99942.93,-136,+68,-47
207446,12.565,-4.144,1.748,-0.047672,-0.589385,2.025221,99936.43,-138,+64,-51
207456,13.155,-4.003,1.975,-0.077470,-0.628761,2.149202,99936.43,-136,+60,-54
207466,13.595,-3.932,2.234,-0.114186,-0.681440,2.280101,99938.86,-134,+52,-51
207471,13.892,-3.804,2.674,-0.170057,-0.719220,2.386523,99939.13,-134,+52,-51
207481,14.130,-3.752,3.070,-0.268498,-0.749018,2.497202,99941.38,-137,+48,-56
207491,14.730,-3.688,3.343,-0.440901,-0.771366,2.632890,99936.44,-135,+42,-59
207501,15.901,-3.434,3.520,-0.680351,-0.769770,2.711110,99936.44,-135,+42,-59
207511,18.198,-3.352,3.871,-0.994828,-0.838944,2.774963,99939.88,-133,+34,-58
207521,21.495,-2.413,4.943,-1.243855,-0.968779,2.845202,99939.40,-133,+30,-64
207531,23.501,-1.120,5.160,-1.598240,-0.965586,2.929807,99938.77,-131,+26,-67
207541,24.722,0.084,5.011,-2.027653,-0.888963,2.980890,99937.57,-131,+26,-67
207551,25.895,2.921,5.497,-2.445359,-0.794779,2.965459,99937.57,-126,+21,-67
207561,23.253,5.344,6.155,-2.833267,-0.654834,2.949495,99939.53,-126,+19,-74
207570,18.417,6.413,6.223,-2.988111,-0.536706,3.063367,99942.41,-122,+17,-78
207581,15.102,4.480,5.105,-2.691725,-0.612798,3.087312,99936.80,-122,+17,-78
207591,13.228,-1.180,4.569,-1.887708,-0.867678,3.191073,99936.06,-119,+13,-78
207601,12.973,-5.498,3.580,-0.808057,-1.011348,3.285789,99936.06,-116,+9,-85
207611,12.557,-7.800,3.510,-0.556369,-1.008155,3.194798,99942.95,-110,+3,-87
207621,11.539,-11.341,5.772,-0.527103,-0.912907,3.276211,99939.86,-110,+3,-87
207631,9.791,-13.756,6.688,0.194438,-0.855972,3.186816,99940.50,-105,-3,-87
207641,7.203,-9.202,6.808,0.652052,-0.728797,2.475918,99940.50,-102,-8,-94
207651,5.198,-1.809,6.136,0.640878,-0.395697,1.474487,99940.50,-98,-11,-95
207661,5.365,4.932,3.280,0.265208,-0.025880,0.550213,99941.53,-98,-11,-95
207671,4.950,6.423,2.186,-0.306278,0.019349,-0.013824,99938.55,-94,-11,-92
207681,3.680,4.183,2.778,-0.437709,0.100230,-0.259126,99940.53,-94,-9,-97
207691,3.227,2.312,2.414,-0.445158,0.218890,-0.646502,99937.03,-92,-5,-97
207700,2.927,2.755,1.248,-0.421213,0.223679,-1.247786,99937.03,-92,-5,-97
207707,2.515,2.650,1.472,-0.464846,0.351385,-1.614942,99940.23,-90,-3,-94
207716,2.194,1.328,1.964,-0.479213,0.467917,-1.844813,99940.23,-92,+2,-97
207726,1.989,-0.414,1.694,-0.292443,0.503037,-2.223676,99935.02,-92,+2,-97
207736,2.234,-1.001,1.296,0.023631,0.541348,-2.725987,99935.09,-91,+8,-96
207747,2.995,-0.444,1.193,0.356731,0.594027,-3.224574,99935.13,-90,+13,-91
207756,3.902,0.538,1.071,0.640346,0.649367,-3.644941,99938.88,-92,+20,-94
207766,4.639,1.203,1.283,0.859043,0.725458,-3.978042,99935.79,-92,+20,-94
207776,5.153,1.062,1.524,0.964933,0.804211,-4.218555,99934.01,-91,+27,-91
207785,5.309,0.394,1.637,1.117648,0.855293,-4.411711,99934.01,-89,+32,-86
207796,5.462,-0.088,2.134,1.301758,0.932449,-4.636793,99933.79,-91,+38,-88
207806,6.183,-0.658,2.588,1.400198,1.009073,-4.873582,99933.79,-91,+38,-88
207816,7.260,-1.408,2.680,1.465648,1.089422,-5.093343,99936.80,-89,+44,-84
207826,8.213,-2.042,2.738,1.573134,1.181476,-5.297142,99936.18,-88,+50,-79
207836,9.069,-2.599,2.609,1.701905,1.262889,-5.483380,99934.18,-89,+58,-80
207846,10.106,-2.794,2.404,1.866859,1.331532,-5.660040,99935.24,-89,+58,-80
207856,11.309,-2.702,2.627,2.023299,1.389531,-5.825526,99935.24,-87,+63,-75
207866,12.960,-2.756,3.073,2.055226,1.411880,-5.976645,99936.23,-85,+69,-70
207877,15.038,-3.480,3.326,1.911556,1.418265,-6.109141,99936.26,-85,+79,-71
207886,16.990,-5.060,3.389,1.710951,1.482651,-6.224609,99935.37,-85,+79,-71
207896,18.366,-6.578,3.250,1.459263,1.549164,-6.337416,99935.37,-81,+85,-67
207906,19.009,-7.931,3.032,1.191079,1.590669,-6.408186,99935.37,-78,+94,-64
207917,19.344,-9.579,2.796,1.018144,1.574174,-6.369874,99938.34,-75,+104,-67
207926,20.006,-11.569,2.700,0.934070,1.536394,-6.195343,99937.03,-75,+104,-67
207936,20.087,-13.782,2.784,0.727612,1.517770,-5.894168,99938.92,-70,+112,-64
207946,19.372,-16.113,3.593,0.487098,1.503403,-5.457306,99938.34,-64,+120,-63
207956,17.710,-18.073,4.227,0.321612,1.496485,-4.929453,99938.34,-62,+128,-67
207967,15.644,-20.008,3.318,0.141759,1.503403,-4.332427,99942.45,-56,+128,-67
207976,13.288,-24.032,1.483,0.097594,1.377293,-3.681124,99941.56,-56,+131,-64
207986,10.093,-25.830,0.267,0.085355,1.268743,-3.042593,99939.41,-54,+135,-64
207996,7.747,-23.045,-0.856,-0.428663,1.206486,-2.132685,99939.41,-54,+141,-67
208007,8.091,-18.573,-0.684,-0.978864,1.087825,-0.849768,99939.81,-52,+139,-63
208016,9.748,-14.555,-1.588,-1.104974,0.735569,0.453369,99939.81,-52,+139,-63
208026,11.300,-12.683,-2.444,-0.536149,0.312009,1.487258,99943.17,-54,+139,-61
208036,11.098,-14.396,-0.873,0.039062,-0.053550,2.256156,99940.55,-58,+137,-66
208047,12.426,-12.306,-2.943,0.586071,-0.331311,2.712174,99941.77,-59,+129,-66
208056,14.686,-9.170,-4.992,0.052897,-0.720816,3.140523,99941.77,-59,+129,-66
208066,22.864,16.713,-0.575,1.385299,-1.111917,3.157550,99945.56,-61,+123,-67
208076,30.192,38.111,-1.904,1.967960,-0.975164,1.289845,99941.47,-62,+119,-75
208087,16.960,-0.120,-5.795,0.841483,-1.231641,2.009257,99942.88,-61,+113,-75
208097,10.314,-22.807,3.762,2.928950,-1.093293,3.784908,99942.20,-61,+113,-75
208106,8.243,-13.222,1.648,4.932343,-1.126816,3.952522,99941.72,-63,+100,-80
208116,9.282,-6.901,0.003,2.457501,-0.512229,2.882450,99942.30,-66,+90,-86
208126,9.039,-5.358,2.874,1.243226,-0.029073,2.817000,99942.98,-65,+82,-84
208136,5.638,-3.917,7.142,1.238969,-0.140816,2.604156,99942.98,-65,+82,-84
208146,6.772,-5.774,6.407,0.995263,-0.075899,2.267863,99941.77,-67,+78,-84
208156,11.572,-6.826,2.922,0.180071,-0.156247,2.217312,99941.77,-68,+73,-88
208166,11.798,-7.794,1.242,-0.612773,-0.285018,2.040652,99944.26,-66,+70,-85
208177,9.690,-7.117,2.203,-1.407745,-0.253801,1.820359,99942.60,-66,+70,-85
208186,9.258,-4.277,2.165,-1.841414,-0.231275,1.684671,99942.60,-67,+70,-85
208196,8.905,-2.517,1.836,-2.037230,-0.164761,1.534616,99940.43,-69,+71,-89
208206,9.179,-2.187,1.500,-1.673267,-0.215844,1.475019,99940.43,-67,+71,-85
208217,9.543,-1.067,1.481,-0.812846,-0.261073,1.430854,99943.63,-67,+71,-85
208227,9.876,-0.724,2.143,-0.066828,-0.253091,1.422873,99941.81,-67,+70,-85
208236,9.621,-2.582,2.631,0.342896,-0.268523,1.425533,99940.73,-68,+67,-90
208246,9.137,-3.965,2.305,0.355135,-0.249899,1.362744,99940.73,-66,+63,-86
208257,8.919,-4.701,2.242,0.046511,-0.164229,1.216414,99940.73,-66,+63,-86
208267,9.130,-4.726,2.873,-0.370663,-0.091862,1.046671,99939.71,-68,+62,-87
208276,9.103,-3.741,3.198,-0.714406,-0.076431,0.893955,99941.80,-69,+63,-90
208286,9.164,-2.514,2.744,-0.851158,-0.086009,0.797112,99941.76,-68,+61,-87
208296,9.411,-1.833,2.327,-0.697910,-0.116871,0.780084,99941.34,-68,+61,-87
208306,9.565,-1.428,1.950,-0.358424,-0.153587,0.796579,99941.34,-68,+61,-88
208317,9.440,-2.203,1.680,-0.068957,-0.161036,0.830634,99944.30,-69,+61,-90
208326,9.326,-3.313,1.795,0.086952,-0.143477,0.831699,99942.52,-66,+59,-87
208336,9.190,-3.993,2.151,0.000218,-0.101440,0.791258,99939.73,-66,+59,-87
208347,8.909,-4.196,2.580,-0.246149,-0.040247,0.710910,99939.73,-68,+58,-88
208357,8.889,-4.112,2.673,-0.520186,0.026266,0.619919,99940.41,-70,+58,-91
208366,9.019,-3.815,2.522,-0.700039,0.090119,0.539570,99941.66,-67,+58,-86
208376,9.167,-3.428,2.302,-0.770277,0.137477,0.492213,99941.66,-67,+58,-86
208387,9.283,-3.128,2.074,-0.755378,0.167807,0.481570,99937.95,-68,+58,-88
208397,9.344,-3.093,1.982,-0.721855,0.197074,0.500726,99939.26,-70,+59,-91
208406,9.373,-3.151,1.904,-0.719195,0.251349,0.540635,99939.26,-68,+58,-85
208412,9.422,-3.124,1.767,-0.756442,0.320523,0.584800,99942.98,-68,+58,-85
208421,9.603,-3.007,1.779,-0.805396,0.377991,0.632690,99939.73,-71,+59,-86
208432,9.639,-2.459,1.979,-0.799011,0.404064,0.698139,99939.16,-72,+60,-88
208441,9.444,-1.817,2.246,-0.694718,0.378523,0.788598,99940.11,-72,+60,-88
208451,9.324,-1.677,2.418,-0.535617,0.321055,0.904598,99940.11,-70,+58,-84
208461,9.241,-1.798,2.637,-0.358424,0.249752,1.037625,99941.98,-73,+58,-85
208472,9.322,-2.173,2.975,-0.263709,0.174725,1.185552,99940.66,-73,+56,-87
208482,9.914,-2.862,3.383,-0.212626,0.111404,1.260047,99941.15,-73,+56,-87
208491,9.979,-3.627,3.153,-0.246149,0.064578,1.367533,99938.20,-71,+54,-84
208501,9.929,-3.396,2.898,-0.265305,0.026266,1.385093,99938.20,-74,+53,-85
208512,9.988,-3.161,2.789,-0.331287,-0.047165,1.461185,99941.87,-74,+51,-87
208522,10.023,-2.857,2.740,-0.363213,-0.138688,1.580377,99943.07,-74,+51,-87
208531,10.421,-2.614,2.626,-0.304149,-0.236596,1.720322,99941.71,-71,+47,-83
208541,11.431,-2.964,2.572,-0.179635,-0.337697,1.855478,99941.18,-73,+45,-86
208551,12.235,-3.677,2.456,-0.110993,-0.420174,1.994891,99941.18,-73,+42,-88
208562,12.712,-3.770,2.404,-0.151966,-0.474449,2.137496,99944.48,-73,+42,-88
208571,13.189,-3.582,2.590,-0.215287,-0.550009,2.273184,99944.32,-69,+38,-85
208581,13.447,-3.571,2.747,-0.231782,-0.655366,2.408340,99938.80,-70,+34,-90
208591,13.371,-3.740,2.828,-0.243489,-0.762320,2.522211,99940.12,-69,+31,-92
208602,13.371,-3.864,2.854,-0.294571,-0.834687,2.612138,99940.12,-69,+31,-92
208612,13.721,-4.161,2.993,-0.438241,-0.857568,2.698339,99940.43,-64,+27,-88
208621,14.859,-4.234,2.674,-0.690461,-0.862357,2.765918,99942.79,-64,+24,-95
208631,16.957,-4.125,3.160,-0.940552,-0.914504,2.778688,99937.87,-61,+22,-96
208642,19.766,-3.409,4.613,-1.118809,-0.976229,2.787734,99936.98,-61,+22,-96
208652,21.672,-2.295,5.304,-1.402956,-0.916632,2.818596,99936.98,-56,+19,-94
208661,23.495,-2.265,5.426,-1.880258,-0.826706,2.883514,99940.70,-55,+17,-100
208671,24.139,0.211,5.500,-2.330423,-0.718155,3.042083,99939.23,-52,+17,-101
208681,21.633,2.756,5.299,-2.730569,-0.555330,3.226192,99937.30,-52,+17,-101
208692,18.726,3.608,4.062,-2.977468,-0.460614,3.243220,99937.56,-47,+17,-100
208701,15.645,0.739,3.531,-2.883817,-0.583532,3.279403,99937.56,-46,+19,-106
208711,13.841,-3.359,5.414,-2.180900,-0.882045,3.455532,99941.21,-41,+18,-106
208721,14.548,-3.645,7.419,-1.235341,-0.946962,3.331018,99939.70,-35,+14,-106
208732,14.797,-4.218,5.453,-0.637782,-0.808082,2.885110,99935.49,-35,+14,-106
208742,13.122,-7.458,4.485,-1.041121,-0.629293,2.831367,99939.74,-33,+13,-110
208751,11.120,-9.659,6.304,-0.805396,-0.394100,2.912780,99939.74,-28,+10,-110
208761,8.278,-6.537,6.253,-0.248810,-0.339293,2.450908,99939.63,-23,+6,-107
208772,5.364,-0.694,5.992,-0.027452,-0.148266,1.602194,99938.79,-23,+6,-107
208782,5.896,3.539,2.119,-0.273287,0.112468,0.699735,99935.54,-24,+4,-111
208791,5.560,2.712,1.947,-0.710149,0.145991,0.283093,99939.01,-22,+5,-110
208801,4.364,1.513,2.844,-0.688332,0.325312,0.028213,99939.01,-20,+4,-106
208812,3.875,2.204,2.165,-0.589892,0.395550,-0.539548,99940.50,-20,+4,-106
208822,3.181,3.679,1.556,-0.534553,0.489734,-1.186062,99940.23,-22,+5,-110
208831,2.821,3.250,1.621,-0.580314,0.687679,-1.576630,99939.03,-22,+7,-108
208841,2.605,1.552,1.089,-0.533488,0.740358,-1.858648,99936.30,-23,+9,-105
208851,2.271,-0.266,0.844,-0.292975,0.754725,-2.175254,99936.30,-23,+9,-105
208862,2.333,-1.047,0.767,0.138566,0.777605,-2.572208,99940.92,-28,+11,-107
208872,3.044,-0.606,0.658,0.582878,0.812724,-3.019180,99938.25,-29,+13,-105
208882,3.940,0.180,0.904,0.952339,0.884205,-3.453204,99936.89,-31,+13,-101
208891,4.311,0.653,1.062,1.192144,0.924468,-3.746574,99936.72,-31,+13,-101
208902,4.552,0.730,1.385,1.423611,0.970229,-4.025931,99936.72,-36,+17,-103
208912,4.943,0.172,1.713,1.682217,1.026101,-4.266977,99936.19,-38,+19,-99
208921,5.688,-0.455,2.242,1.948804,1.094743,-4.490463,99936.56,-42,+20,-95
208931,6.514,-1.323,2.662,2.128125,1.152743,-4.727252,99932.94,-42,+20,-95
208942,7.440,-2.363,2.770,2.126529,1.218192,-4.981068,99934.98,-47,+25,-97
208952,8.359,-3.230,2.517,2.048308,1.289495,-5.232224,99934.98,-50,+29,-93
208962,9.246,-3.670,2.310,1.917941,1.377293,-5.465820,99935.21,-56,+34,-88
208971,10.174,-3.826,2.090,1.753519,1.468816,-5.678132,99936.05,-56,+34,-88
208982,11.282,-3.701,2.096,1.648162,1.536394,-5.864370,99934.54,-61,+42,-92
208992,12.505,-3.786,2.189,1.540143,1.601843,-6.019214,99937.26,-61,+52,-87
209002,14.086,-4.463,2.292,1.306725,1.668889,-6.166964,99937.26,-65,+61,-84
209011,15.392,-5.571,2.265,1.029318,1.742320,-6.281545,99939.06,-65,+61,-84
209021,16.735,-6.906,2.275,0.719098,1.808302,-6.390627,99933.45,-68,+75,-87
209032,17.841,-7.834,2.183,0.433355,1.835439,-6.468847,99938.33,-65,+87,-83
209042,19.602,-8.973,1.943,0.294474,1.858320,-6.460333,99933.39,-65,+100,-80
209051,21.257,-10.737,2.465,0.314695,1.843953,-6.332627,99933.39,-65,+100,-80
209061,21.774,-12.774,1.598,0.546694,1.831182,-6.113930,99939.33,-64,+114,-83
209072,20.924,-14.990,-1.300,0.396639,1.592265,-5.656315,99938.91,-58,+125,-79
209082,19.025,-17.804,0.160,0.388658,1.331532,-4.918811,99940.11,-56,+135,-76
209091,17.224,-18.244,0.799,0.928217,1.135183,-4.286133,99940.58,-56,+135,-76
209101,14.100,-22.132,1.838,1.242162,0.980339,-3.652390,99940.58,-53,+143,-81
209112,9.858,-26.540,0.888,1.473630,0.884027,-2.931382,99939.77,-47,+148,-79
209118,8.402,-26.604,-0.812,1.151703,0.845183,-2.341804,99939.93,-47,+148,-79
209127,7.882,-24.598,-1.280,0.400364,0.852101,-1.513841,99939.93,-47,+152,-77
209137,8.590,-19.904,-1.358,-0.476021,0.744082,-0.204851,99943.38,-48,+156,-81
209146,10.269,-15.884,-1.061,-0.759103,0.400339,1.027515,99939.62,-48,+156,-77
209157,11.698,-14.181,0.799,-0.514865,-0.020027,1.903368,99939.62,-48,+156,-77
209167,11.608,-13.436,-3.349,-0.201984,-0.464871,2.386523,99941.55,-52,+156,-76
209177,14.123,-8.751,-0.146,-0.082259,-0.796908,3.100615,99940.78,-57,+153,-83
209186,23.135,23.073,1.325,1.956253,-0.983146,2.720156,99939.63,-57,+147,-83
209197,27.028,32.996,-3.466,1.464584,-0.855440,1.128084,99939.63,-57,+147,-83
209207,13.085,-7.646,-4.254,0.920768,-1.121495,2.368432,99939.63,-58,+146,-84
209217,10.399,-20.651,2.936,3.851628,-1.131605,3.782779,99942.66,-61,+135,-93
209226,9.003,-12.371,0.267,4.330527,-1.009219,3.473624,99942.35,-61,+125,-95
209238,10.741,-8.953,0.380,1.451813,-0.236773,2.569924,99942.20,-61,+125,-95
209247,9.596,-6.303,5.539,0.541905,0.050743,2.627037,99942.20,-66,+121,-95
209257,7.955,-4.737,6.978,0.218915,-0.022156,2.415257,99942.20,-68,+114,-100
209267,8.967,-3.641,4.519,-0.166333,-0.023752,2.219973,99943.89,-68,+112,-96
209276,9.344,-2.991,3.074,-0.427066,-0.178064,2.130046,99942.11,-68,+112,-96
209287,9.050,-3.728,2.329,-0.493048,-0.254688,1.959239,99941.00,-71,+111,-95
209297,9.834,-3.940,1.680,-0.426002,-0.292467,1.917735,99941.00,-72,+106,-100
209307,10.489,-3.912,1.692,-0.491984,-0.358981,1.834193,99944.09,-72,+108,-97
209316,9.753,-4.348,1.573,-0.702699,-0.414853,1.688927,99944.09,-72,+108,-97
209327,9.021,-3.768,1.914,-0.842112,-0.443587,1.573460,99939.21,-75,+105,-97
209337,8.678,-2.498,1.471,-0.750589,-0.445715,1.436707,99940.99,-73,+102,-101
209347,9.206,-1.506,1.514,-0.465378,-0.403146,1.379772,99939.26,-73,+103,-97
209356,9.565,-1.744,2.469,-0.064700,-0.338229,1.392010,99939.26,-73,+103,-97
209367,9.563,-2.663,2.523,0.177942,-0.285018,1.337735,99941.52,-75,+100,-98
209377,9.225,-4.356,2.684,0.206144,-0.256284,1.215350,99944.21,-75,+96,-102
209387,8.809,-5.005,2.770,0.054493,-0.231807,1.025919,99940.59,-74,+96,-98
209397,8.624,-4.476,2.799,-0.239764,-0.206798,0.838616,99938.30,-77,+96,-98
209406,8.885,-3.554,2.636,-0.472296,-0.183917,0.697607,99942.02,-77,+96,-99
209417,9.258,-2.715,2.244,-0.530296,-0.154651,0.611405,99938.88,-75,+94,-102
209427,9.641,-2.121,1.971,-0.452608,-0.126981,0.586928,99942.28,-74,+96,-97
209437,9.756,-2.116,1.582,-0.345654,-0.107825,0.593846,99942.28,-77,+96,-98
209446,9.658,-2.337,1.482,-0.267966,-0.073770,0.613534,99940.50,-77,+95,-98
209457,9.432,-2.626,1.998,-0.214755,-0.038651,0.613534,99940.50,-76,+93,-103
209467,9.141,-2.978,2.674,-0.274883,-0.004064,0.596506,99941.59,-76,+94,-97
209472,9.008,-3.249,2.993,-0.392479,0.025734,0.573093,99940.27,-76,+94,-97
209481,9.065,-3.255,3.042,-0.526571,0.069899,0.542231,99938.90,-78,+94,-98
209491,9.200,-3.109,2.758,-0.705360,0.123642,0.513497,99935.23,-77,+93,-101
209502,9.376,-2.677,2.461,-0.763360,0.159294,0.509772,99935.23,-77,+93,-101
209512,9.574,-2.453,2.140,-0.741011,0.180578,0.537442,99938.29,-78,+95,-95
209522,9.668,-2.472,1.913,-0.677690,0.196541,0.583203,99940.23,-80,+94,-96
209531,9.532,-2.630,1.720,-0.645231,0.232725,0.642268,99941.27,-79,+94,-99
209542,9.471,-2.942,1.806,-0.695782,0.292853,0.708249,99939.02,-79,+94,-99
209552,9.532,-2.868,2.220,-0.809121,0.351917,0.775827,99939.02,-80,+96,-93
209562,9.423,-1.890,3.077,-0.860204,0.289661,0.839680,99941.82,-83,+95,-93
209571,9.185,-0.728,3.182,-0.744204,0.148119,0.943442,99939.93,-82,+94,-97
209582,9.294,-0.451,2.832,-0.446754,0.025734,1.108928,99939.46,-82,+94,-97
209592,9.506,-1.428,2.615,-0.118443,-0.082816,1.287185,99939.40,-83,+93,-90
209602,9.592,-2.661,2.474,0.065135,-0.146669,1.419148,99939.40,-85,+90,-93
209612,9.706,-3.451,2.478,0.050236,-0.172743,1.508010,99939.83,-84,+88,-96
209622,9.653,-3.372,2.468,-0.032773,-0.169018,1.572927,99940.03,-84,+88,-96
209632,9.736,-3.072,2.588,-0.100883,-0.167422,1.673496,99940.19,-85,+86,-90
209642,9.980,-2.867,2.429,-0.062039,-0.194027,1.767680,99939.61,-87,+83,-95
209652,10.249,-3.035,2.444,-0.062571,-0.214247,1.893258,99939.61,-85,+79,-97
209661,10.878,-3.392,2.402,-0.132278,-0.243513,2.010322,99943.16,-87,+79,-92
209672,12.176,-3.451,2.135,-0.150369,-0.300981,2.125789,99941.76,-87,+76,-92
209682,13.338,-3.875,2.030,-0.086516,-0.390376,2.239129,99939.02,-89,+70,-95
209692,13.848,-4.125,2.212,-0.026388,-0.484027,2.357257,99940.87,-87,+67,-98
209701,14.169,-4.207,2.698,-0.025856,-0.559054,2.478578,99940.87,-87,+63,-93
209712,14.087,-4.309,3.161,-0.083324,-0.602155,2.585000,99943.29,-87,+63,-93
209722,14.314,-4.400,3.548,-0.244553,-0.615458,2.673862,99939.93,-87,+58,-98
209732,15.191,-3.961,3.747,-0.465910,-0.618119,2.756872,99936.57,-84,+54,-100
209742,16.644,-3.408,3.542,-0.723984,-0.624504,2.834028,99936.30,-84,+52,-95
209752,18.824,-3.164,4.465,-0.913947,-0.711770,2.878725,99936.30,-84,+52,-95
209762,20.668,-2.069,5.459,-1.059745,-0.741568,2.928743,99940.66,-84,+48,-100
209772,21.643,-1.755,5.225,-1.362515,-0.670265,2.978761,99941.17,-80,+44,-101
209782,23.321,-0.976,5.249,-1.858442,-0.614394,2.933000,99936.09,-82,+44,-95
209792,23.834,0.925,4.941,-2.501230,-0.556926,2.889367,99937.08,-82,+44,-95
209802,22.248,3.066,4.650,-3.059945,-0.485091,2.907459,99937.08,-81,+42,-101
209812,19.199,4.164,4.530,-3.387725,-0.455825,2.944174,99936.16,-78,+44,-101
209822,15.688,2.103,4.722,-3.167432,-0.625036,3.069220,99940.25,-80,+45,-96
209831,13.069,-1.812,5.540,-2.163872,-0.921953,3.323569,99936.58,-80,+45,-96
209842,13.911,-4.015,5.142,-0.976204,-1.014008,3.456596,99936.73,-79,+41,-103
209852,13.719,-7.512,5.528,-0.714406,-1.012944,3.532156,99936.73,-75,+37,-104
209862,11.555,-10.205,7.089,-0.328626,-0.730926,3.365073,99937.66,-79,+30,-100
209872,8.727,-7.852,8.397,0.287025,-0.352596,2.746229,99938.97,-79,+30,-100
209882,7.056,-0.632,6.760,-0.006168,0.061386,1.704359,99937.81,-78,+24,-106
209892,7.349,6.394,4.093,-0.847965,0.398211,0.653974,99937.77,-79,+23,-106
209902,6.915,7.190,2.512,-1.350809,0.393422,0.076635,99937.77,-86,+24,-104
209912,5.603,3.872,2.626,-1.325268,0.423220,0.023424,99937.94,-86,+24,-104
209922,5.040,2.546,2.140,-1.130516,0.446101,-0.372998,99936.56,-85,+25,-111
209932,4.342,3.006,1.724,-0.829874,0.551991,-1.067401,99939.41,-86,+27,-111
209942,3.617,2.781,1.823,-0.690816,0.728474,-1.609976,99936.41,-94,+29,-108
209952,3.142,1.769,1.372,-0.506883,0.770688,-1.951767,99936.41,-94,+29,-108
209963,2.885,0.339,0.513,-0.114186,0.771220,-2.341272,99940.04,-94,+30,-114
209972,3.102,-0.589,0.228,0.379612,0.790908,-2.752593,99937.51,-94,+33,-114
209982,3.835,-0.689,0.301,0.805832,0.828156,-3.169235,99933.79,-101,+36,-110
209992,4.736,-0.433,0.567,1.037832,0.885091,-3.544372,99935.57,-101,+36,-110
210001,5.207,-0.007,0.935,1.107006,0.984596,-3.847142,99935.57,-101,+35,-115
210012,5.213,0.053,1.114,1.224602,1.058559,-4.103087,99936.04,-101,+38,-111
210022,5.338,0.378,1.613,1.483208,1.138376,-4.367013,99931.26,-108,+44,-107
210032,5.946,0.121,2.147,1.707226,1.197440,-4.627215,99933.57,-108,+44,-107
210042,6.818,-0.967,2.302,1.909428,1.238412,-4.874646,99934.82,-108,+43,-108
210052,7.757,-1.964,2.199,1.999354,1.297476,-5.113031,99934.82,-109,+49,-103
210062,8.593,-2.874,1.949,2.017446,1.360265,-5.328536,99936.62,-114,+56,-98
210072,9.642,-3.367,1.570,1.997226,1.434761,-5.554151,99935.66,-114,+56,-98
210082,11.037,-3.428,1.295,1.931244,1.486907,-5.784554,99934.62,-112,+58,-98
210092,12.486,-3.487,1.313,1.799813,1.501807,-5.971324,99935.88,-113,+67,-92
210102,13.941,-3.762,1.417,1.622620,1.499678,-6.116590,99935.88,-115,+77,-89
210112,15.468,-4.482,1.777,1.459263,1.462430,-6.250150,99934.64,-115,+77,-89
210122,16.940,-5.498,1.859,1.321978,1.399642,-6.379453,99935.13,-117,+81,-88
210132,18.530,-6.525,1.806,1.191079,1.400706,-6.484278,99933.33,-118,+92,-85
210142,20.115,-8.220,1.847,1.064969,1.395385,-6.494389,99932.86,-122,+108,-82
210152,20.815,-10.033,1.708,1.008034,1.342706,-6.423086,99932.86,-125,+108,-82
210162,21.190,-11.893,1.505,1.061777,1.276724,-6.194810,99935.42,-125,+118,-78
210172,21.184,-14.409,1.484,1.154896,1.195311,-5.806902,99937.36,-122,+136,-72
210182,19.903,-17.191,2.168,1.322510,1.085697,-5.273197,99937.52,-119,+152,-69
210192,17.445,-19.387,2.256,1.498639,1.013862,-4.646904,99937.56,-115,+160,-66
210202,15.389,-23.134,1.290,1.383171,0.913293,-4.014757,99937.56,-115,+160,-66
210212,11.566,-27.975,0.127,1.215556,0.771220,-3.386868,99939.38,-107,+170,-62
210222,7.257,-29.346,-0.127,0.754749,0.758981,-2.559437,99939.38,-103,+180,-61
210232,5.971,-27.521,0.388,-0.014149,0.715881,-1.308979,99941.27,-103,+180,-58
210242,7.364,-21.714,0.088,-0.686204,0.526449,0.168158,99936.35,-103,+180,-58
210252,9.632,-17.037,-0.019,-0.686204,0.234853,1.469698,99936.35,-102,+181,-53
210263,10.758,-16.635,0.734,-0.272755,-0.096119,2.484963,99941.33,-106,+179,-53
210272,12.945,-12.310,1.051,0.466346,-0.404211,3.066560,99941.75,-112,+169,-53
210282,13.298,-6.534,-2.331,0.527538,-0.821917,3.184156,99943.02,-112,+169,-53
210292,18.272,15.063,3.074,1.617299,-1.035293,3.180963,99939.19,-114,+162,-54
210302,26.188,40.613,-1.225,2.500602,-0.910247,1.119570,99939.19,-115,+156,-59
210312,19.015,3.225,-4.908,1.276749,-1.027311,1.755973,99942.77,-117,+148,-61
210322,13.575,-24.786,2.125,2.361189,-0.795843,3.691788,99941.72,-117,+148,-61
210332,8.175,-16.282,2.757,4.681187,-0.946962,3.845568,99937.41,-120,+137,-65
210342,7.089,-7.373,0.037,2.579354,-0.460082,2.598303,99937.25,-124,+125,-71
210352,9.376,-6.658,3.149,0.738254,0.148119,2.400890,99937.25,-126,+117,-69
210362,8.724,-5.359,7.273,0.886180,0.118321,2.480175,99940.16,-126,+117,-69
210372,10.507,-4.495,4.380,0.819667,0.100762,2.225294,99939.79,-127,+112,-67
210382,11.669,-4.294,0.594,0.015649,-0.003532,2.135900,99938.27,-130,+106,-69
210393,9.312,-6.039,1.738,-0.604791,-0.021624,2.107698,99938.65,-131,+99,-68
210402,8.125,-5.766,1.823,-0.758571,-0.000871,1.914010,99938.65,-131,+99,-68
210413,9.784,-3.769,1.240,-0.937714,0.020058,1.662499,99940.59,-132,+98,-66
210422,10.289,-3.540,1.683,-1.269396,0.017220,1.547386,99938.45,-134,+96,-66
210433,9.426,-3.249,1.892,-1.252369,-0.053550,1.429790,99938.03,-134,+93,-65
210442,9.312,-2.011,1.830,-0.873506,-0.109422,1.316983,99938.86,-134,+93,-65
210452,9.676,-0.715,2.147,-0.331819,-0.107293,1.264304,99938.86,-134,+92,-64
210462,9.499,-1.737,2.945,0.030016,-0.111550,1.278139,99938.86,-137,+89,-66
210472,9.217,-3.000,2.635,0.194438,-0.114743,1.207900,99941.06,-137,+83,-65
210482,9.110,-4.044,2.833,-0.021067,-0.052486,1.095093,99941.16,-137,+83,-65
210492,9.154,-4.517,2.892,-0.414828,-0.004064,0.937056,99936.44,-136,+84,-63
210502,9.063,-3.758,2.693,-0.739415,0.045422,0.768910,99936.44,-139,+81,-65
210512,9.411,-2.441,2.290,-0.864993,0.085330,0.678983,99940.61,-138,+79,-63
210523,9.686,-1.895,1.792,-0.756974,0.087991,0.661956,99939.88,-138,+79,-63
210532,9.786,-2.084,1.537,-0.532956,0.080541,0.670469,99939.45,-138,+81,-62
210542,9.713,-2.272,1.653,-0.390883,0.093844,0.680579,99937.47,-140,+79,-63
210552,9.401,-2.584,2.072,-0.386094,0.127367,0.686965,99937.47,-139,+76,-62
210563,9.154,-2.897,2.290,-0.464314,0.177385,0.685368,99940.94,-139,+76,-62
210572,9.091,-3.055,2.498,-0.585103,0.228468,0.678451,99940.05,-140,+77,-60
210582,9.065,-2.863,2.632,-0.659598,0.260395,0.674726,99940.83,-143,+75,-61
210592,9.124,-2.611,2.518,-0.666516,0.264651,0.678451,99937.38,-141,+73,-59
210603,9.221,-2.651,2.399,-0.631929,0.252945,0.693350,99937.38,-141,+73,-59
210613,9.342,-2.728,2.362,-0.574461,0.239110,0.714102,99940.88,-142,+74,-57
210622,9.531,-2.857,2.396,-0.524975,0.232193,0.731130,99941.04,-145,+72,-58
210632,9.510,-3.003,2.366,-0.484002,0.225275,0.749754,99940.41,-143,+70,-56
210642,9.371,-3.214,2.339,-0.487195,0.224211,0.764653,99939.37,-144,+69,-55
210648,9.319,-3.433,2.325,-0.502094,0.231129,0.772102,99939.37,-144,+69,-55
210657,9.110,-3.304,2.331,-0.545727,0.235918,0.780616,99939.37,-145,+67,-56
210667,8.905,-2.730,2.522,-0.607452,0.226872,0.804561,99941.80,-145,+67,-56
210677,9.003,-1.592,2.544,-0.588296,0.200798,0.872671,99939.22,-144,+65,-54
210688,9.393,-0.661,2.633,-0.451011,0.144927,1.001974,99942.42,-145,+65,-53
210698,9.672,-0.844,2.508,-0.219012,0.058193,1.164799,99939.53,-147,+60,-54
210707,9.783,-1.488,2.538,-0.015213,-0.025348,1.337735,99941.69,-147,+60,-54
210717,9.851,-2.450,3.073,0.053429,-0.084413,1.490983,99939.38,-145,+56,-53
210727,10.119,-2.820,3.293,0.034273,-0.136027,1.607515,99939.38,-147,+54,-52
210738,10.496,-2.687,3.309,0.005539,-0.179128,1.730964,99936.59,-147,+48,-55
210747,10.738,-2.922,3.087,0.014585,-0.239789,1.854414,99940.91,-147,+48,-55
210757,11.035,-2.972,2.882,0.029484,-0.308431,1.983184,99940.91,-145,+42,-53
210767,11.652,-3.389,2.591,0.022034,-0.376541,2.103973,99940.20,-146,+38,-53
210778,12.324,-3.822,2.487,-0.015213,-0.438798,2.210395,99940.04,-147,+31,-56
210788,12.769,-4.033,2.854,-0.058846,-0.491477,2.310431,99939.98,-147,+31,-56
210797,13.077,-4.294,3.315,-0.143452,-0.537770,2.418450,99937.37,-144,+25,-54
210807,13.443,-4.743,3.652,-0.265305,-0.567036,2.524340,99941.68,-143,+21,-55
210818,13.750,-5.016,3.622,-0.438773,-0.570229,2.608413,99940.37,-142,+13,-59
210828,14.448,-4.982,3.234,-0.669176,-0.573421,2.655239,99939.99,-140,+13,-59
210838,15.665,-4.582,2.732,-0.938956,-0.608009,2.691954,99937.52,-140,+6,-58
210847,17.768,-3.990,2.894,-1.181066,-0.756467,2.714303,99937.52,-138,+3,-60
210857,20.535,-2.161,4.340,-1.281635,-0.940577,2.752083,99937.52,-137,-4,-64
210868,22.471,-0.596,5.010,-1.450846,-0.958669,2.860101,99940.45,-132,-7,-65
210877,24.251,0.645,5.358,-1.784478,-0.881513,2.945771,99938.20,-132,-7,-65
210887,24.945,2.826,5.822,-2.209102,-0.754871,3.013881,99939.98,-131,-12,-69
210897,22.807,4.386,5.563,-2.572001,-0.575018,3.173514,99937.78,-129,-17,-72
210908,20.386,5.336,4.758,-2.753450,-0.472853,3.213422,99937.78,-125,-20,-73
210918,17.143,3.488,4.150,-2.738551,-0.462743,3.065495,99940.05,-125,-20,-73
210927,13.735,-0.966,3.638,-2.369267,-0.589917,3.053789,99937.72,-124,-21,-76
210937,12.927,-5.654,3.189,-1.592919,-0.720284,3.154890,99935.80,-120,-27,-79
210948,13.128,-8.433,4.470,-1.414130,-0.808614,3.248541,99935.80,-117,-32,-79
210958,12.738,-10.842,5.152,-1.291745,-0.746889,3.200119,99938.02,-117,-32,-79
210967,11.684,-11.301,8.312,-0.570736,-0.554798,3.036229,99938.02,-116,-36,-81
210977,8.723,-6.049,8.177,-0.031709,-0.304706,2.410468,99938.96,-113,-41,-84
210988,6.200,1.542,6.505,-0.180700,0.087459,1.541001,99939.32,-113,-42,-80
210998,6.285,7.164,3.663,-0.718663,0.370541,0.688029,99936.91,-113,-42,-80
211007,5.939,6.546,2.115,-1.141690,0.317330,0.168690,99936.91,-116,-40,-80
211017,5.150,3.613,2.287,-1.167763,0.385972,0.026084,99939.86,-119,-39,-82
211027,4.794,2.506,1.775,-1.061873,0.401936,-0.375126,99936.97,-120,-35,-80
211038,3.907,3.026,1.093,-0.855947,0.435991,-1.018447,99939.22,-120,-35,-80
211048,3.021,2.439,1.337,-0.763892,0.573275,-1.476061,99935.83,-124,-29,-79
211057,2.320,0.821,1.256,-0.572864,0.614780,-1.831511,99938.41,-127,-23,-79
211067,2.191,-0.329,0.718,-0.178571,0.600945,-2.244960,99936.98,-128,-15,-74
211078,2.660,-0.332,0.453,0.315227,0.583917,-2.698850,99936.98,-128,-15,-74
211088,3.427,0.360,0.418,0.764859,0.577532,-3.141565,99936.09,-133,-7,-73
211097,4.124,1.031,0.547,1.110731,0.575404,-3.529473,99935.52,-134,+1,-72
211107,4.646,1.338,0.930,1.461391,0.594559,-3.829051,99935.52,-136,+10,-67
211118,4.975,0.650,1.750,1.819324,0.634113,-4.067968,99935.98,-136,+10,-67
211128,4.980,-0.394,2.430,2.124932,0.646706,-4.252078,99935.98,-139,+20,-66
211138,5.041,-1.174,2.953,2.338308,0.660541,-4.506426,99933.39,-138,+30,-65
211147,5.775,-1.841,3.348,2.383005,0.695660,-4.770885,99936.22,-138,+39,-61
211158,7.083,-2.300,3.482,2.365446,0.740358,-5.008738,99936.22,-138,+39,-61
211168,8.406,-2.628,3.475,2.391519,0.805807,-5.239674,99934.43,-138,+50,-61
211178,9.698,-3.105,3.531,2.402161,0.879238,-5.458903,99933.80,-134,+60,-61
211187,11.066,-3.704,3.431,2.373960,0.940963,-5.665361,99931.87,-132,+72,-56
211197,12.217,-4.105,3.406,2.319684,1.000027,-5.856389,99931.87,-132,+72,-56
211208,13.286,-4.505,3.428,2.163244,1.105917,-6.015490,99931.87,-129,+83,-56
211218,14.636,-5.361,3.500,1.880694,1.207018,-6.155967,99936.38,-125,+94,-55
211227,15.946,-6.748,3.795,1.531630,1.277788,-6.266645,99936.63,-120,+108,-50
211237,16.362,-7.843,3.939,1.113923,1.325678,-6.377856,99935.49,-120,+108,-50
211248,16.869,-8.188,4.107,0.685043,1.423586,-6.451287,99936.74,-115,+120,-50
211258,18.568,-9.439,4.374,0.387594,1.566724,-6.401269,99936.74,-107,+132,-47
211268,20.145,-12.083,4.118,0.217319,1.696027,-6.258664,99939.18,-98,+145,-42
211277,19.888,-14.822,3.122,-0.037562,1.809898,-6.038902,99938.02,-98,+145,-42
211288,18.642,-17.109,2.425,-0.303085,1.882265,-5.654187,99937.77,-91,+154,-40
211298,17.302,-18.365,2.253,-0.495709,1.852467,-5.123673,99937.77,-82,+162,-38
211308,15.872,-19.120,1.101,-0.628736,1.774779,-4.458004,99938.01,-76,+171,-32
211317,13.917,-23.054,0.008,-0.598938,1.581091,-3.678464,99938.01,-76,+171,-32
211328,9.970,-26.203,-1.105,-0.344057,1.340045,-2.850501,99939.48,-71,+175,-32
211338,7.307,-25.038,-1.276,-0.456332,1.139972,-1.867694,99939.68,-68,+176,-30
211348,7.005,-21.980,-1.450,-0.758039,0.873917,-0.490594,99938.95,-66,+178,-26
211357,8.843,-18.536,-2.337,-0.777727,0.545605,0.991332,99938.95,-70,+175,-27
211367,9.930,-16.518,-2.190,-0.325433,0.187496,2.159844,99941.48,-70,+175,-27
211378,11.953,-13.151,-1.233,0.409410,-0.115275,2.863294,99940.95,-73,+168,-27
211388,14.183,-8.018,-6.035,0.268401,-0.651642,3.090504,99939.65,-76,+163,-26
211398,24.920,25.691,0.811,1.196400,-1.100210,3.072945,99942.93,-80,+154,-32
211407,34.212,48.997,-1.209,2.116418,-1.046467,0.794983,99941.77,-80,+154,-32
211418,16.255,-6.397,-6.223,0.898951,-1.493971,2.304578,99947.02,-80,+151,-36
211428,10.351,-29.178,6.540,4.907334,-1.216210,4.459623,99938.10,-84,+139,-41
211437,8.417,-16.176,-0.097,6.135975,-1.157678,4.241458,99938.10,-90,+124,-50
211447,10.826,-10.306,-2.863,2.147813,-0.244045,2.892028,99939.88,-90,+124,-50
211458,7.495,-6.067,4.265,0.938859,0.250817,2.967587,99939.88,-91,+118,-50
211468,5.329,-5.758,8.724,1.139997,0.064578,2.700468,99940.33,-96,+111,-49
211478,9.602,-7.325,4.700,0.922896,0.156633,2.365239,99941.80,-99,+104,-51
211488,12.335,-8.437,1.663,-0.096626,0.014560,2.258285,99940.23,-99,+104,-51
211497,10.292,-9.559,1.733,-1.139561,-0.016303,1.962432,99942.06,-98,+100,-50
211508,8.937,-6.322,1.885,-1.938790,0.069367,1.702230,99942.06,-100,+100,-47
211518,8.698,-3.759,1.969,-2.448019,0.196009,1.461717,99942.09,-103,+97,-48
211528,8.784,-3.151,1.962,-2.407579,0.256670,1.277074,99943.38,-103,+97,-48
211537,8.903,-1.559,1.605,-1.640277,0.230596,1.121166,99940.76,-103,+98,-46
211548,9.915,0.441,2.037,-0.758571,0.176853,1.086047,99940.76,-104,+98,-43
211558,10.326,-0.237,2.508,-0.126424,0.066174,1.133937,99940.76,-105,+94,-45
211568,9.786,-2.638,2.837,0.233282,-0.030137,1.182891,99943.34,-105,+94,-45
211577,9.261,-3.591,2.599,0.237539,-0.038651,1.120102,99941.30,-105,+91,-45
211588,9.014,-4.858,3.483,-0.140791,0.043294,1.008891,99940.25,-106,+89,-42
211598,8.767,-5.497,4.336,-0.657470,0.070963,0.830102,99941.61,-108,+88,-45
211608,8.775,-3.852,3.985,-1.082093,0.077349,0.625240,99941.61,-108,+88,-45
211618,9.136,-2.001,3.485,-1.238002,0.090652,0.524139,99940.40,-108,+87,-43
211628,9.623,-0.936,3.168,-1.045378,0.051808,0.531589,99940.24,-108,+89,-42
211638,9.917,-0.547,2.779,-0.671305,-0.009385,0.587992,99940.32,-109,+86,-43
211648,9.760,-1.462,2.644,-0.319580,-0.055147,0.665680,99940.32,-109,+86,-43
211658,9.331,-2.958,2.714,-0.150369,-0.076963,0.700800,99942.03,-108,+85,-43
211667,9.106,-3.895,2.851,-0.233378,-0.058339,0.679515,99942.03,-110,+85,-41
211678,8.949,-3.688,3.119,-0.454736,-0.007789,0.626304,99943.86,-111,+83,-43
211688,8.919,-2.970,3.151,-0.630864,0.029991,0.575222,99940.30,-111,+83,-43
211698,8.948,-2.474,2.954,-0.655874,0.025734,0.557662,99940.25,-110,+82,-42
211707,9.111,-1.972,3.101,-0.567011,-0.006725,0.583203,99940.25,-111,+82,-40
211718,9.271,-2.126,3.203,-0.486131,-0.034926,0.628965,99940.49,-112,+80,-42
211728,9.421,-2.510,3.139,-0.481342,-0.036523,0.672598,99940.96,-112,+80,-42
211738,9.410,-2.379,2.967,-0.534020,-0.015238,0.706653,99938.18,-111,+79,-40
211748,9.265,-1.884,2.861,-0.565415,0.008707,0.757735,99938.01,-112,+78,-40
211758,8.965,-1.565,2.892,-0.509543,0.015092,0.832231,99943.24,-112,+77,-42
211768,8.573,-1.614,3.000,-0.373323,-0.009385,0.916836,99941.68,-112,+77,-42
211778,8.425,-1.803,3.006,-0.267966,-0.034394,1.007295,99940.48,-112,+75,-40
211787,8.736,-2.697,2.819,-0.270626,-0.057275,1.088176,99940.48,-113,+73,-39
211798,9.279,-3.073,2.790,-0.337140,-0.059403,1.160010,99939.37,-113,+71,-42
211808,9.508,-2.788,2.776,-0.419617,-0.051422,1.239295,99939.37,-113,+71,-41
211818,9.636,-2.685,2.826,-0.430791,-0.067385,1.331882,99940.18,-113,+68,-41
211823,9.791,-2.519,2.969,-0.354167,-0.100908,1.410634,99940.24,-114,+66,-40
211832,9.551,-2.736,2.997,-0.290314,-0.127513,1.496304,99942.38,-114,+66,-40
211843,9.288,-3.791,2.529,-0.250938,-0.163697,1.593148,99938.87,-115,+61,-43
211853,10.107,-4.422,2.188,-0.258920,-0.200945,1.622946,99938.87,-113,+58,-41
211863,10.715,-3.916,2.255,-0.322773,-0.235000,1.683074,99941.15,-115,+55,-41
211873,11.304,-3.953,2.496,-0.344057,-0.277568,1.709680,99939.48,-115,+55,-41
211883,12.010,-4.201,2.285,-0.432920,-0.330247,1.814505,99943.35,-115,+50,-44
211893,12.483,-3.528,2.571,-0.461121,-0.378137,1.933166,99939.21,-114,+46,-43
211903,12.614,-3.343,2.884,-0.444094,-0.443587,2.078964,99939.21,-115,+42,-43
211913,12.792,-3.565,2.997,-0.452608,-0.515422,2.236468,99942.78,-115,+42,-43
211922,13.130,-3.839,3.067,-0.479213,-0.592577,2.372156,99940.20,-115,+36,-46
211933,13.564,-4.075,3.489,-0.545727,-0.658559,2.471661,99941.47,-113,+32,-46
211943,14.482,-4.268,3.620,-0.700039,-0.738375,2.576664,99938.58,-115,+26,-48
211953,15.960,-4.116,3.457,-0.913947,-0.820853,2.654706,99938.58,-115,+26,-48
211963,18.877,-3.949,4.738,-1.156057,-0.955476,2.736651,99942.43,-113,+21,-53
211973,22.109,-2.090,5.681,-1.445524,-0.977825,2.814339,99939.12,-111,+16,-53
211983,23.918,-0.069,4.871,-1.922827,-0.865018,2.871275,99938.80,-111,+11,-57
211993,25.216,1.687,3.577,-2.334148,-0.769238,2.930339,99936.65,-111,+11,-57
212002,24.495,3.105,3.662,-2.467707,-0.666541,3.082523,99936.65,-108,+7,-62
212013,21.843,3.930,4.211,-2.516129,-0.576082,3.162339,99940.74,-107,+3,-64
212023,18.828,4.275,4.044,-2.653946,-0.567036,3.060706,99939.38,-108,+0,-68
212033,15.325,1.689,3.748,-2.582643,-0.659091,2.984615,99938.96,-104,-4,-74
212043,13.606,-1.492,4.569,-2.018075,-0.801697,3.100615,99937.40,-104,-4,-74
212052,13.731,-2.377,5.461,-1.186919,-0.709109,3.004303,99937.40,-102,-9,-76
212059,13.768,-3.641,4.348,-0.799011,-0.614926,2.813275,99938.60,-102,-9,-76
212068,12.988,-6.996,2.460,-1.005470,-0.678247,2.689826,99938.60,-101,-15,-78
212078,12.282,-11.377,3.983,-0.970883,-0.579807,2.890963,99938.98,-99,-21,-85
212088,11.322,-11.004,4.583,-0.448351,-0.702724,2.769110,99940.76,-98,-27,-85
212099,7.453,-6.696,6.105,0.039594,-0.880449,2.180597,99938.66,-98,-27,-85
212108,4.987,-0.239,5.376,0.555208,-0.719220,1.341992,99938.66,-97,-30,-88
212118,4.982,2.935,1.847,0.259887,-0.454229,0.509240,99940.02,-96,-32,-93
212128,3.949,2.129,4.247,-0.242956,-0.115275,0.178800,99938.55,-96,-33,-93
212137,3.555,2.506,4.880,-0.228589,0.296046,-0.127695,99938.55,-96,-33,-93
212148,3.748,4.007,2.998,-0.434516,0.360431,-0.696521,99938.62,-99,-32,-94
212158,3.212,4.636,2.303,-0.637782,0.358835,-1.250979,99938.62,-101,-29,-98
212168,2.809,3.028,1.895,-0.660131,0.454615,-1.545768,99942.69,-105,-25,-97
212178,2.376,0.485,1.045,-0.649488,0.370541,-1.799052,99936.77,-105,-25,-97
212188,1.578,-2.012,1.136,-0.400461,0.352450,-2.087456,99935.19,-108,-19,-98
212198,1.374,-2.619,1.758,0.030548,0.420027,-2.545070,99935.08,-112,-13,-103
212208,1.946,-1.311,1.659,0.370034,0.461000,-3.138372,99935.08,-115,-7,-100
212218,2.948,0.135,1.393,0.598841,0.521128,-3.650794,99937.39,-115,-7,-100
212229,3.953,0.851,1.437,0.794658,0.588174,-3.987087,99934.72,-120,+1,-100
212238,4.607,0.724,1.847,0.967061,0.672247,-4.230261,99931.36,-123,+10,-103
212248,4.645,-0.194,2.315,1.097960,0.760578,-4.449491,99931.36,-126,+19,-101
212258,4.600,-0.954,2.641,1.250676,0.824963,-4.696922,99931.36,-126,+19,-101
212268,5.309,-1.123,2.870,1.410841,0.897330,-4.962444,99933.98,-130,+29,-101
212278,6.708,-1.214,3.365,1.467776,1.009605,-5.186995,99933.56,-131,+40,-103
212288,8.174,-1.744,3.690,1.470437,1.067605,-5.379619,99932.83,-133,+50,-101
212298,9.123,-2.222,3.640,1.554510,1.168174,-5.569049,99932.36,-134,+63,-102
212307,10.181,-2.486,3.541,1.656675,1.339513,-5.714848,99932.36,-134,+63,-102
212318,11.373,-2.938,3.603,1.792363,1.454449,-5.859581,99936.05,-134,+75,-104
212328,12.718,-3.140,3.285,1.919006,1.549164,-6.028260,99933.96,-133,+87,-102
212338,14.644,-3.551,3.077,1.958914,1.671018,-6.182040,99934.55,-131,+99,-103
212348,17.214,-5.012,3.196,1.927519,1.742852,-6.270902,99934.55,-131,+99,-103
212359,19.256,-7.392,3.307,1.785446,1.713054,-6.331031,99934.88,-129,+112,-106
212368,20.239,-9.189,2.979,1.452877,1.646008,-6.424150,99934.14,-125,+124,-103
212378,21.028,-10.556,2.856,1.091043,1.596522,-6.410315,99934.14,-120,+137,-106
212388,21.584,-12.143,2.256,0.871281,1.553421,-6.251746,99934.61,-120,+137,-106
212398,21.758,-14.688,2.076,0.754217,1.554485,-5.947380,99934.88,-114,+151,-108
212408,20.644,-17.736,2.429,0.695685,1.514045,-5.494554,99934.88,-108,+161,-106
212418,17.341,-19.471,3.802,0.559465,1.456045,-4.846445,99937.85,-105,+170,-108
212428,14.636,-20.082,3.401,0.479116,1.406559,-4.122243,99938.48,-105,+170,-108
212439,11.736,-24.665,1.251,0.506786,1.291091,-3.327803,99937.32,-100,+178,-109
212448,8.333,-28.411,-1.134,0.404621,1.175091,-2.511015,99938.74,-98,+181,-107
212458,6.203,-25.751,-1.950,-0.217415,1.053770,-1.561731,99941.21,-98,+185,-107
212468,6.801,-21.076,-1.298,-0.737819,0.875513,-0.269236,99940.68,-98,+185,-107
212478,9.158,-17.244,-1.000,-0.820296,0.479092,1.136598,99941.88,-99,+187,-106
212488,10.711,-15.334,0.435,-0.440369,0.051808,2.290211,99941.88,-104,+183,-104
212498,11.757,-12.869,-2.446,0.250841,-0.304706,2.823917,99938.48,-109,+176,-108
212508,16.037,-5.313,-1.974,-0.008828,-0.755403,3.316119,99938.48,-109,+176,-108
212518,30.522,38.775,-3.044,1.698712,-1.219935,2.573294,99942.18,-113,+166,-111
212528,29.002,34.480,-3.794,1.153300,-1.241219,1.065295,99941.98,-112,+161,-114
212538,11.417,-15.553,-1.403,1.927519,-1.406705,2.934596,99940.60,-113,+150,-122
212548,8.486,-23.280,4.532,5.785847,-1.363072,4.437807,99939.66,-113,+150,-122
212558,7.828,-13.986,-1.154,5.112196,-1.036357,3.802999,99939.66,-117,+125,-132
212569,10.923,-9.850,-0.726,1.837061,-0.113679,2.787202,99942.63,-120,+113,-132
212578,8.528,-4.761,7.143,1.111795,0.119918,2.998981,99941.30,-122,+103,-135
212588,6.944,-4.679,8.236,0.994199,-0.052486,2.698339,99937.76,-122,+103,-135
212598,9.524,-5.040,3.544,0.401961,-0.153055,2.472193,99937.76,-124,+95,-135
212609,9.938,-7.506,1.627,-0.475488,-0.420706,2.361514,99937.76,-125,+90,-134
212618,9.774,-8.562,1.682,-1.195433,-0.434541,2.109826,99943.12,-125,+87,-136
212628,9.775,-5.789,1.536,-1.829176,-0.397293,1.900707,99941.34,-125,+87,-136
212638,9.700,-3.310,0.852,-2.229322,-0.207862,1.741606,99940.12,-126,+88,-137
212648,9.531,-1.428,0.376,-1.880258,-0.178596,1.641924,99940.22,-126,+89,-134
212658,9.155,-0.293,1.042,-0.937892,-0.230743,1.583570,99940.22,-126,+87,-137
212668,9.456,-0.129,1.946,0.121539,-0.293532,1.567074,99943.20,-126,+87,-137
212678,9.463,-2.361,2.220,0.740382,-0.379733,1.556432,99941.47,-126,+83,-137
212688,9.335,-4.594,2.056,0.880859,-0.370688,1.473423,99940.38,-126,+77,-136
212699,9.148,-5.747,2.371,0.539777,-0.265862,1.319111,99939.79,-126,+72,-139
212708,8.821,-5.593,3.148,-0.132278,-0.162101,1.100414,99940.63,-126,+72,-139
212718,8.527,-4.151,3.435,-0.748461,-0.086009,0.881717,99942.05,-126,+70,-139
212728,8.966,-2.708,2.559,-1.010791,-0.052486,0.738047,99942.05,-127,+71,-137
212739,9.715,-1.852,1.775,-0.870846,-0.054082,0.691754,99941.99,-126,+71,-140
212748,9.808,-1.560,1.390,-0.450479,-0.073770,0.701864,99940.37,-126,+71,-138
212758,9.522,-1.943,1.295,-0.004571,-0.105165,0.733258,99940.37,-126,+71,-138
212768,9.243,-3.285,1.528,0.204016,-0.111018,0.751350,99940.07,-127,+68,-137
212779,9.106,-4.436,1.834,0.083227,-0.058339,0.711442,99940.02,-127,+66,-140
212789,9.057,-4.270,2.123,-0.227525,0.023606,0.626836,99943.80,-127,+65,-139
212798,9.097,-3.420,2.218,-0.465910,0.073624,0.555534,99940.76,-127,+65,-139
212808,9.172,-2.875,2.280,-0.488791,0.082670,0.522011,99941.47,-127,+65,-137
212818,9.296,-2.774,2.193,-0.394608,0.072028,0.523075,99940.17,-128,+65,-140
212829,9.367,-3.124,1.998,-0.307342,0.070431,0.530524,99938.02,-128,+65,-138
212838,9.435,-3.583,1.813,-0.323837,0.098633,0.537442,99936.97,-128,+65,-138
212848,9.368,-3.646,1.809,-0.439305,0.145991,0.535846,99936.97,-128,+63,-136
212858,9.264,-3.304,1.804,-0.556369,0.193881,0.539038,99936.97,-129,+64,-139
212869,9.366,-2.853,1.771,-0.611709,0.207716,0.561919,99943.85,-129,+65,-137
212878,9.347,-2.478,1.919,-0.564351,0.194945,0.614066,99941.27,-129,+65,-137
212884,9.121,-2.069,1.910,-0.491452,0.164083,0.673130,99940.49,-131,+63,-134
212893,9.009,-1.849,2.042,-0.416424,0.133752,0.749222,99938.71,-131,+63,-134
212903,9.178,-1.913,1.968,-0.296700,0.094908,0.863625,99938.71,-131,+62,-137
212914,9.489,-2.176,2.018,-0.184424,0.065110,0.978029,99938.88,-132,+61,-135
212923,9.821,-2.460,2.558,-0.103012,0.042762,1.083919,99939.73,-132,+59,-134
212933,10.148,-2.941,2.881,-0.103012,0.018817,1.176506,99939.15,-132,+59,-134
212943,10.210,-2.759,3.069,-0.119507,-0.017899,1.261643,99939.62,-131,+55,-136
212954,10.115,-2.758,2.860,-0.084388,-0.093991,1.362744,99939.62,-131,+53,-135
212963,10.142,-2.641,2.903,-0.025856,-0.181257,1.484597,99943.15,-133,+48,-135
212973,10.707,-2.839,3.022,-0.009892,-0.257880,1.616028,99940.74,-131,+48,-135
212983,11.754,-2.677,2.781,-0.061507,-0.320137,1.757570,99939.27,-131,+44,-137
212994,12.492,-2.089,2.763,-0.097690,-0.368559,1.924120,99939.48,-131,+40,-137
213003,12.866,-1.780,2.120,-0.073213,-0.436669,2.112487,99939.48,-129,+34,-137
213013,13.417,-2.145,1.800,0.017777,-0.523935,2.327459,99939.70,-128,+29,-140
213023,14.133,-2.836,1.982,0.086952,-0.608541,2.527532,99938.23,-128,+29,-140
213033,14.347,-3.440,2.304,0.073649,-0.637275,2.702596,99941.05,-126,+23,-139
213044,14.407,-3.567,2.788,-0.050865,-0.617587,2.848394,99937.34,-124,+15,-139
213053,15.035,-3.457,3.124,-0.254131,-0.568100,2.991532,99937.34,-121,+9,-143
213063,16.213,-3.363,3.262,-0.514332,-0.494669,3.118706,99938.33,-121,+9,-143
213073,17.885,-3.589,3.870,-0.801672,-0.449972,3.219275,99939.84,-119,+3,-142
213084,20.849,-2.818,6.256,-1.045910,-0.437201,3.279936,99938.06,-116,-1,-144
213093,22.952,-0.026,7.829,-1.344956,-0.359513,3.303880,99936.55,-113,-5,-148
213103,22.831,1.396,7.867,-1.788203,-0.220633,3.348578,99936.55,-113,-5,-148
213113,22.032,3.040,6.492,-2.255395,-0.090798,3.329954,99942.53,-111,-8,-146
213118,20.292,3.050,5.004,-2.674166,0.009771,3.313458,99937.39,-111,-8,-146
213129,18.454,1.710,2.726,-3.033340,0.068835,3.223532,99937.39,-110,-9,-148
213139,16.510,0.711,0.070,-3.500532,0.039569,2.920229,99937.30,-108,-7,-153
213148,12.314,-4.654,1.238,-3.729872,-0.142413,2.699404,99938.13,-106,-4,-153
213158,11.814,-8.876,1.982,-3.333982,-0.255752,2.793055,99938.13,-106,-4,-153
213169,13.855,-7.692,3.438,-3.020569,-0.476045,2.781349,99941.16,-105,-1,-155
213179,13.271,-5.133,5.393,-2.183028,-0.464339,2.635019,99941.20,-102,+0,-160
213188,12.019,-4.204,5.108,-1.500864,-0.265330,2.477514,99938.63,-101,+0,-157
213198,9.638,-4.995,5.195,-0.927250,-0.148798,2.501991,99938.63,-101,+0,-157
213209,6.604,-4.997,5.504,-0.439305,-0.118468,2.258285,99938.63,-99,-2,-159
213219,4.762,-1.966,4.106,0.072053,-0.132835,1.718726,99942.50,-98,-5,-161
213228,5.943,0.399,-0.133,0.238603,-0.167422,0.925350,99940.08,-98,-7,-158
213238,5.660,-0.440,0.894,0.191777,-0.122192,0.433681,99940.14,-98,-6,-158
213249,4.724,1.071,2.303,0.384933,0.074156,-0.060649,99937.63,-98,-6,-158
213259,3.655,3.144,2.214,0.597245,0.155569,-0.691199,99937.63,-99,-3,-158
213269,2.280,4.472,1.938,0.718566,0.309349,-1.249915,99940.30,-101,-1,-154
213278,1.863,3.400,1.806,0.625979,0.598284,-1.555346,99937.78,-103,+1,-153
213288,2.253,1.319,1.337,0.491887,0.719073,-1.771382,99935.25,-103,+1,-153
213299,2.307,-0.747,1.165,0.472199,0.729183,-2.034245,99935.25,-106,+9,-152
213309,2.459,-1.574,0.906,0.605759,0.750468,-2.464721,99938.81,-108,+14,-147
213318,3.098,-0.750,0.632,0.741979,0.822835,-3.006941,99938.81,-111,+23,-146
213328,4.030,0.448,0.586,0.814878,0.915954,-3.468280,99936.14,-111,+23,-146
213339,4.742,0.909,0.629,0.898419,1.001623,-3.783822,99935.88,-111,+34,-144
213349,5.038,0.483,0.961,0.989942,1.093678,-4.015289,99935.41,-113,+44,-139
213354,5.163,-0.299,1.163,1.038896,1.160192,-4.168005,99935.41,-113,+44,-139
213363,5.389,-1.104,1.222,1.065501,1.230431,-4.328701,99935.59,-112,+54,-138
213373,5.951,-1.575,1.430,1.033043,1.337917,-4.575601,99935.38,-110,+67,-136
213384,6.686,-1.632,1.604,0.886180,1.413476,-4.868793,99933.48,-110,+67,-136
213394,7.763,-1.605,1.309,0.781887,1.467752,-5.149747,99932.59,-107,+81,-131
213403,9.124,-1.622,1.118,0.786676,1.532669,-5.398774,99932.59,-102,+94,-131
213413,10.510,-1.927,1.297,0.882456,1.604504,-5.607361,99935.07,-95,+110,-130
213424,11.795,-2.490,1.455,0.986749,1.663036,-5.780829,99933.70,-95,+110,-130
213434,12.948,-2.966,1.356,1.090511,1.730082,-5.918645,99935.63,-86,+121,-126
213443,14.038,-3.470,1.294,1.132547,1.773183,-6.024004,99930.29,-75,+132,-128
213453,15.199,-4.169,1.118,1.068162,1.807770,-6.147985,99930.29,-61,+142,-129
213464,16.696,-4.818,0.895,0.945777,1.820540,-6.230994,99935.78,-50,+145,-126
213474,18.117,-5.971,0.859,0.861703,1.772118,-6.235251,99936.42,-50,+145,-126
213483,19.037,-7.525,0.978,0.843612,1.692302,-6.201728,99935.53,-39,+148,-131
213493,19.663,-9.032,1.094,0.803171,1.600779,-6.129361,99933.42,-30,+150,-132
213504,19.983,-10.495,0.817,0.776034,1.486375,-5.963875,99933.42,-26,+148,-130
213514,20.562,-12.391,1.616,0.819135,1.424651,-5.659508,99938.45,-26,+148,-130
213524,20.906,-15.204,1.114,0.960676,1.300669,-5.239141,99936.72,-23,+148,-134
213533,18.444,-18.372,2.511,0.914382,1.167642,-4.633069,99938.66,-20,+148,-136
213543,15.624,-19.752,2.805,1.085722,1.075055,-3.967932,99938.55,-21,+147,-134
213554,12.929,-22.539,2.087,1.157556,0.978211,-3.259693,99938.55,-21,+147,-134
213564,9.347,-25.454,0.099,0.975575,0.915422,-2.409382,99939.44,-22,+147,-140
213573,7.798,-23.748,-1.944,0.478584,0.794633,-1.504795,99939.97,-21,+145,-140
213583,8.135,-20.148,-1.981,-0.018938,0.650963,-0.376723,99940.75,-24,+145,-138
213594,9.323,-16.837,-2.326,0.016181,0.339147,0.776359,99941.22,-24,+145,-138
213604,10.640,-15.486,-0.359,0.276383,-0.000339,1.741606,99941.22,-27,+141,-144
213614,10.755,-15.468,-2.848,0.544034,-0.424431,2.289679,99941.36,-28,+137,-145
213623,11.976,-15.160,-1.463,0.192309,-0.747421,3.025055,99940.31,-31,+131,-144
213634,18.708,11.985,3.981,1.545464,-0.920889,2.980890,99940.05,-31,+131,-144
213644,29.566,39.965,-1.567,1.676895,-0.778816,1.030708,99939.27,-29,+122,-150
213654,16.646,-0.193,-4.577,-0.081195,-0.944834,1.767148,99939.27,-29,+120,-152
213663,11.758,-23.307,3.203,2.044051,-0.874063,3.641238,99944.24,-32,+107,-152
213673,9.682,-13.929,-1.493,3.361023,-1.034761,3.470431,99941.66,-32,+107,-152
213684,10.206,-7.751,-0.504,0.743575,-0.358981,2.507844,99944.87,-32,+97,-158
213694,10.260,-3.620,3.597,0.206144,-0.056743,2.589789,99942.77,-34,+94,-158
213703,7.348,-1.853,5.202,0.497740,-0.159972,2.431752,99942.77,-37,+88,-156
213713,8.241,-3.102,4.119,0.587135,-0.114743,2.279037,99941.33,-37,+88,-156
213724,10.340,-3.750,2.800,0.483905,-0.190302,2.340230,99938.66,-37,+83,-160
213734,9.615,-5.578,2.450,0.361520,-0.235532,2.213588,99938.88,-38,+81,-160
213743,9.449,-6.273,2.313,0.087484,-0.311091,2.052358,99940.34,-39,+75,-157
213753,9.797,-4.997,2.340,-0.263177,-0.372284,1.868781,99940.34,-39,+75,-157
213764,9.620,-4.034,2.824,-0.775598,-0.385587,1.710744,99943.19,-38,+74,-162
213774,8.787,-3.743,2.991,-1.108699,-0.500522,1.586230,99939.78,-37,+76,-161
213784,8.443,-2.764,2.029,-1.114552,-0.492009,1.456396,99939.52,-38,+75,-159
213793,9.079,-1.420,0.932,-0.950662,-0.335036,1.370726,99940.83,-38,+75,-159
213804,10.035,-1.314,1.404,-0.531360,-0.224890,1.381368,99940.83,-37,+76,-162
213814,9.975,-2.521,2.018,0.043851,-0.232871,1.341460,99942.23,-36,+77,-161
213824,9.498,-3.296,2.411,0.351055,-0.275795,1.225460,99941.50,-37,+71,-160
213833,8.917,-4.276,2.506,0.197098,-0.257348,1.104139,99939.20,-37,+71,-160
213843,8.830,-4.488,2.382,-0.246149,-0.208394,0.964194,99939.98,-38,+71,-164
213854,8.961,-3.743,2.601,-0.615433,-0.142945,0.826378,99939.98,-36,+72,-161
213864,9.329,-2.760,2.700,-0.801672,-0.073238,0.736451,99939.23,-38,+71,-161
213874,9.566,-2.137,2.327,-0.819231,-0.023220,0.689093,99938.96,-38,+71,-161
213883,9.647,-2.054,1.840,-0.705892,-0.009917,0.680047,99937.65,-36,+74,-164
213894,9.555,-2.035,1.441,-0.490920,-0.021624,0.694414,99938.38,-37,+75,-161
213904,9.371,-2.449,1.722,-0.259984,-0.033330,0.714102,99938.38,-38,+73,-160
213914,9.091,-3.516,2.020,-0.189745,-0.023220,0.715699,99942.50,-38,+73,-160
213923,9.046,-4.074,2.207,-0.323837,0.023074,0.676855,99940.88,-38,+73,-163
213934,9.221,-3.828,2.382,-0.494112,0.065110,0.618855,99941.03,-38,+73,-161
213944,9.264,-3.395,2.412,-0.585103,0.079477,0.576818,99939.72,-40,+73,-160
213954,9.277,-3.305,2.394,-0.614369,0.078945,0.549148,99939.72,-39,+73,-163
213963,9.239,-3.106,2.281,-0.614369,0.070431,0.536378,99942.64,-39,+75,-163
213974,9.304,-2.883,2.054,-0.599470,0.076285,0.551277,99942.13,-40,+77,-160
213984,9.395,-2.954,1.821,-0.553709,0.082138,0.583203,99938.77,-41,+75,-159
213994,9.380,-3.012,1.678,-0.513800,0.095973,0.627901,99939.77,-41,+78,-163
214003,9.326,-3.059,1.771,-0.513268,0.107679,0.670469,99939.77,-41,+78,-163
214013,9.127,-2.715,1.817,-0.546791,0.103422,0.729534,99940.32,-42,+79,-158
214024,9.050,-1.976,1.873,-0.526039,0.092248,0.818396,99938.43,-43,+77,-159
214034,9.393,-1.505,2.093,-0.399929,0.054468,0.941313,99939.23,-43,+78,-162
214044,9.827,-1.641,2.344,-0.210498,0.012431,1.089772,99940.38,-43,+78,-162
214053,9.870,-2.428,2.538,-0.071617,-0.001936,1.244084,99940.38,-43,+77,-158
214060,9.896,-3.043,2.487,-0.063635,0.015092,1.351038,99939.11,-43,+77,-158
214069,10.133,-3.444,2.654,-0.151966,0.041165,1.437240,99939.11,-45,+73,-158
214079,10.440,-3.387,2.748,-0.262644,0.038505,1.523973,99939.38,-45,+73,-162
214089,10.697,-2.675,2.795,-0.321177,-0.017367,1.625606,99938.58,-47,+71,-158
214098,11.120,-2.501,2.855,-0.284461,-0.124321,1.743735,99937.75,-47,+71,-158
214109,11.615,-2.590,2.371,-0.228057,-0.220101,1.887936,99942.56,-47,+67,-158
214119,12.331,-2.783,1.973,-0.162076,-0.347275,2.013514,99938.47,-47,+67,-161
214129,12.769,-2.807,1.767,-0.054590,-0.506376,2.135900,99938.72,-47,+63,-160
214138,13.085,-3.166,2.164,0.041190,-0.608009,2.283826,99938.72,-47,+63,-160
214149,13.273,-3.899,2.788,0.083759,-0.680376,2.407808,99939.05,-46,+58,-160
214159,13.243,-4.424,3.499,-0.032241,-0.710174,2.508909,99939.05,-45,+56,-165
214169,13.483,-4.673,3.710,-0.250406,-0.714431,2.589257,99942.58,-45,+51,-163
214178,13.957,-4.518,3.554,-0.535617,-0.684632,2.659496,99940.59,-45,+46,-163
214189,15.162,-3.930,3.271,-0.807525,-0.696871,2.707917,99938.97,-45,+46,-163
214199,17.018,-3.081,3.155,-0.982589,-0.772430,2.777092,99938.80,-43,+47,-168
214209,19.412,-1.841,4.904,-0.952791,-0.907586,2.861165,99938.80,-43,+43,-164
214219,20.847,-0.624,5.906,-0.953855,-0.942706,2.989403,99940.91,-42,+40,-167
214230,22.031,-1.065,5.601,-1.183727,-0.839476,3.084119,99939.86,-42,+40,-167
214239,23.872,-1.067,4.745,-1.680717,-0.733054,3.106468,99932.98,-41,+39,-171
214249,23.771,1.018,4.348,-2.313396,-0.643660,3.145312,99932.98,-42,+38,-168
214259,21.114,3.679,4.017,-2.834331,-0.542027,3.212890,99932.98,-42,+38,-171
214268,17.428,2.278,3.282,-3.048239,-0.612265,3.318247,99940.49,-42,+38,-171
214279,14.152,-1.287,5.188,-2.646496,-0.887366,3.538541,99936.62,-43,+42,-176
214289,13.919,0.596,8.068,-1.660497,-0.847458,3.535880,99938.76,-45,+38,-173
214294,14.481,2.430,7.659,-0.740479,-0.698999,3.158082,99936.35,-45,+38,-173
214304,13.060,-0.581,5.748,-0.123764,-0.531385,2.860633,99936.35,-45,+31,-177
214313,10.593,-7.564,4.127,-0.643103,-0.257880,2.771771,99940.34,-48,+28,-181
214324,9.549,-12.167,5.765,-0.722387,-0.076431,2.710578,99941.27,-48,+28,-181
214334,7.413,-8.455,8.479,-0.206773,0.048083,2.028413,99937.51,-51,+21,-178
214344,6.356,1.413,6.326,-0.030645,0.307752,0.862029,99936.55,-55,+17,-181
214353,7.142,8.857,2.121,-0.695782,0.597220,-0.260723,99936.55,-63,+19,-183
214364,6.100,6.661,2.727,-1.118809,0.657348,-0.615640,99941.16,-63,+19,-183
214374,5.644,3.931,2.899,-0.889470,0.766963,-0.756649,99938.42,-68,+18,-179
214384,5.198,3.793,1.708,-0.566479,0.662137,-1.287162,99938.27,-75,+23,-183
214394,4.102,3.511,1.738,-0.224865,0.704706,-1.793731,99935.38,-84,+26,-184
214404,3.579,1.821,2.097,-0.068424,0.838798,-2.041694,99935.38,-84,+26,-184
214414,3.450,-0.420,1.652,0.188052,0.851568,-2.304556,99938.29,-92,+27,-180
214424,3.781,-1.754,1.212,0.658437,0.849972,-2.692997,99936.62,-99,+32,-182
214434,4.567,-1.709,1.003,1.065501,0.874981,-3.153804,99936.88,-109,+38,-182
214444,5.426,-0.652,0.841,1.225134,0.928192,-3.581620,99934.93,-116,+40,-177
214454,5.985,-0.207,0.868,1.141061,1.009073,-3.868427,99934.93,-116,+40,-177
214464,5.856,-0.256,1.215,1.196933,1.069734,-4.086060,99935.43,-122,+49,-177
214474,5.880,-0.391,2.140,1.246419,1.151146,-4.340940,99938.63,-131,+60,-177
214483,6.251,-1.213,2.390,1.346455,1.174027,-4.609124,99936.12,-135,+67,-171
214494,7.063,-2.126,2.369,1.500767,1.226174,-4.863472,99933.54,-135,+67,-171
214504,8.049,-3.053,2.401,1.593354,1.315036,-5.058756,99933.54,-138,+81,-172
214514,8.837,-3.725,2.159,1.649758,1.394853,-5.229032,99934.51,-143,+96,-171
214524,9.724,-3.889,1.932,1.645501,1.474137,-5.390793,99933.84,-141,+105,-165
214530,10.409,-3.768,1.949,1.599740,1.520963,-5.513178,99931.41,-141,+105,-165
214539,11.278,-3.732,2.223,1.563556,1.545972,-5.622261,99931.41,-138,+123,-166
214549,12.429,-3.699,2.624,1.490657,1.526816,-5.776040,99931.26,-138,+123,-166
214559,13.513,-4.294,2.626,1.273556,1.542247,-5.936738,99931.26,-134,+138,-168
214569,14.917,-5.683,2.163,1.017612,1.598651,-6.057526,99935.16,-124,+146,-161
214579,16.242,-7.050,1.944,0.812749,1.643880,-6.133086,99933.34,-115,+162,-165
214589,17.002,-7.907,1.506,0.654713,1.640155,-6.202792,99936.32,-115,+162,-165
214599,17.901,-8.988,1.352,0.570107,1.679531,-6.180976,99936.32,-108,+172,-168
214609,19.096,-11.181,1.327,0.521153,1.686449,-6.007508,99936.32,-99,+174,-163
214619,18.926,-14.379,1.473,0.431759,1.630045,-5.734004,99935.42,-92,+185,-167
214629,18.123,-16.813,1.743,0.393979,1.553421,-5.340242,99937.20,-91,+185,-167
214639,17.425,-18.276,2.172,0.442933,1.498614,-4.825160,99938.25,-91,+189,-168
214649,16.176,-19.352,1.913,0.544566,1.481586,-4.212702,99938.36,-87,+188,-164
214659,14.689,-21.390,1.161,0.633960,1.371972,-3.547033,99938.36,-84,+195,-169
214669,12.199,-24.362,-0.498,0.906933,1.158596,-2.848905,99939.24,-87,+193,-170
214679,10.058,-25.630,-1.020,0.981960,1.031422,-2.077346,99940.40,-87,+193,-170
214689,8.344,-23.579,-1.713,0.586603,0.904779,-1.075915,99939.73,-87,+186,-165
214700,8.213,-20.054,-0.906,-0.088645,0.731844,0.117607,99939.73,-87,+188,-169
214710,9.135,-17.425,-1.206,-0.456865,0.390761,1.225460,99939.75,-94,+183,-168
214719,10.617,-14.931,-0.617,-0.168461,0.087991,2.093863,99941.06,-94,+183,-168
214729,12.075,-12.912,-0.701,0.146548,-0.108890,2.628633,99941.06,-96,+173,-163
214739,14.079,-10.029,-4.475,-0.199856,-0.587788,3.136798,99940.42,-99,+168,-170
214749,21.465,17.472,-1.126,0.923960,-1.113513,3.275146,99940.02,-103,+154,-173
214759,34.329,49.104,-1.796,2.470803,-1.160871,1.282396,99940.02,-103,+154,-173
214765,24.836,18.210,-4.659,2.024363,-1.757898,1.739478,99941.38,-99,+141,-173
214774,11.941,-15.961,1.060,3.111996,-1.597733,3.263972,99941.29,-99,+141,-173
214785,6.414,-22.023,5.030,6.885718,-1.408302,4.554338,99939.71,-101,+124,-186
214794,4.940,-14.834,-1.874,5.531498,-0.951751,3.763091,99942.54,-105,+89,-191
214804,8.657,-11.772,0.277,1.798749,0.132688,2.788798,99942.54,-105,+77,-184
214814,8.595,-6.612,6.064,0.921832,0.209312,2.869147,99942.26,-105,+77,-184
214824,8.603,-6.576,4.410,0.472731,0.075752,2.437074,99942.01,-108,+69,-191
214834,11.221,-6.631,1.860,-0.500498,0.130028,2.252432,99941.52,-111,+62,-189
214844,10.678,-8.173,2.059,-1.746699,0.075220,2.122065,99940.05,-110,+61,-182
214854,8.754,-6.140,1.770,-2.064368,0.126303,1.837918,99940.05,-110,+61,-182
214864,8.996,-1.560,2.195,-1.821726,0.260395,1.659129,99943.92,-112,+67,-189
214875,9.809,-0.570,3.558,-1.383268,0.199202,1.613900,99941.34,-115,+65,-186
214884,9.638,-0.535,3.397,-0.803268,-0.035991,1.597405,99941.08,-112,+63,-181
214894,9.330,-1.805,3.171,-0.215287,-0.174871,1.572927,99941.19,-113,+63,-189
214904,9.378,-2.684,2.717,0.159851,-0.257348,1.507478,99941.19,-113,+63,-189
214915,9.285,-3.179,2.594,0.211997,-0.252559,1.417019,99939.45,-115,+56,-186
214924,9.184,-5.207,3.249,-0.137067,-0.170082,1.346781,99941.66,-112,+52,-182
214934,9.271,-5.637,2.591,-0.650553,-0.066853,1.124891,99940.97,-113,+56,-189
214944,9.390,-3.486,1.935,-0.994295,0.009771,0.914176,99938.30,-113,+56,-189
214955,9.445,-1.830,2.133,-0.882020,0.016156,0.852983,99938.30,-115,+52,-186
214964,9.433,-1.587,2.302,-0.560094,-0.032266,0.860965,99942.28,-112,+54,-181
214974,9.138,-2.370,2.463,-0.300424,-0.085477,0.877460,99941.23,-114,+55,-190
214984,9.040,-3.340,2.643,-0.137599,-0.114743,0.858304,99940.08,-114,+55,-190
214994,9.143,-3.634,2.666,-0.168461,-0.098247,0.829570,99938.81,-114,+49,-186
215004,9.099,-3.398,2.723,-0.323305,-0.050358,0.787001,99938.81,-112,+50,-183
215014,9.093,-3.133,2.758,-0.460589,-0.007257,0.754011,99940.88,-114,+52,-190
215024,9.055,-2.908,2.612,-0.485066,0.015624,0.740176,99940.56,-114,+52,-190
215034,8.906,-2.946,2.322,-0.422277,0.019881,0.742304,99940.67,-116,+48,-186
215045,8.754,-3.294,2.135,-0.324369,0.016688,0.742304,99938.98,-112,+48,-182
215054,8.690,-3.731,2.316,-0.291911,0.014560,0.727405,99938.98,-115,+51,-190
215064,8.802,-3.987,2.659,-0.416424,0.014560,0.688029,99940.54,-115,+51,-190
215074,9.075,-3.489,3.151,-0.579250,0.054468,0.655038,99938.65,-116,+46,-184
215085,9.295,-2.924,3.402,-0.743672,0.094908,0.648653,99938.91,-113,+48,-182
215094,9.508,-2.647,3.134,-0.787837,0.116193,0.682176,99937.76,-117,+52,-189
215104,9.487,-2.663,2.605,-0.739947,0.115129,0.739644,99937.76,-117,+52,-189
215114,9.227,-2.424,2.399,-0.664919,0.111936,0.816267,99940.65,-117,+46,-184
215124,8.843,-2.206,2.291,-0.602663,0.110872,0.913111,99940.80,-114,+50,-182
215135,8.494,-2.516,2.460,-0.536681,0.081074,1.028047,99942.10,-118,+52,-188
215144,8.737,-2.751,2.614,-0.462718,0.034780,1.131276,99940.23,-118,+52,-188
215154,9.360,-3.087,2.833,-0.412167,0.001257,1.225460,99940.23,-117,+45,-182
215164,9.902,-3.503,2.905,-0.396736,-0.040780,1.302084,99938.62,-115,+46,-181
215175,10.255,-3.296,3.148,-0.383433,-0.072706,1.383496,99939.52,-119,+46,-188
215184,10.588,-3.240,3.279,-0.358424,-0.133367,1.460120,99938.05,-119,+46,-188
215194,11.032,-3.372,2.879,-0.326498,-0.206266,1.538872,99937.57,-117,+38,-183
215204,11.490,-3.438,2.425,-0.300956,-0.258412,1.626139,99937.57,-115,+38,-182
215215,12.004,-3.352,2.128,-0.270626,-0.308431,1.727772,99942.50,-117,+36,-190
215224,12.532,-3.188,1.750,-0.234975,-0.375477,1.843239,99941.25,-117,+36,-190
215234,12.750,-3.219,1.724,-0.182828,-0.450504,1.984248,99938.16,-115,+27,-185
215244,13.175,-3.282,2.061,-0.155158,-0.530321,2.133239,99939.94,-112,+27,-185
215255,13.382,-3.364,2.702,-0.165268,-0.601091,2.290211,99939.94,-113,+22,-192
215265,13.622,-3.546,3.482,-0.228589,-0.653770,2.453037,99941.70,-113,+22,-192
215274,14.218,-3.636,3.751,-0.345654,-0.714431,2.585532,99939.88,-109,+12,-187
215284,15.439,-3.300,3.477,-0.538277,-0.775091,2.701532,99938.41,-105,+11,-189
215294,17.734,-2.692,3.542,-0.742608,-0.886834,2.810615,99938.45,-106,+7,-198
215305,20.461,-1.863,4.552,-0.847965,-1.035293,2.937789,99938.45,-106,+7,-198
215314,22.196,-0.937,4.600,-1.057616,-1.027843,3.072413,99941.27,-101,-1,-193
215324,24.313,-0.247,4.564,-1.499268,-0.923550,3.128284,99939.58,-95,+0,-196
215334,25.587,1.386,4.488,-1.983487,-0.811807,3.202780,99937.48,-97,-1,-205
215345,23.955,3.763,4.850,-2.332019,-0.656963,3.306009,99935.70,-91,-1,-205
215354,21.464,4.104,5.063,-2.552313,-0.581935,3.364009,99935.70,-91,-3,-200
215364,19.103,1.409,5.067,-2.543799,-0.709109,3.370926,99940.33,-88,+1,-203
215374,17.576,-3.023,6.063,-2.078203,-1.054449,3.522045,99938.08,-86,+0,-211
215385,16.663,-4.043,7.538,-1.165635,-1.223660,3.458192,99936.92,-78,-7,-205
215395,16.531,-4.467,6.081,-0.588296,-1.037953,3.341660,99933.78,-78,-7,-205
215404,14.924,-8.141,5.995,-0.749525,-0.864486,3.544394,99933.78,-76,-5,-208
215414,11.749,-10.326,7.370,-0.042883,-0.650577,3.517789,99937.59,-75,-13,-214
215425,7.804,-6.274,7.852,0.490823,-0.415385,2.753679,99937.12,-71,-22,-204
215435,6.347,1.340,4.178,0.182199,-0.013110,1.545258,99937.01,-71,-22,-204
215444,7.053,5.576,2.194,-0.893727,0.265184,0.509772,99938.16,-73,-15,-205
215454,5.881,4.676,3.607,-1.491286,0.570615,0.176672,99938.16,-78,-12,-208
215464,4.652,3.753,2.381,-1.535451,0.625422,-0.180906,99939.48,-80,-8,-198
215470,3.516,4.470,1.135,-1.488625,0.652559,-0.743346,99938.96,-80,-8,-198
215479,2.730,4.567,1.245,-1.574827,0.854229,-1.239272,99938.96,-87,+5,-198
215489,2.350,3.723,1.075,-1.728607,1.050578,-1.678795,99937.74,-87,+5,-198
