49454,9.598,-0.302,1.674,-0.005663,-0.003618,-0.011129,100150.16,-73,+2,-303
49464,9.638,-0.356,1.629,-0.012048,-0.004150,-0.004744,100143.56,-72,+2,-303
49473,9.663,-0.322,1.627,-0.012580,-0.002553,-0.002083,100148.17,-72,+2,-303
49483,9.639,-0.330,1.617,-0.003534,-0.002021,-0.003147,100148.17,-71,+2,-302
49494,9.656,-0.396,1.549,0.002319,-0.000425,-0.003147,100150.05,-73,+3,-302
49504,9.626,-0.454,1.574,0.009769,0.000639,-0.004744,100147.69,-73,+2,-303
49514,9.639,-0.437,1.597,0.015622,0.001171,-0.008469,100147.27,-73,+1,-302
49523,9.604,-0.455,1.627,0.013493,0.001171,-0.006872,100146.91,-73,+1,-302
49533,9.583,-0.396,1.637,0.005512,0.001171,-0.006340,100146.91,-73,+2,-303
49544,9.641,-0.320,1.658,-0.000341,0.000107,-0.003680,100147.33,-73,+2,-303
49554,9.685,-0.321,1.635,0.004448,0.000107,0.000577,100147.89,-73,+2,-301
49563,9.653,-0.377,1.638,0.015622,-0.000425,0.002174,100145.17,-73,+2,-301
49573,9.650,-0.401,1.654,0.014558,-0.002021,0.003238,100144.39,-72,+1,-301
49584,9.653,-0.398,1.653,0.008704,-0.002553,0.004302,100144.39,-73,+1,-302
49594,9.653,-0.374,1.617,0.001255,-0.004150,0.006963,100146.55,-73,+1,-303
49603,9.642,-0.348,1.595,0.000191,-0.003618,0.008027,100148.28,-73,+1,-303
49613,9.632,-0.356,1.579,0.007640,-0.001489,0.011752,100147.75,-72,+2,-301
49624,9.636,-0.335,1.621,0.014558,0.001171,0.014944,100145.92,-73,+1,-303
49634,9.662,-0.347,1.656,0.015090,0.002768,0.016009,100145.92,-73,+1,-302
49644,9.685,-0.356,1.722,0.012961,0.002236,0.017073,100150.73,-73,+1,-302
49653,9.666,-0.392,1.679,0.012961,0.001703,0.016009,100147.28,-73,+1,-301
49664,9.644,-0.483,1.625,0.016154,0.002768,0.012284,100147.80,-73,+1,-303
49674,9.648,-0.527,1.610,0.010833,0.001703,0.007495,100146.44,-73,+1,-301
49684,9.628,-0.466,1.624,0.008704,0.002768,0.001642,100146.44,-73,+1,-301
49693,9.598,-0.510,1.594,0.009237,0.003300,-0.004744,100145.60,-73,+1,-301
49703,9.636,-0.530,1.594,0.002319,0.005428,-0.008469,100146.65,-73,+1,-302
49714,9.656,-0.456,1.671,-0.005663,0.005960,-0.015386,100144.62,-73,+1,-301
49724,9.653,-0.377,1.652,-0.006195,0.004896,-0.015918,100144.93,-73,+1,-301
49733,9.614,-0.376,1.650,0.000723,0.002768,-0.018047,100144.93,-73,+0,-301
49743,9.614,-0.395,1.610,-0.004066,0.003300,-0.018579,100145.89,-73,+1,-302
49754,9.650,-0.365,1.644,-0.005130,0.003300,-0.019111,100146.78,-73,+1,-302
49764,9.632,-0.353,1.624,-0.002470,0.003832,-0.018579,100146.67,-73,+1,-302
49774,9.635,-0.356,1.660,0.004270,0.005783,-0.017514,100147.50,-73,+1,-302
49783,9.656,-0.376,1.632,0.006044,0.005428,-0.017514,100147.50,-73,+1,-303
49794,9.605,-0.429,1.667,0.003383,0.006492,-0.018579,100147.88,-73,+1,-302
49804,9.602,-0.442,1.616,-0.007259,0.005960,-0.021771,100147.62,-73,+1,-302
49814,9.643,-0.404,1.672,-0.011516,0.005428,-0.024432,100145.21,-73,+1,-302
49823,9.642,-0.348,1.634,-0.008855,0.005428,-0.028157,100144.48,-73,+2,-303
49833,9.655,-0.326,1.627,0.001255,0.004364,-0.027092,100144.48,-73,+2,-302
49844,9.636,-0.365,1.661,0.006044,0.004364,-0.027092,100145.95,-73,+2,-302
49854,9.643,-0.356,1.677,0.000723,0.004896,-0.026560,100146.84,-73,+2,-302
49863,9.656,-0.341,1.673,-0.001938,0.006492,-0.024964,100146.16,-73,+2,-301
49873,9.650,-0.330,1.664,0.000191,0.006492,-0.022303,100148.20,-73,+1,-302
49884,9.648,-0.345,1.677,0.003383,0.005960,-0.020707,100148.20,-73,+1,-302
49894,9.622,-0.322,1.650,0.000723,0.003832,-0.018047,100149.16,-73,+2,-301
49904,9.637,-0.305,1.694,-0.000341,0.001703,-0.012725,100147.11,-73,+2,-303
49913,9.641,-0.245,1.692,-0.001938,0.002236,-0.006872,100145.39,-73,+1,-303
49924,9.605,-0.284,1.612,0.001787,0.002768,-0.001019,100147.02,-73,+1,-303
49934,9.629,-0.342,1.540,0.002319,0.004896,0.003770,100147.02,-73,+2,-301
49944,9.674,-0.406,1.577,0.004980,0.007557,0.003770,100146.27,-73,+2,-303
49953,9.629,-0.390,1.573,0.007640,0.009153,0.001642,100147.31,-74,+1,-301
49964,9.649,-0.404,1.623,0.011365,0.012346,-0.001551,100147.16,-74,+1,-301
49974,9.655,-0.417,1.698,0.016154,0.011281,-0.006340,100149.88,-74,+2,-301
49984,9.613,-0.402,1.661,0.015090,0.010217,-0.011129,100149.88,-73,+2,-301
49994,9.654,-0.335,1.668,0.015090,0.010749,-0.010065,100149.62,-73,+1,-301
50003,9.631,-0.354,1.659,0.012961,0.009685,-0.007936,100148.51,-73,+1,-302
50014,9.598,-0.358,1.653,0.012429,0.008621,-0.005808,100146.32,-73,+1,-302
50024,9.606,-0.348,1.680,0.011365,0.008621,-0.004212,100144.49,-73,+2,-302
50033,9.612,-0.389,1.673,0.006576,0.008089,-0.005276,100144.49,-73,+2,-302
50043,9.614,-0.474,1.658,-0.000874,0.007557,-0.009533,100146.80,-73,+2,-301
50054,9.625,-0.429,1.664,-0.015773,0.007025,-0.012193,100145.82,-73,+2,-301
50064,9.643,-0.354,1.646,-0.013112,0.008089,-0.016982,100147.85,-73,+2,-301
50074,9.619,-0.353,1.648,-0.003002,0.009153,-0.018579,100145.98,-74,+1,-303
50083,9.629,-0.350,1.661,-0.000341,0.011281,-0.020707,100145.98,-74,+2,-301
50094,9.617,-0.287,1.644,-0.002470,0.012346,-0.021239,100147.01,-74,+2,-301
50104,9.639,-0.326,1.612,-0.007791,0.015006,-0.019111,100148.68,-73,+2,-301
50114,9.612,-0.381,1.672,-0.012580,0.015538,-0.019111,100145.18,-74,+1,-301
50123,9.657,-0.317,1.636,-0.031204,0.015006,-0.020175,100146.38,-73,+3,-301
50129,9.649,-0.208,1.564,-0.033332,0.017135,-0.016450,100146.38,-73,+3,-301
50139,9.620,-0.207,1.625,-0.021094,0.019263,-0.011661,100146.38,-73,+3,-302
50149,9.602,-0.224,1.701,-0.011516,0.019795,-0.005808,100144.37,-73,+3,-302
50159,9.600,-0.198,1.643,-0.005663,0.019795,0.002174,100143.38,-74,+2,-301
50169,9.626,-0.249,1.674,0.004448,0.022988,0.011220,100145.79,-73,+2,-301
50179,9.638,-0.327,1.696,0.009769,0.022988,0.016541,100144.71,-74,+2,-302
50189,9.636,-0.386,1.697,0.006576,0.024584,0.018669,100146.96,-74,+2,-302
50199,9.630,-0.462,1.690,-0.008855,0.024052,0.017073,100145.66,-74,+2,-301
50208,9.625,-0.378,1.759,-0.026947,0.020859,0.013880,100145.66,-74,+2,-301
50219,9.607,-0.293,1.768,-0.031204,0.017667,0.013880,100146.23,-74,+3,-301
50229,9.598,-0.314,1.732,-0.025351,0.016070,0.014412,100145.20,-74,+3,-301
50239,9.639,-0.359,1.642,-0.017901,0.017135,0.016009,100145.20,-74,+2,-301
50249,9.660,-0.386,1.605,-0.013644,0.019795,0.016009,100147.62,-74,+3,-301
50258,9.655,-0.339,1.654,-0.005663,0.020859,0.014944,100144.59,-74,+3,-301
50269,9.622,-0.320,1.721,0.002851,0.019795,0.013880,100147.93,-74,+1,-301
50279,9.620,-0.345,1.796,0.008704,0.018731,0.016009,100145.59,-74,+1,-301
50289,9.636,-0.386,1.796,0.010301,0.016602,0.015476,100146.86,-74,+2,-301
50299,9.599,-0.390,1.753,0.002319,0.014474,0.014412,100145.66,-75,+1,-301
50309,9.618,-0.435,1.666,-0.004066,0.015538,0.012816,100145.39,-74,+1,-301
50319,9.616,-0.363,1.638,-0.003002,0.016070,0.011220,100147.06,-74,+1,-301
50329,9.651,-0.321,1.712,0.003915,0.017667,0.009091,100147.06,-75,+3,-301
50338,9.649,-0.356,1.762,0.018282,0.017667,0.007495,100147.06,-74,+2,-301
50349,9.644,-0.369,1.781,0.021475,0.016602,0.005898,100147.33,-75,+2,-301
50359,9.631,-0.419,1.763,0.015622,0.015006,0.004302,100146.44,-75,+2,-301
50364,9.623,-0.436,1.763,0.010301,0.015006,0.000577,100145.02,-74,+2,-301
50374,9.633,-0.431,1.771,0.001255,0.014474,-0.001019,100143.88,-74,+2,-301
50383,9.600,-0.329,1.729,-0.010452,0.011281,-0.002083,100143.88,-74,+2,-301
50394,9.595,-0.261,1.695,-0.000874,0.012878,0.002174,100146.71,-75,+2,-301
50404,9.635,-0.275,1.690,0.009769,0.012878,0.007495,100146.77,-75,+3,-301
50414,9.657,-0.257,1.722,0.019347,0.015538,0.012284,100145.04,-75,+3,-301
50424,9.622,-0.256,1.743,0.032117,0.016070,0.018137,100144.57,-74,+1,-300
50434,9.637,-0.302,1.756,0.035310,0.018731,0.022394,100144.57,-75,+2,-299
50444,9.679,-0.388,1.716,0.039567,0.019263,0.026651,100147.43,-74,+1,-301
50454,9.721,-0.352,1.721,0.040631,0.019795,0.028247,100146.76,-74,+1,-301
50464,9.728,-0.356,1.713,0.047016,0.015538,0.030375,100145.71,-76,+1,-299
50473,9.702,-0.310,1.761,0.050209,0.011281,0.034100,100142.41,-74,+1,-301
50484,9.735,-0.208,1.780,0.049145,0.005960,0.038889,100142.41,-75,+1,-301
50494,9.772,-0.188,1.879,0.053934,0.003832,0.045807,100148.03,-74,+1,-300
50504,9.708,-0.141,1.825,0.049677,-0.003086,0.054853,100143.69,-74,+1,-300
50513,9.690,-0.205,1.689,0.052337,-0.002553,0.062302,100145.42,-75,+0,-301
50524,9.637,-0.339,1.662,0.060319,0.000639,0.068687,100145.63,-75,+1,-300
50534,9.650,-0.395,1.600,0.055530,0.002768,0.067623,100145.63,-74,+0,-300
50544,9.624,-0.502,1.622,0.044888,0.011813,0.063366,100144.40,-74,+0,-300
50554,9.532,-0.607,1.686,0.032117,0.018199,0.055917,100144.71,-75,+0,-299
50564,9.389,-0.577,1.717,0.003383,0.012346,0.048999,100145.29,-75,+0,-300
50574,9.290,-0.524,1.792,-0.029607,0.008621,0.044210,100142.41,-76,+0,-299
50584,9.145,-0.617,1.802,-0.053552,0.000639,0.032504,100142.41,-76,+0,-299
50594,9.000,-0.808,1.762,-0.083883,-0.001489,0.016541,100149.02,-75,+0,-301
50604,9.252,-0.960,1.647,-0.112617,0.001171,-0.010065,100144.52,-76,+0,-299
50614,9.578,-1.209,1.774,-0.125387,0.001171,-0.047313,100144.37,-74,+0,-300
50624,9.599,-1.245,2.000,-0.149864,-0.005214,-0.098927,100143.07,-74,+0,-300
50634,9.419,-1.100,2.151,-0.172213,-0.014260,-0.154267,100143.07,-76,+1,-300
50644,9.023,-0.815,1.752,-0.197222,-0.021709,-0.196835,100147.37,-75,+1,-301
50654,8.979,-0.656,1.332,-0.171149,-0.011067,-0.228230,100146.37,-76,+3,-301
50664,9.174,-0.722,1.203,-0.113149,0.003832,-0.253771,100147.32,-76,+3,-301
50674,9.349,-0.834,0.981,-0.062598,0.029905,-0.283569,100144.91,-75,+4,-299
50684,9.748,-1.224,1.136,-0.013644,0.060768,-0.326670,100144.91,-74,+5,-300
50694,10.203,-1.376,1.676,0.000723,0.076199,-0.399569,100147.61,-75,+6,-300
50704,10.482,-1.224,2.128,-0.039185,0.073006,-0.483110,100147.61,-75,+6,-300
50714,10.437,-1.063,2.425,-0.098782,0.052786,-0.560798,100147.72,-75,+7,-300
50724,10.210,-0.653,2.674,-0.171149,0.016602,-0.628909,100142.08,-76,+9,-300
50734,9.990,-0.087,2.594,-0.224892,-0.020113,-0.664028,100142.08,-75,+11,-300
50744,9.771,0.439,2.086,-0.240855,-0.042994,-0.660303,100145.77,-75,+11,-300
50754,9.547,0.880,1.579,-0.246176,-0.046186,-0.611349,100144.46,-75,+13,-300
50764,9.540,1.739,1.356,-0.214250,-0.037141,-0.521422,100144.77,-75,+16,-299
50775,9.568,1.867,1.441,-0.121662,-0.016388,-0.402762,100146.45,-75,+17,-300
50784,9.580,1.833,1.700,-0.053020,-0.003086,-0.279312,100146.45,-75,+17,-300
50794,9.551,1.554,2.002,-0.009919,-0.005746,-0.161716,100146.13,-74,+17,-300
50804,9.525,1.250,2.084,0.000191,-0.017453,-0.063276,100146.08,-74,+17,-301
50814,9.556,0.807,2.121,-0.010452,-0.033416,0.013880,100146.50,-74,+18,-301
50824,9.610,0.504,1.982,-0.044507,-0.050975,0.066027,100143.67,-74,+18,-301
50834,9.724,0.446,1.855,-0.083351,-0.059489,0.104339,100143.67,-74,+18,-300
50844,9.611,0.389,1.739,-0.100378,-0.061618,0.134137,100144.96,-74,+17,-301
50854,9.519,0.293,1.576,-0.092396,-0.057893,0.152229,100146.79,-74,+17,-301
50864,9.511,0.201,1.489,-0.063130,-0.055232,0.164467,100146.63,-74,+17,-301
50874,9.548,0.100,1.570,-0.020030,-0.048315,0.167128,100144.45,-74,+18,-301
50884,9.546,0.068,1.721,0.019879,-0.045654,0.164467,100144.45,-74,+17,-301
50894,9.429,-0.119,1.812,0.041163,-0.048847,0.152229,100147.96,-73,+17,-301
50905,9.526,-0.353,1.899,0.010301,-0.048847,0.134669,100146.80,-73,+17,-301
50914,9.562,-0.534,1.788,-0.058874,-0.051508,0.111788,100146.91,-74,+17,-301
50924,9.613,-0.390,1.743,-0.129112,-0.052572,0.085715,100145.24,-74,+17,-301
50934,9.622,-0.274,1.673,-0.160506,-0.050975,0.063898,100145.24,-74,+16,-301
50945,9.638,-0.208,1.641,-0.171681,-0.044590,0.047935,100147.16,-74,+16,-301
50955,9.673,-0.200,1.675,-0.198996,-0.039269,0.039953,100147.84,-74,+17,-301
50964,9.620,-0.040,1.583,-0.233938,-0.038205,0.035697,100147.37,-73,+18,-301
50974,9.537,0.470,1.640,-0.251497,-0.040333,0.047403,100146.63,-73,+17,-302
50984,9.560,0.832,1.861,-0.208396,-0.054700,0.077201,100146.63,-73,+18,-301
50994,9.643,0.961,1.933,-0.135497,-0.072792,0.126155,100149.16,-73,+18,-301
51004,9.675,0.849,1.949,-0.072708,-0.080774,0.192137,100149.37,-73,+19,-302
51014,9.656,0.733,2.002,-0.050892,-0.088755,0.263440,100145.55,-73,+17,-302
51024,9.696,1.053,1.950,-0.061534,-0.097269,0.333146,100147.27,-72,+17,-302
51034,9.730,1.144,1.647,-0.014176,-0.097269,0.423072,100147.27,-72,+17,-302
51044,9.672,0.919,1.447,0.068301,-0.089819,0.501293,100147.96,-72,+17,-301
51054,9.616,0.819,1.666,0.103420,-0.077581,0.584834,100145.18,-72,+14,-303
51064,9.625,0.882,1.631,0.098631,-0.076517,0.680081,100146.65,-73,+13,-302
51075,9.491,1.284,1.607,0.087989,-0.072260,0.796614,100144.98,-73,+13,-302
51084,9.544,1.786,1.539,0.102888,-0.062682,0.940283,100144.98,-72,+9,-303
51094,9.941,2.484,1.407,0.176851,-0.039801,1.112155,100148.88,-72,+7,-303
51104,10.087,2.333,0.929,0.347126,0.005428,1.327127,100148.36,-71,+3,-303
51115,10.360,1.763,0.913,0.569016,0.044272,1.512301,100146.58,-71,+3,-303
51124,10.639,1.660,1.404,0.750998,0.071410,1.683108,100146.80,-72,-1,-303
51134,11.025,1.324,1.744,0.815915,0.085245,1.861897,100146.80,-73,-8,-301
51144,11.494,0.648,1.571,0.727585,0.116107,2.043347,100148.30,-74,-15,-302
51154,12.708,0.001,1.119,0.505163,0.168254,2.187548,100147.63,-74,-15,-302
51165,15.601,-1.207,0.553,0.236980,0.191134,2.278539,100148.35,-72,-21,-299
51174,20.866,-0.705,0.231,-0.104103,0.121428,2.340264,100147.21,-72,-27,-301
51184,27.523,1.587,1.667,-0.419644,0.061832,2.406245,100147.21,-71,-31,-300
51194,29.387,2.686,1.810,-0.640469,0.128878,2.442429,100148.78,-71,-31,-300
51205,23.589,2.930,1.667,-0.894286,0.290107,2.420612,100146.06,-70,-35,-299
51214,20.145,4.839,1.749,-1.040084,0.347043,2.241292,100147.63,-70,-36,-299
51224,17.199,3.468,0.514,-0.803827,0.149630,2.042814,100148.25,-69,-39,-299
51234,12.270,-1.554,1.406,-0.538304,0.082584,2.044943,100148.25,-69,-39,-299
51245,10.058,-8.013,5.413,-0.090800,0.182621,2.076337,100146.98,-69,-43,-298
51254,9.164,-11.697,7.468,0.143328,0.286914,1.958209,100147.65,-68,-47,-298
51264,9.127,-11.531,5.293,-0.180195,0.302345,1.804429,100147.34,-68,-51,-297
51274,8.235,-10.120,2.869,-0.518616,0.244878,1.666613,100143.84,-68,-51,-297
51284,6.237,-9.709,4.344,-0.356323,0.341189,1.614466,100143.84,-67,-53,-296
51295,5.991,-7.948,3.172,-0.125387,0.314052,1.436742,100149.45,-67,-55,-294
51304,4.658,-8.455,2.934,0.120447,0.348639,1.364375,100146.53,-67,-58,-293
51310,3.630,-8.588,3.310,0.292319,0.401318,1.385127,100144.64,-67,-58,-293
51319,2.851,-8.522,3.044,0.380117,0.408235,1.336173,100144.64,-67,-63,-291
51330,1.978,-7.993,2.333,0.389163,0.392272,1.265934,100146.00,-67,-67,-291
51340,1.306,-6.952,1.832,0.379053,0.393336,1.223366,100146.00,-67,-67,-291
51349,0.745,-5.905,1.628,0.381181,0.390676,1.178668,100146.66,-67,-69,-289
51359,0.069,-5.096,1.427,0.388099,0.370988,1.127054,100144.21,-67,-73,-287
51369,-0.599,-4.449,1.196,0.402466,0.362474,1.078632,100143.59,-67,-77,-286
51380,-1.101,-4.049,0.887,0.414172,0.366199,1.021164,100143.59,-67,-77,-286
51389,-1.429,-3.764,0.628,0.414172,0.369923,0.954118,100143.59,-67,-81,-284
51399,-1.606,-3.469,0.364,0.403530,0.363006,0.884412,100144.84,-67,-83,-283
51409,-1.644,-3.060,0.171,0.413640,0.340125,0.801935,100144.42,-67,-87,-282
51420,-1.623,-2.741,0.007,0.481218,0.309263,0.710944,100144.22,-67,-87,-282
51429,-1.595,-2.691,-0.146,0.607328,0.277336,0.617825,100142.59,-67,-91,-280
51439,-1.559,-2.959,-0.059,0.708429,0.248070,0.507678,100142.59,-67,-93,-279
51449,-1.405,-3.170,0.091,0.725988,0.201245,0.372522,100147.73,-67,-95,-279
51460,-1.122,-3.052,0.133,0.642447,0.128346,0.218210,100145.70,-67,-95,-279
51470,-0.823,-2.604,0.172,0.493989,0.050658,0.054853,100144.49,-67,-97,-277
51479,-0.490,-2.185,0.257,0.327970,-0.021177,-0.105845,100144.49,-67,-98,-277
51489,-0.053,-2.045,0.526,0.185897,-0.094076,-0.258560,100144.85,-66,-98,-277
51500,0.437,-2.158,0.693,0.054998,-0.172829,-0.413936,100143.91,-66,-98,-277
51510,1.097,-2.276,0.912,-0.081754,-0.252645,-0.594321,100143.91,-68,-97,-277
51519,1.858,-2.249,1.023,-0.232341,-0.342039,-0.805037,100144.34,-68,-95,-279
51529,2.693,-2.120,0.976,-0.393038,-0.430370,-1.030651,100146.27,-68,-91,-280
51539,3.527,-2.144,0.771,-0.539901,-0.512847,-1.255202,100146.27,-68,-91,-280
51545,4.087,-2.457,0.489,-0.623974,-0.567122,-1.416963,100144.91,-69,-86,-283
51555,4.486,-3.017,0.469,-0.688891,-0.603837,-1.568082,100145.34,-69,-81,-285
51564,5.022,-3.560,0.518,-0.709644,-0.657048,-1.779330,100145.96,-69,-81,-285
51574,5.990,-3.566,0.839,-0.678781,-0.717709,-2.035275,100146.85,-67,-76,-287
51585,7.354,-2.874,1.227,-0.589919,-0.803911,-2.319953,100146.85,-68,-68,-291
51595,8.956,-1.932,1.373,-0.445717,-0.897562,-2.581751,100147.29,-68,-62,-293
51604,10.747,-1.116,1.321,-0.190837,-0.948112,-2.784485,100147.20,-68,-62,-293
51614,12.711,-0.954,1.534,0.174191,-0.952901,-2.921770,100146.04,-68,-55,-296
51624,14.266,-1.362,1.771,0.479622,-0.937470,-2.995733,100144.63,-67,-49,-298
51635,15.044,-2.293,2.286,0.657346,-0.887984,-3.020210,100144.63,-67,-45,-299
51645,15.709,-3.201,2.606,0.756851,-0.807636,-3.050008,100148.43,-67,-45,-299
51654,16.760,-3.485,3.125,0.747273,-0.714516,-3.101090,100145.87,-67,-39,-300
51664,18.156,-3.136,3.472,0.672777,-0.613948,-3.121843,100147.18,-67,-35,-301
51675,19.493,-2.611,3.700,0.571677,-0.481452,-3.089916,100148.12,-67,-30,-303
51684,19.146,-2.400,3.848,0.434392,-0.343104,-2.994668,100148.12,-67,-30,-303
51694,18.375,-4.747,4.850,0.370007,-0.183471,-2.797788,100147.96,-67,-23,-303
51704,19.116,-10.914,6.602,0.835603,0.208162,-2.109238,100145.24,-69,-21,-303
51715,25.663,-15.219,-3.209,0.589768,0.036823,-1.403128,100147.70,-69,-19,-303
51725,25.260,-2.837,-10.404,-1.150763,-0.369177,-1.165275,100149.01,-69,-19,-303
51734,13.540,10.488,-1.408,-1.890927,0.052254,-1.378651,100149.01,-69,-11,-305
51744,5.596,9.787,2.557,-1.144377,0.349171,-1.354174,100149.13,-70,-4,-304
51755,6.958,2.646,-0.072,-0.062066,0.416749,-0.965202,100149.92,-71,-2,-303
51765,10.354,-1.699,0.809,0.639255,0.266694,-0.667220,100149.92,-71,-2,-303
51774,10.106,-0.602,4.248,1.035676,0.079391,-0.592725,100147.52,-72,-3,-303
51784,8.720,1.211,7.908,1.366117,0.109722,-0.642743,100147.52,-72,-5,-302
51794,7.907,-0.208,7.101,1.101658,0.126217,-0.548560,100148.22,-73,-7,-302
51805,7.774,-0.890,3.307,0.100759,0.036291,-0.422982,100148.63,-73,-7,-302
51815,7.740,0.634,1.971,-0.676653,-0.002553,-0.278248,100147.75,-73,-5,-302
51824,8.263,0.988,2.382,-0.861295,0.038951,-0.221312,100146.55,-73,-3,-303
51834,9.493,0.604,1.902,-0.899607,0.062364,-0.186193,100146.55,-73,+0,-302
51845,10.665,1.390,0.046,-0.801167,0.053850,-0.106909,100151.52,-73,+0,-302
51855,10.960,2.047,-1.060,-0.336103,0.110254,-0.034010,100148.39,-73,+1,-302
51864,10.342,0.607,-0.589,0.200796,0.220401,0.026119,100148.44,-73,+1,-301
51874,9.720,-0.698,0.574,0.423750,0.292767,0.052192,100147.39,-74,+0,-301
51885,9.574,-0.541,1.577,0.410447,0.312456,0.048999,100147.39,-74,+0,-301
51895,9.765,0.491,2.267,0.386502,0.281593,0.053256,100149.24,-75,+0,-300
51900,9.642,1.001,2.821,0.408319,0.249134,0.072944,100146.46,-76,-2,-299
51909,9.629,0.831,3.144,0.423750,0.218272,0.119770,100146.46,-76,-2,-299
51919,9.563,0.318,2.935,0.390759,0.170914,0.180963,100144.63,-78,-3,-299
51930,9.571,-0.134,2.280,0.301897,0.140584,0.216614,100144.85,-77,-5,-299
51940,9.825,-0.480,1.674,0.218356,0.134199,0.241623,100144.85,-77,-5,-298
51950,9.727,-0.741,1.295,0.160356,0.155483,0.248008,100148.83,-77,-5,-298
51959,9.729,-0.994,1.279,0.067769,0.178896,0.232577,100147.44,-78,-7,-298
51970,9.760,-0.903,1.701,0.022539,0.197520,0.208632,100145.92,-78,-7,-297
51980,9.805,-1.045,2.035,0.004448,0.198052,0.162871,100145.92,-78,-7,-297
51989,9.734,-1.230,2.299,-0.060470,0.177832,0.115513,100145.92,-78,-7,-297
51999,9.678,-1.101,2.449,-0.183387,0.146437,0.064963,100150.09,-80,-7,-296
52009,9.826,-0.941,2.286,-0.339827,0.119832,0.037825,100146.02,-80,-7,-298
52020,9.690,-0.509,2.045,-0.446249,0.109190,0.029843,100145.75,-80,-6,-296
52030,9.562,0.005,1.786,-0.465937,0.110786,0.036229,100144.45,-80,-6,-296
52039,9.667,0.485,1.957,-0.385589,0.113446,0.070284,100144.45,-80,-5,-296
52049,9.686,0.707,2.135,-0.259479,0.109722,0.119770,100148.02,-80,-4,-296
52060,9.611,0.660,2.308,-0.175938,0.100676,0.195862,100149.81,-80,-4,-296
52070,9.493,0.545,2.415,-0.176470,0.083116,0.279403,100145.34,-80,-4,-296
52080,9.616,0.384,2.345,-0.241919,0.058639,0.359751,100145.34,-80,-3,-296
52089,9.633,0.382,2.333,-0.285020,0.030437,0.435843,100147.72,-81,-5,-295
52100,9.548,0.491,2.214,-0.249369,0.006492,0.497568,100147.72,-80,-4,-296
52110,9.469,0.285,1.978,-0.184451,-0.006278,0.556632,100144.64,-80,-4,-296
52120,9.514,-0.099,1.849,-0.124855,-0.002553,0.612504,100145.89,-80,-6,-295
52129,9.495,-0.345,1.783,-0.084947,0.009685,0.655072,100147.14,-80,-7,-296
52135,9.436,-0.419,1.761,-0.067387,0.021391,0.680614,100147.14,-80,-7,-296
52145,9.401,-0.427,1.652,-0.057809,0.033098,0.706155,100148.54,-80,-8,-296
52155,9.358,-0.415,1.587,-0.021626,0.064492,0.743935,100147.87,-80,-10,-295
52164,9.435,-0.767,1.701,0.032649,0.091630,0.763623,100146.87,-80,-13,-295
52174,9.449,-1.018,1.968,0.078411,0.093758,0.768412,100145.04,-80,-13,-295
52185,9.447,-1.118,2.369,0.092246,0.099612,0.775329,100145.04,-81,-14,-295
52195,9.517,-1.106,2.599,0.043292,0.076199,0.779586,100151.34,-80,-17,-294
52205,9.454,-1.143,2.690,0.039567,0.060768,0.788100,100147.95,-81,-19,-294
52214,9.414,-1.677,2.806,0.032649,0.046933,0.792357,100149.04,-81,-19,-294
52225,9.539,-2.204,2.678,-0.093461,0.013942,0.775861,100144.85,-81,-20,-294
52235,9.574,-1.595,2.475,-0.308965,-0.004682,0.772669,100144.85,-81,-21,-294
52245,9.569,-1.292,2.144,-0.445717,-0.004682,0.793421,100148.27,-80,-23,-294
52254,9.868,-1.095,1.931,-0.456360,0.000639,0.822155,100145.77,-80,-23,-294
52264,10.041,-1.261,1.838,-0.364305,0.016070,0.853549,100150.73,-80,-23,-294
52275,9.862,-1.441,2.175,-0.277571,0.028309,0.891861,100146.65,-80,-25,-294
52285,9.754,-1.522,2.312,-0.271185,0.019795,0.928045,100146.65,-79,-27,-295
52295,9.715,-1.340,2.101,-0.290873,0.018199,0.976999,100149.03,-79,-27,-295
52304,9.800,-1.230,2.026,-0.304708,0.024052,1.036063,100148.45,-79,-28,-294
52315,9.824,-1.109,2.122,-0.277039,0.030437,1.105769,100146.83,-78,-30,-295
52325,9.959,-1.227,2.480,-0.254690,0.033098,1.181329,100146.20,-78,-31,-295
52335,9.965,-0.969,2.652,-0.297791,0.026713,1.276577,100146.20,-78,-31,-295
52344,10.282,-0.438,2.702,-0.379204,0.018199,1.417586,100149.48,-76,-34,-295
52355,10.825,-0.350,2.141,-0.387717,-0.010535,1.580411,100147.74,-76,-37,-295
52365,11.244,-0.772,1.301,-0.321736,-0.012131,1.743769,100147.63,-76,-39,-296
52375,12.366,-1.320,0.592,-0.270653,-0.011067,1.887971,100148.27,-76,-39,-296
52384,13.509,-1.927,0.353,-0.264268,0.013942,2.007163,100148.27,-75,-43,-295
52395,14.806,-2.425,-0.227,-0.299919,0.051190,2.111989,100152.70,-73,-47,-296
52405,16.374,-2.307,-0.452,-0.289809,0.071410,2.211493,100149.09,-73,-51,-294
52415,16.949,-1.881,-0.024,-0.203075,0.090566,2.314190,100147.88,-73,-51,-294
52424,16.246,-1.720,0.197,-0.164231,0.154419,2.396667,100148.73,-71,-57,-293
52434,17.017,-1.773,0.168,-0.256818,0.191667,2.475420,100148.73,-69,-62,-294
52445,18.527,-0.478,0.316,-0.440396,0.199648,2.562686,100152.06,-67,-66,-293
52455,19.131,2.763,1.902,-0.657497,0.258180,2.645695,100150.66,-65,-69,-293
52465,19.301,4.806,3.004,-0.830433,0.299153,2.793621,100151.39,-65,-69,-293
52474,19.713,5.453,3.433,-1.068286,0.367263,2.921860,100147.47,-62,-73,-293
52485,20.383,6.149,3.554,-1.488652,0.453997,2.940484,100147.47,-62,-75,-294
52495,19.292,5.961,3.408,-1.974469,0.419942,2.935163,100149.65,-59,-75,-296
52505,17.138,4.005,2.842,-2.186248,0.329483,2.956979,100149.02,-59,-75,-296
52514,15.146,0.487,3.228,-1.721184,0.294896,3.034135,100146.20,-57,-76,-297
52525,15.556,-4.575,2.840,-0.430818,0.228382,3.253364,100143.01,-55,-81,-296
52535,15.514,-7.937,3.486,0.168337,0.051190,3.456098,100143.01,-50,-88,-295
52545,13.852,-6.927,4.506,0.561566,0.026180,3.519951,100148.41,-50,-88,-295
52555,11.847,-3.848,5.591,0.694062,0.041612,3.276777,100146.84,-46,-97,-293
52564,9.547,-0.846,5.825,0.712153,0.112382,2.898979,100144.66,-42,-105,-292
52575,6.690,1.664,5.409,0.531236,0.141648,2.399328,100143.03,-40,-110,-291
52585,4.900,5.132,1.818,0.166209,-0.065342,1.634154,100143.03,-40,-110,-291
52595,4.469,5.578,0.471,0.248686,-0.139838,0.843971,100143.59,-39,-112,-291
52604,3.327,4.772,1.864,0.534961,-0.095141,0.473623,100140.52,-38,-114,-290
52611,3.453,5.602,1.368,0.406190,-0.197838,0.153825,100138.47,-38,-114,-290
52620,2.893,5.730,0.310,0.239640,-0.354810,-0.336248,100138.47,-38,-115,-291
52630,1.669,5.187,0.469,0.158759,-0.452718,-0.958817,100136.13,-38,-114,-291
52640,0.889,4.804,0.921,0.132154,-0.517636,-1.408981,100136.13,-38,-114,-291
52651,0.698,4.367,1.121,0.145457,-0.572443,-1.859678,100140.74,-40,-112,-291
52660,0.779,3.604,1.230,0.266246,-0.622461,-2.366779,100136.93,-42,-108,-293
52670,1.251,2.607,1.331,0.430135,-0.685782,-2.856852,100136.66,-44,-103,-294
52680,1.965,1.487,1.216,0.556245,-0.768259,-3.290522,100136.66,-47,-98,-296
52689,2.587,0.518,1.448,0.593493,-0.816681,-3.662466,100136.66,-47,-98,-296
52700,3.186,-0.072,1.741,0.533365,-0.853397,-3.998228,100139.31,-50,-93,-296
52710,3.610,-0.127,1.962,0.427475,-0.887452,-4.329200,100136.08,-53,-85,-298
52720,4.451,0.235,2.090,0.358301,-0.897562,-4.659640,100138.33,-56,-76,-301
52729,5.799,0.583,2.036,0.312539,-0.899158,-4.980502,100134.97,-56,-76,-301
52740,7.218,0.584,2.024,0.277420,-0.898094,-5.264649,100134.97,-60,-66,-303
52750,8.554,0.402,2.060,0.255071,-0.884791,-5.503034,100140.32,-62,-54,-305
52760,10.087,0.090,2.165,0.261989,-0.848076,-5.690337,100138.45,-64,-43,-306
52770,11.381,0.100,2.209,0.330099,-0.789544,-5.866997,100137.02,-64,-43,-306
52780,12.698,0.466,2.272,0.463126,-0.715048,-6.071859,100137.02,-65,-30,-309
52790,14.563,0.492,2.289,0.716410,-0.645874,-6.244795,100138.69,-65,-19,-311
52800,16.881,0.227,2.687,1.099530,-0.537856,-6.357602,100140.41,-66,-8,-312
52810,19.375,-0.189,3.009,1.549162,-0.435691,-6.414006,100140.41,-66,-8,-312
52819,21.356,-1.206,3.502,2.026464,-0.373434,-6.412941,100135.61,-65,+1,-313
52830,22.505,-3.791,3.823,2.345198,-0.359067,-6.345364,100134.88,-64,+8,-314
52840,23.126,-6.692,3.810,2.397877,-0.445801,-6.207547,100134.88,-62,+15,-316
52850,23.691,-8.604,3.614,2.254740,-0.583085,-5.980336,100138.38,-62,+15,-316
52860,22.930,-10.141,4.798,2.223877,-0.667159,-5.540282,100136.93,-59,+21,-317
52870,20.679,-10.940,7.863,2.456409,-0.641617,-4.935805,100137.29,-56,+25,-320
52880,17.779,-11.881,10.173,2.516538,-0.577764,-4.248319,100138.02,-53,+25,-321
52890,15.909,-16.561,10.885,2.331363,-0.333526,-3.490063,100141.17,-53,+25,-321
52900,12.772,-23.260,10.104,1.837034,-0.050443,-2.784485,100141.13,-52,+25,-323
52910,8.903,-25.464,9.587,0.993640,0.160804,-2.011330,100142.91,-51,+26,-322
52920,8.270,-22.245,8.566,0.300301,0.307667,-0.886450,100140.70,-53,+26,-321
52930,9.935,-15.154,5.941,-0.079094,0.384290,0.373054,100140.70,-53,+26,-321
52940,11.473,-10.751,4.410,0.471108,0.568400,1.529861,100140.70,-55,+25,-321
52950,12.864,-9.910,5.309,1.314502,0.831795,2.477016,100145.16,-57,+17,-320
52960,13.817,-7.533,1.102,1.454447,0.575850,2.881952,100143.59,-58,+6,-318
52970,13.973,-0.425,-2.509,1.156465,0.300749,2.957511,100143.48,-58,+6,-318
52980,17.352,21.168,-10.507,0.570080,-0.052572,2.202980,100144.48,-60,-2,-318
52990,13.582,23.629,-10.544,0.299236,-0.181874,1.115347,100144.48,-60,-5,-318
53000,10.708,2.031,-0.862,2.816115,0.567336,2.155090,100147.04,-61,-19,-316
53010,13.907,-11.659,0.075,3.920775,0.879152,2.801603,100142.38,-61,-19,-316
53020,12.915,-10.415,2.770,3.260427,0.963226,2.941016,100141.29,-62,-37,-311
53030,9.826,-5.130,6.165,2.307419,0.944602,2.508943,100141.29,-64,-51,-308
53040,11.408,-4.007,6.189,2.115859,1.161171,2.073677,100141.29,-66,-61,-303
53050,13.213,-5.727,1.573,1.492759,1.068051,1.994925,100140.70,-66,-61,-303
53060,10.875,-4.719,0.144,0.812722,0.946730,1.926815,100145.15,-67,-69,-299
53070,8.712,-3.460,1.627,0.223145,0.900437,1.778888,100140.23,-68,-75,-298
53080,9.212,-3.090,1.811,-0.428690,0.773795,1.725145,100140.07,-67,-77,-296
53090,10.088,-2.780,1.594,-0.853845,0.684400,1.652246,100140.07,-67,-77,-296
53100,10.811,-1.745,1.221,-1.143313,0.549244,1.621384,100143.41,-67,-79,-296
53110,10.184,-0.339,1.442,-1.073607,0.505611,1.544228,100140.80,-68,-79,-296
53121,9.702,-0.372,1.222,-0.703258,0.504547,1.377677,100139.98,-67,-79,-296
53130,9.498,-0.381,0.878,-0.321204,0.483795,1.278173,100142.04,-67,-79,-296
53140,9.724,-0.083,1.393,0.000191,0.496033,1.207402,100144.02,-67,-83,-295
53150,9.964,-0.740,1.700,0.194411,0.481666,1.167494,100142.15,-67,-85,-294
53160,10.054,-1.518,1.688,0.220484,0.425263,1.083421,100142.15,-67,-88,-293
53170,9.729,-1.631,1.743,0.109273,0.386951,0.976999,100141.41,-67,-88,-293
53180,9.691,-2.142,2.072,-0.115277,0.360877,0.883347,100141.52,-67,-91,-291
53190,9.989,-2.494,1.922,-0.465405,0.298621,0.779054,100141.52,-67,-91,-292
53200,10.044,-1.605,1.645,-0.764096,0.241330,0.672809,100142.29,-66,-91,-293
53210,9.842,-0.873,1.419,-0.789992,0.219336,0.618357,100142.29,-66,-91,-293
53220,9.679,-0.460,1.340,-0.659093,0.210823,0.590155,100142.16,-66,-91,-293
53230,9.672,-0.353,1.144,-0.475515,0.208162,0.577916,100142.63,-66,-90,-293
53240,9.797,-0.547,1.445,-0.307901,0.209758,0.580045,100142.63,-66,-91,-292
53251,9.857,-0.916,1.780,-0.253626,0.203905,0.569935,100143.01,-66,-91,-293
53260,9.920,-1.395,1.813,-0.337699,0.185281,0.554504,100142.12,-66,-91,-293
53270,9.861,-1.370,2.104,-0.472855,0.172511,0.536944,100142.54,-66,-91,-292
53280,9.619,-1.244,2.174,-0.611203,0.158144,0.524173,100142.54,-65,-91,-294
53289,9.565,-1.042,1.933,-0.695277,0.153355,0.509806,100142.54,-64,-89,-294
53300,9.661,-0.767,1.689,-0.692084,0.153355,0.512467,100145.50,-64,-89,-294
53310,9.690,-0.684,1.579,-0.591515,0.156547,0.536412,100145.72,-64,-89,-294
53320,9.515,-0.773,1.492,-0.459020,0.158676,0.572063,100144.52,-64,-89,-295
53330,9.335,-0.978,1.295,-0.357387,0.169850,0.608247,100143.47,-64,-89,-294
53341,9.282,-1.119,1.102,-0.290341,0.177832,0.649219,100143.47,-64,-89,-294
53350,9.438,-1.255,1.146,-0.246176,0.180492,0.687531,100146.01,-64,-90,-294
53360,9.703,-1.511,1.133,-0.216910,0.176235,0.708815,100142.63,-63,-91,-294
53370,9.855,-1.817,1.255,-0.221699,0.178896,0.723182,100145.59,-63,-91,-294
53381,9.866,-1.914,1.360,-0.249369,0.178896,0.726375,100145.59,-63,-91,-294
53390,9.935,-1.724,1.642,-0.278635,0.181024,0.730632,100145.80,-62,-92,-294
53400,10.064,-1.312,1.818,-0.257883,0.169850,0.744999,100145.80,-62,-93,-294
53410,10.027,-0.787,2.566,-0.180195,0.144309,0.791292,100144.55,-62,-95,-294
53421,9.571,-0.199,2.492,-0.121130,0.123024,0.874302,100146.45,-62,-95,-294
53430,9.248,0.013,1.992,-0.025883,0.117171,1.008393,100144.51,-60,-97,-294
53436,9.319,-0.110,1.643,0.081603,0.113979,1.120136,100144.51,-59,-99,-294
53445,9.642,-0.547,1.352,0.161420,0.124621,1.228155,100144.28,-59,-99,-294
53455,10.370,-1.020,1.034,0.181640,0.134199,1.366503,100144.50,-58,-103,-293
53466,10.792,-0.714,0.747,0.153970,0.148034,1.515494,100143.77,-56,-107,-293
53475,11.271,-0.286,0.025,0.185897,0.150162,1.700668,100143.50,-54,-111,-291
53485,11.715,0.021,-0.306,0.351915,0.143777,1.915108,100143.50,-54,-111,-291
53495,12.387,-0.260,0.122,0.615842,0.127281,2.152429,100146.24,-51,-116,-290
53506,13.058,-0.783,1.047,0.833475,0.122492,2.381768,100143.99,-47,-123,-289
53515,13.699,-1.310,1.994,0.901052,0.120364,2.578117,100143.93,-44,-130,-286
53525,14.265,-1.617,2.438,0.796227,0.127281,2.715933,100145.29,-44,-130,-286
53535,14.813,-1.634,2.394,0.563163,0.140052,2.785108,100145.29,-39,-138,-285
53545,15.655,-1.226,1.962,0.289126,0.152823,2.764355,100146.53,-33,-143,-284
53556,17.710,-0.064,2.326,0.088344,0.173930,2.732429,100146.17,-28,-148,-284
53565,18.849,0.645,2.557,-0.046635,0.219336,2.789365,100142.67,-28,-148,-284
53575,20.030,1.033,2.198,-0.346213,0.319905,2.873970,100140.94,-23,-151,-284
53585,21.933,3.154,1.966,-0.789460,0.361410,2.942612,100140.94,-17,-155,-285
53596,22.955,6.309,1.986,-1.253460,0.405575,3.043713,100145.70,-12,-155,-286
53605,22.056,9.239,2.153,-1.550377,0.511465,3.133107,100146.13,-12,-155,-286
53615,20.223,8.710,0.838,-1.780781,0.538070,3.167162,100146.75,-7,-155,-288
53625,17.706,6.397,-0.353,-1.905294,0.535409,3.051695,100142.67,-1,-153,-292
53636,14.540,1.181,-0.096,-1.724909,0.344382,3.029346,100142.67,+5,-152,-296
53645,12.040,-7.848,3.842,-1.506212,0.140052,3.401823,100148.55,+5,-152,-296
53655,13.468,-12.647,7.908,-0.761791,0.201245,3.941382,100147.97,+12,-153,-298
53665,15.948,-7.240,10.492,-0.444121,0.199116,3.815272,100145.88,+21,-155,-298
53676,15.832,-0.836,5.227,-0.698469,-0.045654,2.940484,100146.23,+28,-155,-299
53685,11.728,4.505,1.801,-0.765515,-0.097801,2.104007,100146.23,+28,-155,-299
53695,7.833,5.039,1.217,-0.659625,-0.074920,1.749090,100146.25,+32,-155,-301
53705,6.493,4.737,2.120,-0.392506,-0.063214,1.447384,100145.41,+35,-155,-302
53715,5.951,4.958,1.860,-0.229681,-0.184535,0.903035,100144.89,+38,-155,-302
53726,4.830,5.181,1.397,0.005512,-0.267012,0.374118,100144.27,+38,-155,-302
53735,3.886,4.971,1.442,0.296576,-0.277654,-0.045716,100144.27,+39,-155,-303
53745,3.119,4.131,1.306,0.652025,-0.334058,-0.483110,100146.35,+39,-157,-301
53755,2.471,2.890,1.374,0.976612,-0.426645,-0.946046,100143.68,+39,-159,-300
53766,2.070,1.659,1.522,1.194245,-0.547966,-1.380247,100144.63,+39,-159,-300
53775,1.911,0.999,1.539,1.315566,-0.666626,-1.828284,100143.27,+37,-161,-298
53785,2.112,0.966,1.616,1.363988,-0.762938,-2.286963,100143.27,+34,-163,-296
53795,2.549,1.216,1.607,1.385272,-0.847012,-2.705201,100145.32,+30,-164,-293
53806,2.853,1.345,1.816,1.430502,-0.908204,-3.077678,100144.43,+30,-164,-293
53815,3.043,1.137,2.237,1.470410,-0.952901,-3.417164,100143.65,+26,-165,-292
53825,3.430,0.564,2.625,1.445401,-1.000259,-3.750264,100141.82,+21,-165,-289
53835,4.170,-0.305,3.135,1.325676,-1.041232,-4.070062,100141.82,+14,-166,-287
53846,4.888,-1.244,3.638,1.104318,-1.066773,-4.368044,100147.13,+14,-166,-287
53856,5.110,-1.623,3.750,0.809530,-1.099232,-4.678796,100142.94,+8,-163,-287
53865,5.489,-1.372,3.623,0.513144,-1.107213,-4.985823,100139.97,+0,-158,-288
53875,6.537,-0.748,3.421,0.297640,-1.063580,-5.262520,100140.22,-7,-151,-289
53885,8.102,-0.156,3.183,0.211970,-0.990149,-5.516869,100140.22,-7,-151,-289
53896,9.697,0.199,3.016,0.249218,-0.895434,-5.751529,100144.57,-16,-144,-290
53905,11.208,0.074,2.924,0.340209,-0.794333,-5.959052,100143.26,-24,-136,-292
53915,12.617,-0.261,2.760,0.412044,-0.710792,-6.155932,100142.99,-33,-127,-293
53925,14.148,-0.368,2.748,0.506227,-0.605434,-6.330997,100142.41,-41,-119,-293
53936,16.410,-0.517,3.070,0.696722,-0.458039,-6.466685,100142.41,-41,-119,-293
53946,19.326,-1.083,3.675,0.964906,-0.301067,-6.556079,100143.20,-50,-108,-292
53955,22.053,-1.960,3.817,1.336318,-0.169636,-6.583217,100144.30,-58,-99,-291
53965,23.327,-5.279,4.230,1.476263,-0.042994,-6.491162,100141.52,-66,-91,-289
53976,23.010,-9.454,3.876,1.390594,-0.063746,-6.243731,100141.05,-66,-91,-289
53985,22.962,-12.196,3.694,1.151676,-0.151544,-5.948942,100141.05,-73,-80,-287
53995,21.994,-14.323,4.199,1.073456,-0.242535,-5.463658,100142.55,-77,-71,-286
54005,19.811,-14.709,6.766,1.207548,-0.310113,-4.812888,100144.23,-82,-65,-285
54016,17.682,-14.392,8.482,1.224043,-0.333526,-4.108906,100143.02,-82,-65,-285
54026,16.410,-17.132,10.010,1.185731,-0.159526,-3.343733,100141.51,-84,-60,-285
54035,13.158,-19.809,9.813,1.087823,-0.031820,-2.632834,100141.51,-86,-57,-282
54045,9.155,-20.104,9.525,0.832942,0.115575,-1.837862,100143.41,-89,-55,-281
54055,8.706,-17.649,8.311,0.818576,0.367263,-0.743312,100143.25,-89,-55,-281
54066,9.792,-14.647,5.491,0.968098,0.588088,0.469898,100143.14,-89,-57,-279
54075,11.288,-14.120,3.687,1.436355,0.869574,1.585732,100142.36,-91,-63,-275
54085,12.444,-14.722,3.156,1.795529,0.972272,2.443493,100142.36,-92,-75,-271
54095,13.754,-10.289,-0.204,1.504465,0.718987,2.823420,100146.73,-92,-75,-271
54106,12.900,-5.843,-3.762,0.937768,0.368859,2.997419,100144.38,-89,-85,-268
54116,18.047,20.223,-12.494,0.337548,-0.144095,2.525438,100144.44,-85,-94,-267
54125,15.415,32.392,-13.429,-0.529259,-0.448461,0.492779,100144.80,-84,-94,-269
54135,10.240,6.759,-1.565,2.153107,0.355556,1.403219,100144.80,-84,-94,-269
54146,14.485,-12.233,0.836,4.060011,0.951519,2.629909,100144.52,-83,-107,-260
54156,13.614,-11.437,3.372,3.773913,1.108492,2.850557,100144.77,-82,-123,-252
54165,10.930,-6.396,6.624,2.577730,1.059538,2.359420,100144.88,-78,-135,-245
54175,12.868,-3.789,7.084,2.272299,1.312290,1.924686,100142.69,-78,-135,-245
54185,13.918,-4.907,3.276,1.783823,1.157446,2.019402,100142.69,-78,-143,-238
54196,11.592,-3.336,0.701,1.278850,0.939813,1.924686,100145.84,-76,-151,-233
54205,9.226,-3.081,1.631,0.782392,0.886602,1.788998,100145.64,-74,-157,-229
54215,9.978,-3.980,2.351,0.097567,0.757299,1.761861,100144.75,-74,-157,-229
54225,10.346,-4.198,2.988,-0.745827,0.576914,1.687365,100143.97,-73,-160,-228
54236,9.940,-1.917,2.579,-1.522175,0.360877,1.529329,100143.97,-69,-161,-231
54246,9.584,0.330,1.157,-1.788762,0.257116,1.450044,100143.89,-66,-161,-233
54255,9.176,0.083,0.699,-1.364671,0.329483,1.333512,100144.78,-66,-161,-233
54265,9.586,0.467,0.581,-0.708047,0.382694,1.190907,100142.17,-64,-162,-235
54276,9.939,1.129,0.562,-0.186580,0.413556,1.099916,100145.00,-62,-163,-235
54286,10.134,0.353,1.191,0.201860,0.462510,1.100448,100145.00,-60,-166,-233
54295,10.073,-0.553,1.799,0.392888,0.453997,1.073843,100144.34,-60,-166,-233
54305,9.544,-1.186,1.868,0.393952,0.417813,0.978595,100146.28,-59,-169,-232
54316,9.499,-2.464,2.103,0.159291,0.370455,0.901971,100147.95,-57,-172,-230
54326,10.118,-2.788,2.121,-0.324928,0.303942,0.782247,100143.14,-56,-173,-231
54335,10.233,-1.282,1.953,-0.785203,0.236896,0.714136,100143.14,-56,-173,-231
54345,10.103,0.061,1.734,-0.950157,0.199648,0.732760,100144.02,-55,-173,-232
54355,10.012,0.288,1.237,-0.934194,0.177300,0.799274,100144.65,-54,-173,-233
54366,9.539,0.308,1.138,-0.916634,0.172511,0.844503,100144.91,-51,-172,-235
54376,8.602,0.303,1.162,-0.793717,0.200712,0.712008,100143.34,-51,-172,-235
54381,8.646,-0.036,1.409,-0.548414,0.258712,0.503953,100143.34,-51,-172,-236
54390,9.523,-0.728,1.968,-0.365901,0.300217,0.396999,100143.34,-50,-173,-237
54401,10.252,-1.428,2.239,-0.425497,0.282125,0.425733,100145.81,-50,-173,-237
54411,10.269,-1.117,2.278,-0.640469,0.247538,0.482137,100143.14,-49,-173,-237
54421,9.936,-0.614,2.099,-0.769772,0.219336,0.532155,100145.55,-49,-172,-238
54430,9.543,-0.486,2.005,-0.810212,0.207630,0.573127,100145.04,-48,-171,-240
54440,9.326,-0.638,1.775,-0.816598,0.216676,0.584834,100146.29,-48,-171,-240
54451,9.335,-0.372,1.478,-0.795846,0.236896,0.546522,100144.82,-47,-171,-242
54461,10.181,-0.474,1.585,-0.794249,0.195391,0.726375,100144.82,-46,-170,-242
54470,9.629,-0.192,1.768,-0.666543,0.199648,0.795549,100142.10,-44,-171,-244
54480,9.659,-0.618,1.858,-0.552671,0.214547,0.847696,100142.21,-44,-171,-244
54491,9.601,-0.933,1.617,-0.495204,0.222529,0.876430,100142.21,-43,-171,-244
54501,9.947,-1.014,1.836,-0.430641,0.227495,0.873237,100145.98,-41,-172,-245
54510,10.114,-0.951,2.133,-0.412726,0.206566,0.942412,100145.98,-39,-173,-246
54520,9.947,-0.564,2.552,-0.444121,0.182621,1.056283,100141.97,-39,-173,-246
54531,9.398,0.043,2.457,-0.516488,0.161336,1.161641,100143.27,-37,-174,-247
54541,9.331,1.071,1.898,-0.513827,0.137924,1.315953,100143.27,-34,-175,-247
54551,9.441,1.702,1.254,-0.286084,0.123024,1.548485,100144.90,-30,-177,-247
54560,10.084,1.124,0.777,0.192282,0.163997,1.802833,100145.16,-30,-177,-247
54571,11.038,-0.091,0.700,0.638190,0.209226,2.047071,100143.18,-25,-181,-246
54581,11.506,-1.024,1.040,0.728117,0.192199,2.296631,100143.18,-21,-186,-244
54591,11.327,-1.907,0.990,0.409915,0.138988,2.314190,100143.18,-15,-191,-242
54600,12.073,-1.797,0.599,0.065108,0.119300,2.179567,100146.10,-15,-191,-242
54610,13.207,-1.490,0.513,0.020943,0.110254,2.217346,100146.04,-10,-194,-242
54621,13.942,-1.435,0.723,0.143328,0.096951,2.407842,100146.26,-3,-197,-241
54631,13.701,-1.941,1.504,0.214099,0.082584,2.598869,100142.29,+3,-201,-241
54641,13.293,-1.151,1.152,0.428539,0.143777,2.646227,100142.29,+9,-201,-241
54650,14.386,-2.172,1.855,0.428007,0.162401,2.572796,100146.91,+9,-205,-238
54661,15.406,-2.117,1.982,0.161420,0.134731,2.721786,100144.84,+17,-209,-238
54671,15.911,-1.019,2.262,-0.088672,0.119832,2.788832,100143.19,+25,-211,-237
54681,18.345,-0.049,3.198,-0.252561,0.107061,2.768080,100143.19,+33,-213,-238
54690,20.235,1.326,2.955,-0.659093,0.116107,2.832998,100145.01,+33,-213,-238
54701,21.566,3.586,1.644,-1.272616,0.115575,2.883548,100145.01,+41,-214,-241
54711,23.146,6.110,0.094,-1.754175,0.078327,2.959107,100144.23,+49,-213,-244
54721,23.719,8.534,-0.916,-2.111753,0.098547,3.014447,100146.57,+58,-210,-249
54730,21.675,9.947,-0.890,-2.421973,0.116107,2.985713,100144.63,+58,-210,-249
54740,18.465,10.583,-0.454,-2.252230,0.049061,3.012318,100144.63,+67,-206,-257
54751,14.313,6.869,1.695,-1.175772,-0.171232,3.164502,100144.66,+76,-205,-259
54761,12.739,-3.585,3.134,0.160888,-0.352682,3.769511,100144.46,+88,-207,-256
54771,13.725,-11.918,7.018,1.595988,-0.057361,4.494776,100143.95,+88,-207,-256
54780,14.509,-8.684,10.405,1.819474,0.073538,4.211694,100144.66,+101,-211,-250
54791,13.956,-2.103,7.261,0.829750,-0.055764,3.014447,100143.98,+109,-215,-247
54801,10.175,3.414,4.314,0.029457,-0.114297,2.008759,100143.67,+116,-214,-246
54810,7.205,4.633,2.145,-0.282892,-0.180810,1.519219,100143.67,+116,-214,-246
54820,7.324,4.332,2.824,-0.218506,-0.140370,1.249971,100141.20,+120,-214,-246
54831,7.123,4.958,2.856,-0.312158,-0.308517,0.836522,100142.52,+122,-213,-247
54841,5.527,5.347,2.133,-0.259479,-0.510186,0.341660,100142.52,+124,-213,-247
54851,4.042,4.959,2.034,-0.055681,-0.582553,-0.112230,100147.73,+124,-213,-247
54860,3.179,3.718,2.158,0.215163,-0.638425,-0.521422,100143.08,+124,-215,-245
54871,2.611,2.253,2.305,0.505695,-0.727287,-0.938596,100141.03,+122,-216,-242
54881,2.210,1.003,2.407,0.668521,-0.842755,-1.388229,100142.03,+119,-219,-240
54891,2.044,0.320,2.426,0.677034,-0.977378,-1.864467,100142.03,+119,-219,-240
54901,2.194,0.499,2.478,0.628080,-1.089654,-2.348687,100142.27,+115,-222,-237
54910,2.476,1.077,2.385,0.611585,-1.175855,-2.783421,100140.78,+108,-224,-235
54921,2.727,1.381,2.373,0.661603,-1.229599,-3.149513,100142.08,+99,-227,-232
54931,3.023,1.256,2.552,0.773346,-1.243433,-3.485274,100142.08,+99,-227,-232
54940,3.512,1.020,2.846,0.876575,-1.246094,-3.820503,100142.08,+90,-229,-228
54950,4.310,0.603,3.273,0.923401,-1.246094,-4.134980,100141.09,+78,-230,-225
54961,5.074,0.021,3.708,0.940429,-1.225874,-4.439346,100140.94,+66,-231,-221
54971,5.644,-0.256,4.106,0.915952,-1.206718,-4.758613,100140.67,+66,-231,-221
54981,6.397,-0.223,4.324,0.831878,-1.189158,-5.060851,100136.81,+50,-231,-220
54990,7.431,0.011,4.273,0.805273,-1.154039,-5.316795,100136.81,+35,-229,-217
55001,8.722,0.206,4.134,0.923933,-1.064644,-5.531236,100140.28,+18,-225,-214
55011,10.179,0.008,4.052,1.162850,-0.969929,-5.705235,100135.84,+18,-225,-214
55021,11.613,-0.371,4.042,1.537456,-0.865103,-5.853694,100137.59,+1,-221,-211
55031,13.209,-0.884,4.145,1.956226,-0.760278,-5.992043,100137.59,-16,-216,-206
55041,15.225,-1.643,4.473,2.302629,-0.683654,-6.125602,100143.05,-34,-210,-200
55051,17.728,-2.497,4.982,2.576666,-0.616608,-6.244795,100143.05,-34,-210,-200
55061,20.030,-3.374,5.369,2.758116,-0.561801,-6.331529,100141.45,-51,-201,-194
55071,21.529,-5.368,5.570,2.737363,-0.512315,-6.377822,100139.66,-68,-192,-188
55080,21.790,-9.238,6.029,2.483547,-0.485709,-6.278318,100137.84,-83,-179,-182
55091,22.165,-11.155,6.037,2.096703,-0.595324,-6.113364,100137.84,-83,-179,-182
55101,22.407,-12.306,7.192,1.693364,-0.634700,-5.763236,100143.91,-98,-166,-179
55111,20.694,-12.688,9.701,1.525749,-0.627250,-5.188557,100142.91,-108,-153,-177
55121,17.562,-13.573,12.792,1.345896,-0.517104,-4.435090,100142.86,-116,-143,-176
55131,15.992,-16.258,13.193,0.889878,-0.304792,-3.578925,100141.77,-121,-143,-175
55141,14.210,-20.863,11.193,0.557310,-0.063746,-2.841421,100142.95,-121,-133,-175
55151,10.787,-23.741,9.821,0.189090,0.182621,-2.212467,100140.97,-126,-125,-175
55161,9.331,-21.798,8.598,-0.423901,0.358749,-1.451550,100142.69,-128,-121,-174
55171,9.696,-17.046,6.487,-0.761791,0.489116,-0.404890,100142.69,-129,-119,-173
55181,11.902,-12.420,4.620,-0.503185,0.607244,0.691788,100142.02,-129,-119,-173
55191,11.513,-13.768,2.278,0.089053,0.611501,1.616063,100142.02,-127,-122,-172
55201,12.578,-14.432,0.586,0.515805,0.669501,2.557897,100143.96,-124,-131,-169
55206,16.259,-5.284,-6.490,0.481750,0.320437,2.881419,100143.23,-124,-131,-169
55216,21.564,20.251,-20.211,-0.248837,-0.613948,2.225860,100146.41,-118,-139,-169
55226,19.004,29.957,-10.828,0.164613,-0.215929,0.767880,100147.88,-117,-141,-168
55236,12.714,1.851,-0.316,3.476464,0.480602,2.399860,100147.88,-117,-141,-168
55246,14.018,-13.697,0.451,4.611454,0.912143,2.901640,100144.55,-110,-152,-157
55256,12.638,-12.560,3.668,3.902151,1.131905,3.021364,100143.30,-105,-163,-145
55266,10.602,-5.741,6.439,2.775675,1.161703,2.592484,100144.02,-101,-172,-137
55276,11.624,-2.222,6.325,2.332960,1.304840,2.125824,100142.35,-101,-172,-137
55286,9.892,-0.662,4.201,1.924832,1.229813,2.088044,100142.35,-97,-177,-128
55296,7.103,0.476,4.406,1.807768,1.096785,1.963530,100143.20,-92,-184,-121
55306,7.738,-4.004,3.775,1.366117,0.852015,1.773035,100145.60,-87,-188,-115
55316,11.531,-7.318,1.885,0.481218,0.595006,1.666081,100146.07,-87,-188,-115
55326,12.627,-6.472,0.812,-0.698115,0.368327,1.558240,100144.55,-84,-193,-114
55335,11.708,-3.285,0.344,-1.567937,0.215612,1.475054,100144.55,-80,-195,-117
55346,10.365,-0.943,0.177,-1.798872,0.230511,1.363310,100145.27,-76,-199,-121
55356,9.322,0.156,-0.251,-1.355625,0.315648,1.196760,100146.36,-76,-199,-121
55366,8.957,1.096,-0.386,-0.670268,0.411428,1.103109,100145.53,-73,-201,-123
55376,9.727,2.841,0.353,0.054998,0.514125,1.103109,100142.23,-70,-204,-123
55386,10.227,2.340,1.622,0.725988,0.573721,1.123861,100142.23,-67,-206,-119
55396,9.890,-0.166,2.496,1.006410,0.536474,1.126522,100145.14,-64,-208,-115
55406,9.022,-2.194,2.293,0.827089,0.452932,1.039256,100144.78,-64,-208,-115
55416,9.519,-3.417,2.742,0.221548,0.373116,0.956779,100143.31,-61,-211,-114
55426,10.075,-2.963,2.888,-0.576616,0.250731,0.879091,100143.11,-58,-212,-115
55436,9.735,-0.785,2.231,-1.188542,0.123024,0.794485,100143.11,-57,-214,-118
55446,9.823,0.834,1.081,-1.288047,0.085245,0.766815,100148.19,-57,-214,-118
55456,10.163,1.429,0.318,-0.963992,0.129410,0.801935,100145.11,-55,-215,-121
55465,10.154,1.023,0.293,-0.509038,0.173575,0.881751,100143.80,-51,-216,-121
55476,9.616,-0.085,0.700,-0.099846,0.209226,0.923788,100143.59,-49,-218,-121
55486,9.402,-1.683,1.287,0.050741,0.239024,0.941347,100143.59,-49,-218,-121
55496,9.736,-2.366,1.738,-0.091332,0.240621,0.925916,100147.18,-47,-220,-120
55506,9.808,-1.929,1.904,-0.380268,0.226786,0.893990,100144.09,-44,-222,-121
55516,9.766,-1.244,2.184,-0.657497,0.210290,0.888668,100145.71,-41,-222,-123
55526,9.830,-0.352,2.235,-0.784671,0.179428,0.898779,100143.37,-41,-222,-123
55536,9.802,0.333,1.980,-0.714433,0.158144,0.931769,100143.37,-37,-224,-124
55546,9.691,-0.060,1.516,-0.519148,0.159208,0.977531,100145.41,-35,-226,-126
55556,9.691,-0.995,1.182,-0.343020,0.166657,1.004136,100143.31,-32,-227,-126
55566,9.487,-1.689,1.337,-0.273314,0.178896,1.002540,100141.64,-32,-227,-126
55576,9.241,-2.145,1.360,-0.312690,0.194327,0.982852,100143.05,-29,-228,-127
55586,9.280,-2.433,1.149,-0.393038,0.206566,0.964228,100143.05,-26,-231,-128
55596,9.466,-2.221,0.730,-0.465405,0.217208,0.946136,100146.27,-23,-232,-128
55606,9.736,-1.605,0.639,-0.447314,0.214547,0.946668,100142.88,-23,-232,-128
55616,10.082,-0.742,1.416,-0.308965,0.192731,0.982852,100142.88,-19,-232,-129
55626,10.153,-0.781,1.782,-0.120598,0.159208,1.048834,100143.82,-17,-235,-130
55635,10.254,-1.015,1.940,0.009769,0.137391,1.129714,100143.82,-12,-236,-129
55646,10.408,-1.531,1.788,0.048613,0.108125,1.214320,100147.19,-12,-236,-129
55656,10.474,-1.299,1.345,0.009237,0.086309,1.314356,100144.05,-8,-238,-129
55666,10.488,-0.708,1.040,-0.006195,0.073538,1.453769,100144.63,-4,-240,-128
55676,11.057,-0.267,0.693,0.044888,0.079391,1.621384,100143.63,+0,-242,-128
55686,12.205,-0.459,0.288,0.144925,0.100676,1.794851,100143.63,+0,-242,-128
55696,12.732,-1.012,-0.210,0.250282,0.127281,1.964594,100149.34,+7,-244,-128
55706,12.934,-1.304,-0.674,0.331163,0.144841,2.131145,100143.50,+14,-246,-127
55716,13.173,-1.178,-0.306,0.425346,0.129410,2.302484,100142.97,+21,-250,-125
55726,13.446,-0.960,0.992,0.504099,0.109722,2.481805,100143.81,+21,-250,-125
55736,13.678,-0.675,2.418,0.473236,0.116639,2.647291,100143.81,+30,-250,-123
55746,14.129,-0.808,3.085,0.317860,0.127281,2.777658,100144.24,+41,-254,-122
55756,15.291,-1.073,3.086,0.016686,0.150694,2.864392,100146.96,+49,-256,-122
55766,18.105,-0.212,2.633,-0.395699,0.143777,2.919199,100144.09,+49,-256,-122
55776,21.448,1.592,2.800,-0.806488,0.060235,3.044777,100143.77,+60,-258,-124
55786,24.092,4.578,2.381,-1.135332,0.021391,3.185786,100143.77,+73,-258,-127
55796,25.094,7.514,1.599,-1.419478,0.123024,3.325731,100143.29,+83,-258,-132
55806,24.849,10.088,0.862,-1.755772,0.215079,3.431621,100143.65,+83,-258,-132
55816,23.121,11.952,-0.182,-2.182524,0.237428,3.466740,100143.80,+96,-256,-138
55826,20.678,9.908,-1.918,-2.523606,0.099079,3.484832,100141.62,+110,-254,-147
55836,16.763,7.426,-0.750,-2.222432,0.023520,3.342227,100141.62,+121,-252,-154
55846,11.554,2.520,3.796,-0.828836,-0.058425,3.405015,100146.88,+121,-252,-154
55856,10.615,-7.839,3.696,0.993640,-0.327140,3.878061,100143.01,+134,-250,-153
55866,13.353,-12.723,9.567,2.111602,0.108125,4.376116,100142.02,+149,-248,-148
55876,15.803,-12.069,11.312,1.945584,0.058107,4.062703,100139.04,+164,-246,-142
55886,13.793,-6.947,7.642,1.193181,-0.152076,3.020832,100139.04,+8,-246,-142
55897,10.149,1.839,2.619,0.142264,-0.435159,1.908191,100146.58,+172,-244,-138
55906,7.630,5.378,0.370,0.015090,-0.429838,1.330852,100145.48,+178,-243,-139
55916,6.652,5.436,2.291,0.374264,-0.318095,1.131488,100142.88,+182,-242,-138
55926,5.981,4.939,2.271,0.491328,-0.524553,0.830136,100141.36,+185,-241,-135
55937,4.828,3.539,1.453,0.646704,-0.717177,0.364540,100141.36,+185,-241,-135
55946,3.345,1.903,2.478,0.839328,-0.705470,-0.026560,100144.66,+186,-242,-132
55956,1.897,1.119,3.328,1.021841,-0.774113,-0.454376,100142.52,+184,-242,-128
55966,0.904,1.014,3.404,1.142630,-0.939599,-1.008835,100141.68,+180,-245,-122
55976,0.573,0.977,2.927,1.228832,-1.122644,-1.568082,100141.84,+180,-245,-122
55986,0.789,0.670,2.522,1.267144,-1.251947,-2.052834,100141.84,+174,-248,-117
55996,1.304,0.370,2.530,1.239474,-1.350920,-2.464687,100145.67,+166,-250,-111
56006,1.605,0.379,2.639,1.199034,-1.431268,-2.841421,100142.84,+155,-253,-106
56016,1.785,0.785,2.876,1.189988,-1.477562,-3.217623,100143.17,+155,-253,-106
56027,1.959,1.237,3.253,1.207548,-1.500975,-3.595953,100139.34,+144,-256,-101
56036,2.478,1.471,3.604,1.183603,-1.516406,-3.970558,100139.34,+129,-259,-96
56046,3.459,1.129,3.891,1.094208,-1.535030,-4.310044,100143.40,+112,-260,-92
56056,4.436,0.238,4.319,0.948410,-1.515874,-4.620796,100142.20,+112,-260,-92
56067,4.670,-0.639,4.580,0.704172,-1.483415,-4.936337,100142.66,+94,-261,-88
56076,5.000,-0.952,4.676,0.408851,-1.425415,-5.233787,100138.65,+76,-262,-87
56086,5.855,-0.536,4.442,0.250282,-1.310479,-5.503034,100138.65,+55,-260,-87
56096,7.227,0.160,3.961,0.323181,-1.159360,-5.733438,100142.08,+55,-260,-87
56107,8.885,0.557,3.489,0.636062,-0.996534,-5.907437,100140.81,+33,-255,-85
56116,10.641,0.355,3.199,1.108043,-0.826259,-6.038868,100139.25,+12,-251,-83
56126,12.589,-0.310,3.347,1.626850,-0.672480,-6.149547,100138.63,-8,-242,-78
56136,14.714,-1.331,3.852,2.115859,-0.541049,-6.242667,100138.63,-8,-242,-78
56146,17.067,-2.804,4.247,2.533565,-0.448461,-6.326208,100143.09,-30,-233,-71
56157,18.943,-5.253,4.716,2.760244,-0.433030,-6.348557,100140.27,-51,-220,-65
56166,20.043,-7.191,4.954,2.893803,-0.483049,-6.304924,100142.46,-69,-206,-59
56176,22.095,-8.901,5.506,2.813455,-0.480920,-6.210208,100140.27,-69,-206,-59
56186,23.426,-11.649,6.664,2.469712,-0.536792,-6.053236,100140.27,-87,-190,-53
56197,21.734,-14.155,8.438,2.070630,-0.703874,-5.722795,100145.01,-101,-173,-50
56206,19.119,-15.072,9.883,1.721034,-0.759214,-5.135878,100141.71,-114,-157,-49
56216,17.312,-14.235,11.772,1.434759,-0.596388,-4.318558,100141.34,-114,-157,-49
56226,15.822,-13.424,11.841,1.300135,-0.363856,-3.436852,100141.40,-123,-145,-49
56237,14.094,-15.598,10.705,1.299071,-0.125471,-2.616338,100141.40,-127,-135,-47
56246,11.223,-18.496,9.606,1.325676,0.098015,-1.954926,100142.75,-131,-128,-45
56256,9.493,-19.307,8.407,1.068667,0.330547,-1.373330,100142.70,-131,-128,-45
56266,9.432,-18.088,7.022,0.644576,0.483795,-0.518230,100143.28,-132,-124,-42
56271,10.140,-16.396,5.737,0.486007,0.588620,0.325164,100139.83,-132,-123,-40
56282,11.726,-14.673,4.365,0.576466,0.692382,1.141953,100139.83,-132,-123,-40
56292,14.194,-11.499,0.815,0.662667,0.690253,1.927347,100139.83,-128,-128,-37
56301,13.832,-11.973,-2.058,0.766961,0.633850,2.696245,100146.32,-123,-136,-33
56311,20.860,14.333,-11.373,0.160356,-0.046186,2.462649,100142.71,-119,-142,-33
56322,19.966,34.016,-13.935,-1.279001,-0.467085,0.428926,100146.09,-119,-142,-33
56332,11.639,9.079,-1.977,0.715878,0.293832,1.305843,100146.09,-118,-143,-35
56341,13.986,-12.868,-1.411,2.766629,0.754107,2.570135,100145.63,-113,-147,-29
56351,14.973,-14.044,2.345,2.783125,1.082418,2.856942,100145.63,-106,-152,-20
56361,13.609,-6.636,2.376,1.439548,0.892987,2.559493,100145.68,-106,-152,-20
56372,12.043,-2.917,6.116,0.772282,1.020162,2.055585,100144.95,-99,-157,-16
56381,10.483,-1.277,5.693,0.768025,1.137758,1.967787,100144.99,-94,-161,-12
56391,8.942,-0.669,5.035,0.674374,0.995685,1.784741,100144.99,-88,-165,-9
56401,7.697,-1.168,4.348,0.446099,0.797207,1.599035,100143.34,-88,-165,-9
56412,9.161,-2.464,2.904,0.093842,0.672694,1.508044,100143.02,-84,-168,-6
56422,10.582,-3.521,1.617,-0.339295,0.522639,1.486228,100141.88,-80,-173,-5
56431,11.435,-2.831,0.401,-0.868212,0.377905,1.459622,100147.36,-76,-178,-8
56441,11.307,-1.484,0.480,-1.312524,0.314052,1.412797,100145.73,-76,-178,-8
56452,9.596,-0.496,0.664,-1.371588,0.315648,1.288283,100144.06,-71,-183,-10
56462,8.665,0.003,-0.356,-1.008157,0.364602,1.100980,100142.75,-69,-186,-11
56471,9.431,1.184,-0.472,-0.431350,0.463575,1.022228,100142.75,-66,-189,-11
56481,10.479,1.225,0.569,0.103952,0.518914,1.041384,100144.89,-66,-189,-11
56492,10.256,-0.435,1.140,0.454612,0.513061,1.023292,100144.89,-61,-191,-9
56502,9.835,-1.635,1.793,0.507823,0.489648,0.930173,100143.81,-59,-193,-7
56511,9.659,-2.109,2.368,0.238044,0.433244,0.851421,100144.97,-57,-194,-5
56521,9.730,-1.887,3.089,-0.229149,0.358217,0.781182,100144.44,-57,-194,-5
56531,9.637,-0.570,2.982,-0.673460,0.234235,0.686999,100143.45,-54,-196,-5
56542,9.523,0.452,2.363,-0.801699,0.168254,0.616760,100143.45,-51,-199,-7
56552,9.663,0.989,1.589,-0.635680,0.154419,0.606650,100146.60,-50,-201,-9
56561,9.839,1.010,1.150,-0.315350,0.179428,0.628467,100141.99,-50,-201,-9
56571,9.827,0.019,0.933,-0.030672,0.221465,0.669439,100142.48,-48,-202,-8
56582,9.935,-1.146,0.961,0.014026,0.231043,0.724779,100142.48,-46,-203,-8
56591,10.209,-1.358,1.461,-0.145607,0.218804,0.793953,100142.48,-43,-204,-9
56601,9.842,-1.052,1.867,-0.407405,0.190070,0.835458,100143.90,-41,-204,-9
56611,8.931,-0.824,1.874,-0.626103,0.186878,0.699770,100144.05,-41,-207,-8
56622,9.197,-0.530,1.847,-0.687295,0.221997,0.459256,100144.21,-39,-209,-11
56627,9.685,-0.326,1.722,-0.662286,0.242749,0.359219,100142.43,-39,-209,-11
56636,9.823,-0.231,1.509,-0.637809,0.248602,0.378375,100142.43,-37,-211,-13
56646,9.777,-0.181,1.422,-0.616525,0.251795,0.460852,100141.98,-35,-213,-13
56656,9.793,-0.091,1.310,-0.560121,0.257116,0.551843,100144.80,-33,-213,-15
56667,9.757,-0.159,1.425,-0.477644,0.269355,0.642834,100147.16,-33,-213,-15
56677,9.456,-0.011,1.832,-0.400488,0.281593,0.712540,100141.52,-31,-216,-15
56686,9.223,-0.047,2.394,-0.366433,0.288511,0.758834,100141.52,-28,-218,-15
56696,9.395,-0.684,2.255,-0.399956,0.275208,0.808320,100143.41,-26,-219,-17
56707,9.801,-0.805,1.674,-0.467002,0.259777,0.874302,100145.30,-26,-219,-17
56717,10.120,-0.602,1.382,-0.470194,0.242217,0.956246,100143.95,-23,-222,-17
56726,10.131,-0.123,1.422,-0.374415,0.225722,1.040320,100144.93,-19,-224,-18
56736,10.231,0.227,1.458,-0.236598,0.202309,1.156852,100144.93,-15,-225,-19
56747,10.102,-0.263,1.516,-0.066855,0.179960,1.284558,100146.60,-15,-225,-19
56757,10.120,-0.651,1.448,0.000723,0.151758,1.409604,100144.98,-10,-227,-19
56766,10.048,-0.132,1.395,-0.018965,0.133667,1.553806,100144.98,-5,-229,-18
56776,10.193,0.496,1.283,-0.011516,0.124089,1.727806,100143.57,+0,-232,-18
56786,10.839,0.577,1.209,0.105016,0.133135,1.932136,100143.57,+0,-232,-18
56797,11.604,-0.071,0.817,0.264117,0.145905,2.120502,100144.48,+6,-234,-18
56807,12.293,-0.882,0.370,0.382245,0.162401,2.280135,100144.33,+13,-236,-16
56816,12.904,-1.526,0.056,0.430135,0.168786,2.416356,100144.91,+21,-237,-14
56826,13.409,-1.561,0.168,0.451952,0.160804,2.552043,100144.59,+21,-237,-14
56837,13.837,-1.297,0.994,0.493989,0.161336,2.695713,100144.59,+30,-239,-13
56847,14.059,-1.318,1.889,0.538154,0.196988,2.819163,100146.93,+39,-241,-11
56856,14.524,-1.311,2.618,0.450356,0.236896,2.907493,100144.46,+49,-242,-11
56862,15.149,-0.941,2.905,0.293383,0.227850,2.985713,100146.55,+49,-242,-11
56871,16.031,-0.607,3.018,0.084796,0.200180,3.053291,100146.55,+60,-244,-10
56882,18.299,-0.289,3.865,-0.257350,0.156547,3.081493,100143.73,+71,-245,-11
56892,21.466,1.769,3.452,-0.776690,0.139520,3.011786,100143.73,+71,-245,-11
56902,24.105,4.185,1.700,-1.392873,0.157612,3.029878,100145.78,+82,-246,-15
56911,25.021,8.188,0.191,-1.873368,0.162933,3.157052,100142.20,+92,-249,-21
56922,23.098,12.238,-0.040,-2.002671,0.254456,3.290080,100141.33,+104,-251,-28
56932,20.427,13.032,-0.219,-1.974469,0.277336,3.397034,100141.33,+104,-251,-28
56941,18.485,10.878,0.064,-1.823349,0.168786,3.384795,100141.33,+117,-252,-35
56951,14.619,8.108,1.583,-1.234836,0.019795,3.342759,100144.77,+128,-252,-38
56962,9.880,2.201,2.393,-0.076433,-0.260627,3.418318,100143.41,+139,-251,-40
56972,9.234,-5.215,1.989,1.089952,-0.263287,3.793456,100142.56,+139,-251,-40
56982,11.409,-8.555,7.134,2.081272,0.133135,4.027052,100143.67,+154,-246,-35
56991,13.412,-5.660,11.024,2.066373,0.125153,3.207603,100143.67,+166,-241,-28
57001,10.023,1.046,5.391,0.926062,-0.232425,1.789530,100146.11,+171,-238,-27
57012,6.204,5.996,1.151,0.148117,-0.305856,0.826412,100140.36,+171,-238,-27
57022,5.657,6.355,1.160,0.259860,-0.196241,0.491715,100139.67,+173,-236,-26
57032,5.861,5.023,1.838,0.094906,-0.312241,0.292706,100141.52,+174,-236,-25
57041,4.956,4.007,1.733,-0.201479,-0.544241,-0.156395,100143.35,+172,-236,-27
57052,4.042,3.264,1.647,-0.469130,-0.680993,-0.710853,100141.41,+172,-236,-27
57062,3.607,2.484,1.604,-0.621314,-0.759746,-1.198266,100141.41,+167,-238,-27
57071,3.261,1.696,2.063,-0.593112,-0.824131,-1.630871,100140.48,+161,-240,-29
57081,3.325,0.686,1.974,-0.449974,-0.914057,-2.059220,100138.27,+153,-242,-30
57092,3.697,-0.099,1.707,-0.306837,-0.999727,-2.507256,100138.27,+142,-242,-30
57102,4.315,-0.489,1.503,-0.206268,-1.052938,-2.939861,100141.13,+142,-245,-30
57111,4.810,-0.267,1.497,-0.091864,-1.077947,-3.294246,100143.38,+130,-246,-30
57121,5.524,0.602,1.689,0.094374,-1.081140,-3.609255,100139.70,+117,-247,-30
57132,6.303,1.147,2.091,0.384906,-1.035378,-3.873714,100139.55,+102,-248,-27
57142,6.249,1.338,2.800,0.725988,-0.976314,-4.130723,100141.63,+102,-248,-27
57152,6.289,1.323,3.597,1.013328,-0.947580,-4.428172,100142.45,+86,-246,-26
57162,7.246,0.846,4.110,1.268740,-0.930553,-4.726686,100139.16,+69,-244,-22
57171,8.391,0.329,4.597,1.469878,-0.878938,-4.984227,100137.91,+50,-240,-18
57182,9.168,0.286,4.996,1.666226,-0.793801,-5.185896,100137.91,+50,-240,-18
57192,9.961,0.244,5.059,1.931749,-0.686847,-5.370007,100137.91,+32,-232,-14
57201,10.984,0.081,4.970,2.256868,-0.574039,-5.553052,100140.63,+14,-224,-8
57211,12.536,-0.511,5.116,2.489400,-0.487305,-5.722795,100140.16,-3,-214,-2
57222,14.682,-1.499,5.217,2.534097,-0.450590,-5.884025,100137.13,-3,-214,-2
57232,17.041,-2.975,5.405,2.323914,-0.432498,-6.050575,100135.66,-19,-202,+2
57242,18.186,-4.514,5.873,1.915786,-0.396847,-6.213933,100135.66,-36,-187,+6
57251,18.035,-5.404,6.468,1.415071,-0.363856,-6.343767,100141.44,-53,-173,+8
57262,17.907,-6.114,5.859,0.776007,-0.310113,-6.410813,100136.55,-53,-173,+8
57272,18.225,-10.019,7.313,-0.048231,-0.276590,-6.316098,100138.52,-66,-160,+7
57282,18.487,-12.238,7.233,-0.674524,-0.349489,-6.114960,100138.52,-80,-148,+4
57291,19.075,-13.130,7.446,-1.214084,-0.257434,-5.705768,100138.52,-91,-136,+0
57302,18.417,-13.420,7.614,-1.397662,-0.149416,-5.117786,100141.15,-91,-136,+0
57312,17.284,-13.234,6.610,-1.331680,-0.044058,-4.438282,100141.30,-99,-127,-2
57322,16.670,-14.297,6.083,-1.081588,0.065557,-3.727384,100139.99,-105,-119,-5
57331,13.723,-15.738,5.964,-0.556928,0.142713,-3.078742,100139.52,-110,-113,-6
57337,10.743,-16.688,5.922,-0.031204,0.233171,-2.608889,100139.52,-110,-113,-6
57347,9.192,-18.513,5.168,0.414704,0.381630,-1.990577,100139.87,-112,-107,-5
57357,9.013,-19.963,3.186,0.559970,0.578510,-0.815147,100143.01,-112,-107,-5
57367,10.674,-17.113,0.382,0.739291,0.710474,0.524705,100141.49,-112,-104,-2
57376,12.153,-13.989,-0.593,1.389529,0.804125,1.663952,100142.85,-107,-107,+0
57387,13.857,-11.078,-0.334,1.982832,0.781776,2.444025,100142.85,-103,-111,+3
57397,12.639,-12.853,-3.155,2.162153,0.559887,3.032539,100142.66,-96,-117,+9
57407,17.021,7.069,-5.755,1.899290,0.251795,3.082025,100142.03,-96,-117,+9
57416,20.180,34.365,-13.716,0.724924,-0.369177,1.147806,100142.75,-94,-119,+10
57426,14.962,12.842,-4.324,1.578428,0.183153,1.187714,100143.48,-92,-121,+13
57437,16.502,-15.729,0.267,4.103821,0.871171,3.009658,100143.48,-84,-120,+23
57447,16.010,-17.435,5.978,4.180445,1.370822,3.257089,100144.50,-84,-120,+23
57457,12.332,-7.822,3.814,1.774245,0.850418,2.780851,100142.41,-76,-122,+29
57466,10.110,-2.318,5.688,0.536025,0.938217,2.239695,100140.22,-71,-126,+32
57477,9.686,-0.565,6.026,0.800484,1.134565,2.318447,100140.94,-64,-130,+35
57487,10.410,-4.438,3.633,0.703640,0.879685,2.150301,100140.94,-64,-130,+35
57497,10.286,-6.042,1.638,0.051273,0.670565,1.965659,100144.62,-59,-134,+37
57506,10.618,-3.565,1.909,-0.625038,0.611501,1.862962,100143.37,-55,-139,+37
57517,10.467,-2.503,2.357,-0.996983,0.506143,1.724081,100143.37,-49,-145,+37
57527,9.845,-1.779,1.581,-1.192799,0.360345,1.601696,100141.59,-49,-145,+37
57537,9.699,-0.641,1.455,-1.214616,0.337465,1.507512,100141.59,-47,-151,+35
57547,9.535,-0.265,1.509,-0.995919,0.377373,1.394173,100144.95,-42,-155,+33
57556,9.414,-0.447,1.114,-0.652708,0.410364,1.268063,100142.59,-39,-159,+32
57567,9.932,-0.131,1.259,-0.364837,0.429520,1.205806,100140.61,-39,-159,+32
57572,10.228,-0.180,1.595,-0.155717,0.431116,1.158448,100145.20,-35,-162,+35
57582,10.191,-0.649,2.123,-0.015241,0.424731,1.107898,100145.20,-35,-162,+35
57591,9.888,-1.019,2.449,0.027860,0.374180,1.020632,100145.20,-32,-164,+35
57602,9.355,-1.362,2.540,-0.103039,0.334804,0.941879,100145.30,-30,-165,+35
57612,9.718,-1.716,2.672,-0.413791,0.286914,0.891329,100143.20,-27,-167,+34
57622,10.076,-1.168,2.509,-0.743699,0.218272,0.807256,100142.03,-24,-171,+33
57632,9.934,-0.271,2.150,-0.918231,0.179960,0.756173,100142.03,-24,-171,+33
57641,9.939,0.306,1.859,-0.860231,0.170382,0.780118,100144.70,-23,-173,+31
57652,9.979,0.517,1.907,-0.662286,0.176235,0.836522,100144.70,-19,-177,+31
57662,9.954,0.060,1.907,-0.464341,0.171979,0.908357,100143.09,-17,-179,+29
57672,9.782,-0.790,1.966,-0.382396,0.157079,0.969549,100142.83,-17,-179,+29
57681,9.334,-1.738,2.206,-0.486158,0.140052,0.935494,100142.41,-14,-181,+28
57692,9.107,-2.076,2.266,-0.705387,0.142713,0.742338,100142.41,-12,-184,+27
57702,9.364,-1.578,2.405,-0.912910,0.162933,0.543861,100142.52,-10,-186,+25
57712,9.669,-0.952,2.402,-1.004965,0.165593,0.471494,100140.75,-10,-186,+25
57722,9.820,-0.630,2.283,-0.977827,0.160804,0.482669,100143.16,-8,-189,+23
57732,9.888,-0.718,2.200,-0.893754,0.152290,0.513531,100141.89,-8,-191,+21
57742,9.833,-1.061,2.129,-0.818194,0.144841,0.538540,100144.97,-6,-193,+19
57752,9.607,-1.173,2.065,-0.814469,0.132602,0.560357,100142.88,-6,-193,+19
57762,9.396,-0.819,2.060,-0.816598,0.118768,0.602393,100143.45,-4,-196,+18
57772,9.028,-0.402,2.001,-0.755405,0.099612,0.680614,100143.45,-2,-198,+16
57782,8.762,-0.360,1.878,-0.628763,0.100676,0.716797,100142.36,+0,-200,+14
57792,9.204,-0.975,1.409,-0.554268,0.066089,0.850357,100142.36,+0,-200,+14
57802,9.388,-0.799,1.113,-0.365369,0.065557,0.972742,100143.01,+2,-202,+14
57811,9.436,-0.906,1.239,-0.166892,0.083648,1.019568,100144.63,+5,-204,+13
57822,9.768,-1.021,1.719,-0.098250,0.078859,1.083421,100142.49,+8,-205,+13
57832,9.900,-0.690,2.152,-0.112617,0.068749,1.164834,100142.34,+8,-205,+13
57842,10.621,-0.404,2.348,-0.120598,0.057043,1.244118,100142.34,+12,-207,+12
57852,10.748,-0.449,2.408,-0.097185,0.047465,1.381934,100142.73,+16,-209,+12
57862,10.457,-0.356,2.418,-0.114213,0.044272,1.543164,100139.84,+21,-210,+11
57872,10.531,-0.334,2.116,-0.117938,0.044272,1.707053,100143.23,+21,-210,+11
57882,10.895,-0.728,1.494,-0.114213,0.042676,1.872007,100143.23,+26,-212,+11
57891,11.788,-0.813,0.891,-0.070048,0.033630,2.041750,100143.23,+33,-214,+11
57902,12.598,-0.940,0.453,0.105016,0.043740,2.231181,100144.87,+39,-216,+11
57912,13.031,-1.134,0.191,0.329035,0.086309,2.395071,100142.87,+39,-216,+11
57922,13.480,-1.330,0.058,0.453016,0.109722,2.557897,100143.87,+46,-217,+13
57927,13.523,-1.276,0.338,0.442374,0.117171,2.657933,100144.18,+55,-217,+14
57936,13.389,-1.741,0.908,0.283273,0.128346,2.680814,100144.18,+55,-217,+14
57947,13.862,-1.918,1.451,0.000723,0.162933,2.635053,100146.25,+64,-218,+14
57957,14.560,-1.416,1.786,-0.232873,0.218272,2.651548,100145.88,+71,-220,+14
57967,15.860,-1.121,1.694,-0.423369,0.249667,2.761163,100143.80,+80,-221,+13
57977,18.826,-0.686,1.704,-0.635680,0.208162,2.905365,100143.16,+80,-221,+13
57987,22.925,1.572,2.615,-0.973570,0.097483,3.030942,100143.16,+90,-222,+10
57997,24.889,4.313,1.609,-1.461515,0.135795,3.050098,100147.02,+100,-225,+6
58007,25.302,7.044,-0.780,-2.124524,0.100676,3.042117,100144.23,+110,-228,+0
58017,24.148,11.854,-2.130,-2.410799,0.065557,3.043181,100145.59,+110,-228,+0
58027,20.884,14.686,-2.132,-2.130909,0.022456,3.136832,100145.33,+120,-232,-8
58037,17.145,12.293,-0.909,-1.498230,-0.133985,3.176208,100145.33,+130,-234,-12
58047,12.890,7.313,1.907,-0.244580,-0.378755,3.158117,100145.30,+139,-232,-11
58057,10.570,-2.114,1.405,1.478924,-0.668755,3.482703,100145.10,+139,-232,-11
58066,12.630,-10.293,6.775,3.000225,-0.042462,4.015346,100144.48,+151,-226,-3
58077,15.261,-13.633,11.312,2.965106,-0.030755,4.039823,100144.10,+166,-218,+4
58087,13.503,-7.003,8.214,1.777437,-0.509654,2.912814,100144.10,+172,-215,+8
58097,10.069,4.372,3.703,0.443970,-0.872553,1.645329,100143.02,+172,-215,+8
58107,7.431,9.701,1.143,0.159291,-0.806039,0.989769,100142.02,+174,-214,+9
58117,6.813,7.713,2.456,0.478025,-0.702810,0.930705,100141.28,+176,-213,+11
58127,6.334,5.636,3.300,0.576466,-0.888516,0.758302,100141.34,+176,-211,+14
58137,5.094,3.816,2.840,0.508888,-1.122644,0.319843,100141.34,+176,-211,+14
58147,3.583,2.915,3.247,0.495585,-1.205654,-0.202156,100143.37,+175,-211,+17
58157,2.955,2.484,3.802,0.495585,-1.287598,-0.683184,100141.05,+172,-211,+20
58163,2.900,2.207,3.978,0.510484,-1.404663,-1.023202,100142.16,+172,-211,+20
58172,2.935,1.846,3.993,0.567420,-1.535030,-1.371202,100142.16,+166,-213,+23
58182,3.182,1.225,3.836,0.618502,-1.672846,-1.848504,100139.54,+157,-213,+27
58192,3.593,0.606,3.721,0.592961,-1.767029,-2.306651,100139.54,+146,-215,+31
58203,3.947,0.255,3.788,0.538154,-1.839396,-2.728614,100145.10,+146,-215,+31
58212,4.321,0.244,3.955,0.483878,-1.891011,-3.113861,100139.66,+134,-215,+33
58222,4.664,0.430,4.200,0.448227,-1.909635,-3.476760,100141.29,+119,-216,+37
58232,5.064,0.466,4.655,0.449823,-1.877708,-3.815714,100141.29,+103,-217,+38
58242,5.322,0.177,5.180,0.467915,-1.803213,-4.139236,100141.29,+103,-217,+38
58252,5.600,-0.184,5.598,0.442906,-1.735103,-4.479255,100141.19,+87,-216,+41
58262,6.288,-0.473,5.834,0.386502,-1.647305,-4.828851,100140.77,+68,-215,+42
58272,7.163,-0.348,6.153,0.339677,-1.496186,-5.143328,100140.61,+48,-211,+43
58283,8.065,0.324,6.395,0.403707,-1.295403,-5.426942,100139.58,+48,-211,+43
58292,8.969,0.851,6.289,0.604667,-1.110938,-5.633933,100139.58,+28,-205,+44
58302,10.384,1.086,6.119,0.999493,-0.891709,-5.820704,100139.89,+8,-197,+44
58312,12.134,0.886,6.155,1.495951,-0.691103,-5.972887,100138.84,-9,-185,+46
58322,14.102,0.098,6.360,1.961015,-0.532003,-6.093676,100137.33,-9,-185,+46
58333,16.188,-1.001,6.495,2.246758,-0.426113,-6.197437,100137.49,-27,-170,+50
58342,18.198,-2.044,6.719,2.385639,-0.323948,-6.300134,100140.01,-42,-151,+52
58352,19.984,-3.279,7.376,2.434061,-0.187196,-6.375162,100138.60,-56,-132,+54
58362,20.903,-4.664,8.391,2.362758,-0.052040,-6.403364,100138.60,-56,-132,+54
58372,20.518,-6.870,7.508,2.114795,0.074602,-6.357602,100140.95,-67,-113,+55
58382,20.648,-13.785,6.928,1.201162,0.043208,-6.183070,100138.54,-77,-93,+54
58392,18.761,-17.044,5.272,0.219952,-0.231893,-5.825492,100138.54,-85,-79,+51
58402,17.865,-14.700,5.524,-0.441460,-0.230829,-5.200796,100142.42,-85,-79,+51
58413,17.554,-11.741,6.204,-0.392506,-0.223379,-4.529273,100137.14,-93,-67,+49
58422,16.839,-13.422,8.895,-0.009919,-0.073324,-3.807732,100143.25,-97,-57,+45
58432,12.842,-15.865,10.563,0.493456,0.102804,-3.059054,100137.34,-101,-48,+45
58442,9.286,-17.099,9.977,0.948942,0.307134,-2.360394,100143.84,-101,-48,+45
58452,9.478,-18.336,7.667,1.441144,0.498162,-1.382376,100141.54,-101,-40,+45
58463,10.584,-17.715,4.512,1.789144,0.715263,-0.186193,100140.02,-100,-35,+47
58472,11.446,-16.412,2.606,2.053070,0.908418,0.939751,100141.96,-98,-34,+49
58482,12.563,-16.835,3.432,2.087125,1.007923,1.931072,100141.96,-98,-34,+49
58492,13.554,-14.571,0.660,1.603437,0.777519,2.453603,100141.96,-95,-35,+54
58502,13.359,-12.638,-1.990,1.008007,0.609373,2.888869,100142.90,-92,-40,+56
58512,20.049,12.812,-13.692,0.166741,-0.265948,2.515860,100144.26,-92,-47,+54
58518,21.285,34.440,-20.209,-1.275276,-0.790608,0.884944,100142.96,-92,-47,+54
58527,14.540,23.708,-7.670,-0.062598,-0.096737,0.682742,100145.10,-92,-51,+53
58537,15.631,-4.166,-0.521,3.253510,0.616290,2.566411,100145.10,-89,-49,+58
58547,16.682,-13.373,3.063,4.128298,1.095721,3.050630,100145.50,-89,-49,+58
58557,12.232,-8.297,6.314,3.421124,1.184583,3.049566,100142.41,-83,-47,+64
58567,10.544,-3.281,6.911,2.857620,1.362840,2.489254,100140.63,-78,-47,+67
58577,11.289,-2.479,5.508,2.453217,1.454895,2.213622,100142.78,-73,-46,+72
58587,8.934,-1.985,2.314,1.975914,1.232473,2.213090,100142.78,-73,-46,+72
58597,7.784,-1.561,3.030,1.826391,1.155317,2.068888,100143.71,-69,-47,+77
58607,9.619,-4.944,3.299,1.300135,0.944602,1.944906,100142.10,-64,-47,+79
58617,11.200,-6.555,1.955,0.445034,0.702492,1.818264,100142.77,-62,-50,+81
58628,11.378,-5.188,1.696,-0.436139,0.510400,1.691090,100139.12,-62,-50,+81
58638,11.052,-3.180,1.082,-1.260732,0.300217,1.566044,100139.12,-59,-55,+81
58647,10.337,-2.157,0.810,-1.656799,0.247006,1.431953,100142.86,-57,-64,+81
58657,9.486,-1.329,-0.052,-1.709478,0.249667,1.289347,100141.59,-56,-71,+79
58668,9.053,0.211,-0.585,-1.160341,0.367795,1.136632,100141.23,-56,-71,+79
58677,9.796,2.001,-0.334,-0.392506,0.485923,1.056283,100138.05,-54,-75,+79
58687,10.050,1.701,0.586,0.363622,0.592877,1.035531,100138.05,-51,-77,+81
58697,9.990,-0.145,1.956,0.742484,0.625868,1.038723,100140.91,-48,-77,+83
58707,9.629,-1.763,1.960,0.613181,0.529024,0.955714,100139.65,-48,-77,+83
58718,9.285,-2.257,2.168,0.225805,0.456125,0.868980,100137.77,-45,-77,+84
58727,9.813,-2.161,2.696,-0.302580,0.372052,0.812577,100140.65,-44,-80,+85
58737,9.867,-1.323,2.621,-0.773497,0.269887,0.742338,100140.65,-42,-84,+84
58747,9.665,-0.261,1.515,-0.970378,0.203905,0.690192,100144.34,-42,-84,+84
58753,9.841,0.491,1.071,-0.910249,0.218272,0.695513,100141.31,-41,-88,+83
58762,9.956,0.858,0.768,-0.724543,0.248070,0.706155,100141.31,-39,-91,+83
58772,9.831,0.449,0.574,-0.415387,0.288511,0.728503,100141.36,-39,-91,+83
58782,9.616,-0.281,0.820,-0.150928,0.320969,0.770008,100139.75,-37,-93,+84
58792,9.638,-1.203,1.260,-0.026415,0.328951,0.784375,100139.75,-35,-95,+84
58803,9.744,-2.079,1.806,-0.097185,0.322033,0.750852,100141.66,-33,-97,+84
58812,9.887,-1.950,2.162,-0.353130,0.289043,0.709880,100140.63,-33,-97,+84
58822,9.708,-1.288,2.114,-0.623442,0.247006,0.696045,100139.34,-32,-100,+84
58832,9.726,-0.538,2.043,-0.779882,0.221465,0.702962,100139.34,-30,-103,+84
58843,9.795,0.122,1.963,-0.796910,0.210823,0.730100,100139.34,-29,-106,+84
58852,9.757,0.354,1.636,-0.694213,0.212419,0.785971,100142.10,-29,-106,+84
58862,9.550,0.035,1.340,-0.534580,0.230511,0.864191,100142.52,-26,-109,+83
58872,9.393,-0.731,1.172,-0.369271,0.242394,0.937445,100142.88,-24,-112,+83
58883,9.428,-1.368,1.184,-0.296727,0.253923,0.970081,100142.88,-23,-115,+83
58892,9.490,-1.706,1.391,-0.297791,0.264566,0.991366,100142.88,-23,-115,+83
58902,9.693,-1.611,1.753,-0.347809,0.269887,1.000412,100143.04,-20,-117,+83
58912,9.751,-1.251,2.075,-0.349938,0.267226,1.013714,100143.21,-17,-119,+82
58923,9.862,-1.243,2.205,-0.303644,0.263501,1.044045,100139.85,-14,-122,+81
58933,10.193,-1.518,1.903,-0.224360,0.253923,1.072246,100139.85,-14,-122,+81
58943,10.410,-1.973,1.879,-0.175938,0.241153,1.095659,100146.90,-12,-125,+82
58952,10.185,-1.789,1.786,-0.189240,0.226254,1.127054,100146.90,-10,-127,+83
58962,9.789,-1.341,1.540,-0.205204,0.209758,1.197824,100142.26,-6,-129,+83
58973,9.724,-0.948,0.926,-0.170617,0.175703,1.299989,100140.16,-6,-129,+83
58982,10.577,-0.303,0.799,-0.046103,0.136327,1.443127,100142.66,-3,-131,+83
58992,11.568,-0.407,1.291,0.145457,0.129410,1.609145,100142.66,-1,-134,+83
59002,11.794,-0.929,0.839,0.214631,0.169850,1.767182,100144.09,+3,-135,+83
59013,12.305,-1.473,0.128,0.221548,0.197520,1.922558,100142.00,+3,-135,+83
59023,12.897,-1.763,-0.079,0.262521,0.189538,2.074209,100142.20,+7,-137,+84
59032,13.362,-1.373,0.763,0.330099,0.167190,2.225860,100141.84,+11,-139,+85
59042,13.304,-0.873,1.932,0.373732,0.155483,2.383365,100140.44,+17,-141,+86
59053,13.459,-0.715,2.791,0.343934,0.159740,2.540869,100140.44,+17,-141,+86
59063,14.668,-0.954,3.056,0.223677,0.144841,2.688796,100142.27,+23,-143,+86
59072,16.757,-0.990,3.367,0.020943,0.100676,2.822887,100142.27,+29,-145,+86
59082,18.919,-0.283,3.992,-0.279699,0.059171,2.924520,100141.64,+35,-149,+86
59092,20.228,0.990,3.263,-0.786268,0.097483,2.968685,100141.64,+42,-149,+86
59103,21.715,3.153,1.995,-1.287515,0.123557,3.028282,100142.00,+42,-154,+85
59112,23.537,6.014,0.675,-1.581772,0.120364,3.115548,100141.69,+49,-161,+81
59122,23.662,9.832,0.733,-1.782909,0.181557,3.154924,100140.97,+57,-168,+77
59132,21.132,11.949,0.473,-2.078762,0.194859,3.235272,100141.28,+64,-177,+72
59143,18.512,10.900,-0.294,-2.297459,0.103868,3.254428,100141.28,+64,-177,+72
59153,15.374,8.833,0.103,-1.944670,0.071410,3.129915,100140.91,+73,-183,+67
59162,11.044,3.191,2.438,-0.469130,0.050658,3.182061,100138.19,+81,-187,+66
59172,9.691,-8.837,2.213,1.075052,-0.111104,3.572098,100141.17,+91,-185,+70
59183,12.084,-15.124,8.111,1.825859,0.260309,4.106868,100141.17,+91,-185,+70
59192,15.970,-12.876,10.632,1.283107,0.249667,3.797180,100141.17,+103,-181,+74
59202,14.447,-6.572,8.432,0.378521,0.053318,2.807988,100139.80,+111,-179,+74
59212,10.167,2.802,3.265,-0.669735,-0.241471,1.691622,100140.27,+113,-183,+72
59223,7.249,7.919,0.306,-0.827772,-0.231893,1.008393,100138.13,+113,-183,+72
59233,6.308,7.458,1.131,-0.340892,-0.113764,0.847164,100137.23,+116,-185,+72
59242,5.888,5.923,1.313,-0.139222,-0.274994,0.693384,100137.23,+117,-185,+72
59252,5.222,4.477,0.635,-0.067387,-0.464957,0.305476,100139.93,+117,-186,+73
59262,3.981,3.335,1.332,0.033714,-0.484645,-0.127661,100140.40,+117,-186,+73
59273,2.993,2.322,2.300,0.243897,-0.499544,-0.523019,100139.15,+114,-187,+73
59283,2.363,1.496,2.698,0.549860,-0.575104,-0.975312,100139.15,+110,-186,+75
59292,2.219,0.573,2.536,0.811658,-0.692168,-1.479752,100138.28,+104,-185,+77
59302,2.460,-0.097,2.107,0.889346,-0.804443,-1.986853,100137.55,+104,-185,+77
59313,2.732,-0.212,1.670,0.846777,-0.889048,-2.446595,100137.55,+96,-184,+80
59323,3.071,-0.038,1.378,0.814319,-0.942791,-2.831311,100139.17,+87,-181,+83
59332,3.316,0.142,1.855,0.791438,-0.961947,-3.157494,100135.30,+76,-179,+84
59342,3.495,0.117,2.542,0.792502,-0.976846,-3.467714,100135.30,+76,-179,+84
59353,3.708,0.306,3.067,0.807401,-0.979507,-3.804540,100140.15,+63,-176,+88
59363,4.179,0.614,3.246,0.829218,-0.978975,-4.161585,100141.20,+50,-173,+88
59373,4.803,0.634,3.380,0.839328,-0.968865,-4.493622,100138.07,+36,-167,+91
59382,5.600,0.215,3.463,0.798887,-0.952369,-4.801181,100135.98,+36,-167,+91
59393,6.283,-0.234,3.496,0.697254,-0.926828,-5.097566,100133.62,+21,-161,+91
59403,7.062,-0.358,3.518,0.567420,-0.874681,-5.368942,100136.29,+6,-154,+93
59413,8.100,-0.278,3.428,0.515805,-0.785287,-5.605199,100132.88,-7,-145,+93
59422,9.566,-0.164,3.208,0.560502,-0.678865,-5.826025,100132.88,-7,-145,+93
59432,11.247,-0.002,2.997,0.692998,-0.570847,-6.036208,100130.48,-23,-135,+93
59443,13.024,0.036,2.772,0.856355,-0.491030,-6.236813,100130.48,-35,-122,+94
59453,14.890,-0.084,2.638,1.056429,-0.410150,-6.410813,100135.81,-48,-107,+95
59462,17.130,-0.627,2.704,1.308117,-0.321287,-6.536923,100139.31,-48,-107,+95
59472,19.994,-1.395,3.244,1.625786,-0.243599,-6.612483,100138.02,-57,-89,+96
59483,23.302,-2.281,3.468,2.052006,-0.198902,-6.622593,100137.39,-67,-67,+98
59493,24.962,-5.722,4.492,2.170134,-0.127067,-6.533731,100137.39,-72,-45,+99
59503,23.507,-10.213,4.282,2.042960,-0.317030,-6.257565,100140.98,-72,-45,+99
59512,22.633,-12.039,4.046,1.919511,-0.449526,-5.872318,100137.74,-76,-24,+99
59523,21.834,-13.568,5.461,2.017419,-0.441544,-5.251878,100135.96,-80,-5,+98
59533,18.687,-14.267,8.850,2.340941,-0.393654,-4.459034,100135.96,-80,+13,+97
59542,15.050,-15.694,10.780,2.273896,-0.325544,-3.635329,100135.96,-80,+13,+97
59552,12.908,-20.216,10.856,2.024868,-0.093012,-2.805770,100138.34,-81,+29,+96
59563,10.589,-24.058,9.970,1.549694,0.091098,-2.140100,100139.96,-80,+41,+95
59573,9.347,-23.701,9.834,0.723860,0.250199,-1.375458,100140.43,-78,+46,+95
59583,9.655,-18.034,7.195,0.038680,0.367618,-0.241355,100138.43,-77,+47,+97
59592,10.592,-14.666,5.701,0.193879,0.576382,0.823751,100138.43,-77,+47,+97
59602,12.395,-13.779,5.366,0.620099,0.773795,1.898613,100140.79,-75,+45,+98
59613,12.983,-13.100,2.383,0.677034,0.647153,2.544062,100141.26,-74,+41,+99
59623,13.225,-8.055,-1.106,0.498778,0.440694,3.034135,100140.90,-74,+35,+101
59633,18.818,20.055,-11.587,-0.283956,-0.267012,2.341860,100142.84,-74,+35,+101
59642,16.626,33.324,-12.139,-0.642066,-0.378223,0.605586,100146.87,-76,+30,+100
59653,13.233,6.865,-1.008,2.061584,0.392272,1.902870,100142.05,-76,+31,+100
59663,15.755,-12.674,1.109,3.758482,0.941409,2.958043,100142.05,-73,+36,+101
59672,14.295,-12.375,4.245,3.487106,1.170216,3.183658,100142.37,-73,+36,+101
59682,11.606,-5.965,6.359,2.441510,1.160638,2.812777,100142.05,-71,+38,+103
59693,12.234,-2.882,5.980,1.961547,1.270785,2.373787,100142.05,-67,+39,+105
59703,10.140,-3.612,2.968,1.693364,1.144675,2.354631,100141.03,-64,+38,+107
59713,7.483,-2.567,2.707,1.561933,1.034528,2.049200,100141.88,-64,+38,+107
59723,8.252,-4.121,3.457,1.180942,0.906822,1.798044,100143.91,-62,+39,+108
59732,11.185,-5.557,2.231,0.478557,0.721648,1.714503,100142.81,-60,+37,+110
59743,11.490,-4.294,1.862,-0.272782,0.560951,1.576687,100143.87,-59,+33,+111
59753,10.625,-1.869,1.980,-0.924616,0.402382,1.514430,100140.26,-59,+33,+111
59763,9.972,-0.444,1.260,-1.049130,0.334804,1.446320,100143.40,-58,+25,+113
59772,9.637,-0.923,0.659,-0.727735,0.383758,1.317549,100141.98,-58,+20,+113
59783,9.687,-1.265,-0.004,-0.394103,0.410896,1.185054,100141.98,-57,+16,+115
59793,10.058,-0.845,0.025,-0.108892,0.467832,1.069586,100141.98,-57,+16,+115
59803,10.341,-0.789,0.620,0.029457,0.499226,1.016375,100143.63,-55,+14,+116
59812,10.014,-0.868,1.154,0.069897,0.489116,0.948797,100143.59,-54,+13,+116
59823,9.553,-0.826,1.788,0.099163,0.475281,0.853549,100142.79,-52,+11,+117
59833,9.505,-1.274,2.308,-0.000341,0.436969,0.789696,100140.45,-52,+11,+117
59843,9.939,-1.640,2.545,-0.238727,0.367263,0.734357,100140.45,-51,+9,+118
59853,9.960,-0.952,2.485,-0.474983,0.285318,0.661458,100145.76,-50,+6,+119
59863,9.656,-0.060,2.215,-0.596304,0.232107,0.615696,100140.66,-49,+3,+119
59873,9.624,0.071,1.715,-0.579809,0.212419,0.607182,100140.79,-49,+3,+119
59883,9.736,-0.077,1.136,-0.517020,0.225722,0.613036,100140.79,-48,+0,+120
59893,9.817,-0.132,0.678,-0.443057,0.265098,0.639641,100144.36,-48,-1,+120
59902,9.873,-0.494,0.909,-0.390910,0.302878,0.675292,100144.36,-46,-5,+121
59913,9.790,-0.982,1.767,-0.397827,0.307134,0.693384,100139.44,-46,-5,+121
59923,9.768,-1.044,2.287,-0.507442,0.282657,0.680081,100143.83,-45,-7,+121
59932,9.689,-0.700,2.491,-0.641534,0.253391,0.672100,100138.39,-44,-11,+121
59938,9.666,-0.223,2.385,-0.694213,0.233171,0.679549,100138.39,-44,-11,+121
59948,9.662,-0.013,2.330,-0.671332,0.226786,0.704026,100141.61,-43,-14,+122
59958,9.716,-0.350,2.145,-0.595240,0.218272,0.737549,100141.81,-42,-18,+123
59968,9.807,-0.699,1.923,-0.542561,0.217208,0.752981,100140.72,-42,-22,+122
59977,9.709,-0.952,1.706,-0.538837,0.221465,0.768944,100140.34,-42,-22,+122
59987,9.423,-1.088,1.463,-0.547882,0.230511,0.777990,100140.34,-41,-24,+123
59998,9.238,-0.987,1.276,-0.528726,0.236364,0.793953,100141.55,-39,-28,+123
60008,9.456,-0.966,1.373,-0.457956,0.252859,0.822155,100141.40,-38,-32,+124
60018,9.704,-1.113,1.527,-0.366433,0.266694,0.845568,100141.98,-38,-32,+124
60027,9.612,-1.450,1.549,-0.297259,0.268823,0.867916,100139.88,-37,-33,+124
60038,9.619,-1.513,1.744,-0.244580,0.269887,0.889733,100139.88,-36,-36,+125
60048,9.874,-1.625,2.105,-0.205204,0.264034,0.916338,100139.49,-34,-38,+125
60058,10.026,-1.908,2.329,-0.203075,0.245942,0.936026,100141.63,-34,-38,+125
60067,10.060,-1.845,2.154,-0.266928,0.217208,0.956779,100142.99,-32,-41,+125
60078,10.001,-1.251,1.962,-0.301516,0.211887,0.996687,100138.96,-32,-43,+125
60088,10.129,-1.066,1.656,-0.289809,0.189538,1.076503,100138.96,-30,-47,+125
60098,10.157,-0.402,1.253,-0.217974,0.174639,1.191439,100142.60,-30,-47,+125
60107,10.298,-0.286,1.030,-0.080158,0.166657,1.342026,100144.23,-28,-50,+126
60118,10.906,-0.213,0.886,0.051273,0.155483,1.513365,100139.16,-26,-52,+126
60128,11.732,-0.169,1.117,0.148117,0.166657,1.701200,100139.57,-24,-55,+127
60138,12.114,-0.190,1.127,0.213035,0.191667,1.906062,100139.57,-24,-55,+127
60148,12.609,-0.510,0.912,0.265713,0.203905,2.110924,100143.59,-23,-58,+127
60157,13.365,-0.690,0.919,0.332227,0.198584,2.301952,100143.70,-19,-59,+127
60168,13.804,-0.897,1.439,0.375328,0.192199,2.472759,100142.96,-16,-63,+128
60178,13.895,-1.276,2.007,0.324778,0.201777,2.596209,100139.62,-16,-63,+128
60188,14.212,-1.561,2.053,0.131090,0.217740,2.657401,100139.62,-12,-66,+128
60197,15.240,-1.362,2.071,-0.132305,0.224125,2.700502,100143.02,-9,-70,+129
60208,17.051,-1.425,1.881,-0.420176,0.195391,2.787768,100139.57,-5,-76,+129
60218,20.397,-0.065,2.426,-0.780414,0.109190,2.876098,100140.77,-5,-76,+129
60228,22.738,2.760,2.359,-1.181625,0.045336,2.967089,100138.10,-1,-82,+128
60237,23.225,5.788,1.066,-1.622212,0.047465,3.098520,100138.10,+1,-92,+127
60248,23.665,8.340,0.150,-2.002671,0.120364,3.232080,100141.71,+6,-103,+125
60258,23.614,10.706,-0.996,-2.345349,0.185281,3.241126,100140.30,+6,-103,+125
60268,21.186,10.909,-0.958,-2.607679,0.184749,3.213988,100140.98,+13,-115,+121
60278,18.305,9.191,0.301,-2.418248,0.068217,3.197493,100141.09,+18,-127,+117
60288,15.032,3.647,3.453,-0.909717,-0.069067,3.384263,100141.09,+24,-135,+116
60294,13.839,-4.472,3.209,0.536025,-0.368113,3.730667,100139.86,+24,-135,+116
60303,14.333,-9.794,4.796,1.341639,-0.372902,4.330354,100139.86,+31,-134,+117
60313,14.970,-12.063,6.915,2.235052,-0.155801,4.607051,100138.81,+39,-131,+121
60323,14.451,-9.199,8.248,2.108942,-0.051508,4.151033,100135.89,+39,-131,+121
60333,11.749,-3.335,8.422,1.310245,-0.028095,3.294337,100136.83,+46,-128,+124
60343,7.402,3.355,4.097,0.294447,-0.319691,2.210429,100136.98,+49,-127,+124
60353,5.701,6.303,1.814,0.198668,-0.298406,1.376613,100138.23,+51,-128,+125
60363,6.103,7.873,2.448,0.316264,-0.223379,1.030742,100135.05,+51,-128,+125
60372,5.187,7.318,1.016,0.270502,-0.498480,0.702962,100135.05,+51,-127,+125
60383,3.302,5.783,0.483,0.350319,-0.673012,0.263972,100135.36,+48,-127,+125
60393,2.340,4.473,1.144,0.383310,-0.747507,-0.210670,100135.36,+46,-125,+125
60403,1.735,3.521,1.688,0.443970,-0.861911,-0.692762,100141.44,+46,-125,+125
60412,1.263,2.936,2.445,0.529108,-0.980571,-1.213165,100139.70,+39,-123,+125
60423,1.123,2.406,2.599,0.561034,-1.133287,-1.758045,100138.81,+33,-121,+126
60433,1.257,1.986,2.300,0.538686,-1.276956,-2.297073,100135.89,+23,-117,+125
60443,1.650,1.740,2.204,0.498778,-1.358901,-2.777036,100135.89,+23,-117,+125
60453,2.188,1.604,2.285,0.495585,-1.414773,-3.183035,100138.84,+13,-111,+124
60463,2.662,1.213,2.324,0.511016,-1.457342,-3.546999,100136.16,+3,-106,+123
60473,3.016,0.654,2.709,0.520062,-1.465323,-3.884888,100137.20,-8,-99,+122
60483,3.634,0.395,2.919,0.501438,-1.470112,-4.230760,100137.20,-8,-99,+122
60493,4.602,0.166,3.255,0.440778,-1.444039,-4.584612,100137.20,-21,-91,+120
60503,5.322,-0.001,3.557,0.346062,-1.412644,-4.922502,100130.99,-32,-81,+118
60513,5.974,-0.004,3.585,0.256668,-1.404131,-5.266777,100135.07,-43,-70,+116
60523,6.988,0.054,3.621,0.208778,-1.356241,-5.574869,100137.10,-43,-70,+116
60533,8.368,0.158,3.762,0.198135,-1.263121,-5.826025,100134.96,-54,-57,+114
60542,9.830,0.340,3.623,0.301365,-1.144993,-6.041529,100134.96,-62,-44,+111
60553,11.327,0.682,3.474,0.589236,-1.001323,-6.229896,100135.95,-71,-26,+109
60563,13.163,0.541,3.459,1.111768,-0.826259,-6.383143,100135.17,-75,-26,+107
60573,15.489,-0.329,3.906,1.746043,-0.617140,-6.517767,100133.97,-75,-7,+107
60583,18.666,-1.397,4.415,2.230795,-0.470810,-6.642281,100133.97,-77,+15,+105
60593,22.361,-2.683,5.202,2.558574,-0.371838,-6.712520,100136.44,-76,+40,+103
60603,24.968,-3.790,6.329,2.823033,-0.271269,-6.712520,100134.66,-72,+67,+99
60613,25.442,-5.889,6.803,2.934244,-0.226040,-6.626318,100134.66,-72,+67,+99
60623,24.590,-11.489,7.139,2.791638,-0.216462,-6.346960,100135.59,-66,+92,+96
60633,23.216,-15.482,6.657,2.372868,-0.431966,-5.979805,100136.33,-58,+114,+91
60643,20.381,-17.167,8.038,1.685382,-0.521893,-5.388098,100136.33,-52,+131,+87
60653,17.127,-15.572,10.501,1.420924,-0.442076,-4.539915,100141.73,-52,+131,+87
60663,15.943,-15.255,11.537,1.015988,-0.286168,-3.670448,100138.49,-44,+144,+84
60674,14.269,-18.920,12.393,0.711621,-0.024902,-2.766926,100138.01,-40,+152,+81
60683,10.771,-21.306,11.220,0.743016,0.116107,-1.968761,100137.18,-35,+158,+81
60693,9.163,-21.998,9.737,0.834007,0.289575,-1.076945,100139.31,-35,+158,+81
60703,9.328,-18.736,8.110,1.037805,0.515189,0.109128,100136.95,-33,+162,+79
60713,11.189,-15.009,6.067,1.532135,0.776455,1.318081,100139.31,-33,+163,+77
60723,12.609,-14.606,2.296,1.910997,0.800932,2.257787,100139.31,-37,+165,+75
60733,13.526,-15.468,-0.648,1.852997,0.822749,3.168227,100140.52,-37,+165,+75
60743,20.854,9.712,-13.054,0.750465,-0.161122,2.955383,100140.52,-41,+162,+73
60753,18.053,29.901,-16.276,-1.079992,-0.582021,1.077568,100142.59,-46,+157,+74
60763,9.701,10.058,0.010,0.900520,0.507208,1.688962,100144.48,-47,+157,+73
60773,13.525,-9.302,-1.461,2.942225,0.800932,2.746264,100144.27,-47,+157,+73
60783,13.638,-12.196,1.868,2.666060,1.124455,3.052227,100141.75,-49,+159,+69
60793,10.973,-6.845,6.961,2.011565,1.158510,2.864924,100141.75,-53,+159,+68
60804,13.700,-4.866,7.115,2.038171,1.367629,2.305677,100140.48,-53,+159,+66
60813,13.884,-5.856,4.142,1.400704,1.300051,2.154557,100140.78,-53,+159,+66
60823,8.835,-3.196,0.708,0.573805,0.938749,2.007695,100139.55,-55,+157,+67
60833,7.001,-1.109,2.997,0.505163,0.988235,1.798044,100139.55,-55,+154,+69
60843,9.188,-4.064,2.320,0.158227,0.806785,1.788998,100139.55,-57,+150,+70
60853,11.256,-5.422,1.537,-0.377075,0.669501,1.719292,100140.39,-57,+150,+70
60863,11.066,-3.804,1.944,-1.103937,0.498694,1.621916,100140.34,-58,+145,+73
60873,10.258,-1.086,1.424,-1.436506,0.379501,1.485164,100139.50,-60,+137,+76
60883,9.452,0.510,0.852,-1.064561,0.431648,1.274980,100141.48,-61,+132,+77
60893,8.975,1.221,0.644,-0.395699,0.503483,1.119604,100141.48,-61,+132,+77
60903,9.533,0.503,1.032,0.148117,0.531153,1.111623,100138.59,-62,+129,+79
60913,10.486,-1.109,1.186,0.424814,0.497630,1.121733,100138.74,-62,+127,+80
60923,10.629,-1.244,1.346,0.522722,0.473153,1.004668,100138.90,-62,+127,+80
60934,9.616,-1.172,1.709,0.525915,0.466767,0.887604,100138.63,-62,+127,+80
60943,9.334,-2.254,2.130,0.360961,0.430052,0.859402,100143.60,-62,+126,+81
60953,10.037,-3.087,2.299,-0.080158,0.347575,0.777990,100139.99,-62,+125,+81
60963,10.073,-2.060,2.080,-0.608011,0.259777,0.659861,100139.99,-62,+121,+83
60974,9.854,-0.418,1.689,-0.901735,0.206566,0.601861,100137.80,-62,+121,+83
60983,9.708,0.612,1.429,-0.826176,0.196988,0.583238,100138.79,-63,+118,+84
60993,9.649,0.948,1.307,-0.528726,0.211355,0.605054,100138.79,-64,+115,+87
61003,9.715,0.062,1.140,-0.139045,0.232462,0.643721,100140.52,-64,+113,+86
61012,9.843,-1.346,1.199,0.052337,0.234235,0.665715,100140.52,-64,+113,+86
61024,10.301,-2.279,1.447,-0.026415,0.219868,0.689659,100138.92,-64,+111,+88
61033,10.473,-2.407,1.801,-0.346745,0.196988,0.727971,100136.31,-65,+109,+88
61043,9.669,-1.897,1.916,-0.727735,0.160804,0.764687,100139.41,-64,+105,+89
61053,8.622,-1.045,1.722,-0.930469,0.154951,0.649751,100137.37,-66,+105,+89
61064,8.950,-0.255,1.512,-0.824579,0.201777,0.438504,100137.37,-66,+101,+91
61073,9.797,-0.046,1.574,-0.569167,0.235832,0.368797,100138.10,-66,+98,+92
61083,10.001,-0.568,1.650,-0.397827,0.237428,0.423605,100138.10,-65,+95,+93
61093,9.882,-0.953,1.489,-0.373350,0.229446,0.503953,100138.10,-65,+94,+94
61104,9.750,-1.083,1.145,-0.413259,0.226786,0.596540,100142.11,-65,+94,+94
61113,9.660,-1.060,1.021,-0.434011,0.232107,0.680614,100142.22,-65,+91,+95
61123,9.317,-1.106,0.993,-0.403681,0.237428,0.747659,100141.91,-66,+87,+96
61133,9.068,-0.922,1.083,-0.342488,0.243281,0.796614,100138.09,-65,+85,+98
61144,9.270,-0.637,1.379,-0.227020,0.244345,0.851953,100138.09,-65,+85,+98
61154,9.650,-0.735,1.935,-0.090800,0.238492,0.916338,100142.89,-65,+83,+98
61163,10.086,-0.838,2.309,-0.004598,0.216676,0.988705,100141.47,-66,+80,+98
61173,10.367,-0.979,2.186,0.008172,0.185813,1.078100,100138.50,-67,+77,+99
61184,10.171,-0.933,1.988,-0.030140,0.160804,1.182393,100138.50,-67,+77,+99
61194,10.008,-0.380,1.739,-0.066323,0.141116,1.304778,100145.41,-67,+74,+99
61203,9.957,0.126,1.391,-0.059938,0.117171,1.442063,100145.41,-68,+70,+100
61213,10.130,0.063,0.790,0.043292,0.102804,1.632558,100145.09,-69,+67,+101
61223,11.127,-0.399,0.905,0.235383,0.093758,1.815604,100141.17,-69,+67,+101
61234,11.779,-1.194,0.851,0.379585,0.096419,1.966191,100139.86,-69,+63,+101
61239,12.031,-1.777,0.762,0.404062,0.133135,2.031108,100139.86,-69,+63,+101
61248,12.601,-2.107,0.277,0.376924,0.149098,2.091769,100141.45,-71,+60,+100
61258,13.391,-2.047,-0.114,0.342869,0.150162,2.197659,100142.55,-72,+56,+99
61268,13.933,-1.463,0.374,0.343934,0.132602,2.339200,100140.20,-73,+51,+101
61278,13.926,-0.821,1.364,0.349787,0.118768,2.501493,100142.19,-73,+51,+101
61288,14.094,-0.348,2.341,0.325310,0.109722,2.682410,100142.19,-74,+46,+101
61298,15.190,-0.591,2.713,0.250814,0.087905,2.864924,100142.91,-74,+39,+101
61308,17.656,-0.741,3.390,0.084264,0.071942,3.016575,100138.47,-75,+33,+101
61319,20.747,0.546,3.883,-0.251497,0.067153,3.104373,100139.09,-76,+33,+101
61328,22.451,2.862,2.767,-0.772965,0.145373,3.157584,100137.67,-76,+25,+102
61338,23.297,5.608,1.174,-1.313588,0.173575,3.242190,100137.67,-76,+14,+102
61348,24.163,8.676,0.393,-1.584964,0.213483,3.326795,100139.99,-75,+1,+103
61359,24.156,11.563,0.148,-1.708946,0.282657,3.348080,100141.09,-74,-12,+103
61368,21.904,11.572,0.094,-1.914872,0.275740,3.369364,100138.99,-74,-12,+103
61378,18.933,7.822,-0.968,-2.026083,0.150694,3.391713,100137.90,-73,-26,+103
61388,15.095,2.187,0.626,-1.509937,0.129410,3.400227,100137.90,-70,-38,+102
61399,12.425,-5.713,2.889,-0.365901,0.055446,3.670538,100139.28,-67,-47,+101
61408,12.420,-9.838,4.084,0.410979,-0.061618,3.880189,100136.88,-67,-47,+101
61418,13.807,-7.433,5.418,0.768557,-0.123342,3.724813,100139.75,-64,-53,+102
61428,14.063,-6.621,6.246,0.534961,-0.108975,3.430025,100139.28,-61,-58,+101
61438,11.693,-6.581,6.544,0.240704,-0.137177,3.150135,100139.28,-58,-64,+101
61449,8.313,-4.183,6.069,0.012429,-0.237214,2.604722,100139.52,-58,-64,+101
61458,5.830,-0.888,3.920,-0.436671,-0.425581,1.883714,100140.10,-57,-69,+100
61468,5.520,-0.414,1.324,-0.457956,-0.566058,1.321274,100139.99,-57,-73,+98
61478,5.141,0.607,2.280,-0.066323,-0.422388,1.038191,100138.32,-58,-75,+97
61489,4.549,2.934,2.444,-0.050360,-0.476663,0.655072,100138.32,-58,-75,+97
61498,2.998,4.099,1.935,-0.104635,-0.609691,0.134669,100141.94,-58,-75,+96
61508,1.427,4.120,2.059,0.077347,-0.657581,-0.349019,100139.47,-60,-74,+94
61518,0.355,3.246,1.989,0.372667,-0.693232,-0.703404,100139.78,-63,-72,+91
61529,-0.010,1.568,1.800,0.568484,-0.720902,-1.113660,100139.11,-63,-72,+91
61538,0.083,0.092,1.867,0.628612,-0.772516,-1.593091,100139.11,-67,-66,+91
61548,0.504,-0.718,1.849,0.532833,-0.857654,-2.073586,100137.69,-71,-61,+89
61558,0.945,-0.931,1.788,0.377456,-0.948112,-2.525880,100139.09,-76,-53,+86
61569,1.202,-0.839,1.960,0.232723,-0.997599,-2.947311,100137.06,-76,-53,+86
61579,1.321,-0.395,2.260,0.126301,-1.019947,-3.336815,100135.75,-80,-45,+83
61588,1.450,0.236,2.533,0.109273,-1.013562,-3.705567,100135.75,-85,-35,+81
61594,1.707,0.850,2.536,0.195475,-0.992810,-3.971090,100136.02,-85,-35,+81
61603,2.177,1.378,2.555,0.356172,-0.953966,-4.220649,100136.02,-89,-23,+77
61614,2.969,1.697,2.745,0.633933,-0.880002,-4.523952,100134.73,-93,-11,+74
61624,3.872,1.646,3.059,0.918080,-0.811892,-4.801713,100131.32,-96,+5,+72
61633,4.877,1.408,3.295,1.143162,-0.761342,-5.054465,100132.79,-96,+5,+72
61643,5.873,1.063,3.423,1.302795,-0.720370,-5.280080,100134.62,-96,+22,+69
61654,6.942,0.670,3.550,1.406557,-0.687911,-5.491859,100134.09,-96,+41,+66
61664,8.223,0.221,3.684,1.478924,-0.644278,-5.689272,100134.51,-94,+60,+62
61673,9.586,-0.104,3.857,1.567786,-0.585746,-5.886685,100134.51,-94,+60,+62
61683,11.074,-0.137,4.113,1.689639,-0.511250,-6.096336,100132.73,-89,+80,+59
61693,12.771,-0.243,4.327,1.846079,-0.471874,-6.318758,100132.73,-84,+101,+55
61704,14.961,-0.745,4.660,2.056795,-0.411214,-6.527877,100134.60,-74,+123,+50
61713,18.102,-1.793,5.530,2.266978,-0.307984,-6.699749,100134.49,-74,+123,+50
61723,22.094,-3.177,6.763,2.324446,-0.222315,-6.845547,100132.24,-64,+144,+45
61733,24.716,-4.681,7.606,2.188758,-0.168040,-6.956758,100133.60,-51,+165,+39
61744,25.052,-8.256,7.253,1.773713,-0.089819,-6.925364,100133.60,-35,+182,+36
61754,23.626,-14.635,7.102,0.793034,-0.202095,-6.662501,100134.63,-35,+182,+36
61763,21.451,-16.754,5.427,-0.414855,-0.359599,-6.286832,100135.29,-19,+195,+35
61773,19.785,-16.142,5.346,-1.014010,-0.256902,-5.579658,100134.16,-6,+202,+37
61784,17.731,-14.015,6.464,-0.921423,-0.189324,-4.780961,100134.16,+4,+206,+38
61794,16.626,-12.968,7.693,-0.730396,-0.088223,-3.938099,100134.16,+4,+206,+38
61803,15.759,-15.541,9.163,-0.570763,0.095887,-3.107476,100136.87,+14,+209,+38
61813,12.317,-17.939,9.679,-0.439864,0.200712,-2.440742,100139.38,+22,+210,+40
61824,8.803,-16.953,8.281,-0.246708,0.337465,-1.710688,100138.12,+26,+212,+40
61834,9.285,-14.961,5.806,0.130558,0.558290,-0.608688,100137.38,+26,+212,+40
61843,11.117,-12.256,2.546,0.632869,0.772730,0.711476,100137.38,+28,+213,+40
61853,13.214,-11.760,0.279,1.418795,0.944602,1.879457,100139.78,+24,+213,+38
61863,15.175,-10.062,-2.379,1.747107,0.858400,2.540337,100143.39,+20,+215,+36
61874,15.135,-3.472,-8.845,1.110704,0.112914,2.679750,100142.77,+20,+215,+36
61884,19.106,22.513,-17.248,0.323181,-0.417599,2.019934,100142.77,+12,+214,+33
61894,15.982,30.231,-11.583,0.269970,-0.236150,0.527898,100146.66,+10,+212,+33
61903,12.630,2.607,-1.432,2.780996,0.302345,1.919365,100143.36,+5,+215,+26
61914,13.902,-11.396,-0.120,4.497582,0.746125,2.786704,100143.36,+5,+215,+26
61924,14.123,-10.804,1.466,3.959087,0.950455,3.047438,100140.86,+0,+220,+15
61933,13.371,-7.864,2.037,2.490464,0.875960,2.620154,100142.27,-7,+222,+10
61943,11.155,-3.460,6.690,2.028593,1.201611,2.166264,100142.27,-10,+220,+6
61949,10.310,-0.773,7.459,1.825859,1.252694,2.061970,100141.80,-10,+220,+6
61959,9.100,0.491,6.498,1.458171,1.039317,1.898613,100142.76,-14,+220,+4
61969,7.718,-0.316,5.400,0.952667,0.797740,1.758136,100142.23,-17,+219,+3
61978,8.926,-1.614,2.854,0.345530,0.561483,1.712374,100138.51,-17,+219,+3
61988,9.837,-2.071,1.555,-0.113149,0.430052,1.748026,100138.51,-21,+217,+4
61999,10.766,-2.354,0.410,-0.484561,0.329483,1.712374,100143.85,-26,+213,+6
62009,11.965,-3.063,-0.125,-0.954946,0.260309,1.678319,100143.90,-30,+207,+10
62018,10.681,-2.975,0.180,-1.409368,0.242749,1.597971,100142.38,-30,+207,+10
62028,8.861,-1.603,-0.198,-1.485992,0.301281,1.395237,100140.51,-33,+201,+14
62039,8.876,0.057,-0.529,-1.034763,0.393336,1.219109,100140.51,-37,+197,+16
62049,9.815,2.459,-0.180,-0.280763,0.542859,1.136632,100141.13,-38,+195,+18
62058,10.088,2.854,1.063,0.432796,0.679079,1.142485,100141.91,-38,+195,+18
62068,9.820,0.183,2.717,0.744612,0.654070,1.208467,100141.02,-39,+194,+18
62078,9.708,-2.085,3.298,0.576466,0.523703,1.120136,100139.87,-41,+192,+17
62089,9.428,-2.619,3.773,0.080539,0.397593,0.996155,100139.87,-42,+190,+18
62099,9.521,-1.996,3.731,-0.639405,0.260309,0.950393,100141.90,-42,+190,+18
62108,9.649,-0.298,3.159,-1.189075,0.121960,0.917402,100140.16,-45,+187,+21
62118,9.824,1.123,1.903,-1.213552,0.072474,0.899311,100139.18,-46,+183,+23
62129,10.048,1.600,0.949,-0.867148,0.104933,0.932834,100139.54,-49,+179,+27
62139,10.254,0.989,0.662,-0.426029,0.141648,1.025421,100139.54,-49,+179,+27
62148,9.978,-0.081,0.974,-0.065791,0.162401,1.050430,100141.03,-50,+176,+27
62158,9.503,-1.712,1.624,0.006044,0.169850,0.986577,100142.59,-53,+174,+27
62169,9.430,-2.470,2.146,-0.221167,0.163997,0.840779,100140.25,-55,+171,+27
62179,9.548,-1.975,2.214,-0.538304,0.149098,0.701898,100138.52,-55,+171,+27
62188,9.697,-1.118,2.244,-0.759130,0.138456,0.646026,100138.52,-56,+169,+30
62198,9.720,-0.170,2.213,-0.826708,0.124621,0.654540,100142.23,-57,+165,+31
62209,9.742,0.359,1.980,-0.700598,0.110254,0.697109,100138.78,-58,+162,+33
62219,9.826,0.026,1.835,-0.459552,0.105997,0.749788,100137.69,-58,+162,+33
62229,9.729,-0.735,1.680,-0.271185,0.100676,0.774797,100139.72,-60,+160,+34
62238,9.553,-1.158,1.846,-0.229149,0.104401,0.796614,100139.72,-61,+157,+35
62248,9.425,-1.334,1.957,-0.273846,0.101740,0.824815,100140.31,-62,+154,+35
62259,9.448,-1.415,1.801,-0.326525,0.100676,0.850889,100139.95,-62,+154,+35
62269,9.644,-1.546,1.703,-0.336103,0.103868,0.868980,100140.63,-64,+152,+37
62278,9.691,-1.638,1.698,-0.336635,0.109722,0.874302,100137.80,-66,+149,+37
62288,9.817,-1.652,1.695,-0.349938,0.125153,0.878026,100137.80,-66,+146,+38
62299,9.879,-1.699,1.530,-0.368029,0.138456,0.882815,100143.60,-67,+143,+39
62304,9.821,-1.575,1.380,-0.377075,0.142713,0.886008,100140.98,-67,+143,+39
62314,9.764,-1.224,1.422,-0.351534,0.140052,0.902503,100140.98,-69,+141,+40
62324,9.691,-0.930,1.592,-0.256286,0.126749,0.940283,100141.51,-69,+141,+40
62333,9.576,-0.807,1.725,-0.140286,0.109190,0.998815,100139.99,-70,+137,+40
62344,9.626,-0.366,1.917,-0.034396,0.086841,1.098320,100139.99,-72,+135,+41
62354,9.748,0.110,2.059,0.075750,0.068749,1.259549,100141.72,-74,+133,+41
62364,10.069,0.156,1.944,0.175255,0.063428,1.424503,100140.67,-74,+133,+41
62373,10.671,0.065,1.568,0.250814,0.065557,1.619787,100140.52,-76,+129,+41
62384,11.282,-0.220,1.233,0.300833,0.056511,1.827310,100140.52,-80,+125,+41
62394,12.049,-0.448,1.094,0.376924,0.074070,2.000246,100140.52,-83,+121,+40
62404,12.735,-1.063,0.765,0.470576,0.105465,2.148172,100145.15,-83,+121,+40
62413,13.263,-1.416,0.648,0.503567,0.134199,2.287585,100142.12,-85,+117,+40
62425,13.635,-1.257,0.863,0.508001,0.152290,2.447927,100141.91,-88,+111,+40
62434,13.851,-1.154,1.182,0.500374,0.168786,2.587163,100141.91,-92,+105,+40
62444,14.277,-1.033,1.571,0.433860,0.187410,2.721254,100141.91,-92,+105,+40
62454,15.042,-0.988,1.897,0.289658,0.196988,2.824484,100141.40,-94,+99,+41
62464,16.728,-0.832,2.442,0.042227,0.182621,2.902704,100139.73,-98,+91,+42
62474,19.307,0.596,3.828,-0.266928,0.137391,2.962300,100139.52,-100,+82,+42
62484,20.946,2.859,4.544,-0.669203,0.194327,3.030942,100139.52,-100,+82,+42
62494,21.693,4.740,4.191,-1.111919,0.288511,3.131511,100138.05,-102,+73,+45
62503,22.696,6.883,2.970,-1.438634,0.357685,3.208135,100138.05,-103,+60,+45
62514,23.434,9.042,1.627,-1.766946,0.408767,3.200685,100134.71,-105,+47,+48
62524,21.804,9.189,-0.085,-2.239459,0.365666,3.170887,100136.76,-105,+47,+48
62534,18.470,6.549,-1.448,-2.655037,0.268823,3.077768,100137.54,-105,+33,+51
62543,14.378,2.944,-0.823,-2.585863,0.174639,2.975603,100137.54,-105,+17,+52
62554,11.180,-2.773,1.115,-1.802597,0.016602,3.101713,100139.13,-105,+3,+52
62564,10.668,-7.112,1.779,-0.718690,-0.194113,3.229419,100136.88,-105,-5,+52
62574,11.690,-5.350,6.879,-0.257350,-0.015324,3.109163,100138.08,-105,-5,+52
62584,13.030,-4.496,7.385,-0.472323,-0.040333,2.918135,100136.21,-105,-14,+53
62594,11.165,-3.794,6.703,-0.452103,-0.039801,2.630796,100136.77,-104,-23,+52
62604,7.808,-1.046,6.172,-0.356855,-0.042994,2.082723,100138.46,-103,-28,+52
62614,5.605,1.891,3.712,-0.235002,-0.120150,1.527732,100139.13,-103,-28,+52
62623,5.087,3.068,1.471,0.087989,-0.177618,1.081292,100139.13,-101,-33,+52
62633,5.356,1.817,0.590,0.565291,-0.243599,0.722118,100136.84,-102,-34,+52
62644,5.675,1.787,0.267,0.928722,-0.364920,0.337935,100136.84,-103,-32,+52
62654,4.900,1.284,0.519,1.059621,-0.519232,-0.105312,100139.25,-103,-32,+52
62659,3.814,1.458,1.356,1.116025,-0.586278,-0.442138,100140.03,-104,-27,+50
62668,2.810,2.157,2.205,1.073456,-0.645874,-0.814083,100137.89,-104,-27,+50
62679,1.378,2.537,2.612,1.071860,-0.736865,-1.320651,100136.38,-105,-22,+49
62689,0.910,2.358,2.827,1.284704,-0.756021,-1.802210,100136.38,-107,-15,+48
62699,1.187,1.667,2.523,1.477327,-0.793269,-2.148082,100139.77,-109,-5,+46
62709,1.770,0.818,2.360,1.555548,-0.856590,-2.433825,100135.96,-109,-5,+46
62718,2.435,-0.091,2.200,1.382612,-1.000259,-2.798320,100136.49,-110,+5,+44
62729,2.945,-0.247,1.885,1.129328,-1.165745,-3.238907,100136.01,-114,+15,+40
62739,3.474,0.315,1.916,0.880300,-1.265782,-3.674705,100136.01,-115,+29,+37
62749,4.127,0.905,2.220,0.694062,-1.308883,-4.067934,100136.80,-115,+29,+37
62758,4.609,0.888,2.733,0.666924,-1.297709,-4.412209,100134.40,-116,+43,+34
62769,5.032,0.422,3.298,0.687144,-1.242901,-4.710190,100133.29,-116,+58,+29
62779,5.641,-0.108,3.596,0.598459,-1.206363,-5.029634,100133.24,-114,+74,+25
62789,6.626,-0.444,3.507,0.480686,-1.166810,-5.298172,100133.24,-114,+74,+25
62798,8.049,-0.406,3.557,0.334888,-1.097103,-5.586575,100132.41,-110,+91,+23
62809,9.800,-0.369,3.735,0.159291,-1.026333,-5.849969,100132.72,-105,+109,+19
62819,11.276,-0.188,3.644,0.074686,-0.935342,-6.052703,100130.83,-98,+126,+15
62829,12.455,0.480,3.565,0.204521,-0.772516,-6.213933,100130.11,-88,+143,+13
62838,13.995,0.719,3.763,0.578062,-0.572443,-6.357602,100130.11,-88,+143,+13
62849,16.033,0.221,4.097,1.134649,-0.359067,-6.450189,100136.49,-76,+162,+10
62859,18.934,-1.188,4.672,1.699749,-0.172296,-6.511382,100132.32,-62,+181,+6
62869,22.231,-2.801,5.449,2.105217,-0.031287,-6.559804,100134.82,-46,+199,+1
62879,24.166,-4.356,5.877,2.263253,0.075667,-6.570978,100134.04,-46,+199,+1
62888,24.117,-7.081,5.456,2.057327,0.178364,-6.483712,100134.04,-28,+216,-3
62899,22.322,-13.149,5.834,1.494355,0.116639,-6.183602,100134.45,-9,+230,-7
62909,20.605,-14.885,4.600,0.880832,-0.163783,-5.772814,100137.38,+7,+238,-10
62919,19.342,-13.999,5.634,0.497713,-0.193581,-5.153438,100133.56,+7,+238,-10
62928,18.035,-12.772,7.097,0.473768,-0.230829,-4.313769,100138.11,+23,+247,-11
62939,17.249,-17.236,9.550,0.580190,-0.068535,-3.399072,100138.11,+33,+252,-13
62949,12.331,-21.990,10.647,0.648300,0.134731,-2.635494,100138.16,+41,+256,-15
62959,7.658,-22.790,10.082,0.370007,0.336933,-1.913421,100138.12,+41,+256,-15
62969,7.953,-20.676,7.812,0.116191,0.516254,-0.807165,100136.65,+47,+257,-14
62979,10.467,-15.473,4.099,0.307218,0.674822,0.466173,100140.15,+47,+258,-15
62989,12.423,-12.644,1.780,1.161786,0.889262,1.661824,100140.15,+42,+258,-18
62999,14.372,-9.992,0.478,1.788080,0.870107,2.544062,100141.59,+42,+258,-18
63009,14.914,-7.899,-4.907,1.763602,0.423666,3.022961,100143.89,+33,+258,-23
63014,18.962,7.997,-11.439,1.291621,-0.156333,3.000612,100141.06,+24,+257,-27
63024,21.279,31.359,-16.694,0.294979,-0.492627,1.645861,100141.06,+24,+257,-27
63034,12.013,20.343,-5.495,1.003750,0.049061,1.082889,100143.27,+21,+257,-27
63044,12.801,-6.941,-1.112,3.418464,0.559354,2.733493,100143.27,+13,+257,-37
63054,13.832,-14.135,1.423,3.919711,1.008455,3.128850,100144.70,+5,+257,-46
63064,12.683,-8.399,0.335,2.730446,0.861593,3.102777,100143.42,+5,+257,-46
63074,11.003,-4.138,5.112,1.831180,0.956840,2.563218,100140.78,-3,+255,-50
63084,10.662,-0.929,6.391,2.188226,1.326125,2.230117,100140.78,-8,+253,-55
63094,9.696,-0.998,5.942,2.012630,1.255354,2.125292,100140.78,-14,+252,-59
63104,7.639,-2.806,3.930,1.341107,0.948859,1.910851,100143.73,-14,+252,-59
63114,9.151,-4.755,2.065,0.617438,0.772198,1.775696,100141.84,-19,+249,-59
63124,11.602,-5.636,1.083,-0.114213,0.641299,1.782081,100142.58,-26,+246,-59
63134,11.984,-5.188,1.134,-0.953882,0.474749,1.726741,100139.35,-31,+242,-54
63143,11.800,-3.062,1.343,-1.687129,0.341189,1.655971,100139.35,-31,+242,-54
63154,10.161,-0.857,0.587,-1.971808,0.244878,1.523476,100144.16,-35,+237,-48
63164,8.872,-0.032,0.119,-1.383295,0.395465,1.342558,100140.15,-39,+233,-43
63174,9.186,1.418,0.316,-0.613332,0.519446,1.236136,100139.73,-42,+230,-41
63184,9.733,0.978,1.261,-0.017901,0.556694,1.211659,100141.20,-42,+230,-41
63194,10.003,-0.606,1.917,0.247622,0.535409,1.191439,100144.19,-46,+227,-40
63204,10.152,-1.094,2.326,0.189090,0.472621,1.077568,100142.45,-48,+226,-40
63214,9.611,-0.848,2.760,0.062980,0.436437,0.981256,100142.45,-50,+223,-38
63224,9.399,-1.848,3.557,-0.185516,0.372052,0.940283,100142.20,-50,+223,-38
63234,9.960,-2.345,2.927,-0.649515,0.245942,0.839182,100139.06,-52,+222,-37
63244,9.921,-1.153,1.604,-0.976763,0.171979,0.744999,100139.06,-55,+218,-35
63254,9.915,-0.183,1.257,-0.947497,0.170382,0.700834,100143.38,-57,+216,-32
63264,10.027,0.154,1.087,-0.753809,0.175171,0.694981,100142.43,-57,+216,-32
63275,9.993,0.369,1.434,-0.528194,0.181557,0.708283,100142.91,-58,+213,-30
63284,9.845,0.017,1.698,-0.316947,0.179960,0.723714,100141.23,-60,+211,-29
63294,9.790,-1.013,1.959,-0.250965,0.172511,0.724779,100141.62,-62,+209,-27
63304,9.686,-1.635,2.180,-0.371222,0.155483,0.692852,100140.37,-62,+209,-27
63314,9.586,-1.569,2.245,-0.587259,0.138988,0.643366,100142.20,-64,+208,-25
63324,9.563,-1.174,2.263,-0.767112,0.127813,0.602926,100140.77,-64,+205,-23
63334,9.511,-0.718,1.880,-0.833625,0.121960,0.579513,100140.77,-66,+201,-22
63344,9.504,-0.413,1.638,-0.772965,0.125153,0.582705,100140.77,-66,+201,-22
63354,9.535,-0.396,1.549,-0.650047,0.126217,0.608779,100140.31,-68,+201,-19
63364,9.626,-0.366,1.671,-0.539369,0.126749,0.652944,100141.98,-69,+197,-17
63370,9.565,-0.366,1.677,-0.466470,0.127813,0.693384,100141.41,-69,+197,-17
63379,9.359,-0.644,1.586,-0.413259,0.132070,0.739146,100137.91,-71,+195,-16
63389,9.273,-0.923,1.342,-0.351534,0.135795,0.785971,100137.91,-73,+193,-15
63399,9.402,-1.012,1.259,-0.277571,0.139520,0.831201,100142.73,-74,+190,-14
63409,9.574,-1.069,1.513,-0.155185,0.149630,0.871109,100142.68,-74,+190,-14
63419,9.522,-1.270,1.577,-0.054617,0.139520,0.898779,100141.74,-76,+188,-13
63429,9.554,-1.560,1.598,0.002851,0.149098,0.923788,100140.38,-79,+187,-13
63439,9.732,-1.979,1.710,0.029457,0.146969,0.934430,100140.38,-81,+184,-13
63449,9.984,-2.260,1.919,-0.026415,0.135263,0.930173,100139.99,-81,+184,-13
63459,10.027,-2.144,2.177,-0.150396,0.130474,0.931237,100140.98,-83,+181,-13
63469,9.871,-1.190,2.239,-0.283424,0.112382,0.963696,100139.46,-84,+178,-11
63479,9.510,0.146,1.923,-0.296727,0.083116,1.066925,100141.09,-87,+175,-10
63489,9.509,0.983,1.710,-0.101442,0.053318,1.243586,100141.09,-87,+175,-10
63499,10.216,0.554,1.158,0.215695,0.033098,1.435145,100142.55,-90,+171,-10
63509,11.336,-0.588,1.265,0.484943,0.033630,1.620319,100142.50,-94,+168,-11
63519,11.890,-1.440,1.151,0.537621,0.042144,1.779420,100139.94,-97,+164,-11
63529,12.071,-1.641,0.577,0.408319,0.067685,1.930007,100139.41,-97,+164,-11
63539,12.519,-1.191,-0.066,0.314668,0.078327,2.090172,100139.41,-101,+159,-11
63549,13.493,-0.773,0.063,0.409915,0.065557,2.272154,100141.84,-105,+153,-11
63559,14.009,-0.502,1.097,0.565291,0.069813,2.453071,100141.37,-110,+147,-13
63569,13.999,-0.624,2.171,0.590832,0.110254,2.632392,100138.45,-110,+147,-13
63579,14.445,-1.071,2.506,0.426411,0.161336,2.769676,100139.76,-115,+139,-13
63589,15.723,-1.294,2.673,0.131622,0.181557,2.855346,100139.76,-119,+131,-13
63599,17.762,-1.080,3.020,-0.245112,0.169850,2.905365,100141.00,-124,+122,-12
63609,20.661,0.309,3.384,-0.700598,0.132070,2.920796,100140.53,-124,+122,-12
63619,22.219,2.021,2.541,-1.183221,0.144841,2.967089,100141.00,-128,+113,-9
63629,23.118,4.456,1.101,-1.632854,0.156015,3.046374,100139.80,-132,+100,-6
63639,24.573,8.885,0.368,-1.994157,0.148034,3.092667,100139.80,-135,+87,-3
63649,23.236,12.480,0.202,-2.239991,0.166125,3.219309,100142.20,-135,+87,-3
63660,19.390,11.779,-0.466,-2.367166,0.102272,3.306575,100142.77,-138,+72,+0
63669,16.671,8.298,-1.651,-2.374083,-0.054168,3.221438,100141.26,-141,+58,+0
63679,12.659,4.870,1.140,-1.778120,-0.098865,3.040520,100139.27,-142,+46,+2
63689,9.158,-1.377,3.124,-0.346213,-0.318095,3.199621,100139.27,-142,+46,+2
63699,9.543,-8.480,5.097,1.412942,-0.147819,3.547089,100141.13,-144,+36,+1
63709,13.280,-10.570,10.704,1.796061,0.116639,3.754080,100142.65,-146,+27,+1
63719,14.448,-10.019,9.075,1.411346,-0.146755,3.274117,100139.15,-146,+19,+1
63725,12.419,-5.073,6.803,0.797823,-0.276590,2.510007,100136.12,-146,+19,+1
63734,9.698,1.140,4.017,-0.039718,-0.469214,1.776228,100136.12,-148,+13,+0
63745,6.583,6.699,1.055,-0.432947,-0.557544,1.078632,100136.12,-148,+9,-1
63755,5.155,6.717,0.982,-0.052488,-0.500608,0.763091,100141.48,-148,+9,-1
63764,4.944,4.839,2.056,0.221548,-0.616608,0.611439,100140.64,-148,+7,-3
63774,4.654,3.297,1.859,0.236447,-0.850736,0.278871,100138.63,-151,+8,-5
63784,3.405,2.078,1.898,0.398209,-0.958223,-0.128725,100138.63,-152,+9,-8
63795,2.366,1.414,2.572,0.636062,-1.004516,-0.572505,100142.51,-152,+9,-8
63804,1.998,0.905,2.986,0.846245,-1.103489,-1.045550,100142.51,-153,+13,-11
63814,1.948,0.527,3.043,1.070796,-1.191819,-1.518596,100140.43,-155,+20,-15
63824,2.241,0.128,2.649,1.186263,-1.279617,-1.976743,100138.49,-156,+29,-20
63835,2.583,-0.158,2.646,1.229896,-1.342406,-2.381146,100137.23,-156,+29,-20
63844,3.076,-0.049,2.834,1.283639,-1.402002,-2.742449,100137.23,-156,+41,-25
63854,3.650,0.442,3.149,1.352282,-1.464259,-3.090448,100139.23,-156,+53,-30
63864,4.134,0.683,3.575,1.433162,-1.500975,-3.412375,100136.30,-154,+68,-36
63875,4.311,0.859,4.176,1.530538,-1.498846,-3.734833,100138.39,-154,+68,-36
63885,4.554,0.923,4.866,1.560869,-1.475433,-4.058888,100131.75,-151,+83,-42
63894,5.014,0.676,5.349,1.515107,-1.456809,-4.361659,100134.63,-149,+101,-49
63904,5.717,0.213,5.555,1.432098,-1.424883,-4.641016,100134.27,-143,+118,-56
63915,6.741,-0.250,5.764,1.335254,-1.340809,-4.886319,100134.78,-143,+118,-56
63924,7.766,-0.577,6.023,1.281511,-1.212039,-5.112998,100134.78,-135,+135,-62
63934,8.732,-0.609,6.019,1.261291,-1.086461,-5.352447,100132.80,-126,+155,-68
63944,9.997,-0.467,5.876,1.295878,-0.949709,-5.594557,100132.80,-114,+173,-75
63954,11.526,-0.542,5.968,1.391658,-0.802314,-5.809529,100138.26,-114,+173,-75
63965,13.127,-1.280,5.991,1.464025,-0.668755,-5.987254,100133.87,-101,+193,-81
63974,14.683,-2.272,6.010,1.451786,-0.525085,-6.144226,100134.49,-84,+209,-86
63984,16.395,-3.172,5.897,1.344832,-0.392590,-6.292685,100133.71,-66,+226,-91
63994,18.585,-3.907,6.168,1.247988,-0.252113,-6.401235,100133.71,-66,+226,-91
64005,20.168,-4.597,6.520,1.206484,-0.072792,-6.444868,100133.90,-46,+242,-94
64015,20.233,-7.208,6.159,0.877640,0.054914,-6.415602,100134.68,-26,+256,-98
64024,20.343,-12.212,5.270,0.245493,-0.061086,-6.239474,100134.27,-3,+266,-99
64034,20.459,-13.064,3.760,-0.281828,-0.193581,-5.933511,100134.27,+16,+266,-99
64045,20.114,-12.187,4.914,-0.310029,-0.211673,-5.318392,100134.27,+16,+275,-98
64055,18.642,-11.628,6.325,0.275291,-0.178682,-4.498943,100137.65,+33,+281,-99
64064,18.068,-13.779,7.861,1.058025,-0.019581,-3.644907,100139.21,+48,+284,-103
64074,14.358,-17.322,8.655,1.657181,0.134731,-2.786082,100138.85,+57,+288,-109
64084,9.437,-19.701,7.800,2.083932,0.340125,-2.040596,100138.70,+57,+288,-109
64094,9.171,-21.253,6.155,2.075419,0.534345,-1.180174,100138.70,+62,+289,-116
64105,9.972,-19.233,3.602,1.659841,0.719519,-0.038799,100140.11,+63,+289,-121
64114,12.005,-15.056,1.799,1.547034,0.888198,1.094063,100140.58,+58,+287,-127
64124,13.371,-13.705,0.044,1.724226,0.750382,2.008759,100139.33,+58,+287,-127
64135,14.290,-13.479,-1.405,1.833309,0.637042,3.033071,100139.33,+48,+285,-132
64145,19.865,9.250,-8.728,1.218190,-0.157930,2.971346,100142.53,+37,+282,-135
64154,18.818,29.117,-11.546,-0.077497,-0.401104,1.194632,100142.53,+33,+281,-136
64164,12.456,10.075,-0.561,1.540116,0.435905,1.520815,100142.17,+33,+281,-136
64175,14.512,-10.454,-0.828,3.207748,0.799336,2.702099,100140.33,+25,+278,-145
64184,14.064,-13.618,2.020,2.993840,1.149996,3.068722,100140.39,+14,+272,-153
64194,11.058,-6.135,2.907,1.753492,0.942473,2.784575,100140.39,+3,+268,-156
64204,10.054,-1.514,6.422,1.352814,1.123923,2.184356,100143.51,+3,+268,-156
64215,10.805,-1.249,6.075,1.500740,1.254822,2.050796,100142.26,-2,+264,-158
64225,9.696,-3.165,3.771,1.141034,1.015905,1.984283,100138.65,-10,+260,-160
64234,8.594,-4.680,2.657,0.603603,0.773263,1.762393,100140.79,-17,+257,-160
64244,10.255,-4.779,1.550,-0.142415,0.640767,1.641604,100143.63,-17,+257,-160
64254,10.905,-4.013,0.968,-0.811277,0.535942,1.552742,100142.12,-23,+254,-157
64265,11.107,-3.378,0.900,-1.407772,0.408235,1.440998,100140.96,-28,+252,-152
64274,11.046,-1.664,0.565,-1.722249,0.320969,1.407476,100140.96,-33,+250,-147
64284,9.777,-0.004,0.324,-1.390212,0.418345,1.232412,100142.70,-33,+250,-147
64294,9.296,0.685,0.249,-0.781479,0.514657,1.071182,100142.70,-37,+249,-144
64305,9.466,1.537,1.082,-0.200415,0.565740,1.065329,100143.15,-41,+247,-142
64315,9.932,1.069,1.937,0.166741,0.561483,1.093531,100142.21,-44,+244,-141
64324,10.228,-0.291,2.178,0.284869,0.494437,1.083953,100141.74,-44,+244,-141
64334,9.481,-0.790,2.363,0.306154,0.458254,0.998283,100139.12,-48,+242,-142
64345,9.337,-1.457,3.094,0.119915,0.411428,0.967953,100139.12,-51,+239,-140
64355,10.060,-2.139,3.423,-0.313754,0.312988,0.906228,100145.74,-53,+238,-139
64364,9.730,-1.468,2.339,-0.754873,0.196988,0.772136,100140.51,-53,+238,-139
64374,9.714,-0.345,1.343,-0.908121,0.160272,0.703494,100138.37,-56,+236,-135
64385,10.104,0.206,0.974,-0.778818,0.176768,0.722118,100138.37,-58,+236,-133
64395,10.203,0.270,0.951,-0.585130,0.203905,0.773201,100138.37,-60,+234,-132
64404,10.013,-0.364,1.248,-0.412726,0.203373,0.826412,100142.37,-60,+234,-132
64414,9.645,-1.288,1.741,-0.367497,0.189006,0.784907,100141.90,-63,+232,-129
64424,9.243,-1.823,2.004,-0.469662,0.186878,0.630595,100140.59,-65,+230,-129
64435,9.275,-1.593,2.064,-0.629650,0.206920,0.433360,100139.81,-66,+230,-127
64444,9.678,-1.134,2.152,-0.747424,0.219336,0.350173,100139.81,-66,+230,-127
64454,9.963,-0.697,2.103,-0.797442,0.213483,0.340595,100140.81,-67,+229,-123
64464,9.966,-0.466,1.962,-0.765515,0.210823,0.359219,100139.30,-69,+228,-121
64475,9.786,-0.524,1.886,-0.695277,0.209226,0.387421,100141.75,-70,+227,-119
64485,9.686,-0.533,1.952,-0.651112,0.207098,0.423072,100140.75,-70,+227,-119
64495,9.513,-0.453,1.951,-0.638873,0.203905,0.473623,100143.47,-71,+226,-116
64504,9.380,-0.310,1.896,-0.621846,0.203373,0.540669,100140.06,-73,+225,-114
64515,9.392,-0.238,1.664,-0.573424,0.201777,0.611439,100140.06,-74,+224,-113
64525,9.544,-0.396,1.385,-0.486158,0.207630,0.694448,100137.66,-74,+224,-113
64534,9.625,-0.666,1.331,-0.397827,0.209758,0.776925,100140.22,-76,+221,-110
64544,9.475,-0.728,1.334,-0.325993,0.211355,0.844503,100140.22,-80,+220,-109
64555,9.374,-0.708,1.621,-0.253094,0.210823,0.903568,100141.61,-82,+217,-109
64565,9.544,-0.534,2.019,-0.207332,0.206566,0.948265,100142.13,-84,+215,-106
64575,9.793,-0.444,2.460,-0.142947,0.202841,1.005201,100142.50,-84,+215,-106
64584,10.070,-0.535,2.777,-0.120598,0.186346,1.077035,100139.25,-87,+212,-106
64594,10.360,-0.393,2.570,-0.138158,0.183153,1.169623,100140.45,-91,+209,-106
64605,10.400,-0.345,1.987,-0.125919,0.185813,1.264870,100142.75,-94,+205,-105
64615,10.270,-0.049,1.391,-0.077497,0.175171,1.404815,100142.28,-94,+205,-105
64624,10.196,-0.016,1.065,0.022007,0.162933,1.575090,100140.66,-98,+202,-103
64634,10.614,-0.309,0.870,0.156099,0.148034,1.714503,100140.66,-102,+196,-104
64645,11.378,-0.443,0.753,0.288594,0.136859,1.865090,100140.66,-107,+191,-103
64655,12.207,-0.664,0.779,0.392888,0.132070,2.026319,100141.78,-107,+191,-103
64664,12.782,-0.896,0.772,0.463126,0.149630,2.196594,100142.52,-112,+185,-104
64674,13.304,-0.977,0.778,0.496117,0.173043,2.377512,100140.38,-118,+178,-105
64685,13.471,-0.748,1.247,0.491860,0.194327,2.568007,100140.69,-124,+170,-105
64695,13.878,-0.533,1.919,0.451420,0.204969,2.763823,100140.69,-124,+170,-105
64705,14.776,-0.437,2.499,0.349255,0.201245,2.935163,100144.02,-130,+161,-104
64714,16.165,-0.752,3.043,0.091714,0.206566,3.047970,100141.37,-135,+151,-104
64724,19.075,-0.463,3.276,-0.362176,0.198052,3.096924,100139.37,-142,+142,-101
64735,22.234,2.030,3.052,-0.824579,0.171446,3.110227,100139.37,-142,+142,-101
64745,23.098,3.041,1.158,-1.197056,0.160272,3.227291,100143.20,-148,+129,-98
64754,24.262,5.210,-0.046,-1.616891,0.181557,3.285291,100143.20,-152,+120,-96
64764,24.773,9.990,-0.313,-2.012781,0.201245,3.273052,100140.48,-157,+107,-93
64775,20.817,13.879,-0.184,-2.151129,0.178896,3.329988,100139.34,-157,+107,-93
64785,16.949,11.553,-1.179,-1.932964,0.043740,3.403419,100139.74,-161,+95,-89
64790,14.888,7.709,-1.120,-1.501955,-0.006278,3.311364,100139.74,-165,+82,-88
64799,12.357,3.572,0.687,-0.764451,0.021391,3.178869,100141.40,-165,+82,-88
64809,9.665,-4.093,2.038,0.510484,-0.054168,3.244318,100138.16,-167,+71,-87
64820,9.410,-8.758,4.885,1.218722,-0.105783,3.289016,100138.95,-170,+61,-88
64830,11.758,-9.442,7.320,1.080906,-0.185599,3.188979,100137.32,-173,+49,-88
64839,13.738,-8.436,9.071,0.921805,-0.133985,3.142153,100137.32,-173,+49,-88
64849,12.727,-5.634,7.119,0.566355,-0.239342,2.781383,100142.63,-174,+39,-89
64860,8.661,-2.384,4.934,0.369475,-0.286168,2.318447,100140.27,-175,+29,-91
64870,6.080,0.858,2.670,0.202392,-0.328205,1.825714,100139.54,-176,+24,-91
64879,4.950,3.166,1.206,-0.008855,-0.484645,1.233476,100140.70,-176,+24,-91
64889,4.798,1.239,0.477,0.099163,-0.588406,0.782779,100140.70,-176,+21,-93
64900,4.266,0.083,1.395,0.058191,-0.669819,0.424669,100139.47,-176,+19,-96
64910,3.537,1.731,2.353,-0.162103,-0.828920,-0.183533,100138.84,-176,+21,-98
64919,2.088,2.565,2.453,-0.192965,-0.972589,-0.697019,100139.84,-176,+21,-98
64929,1.089,3.006,2.347,-0.089736,-1.028993,-1.214229,100138.48,-176,+25,-101
64940,1.208,2.946,2.004,0.021475,-1.068901,-1.669183,100138.48,-176,+31,-105
64950,1.626,2.551,1.666,0.176319,-1.121048,-2.041660,100140.05,-175,+39,-110
64960,2.044,1.963,1.738,0.296576,-1.205122,-2.400834,100142.57,-175,+39,-110
64969,2.275,1.111,2.056,0.332227,-1.313672,-2.783953,100138.70,-173,+49,-115
64979,2.362,1.023,2.396,0.373200,-1.371672,-3.169201,100135.98,-171,+62,-120
