80016,9.595,-0.449,1.895,-0.000874,0.000107,0.008559,100139.58,-78,+39,-296
80025,9.610,-0.473,1.896,-0.003534,0.000639,0.005898,100141.58,-78,+39,-295
80035,9.614,-0.414,1.893,-0.004598,0.001171,0.006431,100138.91,-78,+39,-295
80046,9.625,-0.447,1.908,-0.001406,0.000107,0.004302,100138.91,-78,+39,-296
80056,9.558,-0.469,1.926,-0.007791,0.000107,0.005898,100141.30,-77,+39,-296
80065,9.566,-0.441,1.921,-0.022690,-0.000957,0.005898,100142.97,-77,+39,-296
80075,9.572,-0.386,1.858,-0.030140,-0.001489,0.008559,100142.23,-77,+39,-296
80086,9.564,-0.374,1.914,-0.024818,-0.000957,0.013348,100140.56,-77,+39,-296
80096,9.593,-0.363,1.916,-0.018433,0.000107,0.016541,100140.56,-77,+40,-296
80106,9.629,-0.415,1.870,-0.009919,0.002768,0.020798,100140.65,-77,+39,-296
80115,9.586,-0.461,1.928,-0.007791,0.002768,0.023990,100140.49,-77,+39,-296
80125,9.593,-0.396,1.911,-0.015241,0.003300,0.025054,100140.24,-78,+39,-296
80136,9.641,-0.459,1.896,-0.012048,0.005428,0.027183,100141.29,-77,+39,-296
80145,9.613,-0.540,1.849,-0.006195,0.004364,0.023990,100141.29,-78,+39,-296
80155,9.616,-0.532,1.916,-0.006195,0.006492,0.023458,100140.77,-78,+39,-296
80165,9.596,-0.538,1.897,-0.007791,0.004896,0.019733,100142.24,-77,+39,-294
80172,9.560,-0.469,1.897,-0.007791,0.005428,0.014412,100139.30,-77,+39,-296
80181,9.575,-0.494,1.887,-0.001938,0.005428,0.012284,100139.30,-77,+39,-296
80191,9.606,-0.489,1.913,0.002851,0.005428,0.011220,100138.88,-78,+38,-296
80200,9.587,-0.489,1.938,0.003383,0.005428,0.010687,100138.88,-78,+39,-295
80210,9.574,-0.480,1.928,0.002851,0.004364,0.010155,100142.84,-78,+38,-296
80221,9.577,-0.475,1.939,0.000723,0.004896,0.008559,100139.35,-78,+38,-296
80231,9.605,-0.467,1.895,0.002851,0.005428,0.008027,100139.90,-77,+39,-296
80240,9.583,-0.484,1.889,0.004980,0.005428,0.007495,100139.90,-78,+39,-296
80250,9.611,-0.493,1.945,0.007640,0.005960,0.006431,100139.90,-78,+39,-296
80261,9.630,-0.498,1.929,0.006576,0.004896,0.004834,100143.55,-78,+39,-296
80271,9.600,-0.467,1.926,0.001787,0.003832,0.003770,100139.78,-78,+39,-296
80280,9.572,-0.463,1.899,0.000191,0.004364,0.005366,100141.45,-78,+38,-296
80290,9.554,-0.502,1.884,0.002319,0.004896,0.005366,100139.83,-78,+39,-296
80301,9.584,-0.509,1.862,0.000191,0.005960,0.006963,100139.83,-78,+39,-296
80311,9.594,-0.466,1.867,-0.002470,0.006492,0.008027,100141.58,-78,+39,-296
80321,9.616,-0.432,1.887,-0.004598,0.007557,0.007495,100140.33,-78,+39,-296
80330,9.592,-0.410,1.892,-0.001938,0.009153,0.009623,100141.27,-78,+39,-296
80340,9.610,-0.448,1.929,0.003915,0.011281,0.012816,100141.27,-78,+39,-296
80351,9.637,-0.445,1.937,0.006044,0.010749,0.016009,100139.95,-78,+39,-296
80361,9.660,-0.429,1.968,0.012961,0.008089,0.018137,100139.48,-78,+39,-296
80370,9.681,-0.430,1.992,0.017750,0.003300,0.019201,100139.48,-78,+39,-296
80380,9.704,-0.443,1.915,0.016154,0.002768,0.019201,100139.33,-78,+39,-296
80391,9.647,-0.441,1.880,0.005512,0.003300,0.022394,100140.27,-78,+39,-295
80401,9.665,-0.332,1.786,0.003383,0.002236,0.026119,100140.27,-78,+39,-296
80410,9.659,-0.333,1.881,0.025200,0.003300,0.037293,100141.70,-78,+39,-295
80420,9.564,-0.309,1.881,0.038503,0.000639,0.046339,100140.55,-78,+39,-296
80431,9.650,-0.339,1.887,0.052337,-0.001489,0.058577,100137.52,-78,+37,-296
80441,9.818,-0.262,1.959,0.069365,-0.004150,0.067091,100141.39,-78,+38,-296
80451,9.802,-0.316,1.915,0.084264,-0.008939,0.076137,100143.74,-78,+37,-296
80460,9.677,-0.363,1.931,0.087457,-0.011067,0.084651,100139.87,-78,+37,-296
80471,9.532,-0.323,1.855,0.086392,-0.009471,0.093697,100141.02,-78,+37,-296
80481,9.402,-0.436,1.823,0.097567,-0.004682,0.103275,100141.02,-78,+37,-296
80491,9.444,-0.539,1.689,0.093842,0.003300,0.104871,100141.02,-78,+35,-296
80500,9.449,-0.394,1.729,0.050741,0.011281,0.104871,100141.02,-78,+35,-296
80510,9.449,-0.419,1.919,0.046484,0.021391,0.103807,100145.21,-78,+35,-296
80521,9.345,-0.699,2.008,0.078943,0.022988,0.098486,100143.07,-79,+35,-296
80526,9.271,-0.809,2.117,0.084796,0.021391,0.097421,100140.29,-79,+35,-296
80536,9.218,-0.819,2.206,0.081071,0.012878,0.089972,100142.23,-79,+35,-296
80545,9.151,-1.184,2.277,0.039035,0.008621,0.071348,100142.23,-79,+34,-296
80556,9.004,-1.559,2.153,-0.032268,0.011281,0.044210,100144.88,-79,+35,-296
80566,8.961,-1.580,1.908,-0.107828,0.009153,0.013348,100142.78,-79,+35,-296
80576,8.977,-1.444,1.800,-0.136029,0.003832,-0.024964,100141.11,-78,+35,-295
80585,9.215,-1.326,1.739,-0.122195,0.006492,-0.071257,100137.81,-79,+35,-295
80595,9.343,-1.143,1.519,-0.095589,0.015538,-0.117019,100137.81,-78,+36,-296
80606,9.475,-0.995,1.138,-0.065259,0.030969,-0.161184,100143.13,-78,+36,-296
80616,9.756,-0.548,1.117,-0.007791,0.055979,-0.198432,100142.55,-79,+37,-294
80625,9.812,-0.313,1.452,0.082136,0.090566,-0.216523,100138.84,-78,+37,-295
80635,9.833,-0.705,1.622,0.148117,0.125685,-0.234083,100138.68,-80,+37,-296
80646,9.857,-1.010,1.789,0.144392,0.149630,-0.259092,100138.68,-80,+37,-296
80656,9.825,-1.109,2.035,0.091181,0.160272,-0.292083,100140.63,-79,+37,-293
80666,10.003,-1.110,2.263,0.020943,0.157612,-0.334652,100138.63,-80,+38,-294
80675,9.965,-1.056,2.473,-0.025883,0.142180,-0.385202,100140.98,-80,+39,-294
80686,10.023,-0.906,2.622,-0.056213,0.117703,-0.441074,100138.58,-79,+41,-294
80696,10.021,-0.692,2.646,-0.074837,0.090034,-0.492156,100138.58,-79,+41,-294
80706,9.875,-0.569,2.633,-0.091864,0.061832,-0.529404,100138.95,-80,+42,-294
80715,9.705,-0.193,2.564,-0.124855,0.033630,-0.549624,100143.19,-80,+43,-293
80726,9.604,0.100,2.327,-0.148268,0.013942,-0.542707,100138.89,-80,+45,-293
80736,9.514,0.324,1.987,-0.161571,0.011281,-0.515569,100141.05,-80,+45,-293
80746,9.498,0.710,1.829,-0.181259,0.018199,-0.462358,100141.05,-79,+47,-294
80756,9.446,1.222,1.853,-0.160506,0.025116,-0.384138,100141.48,-79,+48,-293
80761,9.386,1.499,1.974,-0.123791,0.032034,-0.309111,100141.84,-79,+48,-293
80771,9.390,1.486,2.084,-0.075901,0.034694,-0.223441,100141.84,-79,+49,-293
80781,9.383,1.312,2.253,-0.035461,0.032034,-0.113826,100142.95,-79,+49,-293
80791,9.410,1.098,2.338,-0.039718,0.032566,-0.018047,100138.88,-79,+49,-293
80801,9.448,0.780,2.316,-0.054085,0.029905,0.063366,100138.88,-79,+49,-293
80811,9.436,0.655,2.347,-0.028543,0.028841,0.117109,100141.60,-78,+49,-293
80821,9.489,0.244,2.263,0.021475,0.023520,0.148504,100142.54,-79,+49,-293
80831,9.558,-0.243,2.260,0.057126,0.011813,0.153825,100139.98,-79,+49,-293
80841,9.578,-0.539,2.279,0.047548,-0.002553,0.131476,100139.98,-80,+49,-292
80850,9.610,-0.647,2.375,-0.002470,-0.015324,0.096357,100139.98,-80,+49,-292
80861,9.626,-0.541,2.415,-0.029075,-0.025966,0.064963,100139.57,-80,+48,-292
80871,9.620,-0.423,2.232,0.000723,-0.035012,0.037825,100138.79,-80,+48,-292
80881,9.587,-0.255,1.943,0.018815,-0.039801,0.021330,100139.68,-80,+48,-291
80890,9.564,-0.174,1.847,0.025732,-0.041930,0.012816,100138.95,-80,+49,-294
80901,9.618,-0.184,1.817,0.034246,-0.041930,0.003770,100138.95,-78,+48,-293
80911,9.602,-0.122,1.984,0.050209,-0.046719,-0.002083,100142.35,-80,+47,-294
80921,9.618,-0.092,2.326,0.063512,-0.061086,-0.007404,100140.46,-80,+47,-294
80931,9.655,-0.226,2.697,0.004448,-0.089819,-0.009001,100140.46,-79,+47,-294
80941,9.505,0.008,2.746,-0.052488,-0.124407,0.003238,100140.46,-78,+47,-293
80951,9.341,0.631,2.408,-0.049296,-0.139306,0.044742,100142.45,-78,+47,-294
80961,9.363,0.893,2.150,-0.070048,-0.145691,0.096357,100142.45,-78,+47,-294
80971,9.407,1.069,1.814,-0.080690,-0.148884,0.154889,100139.88,-78,+47,-294
80980,9.543,1.082,1.835,-0.084947,-0.146755,0.227788,100140.04,-77,+47,-294
80991,9.596,1.065,1.848,-0.061534,-0.146755,0.302284,100139.88,-77,+46,-295
81001,9.647,1.022,1.998,-0.019497,-0.135049,0.394871,100139.88,-77,+46,-295
81011,9.741,0.789,2.206,-0.045039,-0.137177,0.497568,100140.12,-78,+45,-295
81021,9.685,0.920,2.056,-0.133901,-0.146755,0.596540,100141.41,-78,+45,-296
81031,9.483,1.491,2.150,-0.208928,-0.141966,0.732228,100139.90,-77,+43,-295
81041,9.599,1.568,1.939,-0.244580,-0.135581,0.888668,100140.46,-77,+43,-295
81051,9.891,1.538,1.685,-0.241387,-0.116425,1.057879,100141.40,-77,+41,-295
81061,10.066,1.701,1.325,-0.208396,-0.090884,1.237200,100141.24,-78,+39,-295
81071,10.179,2.161,1.650,-0.144011,-0.042994,1.430888,100139.88,-78,+36,-296
81081,10.331,2.428,2.022,-0.061002,-0.008939,1.635219,100139.88,-78,+36,-296
81091,10.676,2.028,2.269,0.014026,0.025116,1.832631,100142.07,-79,+33,-295
81100,11.260,1.464,2.517,0.045952,0.061832,1.994925,100142.07,-80,+27,-294
81111,12.326,-0.001,2.497,0.003383,0.116639,2.101879,100142.46,-80,+22,-295
81117,13.616,-1.829,2.127,-0.091864,0.161868,2.144979,100140.88,-80,+22,-295
81126,16.492,-2.411,1.385,-0.333974,0.149098,2.157218,100140.41,-82,+17,-293
81136,21.543,-0.169,0.796,-0.720286,0.034162,2.180099,100138.79,-82,+17,-294
81145,25.173,2.912,1.361,-0.981552,-0.021709,2.306209,100138.79,-82,+15,-294
81156,25.233,4.422,1.039,-1.029974,0.007557,2.486594,100139.09,-82,+12,-293
81166,23.120,4.515,0.233,-1.083717,0.007025,2.581842,100142.13,-82,+7,-293
81176,21.632,3.996,-0.510,-1.192267,-0.062150,2.547255,100138.31,-82,+5,-293
81186,18.958,3.621,-0.579,-1.091166,-0.105783,2.348246,100140.30,-82,+5,-293
81196,14.348,1.735,0.562,-0.475515,-0.094076,2.123695,100140.30,-82,+2,-293
81206,10.764,-3.121,2.397,0.517401,-0.103122,1.950227,100144.64,-81,-2,-293
81216,8.339,-8.241,5.001,1.075585,-0.163251,1.906595,100140.45,-81,-11,-292
81226,6.582,-11.622,6.289,1.241071,-0.152608,1.779420,100138.00,-81,-11,-292
81235,4.761,-12.657,6.367,0.870722,-0.122278,1.512833,100139.83,-80,-17,-291
81246,3.203,-11.377,4.029,0.370539,-0.171764,1.306375,100139.83,-79,-21,-291
81256,1.984,-9.740,3.140,0.184301,-0.186131,1.161109,100139.83,-78,-25,-292
81266,0.971,-9.260,4.176,0.437585,-0.112168,1.110026,100139.36,-78,-25,-292
81276,0.861,-8.752,3.419,0.630209,-0.089819,1.037127,100138.27,-78,-29,-289
81286,0.333,-8.501,2.948,0.672245,-0.067471,0.970081,100138.47,-78,-33,-290
81296,-0.130,-7.859,2.409,0.561034,-0.078113,0.937623,100138.47,-76,-37,-289
81306,-0.640,-7.313,1.963,0.439713,-0.092480,0.924852,100143.42,-76,-37,-289
81316,-0.905,-6.351,1.375,0.280080,-0.114297,0.955714,100140.06,-76,-39,-288
81326,-0.737,-5.211,0.506,0.153970,-0.150480,1.009990,100138.92,-75,-43,-289
81336,-0.743,-4.520,0.282,0.192282,-0.175489,1.020100,100138.66,-73,-45,-289
81346,-1.016,-4.577,0.316,0.353512,-0.183471,1.028613,100138.66,-73,-45,-289
81356,-1.528,-4.829,0.598,0.525915,-0.163783,1.006797,100141.40,-73,-49,-289
81366,-1.972,-4.869,0.974,0.641915,-0.134517,0.933898,100140.82,-72,-53,-288
81376,-1.989,-4.434,1.193,0.695658,-0.105251,0.823219,100140.57,-71,-57,-288
81386,-1.715,-3.699,1.348,0.744612,-0.086095,0.706687,100137.74,-71,-57,-288
81396,-1.400,-3.099,1.297,0.822832,-0.085030,0.583238,100137.74,-70,-61,-287
81406,-1.188,-3.214,1.322,0.946282,-0.078645,0.448082,100142.07,-69,-64,-287
81416,-0.966,-3.666,1.630,0.993640,-0.050975,0.288981,100139.98,-70,-68,-286
81426,-0.458,-3.342,1.808,0.931915,-0.035012,0.068687,100138.46,-70,-68,-286
81436,0.419,-2.442,1.600,0.793034,-0.037673,-0.198964,100137.73,-69,-70,-286
81446,1.622,-1.486,1.259,0.631805,-0.055232,-0.473532,100137.73,-70,-71,-285
81456,2.782,-1.069,1.094,0.533365,-0.072792,-0.720431,100141.79,-70,-71,-286
81466,3.962,-1.623,1.003,0.499310,-0.094076,-0.932743,100139.01,-70,-71,-286
81476,4.990,-2.513,1.381,0.393952,-0.116957,-1.150908,100142.20,-71,-70,-285
81486,6.036,-2.430,1.646,0.210374,-0.179214,-1.444633,100137.80,-73,-67,-286
81496,7.305,-1.585,1.579,0.024668,-0.260095,-1.781990,100137.80,-73,-63,-286
81506,8.477,-0.490,1.374,-0.083883,-0.333526,-2.118816,100140.31,-73,-63,-286
81516,9.691,0.273,1.102,-0.088140,-0.389397,-2.417330,100139.22,-74,-57,-287
81526,11.034,0.220,1.181,0.024136,-0.402700,-2.640815,100141.47,-75,-52,-288
81537,12.339,-0.692,1.607,0.211970,-0.417067,-2.796724,100139.02,-76,-46,-290
81546,13.677,-1.765,2.241,0.437053,-0.427709,-2.922834,100139.02,-76,-46,-290
81556,15.812,-2.175,2.870,0.635530,-0.462828,-3.047347,100140.95,-77,-41,-291
81566,18.049,-2.135,2.885,0.737163,-0.530406,-3.107476,100141.73,-77,-35,-292
81576,18.864,-2.120,2.760,0.770153,-0.544241,-3.024999,100139.95,-77,-30,-294
81586,18.176,-2.610,3.032,0.825493,-0.478792,-2.832375,100138.37,-77,-30,-294
81596,16.649,-3.551,3.383,0.845713,-0.360663,-2.605696,100138.37,-78,-25,-294
81606,15.043,-4.269,3.067,0.624888,-0.211140,-2.409348,100140.56,-78,-21,-295
81616,13.610,-4.409,6.397,0.235915,0.058639,-2.230027,100141.13,-79,-17,-296
81626,13.500,-7.173,5.615,0.041163,0.281061,-1.894798,100137.00,-80,-13,-294
81636,17.980,-13.195,-0.015,-0.237662,0.106529,-1.230725,100140.92,-80,-13,-294
81646,21.290,-8.741,-8.054,-0.926212,-0.467085,-0.821532,100140.92,-80,-8,-296
81656,16.420,5.194,-2.383,-1.158744,-0.249985,-0.683716,100145.09,-78,-4,-297
81667,10.710,8.999,3.044,-0.332910,0.090034,-0.883257,100138.76,-78,-2,-296
81676,8.691,1.129,1.065,0.407787,0.217740,-0.530468,100141.32,-78,-2,-296
81686,9.492,-3.895,0.668,0.449823,0.171979,-0.159588,100140.79,-80,-2,-296
81696,9.338,-1.291,2.322,0.346062,0.146969,-0.128193,100140.79,-80,-3,-296
81707,8.870,-0.568,3.788,0.284869,0.152290,-0.130322,100143.76,-81,-3,-295
81716,9.028,-1.477,4.369,-0.046635,0.115043,-0.080303,100142.35,-81,-3,-295
81726,9.414,-0.577,2.958,-0.491479,0.074070,-0.025496,100138.63,-81,-2,-294
81736,9.691,0.907,1.567,-0.498928,0.078859,0.064431,100141.15,-81,-1,-294
81746,10.115,0.843,1.879,-0.123791,0.105997,0.138926,100141.15,-82,-1,-295
81756,9.945,-0.286,2.328,0.198135,0.120364,0.189476,100140.75,-82,-1,-295
81766,9.556,-0.211,2.601,0.273695,0.110254,0.267696,100142.69,-82,-3,-294
81776,9.434,-0.533,2.895,0.335420,0.110786,0.316118,100137.08,-82,-4,-294
81786,9.697,-1.886,2.851,0.281677,0.079391,0.316651,100139.17,-82,-6,-294
81796,9.856,-2.047,2.503,0.043292,0.046401,0.309201,100139.17,-82,-6,-294
81806,9.787,-1.482,2.168,-0.119002,0.026180,0.306008,100143.27,-82,-6,-293
81816,9.729,-0.961,2.095,-0.057277,0.024584,0.294302,100143.37,-82,-7,-293
81826,9.367,-0.681,1.871,0.086392,0.030437,0.289513,100139.13,-82,-8,-293
81837,9.495,-1.227,2.035,0.193347,0.045869,0.296430,100140.29,-82,-8,-293
81846,9.710,-1.572,2.251,0.182172,0.040015,0.300155,100140.29,-82,-9,-293
81856,9.748,-1.523,2.401,0.080007,0.020327,0.300155,100140.34,-82,-10,-293
81866,9.628,-1.553,2.444,-0.036525,-0.000957,0.302816,100141.55,-83,-11,-293
81876,9.588,-1.662,2.353,-0.119534,-0.018517,0.301219,100141.39,-83,-11,-293
81886,9.628,-1.405,2.251,-0.199883,-0.028095,0.295898,100138.61,-82,-11,-293
81896,9.505,-1.247,2.205,-0.256818,-0.031287,0.303348,100138.61,-82,-11,-293
81906,9.478,-1.233,2.186,-0.243516,-0.040333,0.321972,100142.90,-82,-11,-294
81916,9.356,-1.020,2.230,-0.200415,-0.043526,0.348577,100142.05,-82,-11,-294
81927,9.198,-0.569,2.287,-0.141883,-0.049911,0.382632,100139.65,-81,-11,-293
81936,9.332,-0.651,2.163,-0.071112,-0.041930,0.428926,100139.07,-82,-12,-294
81946,9.430,-1.180,2.122,0.006753,-0.037141,0.462803,100139.07,-81,-13,-293
81956,9.493,-1.741,2.121,0.042227,-0.034480,0.471494,100144.28,-81,-13,-293
81967,9.611,-2.340,2.109,0.023603,-0.037141,0.458724,100141.09,-81,-14,-293
81976,9.505,-2.373,2.017,-0.077497,-0.043526,0.437972,100140.67,-81,-15,-294
81986,9.379,-1.889,1.921,-0.157846,-0.043526,0.427329,100141.61,-80,-16,-294
81996,9.272,-1.465,1.844,-0.162103,-0.035012,0.436375,100141.61,-80,-16,-294
82007,9.270,-1.210,1.588,-0.110488,-0.012131,0.458724,100141.40,-81,-16,-294
82016,9.384,-1.125,1.617,-0.039718,0.019263,0.495439,100141.04,-80,-18,-294
82026,9.404,-1.209,1.755,0.031585,0.044272,0.539072,100140.82,-80,-19,-294
82036,9.592,-1.753,1.937,0.086925,0.063428,0.578981,100138.41,-80,-19,-294
82046,9.649,-2.332,2.133,0.059787,0.068217,0.605586,100138.41,-80,-20,-293
82057,9.462,-2.378,2.244,-0.040782,0.066621,0.618357,100143.94,-80,-22,-293
82066,9.381,-2.257,2.198,-0.170084,0.065557,0.633256,100143.67,-80,-24,-293
82076,9.485,-1.804,2.156,-0.267461,0.064492,0.664118,100139.17,-80,-24,-293
82086,9.423,-1.166,1.999,-0.291938,0.067153,0.723182,100137.50,-80,-24,-293
82097,9.301,-0.709,1.824,-0.233938,0.084713,0.816834,100137.50,-80,-25,-293
82106,9.192,-0.822,1.968,-0.137094,0.110786,0.923256,100142.65,-81,-28,-293
82116,9.533,-1.244,2.188,-0.042378,0.128346,1.015311,100141.76,-80,-29,-293
82126,9.723,-2.144,2.618,0.005512,0.110254,1.089274,100141.29,-80,-29,-293
82137,10.153,-2.248,3.006,0.008704,0.076199,1.139292,100139.45,-80,-33,-292
82146,11.096,-3.430,2.583,-0.096653,0.027245,1.176540,100139.45,-80,-35,-293
82156,11.222,-3.110,1.670,-0.286617,-0.017985,1.216448,100142.95,-78,-37,-293
82166,10.916,-1.890,1.156,-0.391974,-0.064278,1.310099,100142.73,-78,-37,-293
82177,10.706,-0.609,1.386,-0.322268,-0.103122,1.460154,100141.95,-76,-39,-293
82187,11.222,-0.680,2.339,-0.151461,-0.143563,1.641072,100140.80,-76,-43,-293
82196,12.132,-1.682,2.918,-0.092929,-0.151012,1.785806,100140.80,-74,-47,-293
82206,13.052,-2.561,2.897,-0.212121,-0.132920,1.895420,100142.34,-74,-47,-293
82216,13.730,-2.732,2.472,-0.419644,-0.099397,1.985347,100140.45,-73,-50,-293
82227,14.337,-2.491,1.793,-0.596837,-0.061618,2.074741,100141.02,-71,-53,-294
82236,15.138,-2.176,0.759,-0.706451,-0.040865,2.191273,100138.73,-69,-56,-294
82246,16.271,-1.465,0.189,-0.704855,-0.032352,2.328025,100138.73,-69,-56,-294
82256,17.586,-0.812,0.676,-0.621846,-0.024370,2.471695,100141.63,-67,-59,-294
82267,18.297,0.054,1.133,-0.597369,0.025648,2.598869,100139.44,-65,-63,-295
82276,18.749,0.603,1.239,-0.731992,0.092162,2.707420,100142.11,-62,-67,-295
82286,19.324,1.875,1.468,-0.954946,0.140052,2.791493,100139.22,-62,-67,-295
82296,19.437,3.310,2.126,-1.191735,0.171446,2.838319,100139.22,-59,-71,-295
82302,19.530,4.271,2.551,-1.395533,0.201245,2.828208,100142.50,-57,-73,-296
82312,19.402,4.875,2.972,-1.651478,0.208162,2.804796,100142.50,-57,-73,-296
82322,18.375,5.073,3.541,-1.966487,0.186346,2.803731,100138.05,-55,-73,-297
82331,16.707,3.574,3.639,-1.977129,0.090034,2.908557,100139.09,-53,-73,-299
82341,15.657,-0.983,3.826,-1.362010,0.013942,3.151199,100141.66,-48,-76,-299
82352,15.256,-5.829,3.835,-0.342488,-0.019049,3.423107,100144.13,-48,-76,-299
82362,14.895,-7.338,4.523,0.216759,-0.096205,3.537511,100140.92,-46,-83,-299
82371,13.835,-5.595,4.733,0.323713,-0.193049,3.529529,100141.03,-41,-91,-300
82381,12.253,-4.014,5.334,0.584447,-0.130260,3.347548,100141.03,-37,-99,-298
82392,10.380,-1.956,5.273,0.668521,-0.074388,3.050098,100137.94,-37,-99,-298
82402,7.760,0.687,3.908,0.441310,-0.119086,2.544062,100137.94,-32,-105,-298
82411,6.193,3.402,1.723,0.276888,-0.276058,1.899145,100143.19,-29,-109,-297
82421,5.922,2.048,1.477,0.517401,-0.306388,1.370760,100141.98,-27,-113,-297
82432,5.575,1.991,3.192,0.664264,-0.280847,1.090338,100139.38,-27,-113,-297
82442,5.374,3.597,2.164,0.447695,-0.467085,0.615696,100137.38,-25,-115,-296
82452,4.408,4.527,1.610,0.450888,-0.572975,0.020265,100137.38,-24,-117,-296
82461,3.786,4.779,1.686,0.657878,-0.627250,-0.465551,100141.12,-23,-118,-296
82471,3.185,4.203,1.300,0.918080,-0.743782,-0.900817,100137.85,-23,-118,-296
82482,2.609,2.952,1.319,1.216061,-0.817214,-1.339807,100139.43,-24,-119,-295
82492,2.237,1.571,1.758,1.478392,-0.870957,-1.784651,100139.43,-24,-121,-295
82501,2.156,0.595,2.362,1.611951,-0.929489,-2.247054,100139.43,-26,-121,-295
82511,2.416,0.309,2.748,1.594924,-1.008241,-2.721696,100138.58,-26,-121,-295
82522,2.996,0.425,2.771,1.474135,-1.095507,-3.181439,100137.58,-28,-121,-293
82532,3.755,0.507,2.727,1.313970,-1.174259,-3.586375,100135.95,-32,-119,-293
82537,4.236,0.491,2.709,1.190520,-1.226938,-3.858283,100134.75,-32,-119,-293
82546,4.657,0.407,2.746,1.059621,-1.290791,-4.106246,100134.75,-35,-114,-295
82556,5.162,0.270,2.767,0.893071,-1.369011,-4.417530,100135.25,-39,-109,-296
82567,5.811,0.091,2.906,0.757383,-1.408920,-4.693695,100137.14,-42,-109,-296
82577,6.713,-0.376,3.074,0.647236,-1.406259,-4.947511,100134.73,-42,-103,-298
82586,7.535,-0.817,3.208,0.542943,-1.371140,-5.203456,100134.27,-46,-94,-301
82596,8.348,-0.973,3.256,0.406723,-1.310479,-5.451419,100134.27,-49,-85,-303
82607,9.376,-0.937,3.276,0.313071,-1.208846,-5.678630,100135.86,-52,-75,-305
82617,10.492,-0.827,3.375,0.310943,-1.070498,-5.882960,100134.97,-52,-75,-305
82626,11.603,-0.518,3.465,0.368411,-0.943323,-6.069199,100135.44,-55,-62,-308
82636,12.926,-0.334,3.545,0.516869,-0.814553,-6.235749,100134.59,-58,-51,-309
82647,14.624,-0.378,3.664,0.775475,-0.667691,-6.364520,100134.59,-60,-39,-311
82657,16.300,-0.714,3.920,1.117621,-0.518168,-6.446997,100136.70,-60,-39,-311
82666,18.113,-1.476,4.670,1.591199,-0.363324,-6.473070,100136.08,-62,-29,-311
82676,20.229,-2.562,5.321,2.105749,-0.242003,-6.433694,100135.19,-65,-21,-311
82686,21.144,-4.586,6.278,2.381382,-0.165911,-6.346428,100132.94,-66,-13,-311
82697,21.831,-8.770,6.404,2.452684,-0.187728,-6.143162,100132.94,-66,-13,-311
82707,22.487,-11.442,5.743,2.117987,-0.282443,-5.946814,100134.94,-67,-7,-311
82716,20.934,-12.864,5.873,1.468814,-0.353214,-5.603071,100139.44,-66,+0,-312
82726,18.116,-12.838,7.195,1.045786,-0.380351,-5.018282,100133.42,-66,+7,-314
82737,16.908,-12.091,8.507,0.763768,-0.370773,-4.371236,100135.83,-66,+7,-314
82747,16.609,-14.414,9.250,0.432264,-0.199966,-3.726320,100135.83,-64,+15,-315
82756,14.200,-17.680,9.617,0.087989,-0.025966,-3.179311,100136.92,-63,+22,-315
82766,10.276,-18.206,10.224,-0.506378,0.142180,-2.557806,100139.17,-62,+28,-315
82777,9.800,-15.931,9.065,-0.940579,0.340657,-1.670247,100137.50,-62,+28,-315
82787,10.299,-12.068,6.577,-1.011882,0.512529,-0.574633,100136.30,-62,+35,-313
82796,11.280,-10.056,3.496,-0.335038,0.684932,0.517788,100136.30,-66,+36,-313
82806,11.920,-12.153,1.290,0.484943,0.778051,1.406411,100141.60,-69,+31,-311
82817,12.347,-14.523,0.893,0.944685,0.759960,2.048668,100139.82,-69,+31,-311
82827,13.708,-12.839,-0.077,0.905309,0.660987,2.505218,100141.71,-71,+23,-309
82837,15.289,-4.938,-4.871,0.514209,0.340657,2.650484,100139.09,-73,+15,-308
82846,14.120,4.883,-6.644,0.439713,0.159740,2.628135,100139.09,-74,+7,-308
82856,17.473,28.803,-9.812,0.399273,-0.145159,1.614466,100144.94,-74,+7,-308
82867,12.428,22.307,-6.790,1.143162,-0.185599,0.806192,100142.89,-73,+3,-309
82877,12.329,-2.670,-0.336,3.405693,0.431116,1.983750,100139.50,-74,-8,-308
82886,13.212,-14.034,2.573,4.547069,0.797207,2.551512,100140.48,-76,-27,-303
82892,13.224,-11.183,2.874,3.803179,0.829134,2.570667,100140.48,-76,-27,-303
82902,12.730,-7.281,1.435,2.339345,0.691318,2.144979,100140.48,-77,-39,-300
82912,11.727,-4.639,2.188,1.111236,0.761024,1.765585,100142.53,-78,-47,-297
82922,11.440,-3.071,4.462,0.929254,0.925446,1.765053,100141.00,-78,-47,-297
82932,12.156,-2.125,3.784,0.671713,0.834987,1.642668,100140.64,-80,-53,-294
82941,10.880,-1.517,1.654,0.021475,0.637575,1.600631,100139.10,-80,-58,-293
82952,9.134,-0.357,1.297,-0.265332,0.571061,1.615530,100142.88,-80,-61,-293
82962,9.424,-0.413,2.549,-0.297259,0.541263,1.613402,100139.16,-80,-61,-293
82971,10.058,-0.910,2.184,-0.380800,0.479006,1.553806,100139.16,-80,-64,-291
82981,9.778,-0.664,1.697,-0.517020,0.445483,1.463347,100141.46,-81,-66,-291
82992,9.464,-1.003,1.252,-0.585130,0.391740,1.383531,100144.18,-80,-69,-291
83002,9.973,-0.530,1.155,-0.525534,0.377905,1.280833,100144.18,-80,-69,-291
83012,10.027,0.522,1.130,-0.411662,0.386419,1.222834,100142.92,-80,-69,-289
83021,9.705,0.651,1.525,-0.216910,0.409832,1.203678,100142.41,-80,-72,-289
83032,9.750,0.048,1.755,-0.095057,0.380566,1.169623,100141.61,-80,-75,-288
83042,9.727,-0.954,1.957,-0.100910,0.342254,1.080228,100140.41,-80,-75,-288
83052,9.824,-1.777,2.069,-0.310029,0.282125,0.979127,100140.41,-80,-76,-287
83062,9.909,-1.392,2.053,-0.618121,0.208694,0.898246,100142.62,-79,-77,-288
83072,9.832,-0.206,2.054,-0.821919,0.163997,0.855146,100140.04,-79,-77,-289
83082,9.692,0.559,1.786,-0.825112,0.142713,0.846632,100140.68,-79,-77,-289
83092,9.618,0.577,1.472,-0.647387,0.148566,0.863659,100140.68,-77,-77,-289
83101,9.680,0.230,1.219,-0.441460,0.164529,0.875366,100140.68,-77,-78,-289
83111,9.811,-0.431,1.215,-0.332378,0.185813,0.870045,100142.09,-77,-79,-289
83122,9.693,-1.104,1.498,-0.389314,0.196988,0.842375,100143.20,-77,-79,-289
83132,9.576,-1.052,1.781,-0.537240,0.192199,0.797146,100140.41,-76,-79,-289
83141,9.527,-0.413,2.010,-0.661754,0.184217,0.770540,100141.62,-76,-80,-290
83151,9.446,0.135,1.986,-0.679313,0.176768,0.770540,100141.62,-75,-80,-289
83162,9.544,0.420,2.000,-0.564910,0.176768,0.801403,100141.14,-75,-80,-289
83172,9.650,0.452,2.032,-0.414323,0.178896,0.846632,100139.28,-74,-80,-290
83182,9.636,0.049,2.059,-0.291938,0.187942,0.886008,100138.73,-74,-81,-289
83191,9.563,-0.784,2.061,-0.264268,0.196988,0.914210,100138.73,-74,-83,-290
83202,9.614,-1.263,1.880,-0.355259,0.196456,0.930705,100142.44,-74,-83,-290
83212,9.577,-1.073,1.758,-0.477112,0.190070,0.952522,100142.44,-73,-83,-290
83222,9.469,-0.711,1.654,-0.522341,0.190070,0.982852,100141.28,-73,-84,-290
83231,9.329,-0.449,1.446,-0.459552,0.196988,1.021164,100142.28,-73,-86,-290
83241,9.156,-0.211,1.688,-0.299387,0.195923,1.070118,100139.56,-73,-86,-290
83247,9.074,-0.105,2.065,-0.157846,0.193795,1.112687,100139.56,-71,-87,-290
83257,9.218,-0.500,2.467,-0.040782,0.190602,1.154191,100141.31,-70,-91,-289
83267,9.505,-1.378,2.547,0.012429,0.179960,1.186650,100142.25,-70,-91,-289
83276,9.742,-1.270,2.200,-0.052488,0.160272,1.224962,100140.27,-69,-93,-289
83287,10.050,-0.851,1.883,-0.082818,0.141116,1.297861,100141.36,-68,-96,-289
83297,10.218,-0.802,1.367,-0.057277,0.118768,1.415457,100141.36,-66,-99,-288
83307,10.276,-0.383,1.204,0.038503,0.119300,1.552209,100146.55,-66,-99,-288
83316,10.469,-0.424,1.303,0.159824,0.120896,1.714503,100143.73,-64,-102,-289
83326,10.829,-0.678,0.979,0.234851,0.136327,1.872007,100142.10,-62,-106,-287
83337,11.394,-1.070,0.676,0.328502,0.153355,2.046539,100139.76,-59,-113,-287
83347,12.159,-1.293,0.833,0.380117,0.134199,2.210961,100139.76,-59,-113,-287
83357,13.333,-1.322,0.949,0.425346,0.113446,2.368998,100142.14,-57,-119,-285
83366,14.281,-1.495,1.461,0.442374,0.124089,2.517988,100143.97,-53,-124,-284
83377,14.915,-1.601,2.007,0.386502,0.136859,2.662722,100143.39,-48,-131,-284
83387,15.594,-1.512,2.109,0.265713,0.166657,2.789896,100140.88,-48,-131,-284
83397,16.519,-1.347,2.073,0.064044,0.192731,2.903236,100140.88,-42,-137,-283
83406,17.806,-0.851,2.138,-0.203607,0.189006,2.999548,100141.42,-38,-141,-282
83417,20.229,0.172,2.869,-0.519681,0.148566,3.074043,100141.38,-32,-145,-283
83427,22.488,1.526,2.996,-0.953882,0.153887,3.150667,100140.75,-32,-145,-283
83437,24.442,3.961,2.330,-1.542928,0.206034,3.229951,100140.06,-25,-147,-284
83446,25.555,7.319,1.586,-2.134102,0.227318,3.332116,100140.06,-18,-147,-289
83457,24.682,10.828,1.301,-2.619386,0.296492,3.412997,100142.80,-12,-145,-293
83467,21.972,10.543,1.167,-3.039752,0.294364,3.456630,100143.01,-12,-145,-293
83477,19.601,6.966,0.945,-3.275477,0.151226,3.448116,100141.55,-5,-141,-299
83487,15.983,2.338,3.575,-2.502854,0.135795,3.513566,100140.13,+1,-137,-304
83496,14.417,-4.146,5.140,-0.760726,-0.099397,3.817400,100140.13,+8,-138,-305
83507,15.223,-9.564,5.500,0.486539,-0.262223,4.366538,100140.27,+8,-138,-305
83517,15.156,-10.040,7.486,1.240006,-0.096737,4.439969,100144.30,+19,-145,-303
83527,13.896,-5.292,8.054,1.164447,-0.020645,3.917437,100138.96,+28,-153,-301
83536,10.213,-0.775,6.190,0.631805,-0.071196,3.115548,100139.23,+35,-157,-299
83547,6.649,2.335,2.220,0.113530,-0.272333,2.248209,100139.23,+35,-157,-299
83557,6.114,3.140,2.186,0.152374,-0.179746,1.651714,100141.59,+41,-158,-299
83567,6.021,5.850,2.330,0.168337,-0.238278,1.258485,100140.59,+45,-161,-299
83576,3.952,6.079,0.965,0.266778,-0.450590,0.759366,100141.96,+49,-161,-299
83587,2.156,5.845,0.911,0.464722,-0.501140,0.190541,100139.87,+51,-162,-298
83597,1.213,4.694,0.767,0.634998,-0.595324,-0.332523,100139.87,+51,-162,-298
83603,0.527,3.510,0.966,0.785053,-0.669287,-0.683716,100142.04,+51,-164,-296
83612,0.131,2.468,1.642,0.902117,-0.730480,-1.018413,100142.04,+51,-164,-296
83622,-0.081,1.465,2.199,0.982465,-0.839030,-1.497312,100141.51,+51,-166,-295
83632,-0.064,1.153,2.558,1.017053,-0.937470,-2.011862,100139.05,+49,-168,-293
83642,0.308,1.478,2.558,1.036208,-1.002920,-2.515238,100137.01,+46,-169,-292
83652,0.977,1.800,2.286,1.031419,-1.052938,-2.976045,100139.95,+46,-169,-292
83662,1.576,1.833,1.989,1.040465,-1.077415,-3.381512,100136.27,+42,-169,-291
83672,2.208,1.729,2.045,1.034612,-1.084865,-3.742283,100137.07,+37,-169,-289
83682,3.075,1.543,2.292,1.002686,-1.100828,-4.087090,100137.07,+31,-169,-287
83692,4.128,1.259,2.679,0.954263,-1.115195,-4.424448,100136.85,+31,-169,-287
83702,5.183,0.730,3.136,0.860080,-1.121048,-4.728814,100136.85,+24,-168,-287
83712,5.876,0.132,3.415,0.681291,-1.121580,-5.023071,100136.97,+16,-164,-286
83722,6.394,-0.338,3.403,0.475365,-1.105617,-5.308814,100138.86,+8,-160,-287
83732,7.188,-0.453,3.287,0.335952,-1.055599,-5.554648,100136.39,+8,-160,-287
83742,8.254,-0.484,3.022,0.324778,-0.959287,-5.775474,100137.50,+0,-155,-287
83752,9.314,-0.591,2.895,0.387034,-0.846480,-5.982465,100137.50,-10,-147,-287
83762,10.497,-0.715,2.773,0.436521,-0.739525,-6.182538,100138.48,-19,-140,-289
83772,11.894,-0.821,2.563,0.474833,-0.641617,-6.373566,100138.09,-28,-140,-288
83782,13.518,-0.785,2.503,0.566355,-0.520828,-6.558208,100135.60,-28,-132,-288
83792,15.380,-0.631,2.533,0.682887,-0.400039,-6.740189,100135.60,-38,-123,-287
83802,17.684,-0.377,2.420,0.846245,-0.326076,-6.902483,100135.60,-48,-113,-287
83812,20.847,-0.040,2.710,1.204887,-0.253177,-7.012630,100137.88,-58,-105,-284
83822,24.602,-0.158,3.732,1.648135,-0.126535,-7.054666,100139.51,-58,-105,-284
83832,26.566,-1.158,4.101,2.063180,-0.077581,-6.990281,100138.13,-67,-95,-281
83842,26.086,-6.571,4.076,2.194079,-0.072792,-6.707730,100137.46,-76,-86,-277
83852,25.043,-10.281,3.450,2.234519,-0.398443,-6.219254,100137.46,-82,-79,-274
83862,24.706,-8.826,4.648,2.568152,-0.561801,-5.586575,100140.03,-82,-79,-274
83872,22.712,-9.700,7.296,3.218390,-0.505929,-4.801713,100140.39,-88,-74,-272
83883,18.971,-16.957,10.353,3.671748,-0.267012,-4.049842,100137.22,-91,-73,-268
83892,12.429,-27.549,12.534,2.852299,-0.014260,-3.324577,100137.22,-96,-71,-265
83902,6.713,-30.369,11.568,0.953199,0.131006,-2.467880,100138.92,-96,-71,-265
83912,7.795,-24.494,9.178,-0.539901,0.204969,-1.022138,100140.19,-98,-66,-264
83921,10.826,-15.295,5.573,-0.532983,0.295428,0.679017,100140.19,-99,-66,-264
83932,12.783,-11.465,5.701,0.715878,0.556694,2.187016,100143.33,-98,-74,-260
83942,12.204,-15.093,7.356,1.875878,0.720584,3.266135,100137.77,-98,-74,-260
83952,14.216,-10.824,6.475,2.030721,0.753042,3.816336,100137.77,-95,-89,-255
83957,15.577,-2.088,0.343,1.216061,0.370455,3.556135,100140.57,-95,-89,-255
83966,15.936,7.536,-3.430,0.710557,0.420474,3.103309,100139.59,-92,-102,-252
83977,24.463,40.600,-16.209,-1.250267,-0.278718,1.176008,100140.88,-89,-106,-253
83987,13.942,13.713,-8.489,-0.195094,-0.047251,1.403219,100143.62,-87,-109,-252
83997,15.796,-12.788,-0.655,3.145491,0.876492,3.372025,100143.62,-87,-109,-252
84007,15.189,-16.046,3.915,3.558408,1.120730,3.701401,100143.79,-83,-125,-243
84017,11.603,-8.855,2.051,1.989217,0.768474,3.050630,100140.49,-80,-139,-237
84027,11.551,-5.191,2.460,0.854227,0.733886,2.470099,100139.96,-77,-147,-232
84037,9.701,-3.691,4.066,0.860080,0.937684,2.369530,100141.38,-74,-147,-232
84047,9.967,-2.087,4.697,1.154869,1.188840,2.098154,100141.38,-74,-155,-228
84057,10.729,-3.516,2.339,0.471108,0.996749,1.958741,100140.80,-72,-159,-223
84067,10.136,-3.578,1.609,-0.183387,0.845629,1.860301,100141.69,-69,-165,-223
84077,9.964,-2.633,3.107,-0.760194,0.758363,1.787934,100141.22,-67,-167,-223
84087,8.955,-1.209,1.940,-1.119900,0.563079,1.769310,100139.02,-67,-167,-223
84097,9.304,-0.013,2.453,-1.054451,0.555098,1.670870,100139.02,-64,-167,-224
84107,10.007,-1.592,1.988,-0.977295,0.433244,1.551145,100143.29,-61,-171,-225
84117,10.074,-1.586,0.731,-0.781479,0.378437,1.383531,100141.55,-58,-171,-226
84127,10.176,-0.660,0.255,-0.523937,0.399189,1.260081,100143.02,-58,-171,-226
84137,10.163,-0.613,0.426,-0.285020,0.423666,1.197292,100138.88,-57,-173,-226
84147,10.007,-0.755,0.969,-0.137094,0.432180,1.129714,100138.88,-55,-175,-225
84157,9.805,-0.504,1.551,-0.024818,0.435373,1.031806,100141.54,-53,-178,-225
84167,9.799,-0.964,2.075,-0.003002,0.400786,0.942944,100143.16,-53,-178,-225
84177,9.878,-1.622,2.692,-0.081754,0.334804,0.858338,100137.24,-51,-179,-223
84187,9.684,-1.552,2.783,-0.227552,0.262437,0.756705,100140.07,-49,-180,-223
84197,9.644,-1.049,2.445,-0.399956,0.186878,0.689659,100140.07,-48,-181,-224
84207,9.777,-0.376,2.072,-0.489882,0.124089,0.658797,100141.09,-48,-181,-224
84217,9.763,-0.013,1.452,-0.447846,0.109190,0.652944,100142.14,-48,-182,-225
84228,9.758,-0.028,1.071,-0.317479,0.118235,0.667311,100136.64,-46,-183,-226
84237,9.836,-0.140,1.078,-0.171149,0.126217,0.684338,100138.73,-44,-183,-226
84247,9.610,-0.353,1.312,-0.064727,0.133135,0.697109,100138.73,-44,-183,-226
84257,9.408,-0.606,1.642,-0.015773,0.137924,0.703494,100141.80,-42,-185,-225
84268,9.197,-0.172,2.041,0.022007,0.136327,0.702962,100136.16,-41,-187,-226
84277,8.805,1.062,2.652,0.144925,0.137924,0.711476,100140.40,-40,-188,-225
84287,8.444,1.518,3.177,0.354576,0.138988,0.751384,100138.82,-40,-188,-225
84297,8.362,1.010,3.199,0.504099,0.123024,0.806724,100138.82,-38,-190,-223
84307,8.792,-0.018,2.735,0.551456,0.128878,0.851953,100144.80,-35,-193,-221
84313,9.288,-1.295,1.878,0.516869,0.136327,0.882815,100138.09,-35,-193,-221
84322,9.855,-2.564,0.901,0.410979,0.138988,0.913678,100138.09,-34,-195,-220
84332,10.467,-3.595,-0.271,0.178980,0.124621,0.934430,100140.14,-32,-197,-220
84342,10.747,-3.374,-0.948,-0.080158,0.113979,0.958907,100141.59,-29,-199,-220
84353,10.504,-2.398,-0.788,-0.224892,0.136859,0.965824,100141.59,-29,-199,-220
84363,10.079,-2.120,-0.295,-0.254158,0.159208,0.989769,100140.15,-26,-198,-220
84372,9.588,-1.572,0.380,-0.203607,0.177300,1.016907,100138.60,-24,-201,-220
84382,9.207,-1.311,1.291,-0.108892,0.186346,1.054687,100139.71,-22,-202,-220
84392,9.023,-1.259,1.775,-0.035993,0.178896,1.110558,100139.71,-22,-202,-220
84402,9.290,-1.304,1.763,0.014558,0.184749,1.177604,100139.71,-19,-203,-220
84412,10.009,-1.997,1.629,0.068833,0.183685,1.227623,100142.10,-16,-206,-220
84422,10.476,-2.368,1.599,0.047016,0.174639,1.243054,100140.99,-12,-208,-219
84432,10.236,-1.669,1.805,-0.045571,0.179428,1.291476,100140.74,-12,-208,-219
84442,9.976,-0.909,1.701,-0.051956,0.183685,1.392044,100138.43,-9,-209,-218
84452,10.242,-0.800,1.354,0.049677,0.191134,1.531457,100138.43,-5,-212,-218
84462,10.657,-1.063,1.179,0.221548,0.199648,1.679916,100143.93,+0,-214,-217
84472,10.900,-1.643,0.798,0.315732,0.175171,1.809751,100139.18,+0,-214,-217
84483,11.609,-1.857,0.756,0.421622,0.165061,1.955016,100138.16,+4,-217,-215
84492,12.377,-2.360,0.967,0.396612,0.131006,2.082191,100138.16,+10,-220,-215
84502,13.175,-2.014,1.664,0.338080,0.117703,2.193934,100140.89,+16,-223,-213
84512,13.644,-1.644,2.591,0.277420,0.115575,2.338668,100140.89,+16,-223,-213
84523,14.204,-1.337,3.097,0.161420,0.125685,2.491383,100140.52,+24,-226,-212
84532,14.834,-1.388,2.699,-0.003534,0.153355,2.652080,100140.42,+32,-228,-212
84542,16.006,-1.757,1.722,-0.158910,0.151226,2.798410,100138.48,+40,-230,-212
84552,17.228,-1.799,0.901,-0.275442,0.109722,2.898979,100138.48,+40,-230,-212
84562,18.591,-1.681,1.149,-0.407405,0.060235,2.914410,100144.13,+49,-231,-213
84573,20.503,-0.445,1.295,-0.726139,0.061832,2.873970,100140.88,+58,-232,-215
84582,22.950,2.169,1.387,-1.169919,0.083648,2.887805,100139.36,+67,-231,-218
84592,25.110,6.147,1.064,-1.591350,0.077795,2.963364,100139.28,+67,-231,-218
84602,24.772,10.212,0.981,-1.915404,0.112382,3.075639,100140.80,+76,-230,-224
84613,22.191,11.449,0.398,-2.165496,0.129942,3.177273,100140.64,+85,-226,-230
84623,18.861,9.180,-1.102,-2.369826,0.061300,3.174612,100140.38,+94,-222,-237
84632,15.572,6.209,0.050,-2.150597,0.052254,3.060740,100140.38,+94,-222,-237
84642,12.308,0.756,4.898,-1.224194,-0.038205,3.138428,100138.17,+105,-218,-241
84653,12.055,-7.591,4.241,0.434392,-0.356406,3.535382,100138.17,+114,-218,-240
84663,14.558,-11.015,8.892,1.420924,-0.017453,4.003639,100141.72,+126,-220,-237
84672,15.805,-9.808,10.213,1.350685,0.038951,3.953089,100139.98,+126,-220,-237
84682,13.263,-3.984,7.857,0.736098,-0.069067,3.060208,100138.73,+137,-221,-232
84692,9.641,3.919,3.514,-0.164231,-0.307984,1.889035,100138.36,+142,-220,-232
84703,6.862,7.174,0.408,-0.408470,-0.363324,1.173347,100138.36,+147,-220,-233
84712,6.503,7.098,1.862,-0.115277,-0.229232,0.991366,100140.82,+147,-220,-233
84722,6.197,5.924,2.053,0.073622,-0.400572,0.735421,100137.68,+149,-220,-232
84732,4.886,4.323,1.553,0.220484,-0.584149,0.245348,100137.01,+151,-220,-230
84743,3.770,3.123,1.853,0.325842,-0.637360,-0.252175,100137.01,+150,-221,-228
84752,3.067,1.828,2.429,0.489200,-0.671415,-0.666688,100137.01,+150,-221,-228
84762,2.639,1.025,2.876,0.732906,-0.754957,-1.076945,100140.85,+148,-223,-226
84772,2.454,0.566,2.904,0.948942,-0.906076,-1.540412,100139.87,+144,-226,-223
84783,2.547,0.500,2.581,1.116025,-1.065177,-2.043256,100137.71,+139,-230,-217
84792,2.946,0.916,2.411,1.255438,-1.188626,-2.509384,100138.18,+132,-234,-213
84802,3.444,1.468,2.504,1.417199,-1.277488,-2.897825,100138.18,+132,-234,-213
84812,3.980,1.561,2.866,1.599181,-1.331764,-3.221879,100140.82,+123,-237,-206
84823,4.259,1.177,3.294,1.756153,-1.370075,-3.527310,100137.84,+112,-241,-200
84833,4.360,0.651,3.917,1.827988,-1.396681,-3.848705,100135.98,+99,-245,-193
84842,4.922,0.088,4.514,1.807768,-1.421158,-4.181273,100135.98,+99,-245,-193
84852,5.745,-0.618,4.981,1.684318,-1.439250,-4.506925,100138.37,+86,-247,-188
84862,6.121,-1.088,5.195,1.467217,-1.453617,-4.821933,100138.37,+70,-248,-182
84873,6.501,-1.249,5.272,1.236814,-1.428075,-5.111933,100137.27,+54,-247,-179
84882,7.270,-1.172,5.278,1.033548,-1.350920,-5.367346,100136.85,+54,-247,-179
84892,8.281,-0.882,5.188,0.889878,-1.257268,-5.602006,100135.07,+36,-244,-175
84903,9.519,-0.509,4.934,0.842166,-1.144993,-5.827444,100134.05,+17,-239,-173
84913,10.735,-0.442,4.732,0.879768,-1.025268,-5.997896,100134.05,-1,-232,-171
84923,12.206,-0.724,4.603,0.933511,-0.892773,-6.179878,100135.46,-1,-232,-171
84932,13.959,-1.159,4.563,0.924997,-0.766663,-6.364520,100135.41,-19,-226,-168
84942,15.799,-1.674,4.570,0.856355,-0.655452,-6.535327,100134.37,-38,-215,-166
84953,17.624,-2.107,4.701,0.814851,-0.544241,-6.671015,100138.91,-57,-203,-164
84963,19.362,-2.567,5.284,0.846245,-0.399507,-6.738060,100136.13,-57,-203,-164
84972,20.112,-3.066,5.741,0.913823,-0.258498,-6.725290,100137.86,-74,-191,-162
84982,20.292,-4.652,4.757,0.912759,-0.124939,-6.618868,100137.86,-91,-174,-160
84993,21.609,-9.166,3.475,0.710557,-0.127067,-6.316630,100135.14,-105,-159,-159
85003,21.997,-9.335,2.593,0.722796,-0.298939,-5.927125,100135.14,-105,-159,-159
85012,22.080,-8.374,3.836,1.103786,-0.307452,-5.392355,100139.70,-116,-144,-158
85022,20.757,-8.697,6.727,1.675804,-0.298939,-4.821401,100139.16,-125,-131,-157
85032,18.584,-13.281,9.903,2.057859,-0.186663,-4.247255,100136.34,-132,-121,-153
85043,13.701,-19.352,11.934,1.814685,-0.002553,-3.668852,100137.18,-132,-121,-153
85053,9.981,-22.418,11.363,0.911163,0.262969,-2.968595,100137.18,-138,-111,-152
85062,9.367,-20.894,9.252,-0.038121,0.499226,-1.832009,100138.63,-141,-104,-149
85072,10.634,-15.833,5.825,-0.233406,0.630657,-0.428303,100140.52,-142,-103,-148
85083,11.585,-13.701,4.036,0.351915,0.742932,0.872705,100137.85,-142,-103,-148
85093,12.220,-14.505,5.178,1.044190,0.908418,1.925750,100137.85,-140,-108,-143
85102,12.483,-14.850,4.705,1.270869,0.911611,2.627603,100137.85,-137,-116,-139
85112,15.091,-8.395,1.650,1.277254,0.860529,3.080961,100139.23,-132,-126,-134
85123,15.635,-1.670,-6.122,1.045786,0.396529,3.019236,100139.07,-132,-126,-134
85133,20.792,21.604,-16.966,0.808465,-0.057893,2.520117,100138.76,-126,-135,-130
85142,20.042,29.930,-17.008,0.790374,-0.289361,1.049366,100140.43,-124,-141,-130
85152,13.717,1.744,-1.922,3.571711,0.531685,2.375383,100140.43,-119,-149,-121
85163,13.590,-14.759,2.716,5.532004,1.019097,3.322006,100140.09,-119,-149,-121
85173,12.764,-11.900,3.883,4.961582,1.194161,3.374153,100138.57,-113,-159,-106
85183,11.549,-8.479,1.266,3.088556,1.029739,2.803731,100138.60,-105,-167,-97
85192,9.478,-7.225,4.939,1.954630,1.163299,2.248209,100138.60,-101,-173,-89
85202,9.291,-4.172,7.128,1.545437,1.438400,2.040154,100140.31,-101,-173,-89
85213,12.244,-4.024,4.869,0.806337,1.327189,1.770374,100139.05,-96,-178,-82
85223,12.463,-5.992,1.729,-0.360580,0.999941,1.753347,100139.05,-92,-183,-79
85232,10.597,-4.052,2.351,-1.237497,0.804657,1.751751,100139.84,-87,-187,-81
85242,9.709,-1.337,3.762,-1.833992,0.621079,1.749622,100137.64,-83,-187,-81
85253,9.498,0.181,2.068,-2.058542,0.402914,1.673530,100137.64,-83,-193,-84
85258,9.742,0.184,1.066,-1.982982,0.319373,1.591586,100139.96,-78,-197,-88
85267,9.915,-0.188,0.596,-1.622212,0.330015,1.511237,100136.30,-78,-197,-88
85277,10.212,0.739,0.122,-0.920891,0.407171,1.351604,100136.73,-74,-200,-90
85287,10.420,0.221,0.399,-0.418048,0.424731,1.329255,100138.91,-70,-204,-90
85298,10.392,-1.344,0.803,-0.123791,0.409299,1.318081,100138.91,-66,-206,-90
85308,10.620,-1.279,0.586,-0.045571,0.384822,1.174412,100140.62,-66,-206,-90
85317,9.656,-0.806,1.255,0.005512,0.405575,1.078100,100139.01,-62,-209,-89
85327,9.262,-1.737,2.397,-0.129112,0.383226,1.054155,100139.32,-59,-211,-88
85338,10.039,-2.552,2.170,-0.526598,0.305538,0.952522,100137.32,-57,-213,-89
85348,9.961,-1.054,1.811,-0.870341,0.231575,0.812045,100137.32,-57,-213,-89
85357,9.748,0.235,1.424,-0.843203,0.190070,0.750852,100138.23,-55,-214,-91
85367,9.748,0.615,1.204,-0.578213,0.179960,0.754577,100138.91,-53,-216,-94
85378,9.707,0.320,1.186,-0.282360,0.192199,0.782247,100139.60,-51,-218,-94
85388,9.722,-0.655,1.349,-0.069516,0.202309,0.801403,100139.27,-51,-218,-94
85397,9.759,-1.676,1.261,-0.071644,0.203905,0.791292,100139.27,-48,-219,-93
85407,9.838,-1.756,1.245,-0.262672,0.186878,0.762026,100141.09,-45,-220,-93
85417,9.624,-1.164,1.490,-0.432415,0.171979,0.715733,100139.31,-43,-222,-94
85428,9.423,-0.795,1.726,-0.485093,0.173575,0.661458,100139.11,-43,-222,-94
85438,9.376,-0.623,1.643,-0.435075,0.175703,0.616760,100138.95,-42,-222,-96
85447,9.274,-0.544,1.454,-0.303112,0.182089,0.599733,100138.95,-39,-224,-96
85457,9.135,-0.796,1.642,-0.177534,0.180492,0.616760,100139.15,-37,-226,-96
85468,9.260,-0.502,1.841,-0.127516,0.172511,0.633788,100139.30,-35,-226,-96
85478,9.515,0.150,2.045,-0.126451,0.176768,0.666247,100138.99,-35,-226,-96
85487,9.576,0.306,2.217,-0.096653,0.191134,0.702962,100137.27,-33,-227,-97
85497,9.332,0.278,2.250,0.000723,0.208162,0.727971,100137.27,-31,-229,-95
85508,8.863,0.007,2.278,0.147585,0.231575,0.761494,100140.81,-28,-230,-94
85518,8.541,-1.487,2.157,0.215695,0.231575,0.807256,100138.98,-28,-230,-94
85528,9.243,-2.617,1.635,0.109805,0.199116,0.847696,100138.83,-26,-232,-94
85537,9.981,-3.054,0.941,-0.105699,0.190602,0.865788,100139.45,-23,-233,-94
85548,10.376,-2.571,0.441,-0.379204,0.175703,0.889201,100139.45,-19,-234,-95
85558,10.289,-1.021,0.507,-0.536176,0.185281,0.932302,100142.61,-19,-234,-95
85568,9.990,0.042,0.779,-0.475515,0.200712,1.021164,100139.63,-16,-236,-96
85577,9.730,0.547,1.050,-0.270121,0.211355,1.141421,100139.05,-14,-237,-97
85587,9.693,0.108,1.152,-0.020562,0.223061,1.280301,100138.16,-8,-240,-96
85598,9.989,-1.226,1.229,0.126301,0.209758,1.414925,100138.16,-8,-240,-96
85608,10.279,-1.235,1.423,0.132154,0.188474,1.527732,100140.65,-3,-242,-96
85617,10.823,-0.910,1.709,0.095438,0.162933,1.656503,100137.40,+1,-244,-95
85627,11.224,-0.304,1.799,0.077879,0.133667,1.807090,100140.02,+7,-246,-94
85638,11.676,-0.175,1.732,0.136411,0.120364,1.995989,100138.66,+7,-246,-94
85648,12.475,-0.653,1.467,0.272631,0.090034,2.194998,100138.66,+14,-247,-93
85658,13.292,-1.625,1.434,0.380117,0.073538,2.362080,100140.46,+23,-250,-92
85667,13.968,-2.477,1.309,0.365750,0.077263,2.483401,100142.77,+31,-253,-91
85678,14.345,-2.708,1.439,0.255603,0.084713,2.577585,100135.45,+31,-253,-91
85688,14.570,-2.574,1.504,0.098099,0.091630,2.668576,100139.32,+41,-254,-90
85698,15.025,-2.349,1.395,-0.117406,0.105997,2.758502,100139.32,+51,-256,-90
85707,16.039,-1.790,1.060,-0.373350,0.101740,2.839915,100141.77,+61,-257,-92
85718,17.808,-1.483,1.100,-0.659625,0.082052,2.894722,100137.32,+61,-257,-92
85728,21.089,0.530,1.810,-1.013478,0.012878,2.897383,100138.16,+71,-258,-95
85738,23.687,3.054,1.105,-1.425331,-0.029159,2.931970,100137.05,+82,-260,-100
85747,24.931,5.534,-0.270,-1.874432,-0.045122,3.024025,100137.05,+92,-259,-106
85757,24.917,9.530,-0.415,-2.229349,-0.047251,3.076172,100142.42,+92,-259,-106
85768,22.288,12.822,-0.128,-2.388982,-0.070664,3.133640,100141.17,+104,-259,-115
85778,18.664,12.042,0.506,-2.275643,-0.134517,3.220373,100138.81,+115,-258,-122
85788,15.878,8.231,1.966,-1.638707,-0.200498,3.281034,100137.66,+128,-256,-127
85797,13.032,1.912,4.252,-0.024286,-0.211140,3.439070,100137.66,+128,-256,-127
85808,13.535,-7.501,3.944,1.620465,-0.405361,3.788135,100142.20,+140,-254,-125
85818,15.207,-11.650,6.731,2.229198,-0.399507,4.277143,100141.00,+155,-252,-117
85828,16.547,-10.226,7.649,2.145657,-0.423452,4.300024,100137.08,+170,-248,-111
85837,14.496,-5.995,9.551,1.787015,-0.297874,3.677456,100137.03,+170,-248,-111
85848,9.714,-0.298,6.606,0.815560,-0.543354,2.726043,100137.03,+182,-246,-106
85858,7.008,3.841,2.340,0.328502,-0.688443,1.933200,100137.55,+188,-243,-105
85868,6.951,6.313,3.620,0.545603,-0.538920,1.467072,100140.89,+193,-241,-103
85877,6.855,7.732,3.167,0.512080,-0.754957,1.181329,100137.59,+193,-241,-103
85888,5.179,6.281,1.617,0.488135,-1.064112,0.793953,100136.92,+197,-240,-101
85898,3.664,4.904,1.842,0.520062,-1.180112,0.327293,100136.92,+198,-240,-98
85908,2.901,3.480,2.466,0.447163,-1.298773,-0.156927,100140.26,+198,-240,-94
85918,2.043,2.388,3.341,0.456209,-1.415837,-0.634230,100141.10,+198,-240,-94
85927,1.419,2.073,4.267,0.494521,-1.550993,-1.159954,100136.45,+194,-241,-91
85938,1.274,2.229,4.497,0.608392,-1.693066,-1.717073,100134.13,+188,-244,-88
85948,1.606,2.584,4.412,0.802080,-1.792039,-2.243330,100134.13,+180,-246,-83
85958,2.201,2.655,4.545,1.030355,-1.840461,-2.677531,100138.20,+170,-250,-77
85967,2.895,2.327,4.605,1.240539,-1.859617,-3.036173,100134.10,+170,-250,-77
85978,3.412,1.857,4.774,1.393254,-1.858552,-3.369274,100134.84,+157,-253,-71
85988,3.971,1.428,5.206,1.460832,-1.843121,-3.694925,100134.52,+143,-254,-66
85998,4.756,1.178,5.598,1.462960,-1.844185,-4.039732,100134.52,+126,-256,-59
86007,5.718,0.691,5.992,1.387933,-1.832479,-4.355805,100136.51,+126,-256,-59
86018,6.015,0.060,6.343,1.287896,-1.792039,-4.655383,100133.85,+109,-258,-55
86028,6.272,-0.388,6.587,1.184135,-1.698919,-4.951768,100131.80,+89,-258,-51
86038,6.974,-0.506,6.846,1.091548,-1.565360,-5.215163,100131.38,+69,-256,-47
86047,7.962,-0.175,6.752,1.092612,-1.421690,-5.459401,100131.38,+69,-256,-47
86057,9.237,0.329,6.404,1.211272,-1.264718,-5.704703,100135.25,+48,-253,-44
86068,10.700,0.576,6.069,1.399107,-1.102956,-5.937235,100136.14,+26,-246,-40
86078,12.208,0.436,5.740,1.553951,-0.948112,-6.145290,100132.47,+4,-238,-37
86088,13.677,-0.104,5.491,1.607694,-0.800186,-6.319822,100133.05,+4,-238,-37
86097,15.031,-1.037,5.238,1.556612,-0.658645,-6.474667,100133.05,-17,-229,-33
86108,16.477,-1.569,5.268,1.470942,-0.503801,-6.619932,100136.17,-38,-217,-31
86118,18.396,-1.827,5.521,1.376759,-0.351617,-6.756684,100134.30,-58,-203,-28
86128,21.018,-2.044,6.052,1.331529,-0.201563,-6.887052,100133.88,-58,-203,-28
86137,23.619,-2.919,7.094,1.309713,-0.016920,-6.954097,100134.50,-77,-186,-25
86148,24.032,-4.374,7.154,1.235217,0.157612,-6.923235,100134.50,-93,-167,-23
86158,23.822,-10.766,6.198,0.623823,0.242749,-6.738593,100137.13,-108,-149,-23
86168,22.020,-14.369,4.597,0.027860,-0.082902,-6.257033,100133.61,-108,-149,-23
86178,22.593,-12.492,3.869,-0.355791,-0.136645,-5.612648,100138.06,-119,-133,-24
86188,22.000,-13.101,5.098,-0.166892,-0.131856,-4.882062,100134.03,-127,-119,-27
86198,18.747,-18.987,8.920,0.200796,-0.005746,-4.225971,100134.03,-133,-106,-27
86204,11.864,-21.297,11.677,0.047548,0.049061,-3.719934,100136.41,-133,-106,-27
86213,7.491,-21.994,13.026,-0.243516,0.342254,-3.066503,100136.41,-137,-96,-27
86223,7.458,-20.649,10.491,-0.709112,0.505079,-1.721330,100134.80,-139,-91,-26
86233,9.751,-14.685,5.778,-0.571295,0.648217,0.007495,100136.20,-139,-91,-26
86243,11.937,-10.490,2.441,0.801548,0.932363,1.436210,100135.47,-135,-95,-24
86253,12.598,-13.564,2.674,2.117987,1.127116,2.490851,100138.52,-130,-101,-18
86263,13.625,-16.357,3.648,2.456941,1.230345,3.220906,100137.79,-123,-108,-11
86274,15.205,-10.165,-5.357,1.432098,0.642896,3.246447,100138.01,-123,-108,-11
86283,19.640,6.725,-16.415,0.419493,0.054382,3.047438,100138.01,-117,-117,-8
86293,24.673,36.587,-23.780,-0.780946,-0.641617,1.110558,100139.84,-117,-121,-12
86303,17.326,11.116,-5.287,1.365052,0.158144,1.577751,100139.84,-114,-123,-6
86312,15.007,-11.610,3.088,4.746078,0.817960,3.431089,100141.68,-114,-123,-6
86323,13.564,-12.254,5.894,5.184004,1.167556,3.673731,100137.38,-105,-125,+5
86333,12.414,-10.596,1.320,3.392922,0.996749,3.194832,100140.26,-97,-127,+12
86343,11.714,-6.727,4.149,2.149382,1.126051,2.611640,100138.80,-91,-131,+18
86353,8.339,-1.249,7.778,2.019015,1.417115,2.563750,100138.80,-91,-131,+18
86363,8.001,0.710,7.404,2.034446,1.387849,2.268429,100137.93,-83,-133,+26
86373,8.964,-4.580,4.768,1.169236,1.011116,2.059842,100138.32,-77,-135,+30
86383,9.855,-5.355,3.697,0.346062,0.822749,1.983750,100137.85,-71,-139,+32
86393,9.995,-3.830,2.876,-0.443057,0.589685,1.852851,100137.85,-71,-139,+32
86403,10.876,-2.732,0.909,-0.923020,0.402914,1.727274,100137.85,-67,-145,+32
86413,11.596,-2.582,0.182,-1.154487,0.327887,1.658099,100138.21,-64,-152,+29
86423,10.907,-2.788,0.075,-1.269955,0.295960,1.556998,100136.38,-59,-157,+28
86433,9.674,-1.528,0.140,-1.206102,0.322033,1.373953,100138.95,-59,-157,+28
86443,8.999,0.142,-0.531,-0.828304,0.390676,1.197824,100136.48,-56,-162,+27
86453,9.570,1.653,-0.565,-0.119002,0.541263,1.109494,100136.48,-53,-164,+28
86463,10.262,0.630,0.912,0.529640,0.653538,1.134503,100138.98,-49,-165,+30
86473,10.390,-1.288,1.856,0.764300,0.623208,1.096191,100137.45,-49,-165,+30
86483,9.897,-3.022,2.108,0.522190,0.557758,1.007329,100138.37,-45,-165,+33
86493,9.544,-3.175,2.379,-0.014176,0.464107,0.920595,100138.37,-42,-167,+33
86503,9.534,-1.743,3.170,-0.617057,0.364070,0.816302,100136.95,-39,-171,+32
86513,9.672,0.043,2.986,-0.945368,0.236896,0.767880,100138.16,-39,-171,+32
86523,9.848,0.996,1.970,-0.865020,0.183153,0.774265,100138.16,-37,-173,+30
86533,10.031,1.281,1.243,-0.570763,0.182621,0.827476,100140.20,-35,-177,+29
86543,9.836,0.506,0.856,-0.302048,0.184749,0.896118,100138.84,-32,-179,+29
86553,9.155,-0.684,0.459,-0.132837,0.197520,0.870045,100138.84,-32,-179,+29
86558,8.859,-1.350,0.523,-0.063130,0.233171,0.761494,100140.95,-29,-180,+30
86568,9.067,-1.893,0.970,-0.049828,0.287446,0.609843,100139.34,-28,-182,+30
86578,9.777,-2.271,1.568,-0.195094,0.323098,0.493311,100138.12,-28,-182,+30
86588,10.104,-2.081,2.139,-0.509570,0.301281,0.505549,100137.07,-26,-183,+29
86598,9.952,-1.002,2.330,-0.764451,0.266162,0.537476,100137.07,-24,-185,+28
86608,9.644,-0.225,2.215,-0.789992,0.241685,0.583238,100142.17,-22,-189,+27
86618,9.556,0.063,1.986,-0.647387,0.233171,0.625806,100137.67,-22,-189,+27
86628,9.753,-0.426,1.764,-0.449442,0.241685,0.655604,100137.30,-20,-189,+26
86638,9.960,-1.294,1.610,-0.342488,0.252859,0.663054,100136.83,-17,-192,+26
86648,9.978,-1.395,1.698,-0.365369,0.268823,0.676357,100136.83,-15,-193,+25
86659,9.708,-1.332,1.871,-0.420176,0.281593,0.705091,100141.45,-15,-193,+25
86668,9.467,-1.231,1.899,-0.465405,0.288511,0.742338,100141.40,-12,-195,+25
86678,9.412,-1.165,1.841,-0.464873,0.292767,0.787568,100137.46,-10,-197,+23
86688,9.337,-1.243,1.680,-0.441460,0.302345,0.829604,100138.10,-7,-199,+23
86697,9.310,-1.197,1.744,-0.422837,0.308731,0.866852,100138.10,-7,-199,+23
86708,9.261,-1.001,1.943,-0.410066,0.307667,0.910485,100138.58,-5,-201,+22
86718,9.400,-0.638,2.059,-0.374415,0.288511,0.973274,100138.11,-1,-203,+22
86728,9.633,-0.070,2.220,-0.281295,0.272015,1.064265,100139.00,+2,-205,+21
86738,9.936,-0.070,2.285,-0.151993,0.260309,1.183457,100136.53,+2,-205,+21
86748,10.044,-0.310,2.020,-0.054617,0.253923,1.314356,100136.53,+5,-207,+22
86758,10.333,-0.450,1.831,-0.026415,0.252859,1.450044,100142.17,+10,-209,+22
86768,11.004,-0.802,1.502,-0.041846,0.239556,1.595310,100139.97,+15,-210,+22
86778,11.454,-0.618,1.151,-0.063130,0.227318,1.758136,100138.97,+15,-210,+22
86788,11.688,-0.242,1.032,-0.037057,0.216144,1.947567,100137.09,+21,-211,+22
86794,12.161,-0.383,0.927,0.013493,0.219336,2.102411,100137.09,+29,-214,+22
86803,12.847,-0.936,0.633,0.077347,0.223593,2.252998,100137.09,+29,-214,+22
86813,13.536,-0.990,1.026,0.175787,0.224125,2.445090,100140.92,+37,-215,+22
86823,13.932,-0.583,2.156,0.277420,0.203905,2.636649,100138.88,+44,-216,+23
86834,14.248,-0.872,3.184,0.309346,0.231043,2.804264,100138.67,+53,-218,+23
86843,14.906,-1.735,3.239,0.164080,0.282657,2.925585,100139.54,+53,-218,+23
86853,15.958,-1.813,2.534,-0.161039,0.314052,3.027750,100139.23,+62,-218,+25
86863,17.555,-1.279,1.369,-0.512763,0.322566,3.105970,100136.13,+73,-220,+22
86873,20.051,-0.425,1.339,-0.838414,0.278400,3.149071,100136.13,+83,-222,+19
86883,22.563,2.589,1.655,-1.159809,0.248070,3.168227,100137.91,+83,-222,+19
86893,23.497,4.693,1.464,-1.383827,0.311391,3.249107,100140.38,+94,-224,+15
86903,24.007,6.550,0.471,-1.684469,0.349171,3.303382,100140.38,+105,-228,+11
86914,23.261,10.095,0.026,-2.142083,0.379501,3.257089,100139.84,+116,-231,+3
86923,19.390,10.641,-0.659,-2.523606,0.328951,3.242190,100142.14,+116,-231,+3
86933,15.861,8.402,-2.486,-2.671532,0.217208,3.171419,100141.36,+127,-234,-4
86943,12.821,4.405,-0.263,-2.156982,0.203373,3.110759,100138.84,+138,-235,-11
86953,10.975,-2.804,0.688,-0.850653,0.085245,3.286887,100138.84,+148,-234,-14
86964,11.477,-7.992,2.524,0.196007,0.009153,3.322538,100140.52,+148,-234,-14
86973,14.204,-7.264,5.682,0.203457,-0.095141,3.165034,100137.55,+160,-229,-14
86983,15.911,-8.230,6.438,-0.403681,-0.150480,3.148006,100138.59,+169,-227,-15
86993,14.194,-7.604,6.901,-0.322268,-0.111104,3.123529,100138.59,+179,-224,-16
87003,10.086,-5.315,8.718,0.042759,-0.006810,2.798943,100138.59,+179,-224,-16
87013,7.200,0.061,6.980,0.479622,-0.013728,2.282796,100139.72,+187,-220,-16
87023,7.275,4.594,1.988,0.632337,-0.147819,1.458558,100139.00,+193,-218,-15
87033,6.262,3.669,0.749,0.959052,-0.071728,0.880687,100140.45,+195,-216,-13
87044,4.340,4.900,2.262,1.246392,0.085245,0.549182,100136.53,+195,-216,-13
87053,3.146,5.757,1.051,0.944685,-0.114829,-0.020707,100136.53,+197,-213,-10
87063,1.973,5.644,0.402,0.697254,-0.272865,-0.615606,100141.13,+195,-213,-8
87073,1.585,5.272,0.380,0.779199,-0.364920,-1.125367,100138.75,+192,-214,-6
87084,2.378,3.742,1.081,0.778135,-0.470810,-1.445165,100138.98,+192,-214,-6
87094,2.615,1.420,1.817,0.905309,-0.583617,-1.764963,100138.98,+186,-215,-5
87103,2.529,0.013,2.764,0.979273,-0.660773,-2.208742,100137.25,+179,-216,-1
87113,2.760,-0.260,2.904,0.882429,-0.808168,-2.758944,100137.25,+170,-217,+1
87123,3.403,0.081,2.421,0.764300,-0.964076,-3.283604,100137.83,+170,-217,+1
87134,4.275,0.337,2.115,0.681823,-1.058791,-3.684815,100135.89,+158,-218,+3
87143,4.983,0.263,1.965,0.611585,-1.121048,-4.005677,100138.34,+144,-221,+6
87149,5.344,0.053,2.000,0.536025,-1.165213,-4.227567,100138.34,+144,-221,+6
87158,5.654,-0.205,2.010,0.459401,-1.206186,-4.440411,100137.90,+130,-223,+6
87169,6.249,-0.497,2.069,0.358301,-1.236516,-4.719236,100135.01,+114,-224,+8
87178,6.714,-0.747,2.418,0.254539,-1.237580,-4.965071,100134.76,+96,-226,+9
87188,6.947,-0.781,2.437,0.167273,-1.220553,-5.210906,100134.70,+96,-226,+9
87198,7.577,-0.811,2.518,0.113530,-1.164149,-5.452484,100134.70,+78,-224,+9
87208,8.568,-0.649,2.828,0.095438,-1.085929,-5.669584,100135.52,+59,-223,+8
87219,9.777,-0.399,2.925,0.073090,-1.026865,-5.869125,100134.47,+39,-221,+6
87228,11.108,-0.295,2.704,0.128429,-0.951837,-6.073456,100134.63,+39,-221,+6
87238,12.545,-0.323,2.548,0.276356,-0.827324,-6.277254,100135.25,+19,-216,+6
87248,14.023,-0.552,2.387,0.470576,-0.704938,-6.467217,100135.25,+0,-209,+6
87259,15.474,-0.960,1.993,0.613713,-0.632571,-6.641217,100137.72,-19,-199,+6
87268,17.390,-1.403,1.808,0.713218,-0.591599,-6.770519,100136.98,-19,-199,+6
87278,19.692,-1.978,2.170,0.838264,-0.558076,-6.814684,100135.16,-38,-188,+7
87288,21.996,-3.273,2.656,0.937768,-0.553819,-6.774776,100136.58,-57,-174,+8
87299,24.053,-5.302,3.019,0.929786,-0.573507,-6.649199,100136.58,-73,-158,+8
87309,24.712,-7.574,3.524,0.841456,-0.587342,-6.400171,100138.34,-73,-158,+8
87318,23.519,-9.633,4.606,0.815383,-0.571379,-5.978740,100136.40,-86,-142,+8
87328,21.821,-11.675,6.620,1.018649,-0.502737,-5.370539,100137.35,-98,-127,+8
87339,19.773,-13.685,8.400,1.394850,-0.376095,-4.664429,100137.09,-107,-112,+10
87349,17.209,-17.771,9.677,1.549694,-0.223379,-3.997163,100137.09,-107,-112,+10
87358,12.906,-23.265,9.942,1.416667,-0.031820,-3.374595,100141.54,-114,-99,+12
87368,9.799,-24.850,10.073,0.896263,0.150162,-2.637091,100140.80,-117,-89,+13
87378,8.712,-22.946,9.179,0.347658,0.303410,-1.396211,100138.55,-119,-85,+15
87384,9.323,-18.591,7.229,0.127365,0.350235,-0.234615,100138.13,-119,-85,+15
87393,10.797,-14.784,5.170,0.428539,0.446547,0.865788,100138.13,-117,-85,+16
87403,12.188,-13.151,4.747,1.434759,0.696639,2.122631,100138.13,-113,-89,+20
87413,13.731,-11.212,2.369,2.206850,0.646088,2.896318,100137.80,-113,-89,+20
87424,13.209,-9.487,-1.760,2.334556,0.531685,3.419914,100141.73,-108,-93,+25
87434,21.846,23.767,-15.048,1.391658,-0.272865,2.736154,100142.38,-104,-99,+25
87444,19.556,31.500,-12.314,0.669053,-0.187728,0.823751,100142.38,-103,-99,+27
87453,15.931,-2.168,-0.680,3.682922,0.723244,2.580777,100146.23,-103,-99,+27
87463,16.766,-20.068,3.116,4.918481,1.379868,3.461951,100146.23,-97,-98,+36
87474,14.769,-15.091,2.727,3.458372,1.361244,3.649254,100140.73,-89,-98,+45
87483,11.714,-6.619,0.420,1.093676,0.979189,2.955383,100140.84,-83,-103,+48
87493,8.331,-3.057,4.285,0.409383,1.181923,2.487126,100141.98,-83,-103,+48
87504,7.036,-1.985,6.864,0.783634,1.455605,2.302129,100139.71,-76,-108,+52
87514,9.041,-3.493,5.826,0.658943,1.326125,1.986411,100139.71,-69,-111,+55
87524,11.629,-5.456,2.445,-0.084415,1.023886,1.847530,100138.66,-65,-116,+58
87533,12.451,-3.637,1.914,-0.696341,0.877556,1.759732,100140.96,-65,-116,+58
87543,10.887,-1.585,2.439,-1.020396,0.724308,1.711842,100138.66,-59,-121,+59
87554,9.464,-1.069,1.258,-1.089570,0.540198,1.692686,100141.38,-55,-128,+58
87564,10.087,-1.171,1.266,-0.905460,0.515189,1.638943,100141.28,-51,-133,+57
87574,10.596,-1.100,1.636,-0.696341,0.505079,1.575622,100139.66,-51,-133,+57
87583,9.972,-1.064,1.570,-0.578213,0.423134,1.456962,100139.66,-47,-137,+57
87593,9.394,-0.129,1.386,-0.456360,0.383226,1.356925,100136.61,-44,-141,+57
87604,9.666,0.460,1.053,-0.280231,0.388547,1.301586,100136.61,-40,-143,+57
87613,9.808,0.001,1.333,0.031053,0.413024,1.259017,100141.22,-40,-143,+57
87623,9.714,-0.846,1.832,0.327970,0.387483,1.158448,100140.75,-36,-146,+59
87633,9.465,-1.580,2.156,0.437053,0.343318,1.030210,100137.92,-33,-147,+60
87644,9.572,-2.187,2.233,0.288594,0.292767,0.934962,100141.22,-31,-148,+61
87654,9.837,-2.182,2.007,-0.017901,0.236364,0.847696,100141.22,-31,-148,+61
87664,9.775,-1.294,1.830,-0.355259,0.187942,0.776925,100141.76,-28,-149,+62
87673,9.623,-0.214,1.588,-0.544158,0.163997,0.734357,100140.29,-28,-152,+60
87684,9.648,-0.026,1.142,-0.497864,0.178896,0.710412,100137.37,-25,-154,+59
87694,9.654,-0.383,0.727,-0.352066,0.201777,0.698173,100137.37,-24,-155,+59
87703,9.718,-0.945,0.634,-0.175938,0.229979,0.675292,100137.37,-24,-155,+59
87713,9.707,-1.470,0.887,-0.054085,0.244878,0.626338,100141.15,-21,-157,+60
87724,9.607,-2.089,1.448,-0.076433,0.242749,0.573127,100141.41,-19,-159,+60
87734,9.709,-2.297,1.904,-0.269589,0.218804,0.527898,100142.77,-17,-160,+59
87739,9.781,-1.985,2.125,-0.454763,0.193795,0.500760,100138.74,-17,-160,+59
87748,9.697,-1.431,2.034,-0.590983,0.165061,0.488522,100138.74,-16,-162,+58
87758,9.651,-0.530,1.927,-0.651112,0.135795,0.491183,100141.66,-16,-162,+58
87769,9.576,-0.129,1.846,-0.569699,0.127813,0.524173,100142.08,-14,-165,+57
87779,9.667,-0.431,1.593,-0.449442,0.129410,0.564082,100139.19,-13,-167,+57
87788,9.778,-0.886,1.491,-0.380800,0.140584,0.592283,100140.77,-11,-168,+56
87798,9.799,-1.152,1.563,-0.378139,0.156547,0.618357,100140.77,-11,-168,+56
87809,9.722,-1.473,1.468,-0.419112,0.170914,0.643366,100143.63,-10,-170,+56
87819,9.624,-1.528,1.145,-0.474451,0.189538,0.668375,100140.75,-7,-173,+55
87829,9.513,-1.095,1.225,-0.473919,0.200712,0.699770,100141.22,-5,-174,+54
87838,9.205,-0.564,1.174,-0.398360,0.199116,0.757770,100142.53,-5,-174,+54
87848,9.061,-0.248,1.191,-0.256818,0.204969,0.835990,100142.53,-3,-176,+54
87859,9.070,-0.406,1.339,-0.054262,0.198407,0.927513,100142.37,-1,-178,+53
87869,9.431,-0.568,1.547,0.076282,0.202309,1.006265,100140.27,+1,-179,+54
87878,9.789,-0.718,1.737,0.165145,0.209758,1.104173,100141.90,+1,-179,+54
87888,10.152,-0.870,2.083,0.202392,0.199648,1.206338,100138.65,+5,-179,+55
87899,10.357,-0.988,2.104,0.187493,0.178896,1.313824,100138.65,+8,-181,+54
87909,10.406,-0.637,2.436,0.173126,0.174107,1.441531,100143.55,+13,-182,+56
87918,10.467,-0.228,2.284,0.209310,0.148034,1.594778,100142.23,+13,-182,+56
87928,11.299,-0.431,2.356,0.301365,0.125685,1.769842,100142.34,+17,-183,+57
87939,11.477,-0.848,1.799,0.364154,0.127281,1.941714,100140.45,+22,-184,+57
87949,11.762,-0.886,0.795,0.340741,0.133667,2.146044,100140.45,+28,-185,+57
87959,12.463,-0.976,0.103,0.374796,0.149630,2.364741,100145.23,+35,-186,+59
87968,13.597,-1.440,0.024,0.421622,0.172511,2.549383,100139.20,+35,-186,+59
87979,14.227,-1.949,0.487,0.368943,0.203905,2.676025,100142.91,+42,-187,+61
87989,14.628,-2.133,1.103,0.154502,0.236364,2.714337,100138.99,+49,-189,+62
87999,15.585,-2.028,1.240,-0.100910,0.274676,2.749456,100138.99,+57,-190,+61
88008,17.020,-1.476,1.211,-0.327057,0.287446,2.850557,100141.94,+57,-190,+61
88018,18.815,-0.539,1.709,-0.468066,0.218804,2.985181,100141.83,+66,-193,+60
88029,20.746,0.300,2.057,-0.573956,0.172511,3.092135,100139.00,+74,-196,+59
88039,22.909,1.630,1.791,-0.919827,0.208162,3.151199,100138.33,+83,-197,+57
88048,25.119,5.185,1.522,-1.453001,0.222529,3.226227,100138.33,+83,-197,+57
88058,25.401,10.164,1.016,-1.878157,0.241685,3.340630,100144.65,+92,-202,+52
88069,23.425,11.764,0.197,-2.140487,0.265098,3.450777,100144.23,+101,-207,+47
88079,20.673,10.713,-1.608,-2.330450,0.216676,3.351272,100141.24,+110,-212,+41
88089,16.346,9.469,-1.188,-2.335771,0.132070,3.166098,100138.95,+110,-212,+41
88094,13.262,6.922,0.681,-1.892524,0.051190,3.130447,100138.95,+119,-215,+36
88103,10.835,1.763,2.660,-0.683570,-0.082902,3.252300,100138.95,+119,-215,+36
88114,10.975,-7.494,3.349,0.992575,-0.297874,3.385327,100140.66,+127,-213,+36
88124,13.522,-11.968,8.345,1.270337,-0.221251,3.646593,100140.82,+136,-209,+38
88134,16.354,-12.507,8.413,0.991511,-0.249452,3.770043,100137.16,+145,-205,+40
88143,14.100,-7.972,8.897,0.740355,-0.215397,3.276777,100138.77,+145,-205,+40
88154,9.240,-1.276,7.559,0.233787,-0.284572,2.531823,100138.81,+152,-202,+42
88164,6.879,5.407,3.777,-0.211589,-0.328205,1.726209,100140.02,+156,-201,+41
88174,6.521,7.408,1.830,-0.100910,-0.391526,1.054687,100140.02,+157,-201,+40
88183,5.586,6.696,2.860,0.453016,-0.409617,0.809384,100138.41,+157,-201,+40
88194,5.128,5.101,2.262,0.458869,-0.633103,0.535348,100140.23,+157,-200,+40
88204,3.752,3.396,1.579,0.332759,-0.852865,-0.012193,100140.23,+155,-199,+42
88214,2.692,2.227,2.071,0.205585,-0.978975,-0.563459,100139.70,+151,-199,+40
88223,2.243,1.553,2.822,0.115126,-1.100296,-0.963073,100136.91,+146,-201,+40
88233,1.983,1.110,2.915,0.240172,-1.208846,-1.400468,100138.76,+146,-201,+40
88244,1.960,0.853,2.786,0.485475,-1.313672,-1.909165,100137.24,+137,-202,+40
88254,2.310,0.968,2.517,0.725988,-1.426479,-2.440210,100141.02,+128,-203,+42
88264,2.832,1.386,2.296,0.958520,-1.525452,-2.915916,100137.30,+116,-203,+44
88273,3.221,1.679,2.546,1.217658,-1.572809,-3.308081,100135.73,+116,-203,+44
88284,3.611,1.541,3.185,1.432098,-1.590369,-3.627879,100134.52,+103,-202,+47
88294,4.134,1.191,3.787,1.576300,-1.621763,-3.913622,100134.52,+88,-199,+50
88303,4.784,0.677,4.339,1.675804,-1.629213,-4.211071,100134.52,+73,-197,+54
88313,5.549,0.108,5.085,1.705070,-1.615378,-4.521823,100135.29,+73,-197,+54
88324,5.978,-0.189,5.498,1.640685,-1.641984,-4.830979,100134.45,+56,-193,+57
88334,6.473,-0.302,5.505,1.551291,-1.667525,-5.115658,100131.41,+39,-187,+60
88344,7.312,-0.339,5.440,1.516171,-1.620167,-5.351383,100128.79,+21,-180,+61
88354,8.515,-0.081,5.594,1.520960,-1.528644,-5.564227,100128.79,+21,-180,+61
88364,10.044,0.162,5.672,1.543841,-1.453617,-5.756318,100132.93,+3,-172,+64
88374,11.494,0.066,5.485,1.632171,-1.369543,-5.934575,100133.93,-14,-161,+65
88384,12.747,-0.177,5.320,1.747107,-1.256736,-6.121878,100133.46,-30,-147,+67
88394,14.218,-0.608,5.156,1.833841,-1.135415,-6.308116,100133.46,-30,-147,+67
88403,16.004,-1.043,5.139,1.913125,-1.024204,-6.454446,100136.04,-46,-132,+69
88414,18.107,-1.820,5.534,1.991878,-0.858718,-6.533731,100136.04,-60,-115,+70
88424,20.065,-2.969,6.336,1.929089,-0.711324,-6.566721,100136.87,-73,-95,+71
88434,20.715,-3.691,7.413,1.759878,-0.596388,-6.587473,100135.24,-73,-95,+71
88443,20.389,-3.713,8.230,1.611951,-0.476663,-6.524153,100134.15,-83,-76,+72
88454,21.120,-5.297,7.618,1.516703,-0.287232,-6.367180,100134.15,-91,-55,+73
88464,21.596,-10.433,7.654,1.188924,-0.214333,-6.092612,100135.27,-96,-37,+74
88474,20.294,-11.883,6.916,0.764300,-0.288829,-5.708428,100135.07,-96,-37,+74
88484,20.270,-11.478,7.397,0.385970,-0.181342,-5.123107,100134.80,-99,-20,+73
88494,19.548,-13.329,8.179,0.288062,-0.098333,-4.464888,100132.70,-102,-6,+72
88504,17.791,-19.694,10.168,0.323713,0.068749,-3.859347,100134.43,-102,+4,+74
88514,11.521,-20.825,11.352,-0.140818,0.159740,-3.274026,100137.77,-102,+4,+74
88524,8.647,-19.403,10.473,-0.612268,0.361942,-2.352944,100135.26,-102,+11,+74
88534,9.906,-16.178,8.090,-0.777222,0.566272,-0.935936,100135.26,-101,+14,+75
88544,11.229,-11.740,4.535,-0.142947,0.767941,0.494907,100133.96,-99,+11,+77
88554,11.895,-12.062,2.763,1.104851,0.975996,1.674595,100133.96,-99,+11,+77
88564,11.788,-16.739,3.950,2.063712,1.197354,2.624410,100141.45,-96,+11,+81
88573,13.948,-14.722,1.648,2.040832,1.127116,3.115016,100140.61,-92,+8,+84
88584,16.305,-5.265,-7.524,1.153273,0.515721,2.925052,100138.20,-92,+5,+85
88594,18.694,12.530,-16.954,0.321585,0.092162,2.437640,100138.78,-92,+5,+85
88604,20.526,35.299,-19.743,-0.503185,-0.344168,0.790228,100138.78,-92,+0,+86
88614,13.577,10.697,-2.981,2.048281,0.413556,1.698007,100141.00,-91,+0,+86
88624,14.270,-12.577,0.961,4.531106,0.972272,2.995823,100138.59,-88,+4,+89
88634,14.382,-16.464,3.153,4.175124,1.224492,3.126190,100136.45,-88,+4,+89
88644,14.303,-11.109,-0.500,1.988685,0.993024,2.714337,100136.45,-84,+9,+93
88653,12.315,-5.732,1.713,0.414704,0.966418,2.151897,100136.45,-82,+5,+94
88664,8.606,-0.430,8.333,0.529640,1.253758,2.063567,100144.50,-78,+1,+97
88674,10.201,0.257,8.858,0.905841,1.374014,1.800173,100139.06,-74,+1,+101
88684,12.295,-3.676,3.533,0.064044,0.995685,1.749090,100139.80,-74,+0,+101
88694,10.549,-3.670,1.023,-0.707515,0.775923,1.846998,100138.95,-71,-5,+101
88704,9.116,-1.810,2.832,-1.016139,0.647153,1.768246,100138.95,-69,-13,+103
88714,9.398,-1.156,2.549,-1.246542,0.493373,1.736851,100140.45,-68,-21,+105
88724,10.097,-0.308,1.502,-1.436506,0.452400,1.637879,100138.51,-68,-21,+105
88734,9.656,-0.483,1.190,-1.302414,0.435373,1.530393,100138.62,-67,-29,+105
88744,9.657,-0.827,-0.073,-0.870341,0.420474,1.397365,100138.62,-64,-34,+105
88754,10.420,0.439,-0.144,-0.478708,0.463575,1.290944,100142.43,-61,-39,+106
88764,10.694,0.220,0.459,-0.246176,0.471556,1.331916,100142.43,-61,-39,+106
88774,10.427,-0.802,0.774,-0.070580,0.461978,1.334576,100140.60,-59,-42,+107
88783,9.999,-0.188,0.959,0.051273,0.461978,1.257421,100138.51,-58,-45,+108
88794,9.454,-0.863,2.970,0.112998,0.456657,1.231879,100139.71,-55,-47,+108
88804,9.535,-2.776,3.596,-0.274378,0.336933,1.194632,100139.71,-55,-47,+108
88814,9.571,-2.160,3.365,-0.868212,0.216676,1.026485,100141.21,-53,-51,+108
88824,9.134,-0.398,2.278,-1.184286,0.129942,0.818430,100139.16,-52,-57,+109
88835,9.328,0.543,1.204,-1.030506,0.121960,0.598669,100137.65,-51,-61,+108
88844,9.961,0.889,0.969,-0.644194,0.161868,0.513531,100138.12,-51,-61,+108
88854,10.196,0.791,0.903,-0.300983,0.171979,0.582705,100140.98,-51,-65,+108
88864,9.989,-0.307,1.100,-0.026947,0.187942,0.641237,100139.00,-49,-67,+108
88875,9.912,-1.665,1.506,0.023071,0.197520,0.645494,100138.05,-48,-67,+108
88884,9.774,-1.950,1.838,-0.129644,0.184217,0.635384,100138.05,-48,-67,+108
88894,9.538,-1.235,2.012,-0.337167,0.167190,0.616228,100139.98,-47,-69,+110
88904,9.425,-0.368,2.245,-0.431882,0.153355,0.596540,100139.98,-46,-72,+109
88914,9.333,0.168,2.213,-0.393038,0.143777,0.594412,100142.49,-45,-74,+109
88924,9.216,0.209,2.048,-0.276506,0.149630,0.633256,100138.20,-45,-74,+109
88934,9.252,0.108,1.843,-0.122727,0.158144,0.689659,100138.87,-43,-76,+109
88944,9.323,0.173,2.126,0.028392,0.173575,0.740742,100136.26,-42,-77,+110
88954,9.170,0.480,2.613,0.127897,0.201777,0.773201,100136.26,-41,-78,+110
88965,8.768,0.996,3.147,0.186961,0.231575,0.774265,100141.36,-41,-78,+110
88974,8.332,0.748,3.536,0.219420,0.242217,0.772136,100139.95,-39,-79,+111
88984,8.230,-0.143,3.316,0.225805,0.236364,0.809916,100135.34,-38,-79,+111
88994,8.451,-1.099,2.399,0.223677,0.224657,0.861531,100135.34,-35,-80,+111
89004,9.256,-3.202,0.852,0.134282,0.185281,0.950925,100135.34,-35,-80,+111
89014,10.333,-3.119,-0.956,-0.068451,0.143777,1.002540,100139.84,-34,-81,+113
89024,10.419,-1.420,-1.160,-0.136029,0.183685,1.027017,100141.04,-32,-84,+113
89034,10.301,-1.094,-0.562,-0.059938,0.194859,1.099916,100140.37,-30,-87,+113
89039,10.389,-0.316,0.013,0.027328,0.191667,1.173347,100140.62,-30,-87,+113
89049,10.258,0.379,0.860,0.180044,0.211355,1.260081,100140.62,-28,-89,+113
89059,10.205,-0.376,1.697,0.340741,0.192731,1.420246,100140.96,-25,-89,+115
89069,10.228,-0.280,1.641,0.391291,0.179960,1.579879,100140.60,-25,-89,+115
89079,10.414,-0.583,1.769,0.455677,0.177832,1.742173,100138.13,-22,-91,+116
89089,11.320,-1.074,2.125,0.528044,0.146437,1.895420,100138.71,-19,-92,+116
89099,11.914,-1.628,1.983,0.507291,0.143777,2.034833,100138.71,-17,-94,+118
89109,12.053,-1.832,1.163,0.399273,0.144841,2.166796,100139.57,-17,-94,+118
89119,12.753,-1.895,0.567,0.335952,0.143245,2.303016,100140.30,-13,-95,+118
89129,13.835,-2.038,0.750,0.310943,0.166125,2.403585,100137.52,-8,-99,+118
89139,14.516,-1.816,1.520,0.242301,0.185281,2.480209,100137.52,-4,-101,+119
89149,14.914,-1.654,2.262,0.136943,0.208694,2.571199,100137.52,-4,-101,+119
89159,15.473,-1.899,2.342,-0.031736,0.255520,2.678686,100138.33,+0,-104,+120
89169,16.196,-1.626,2.323,-0.281295,0.293300,2.785108,100139.84,+4,-109,+120
89179,17.415,-1.319,1.952,-0.567038,0.281061,2.888337,100136.39,+10,-113,+118
89189,19.974,-0.491,2.002,-0.921956,0.241685,2.969750,100136.86,+10,-113,+118
89199,22.975,2.001,1.380,-1.360946,0.202309,3.029878,100136.86,+16,-120,+118
89209,24.306,5.157,-0.051,-1.818560,0.199648,3.156520,100137.25,+22,-129,+115
89219,23.364,9.901,-0.158,-2.203808,0.189006,3.289548,100138.39,+29,-139,+111
89229,20.776,12.478,-0.014,-2.231478,0.170382,3.426832,100138.14,+29,-139,+111
89239,18.583,11.579,-0.544,-1.984579,0.104401,3.410869,100138.14,+37,-150,+108
89249,16.137,9.174,0.065,-1.649882,0.027777,3.249107,100138.14,+43,-157,+105
89260,13.392,5.667,1.914,-0.987937,-0.024902,3.145878,100138.67,+50,-163,+103
89269,11.381,-1.341,3.929,0.313071,-0.057893,3.261346,100138.30,+50,-163,+103
89279,11.422,-7.897,5.955,1.146887,-0.166975,3.403951,100138.67,+57,-161,+105
89289,13.653,-8.734,7.519,0.984594,-0.309581,3.468337,100137.89,+64,-159,+107
89299,15.492,-7.166,8.201,0.966502,-0.267544,3.550813,100137.89,+71,-157,+110
89309,13.522,-4.524,6.703,0.945218,-0.289893,3.150135,100140.37,+71,-157,+110
89319,9.103,-1.298,4.686,0.682355,-0.419728,2.473291,100137.48,+76,-155,+111
89329,6.859,2.091,2.353,0.180044,-0.601709,1.639475,100139.57,+78,-154,+111
89339,6.246,3.322,1.065,0.014026,-0.736333,1.016907,100137.23,+78,-155,+112
89349,6.065,4.751,1.437,0.185365,-0.826259,0.644962,100137.23,+78,-155,+112
89359,5.381,4.885,1.325,0.350319,-1.005580,0.310265,100140.23,+76,-154,+112
89369,3.950,3.981,1.502,0.493989,-1.182241,-0.089349,100139.81,+73,-153,+113
89379,2.788,3.249,2.294,0.690869,-1.266314,-0.535257,100136.36,+67,-150,+113
89390,2.271,2.577,3.081,0.945218,-1.321653,-0.969459,100137.72,+67,-150,+113
89395,2.148,1.903,3.293,1.150080,-1.395085,-1.304156,100137.72,+60,-145,+115
89404,2.071,1.110,3.397,1.315034,-1.481819,-1.655348,100137.72,+51,-141,+118
89414,2.192,0.302,3.657,1.458704,-1.578130,-2.120944,100136.73,+51,-141,+118
89424,2.615,0.032,3.550,1.474667,-1.656351,-2.614210,100137.00,+41,-134,+119
89435,3.134,0.426,3.280,1.378355,-1.715947,-3.111201,100135.17,+30,-127,+120
89444,3.671,0.725,3.300,1.232025,-1.746277,-3.532099,100133.74,+17,-120,+120
89454,4.328,0.675,3.590,1.066007,-1.760644,-3.875842,100133.90,+17,-120,+120
89464,4.656,0.549,4.014,0.913291,-1.758516,-4.203622,100135.84,+5,-112,+120
89475,4.946,0.519,4.427,0.754190,-1.743617,-4.535658,100135.84,-8,-104,+119
89484,5.513,0.543,4.333,0.627548,-1.728717,-4.856521,100135.88,-20,-94,+117
89494,6.499,0.357,4.132,0.584979,-1.671782,-5.137475,100131.80,-20,-94,+117
89504,7.694,-0.135,3.987,0.597750,-1.574938,-5.384374,100131.80,-34,-84,+115
89515,8.703,-0.538,3.976,0.578594,-1.461066,-5.604667,100128.50,-45,-72,+113
89524,9.655,-0.512,3.901,0.523787,-1.356241,-5.822300,100129.23,-56,-58,+111
89534,10.926,-0.262,3.597,0.534961,-1.248222,-6.017584,100127.25,-56,-58,+111
89544,12.398,-0.073,3.502,0.684484,-1.089654,-6.184667,100126.98,-65,-43,+108
89554,14.118,-0.231,3.668,0.897328,-0.904480,-6.341639,100134.05,-72,-25,+106
89565,15.869,-0.540,3.808,1.069731,-0.753892,-6.507657,100134.98,-78,-7,+105
89574,17.771,-0.736,4.160,1.241071,-0.622461,-6.651327,100132.83,-78,-7,+105
89584,20.270,-1.121,5.193,1.526281,-0.456443,-6.725822,100132.20,-80,+14,+103
89594,22.676,-2.607,6.536,1.906208,-0.271801,-6.708262,100132.20,-79,+36,+101
89605,22.883,-4.981,7.325,2.185565,-0.144095,-6.603969,100132.20,-76,+61,+99
89614,21.863,-8.458,5.513,2.061052,-0.073324,-6.402832,100133.63,-76,+61,+99
89624,21.651,-14.955,4.610,1.265016,-0.135581,-6.001621,100132.47,-71,+83,+97
89629,20.004,-13.889,4.248,0.847842,-0.350021,-5.592960,100134.36,-66,+100,+94
89639,19.373,-10.629,4.166,0.481218,-0.413874,-5.170998,100133.72,-66,+100,+94
89649,18.998,-10.989,6.642,0.497181,-0.369177,-4.525016,100133.72,-61,+113,+92
89659,15.480,-16.496,11.012,0.887218,-0.223379,-3.949805,100136.38,-55,+124,+89
89669,8.266,-21.749,13.416,0.238576,-0.011067,-3.294778,100136.22,-49,+133,+89
89679,6.510,-21.370,11.810,-0.803827,0.201245,-2.223642,100137.11,-49,+133,+89
89690,8.837,-15.789,9.029,-1.077864,0.319905,-0.576230,100134.91,-47,+133,+91
89699,11.608,-10.130,5.185,0.143328,0.582767,0.905696,100134.91,-46,+131,+93
89709,13.657,-10.402,4.784,1.643346,0.905226,2.073677,100138.90,-47,+132,+92
89719,14.807,-12.072,3.581,2.377657,0.911079,2.783511,100140.05,-47,+132,+92
89730,13.578,-15.832,-1.567,2.194611,0.643960,3.136832,100137.80,-49,+134,+89
89739,23.265,10.498,-14.935,1.333126,-0.099397,2.970814,100137.48,-54,+132,+88
89750,20.901,28.562,-14.773,-0.636745,-0.367049,0.774265,100137.48,-56,+129,+88
89759,14.350,1.361,-1.555,1.732740,0.513061,2.092833,100139.80,-56,+129,+88
89769,17.751,-14.302,1.184,3.733473,1.014840,3.314025,100138.59,-59,+131,+85
89780,16.179,-11.431,2.788,3.450390,1.271849,3.705125,100137.23,-60,+134,+81
89789,12.641,-6.909,1.404,2.003584,1.184583,3.293805,100138.39,-62,+133,+82
89799,10.771,-4.718,2.836,1.422520,1.269721,2.769144,100138.39,-62,+133,+82
89809,7.293,-1.140,4.449,1.468814,1.292602,2.507879,100138.29,-62,+130,+83
89820,4.675,1.814,6.810,1.906740,1.380932,2.139126,100137.88,-62,+131,+82
89829,6.912,-2.215,6.932,1.762538,1.195758,1.800173,100138.98,-62,+131,+83
89839,11.059,-6.785,3.717,0.779731,0.843501,1.672466,100134.59,-62,+131,+83
89849,10.872,-6.038,1.448,-0.380800,0.606712,1.682576,100134.59,-62,+129,+84
89860,11.415,-3.626,-0.691,-1.288047,0.423134,1.593182,100140.32,-63,+123,+87
89869,12.175,-3.105,-0.412,-1.793551,0.337465,1.568173,100138.05,-65,+113,+89
89879,10.698,-2.030,-0.179,-2.013313,0.309795,1.428760,100139.05,-65,+113,+89
89889,8.904,-0.828,-0.692,-1.575386,0.390676,1.145145,100137.54,-66,+105,+94
89900,9.273,1.337,-0.838,-0.792121,0.504547,1.008393,100137.54,-67,+99,+96
89910,10.064,3.194,-0.091,0.017750,0.645556,1.032338,100139.72,-66,+95,+96
89919,10.266,1.891,1.637,0.689273,0.723776,1.146210,100137.05,-65,+95,+97
89929,10.043,-1.103,1.719,0.930319,0.640235,1.115879,100137.11,-65,+97,+97
89939,9.426,-3.040,2.260,0.802080,0.583299,0.957843,100137.05,-64,+97,+97
89950,9.551,-3.523,3.211,0.282741,0.482199,0.870045,100137.05,-63,+96,+98
89959,10.062,-2.726,3.797,-0.467002,0.334272,0.787036,100138.70,-64,+93,+99
89969,9.618,-0.607,3.349,-0.954946,0.182621,0.716265,100137.92,-64,+93,+99
89979,9.382,0.847,1.988,-0.954946,0.114511,0.650283,100139.13,-65,+88,+101
89985,9.604,1.073,0.959,-0.765515,0.120364,0.628467,100138.86,-65,+88,+101
89995,9.921,0.602,0.252,-0.530323,0.154419,0.641237,100138.86,-64,+84,+101
90005,10.006,-0.000,-0.112,-0.223295,0.211887,0.664650,100138.86,-64,+81,+103
90014,9.829,-0.340,0.184,0.043292,0.266694,0.648687,100139.97,-64,+79,+103
90024,9.559,-1.015,1.234,0.199732,0.297556,0.601329,100139.34,-64,+79,+103
90035,9.618,-2.192,2.225,0.066172,0.276272,0.550779,100135.66,-64,+80,+103
90045,9.809,-2.320,2.376,-0.306837,0.230511,0.476283,100135.66,-64,+78,+105
90054,9.811,-1.753,2.348,-0.687295,0.196456,0.418816,100139.98,-63,+74,+105
90064,9.820,-0.887,1.850,-0.890561,0.169318,0.389017,100139.98,-63,+74,+105
90075,9.739,-0.353,1.233,-0.888433,0.173043,0.391146,100136.88,-63,+70,+107
90085,9.728,-0.238,1.047,-0.753809,0.184749,0.426265,100134.48,-64,+67,+108
90094,9.665,0.003,1.120,-0.553203,0.192199,0.477880,100140.51,-63,+65,+109
90104,9.408,0.146,1.449,-0.343020,0.198052,0.537476,100140.51,-63,+65,+109
90115,9.230,-0.273,1.678,-0.185516,0.215079,0.600797,100141.87,-63,+63,+110
90125,9.466,-1.262,1.729,-0.115277,0.233171,0.638045,100136.79,-62,+59,+110
90135,9.687,-2.011,1.773,-0.152525,0.242217,0.638045,100139.77,-62,+59,+110
90144,9.803,-2.089,2.150,-0.248305,0.250731,0.617293,100137.65,-62,+59,+111
90155,9.909,-2.099,2.500,-0.380268,0.243281,0.592815,100141.32,-62,+56,+111
90165,9.808,-1.514,2.596,-0.559589,0.232639,0.580577,100138.07,-61,+53,+112
90175,9.491,-0.583,2.235,-0.675589,0.219336,0.614100,100141.84,-62,+50,+113
90184,9.170,0.282,1.503,-0.636213,0.206566,0.706687,100141.84,-61,+47,+113
90194,9.230,0.700,1.061,-0.457956,0.196988,0.837054,100138.80,-61,+47,+113
90205,9.690,0.917,0.891,-0.249369,0.189538,0.996687,100138.80,-61,+43,+114
90215,10.043,1.159,0.803,-0.046635,0.195391,1.185054,100138.94,-61,+40,+115
90224,10.221,0.994,0.847,0.143328,0.198584,1.399494,100138.83,-60,+37,+115
90234,10.928,0.507,0.865,0.282741,0.180492,1.611274,100140.34,-60,+37,+115
90245,11.142,0.420,1.114,0.392356,0.174639,1.823585,100138.30,-61,+35,+116
90255,11.113,-0.064,0.970,0.426411,0.186346,2.041750,100138.30,-61,+32,+116
90265,12.193,-0.649,-0.029,0.455677,0.169318,2.249805,100136.91,-61,+28,+115
90274,13.234,-0.802,-0.386,0.572741,0.137391,2.453603,100136.57,-61,+28,+115
90285,14.206,-0.740,0.541,0.737163,0.098547,2.644099,100135.10,-62,+25,+116
90295,14.587,-1.098,1.870,0.808998,0.109190,2.812245,100135.10,-62,+21,+117
90304,14.910,-1.700,2.535,0.669585,0.152290,2.930374,100135.10,-62,+17,+116
90314,15.790,-2.067,2.350,0.375328,0.170914,3.012318,100138.00,-62,+17,+116
90324,16.968,-1.561,2.051,0.029457,0.147501,3.073511,100136.28,-61,+11,+118
90335,18.210,-0.463,2.223,-0.273314,0.101208,3.140025,100135.75,-61,+3,+117
90345,19.070,-0.429,1.595,-0.584598,0.121428,3.223034,100135.17,-60,-4,+117
90354,21.499,0.450,0.493,-1.062432,0.115043,3.276777,100135.17,-60,-4,+117
90364,24.486,4.672,-0.215,-1.578047,0.061832,3.291676,100138.45,-59,-15,+118
90375,25.096,8.173,-0.246,-1.963826,0.057575,3.393841,100137.00,-58,-29,+116
90385,24.266,10.825,-0.085,-2.337900,0.174107,3.403419,100135.89,-55,-44,+116
90394,21.257,11.806,0.780,-2.702927,0.275740,3.317750,100135.89,-55,-44,+116
90404,16.973,10.525,1.859,-2.799771,0.141648,3.420447,100135.57,-52,-60,+114
90415,13.753,6.182,4.150,-1.775992,-0.043526,3.650850,100135.57,-48,-74,+111
90425,12.456,0.463,6.185,0.033714,-0.185599,3.953621,100134.26,-44,-80,+112
90434,13.148,-2.916,5.821,1.605034,-0.223911,4.087712,100131.48,-44,-80,+112
90444,14.276,-4.967,5.172,2.049877,-0.140902,4.099951,100134.10,-39,-81,+114
90455,14.254,-8.084,7.426,1.988153,0.214015,3.892960,100134.10,-34,-82,+116
90465,10.346,-8.927,8.275,1.426245,0.277336,3.277841,100132.69,-30,-81,+117
90475,5.790,-3.183,5.826,0.375328,0.005960,2.223200,100136.03,-30,-81,+117
90484,5.611,4.192,0.847,-0.644726,-0.276058,0.990301,100134.83,-28,-85,+116
90494,4.375,5.933,0.631,-0.505314,-0.256370,0.352302,100135.41,-28,-87,+115
90505,3.233,6.487,2.594,-0.113149,-0.193049,0.094229,100138.26,-30,-87,+114
90515,2.586,5.930,1.236,-0.241387,-0.562865,-0.401698,100137.05,-30,-87,+114
90525,1.316,4.450,0.443,-0.150928,-0.770920,-0.980101,100133.71,-33,-87,+112
90534,1.359,3.187,1.670,0.007640,-0.773581,-1.351514,100133.71,-38,-84,+111
90545,1.514,1.980,2.379,0.213567,-0.862443,-1.636724,100129.63,-42,-80,+109
90555,1.385,0.989,2.484,0.473236,-0.994406,-2.071458,100129.63,-42,-80,+109
90565,1.804,0.754,2.218,0.722264,-1.111470,-2.608889,100132.29,-48,-73,+107
90575,2.931,1.167,1.827,0.941138,-1.220907,-3.167604,100131.12,-55,-63,+105
90585,3.971,1.518,1.725,1.142098,-1.267910,-3.562430,100131.12,-62,-51,+103
90595,5.021,1.347,1.974,1.348025,-1.287598,-3.899787,100129.93,-62,-51,+103
90605,5.672,0.770,2.579,1.479456,-1.300901,-4.156796,100129.93,-68,-38,+100
90615,6.169,0.009,3.161,1.470942,-1.325910,-4.398374,100133.14,-74,-23,+97
90625,6.339,-0.655,3.729,1.388997,-1.347727,-4.671878,100126.83,-78,-7,+94
90635,6.569,-0.748,4.091,1.287896,-1.384442,-4.987952,100121.61,-83,-7,+89
90645,7.674,-0.885,4.182,1.189988,-1.394553,-5.282741,100121.61,-83,+7,+89
90654,9.053,-0.940,4.379,1.113364,-1.342938,-5.525383,100121.61,-85,+26,+86
90664,10.212,-0.793,4.490,1.047383,-1.268443,-5.734502,100125.40,-86,+44,+81
90675,11.138,-0.643,4.389,1.040465,-1.168938,-5.931382,100126.24,-85,+63,+76
90685,12.135,-0.534,4.178,1.155933,-1.028461,-6.132520,100127.13,-85,+63,+76
90694,13.424,-0.723,3.974,1.332594,-0.873617,-6.320354,100126.80,-82,+83,+72
90704,15.104,-1.180,3.876,1.450722,-0.725691,-6.487969,100126.80,-76,+103,+68
90715,17.281,-1.726,3.954,1.454979,-0.622993,-6.607162,100128.60,-69,+123,+64
90725,19.694,-2.294,4.437,1.432098,-0.523489,-6.686978,100127.71,-69,+123,+64
90735,20.541,-2.559,5.457,1.403896,-0.396847,-6.731143,100128.55,-57,+141,+59
90745,20.946,-3.212,5.077,1.287364,-0.282443,-6.711987,100129.63,-44,+158,+55
90755,21.986,-7.792,4.599,0.805805,-0.166443,-6.575235,100134.49,-32,+173,+52
90765,20.892,-9.984,3.729,0.285401,-0.376627,-6.275125,100134.60,-32,+173,+52
90775,20.731,-9.865,4.079,-0.030140,-0.450058,-5.764300,100134.60,-19,+185,+50
90784,20.429,-9.675,5.000,0.242301,-0.515507,-5.090117,100134.09,-7,+194,+49
90795,19.417,-12.683,7.978,0.747273,-0.384076,-4.459567,100134.87,+3,+201,+46
90805,15.554,-17.797,11.075,0.847842,-0.181342,-3.932246,100134.87,+3,+201,+46
90815,9.374,-20.699,11.461,0.291255,0.036291,-3.429402,100137.95,+13,+208,+45
90824,8.563,-22.083,10.179,-0.560121,0.281061,-2.553550,100135.68,+19,+210,+45
90834,9.339,-16.789,5.830,-1.123625,0.331611,-1.226468,100135.68,+24,+209,+47
90845,10.922,-11.679,2.287,-0.579809,0.522639,0.166596,100135.12,+24,+209,+47
90855,12.559,-11.237,2.713,0.518998,0.680143,1.464943,100137.30,+22,+207,+49
90865,13.260,-13.517,4.121,1.279915,0.829666,2.419548,100136.94,+18,+207,+46
90874,14.044,-11.362,3.502,1.372502,0.739740,2.865456,100135.73,+12,+207,+44
90885,15.028,-5.609,-2.588,1.214997,0.373116,2.895787,100133.42,+12,+207,+44
90895,16.423,4.457,-6.294,1.207548,0.303942,2.874502,100133.42,+5,+205,+41
90905,20.527,28.931,-16.091,0.523787,-0.307984,1.568705,100133.42,+0,+204,+40
90914,14.030,16.711,-6.638,1.387401,0.136859,1.181329,100140.74,-1,+205,+36
90925,14.232,-7.498,-0.189,4.043693,0.694510,2.774997,100139.59,-1,+205,+36
90930,15.299,-14.068,3.846,4.969564,1.086675,3.253896,100138.38,-8,+211,+25
90940,15.044,-11.541,4.612,4.567289,1.215446,3.342227,100135.45,-14,+213,+16
90949,12.145,-7.806,1.224,2.849106,1.046767,2.789365,100135.45,-14,+213,+16
90959,9.201,-6.448,5.299,1.848208,1.146804,2.198190,100139.75,-17,+213,+13
90970,8.670,-3.804,6.195,1.723162,1.238859,2.015677,100137.45,-21,+213,+11
90980,10.307,-2.527,3.641,1.453915,1.105299,1.683108,100137.08,-24,+213,+10
90990,11.940,-3.605,1.660,0.963309,0.941941,1.535182,100138.02,-24,+213,+10
90999,12.423,-4.666,0.647,0.283805,0.789758,1.561255,100138.02,-27,+211,+10
91010,11.321,-3.878,0.988,-0.338763,0.696107,1.545824,100140.20,-30,+208,+12
91020,9.605,-2.787,1.273,-0.816066,0.618951,1.433017,100139.14,-32,+203,+15
91030,9.481,-1.935,1.224,-1.225790,0.559887,1.299457,100136.22,-32,+203,+15
91040,10.012,-1.073,1.410,-1.511001,0.517850,1.213256,100135.13,-35,+199,+20
91049,9.572,-0.365,1.820,-1.538139,0.466235,1.122797,100135.13,-37,+193,+24
91060,9.447,0.388,1.785,-1.298689,0.447079,0.985512,100137.07,-39,+188,+28
91070,9.944,1.282,1.252,-0.949093,0.428988,0.903035,100136.65,-39,+188,+28
91080,10.176,2.070,1.063,-0.554268,0.451336,0.926980,100134.98,-40,+185,+31
91089,9.843,1.349,2.174,-0.231277,0.467832,0.971678,100135.87,-41,+183,+32
91100,9.661,-0.934,2.359,-0.278635,0.332676,0.947201,100135.87,-42,+180,+33
91110,10.031,-2.018,2.334,-0.557460,0.245410,0.843971,100138.48,-42,+180,+33
91120,10.049,-1.619,2.539,-1.010286,0.185813,0.790228,100138.16,-44,+177,+36
91129,9.633,-0.208,2.603,-1.333276,0.105465,0.755109,100134.40,-46,+173,+38
91140,9.553,1.215,2.347,-1.429056,0.047465,0.739146,100135.29,-48,+167,+40
91150,9.583,1.724,1.363,-1.244946,0.040547,0.707751,100135.29,-48,+167,+40
91160,9.509,1.627,0.745,-0.834157,0.098547,0.685403,100138.46,-48,+164,+44
91170,9.654,0.645,0.506,-0.349938,0.157079,0.667311,100138.57,-49,+161,+44
91180,9.726,-0.898,0.969,-0.052488,0.198584,0.635916,100134.54,-50,+159,+45
91190,9.967,-1.948,1.791,-0.089204,0.204437,0.610375,100134.27,-50,+159,+45
91200,9.880,-1.872,2.166,-0.346745,0.173043,0.580577,100134.27,-51,+158,+45
91210,9.589,-0.985,2.215,-0.636745,0.143245,0.573660,100137.25,-52,+155,+47
91219,9.539,0.110,2.136,-0.750616,0.121428,0.584302,100134.27,-53,+151,+49
91230,9.612,0.606,1.969,-0.655369,0.109722,0.616760,100135.00,-53,+151,+49
91240,9.645,0.491,1.703,-0.475515,0.111318,0.662522,100135.89,-53,+149,+50
91250,9.595,0.008,1.611,-0.322268,0.125153,0.707219,100135.89,-55,+147,+50
91259,9.532,-0.627,1.520,-0.269057,0.145373,0.732760,100140.00,-57,+145,+52
91270,9.556,-1.083,1.634,-0.330782,0.155483,0.739146,100138.44,-57,+145,+52
91280,9.598,-1.021,1.806,-0.435075,0.158676,0.741274,100141.09,-58,+143,+52
91285,9.630,-0.680,1.835,-0.511167,0.161868,0.764687,100137.59,-58,+139,+54
91295,9.396,-0.028,1.689,-0.515424,0.172511,0.797146,100137.59,-58,+139,+54
91304,8.828,0.650,1.482,-0.373350,0.199648,0.869513,100137.59,-59,+135,+55
91315,8.509,0.972,1.243,-0.104635,0.226786,0.965292,100142.19,-60,+133,+55
91325,8.787,0.430,1.243,0.191750,0.247538,1.101512,100138.38,-60,+131,+56
91335,9.673,-1.162,1.263,0.259328,0.220401,1.226026,100138.08,-60,+131,+56
91345,10.426,-1.658,1.332,0.105016,0.193263,1.282430,100138.08,-64,+129,+57
91355,10.641,-1.547,1.482,-0.112084,0.184749,1.328723,100143.43,-64,+126,+57
91365,10.384,-0.600,1.729,-0.225424,0.160804,1.412797,100143.43,-66,+122,+57
91375,10.097,0.456,2.130,-0.174873,0.140584,1.546356,100138.82,-66,+122,+57
91385,10.299,0.770,2.023,0.046484,0.101208,1.719824,100137.77,-69,+117,+58
91395,10.500,0.472,1.976,0.321585,0.096951,1.913512,100137.41,-71,+114,+58
91405,10.676,-0.287,1.236,0.507291,0.093758,2.110392,100137.41,-74,+110,+57
91415,11.424,-1.145,0.239,0.616906,0.086309,2.312062,100139.60,-74,+110,+57
91425,12.438,-1.585,0.071,0.752062,0.079391,2.488190,100139.71,-76,+106,+57
91436,13.178,-1.830,0.818,0.846777,0.058639,2.615365,100138.20,-80,+102,+57
91445,13.538,-2.021,2.001,0.799420,0.066621,2.692521,100134.66,-83,+97,+55
91455,13.789,-2.211,2.974,0.592961,0.088437,2.713805,100138.02,-83,+97,+55
91465,14.501,-2.436,3.070,0.241768,0.109190,2.729236,100138.53,-86,+91,+56
91475,15.843,-2.138,2.570,-0.091864,0.103868,2.774465,100135.08,-89,+83,+56
91485,17.910,-1.276,2.832,-0.338231,0.043208,2.846300,100135.08,-90,+75,+57
91495,20.319,-0.406,3.150,-0.614396,0.010217,2.929309,100133.03,-90,+75,+57
91505,22.909,1.531,2.176,-1.102873,0.043208,3.004337,100133.03,-93,+65,+58
91515,24.779,3.907,-0.061,-1.569533,0.034694,3.129915,100136.66,-95,+53,+59
91525,24.982,7.253,-1.646,-1.816432,0.050658,3.246979,100137.13,-97,+40,+61
91535,24.078,10.652,-1.335,-1.957441,0.078327,3.294337,100135.40,-97,+40,+61
91545,21.826,11.718,-1.765,-2.155386,0.046401,3.314025,100137.40,-98,+26,+62
91555,18.405,9.948,-0.063,-2.272450,-0.001489,3.341162,100137.40,-99,+11,+62
91566,15.430,6.389,1.823,-1.839313,-0.096205,3.366704,100135.04,-98,-3,+62
91575,13.113,-0.670,3.976,-0.543093,-0.218058,3.603492,100134.57,-98,-3,+62
91585,12.410,-5.860,3.966,0.733970,-0.326608,3.830171,100134.41,-98,-12,+62
91595,12.706,-4.033,4.919,1.124539,-0.333526,3.697676,100134.41,-98,-19,+61
91604,12.975,-4.380,4.770,0.880832,-0.322351,3.361915,100134.41,-97,-26,+60
91615,11.754,-6.615,5.595,0.766429,-0.244663,3.184722,100135.97,-95,-26,+60
91625,8.903,-5.872,6.251,0.561034,-0.293085,2.728172,100137.64,-95,-33,+62
91635,5.943,-0.547,5.806,0.325842,-0.416003,2.009824,100132.56,-94,-37,+60
91640,5.086,3.395,2.974,0.208246,-0.578828,1.428760,100129.94,-94,-37,+60
91650,5.280,3.188,1.358,0.409915,-0.616076,1.005201,100129.94,-94,-40,+59
91660,3.787,2.526,3.565,0.961181,-0.451654,0.716797,100133.43,-95,-41,+58
91670,3.376,4.054,3.317,1.042062,-0.604370,0.254394,100134.74,-96,-38,+57
91680,2.523,4.846,1.721,0.832410,-0.922571,-0.366046,100134.16,-96,-38,+57
91691,2.000,5.194,1.709,0.792502,-1.046021,-0.917844,100131.13,-98,-34,+55
91700,1.876,4.640,2.093,0.914887,-1.130094,-1.251477,100131.13,-101,-29,+52
91710,1.912,3.154,2.486,1.061750,-1.227470,-1.548926,100132.39,-104,-23,+50
91720,1.863,1.454,3.148,1.193713,-1.305690,-1.929385,100132.77,-104,-23,+50
91730,1.848,0.359,3.714,1.203291,-1.403598,-2.372632,100131.30,-108,-14,+47
91740,2.063,0.083,4.054,1.101126,-1.525984,-2.845146,100131.81,-112,-3,+43
91750,2.702,0.676,3.869,1.023438,-1.624956,-3.304888,100131.81,-115,+7,+38
91760,3.567,1.332,3.846,1.022374,-1.684020,-3.730576,100126.86,-115,+7,+38
91770,4.506,1.677,4.057,1.087823,-1.717543,-4.095071,100125.34,-117,+21,+33
91780,5.513,1.466,4.395,1.161786,-1.739360,-4.405824,100126.13,-119,+36,+27
91790,6.144,0.934,5.033,1.175089,-1.730314,-4.668686,100123.61,-120,+53,+23
91800,6.432,0.540,5.359,1.127199,-1.724993,-4.922502,100123.61,-120,+53,+23
91810,7.250,0.353,5.825,1.087291,-1.677103,-5.181640,100132.79,-119,+70,+17
91821,8.592,0.115,6.378,1.097401,-1.587708,-5.406722,100128.49,-116,+89,+11
91830,10.123,-0.019,6.957,1.057493,-1.486075,-5.615309,100127.13,-112,+107,+5
91840,11.678,0.066,7.224,0.962777,-1.404131,-5.802080,100126.77,-112,+107,+5
91850,12.484,0.175,7.197,0.961713,-1.281213,-5.986190,100126.77,-106,+126,+1
91860,13.615,0.535,7.319,1.103254,-1.089122,-6.194244,100127.13,-96,+145,-3
91870,15.658,0.400,7.388,1.356006,-0.824131,-6.386868,100129.38,-86,+164,-8
91880,18.030,-0.943,7.583,1.642814,-0.525617,-6.542244,100124.73,-71,+164,-8
91890,20.453,-3.199,7.953,1.684318,-0.250517,-6.659841,100122.41,-71,+184,-13
91900,21.089,-5.046,8.406,1.396979,-0.017453,-6.757749,100122.41,-55,+201,-16
91911,20.343,-5.656,8.841,0.939364,0.197520,-6.790207,100120.29,-35,+217,-18
91920,21.078,-7.452,6.970,0.439713,0.488584,-6.722630,100121.13,-14,+230,-18
91930,21.958,-14.843,5.783,-0.746359,0.531685,-6.554483,100125.84,-14,+230,-18
91940,19.923,-16.878,2.554,-1.801001,0.218272,-6.122942,100125.32,+4,+239,-13
91950,21.033,-13.915,1.984,-2.292138,0.151758,-5.379052,100125.32,+21,+242,-6
91960,20.258,-13.512,3.019,-2.119203,0.044804,-4.528741,100135.11,+35,+244,-1
91970,18.251,-17.358,7.006,-1.128946,0.186346,-3.630008,100131.81,+35,+244,-1
91980,10.619,-18.833,8.879,-0.101442,0.302878,-2.702540,100135.06,+45,+246,+0
91991,6.722,-19.492,9.061,0.804741,0.556162,-1.626082,100132.97,+51,+248,+0
92000,8.792,-18.519,5.452,1.055364,0.739740,-0.314964,100132.97,+53,+251,-3
92010,11.756,-15.616,0.334,1.280979,0.952584,0.881751,100137.18,+53,+251,-3
92020,13.279,-16.381,-1.557,1.830116,1.174473,1.903402,100136.49,+49,+253,-8
92030,14.993,-14.699,-0.496,1.825327,1.051024,2.648355,100134.66,+43,+253,-11
92040,14.701,-10.968,-6.327,1.204887,0.432180,2.970282,100136.07,+34,+252,-14
92050,20.800,19.472,-15.265,0.199200,-0.429838,2.735089,100136.07,+34,+252,-14
92060,20.316,40.309,-15.824,-0.347277,-0.548498,0.507678,100139.95,+28,+250,-13
92070,14.087,6.018,-2.086,2.664464,0.145905,2.085383,100135.07,+23,+251,-20
92081,15.128,-14.377,1.969,5.531472,0.780180,3.344887,100133.49,+14,+254,-35
92090,14.548,-15.372,3.780,5.243068,1.064327,3.613602,100133.82,+14,+254,-35
92100,13.815,-10.029,2.018,2.960317,0.913207,3.129915,100133.82,+4,+254,-45
92110,11.236,-4.132,4.727,1.813089,1.111684,2.599933,100136.53,-2,+253,-49
92121,7.148,0.549,5.103,1.699217,1.245776,2.485530,100136.28,-9,+250,-52
92130,5.226,-0.110,6.411,1.713052,1.154253,2.157750,100135.02,-9,+250,-52
92140,7.547,-5.465,4.777,1.174025,0.894584,1.885310,100136.53,-15,+248,-55
92150,12.135,-7.302,2.059,0.242301,0.697171,1.769310,100136.53,-21,+245,-55
92161,13.202,-5.999,0.906,-0.645258,0.474749,1.698540,100141.09,-25,+242,-52
92170,12.517,-2.967,0.684,-1.250267,0.313520,1.590521,100139.05,-25,+242,-52
92180,10.832,-1.226,1.079,-1.450341,0.256584,1.485696,100138.37,-30,+238,-48
92190,9.135,-1.249,0.957,-1.349240,0.259245,1.346815,100136.85,-33,+234,-42
92200,8.536,-0.953,1.035,-1.119900,0.317244,1.203145,100136.85,-37,+230,-39
92211,9.465,0.035,0.678,-0.832029,0.345446,1.099916,100136.45,-37,+230,-39
92220,10.143,1.439,0.519,-0.227552,0.416217,1.016907,100138.19,-41,+228,-37
92230,10.592,2.062,1.576,0.443793,0.493905,1.006620,100136.41,-43,+225,-37
92240,10.099,0.485,2.608,0.737695,0.442290,1.028081,100134.73,-44,+224,-38
92251,9.381,-1.783,2.862,0.658943,0.333208,1.002540,100134.73,-44,+224,-38
92260,9.253,-2.664,3.079,0.211438,0.233703,0.916870,100139.20,-48,+222,-40
92270,9.717,-2.026,3.134,-0.416451,0.131538,0.858870,100138.42,-50,+220,-38
92280,9.750,-0.590,2.684,-0.826176,0.032566,0.833861,100137.00,-53,+218,-35
92291,9.504,0.061,1.824,-0.887901,-0.024370,0.804063,100135.28,-53,+218,-35
92300,9.384,0.278,0.998,-0.754873,-0.011599,0.737549,100135.28,-55,+215,-33
92310,9.464,0.223,0.314,-0.514359,0.044272,0.652944,100137.34,-57,+213,-32
92320,9.564,-0.049,0.245,-0.211589,0.113979,0.573127,100138.66,-58,+211,-31
92331,9.608,-0.571,0.884,0.061383,0.176235,0.504485,100134.36,-58,+211,-31
92341,9.614,-0.978,1.802,0.150246,0.190070,0.481072,100134.31,-59,+210,-31
92350,9.492,-1.373,2.485,0.033714,0.171446,0.490118,100134.31,-60,+209,-30
92360,9.535,-1.198,2.583,-0.193497,0.134199,0.503953,100138.88,-62,+209,-30
92370,9.663,-0.824,2.402,-0.374415,0.099612,0.513531,100138.25,-62,+209,-30
92381,9.758,-0.512,1.855,-0.448378,0.078859,0.524705,100134.69,-62,+207,-28
92390,9.768,-0.351,1.521,-0.417515,0.082052,0.549182,100136.16,-64,+205,-27
92400,9.763,-0.378,1.243,-0.337167,0.096951,0.571531,100136.16,-65,+204,-26
92410,9.805,-0.571,1.417,-0.293534,0.125685,0.596008,100139.09,-67,+202,-25
92421,9.799,-0.979,1.703,-0.312158,0.148566,0.607715,100138.00,-67,+202,-25
92430,9.689,-1.408,2.077,-0.383993,0.154951,0.606118,100137.47,-68,+200,-23
92440,9.499,-1.356,2.250,-0.517020,0.144309,0.599201,100138.84,-70,+198,-22
92450,9.267,-1.019,1.992,-0.660690,0.138988,0.611439,100138.84,-71,+196,-20
92461,9.396,-0.328,1.666,-0.738910,0.151758,0.648687,100140.93,-71,+196,-20
92471,9.636,0.633,1.434,-0.679313,0.175171,0.722118,100142.55,-73,+192,-18
92480,9.568,0.970,1.318,-0.493607,0.213483,0.832265,100137.52,-74,+189,-17
92490,9.639,0.612,1.454,-0.308433,0.240621,0.960503,100138.26,-77,+187,-15
92500,9.778,0.219,2.063,-0.186048,0.240089,1.091402,100138.26,-77,+187,-15
92511,9.747,0.159,2.777,-0.149864,0.215079,1.232412,100141.73,-79,+184,-14
92520,9.704,0.585,3.001,-0.138158,0.179960,1.393109,100140.21,-82,+179,-13
92530,10.134,0.630,2.939,-0.100378,0.145905,1.579347,100137.74,-86,+175,-13
92540,10.778,0.407,2.254,-0.039718,0.111850,1.775696,100135.40,-86,+175,-13
92551,10.671,0.358,1.387,0.002851,0.136327,1.997585,100135.40,-90,+170,-11
92561,11.208,-0.059,0.353,0.089585,0.173575,2.225860,100141.00,-94,+165,-11
92570,12.180,-0.830,-0.094,0.272099,0.204969,2.441365,100139.91,-99,+159,-11
92580,13.498,-1.311,0.194,0.462062,0.223061,2.619089,100138.86,-99,+159,-11
92591,14.877,-1.826,0.724,0.569016,0.232107,2.768612,100138.50,-104,+152,-11
92600,15.389,-2.332,1.051,0.546135,0.284254,2.876098,100138.50,-109,+144,-11
92610,15.896,-2.103,0.869,0.382778,0.307667,2.952722,100140.63,-114,+137,-11
92620,16.665,-1.112,0.756,0.239640,0.295428,3.024557,100141.15,-114,+137,-11
92631,18.316,-0.052,1.480,0.145989,0.269355,3.102777,100136.65,-119,+128,-10
92641,19.870,0.761,2.966,0.028925,0.255520,3.200685,100138.80,-123,+118,-9
92650,21.298,2.531,3.683,-0.383460,0.375244,3.249640,100138.80,-126,+107,-7
92660,22.817,5.278,4.429,-0.970910,0.460382,3.345419,100138.15,-126,+107,-7
92670,23.070,8.526,4.211,-1.455130,0.524767,3.472061,100137.93,-131,+95,-3
92681,22.456,10.307,3.766,-1.840909,0.593409,3.508777,100136.21,-134,+81,+0
92690,21.171,9.856,2.062,-2.319808,0.517318,3.494942,100134.90,-136,+67,+2
92700,19.069,7.847,0.228,-2.696010,0.438033,3.425236,100134.90,-136,+67,+2
92710,15.995,2.527,0.417,-2.487955,0.392272,3.425768,100138.15,-138,+50,+6
92721,13.336,-6.022,3.024,-1.516854,0.373648,3.597107,100137.84,-140,+36,+8
92731,13.614,-10.946,3.711,-1.131075,0.218804,3.781217,100141.02,-139,+22,+10
92740,14.913,-8.642,6.372,-0.960267,0.124089,3.860502,100136.26,-139,+22,+10
92750,14.490,-4.830,7.057,-0.728800,0.112382,3.531658,100136.26,-141,+8,+10
92761,10.972,-1.073,7.520,-0.805956,0.169318,2.892062,100141.00,-141,-1,+12
92771,7.467,4.072,4.550,-1.270487,-0.028095,1.999714,100138.95,-140,-10,+13
92780,5.526,6.834,1.297,-1.215148,-0.166443,1.198356,100138.06,-140,-10,+13
92790,4.296,6.554,1.361,-0.537240,-0.060553,0.865788,100137.59,-140,-15,+11
92801,4.411,6.482,0.712,-0.238727,-0.237746,0.562485,100137.59,-140,-17,+11
92811,3.525,5.076,0.343,0.198668,-0.434094,0.051128,100139.08,-141,-16,+10
92821,2.958,4.242,0.655,0.633579,-0.516749,-0.561331,100136.67,-142,-13,+10
92830,2.642,3.042,1.126,0.927126,-0.599581,-0.985422,100138.70,-142,-13,+10
92840,2.255,1.672,1.689,1.294282,-0.696957,-1.439312,100138.08,-144,-5,+6
92851,2.019,0.742,1.925,1.580557,-0.841691,-1.924596,100138.08,-144,+3,+5
92861,2.109,0.407,1.686,1.764135,-1.017287,-2.426908,100140.50,-146,+3,+1
92870,2.933,0.772,1.241,1.822134,-1.217360,-2.897292,100134.95,-146,+15,+1
92880,4.448,1.084,1.528,1.982300,-1.307819,-3.262320,100134.91,-147,+30,-3
92891,5.280,1.067,2.136,2.134483,-1.344002,-3.558173,100136.52,-148,+45,-8
92901,4.737,0.891,2.644,2.181841,-1.433397,-3.859347,100136.52,-146,+63,-15
92910,4.913,0.687,2.968,2.216428,-1.516406,-4.178081,100136.51,-146,+63,-15
92920,6.228,0.256,3.411,2.197804,-1.577598,-4.467016,100134.37,-145,+81,-21
92931,7.372,-0.676,3.844,2.084997,-1.634002,-4.685713,100131.90,-141,+100,-29
92941,7.516,-1.699,4.219,1.882263,-1.687745,-4.899089,100131.79,-136,+119,-37
92950,7.467,-2.181,4.436,1.582153,-1.729250,-5.128961,100131.79,-136,+119,-37
92960,7.888,-1.790,4.351,1.267144,-1.734571,-5.354043,100130.14,-129,+138,-44
92971,8.995,-0.963,4.114,1.089952,-1.691470,-5.556777,100130.03,-120,+158,-52
92981,10.415,-0.473,3.930,1.104318,-1.623892,-5.755254,100130.81,-108,+176,-59
92991,11.871,-0.642,3.869,1.249584,-1.533965,-5.956923,100132.86,-108,+176,-59
93000,13.038,-1.156,3.878,1.491162,-1.446699,-6.161254,100132.86,-94,+196,-67
93010,14.236,-1.690,4.267,1.787547,-1.335488,-6.314501,100135.33,-78,+213,-74
93021,16.156,-2.340,4.944,2.149382,-1.212571,-6.393254,100136.33,-60,+231,-83
93031,18.640,-3.966,5.743,2.417033,-1.046021,-6.406024,100135.64,-60,+231,-83
93040,20.454,-6.543,6.775,2.434593,-0.926828,-6.342703,100135.70,-39,+247,-93
93050,22.033,-7.784,6.912,2.289859,-0.872553,-6.260758,100135.70,-17,+259,-102
93061,23.461,-8.419,7.432,2.113199,-0.801250,-6.049510,100134.27,+2,+269,-110
93071,22.085,-9.396,8.750,2.194611,-0.720370,-5.604667,100136.41,+2,+269,-110
93080,19.147,-11.118,11.370,2.218024,-0.617140,-4.969860,100138.10,+21,+278,-118
93090,16.677,-13.325,12.740,1.702410,-0.522957,-4.213200,100137.95,+38,+282,-125
93101,14.279,-15.990,12.087,0.776539,-0.300003,-3.447494,100137.95,+51,+285,-127
93111,11.811,-18.899,10.872,0.029457,-0.027031,-2.830247,100136.75,+51,+285,-127
93121,10.325,-19.339,9.452,-0.485626,0.164529,-2.290687,100141.45,+60,+286,-126
93130,9.617,-16.666,7.898,-0.771901,0.287978,-1.495183,100137.27,+66,+289,-123
93140,9.728,-14.440,6.829,-0.443057,0.455061,-0.398505,100138.38,+67,+289,-121
93151,10.280,-14.311,6.508,0.217291,0.666309,0.818430,100138.38,+67,+289,-121
93161,11.791,-14.944,5.581,0.757383,0.886070,1.860833,100139.88,+62,+288,-123
93170,15.055,-11.625,2.363,0.797291,0.917996,2.463181,100137.70,+54,+286,-125
93176,14.198,-11.950,-3.203,0.593493,0.619483,2.655805,100139.41,+54,+286,-125
93186,18.078,-0.787,-8.746,0.482282,0.334272,2.868117,100139.41,+43,+284,-127
93196,21.821,29.155,-20.617,-0.555864,-0.609691,1.690026,100137.79,+36,+281,-125
93206,12.967,22.229,-6.137,0.448759,0.018199,0.874302,100137.79,+33,+281,-129
93216,14.283,-4.979,0.237,3.352482,0.618951,2.389218,100141.88,+33,+281,-129
93225,16.522,-13.721,3.301,3.921307,1.070180,3.030942,100139.21,+21,+276,-142
93236,14.466,-9.007,1.667,3.114629,1.123391,3.190043,100140.57,+10,+270,-150
93246,11.525,-6.293,1.971,1.970593,1.094657,2.679218,100140.57,+1,+266,-154
93255,9.242,-4.466,5.581,1.688043,1.340492,2.355695,100140.57,+1,+266,-154
93265,9.262,-2.579,4.893,1.490630,1.424033,2.214686,100144.79,-7,+261,-157
93276,9.455,-2.697,4.504,0.812722,1.182987,1.984283,100140.65,-14,+258,-157
93286,8.962,-2.169,4.298,0.109273,0.950455,1.826246,100141.74,-21,+254,-155
93296,8.566,-0.584,4.732,-0.465405,0.821685,1.800173,100140.38,-21,+254,-155
93305,8.642,-0.149,2.601,-0.812873,0.582235,1.836888,100140.38,-28,+252,-153
93316,10.188,-0.437,0.736,-0.837350,0.428455,1.871475,100143.57,-34,+248,-149
93326,11.171,-1.666,1.261,-0.754873,0.397061,1.877861,100145.26,-41,+244,-146
93336,10.759,-2.210,0.950,-0.674524,0.360877,1.758136,100141.70,-41,+244,-146
93346,9.424,-2.464,-0.181,-0.343552,0.357685,1.528265,100139.19,-45,+242,-143
93356,9.244,-1.162,-0.082,0.155567,0.453997,1.371292,100144.59,-50,+239,-143
93366,9.918,-0.122,0.409,0.544007,0.529556,1.289347,100143.13,-55,+235,-143
93376,10.163,-0.692,1.240,0.766429,0.569997,1.312228,100143.13,-55,+235,-143
93385,9.934,-1.540,1.485,0.756851,0.546584,1.279769,100142.02,-58,+232,-144
93395,9.367,-2.427,1.865,0.645640,0.529556,1.165898,100138.72,-63,+230,-145
93406,9.775,-2.937,2.596,0.330631,0.457189,1.041384,100138.72,-65,+226,-145
93411,10.075,-2.892,2.776,0.013493,0.377905,0.954118,100141.63,-65,+226,-145
93421,9.972,-2.375,2.566,-0.243516,0.308199,0.892393,100138.55,-69,+225,-143
93430,9.748,-1.561,1.862,-0.402084,0.238492,0.835990,100141.63,-71,+223,-141
93441,9.902,-1.342,1.088,-0.380268,0.211355,0.807788,100140.11,-71,+223,-141
93451,10.007,-1.408,0.494,-0.310029,0.209758,0.777990,100140.11,-74,+222,-140
93461,9.678,-1.259,0.322,-0.232873,0.235300,0.739146,100139.91,-76,+220,-139
93471,9.389,-1.170,0.453,-0.106763,0.279465,0.661458,100143.94,-78,+218,-137
93480,9.490,-1.567,0.961,0.002319,0.323630,0.549715,100143.31,-78,+218,-137
93491,9.782,-2.029,1.636,0.019879,0.345978,0.448082,100138.80,-79,+216,-138
93501,9.894,-2.091,2.130,-0.087075,0.326822,0.398063,100138.80,-81,+216,-136
93511,9.745,-1.731,2.609,-0.259479,0.286914,0.389550,100144.53,-82,+215,-135
93520,9.543,-1.401,2.636,-0.403681,0.240621,0.392210,100142.11,-82,+215,-135
93532,9.489,-1.255,2.247,-0.467534,0.211887,0.396112,100137.92,-83,+215,-133
93541,9.653,-1.292,1.774,-0.472323,0.211355,0.406045,100135.63,-85,+214,-132
93551,9.726,-1.154,1.491,-0.468066,0.225190,0.411898,100135.63,-85,+212,-130
93560,9.724,-1.039,1.369,-0.438268,0.243813,0.432650,100139.71,-85,+212,-130
93571,9.756,-1.300,1.436,-0.396763,0.268290,0.463513,100139.18,-87,+211,-128
93581,9.645,-1.759,1.583,-0.399956,0.290639,0.493311,100142.12,-87,+211,-127
93591,9.563,-1.875,1.618,-0.484561,0.301813,0.517788,100140.38,-89,+209,-124
93600,9.393,-1.585,1.743,-0.568103,0.295428,0.543329,100140.38,-89,+209,-124
93611,9.215,-0.984,1.987,-0.578745,0.293300,0.592283,100139.51,-91,+208,-122
93621,9.305,-0.614,1.595,-0.519148,0.290107,0.665715,100141.24,-93,+205,-121
93631,9.569,-0.370,1.440,-0.406341,0.287978,0.764687,100139.88,-95,+203,-118
93641,9.783,-0.273,1.777,-0.277039,0.296492,0.886540,100136.52,-95,+203,-118
93650,10.224,-0.583,2.038,-0.223828,0.302345,1.019568,100136.52,-98,+202,-117
93661,10.486,-0.837,2.049,-0.241387,0.295428,1.146742,100139.16,-100,+198,-116
93671,10.561,-0.542,2.165,-0.273314,0.290639,1.281366,100139.32,-104,+195,-113
93681,10.935,-0.240,1.989,-0.258415,0.257648,1.433549,100140.16,-104,+195,-113
93690,11.278,-0.041,1.655,-0.163167,0.233171,1.607549,100138.34,-107,+191,-113
93701,11.531,0.003,1.293,-0.028543,0.222529,1.791127,100138.34,-112,+184,-113
93711,12.049,-0.402,0.322,0.096503,0.224657,1.989604,100140.69,-117,+178,-111
93721,12.718,-1.215,-0.210,0.234319,0.224125,2.176374,100141.69,-117,+178,-111
93731,13.295,-1.591,0.262,0.344466,0.225190,2.343989,100138.64,-121,+172,-111
93741,13.840,-1.622,1.358,0.378521,0.230511,2.491383,100137.70,-126,+165,-111
93751,14.460,-2.044,2.026,0.321053,0.267758,2.605254,100137.70,-132,+155,-111
93761,15.214,-2.344,1.921,0.139603,0.287446,2.681346,100139.25,-132,+155,-111
93766,16.042,-1.959,1.598,-0.036525,0.268290,2.734557,100139.36,-138,+147,-109
93775,17.253,-0.971,2.028,-0.182323,0.219868,2.801071,100139.36,-142,+138,-108
93786,18.694,-0.040,2.771,-0.322268,0.177300,2.898447,100139.14,-142,+138,-108
93796,20.041,0.748,2.435,-0.654304,0.234767,2.971346,100138.78,-148,+128,-107
93806,22.605,3.552,2.433,-1.136928,0.241685,3.043181,100138.78,-153,+117,-104
93816,24.414,6.116,2.043,-1.563680,0.205501,3.180997,100140.63,-157,+106,-101
93826,25.025,7.817,1.650,-2.092597,0.278400,3.207071,100138.68,-157,+106,-101
93836,23.586,9.479,1.536,-2.819459,0.325226,3.118208,100139.41,-161,+95,-97
93846,19.113,10.284,0.719,-3.395202,0.252859,3.169823,100139.41,-164,+83,-92
93856,15.789,7.604,1.151,-3.086578,0.132602,3.349144,100139.41,-167,+69,-89
93865,13.492,2.280,4.294,-1.413093,0.055979,3.571566,100141.12,-167,+69,-89
93876,13.900,-3.315,3.700,0.421622,-0.158994,3.847199,100139.43,-171,+57,-88
93886,14.947,-6.067,4.857,1.340575,-0.085030,4.155290,100138.49,-174,+42,-88
93896,15.087,-8.024,6.961,1.594924,0.210290,4.037694,100137.40,-175,+28,-88
93905,11.873,-7.579,8.899,1.156465,0.385887,3.426300,100137.40,-175,+28,-88
93916,7.680,-1.869,5.828,0.090117,0.137924,2.310998,100139.44,-176,+17,-86
93926,6.741,4.132,1.222,-0.913442,-0.094076,1.163237,100138.13,-176,+11,-85
93936,6.071,6.274,0.008,-0.932066,-0.069067,0.526834,100137.38,-176,+9,-86
93946,5.348,7.317,0.547,-0.635680,-0.119618,0.309201,100137.38,-176,+9,-86
93957,4.527,6.243,0.346,-0.364837,-0.346828,0.057513,100138.42,-176,+9,-87
93966,3.424,5.094,0.218,-0.026947,-0.466553,-0.426707,100138.42,-176,+11,-88
93976,3.067,3.761,0.803,0.214631,-0.529342,-0.893899,100136.73,-176,+14,-91
93986,2.617,2.144,1.498,0.480686,-0.614480,-1.240303,100137.00,-176,+14,-91
93996,2.056,0.543,1.764,0.750465,-0.727819,-1.613312,100136.33,-176,+21,-93
94006,1.892,-0.611,1.909,0.923401,-0.847544,-2.070394,100136.33,-176,+27,-96
94016,2.307,-0.594,1.810,0.996832,-0.989617,-2.571109,100141.26,-175,+38,-101
94026,2.974,0.243,1.524,1.021309,-1.123709,-3.040962,100138.16,-175,+38,-101
94036,3.636,1.148,1.413,1.068667,-1.224277,-3.446962,100136.80,-173,+51,-105
94046,4.241,1.405,1.533,1.142630,-1.275360,-3.778998,100135.78,-170,+65,-111
94056,4.594,1.154,1.998,1.195309,-1.296644,-4.070594,100136.30,-166,+80,-116
94066,4.788,0.592,2.631,1.195841,-1.318461,-4.371236,100136.67,-160,+80,-123
94076,5.234,0.065,3.253,1.138906,-1.347195,-4.688906,100132.64,-160,+97,-123
94086,6.011,-0.359,3.759,1.043126,-1.387635,-4.998594,100132.64,-154,+116,-129
94096,6.960,-0.593,4.107,0.964906,-1.399874,-5.274227,100132.31,-145,+133,-136
94106,8.038,-0.517,4.367,0.922869,-1.378589,-5.528043,100132.31,-133,+153,-142
94116,9.262,-0.226,4.334,0.922869,-1.344534,-5.760575,100135.77,-133,+153,-142
94121,10.324,-0.067,4.121,0.951071,-1.311011,-5.918612,100133.47,-119,+171,-148
94131,11.370,-0.032,3.853,1.041530,-1.251415,-6.063878,100133.73,-119,+171,-148
94141,12.690,-0.017,3.640,1.220850,-1.142865,-6.250648,100130.75,-105,+189,-155
94151,14.192,-0.151,3.701,1.437419,-1.030589,-6.429437,100130.75,-88,+207,-162
94161,16.259,-0.365,3.961,1.650263,-0.962479,-6.601308,100133.52,-67,+222,-170
94171,19.229,-0.566,4.944,1.937070,-0.849672,-6.725822,100134.30,-67,+222,-170
94181,23.229,-1.870,6.399,2.221217,-0.662902,-6.797657,100135.20,-47,+236,-178
94191,25.714,-4.030,8.055,2.313804,-0.488902,-6.834373,100131.59,-24,+248,-185
94201,24.255,-5.571,8.525,2.184501,-0.349489,-6.787547,100131.59,-1,+256,-193
94211,22.177,-10.163,7.507,1.690703,-0.237214,-6.540648,100135.61,-1,+256,-193
94221,20.392,-14.340,6.980,1.382080,-0.337251,-6.013859,100137.03,+20,+264,-198
94231,20.139,-14.211,6.890,1.193713,-0.360131,-5.370539,100137.92,+39,+268,-203
94241,19.269,-13.581,7.751,1.017053,-0.241471,-4.622392,100134.56,+57,+270,-206
94251,17.562,-17.484,9.672,0.864337,-0.087159,-3.850301,100134.56,+57,+270,-206
94261,12.815,-23.432,11.697,0.642979,0.078859,-3.182503,100139.62,+69,+272,-210
94271,8.666,-23.134,11.481,0.011897,0.219336,-2.482247,100137.04,+78,+274,-210
94281,7.814,-19.265,8.363,-0.327057,0.263501,-1.251477,100136.57,+82,+274,-209
94291,9.335,-14.787,6.325,0.298704,0.517318,0.401256,100142.07,+82,+274,-209
94301,11.172,-12.128,4.450,1.498080,0.798804,1.820925,100142.07,+78,+274,-210
94311,11.460,-15.701,5.785,2.404263,1.074969,2.830869,100141.27,+69,+270,-217
94321,14.240,-13.037,3.735,2.358501,1.077629,3.341162,100140.12,+55,+262,-224
94331,15.526,-4.140,-5.362,1.193181,0.443887,3.091603,100142.43,+44,+262,-224
94341,20.485,19.782,-16.341,0.267310,-0.087691,2.530227,100140.23,+44,+258,-226
94351,17.810,30.984,-16.780,-0.337167,-0.398443,0.998815,100140.23,+41,+258,-225
94357,12.445,10.671,-1.869,1.574703,0.407703,1.554338,100143.38,+41,+258,-225
94366,15.077,-8.874,-0.279,3.619601,0.802529,2.779787,100143.38,+33,+253,-230
94376,15.603,-14.534,3.911,3.964940,1.215446,3.347016,100143.48,+20,+242,-242
94387,13.207,-8.976,1.176,2.848042,1.093593,3.184190,100140.30,+8,+232,-247
94396,10.917,-6.121,3.848,1.741786,1.059538,2.531291,100140.50,+8,+232,-247
94406,9.183,-3.930,7.266,1.696025,1.359115,2.280135,100141.73,+0,+226,-249
94416,10.527,-3.511,4.441,1.573107,1.435207,2.075805,100140.88,-9,+218,-252
94427,11.854,-5.077,2.038,0.668521,1.186712,1.932136,100142.40,-17,+215,-250
94436,10.513,-5.118,1.685,-0.166892,0.974400,1.893824,100142.40,-17,+215,-250
94446,9.879,-3.080,3.095,-0.671332,0.882345,1.740576,100140.57,-24,+212,-248
94456,9.313,-2.879,2.341,-0.957607,0.673226,1.659696,100140.57,-31,+211,-245
94467,10.164,-2.564,1.855,-1.234836,0.516786,1.539439,100142.19,-35,+211,-241
94477,10.932,-1.860,1.597,-1.448389,0.429342,1.440466,100137.80,-35,+211,-241
94486,10.491,-1.450,0.647,-1.369460,0.379501,1.273384,100137.80,-41,+211,-236
94496,9.727,-0.722,0.195,-1.023588,0.414088,1.086081,100139.25,-44,+211,-233
94507,9.598,0.460,0.212,-0.600561,0.497098,1.007329,100139.25,-47,+209,-230
94517,10.006,0.249,0.866,-0.227552,0.536474,0.992962,100141.23,-47,+209,-230
94526,10.243,-0.541,1.315,0.043824,0.510932,0.953586,100139.77,-51,+206,-229
94536,9.897,-1.125,1.781,0.155035,0.482199,0.849292,100140.30,-54,+205,-229
94546,9.499,-1.911,2.484,0.073090,0.412492,0.764155,100140.30,-57,+203,-228
94556,9.574,-2.287,2.991,-0.227552,0.315648,0.671568,100140.30,-57,+203,-228
94566,9.635,-1.403,2.791,-0.619717,0.208694,0.576320,100141.34,-58,+203,-226
94576,9.632,-0.244,2.126,-0.817662,0.126217,0.529494,100139.66,-60,+203,-225
94586,9.643,0.279,1.522,-0.714433,0.108657,0.514063,100141.45,-63,+201,-223
94597,9.678,0.263,0.863,-0.503185,0.121428,0.522045,100139.77,-64,+202,-221
94606,9.672,-0.159,0.623,-0.265864,0.146437,0.539072,100139.77,-64,+202,-221
94616,9.667,-0.698,0.805,-0.038121,0.166125,0.517256,100141.88,-66,+201,-220
94626,9.563,-1.250,1.143,0.067236,0.173575,0.453403,100139.95,-67,+199,-220
94637,9.496,-1.402,1.739,0.017218,0.174639,0.376247,100140.10,-68,+198,-220
94647,9.420,-0.699,2.472,-0.104635,0.160804,0.311862,100140.10,-68,+198,-220
94656,9.215,0.114,3.028,-0.267461,0.136327,0.269293,100140.79,-70,+199,-218
94666,9.041,0.493,2.779,-0.327057,0.126217,0.253329,100141.99,-69,+198,-218
94676,9.285,0.449,2.249,-0.277039,0.123557,0.276742,100141.99,-71,+198,-217
94686,9.423,0.124,1.676,-0.160506,0.134199,0.310797,100141.21,-71,+198,-217
94696,9.623,-0.761,1.058,-0.097185,0.151758,0.363476,100139.38,-71,+197,-216
94706,9.996,-1.474,0.354,-0.138158,0.169318,0.424137,100139.38,-73,+197,-215
94711,10.252,-1.315,0.111,-0.197222,0.189538,0.464577,100142.00,-73,+197,-215
94722,10.176,-0.919,0.261,-0.235534,0.216676,0.513531,100141.11,-74,+196,-215
94731,9.829,-0.222,0.738,-0.236598,0.247538,0.587494,100139.17,-77,+195,-214
94741,9.450,0.745,1.108,-0.174341,0.265630,0.689127,100138.13,-77,+195,-214
94751,9.447,0.637,1.392,-0.040250,0.284786,0.823751,100138.13,-78,+193,-213
94761,9.654,0.083,1.397,0.081603,0.297024,0.933366,100142.59,-82,+191,-211
94772,10.001,-0.442,1.637,0.098631,0.300749,1.039788,100140.83,-85,+188,-211
94781,10.136,-0.579,1.898,0.007108,0.277868,1.149402,100138.83,-85,+188,-211
94791,9.978,0.206,2.308,-0.084947,0.264566,1.270723,100140.56,-88,+184,-210
94801,9.672,0.785,2.457,-0.089204,0.241153,1.433549,100140.56,-92,+181,-210
94812,9.751,1.053,2.236,0.009237,0.225190,1.621384,100141.41,-95,+176,-209
94821,10.319,0.515,2.023,0.159291,0.220401,1.807090,100141.04,-101,+176,-209
94832,10.797,-0.692,1.500,0.249750,0.220401,1.978961,100140.05,-101,+171,-208
94841,10.953,-1.251,1.113,0.252943,0.212419,2.105071,100140.15,-105,+165,-208
94852,11.244,-1.341,0.968,0.244429,0.195923,2.238099,100140.15,-110,+158,-208
94862,12.208,-1.501,0.944,0.263585,0.173043,2.375915,100142.22,-116,+151,-208
94871,13.176,-1.511,1.398,0.299768,0.157079,2.507346,100141.80,-116,+151,-208
94881,14.026,-1.560,2.163,0.279016,0.161336,2.628135,100140.86,-120,+143,-207
94892,14.600,-1.900,2.293,0.170466,0.199116,2.737750,100141.38,-126,+133,-206
94902,15.234,-1.935,2.012,-0.012580,0.233703,2.836722,100141.38,-130,+125,-206
94911,16.346,-1.599,1.400,-0.189773,0.226254,2.948997,100137.70,-130,+125,-206
94921,18.205,-0.911,1.795,-0.302580,0.176235,3.069254,100140.05,-135,+115,-204
94931,20.107,-0.295,2.087,-0.463277,0.154951,3.158117,100137.59,-141,+106,-203
94942,21.688,0.736,1.129,-0.916102,0.203373,3.184190,100138.79,-144,+97,-201
94947,22.676,2.303,0.487,-1.307203,0.186346,3.220906,100138.79,-144,+97,-201
94956,23.302,4.934,-0.279,-1.565808,0.135263,3.283162,100138.79,-148,+88,-198
94966,23.641,8.615,-0.480,-1.773863,0.149630,3.319878,100141.22,-148,+88,-198
94977,22.581,11.025,-0.364,-1.946799,0.219868,3.316153,100140.81,-151,+79,-196
94987,19.223,11.287,-0.613,-2.196891,0.207630,3.285823,100139.66,-155,+71,-193
94997,15.224,8.642,-0.838,-2.188909,0.075667,3.295933,100139.16,-158,+62,-191
95006,12.165,3.274,2.296,-1.405643,0.088437,3.223566,100142.66,-158,+62,-191
95016,10.613,-4.362,3.654,-0.153057,0.009685,3.331052,100139.16,-160,+52,-189
95027,10.646,-7.958,6.609,0.704704,0.004896,3.465676,100139.16,-162,+38,-190
95036,12.450,-7.628,9.815,0.776007,0.107061,3.481107,100138.16,-163,+25,-189
95046,13.396,-7.442,8.436,0.954796,0.151758,3.337438,100137.85,-164,+25,-189
95056,11.514,-6.259,5.925,0.598282,0.141116,2.799474,100137.85,-164,+13,-188
95067,7.931,-2.462,2.646,-0.436671,-0.100284,2.032882,100140.92,-164,+5,-188
95076,6.279,0.788,0.833,-1.169387,-0.308517,1.385659,100140.92,-164,+1,-189
95086,6.205,2.623,-0.008,-1.187478,-0.406957,0.840779,100141.27,-163,+1,-190
95096,6.256,3.879,0.116,-1.035827,-0.482516,0.489586,100140.48,-163,+1,-190
95107,5.234,4.009,0.911,-0.953350,-0.594260,0.166063,100140.48,-161,+1,-192
95117,3.342,3.837,1.483,-0.535112,-0.630975,-0.278780,100140.93,-161,+3,-194
95127,2.241,3.425,1.568,-0.028543,-0.670883,-0.707661,100137.60,-159,+6,-196
95136,1.885,2.356,1.765,0.447163,-0.748571,-1.090248,100139.65,-159,+6,-196
95147,1.834,1.132,2.382,0.894135,-0.819342,-1.461128,100139.65,-158,+10,-199
95157,1.958,0.566,2.748,1.274594,-0.903947,-1.846908,100139.65,-157,+15,-201
95166,2.322,0.585,2.905,1.515107,-1.007177,-2.253972,100141.27,-156,+21,-204
95176,2.779,0.865,3.247,1.709327,-1.074222,-2.658375,100141.05,-156,+21,-204
95186,3.132,1.300,3.721,1.814153,-1.118388,-3.056393,100138.22,-153,+29,-210
95197,3.205,1.380,4.236,1.856190,-1.154039,-3.430466,100137.39,-151,+38,-213
95207,3.343,1.088,4.745,1.858318,-1.186498,-3.777934,100137.39,-145,+48,-218
95216,3.634,0.559,5.284,1.777437,-1.212039,-4.107310,100136.09,-145,+48,-218
95226,4.212,-0.050,5.640,1.593859,-1.221617,-4.421255,100135.70,-141,+60,-222
95237,4.901,-0.500,5.692,1.301731,-1.221617,-4.724557,100135.83,-135,+73,-228
95247,5.779,-0.679,5.279,1.006942,-1.208314,-5.016685,100135.83,-128,+89,-233
95257,6.795,-0.641,4.830,0.771218,-1.156700,-5.281676,100138.11,-128,+89,-233
95266,7.952,-0.469,4.506,0.595621,-1.080076,-5.525383,100138.11,-118,+104,-238
95277,9.313,-0.308,4.265,0.473768,-0.985892,-5.744612,100135.75,-108,+121,-242
95287,10.674,-0.328,4.194,0.432264,-0.863507,-5.938832,100137.78,-96,+137,-246
95296,12.016,-0.471,4.356,0.424282,-0.725159,-6.122942,100136.89,-96,+137,-246
95306,13.382,-0.721,4.638,0.412576,-0.597984,-6.313969,100136.89,-82,+153,-249
95316,15.152,-0.869,4.699,0.417365,-0.480920,-6.510850,100138.48,-69,+168,-252
95327,17.652,-1.522,5.060,0.513144,-0.278186,-6.707730,100137.54,-53,+183,-254
95337,20.263,-2.522,5.840,0.551456,-0.028095,-6.881198,100136.02,-53,+183,-254
95346,21.943,-3.787,6.325,0.473236,0.196456,-6.969528,100135.08,-35,+197,-255
95356,21.834,-4.815,5.918,0.488667,0.410364,-6.913125,100137.59,-17,+207,-255
95367,21.207,-9.144,4.161,0.367878,0.522107,-6.639620,100140.73,+0,+218,-257
95377,20.959,-14.242,3.239,0.290190,0.320969,-6.109107,100137.02,+0,+218,-257
95386,21.530,-12.390,2.158,0.521658,0.114511,-5.457805,100137.02,+16,+225,-257
95396,22.107,-9.534,3.238,0.894667,0.053850,-4.741053,100138.80,+30,+229,-259
95407,20.838,-13.069,7.395,1.716777,0.185813,-4.000888,100138.80,+42,+229,-265
95417,14.555,-21.325,10.502,2.166409,0.362474,-3.359696,100140.41,+42,+229,-265
95422,8.869,-24.881,9.355,1.699217,0.383226,-2.866430,100140.56,+50,+227,-269
95431,6.036,-25.489,8.145,0.755787,0.520510,-1.987385,100142.45,+53,+228,-270
95441,7.984,-19.054,4.479,0.132154,0.676951,-0.273459,100138.42,+53,+228,-270
95452,11.643,-11.647,1.460,0.874979,0.892455,1.337769,100138.42,+50,+226,-270
95462,15.013,-7.233,1.911,1.908868,0.908418,2.479145,100142.72,+41,+220,-275
95471,12.899,-10.350,-1.813,2.579859,0.507208,3.038392,100140.36,+30,+211,-281
