39875,5.508,-7.155,2.376,0.025523,0.015031,0.156898,99747.09,-154,+5,-139
39885,5.386,-7.205,2.414,0.035101,0.004921,0.173926,99747.09,-154,+5,-139
39896,5.351,-7.241,2.883,0.039358,-0.012107,0.179779,99747.86,-154,+5,-138
39905,5.329,-7.252,3.211,0.042018,-0.046694,0.176586,99749.00,-153,+5,-139
39915,5.155,-7.429,2.883,0.030844,-0.053079,0.170201,99743.47,-153,+5,-139
39925,5.081,-7.455,2.643,0.007963,-0.033569,0.151932,99747.98,-153,+5,-139
39934,5.016,-7.472,2.357,-0.013321,-0.001997,0.132421,99747.98,-153,+5,-139
39945,5.022,-7.386,2.062,-0.026624,0.030462,0.105816,99749.27,-153,+3,-139
39955,5.175,-7.294,2.078,-0.025559,0.057600,0.086128,99747.98,-153,+4,-139
39965,5.295,-7.243,2.104,-0.010660,0.067710,0.085595,99745.40,-153,+4,-139
39975,5.405,-7.196,2.187,0.003174,0.054939,0.106348,99745.40,-153,+4,-139
39986,5.151,-7.339,2.290,0.032441,0.042700,0.116990,99749.58,-153,+3,-140
39995,5.265,-7.350,2.630,0.040422,0.036847,0.114861,99744.58,-153,+3,-139
40005,5.172,-7.397,2.522,0.040954,0.027801,0.114861,99744.58,-153,+3,-139
40015,5.024,-7.382,2.503,0.040422,0.028866,0.102623,99747.13,-153,+3,-138
40025,5.132,-7.272,2.638,0.042551,0.035251,0.090916,99746.61,-153,+2,-139
40035,5.162,-7.267,2.643,0.047872,0.028866,0.090384,99746.61,-153,+2,-138
40041,5.104,-7.248,2.401,0.055853,0.024609,0.095173,99746.30,-153,+2,-138
40050,5.091,-7.236,2.226,0.067028,0.018223,0.102091,99746.57,-153,+1,-138
40060,5.060,-7.313,2.139,0.085651,0.015563,0.101559,99744.80,-153,+1,-138
40070,5.098,-7.364,2.232,0.103211,0.018756,0.094109,99743.07,-153,+1,-138
40080,5.152,-7.387,2.507,0.117578,0.012370,0.088256,99743.07,-153,+0,-138
40090,5.153,-7.527,2.596,0.126092,0.000132,0.084531,99749.20,-153,+0,-137
40100,5.120,-7.586,2.801,0.120239,-0.005189,0.069632,99747.10,-153,+0,-138
40111,5.108,-7.582,3.041,0.103211,-0.014235,0.052605,99745.02,-153,+0,-138
40120,5.170,-7.478,3.154,0.078202,-0.022749,0.040366,99744.29,-153,-1,-138
40130,5.228,-7.313,3.354,0.061174,-0.052547,0.037706,99744.29,-153,+0,-138
40140,5.229,-7.319,2.868,0.048404,-0.067978,0.048348,99749.15,-153,-1,-138
40151,5.067,-7.423,2.456,0.039358,-0.068510,0.045155,99746.79,-153,-1,-138
40160,5.068,-7.327,2.458,0.028716,-0.050951,0.045687,99747.05,-152,-1,-138
40170,5.143,-7.300,2.475,0.020202,-0.039244,0.056329,99746.54,-152,-1,-138
40180,5.133,-7.327,2.607,0.011688,-0.035520,0.061118,99746.54,-153,-1,-138
40190,5.157,-7.240,2.827,0.008496,-0.054144,0.070696,99745.90,-153,-1,-138
40200,5.133,-7.428,2.535,0.009560,-0.073832,0.086660,99749.76,-152,-1,-138
40210,4.957,-7.496,2.486,0.003174,-0.077556,0.085063,99746.27,-152,-1,-138
40220,5.101,-7.367,2.611,-0.002147,-0.070639,0.084531,99746.16,-151,-2,-139
40230,5.144,-7.421,2.661,-0.010128,-0.075428,0.098898,99746.16,-151,-2,-139
40241,5.162,-7.378,2.648,-0.022899,-0.078088,0.107412,99747.01,-151,-2,-138
40250,5.177,-7.277,2.801,-0.030348,-0.091391,0.123375,99747.52,-150,-3,-139
40260,5.141,-7.289,2.534,-0.038330,-0.100437,0.145192,99746.12,-151,-3,-140
40270,5.107,-7.395,2.495,-0.045248,-0.108419,0.163283,99745.02,-151,-3,-140
40281,5.104,-7.340,2.557,-0.051633,-0.111611,0.180311,99745.02,-150,-3,-140
40290,4.855,-7.512,2.386,-0.053229,-0.114804,0.182439,99746.73,-149,-3,-140
40300,4.817,-7.539,2.181,-0.060147,-0.102565,0.174458,99747.30,-149,-3,-140
40310,4.785,-7.643,2.062,-0.067064,-0.075960,0.163283,99748.50,-149,-3,-140
40321,4.848,-7.564,2.253,-0.070789,-0.069043,0.141999,99742.88,-150,-4,-141
40330,4.912,-7.452,2.374,-0.066532,-0.071703,0.135082,99742.88,-149,-4,-141
40340,4.862,-7.465,2.528,-0.066000,-0.073832,0.134549,99750.10,-149,-4,-141
40350,4.794,-7.577,2.505,-0.069725,-0.067446,0.129228,99745.30,-149,-4,-141
40360,4.730,-7.557,2.430,-0.078238,-0.062125,0.119118,99745.68,-149,-5,-142
40371,4.691,-7.585,2.385,-0.077706,-0.058400,0.102623,99744.52,-149,-5,-142
40380,4.782,-7.638,2.249,-0.077706,-0.050951,0.081871,99744.52,-147,-5,-142
40390,4.825,-7.583,2.177,-0.073449,-0.053611,0.066972,99750.45,-148,-5,-142
40396,5.023,-7.564,2.255,-0.072917,-0.054144,0.058990,99746.48,-148,-5,-141
40406,5.020,-7.649,2.351,-0.077174,-0.046694,0.054201,99746.48,-147,-5,-142
40416,4.909,-7.767,2.112,-0.078238,-0.046162,0.047816,99744.07,-147,-5,-142
40425,4.841,-7.658,2.246,-0.078770,-0.045630,0.035577,99747.21,-147,-5,-143
40435,4.714,-7.688,2.192,-0.088881,-0.029666,0.020146,99747.21,-147,-5,-142
40445,4.558,-7.741,1.987,-0.103247,0.002792,-0.005927,99746.76,-147,-5,-142
40456,4.643,-7.737,2.248,-0.119211,0.039508,-0.042643,99747.26,-147,-5,-142
40466,4.848,-7.650,2.769,-0.117614,0.038444,-0.070845,99746.90,-148,-3,-143
40475,5.024,-7.443,2.618,-0.121871,0.019288,-0.067120,99746.90,-148,-4,-142
40485,4.991,-7.460,2.794,-0.115486,-0.019556,-0.043175,99746.90,-148,-3,-143
40496,5.024,-7.546,2.681,-0.137835,-0.035520,-0.026148,99748.60,-148,-3,-143
40505,4.967,-7.630,2.614,-0.173486,-0.033391,-0.010184,99745.90,-147,-3,-143
40515,4.927,-7.607,2.429,-0.208605,-0.029666,-0.003267,99748.13,-148,-3,-143
40525,4.925,-7.581,2.078,-0.229357,-0.015299,-0.000606,99747.04,-148,-3,-143
40536,4.925,-7.617,1.950,-0.233614,-0.006786,0.003118,99747.04,-148,-3,-143
40546,4.950,-7.683,1.790,-0.247449,0.023545,0.003650,99748.94,-147,-1,-143
40555,4.751,-7.807,1.440,-0.268202,0.073031,0.003650,99747.19,-148,-1,-143
40565,4.691,-7.674,1.863,-0.270862,0.119856,-0.024019,99746.06,-148,+0,-143
40576,4.860,-7.665,2.356,-0.279376,0.138480,-0.047964,99746.06,-148,+0,-143
40586,4.798,-7.727,2.332,-0.294275,0.136352,-0.061799,99748.11,-148,+0,-143
40595,4.935,-7.582,2.880,-0.297468,0.110811,-0.068184,99748.11,-149,+0,-143
40605,5.226,-7.553,2.951,-0.296403,0.056535,-0.061799,99749.92,-148,+1,-143
40615,5.017,-7.719,2.238,-0.334715,0.025141,-0.025616,99748.67,-149,+1,-143
40626,4.927,-7.805,2.152,-0.356532,0.017691,-0.011781,99748.20,-149,+3,-143
40631,5.049,-7.777,2.076,-0.363449,0.022480,-0.013377,99748.20,-149,+3,-143
40640,5.157,-7.818,1.887,-0.390587,0.035783,-0.009652,99750.80,-149,+3,-143
40650,5.175,-7.913,1.893,-0.427834,0.061324,-0.003799,99748.87,-149,+4,-144
40660,5.358,-7.788,2.018,-0.456036,0.082077,0.011632,99744.76,-149,+6,-144
40671,5.518,-7.726,2.061,-0.492220,0.079416,0.043559,99746.52,-149,+6,-143
40680,5.558,-7.740,2.303,-0.525210,0.058132,0.084531,99746.52,-149,+6,-143
40690,5.630,-7.694,2.762,-0.561926,0.033655,0.138274,99748.24,-149,+7,-143
40700,5.656,-7.583,3.000,-0.610348,-0.001997,0.212238,99745.27,-149,+9,-144
40711,5.694,-7.658,3.276,-0.696018,-0.016896,0.319192,99747.37,-149,+9,-145
40721,5.857,-7.545,3.486,-0.800843,-0.036584,0.436256,99744.76,-149,+9,-145
40730,6.233,-7.445,3.527,-0.868953,-0.099905,0.545338,99744.76,-148,+11,-145
40740,6.225,-7.976,3.219,-0.953027,-0.124382,0.676769,99748.87,-147,+11,-147
40751,5.984,-8.456,2.590,-1.048274,-0.128639,0.800219,99747.10,-147,+11,-147
40761,6.006,-8.538,2.098,-1.116384,-0.111079,0.898127,99745.54,-147,+11,-147
40770,6.323,-8.795,1.744,-1.171724,-0.068510,0.992310,99746.95,-146,+12,-147
40780,6.325,-9.465,1.618,-1.248880,-0.001465,1.060953,99746.95,-146,+12,-148
40791,6.564,-9.794,1.475,-1.310604,0.068774,1.093411,99749.79,-147,+12,-147
40801,7.803,-9.895,1.112,-1.340403,0.126774,1.114696,99748.70,-147,+12,-147
40810,8.669,-9.750,0.734,-1.386696,0.091655,1.149283,99749.01,-145,+11,-147
40820,8.528,-9.675,1.524,-1.388292,0.051214,1.246659,99744.26,-145,+13,-148
40830,8.414,-9.488,2.838,-1.370201,0.015563,1.395650,99744.26,-146,+12,-148
40841,8.454,-9.190,2.899,-1.358494,-0.088199,1.539851,99747.06,-146,+12,-148
40851,8.370,-8.953,2.661,-1.324971,-0.250492,1.654255,99745.92,-144,+11,-149
40860,7.846,-9.028,3.224,-1.279210,-0.358510,1.748438,99745.14,-142,+9,-150
40866,7.635,-9.470,3.201,-1.257393,-0.424492,1.821337,99745.08,-142,+9,-150
40876,7.154,-8.936,3.722,-1.213760,-0.457483,1.873484,99745.08,-140,+7,-152
40886,6.192,-9.144,3.400,-1.079669,-0.453226,1.920310,99745.08,-137,+5,-153
40896,4.510,-10.879,3.525,-0.956219,-0.397354,2.005980,99750.14,-135,+1,-154
40905,4.606,-11.035,3.728,-0.825853,-0.408529,2.012365,99747.69,-135,+1,-154
40915,4.630,-9.083,2.906,-0.758807,-0.362235,1.876145,99745.66,-133,-1,-155
40926,4.682,-7.394,2.564,-0.750825,-0.175465,1.718640,99745.66,-131,-3,-156
40936,4.643,-6.009,2.684,-0.778495,0.033123,1.475466,99744.88,-130,-5,-156
40945,4.728,-4.349,2.617,-0.761999,0.198609,1.154072,99744.88,-130,-5,-156
40955,5.003,-2.754,2.361,-0.701871,0.354517,0.780531,99743.85,-130,-7,-155
40966,5.174,-1.643,1.924,-0.577357,0.447104,0.391026,99745.46,-130,-7,-155
40976,4.582,-1.625,1.300,-0.411339,0.510425,0.062183,99744.88,-132,-6,-154
40985,4.484,-2.094,1.551,-0.212862,0.563104,-0.208129,99744.88,-132,-6,-154
40995,5.320,-1.324,1.878,0.080330,0.543416,-0.605083,99747.38,-133,-6,-153
41006,5.851,-0.619,1.750,0.330954,0.528517,-0.939780,99747.27,-135,-5,-153
41016,5.603,-0.863,1.592,0.618293,0.457214,-1.157413,99743.68,-137,-3,-152
41026,5.255,-1.690,1.439,0.935431,0.346003,-1.354294,99743.92,-137,-3,-152
41035,5.116,-2.420,1.459,1.223834,0.247031,-1.570330,99747.16,-139,-3,-150
41046,5.247,-3.018,1.420,1.457430,0.192223,-1.783706,99743.77,-139,-3,-149
41056,5.449,-3.595,1.283,1.651651,0.140609,-1.975266,99743.61,-140,-3,-148
41066,5.462,-4.400,1.120,1.817137,0.085269,-2.137027,99743.61,-140,-3,-148
41075,5.404,-5.251,0.967,1.941650,0.049086,-2.275908,99743.45,-141,-2,-148
41085,5.527,-6.148,0.930,2.029448,0.034187,-2.410532,99743.45,-142,-1,-147
41096,5.738,-7.078,0.877,2.079999,0.025673,-2.538238,99744.12,-142,-2,-147
41101,5.839,-7.823,0.907,2.104476,0.015031,-2.626036,99743.34,-142,-2,-147
41110,5.788,-8.591,0.986,2.110329,0.000664,-2.702128,99744.90,-143,-1,-146
41120,5.520,-9.472,1.108,2.126292,-0.011575,-2.800036,99742.29,-145,-1,-145
41131,5.767,-10.136,1.429,2.114054,-0.016364,-2.873467,99742.29,-145,-1,-145
41141,5.948,-10.449,1.462,2.083724,-0.017428,-2.892091,99744.94,-147,-1,-143
41151,5.904,-10.717,1.503,2.065100,-0.021685,-2.851650,99744.58,-147,-1,-143
41160,5.712,-11.060,1.529,2.052861,-0.052015,-2.765981,99745.05,-150,-1,-142
41170,5.369,-11.469,1.500,2.039026,-0.115336,-2.659559,99743.28,-150,-1,-142
41181,4.962,-11.925,1.402,2.020402,-0.212180,-2.552073,99743.28,-150,-1,-142
41191,4.537,-12.214,1.131,1.964531,-0.308492,-2.436073,99747.98,-151,-1,-142
41200,3.960,-12.244,0.997,1.867687,-0.353721,-2.296128,99746.42,-153,-2,-142
41210,3.595,-12.268,1.043,1.754348,-0.332969,-2.173743,99746.06,-153,-2,-142
41221,3.477,-12.025,1.320,1.604293,-0.240382,-2.075835,99746.89,-154,-3,-140
41231,4.046,-12.207,2.079,1.436678,-0.114272,-1.983247,99746.89,-157,-3,-140
41241,3.941,-11.832,2.121,1.265871,-0.020621,-1.889064,99747.70,-160,-4,-139
41250,3.316,-11.326,1.062,1.007798,0.103893,-1.733688,99747.16,-160,-4,-139
41261,3.178,-11.060,0.881,0.855614,0.152315,-1.576183,99746.91,-161,-3,-137
41271,3.615,-11.092,0.530,0.736954,0.242242,-1.413358,99745.40,-165,-1,-136
41281,4.101,-11.078,0.569,0.593816,0.334297,-1.247340,99745.40,-167,-1,-135
41290,4.368,-10.379,0.626,0.491651,0.372609,-1.113248,99750.73,-167,-1,-135
41300,4.524,-9.340,0.665,0.427266,0.376865,-0.986074,99750.46,-170,-1,-132
41311,5.049,-8.688,0.731,0.400660,0.341214,-0.831230,99748.99,-173,+0,-131
41321,5.199,-8.379,0.822,0.398000,0.289599,-0.681175,99748.21,-176,+0,-130
41330,5.283,-8.061,1.071,0.395871,0.237453,-0.541230,99748.21,-176,+0,-130
41340,5.071,-7.508,1.301,0.438440,0.112939,-0.402881,99750.30,-177,+0,-128
41351,4.807,-7.358,0.712,0.525706,-0.037116,-0.270918,99748.72,-178,+0,-128
41361,4.736,-7.525,0.821,0.597541,-0.163758,-0.125120,99747.73,-179,-1,-129
41371,5.117,-7.791,1.104,0.657669,-0.299446,0.016953,99746.73,-180,-4,-128
41380,5.332,-7.909,1.027,0.645963,-0.359574,0.179779,99746.73,-180,-4,-128
41391,5.250,-8.396,0.926,0.568275,-0.323391,0.360164,99748.71,-179,-6,-129
41401,5.861,-9.094,0.600,0.428330,-0.329244,0.540017,99747.26,-179,-9,-129
41411,4.998,-8.705,-1.389,0.200587,-0.368620,0.820439,99748.09,-177,-13,-129
41420,5.407,-7.981,-0.238,0.029780,-0.317538,0.998164,99746.68,-177,-13,-129
41431,8.551,-7.430,3.985,0.118642,-0.151520,1.082769,99746.68,-177,-15,-129
41441,8.222,-6.583,6.386,0.200055,0.123581,1.081705,99746.23,-177,-20,-129
41451,6.083,-7.526,7.273,0.451211,-0.020088,1.272732,99747.17,-176,-25,-129
41456,6.170,-8.227,5.526,0.603926,-0.436198,1.397778,99746.14,-176,-25,-129
41465,6.647,-7.975,4.180,0.554440,-0.608070,1.417998,99746.14,-174,-31,-129
41476,6.165,-7.637,2.259,0.289450,-0.480896,1.370108,99748.22,-174,-31,-129
41486,5.684,-7.194,1.895,-0.023431,-0.282951,1.257833,99748.22,-172,-36,-131
41496,5.334,-7.398,2.276,-0.202220,-0.075960,1.130659,99748.70,-170,-38,-131
41506,5.268,-7.542,2.076,-0.376752,0.129966,1.000824,99746.97,-170,-40,-130
41516,5.669,-7.054,2.335,-0.527339,0.327379,0.851301,99746.50,-170,-40,-130
41526,6.220,-6.025,2.968,-0.556073,0.433801,0.748072,99746.50,-170,-42,-130
41536,6.540,-5.795,3.137,-0.486367,0.429544,0.753925,99746.50,-169,-43,-130
41546,6.518,-6.073,3.116,-0.342697,0.289599,0.816182,99748.93,-170,-44,-130
41555,6.300,-6.152,3.272,-0.192110,0.130499,0.866200,99747.05,-170,-44,-129
41566,5.827,-6.566,3.492,-0.119743,0.045361,0.882696,99748.77,-170,-48,-129
41576,5.451,-6.909,3.458,-0.084624,-0.006786,0.835338,99746.85,-169,-50,-129
41586,5.483,-6.956,3.732,-0.079303,-0.025942,0.739026,99746.85,-167,-52,-129
41596,5.472,-7.000,3.768,-0.134642,0.002792,0.641650,99750.88,-167,-54,-129
41606,5.377,-7.057,3.661,-0.183064,0.008645,0.557045,99750.00,-167,-54,-129
41616,5.620,-6.930,3.194,-0.182532,0.004389,0.489467,99746.23,-166,-54,-130
41626,5.943,-6.783,2.928,-0.142091,-0.012107,0.453283,99746.23,-166,-56,-130
41636,6.068,-6.663,2.805,-0.087816,-0.055208,0.457008,99750.84,-165,-56,-130
41646,5.998,-6.901,2.566,-0.026092,-0.090327,0.477760,99747.91,-165,-56,-130
41656,5.748,-7.083,2.475,0.027652,-0.117465,0.474036,99747.91,-165,-58,-130
41666,5.648,-7.185,2.608,0.019670,-0.078088,0.434659,99747.02,-164,-59,-130
41675,5.739,-6.962,3.110,-0.015449,-0.028602,0.386237,99745.51,-163,-60,-130
41686,5.638,-6.835,3.269,-0.047376,0.003856,0.366549,99745.51,-163,-60,-130
41692,5.557,-6.920,3.273,-0.075046,0.022480,0.356971,99750.62,-163,-61,-130
41701,5.591,-6.943,3.410,-0.100587,0.035251,0.341008,99745.82,-163,-61,-130
41711,5.663,-6.850,3.245,-0.129321,0.037379,0.325577,99748.70,-163,-62,-130
41720,5.684,-6.816,3.090,-0.142624,0.036847,0.326641,99747.23,-161,-62,-130
41731,5.623,-6.888,2.892,-0.142624,0.042168,0.330898,99747.23,-161,-62,-130
41741,5.492,-6.860,2.899,-0.137835,0.046957,0.329302,99748.27,-161,-62,-130
41751,5.429,-6.957,2.973,-0.127192,0.058664,0.321320,99747.48,-161,-64,-130
41761,5.347,-6.903,2.786,-0.135174,0.070370,0.311742,99747.06,-161,-64,-130
41771,5.338,-6.979,2.886,-0.116550,0.073031,0.302696,99745.19,-161,-65,-130
41781,5.285,-7.034,2.926,-0.107504,0.104425,0.280348,99745.19,-161,-65,-130
41791,5.231,-7.125,2.774,-0.134642,0.151251,0.256403,99750.98,-160,-65,-129
41801,5.162,-7.271,2.878,-0.143688,0.172003,0.220751,99748.21,-161,-65,-130
41810,5.257,-7.145,2.806,-0.139963,0.191159,0.182439,99748.48,-161,-67,-130
41821,5.256,-7.192,2.875,-0.136770,0.203930,0.159559,99748.63,-161,-67,-130
41831,5.342,-7.184,2.701,-0.127192,0.198609,0.137210,99748.63,-161,-66,-130
41841,5.427,-7.109,2.714,-0.118147,0.207654,0.130825,99747.70,-162,-66,-129
41851,5.406,-7.224,2.819,-0.093137,0.190095,0.141467,99746.92,-162,-66,-128
41861,5.346,-7.255,2.752,-0.083027,0.168278,0.138274,99747.14,-162,-67,-129
41871,5.401,-7.146,3.031,-0.095266,0.179453,0.137210,99745.05,-162,-67,-129
41881,5.540,-7.057,3.479,-0.110697,0.181049,0.149981,99745.05,-162,-66,-129
41891,5.493,-7.035,3.740,-0.150605,0.177324,0.176054,99748.74,-162,-67,-127
41901,5.395,-7.044,3.580,-0.206477,0.172535,0.206916,99747.70,-162,-67,-128
41911,5.460,-6.924,3.705,-0.239468,0.157636,0.246825,99744.35,-162,-67,-128
41921,5.535,-6.829,3.507,-0.269798,0.142205,0.302164,99746.76,-163,-67,-127
41926,5.466,-6.884,3.234,-0.288954,0.123581,0.348458,99746.76,-163,-67,-127
41935,5.429,-6.992,3.227,-0.290550,0.095379,0.386770,99746.76,-163,-68,-127
41947,5.416,-7.088,3.176,-0.291614,0.067178,0.435192,99749.76,-161,-67,-128
41956,5.144,-7.257,3.000,-0.313431,0.066645,0.470843,99746.77,-162,-68,-129
41966,4.923,-7.369,2.964,-0.321945,0.067710,0.483081,99746.77,-162,-68,-129
41976,4.847,-7.406,2.994,-0.324073,0.068774,0.475632,99746.80,-161,-69,-129
41987,4.847,-7.483,2.903,-0.340036,0.090058,0.466586,99749.04,-160,-70,-129
41996,4.761,-7.576,2.726,-0.350146,0.101765,0.468182,99747.90,-160,-71,-129
42006,4.714,-7.583,2.673,-0.346954,0.103893,0.448494,99747.90,-160,-71,-129
42016,4.575,-7.544,2.680,-0.343761,0.109746,0.455412,99745.76,-160,-71,-128
42025,4.736,-7.672,2.653,-0.347486,0.114003,0.445834,99745.91,-159,-71,-129
42036,4.683,-7.823,2.645,-0.344293,0.112407,0.402733,99745.91,-159,-71,-129
42046,4.525,-7.834,2.672,-0.349614,0.116664,0.377192,99749.62,-158,-71,-129
42056,4.402,-7.672,2.678,-0.374091,0.143269,0.379320,99748.95,-158,-71,-129
42066,4.603,-7.636,2.695,-0.399101,0.172535,0.386237,99746.02,-158,-71,-130
42076,4.866,-7.642,2.869,-0.418789,0.180517,0.386770,99746.80,-159,-73,-130
42086,4.915,-7.679,2.841,-0.435816,0.167746,0.400604,99747.32,-158,-71,-130
42096,4.906,-7.561,2.711,-0.463486,0.152315,0.441045,99745.38,-158,-71,-130
42106,4.854,-7.757,2.851,-0.479449,0.141141,0.482017,99747.99,-158,-72,-130
42117,4.708,-7.946,2.857,-0.515633,0.141141,0.519265,99746.23,-158,-73,-130
42126,4.775,-8.127,2.936,-0.560330,0.165086,0.551724,99746.23,-156,-72,-131
42136,4.759,-8.204,3.037,-0.593321,0.177856,0.561301,99746.23,-156,-72,-131
42146,4.896,-7.995,2.789,-0.645467,0.193820,0.597485,99748.21,-156,-73,-132
42156,4.867,-7.980,2.715,-0.684311,0.198609,0.626219,99747.70,-156,-73,-131
42166,4.906,-8.132,2.655,-0.710917,0.181049,0.674109,99745.40,-155,-73,-132
42176,5.032,-8.136,2.618,-0.735394,0.156040,0.723595,99745.87,-155,-73,-132
42186,4.908,-8.346,2.543,-0.778495,0.148058,0.766696,99745.87,-154,-72,-132
42196,5.010,-8.724,2.138,-0.813082,0.117728,0.806072,99747.55,-153,-73,-134
42206,5.018,-8.844,2.025,-0.828513,0.100700,0.834806,99748.36,-153,-73,-135
42216,4.933,-9.021,1.948,-0.848201,0.094847,0.848641,99748.28,-153,-73,-135
42226,5.059,-9.026,1.896,-0.851394,0.061856,0.836934,99748.28,-152,-73,-135
42236,5.086,-9.167,1.972,-0.829577,0.015031,0.814586,99746.66,-151,-73,-137
42246,5.156,-9.516,1.936,-0.847137,-0.005189,0.819907,99746.66,-151,-73,-138
42256,5.429,-9.440,2.230,-0.924293,0.001196,0.837999,99746.50,-151,-73,-138
42266,6.021,-9.053,2.877,-0.976440,-0.008914,0.886421,99745.67,-149,-72,-138
42276,6.634,-9.239,3.178,-1.006238,-0.067446,0.965173,99746.34,-147,-72,-140
42281,6.763,-9.566,3.074,-1.028586,-0.143538,1.038072,99746.34,-147,-72,-140
42291,6.844,-9.802,2.861,-1.054660,-0.217501,1.124274,99747.39,-146,-72,-142
42301,7.113,-9.938,2.771,-1.126495,-0.252620,1.241870,99749.06,-144,-73,-144
42311,7.467,-9.923,2.781,-1.214825,-0.242510,1.355209,99745.98,-141,-73,-146
42321,8.226,-10.146,2.855,-1.294109,-0.220162,1.471209,99744.05,-141,-73,-146
42331,8.959,-10.280,2.794,-1.384568,-0.220162,1.594127,99744.05,-139,-72,-148
42341,9.569,-10.173,3.069,-1.445228,-0.238253,1.730347,99751.16,-136,-73,-150
42351,9.980,-9.960,3.589,-1.448953,-0.268052,1.874548,99745.63,-134,-73,-152
42361,9.846,-9.686,4.187,-1.421815,-0.307960,2.071961,99746.16,-134,-73,-152
42372,9.171,-9.192,4.732,-1.348384,-0.355318,2.301832,99743.70,-130,-74,-154
42381,7.977,-9.745,4.614,-1.318586,-0.401611,2.509887,99743.70,-125,-75,-157
42391,6.502,-11.460,4.478,-1.347852,-0.485685,2.767429,99746.32,-121,-78,-158
42401,6.444,-12.815,5.112,-1.324971,-0.628822,2.959520,99746.48,-121,-78,-158
42412,7.064,-13.058,5.347,-1.357430,-0.714492,2.912694,99742.46,-116,-80,-161
42421,7.041,-12.375,5.155,-1.511742,-0.664473,2.829153,99743.35,-110,-81,-164
42431,6.252,-11.603,4.549,-1.642641,-0.608070,2.813722,99743.35,-105,-83,-166
42441,5.354,-11.828,3.705,-1.682549,-0.603813,2.831282,99745.13,-105,-83,-166
42451,4.165,-10.761,2.844,-1.649558,-0.605409,2.746144,99746.95,-99,-81,-169
42461,2.083,-7.251,2.219,-1.444164,-0.486749,2.504566,99743.45,-95,-82,-172
42471,2.097,-5.060,2.801,-1.160550,-0.333501,2.150713,99742.94,-91,-81,-173
42481,4.161,-4.315,2.480,-0.981761,-0.382455,1.656915,99742.94,-91,-81,-173
42491,3.961,-3.807,-0.363,-1.078073,-0.175465,1.080109,99748.64,-89,-81,-175
42502,-0.420,-4.269,-0.157,-1.272292,-0.038712,0.985393,99742.73,-88,-78,-176
42511,3.293,-5.621,3.456,-0.586935,-0.228143,0.587907,99745.61,-88,-77,-176
42517,7.242,-5.565,4.080,-0.191046,-0.527721,-0.063395,99744.31,-88,-77,-176
42526,7.627,-2.978,2.690,-0.244257,-0.577739,-0.579010,99744.31,-87,-75,-176
42536,6.686,0.253,0.821,-0.274055,-0.470785,-0.815266,99744.31,-89,-72,-177
42547,5.131,0.715,0.719,0.029248,-0.446308,-0.922753,99744.66,-89,-72,-177
42556,3.477,0.027,0.673,0.377780,-0.542088,-1.101009,99742.50,-89,-69,-177
42566,2.011,-0.687,0.111,0.623082,-0.556455,-1.366532,99742.89,-91,-69,-176
42576,1.440,-1.333,0.006,0.755046,-0.365960,-1.734752,99742.89,-93,-68,-176
42587,1.794,-1.713,0.516,0.797614,-0.027006,-2.142880,99744.76,-93,-68,-176
42596,2.645,-2.161,0.999,0.833266,0.274700,-2.502054,99744.76,-97,-65,-173
42606,3.487,-2.611,1.229,0.954587,0.414113,-2.800568,99742.48,-103,-62,-171
42616,4.063,-3.037,1.141,1.163706,0.398150,-3.032568,99742.41,-109,-58,-168
42627,4.275,-3.501,0.818,1.430825,0.300774,-3.220402,99741.32,-109,-58,-168
42636,4.259,-4.320,0.475,1.686238,0.197544,-3.386953,99741.32,-114,-56,-165
42646,4.162,-5.268,0.342,1.895889,0.138480,-3.549778,99743.20,-119,-52,-163
42656,4.182,-6.265,0.359,2.049669,0.140609,-3.706751,99740.99,-124,-50,-160
42667,4.221,-7.142,0.491,2.155558,0.176792,-3.856806,99741.26,-124,-50,-160
42677,4.412,-7.978,0.924,2.242824,0.211379,-3.975466,99743.64,-129,-47,-156
42686,4.742,-8.821,1.451,2.310934,0.207654,-4.063264,99743.23,-135,-43,-154
42696,5.275,-9.463,1.717,2.349778,0.193820,-4.133502,99742.03,-140,-40,-150
42706,5.511,-10.290,1.987,2.341797,0.209251,-4.170750,99742.77,-140,-40,-150
42717,5.380,-11.452,2.449,2.271558,0.269911,-4.199484,99742.77,-145,-35,-148
42726,5.195,-12.563,2.818,2.137999,0.355049,-4.229815,99741.92,-149,-31,-145
42736,5.018,-13.340,3.298,1.985283,0.464664,-4.248971,99741.92,-155,-26,-142
42746,4.848,-13.692,3.400,1.860238,0.572150,-4.267594,99746.57,-155,-26,-142
42757,4.828,-13.431,3.276,1.796384,0.657287,-4.265466,99745.84,-162,-19,-138
42767,4.773,-13.064,2.807,1.768715,0.734443,-4.195759,99742.13,-168,-13,-135
42776,4.533,-12.946,2.509,1.771907,0.793507,-4.051558,99742.91,-175,-3,-132
42786,4.533,-13.233,2.298,1.802770,0.836608,-3.914806,99742.91,-175,-3,-132
42797,4.788,-13.605,2.198,1.807559,0.886094,-3.813173,99746.80,-181,+4,-128
42807,5.013,-13.897,1.909,1.763394,0.933452,-3.730696,99743.73,-186,+13,-124
42816,5.049,-13.971,1.430,1.669210,0.951012,-3.623210,99745.62,-190,+23,-121
42826,4.983,-13.972,1.046,1.564917,0.943030,-3.470494,99745.62,-190,+23,-121
42836,4.728,-14.002,0.752,1.432953,0.930260,-3.238494,99745.62,-193,+32,-117
42847,4.200,-14.560,1.100,1.292476,0.902058,-2.896880,99750.20,-195,+43,-116
42856,3.131,-15.088,1.061,1.238201,0.692939,-2.497797,99749.56,-197,+51,-114
42866,1.920,-14.803,0.387,1.216917,0.408260,-2.097119,99749.05,-197,+51,-114
42876,1.031,-13.978,-0.605,1.140825,0.181581,-1.669303,99746.70,-196,+58,-113
42887,0.202,-13.266,-1.344,0.973211,0.059728,-1.134000,99746.70,-195,+62,-114
42897,-0.604,-13.199,-1.669,0.750257,0.005453,-0.507707,99750.60,-194,+64,-115
42906,-0.996,-13.541,-1.840,0.495376,-0.021685,0.110605,99747.52,-194,+64,-115
42916,1.732,-15.150,-0.296,0.236771,-0.053611,0.578861,99747.12,-193,+62,-114
42927,3.589,-15.780,0.303,0.038294,-0.241978,1.006677,99747.12,-193,+60,-115
42937,3.388,-15.180,-0.660,-0.299596,-0.361171,1.481319,99748.41,-193,+57,-117
42946,5.234,-9.969,0.422,-0.227229,-0.638400,1.460035,99748.41,-193,+57,-117
42956,15.531,-2.394,1.424,0.138862,-1.152950,1.041265,99746.42,-191,+54,-119
42967,21.181,2.672,-0.293,-0.044715,-1.015666,1.179081,99745.80,-188,+51,-122
42977,16.181,0.288,0.342,-0.401761,-0.563905,2.153906,99747.56,-188,+46,-124
42987,6.237,-5.077,-1.162,-0.157345,-0.713605,2.909324,99749.83,-184,+38,-126
42996,2.369,-9.601,-1.901,0.219211,-1.091758,3.045190,99749.83,-184,+38,-126
43006,3.346,-11.300,-0.004,0.407578,-1.165189,2.977080,99750.41,-181,+29,-129
43017,4.097,-10.819,4.738,0.362881,-0.735776,2.787117,99748.16,-178,+19,-131
43027,1.444,-12.330,10.763,0.458660,-0.293061,2.604071,99746.02,-176,+11,-131
43036,2.751,-13.824,10.752,0.757174,-0.677244,2.603539,99747.16,-176,+11,-131
43046,4.732,-9.962,0.973,0.388954,-1.221060,2.245429,99748.57,-172,+3,-134
43057,3.015,-7.660,0.292,-0.304917,-0.551666,1.876677,99748.57,-170,-1,-136
43066,2.694,-10.624,5.811,-0.630036,0.132095,1.714383,99748.57,-169,-4,-136
43076,3.267,-10.037,3.731,-1.049871,0.130499,1.253576,99746.74,-169,-4,-136
43086,4.309,-7.831,0.699,-1.208972,0.244370,0.900255,99746.74,-168,-4,-137
43097,5.596,-7.295,0.655,-0.989742,0.359306,0.731045,99747.66,-169,-3,-135
43107,6.467,-6.945,0.475,-0.648660,0.208719,0.691668,99746.10,-168,-4,-135
43116,6.909,-6.717,0.541,-0.318220,0.001728,0.745944,99746.15,-168,-4,-135
43126,6.603,-6.629,1.247,-0.081431,-0.128639,0.821503,99748.13,-167,-6,-137
43137,6.388,-6.710,1.740,0.080863,-0.211116,0.871521,99748.13,-167,-9,-137
43147,5.443,-7.160,2.833,0.106404,-0.216437,0.878971,99747.95,-166,-11,-137
43157,4.824,-7.407,3.743,0.053725,-0.187171,0.808733,99747.98,-166,-11,-137
43166,4.403,-8.012,4.356,-0.069192,-0.101501,0.663999,99741.84,-164,-13,-137
43176,4.172,-7.940,4.256,-0.285761,0.045893,0.469779,99741.84,-165,-15,-137
43187,4.850,-7.346,3.534,-0.429431,0.162957,0.314403,99741.84,-165,-14,-137
43197,5.651,-6.777,2.641,-0.453376,0.209783,0.262256,99746.64,-165,-14,-137
43206,6.104,-6.699,2.295,-0.396972,0.173067,0.305357,99750.30,-165,-13,-137
43216,6.174,-6.730,2.168,-0.316623,0.104957,0.383577,99746.48,-165,-14,-137
43222,6.184,-6.791,2.396,-0.272990,0.056535,0.445302,99743.63,-165,-14,-137
43232,6.160,-6.761,2.845,-0.243192,0.001196,0.503834,99743.63,-165,-15,-137
43242,5.778,-7.011,2.778,-0.223504,-0.056272,0.575136,99747.10,-164,-17,-138
43251,5.196,-7.459,2.406,-0.261816,-0.063189,0.586843,99747.68,-163,-17,-137
43261,5.126,-7.405,2.815,-0.321412,0.001196,0.548531,99745.70,-163,-17,-137
43272,5.146,-7.309,2.971,-0.348550,0.052278,0.529375,99745.85,-163,-17,-137
43282,5.044,-7.458,2.566,-0.376220,0.090058,0.526182,99745.85,-162,-18,-137
43291,5.143,-7.361,2.569,-0.399633,0.114003,0.529375,99750.34,-162,-19,-138
43301,5.331,-7.328,2.605,-0.416128,0.136352,0.571412,99745.33,-162,-19,-138
43312,5.378,-7.404,2.383,-0.433688,0.154976,0.611320,99747.05,-163,-19,-137
43322,5.495,-7.300,2.375,-0.431559,0.138480,0.645907,99743.77,-161,-20,-138
43331,5.480,-7.360,2.273,-0.433688,0.111875,0.676769,99743.77,-162,-21,-138
43341,5.236,-7.551,2.100,-0.442733,0.090058,0.714017,99747.63,-162,-21,-138
43352,5.316,-7.647,2.045,-0.469871,0.108682,0.744879,99748.05,-161,-21,-138
43362,5.234,-7.915,1.919,-0.495412,0.120388,0.764035,99745.09,-160,-23,-138
43372,5.295,-7.850,2.264,-0.516165,0.122517,0.799155,99750.15,-161,-23,-138
43381,5.255,-7.927,2.460,-0.534256,0.125177,0.833210,99750.15,-161,-23,-138
43392,5.329,-7.982,2.478,-0.552348,0.126242,0.874714,99749.00,-158,-24,-138
43402,5.299,-7.955,2.444,-0.575761,0.112407,0.924200,99748.11,-158,-25,-138
43412,5.129,-8.087,2.322,-0.592256,0.102297,0.973154,99747.59,-158,-27,-138
43421,5.000,-8.329,2.373,-0.609284,0.087398,1.013595,99746.50,-158,-27,-138
43431,5.042,-8.554,2.417,-0.639614,0.101765,1.063081,99746.50,-157,-27,-138
43442,5.156,-8.771,2.130,-0.666220,0.121453,1.096604,99743.30,-156,-29,-139
43452,5.326,-8.466,1.695,-0.696550,0.145398,1.119485,99746.48,-155,-31,-139
43461,5.659,-8.573,1.193,-0.692293,0.117728,1.167907,99745.69,-155,-31,-139
43471,5.678,-8.722,0.815,-0.706660,0.080480,1.211540,99745.75,-154,-31,-140
43482,5.619,-8.739,1.244,-0.686972,0.005985,1.274329,99745.75,-153,-34,-140
43492,5.698,-8.648,1.301,-0.673669,-0.069575,1.327007,99748.14,-150,-36,-141
43502,5.783,-8.967,1.808,-0.666752,-0.158437,1.387668,99746.05,-150,-36,-141
43511,5.878,-9.130,2.157,-0.667284,-0.232400,1.469613,99746.00,-148,-36,-142
43522,5.686,-9.252,2.298,-0.699742,-0.271244,1.557943,99743.23,-146,-38,-143
43532,5.794,-9.365,2.454,-0.734862,-0.280290,1.651594,99743.23,-143,-42,-144
43542,5.674,-9.642,2.543,-0.807761,-0.253685,1.737796,99746.92,-143,-42,-144
43551,5.568,-9.988,2.726,-0.893963,-0.165887,1.829851,99749.02,-139,-44,-146
43561,6.104,-10.601,2.665,-0.998788,-0.037116,1.911796,99743.53,-136,-45,-147
43572,7.204,-11.437,2.860,-1.152568,0.115067,1.944787,99744.58,-133,-48,-148
43582,8.527,-13.025,2.866,-1.360623,0.285343,1.982567,99744.58,-133,-48,-148
43591,9.611,-13.555,2.723,-1.616568,0.543948,2.059723,99746.16,-131,-48,-149
43601,10.398,-12.890,1.981,-1.875705,0.893012,2.191154,99746.00,-130,-47,-148
43612,11.115,-11.512,1.939,-2.133778,1.320296,2.352383,99746.05,-130,-47,-148
43622,12.747,-10.819,3.098,-2.300861,1.751837,2.475300,99743.59,-130,-47,-148
43631,13.192,-9.912,5.386,-2.308842,1.902424,2.623759,99743.59,-130,-46,-147
43641,12.888,-10.121,6.368,-2.192842,1.586883,2.953667,99746.13,-130,-47,-146
43652,11.515,-12.195,7.060,-2.035870,0.900994,3.393722,99745.30,-126,-49,-146
43662,9.846,-14.112,6.658,-1.738953,-0.017960,3.578364,99744.56,-126,-49,-146
43672,6.274,-13.820,5.024,-1.581980,-0.587317,3.427777,99743.47,-119,-51,-148
43681,4.027,-12.970,4.281,-1.585173,-0.609666,3.214933,99743.47,-111,-54,-151
43692,3.452,-10.818,3.768,-1.568678,-0.487281,2.872786,99745.85,-105,-56,-153
43702,3.413,-6.953,3.163,-1.381375,-0.397886,2.400273,99743.87,-100,-54,-155
43712,2.271,-3.477,2.417,-1.174384,-0.206859,2.034714,99744.34,-100,-54,-155
43721,9.279,-8.171,3.317,-1.042421,0.324187,1.214732,99744.24,-96,-54,-156
43731,-9.979,1.556,-1.726,-1.025394,0.235856,0.731577,99744.24,-96,-52,-156
43742,-7.987,0.859,-2.060,-0.828513,0.450297,0.997632,99747.30,-95,-50,-158
43752,2.914,-5.800,2.570,-0.571504,0.534370,0.358036,99742.97,-95,-50,-158
43762,5.406,-3.198,2.629,-0.424642,0.200205,-0.537505,99742.41,-95,-48,-157
43771,4.332,-0.154,0.996,-0.323009,0.151783,-0.945101,99745.42,-95,-45,-157
43782,3.187,0.064,0.851,-0.074514,0.125177,-1.211156,99745.42,-96,-40,-157
43792,2.135,-0.067,0.360,0.193670,-0.061593,-1.472954,99743.48,-96,-40,-157
43802,1.060,-0.252,0.077,0.445358,-0.212712,-1.669835,99741.40,-96,-38,-157
43811,0.486,-0.950,0.275,0.731101,-0.296786,-1.876825,99743.79,-97,-36,-155
43822,0.562,-1.636,0.482,0.990238,-0.315409,-2.130642,99743.95,-98,-33,-156
43832,0.971,-2.128,0.474,1.157321,-0.218033,-2.394568,99743.95,-98,-33,-156
43842,1.354,-2.553,0.626,1.259486,-0.028070,-2.628164,99742.98,-98,-31,-155
43851,1.848,-3.196,0.723,1.366440,0.160829,-2.830366,99743.49,-101,-29,-152
43862,2.232,-3.759,0.668,1.482440,0.324719,-3.004366,99740.88,-102,-26,-151
43872,2.400,-4.303,0.576,1.594715,0.477434,-3.152292,99740.32,-102,-26,-151
43882,2.655,-4.889,0.542,1.711779,0.606205,-3.307668,99740.32,-107,-23,-148
43892,3.099,-5.698,0.589,1.834164,0.700920,-3.451870,99742.62,-110,-21,-146
43901,3.498,-6.735,0.443,1.974109,0.740296,-3.573723,99745.27,-114,-17,-142
43912,4.106,-7.951,0.500,2.135870,0.733911,-3.691852,99740.88,-114,-17,-142
43922,4.761,-8.717,0.428,2.249742,0.683361,-3.778054,99742.35,-117,-15,-140
43932,4.937,-9.209,0.236,2.313595,0.646113,-3.827008,99742.35,-121,-11,-137
43941,4.900,-9.639,0.348,2.350843,0.631214,-3.872769,99742.42,-124,-7,-135
43952,5.071,-10.031,0.713,2.338072,0.610994,-3.923852,99741.42,-124,-7,-135
43962,5.402,-10.270,1.161,2.281668,0.590774,-3.965888,99741.84,-126,-3,-132
43972,5.908,-10.477,1.527,2.233246,0.556719,-3.985044,99743.72,-128,+0,-129
43981,6.104,-10.891,1.664,2.198127,0.530113,-3.997283,99743.72,-130,+4,-127
43992,6.009,-11.771,1.644,2.146513,0.543416,-3.998879,99743.91,-130,+4,-127
44002,5.885,-12.441,1.564,2.069889,0.598755,-4.003136,99742.13,-132,+9,-126
44012,5.915,-12.593,1.468,1.984751,0.696131,-4.005264,99745.63,-133,+14,-124
44022,6.212,-12.468,1.612,1.907063,0.802021,-3.989833,99745.57,-134,+19,-123
44032,6.706,-12.367,1.822,1.847467,0.877049,-3.929705,99745.57,-134,+19,-123
44042,7.035,-12.567,1.827,1.812348,0.886094,-3.826476,99745.66,-135,+23,-120
44048,6.811,-12.671,1.444,1.780953,0.869599,-3.744531,99747.70,-135,+27,-118
44057,6.495,-12.648,1.298,1.740513,0.884498,-3.666311,99747.70,-135,+27,-118
44067,6.510,-12.612,1.324,1.697944,0.928663,-3.569999,99745.71,-137,+31,-116
44077,9.506,-14.415,2.276,1.671339,1.014333,-3.534347,99746.70,-139,+34,-113
44087,8.516,-14.008,2.435,1.561192,0.988260,-3.406641,99746.70,-141,+36,-110
44097,4.621,-11.502,-0.418,1.336642,1.004223,-3.046935,99746.98,-141,+36,-110
44107,4.041,-12.644,0.273,1.302054,0.963782,-2.623908,99746.63,-142,+40,-107
44118,3.860,-13.649,0.183,1.355265,0.563636,-2.240256,99745.65,-145,+42,-105
44127,3.303,-13.962,-0.548,1.438807,0.156572,-1.882679,99745.65,-145,+42,-103
44137,2.826,-14.327,-0.595,1.440935,-0.120125,-1.537339,99745.65,-145,+42,-103
44147,1.491,-14.214,-0.748,1.259486,-0.305299,-1.138789,99748.34,-145,+42,-104
44156,0.098,-14.055,-0.347,0.968422,-0.371813,-0.621579,99749.48,-145,+40,-103
44167,-0.618,-14.681,-0.093,0.569871,-0.322327,0.024403,99748.50,-144,+38,-104
44177,0.062,-15.289,0.037,0.073413,-0.260602,0.698054,99747.98,-144,+38,-104
44187,2.666,-15.184,-0.034,-0.348018,-0.326584,1.309448,99747.98,-143,+36,-104
44197,6.068,-10.069,-0.190,-0.554477,-0.703317,1.615411,99749.15,-142,+32,-105
44207,13.877,-2.048,0.888,-0.174018,-1.304069,1.539319,99747.43,-139,+29,-107
44217,18.694,-0.749,-0.669,-0.179871,-1.103464,2.016622,99747.05,-139,+29,-107
44227,10.410,-4.824,-2.435,-0.878531,-0.049355,2.904181,99747.05,-137,+25,-109
44237,3.353,-9.147,-4.214,-0.951963,0.148590,3.148419,99749.44,-137,+17,-107
44247,4.756,-10.023,3.759,-0.494348,-0.080749,3.038805,99749.44,-135,+10,-107
44257,5.149,-9.480,9.700,0.236771,-0.294125,2.979208,99744.91,-135,+10,-107
44267,2.223,-11.360,10.685,0.667780,-0.557519,3.002621,99745.27,-133,+2,-108
44277,3.069,-11.564,4.472,0.634789,-1.053978,2.921740,99744.95,-130,-6,-109
44282,4.443,-9.061,0.098,0.412367,-1.158803,2.659942,99744.95,-130,-6,-109
44292,3.321,-8.420,1.365,0.150569,-0.848583,2.377392,99749.26,-125,-13,-109
44302,1.111,-10.670,4.868,-0.220312,-0.331905,2.096438,99746.18,-123,-17,-111
44312,1.320,-11.853,5.706,-0.727412,-0.048822,1.503136,99745.87,-122,-20,-111
44322,2.938,-10.330,3.044,-1.213760,0.201801,0.751265,99747.34,-122,-20,-111
44332,4.975,-7.685,0.087,-1.367008,0.513618,0.260660,99747.34,-122,-17,-112
44342,6.567,-5.986,-1.040,-1.024862,0.590774,0.160091,99746.65,-123,-15,-112
44352,7.269,-5.669,-0.080,-0.520422,0.429544,0.289926,99748.05,-123,-17,-111
44362,7.161,-6.161,1.428,-0.171358,0.252352,0.477228,99746.29,-123,-17,-111
44371,6.309,-6.732,2.481,-0.000018,0.132627,0.582054,99744.88,-124,-17,-111
44382,5.812,-6.889,3.106,0.053725,0.090590,0.574604,99744.88,-123,-18,-111
44392,5.721,-6.959,3.871,-0.012789,0.103893,0.535228,99748.23,-123,-19,-109
44402,5.186,-7.413,5.147,-0.137303,0.114003,0.463393,99745.46,-123,-19,-109
44412,4.944,-7.559,5.473,-0.282036,0.117728,0.330898,99746.55,-123,-19,-110
44422,4.941,-7.451,4.915,-0.457100,0.198077,0.182971,99743.43,-123,-19,-111
44432,5.404,-7.059,4.023,-0.602366,0.289599,0.064311,99743.43,-123,-18,-110
44442,6.195,-6.203,3.521,-0.624715,0.304498,0.040898,99749.68,-123,-18,-110
44452,6.797,-5.697,3.173,-0.560330,0.230535,0.151577,99746.55,-124,-17,-111
44462,6.742,-5.734,3.094,-0.449119,0.110278,0.329302,99745.04,-124,-17,-110
44472,6.481,-5.907,3.355,-0.335247,-0.014767,0.496384,99744.73,-124,-17,-110
44482,5.751,-6.280,3.424,-0.272990,-0.127043,0.622494,99744.73,-124,-17,-110
44492,5.510,-6.609,3.584,-0.231486,-0.202070,0.663999,99749.00,-123,-18,-111
44502,5.826,-6.459,4.050,-0.216587,-0.178125,0.662934,99748.00,-122,-19,-112
44512,5.542,-6.553,4.139,-0.269798,-0.070639,0.707100,99744.61,-122,-21,-111
44522,5.266,-6.809,3.522,-0.263413,-0.071703,0.748072,99746.17,-122,-21,-111
44532,5.032,-7.477,2.671,-0.268734,-0.097777,0.754989,99746.17,-121,-22,-112
44542,4.979,-7.768,1.697,-0.326734,-0.087134,0.700182,99746.57,-119,-23,-112
44552,5.162,-7.688,1.344,-0.364513,-0.004657,0.620898,99746.52,-119,-24,-112
44562,5.271,-7.841,1.295,-0.412403,0.083673,0.575668,99747.82,-119,-24,-112
44572,5.210,-7.603,1.481,-0.410807,0.120921,0.557577,99745.59,-119,-23,-112
44582,5.093,-7.378,1.915,-0.372495,0.178388,0.580990,99745.59,-119,-24,-113
44592,5.301,-7.387,2.462,-0.376752,0.193288,0.604402,99747.82,-119,-26,-112
44602,5.501,-7.273,3.394,-0.370899,0.131563,0.612916,99746.04,-119,-26,-112
44612,5.115,-7.237,3.601,-0.372495,0.090058,0.668256,99744.99,-118,-25,-112
44622,5.362,-7.316,3.590,-0.415596,0.083141,0.700182,99744.79,-117,-27,-113
44632,5.307,-7.143,3.402,-0.431027,0.038444,0.724659,99744.79,-117,-27,-113
44642,5.730,-7.143,3.055,-0.459761,0.013434,0.825228,99749.11,-116,-29,-114
44652,5.772,-7.278,2.331,-0.515633,-0.013703,0.904512,99747.59,-116,-29,-114
44662,5.662,-7.618,2.181,-0.540642,-0.012639,0.994439,99746.55,-115,-29,-115
44673,5.687,-7.818,2.150,-0.567779,-0.016896,1.096072,99746.30,-114,-31,-114
44682,5.784,-8.160,2.276,-0.596513,-0.011043,1.170567,99746.30,-113,-31,-115
44692,5.249,-8.113,2.679,-0.631100,0.001196,1.219521,99748.63,-113,-31,-115
44702,5.147,-8.005,2.707,-0.637486,-0.031795,1.291888,99748.01,-112,-32,-116
44712,4.812,-8.743,2.441,-0.661963,-0.047226,1.330200,99745.66,-110,-35,-116
44722,4.499,-8.973,2.124,-0.693889,-0.048290,1.324347,99743.52,-109,-36,-117
44732,4.569,-8.601,2.165,-0.715706,-0.044566,1.294017,99743.52,-109,-36,-117
44742,4.696,-8.667,2.019,-0.746568,-0.037648,1.293485,99749.73,-107,-37,-118
44752,5.003,-8.775,1.816,-0.782752,-0.046694,1.289228,99748.38,-105,-39,-118
44762,5.484,-8.740,1.995,-0.802972,-0.087666,1.299870,99748.48,-105,-39,-119
44772,6.031,-9.189,2.085,-0.840219,-0.129171,1.370108,99747.13,-105,-39,-119
44782,6.373,-9.176,2.084,-0.874274,-0.193024,1.457906,99747.13,-102,-41,-120
44792,6.467,-9.501,2.059,-0.905137,-0.247299,1.569649,99747.84,-100,-42,-122
44803,6.522,-9.652,2.346,-0.933339,-0.302639,1.667026,99746.48,-98,-42,-122
44812,6.434,-9.932,2.619,-0.976972,-0.323391,1.763337,99746.37,-98,-42,-122
44822,6.669,-10.371,2.805,-1.026458,-0.316474,1.826126,99744.45,-95,-46,-124
44832,7.363,-11.021,3.375,-1.105210,-0.285611,1.866035,99744.45,-92,-46,-125
44843,8.710,-12.219,4.409,-1.203650,-0.219630,1.886787,99747.02,-89,-48,-127
44852,9.903,-13.310,5.677,-1.374458,-0.087134,1.961282,99747.69,-89,-48,-127
44862,11.326,-12.865,5.412,-1.626678,0.044829,2.124640,99746.70,-87,-49,-128
44872,12.690,-11.932,5.547,-1.836861,0.211911,2.314071,99743.94,-85,-50,-130
44882,13.764,-10.811,6.634,-1.947540,0.401875,2.508823,99743.94,-82,-50,-132
44893,14.242,-10.401,7.057,-2.012990,0.517342,2.730181,99748.26,-82,-50,-132
44902,12.976,-10.841,6.535,-2.064604,0.583856,3.068071,99746.07,-80,-53,-134
44912,10.011,-12.984,6.312,-2.198164,0.549801,3.648070,99746.07,-77,-55,-134
44922,7.641,-15.682,6.956,-2.227962,0.280021,4.166345,99744.71,-72,-57,-137
44933,7.488,-16.758,7.241,-1.992769,-0.046162,4.037043,99744.71,-72,-57,-137
44942,8.323,-15.222,7.341,-2.033742,0.046425,3.578896,99745.54,-65,-60,-140
44952,8.219,-12.672,6.422,-2.486567,0.363563,3.183538,99744.71,-62,-62,-142
44962,6.009,-8.986,4.983,-2.614806,0.529581,2.811594,99742.88,-59,-61,-145
44973,2.788,-3.803,2.608,-2.161980,0.559911,2.398676,99743.71,-59,-61,-145
44982,3.243,-2.627,2.790,-1.589962,0.562572,1.992145,99743.71,-58,-62,-147
44992,14.529,-9.422,4.056,-1.241430,0.775416,1.000824,99745.83,-58,-63,-147
45002,-8.569,0.921,-3.376,-1.319650,0.360902,0.699650,99745.05,-58,-62,-148
45012,-6.444,-0.190,-1.329,-0.871082,0.378994,1.067870,99746.19,-58,-62,-148
45023,5.269,-6.167,3.177,-0.223504,0.008113,0.332494,99743.95,-57,-64,-150
45032,8.494,-3.341,2.582,-0.046312,-0.542088,-0.567835,99743.95,-56,-66,-149
45042,6.767,0.648,0.469,-0.013853,-0.625629,-0.963193,99746.98,-57,-67,-150
45052,4.751,1.318,0.209,0.303284,-0.560180,-1.126551,99743.37,-57,-67,-150
45063,3.018,0.880,0.340,0.625743,-0.625097,-1.310661,99743.59,-57,-69,-148
45072,1.372,0.229,0.330,0.866256,-0.679372,-1.505413,99742.38,-58,-71,-148
45082,0.469,-0.467,0.189,1.089743,-0.676180,-1.758697,99742.38,-59,-73,-147
45092,0.868,-1.092,0.381,1.273321,-0.579868,-2.075302,99744.87,-61,-77,-145
45103,1.676,-1.536,0.624,1.365908,-0.398418,-2.417981,99744.71,-61,-77,-145
45112,2.320,-2.026,0.864,1.403155,-0.203134,-2.736183,99740.90,-66,-79,-142
45122,2.835,-2.469,0.908,1.477651,-0.085006,-3.030972,99743.71,-72,-81,-138
45132,3.188,-2.750,0.843,1.618128,-0.047226,-3.294366,99743.71,-78,-83,-134
45143,3.470,-3.197,0.771,1.799045,-0.044566,-3.505081,99740.59,-78,-83,-134
45153,3.756,-3.978,0.680,1.993265,-0.071171,-3.698237,99740.63,-86,-83,-130
45162,3.762,-4.864,0.667,2.189613,-0.105226,-3.905760,99740.23,-94,-83,-125
45172,3.945,-5.687,0.705,2.333283,-0.105226,-4.094659,99740.27,-102,-83,-119
45182,4.013,-6.596,0.893,2.453540,-0.083942,-4.262273,99740.27,-102,-83,-119
45193,4.323,-7.644,1.055,2.571668,-0.050951,-4.412860,99741.84,-112,-80,-113
45202,4.551,-8.638,1.409,2.637118,0.035251,-4.543227,99742.66,-122,-77,-107
45212,4.865,-9.590,1.702,2.639246,0.151251,-4.645925,99742.51,-133,-73,-101
45222,5.214,-10.678,1.739,2.605191,0.285343,-4.745429,99742.51,-133,-73,-101
45233,5.454,-11.858,2.223,2.540274,0.456682,-4.825778,99742.51,-144,-65,-94
45242,5.205,-12.908,2.896,2.430659,0.644517,-4.865685,99745.38,-155,-55,-88
45252,4.982,-13.648,3.457,2.266237,0.813195,-4.897080,99743.71,-165,-44,-81
45262,4.631,-14.213,3.618,2.080531,0.955269,-4.930603,99743.35,-165,-44,-81
45273,4.551,-14.178,3.375,1.941650,1.111709,-4.963062,99741.62,-176,-28,-76
45282,5.113,-13.952,3.310,1.865027,1.314443,-4.945502,99741.62,-183,-13,-72
45292,5.809,-13.930,3.573,1.844806,1.508663,-4.850255,99743.45,-189,+2,-67
45302,6.343,-14.170,3.663,1.871412,1.633709,-4.691686,99745.84,-189,+2,-67
45313,6.769,-14.740,3.090,1.933137,1.677342,-4.486824,99745.02,-193,+18,-62
45323,6.682,-15.809,1.671,1.948036,1.662975,-4.258548,99746.31,-197,+34,-58
45332,5.997,-16.638,-0.229,1.816605,1.616681,-3.961099,99746.31,-199,+46,-54
45343,5.168,-17.829,-1.484,1.482262,1.620938,-3.496922,99746.55,-199,+46,-54
45352,4.285,-17.907,-1.690,1.328128,1.472479,-3.126751,99745.67,-200,+60,-53
45363,3.364,-16.850,-0.796,1.270128,1.123948,-2.696275,99749.11,-201,+69,-50
45372,2.874,-15.994,0.535,1.343027,0.593966,-2.181192,99746.23,-200,+75,-52
45382,1.977,-16.109,1.004,1.414862,-0.037648,-1.551706,99746.23,-200,+75,-52
45392,0.462,-16.703,-0.091,1.369632,-0.602749,-0.900404,99749.14,-198,+80,-55
45403,-1.191,-16.904,-2.277,1.144018,-0.902326,-0.234735,99748.25,-197,+81,-61
45413,-2.388,-17.695,-3.631,0.820495,-0.841134,0.464990,99748.98,-197,+78,-64
45422,-1.645,-18.797,-3.190,0.363413,-0.693739,1.195044,99746.33,-197,+78,-64
45432,1.611,-18.594,-1.151,-0.100055,-0.696932,1.744714,99746.33,-197,+73,-68
45443,9.042,-9.335,3.349,-0.029284,-1.094950,1.505264,99747.98,-196,+69,-71
45453,23.640,0.444,4.558,0.544330,-1.787757,0.873650,99747.42,-193,+65,-77
45462,22.854,6.666,-3.311,-0.482110,-0.831024,1.780897,99745.64,-193,+65,-77
45472,7.187,-4.904,-4.695,-1.528237,0.381654,3.417667,99745.64,-192,+60,-78
45483,1.050,-12.864,-2.865,-0.705596,-0.391501,3.621997,99745.64,-194,+49,-80
45493,6.097,-11.134,2.661,0.257523,-1.151886,3.297410,99750.67,-192,+38,-83
45502,5.497,-8.403,9.119,0.517725,-0.815060,3.123942,99748.00,-192,+38,-83
45512,2.279,-11.136,13.417,0.881688,-0.693739,3.195777,99745.23,-191,+28,-85
45522,3.187,-11.249,6.072,0.964697,-1.456785,3.177685,99745.23,-187,+16,-89
45533,2.673,-9.024,1.290,0.516660,-1.423794,2.894603,99745.23,-184,+5,-92
45543,1.362,-10.039,6.021,0.094697,-0.886363,2.485942,99748.93,-182,+5,-92
45552,1.041,-11.387,6.013,-0.383669,-0.511226,1.929356,99748.88,-182,+0,-94
45562,2.036,-11.196,3.521,-1.064238,-0.120125,1.388732,99747.95,-179,-4,-97
45573,3.571,-9.411,-0.793,-1.555375,0.168278,0.970494,99747.48,-179,-5,-96
45583,5.134,-7.486,-2.228,-1.588898,0.534370,0.751797,99747.48,-181,-5,-96
45592,7.126,-6.449,-0.314,-1.144586,0.568957,0.661338,99750.42,-181,-5,-96
45602,7.355,-5.897,0.585,-0.666220,0.328443,0.776274,99747.28,-181,-5,-95
45613,7.136,-6.077,1.323,-0.245321,0.039508,0.948145,99745.56,-181,-7,-96
45623,6.941,-6.659,2.085,0.111193,-0.197813,1.069466,99746.81,-179,-11,-96
45632,5.509,-6.722,2.894,0.284128,-0.332437,1.106714,99746.81,-179,-11,-96
45642,4.302,-8.005,3.813,0.235174,-0.285611,1.021044,99747.75,-177,-15,-96
45652,3.752,-8.656,4.451,0.009028,-0.121721,0.757118,99749.22,-177,-17,-96
45663,4.417,-7.612,4.501,-0.284697,0.079416,0.497448,99747.75,-176,-19,-96
45673,4.160,-7.817,4.384,-0.533192,0.240113,0.346329,99745.81,-176,-19,-96
45682,4.704,-7.333,3.327,-0.667816,0.357177,0.170201,99745.81,-177,-18,-97
45692,6.016,-6.493,2.798,-0.652385,0.392829,0.108476,99747.30,-178,-17,-95
45703,6.676,-6.298,2.259,-0.544366,0.324719,0.198935,99749.34,-178,-17,-96
45713,6.566,-6.414,1.864,-0.410807,0.218297,0.338880,99745.84,-178,-17,-96
45722,6.421,-6.467,2.128,-0.290018,0.131031,0.467118,99744.48,-177,-18,-95
45732,5.978,-6.766,2.686,-0.240532,0.081544,0.562898,99744.48,-178,-20,-95
45743,5.070,-7.187,3.015,-0.258091,0.081012,0.603338,99749.78,-177,-20,-96
45753,4.804,-7.336,3.060,-0.302257,0.118260,0.571944,99746.19,-177,-20,-96
45762,4.880,-7.312,2.996,-0.360789,0.191159,0.544274,99746.45,-177,-21,-95
45772,4.944,-7.319,2.523,-0.408146,0.273636,0.555980,99747.28,-177,-23,-94
45783,5.167,-7.212,2.211,-0.407082,0.366223,0.549063,99747.28,-177,-24,-94
45793,5.165,-7.502,1.794,-0.421449,0.416774,0.571412,99748.40,-177,-24,-94
45803,5.384,-7.315,1.843,-0.441669,0.435397,0.616641,99750.38,-177,-25,-94
45813,5.435,-7.328,2.373,-0.379767,0.498896,0.639344,99747.41,-178,-26,-92
45822,5.963,-7.273,3.003,-0.410807,0.474241,0.687411,99747.30,-177,-27,-91
45833,5.643,-7.263,3.202,-0.412403,0.405599,0.764567,99747.30,-177,-27,-91
45843,5.268,-7.346,3.457,-0.453376,0.367820,0.876310,99749.57,-177,-29,-91
45852,5.161,-7.234,3.670,-0.519889,0.344939,0.936971,99747.37,-177,-32,-90
45862,5.578,-7.355,4.058,-0.584275,0.299709,1.020512,99745.65,-176,-33,-91
45873,5.387,-7.601,3.657,-0.639614,0.224682,1.097136,99747.37,-176,-33,-91
45883,5.230,-7.758,3.121,-0.656642,0.177324,1.172163,99747.37,-176,-36,-91
45893,4.843,-7.835,2.352,-0.660899,0.126242,1.236549,99748.87,-176,-39,-90
45902,4.850,-8.157,2.240,-0.671009,0.118260,1.292420,99747.35,-174,-40,-91
45913,4.950,-8.535,2.515,-0.713577,0.127838,1.300934,99743.49,-174,-40,-91
45923,5.230,-8.675,2.689,-0.761999,0.110811,1.289760,99747.82,-172,-44,-91
45933,5.030,-8.408,2.782,-0.816807,0.105489,1.304659,99747.82,-171,-46,-93
45942,5.273,-8.553,2.576,-0.817339,0.043765,1.368512,99745.10,-170,-48,-93
45953,5.681,-8.917,2.443,-0.824788,-0.044566,1.399907,99744.90,-170,-48,-93
45963,5.927,-9.167,2.083,-0.816275,-0.120125,1.410017,99746.51,-167,-51,-94
45973,5.779,-9.523,1.822,-0.817339,-0.198877,1.443540,99745.62,-164,-54,-95
45982,5.662,-9.751,1.690,-0.836495,-0.227611,1.497815,99745.62,-162,-56,-98
45992,5.623,-9.684,1.900,-0.881192,-0.219630,1.548365,99748.44,-162,-56,-98
46003,5.686,-9.690,2.074,-0.939724,-0.201006,1.577099,99748.64,-160,-59,-98
46013,5.685,-10.023,2.492,-1.016880,-0.148327,1.619136,99746.97,-156,-62,-100
46022,6.141,-10.398,2.904,-1.105742,-0.069043,1.677136,99747.13,-153,-64,-102
46032,6.997,-11.053,3.683,-1.245155,0.035251,1.734071,99747.13,-151,-64,-102
46043,8.449,-11.754,4.768,-1.426604,0.167746,1.797925,99746.43,-151,-66,-103
46053,10.775,-11.819,5.389,-1.633595,0.250223,1.954365,99748.32,-149,-69,-105
46063,13.054,-11.511,5.885,-1.804934,0.262462,2.174126,99745.02,-146,-71,-106
46072,14.425,-11.508,6.151,-1.900182,0.296517,2.466787,99744.71,-142,-75,-108
46083,14.691,-11.725,5.082,-2.000751,0.337489,2.764768,99744.71,-142,-75,-108
46093,13.819,-11.345,4.637,-2.003412,0.494462,2.963777,99745.73,-137,-78,-110
46103,11.688,-11.085,5.098,-1.950732,0.733379,3.213869,99747.49,-132,-81,-112
46112,8.667,-12.568,6.810,-1.972017,0.891416,3.724162,99743.21,-127,-87,-113
46123,8.827,-15.389,9.728,-1.849100,0.608333,4.203061,99743.48,-127,-87,-113
46133,10.123,-17.346,10.053,-1.719265,0.036847,4.105685,99743.48,-119,-95,-115
46143,9.232,-15.817,7.799,-1.993301,-0.119593,3.792272,99744.72,-110,-100,-119
46153,6.444,-13.485,4.998,-2.403026,0.192755,3.485777,99745.61,-103,-104,-123
46162,3.649,-10.200,4.210,-2.422714,0.580663,3.079777,99741.17,-103,-104,-123
46169,1.616,-6.101,3.574,-2.214127,0.908975,2.648236,99746.08,-100,-106,-126
46178,1.495,-4.093,4.068,-2.018843,1.204828,2.296511,99746.08,-100,-106,-126
46188,13.339,-8.316,5.138,-1.703834,1.408626,1.627649,99746.08,-98,-108,-128
46198,0.129,-3.992,-0.213,-1.819301,1.599654,0.563962,99745.25,-100,-109,-127
46208,-10.634,2.258,-4.104,-1.645834,1.255379,1.000824,99746.14,-101,-109,-128
46218,0.782,-4.589,2.255,-0.877999,1.145764,0.742219,99744.45,-101,-109,-128
46228,8.783,-4.864,2.672,-0.430495,0.357177,-0.388514,99744.45,-102,-110,-128
46238,8.164,0.572,0.699,-0.418256,0.034187,-0.977560,99745.20,-104,-111,-129
46247,6.585,1.930,-0.170,-0.128257,-0.047758,-1.142514,99745.20,-108,-110,-129
46258,5.120,1.445,0.109,0.335743,-0.355850,-1.353762,99744.06,-110,-110,-129
46268,3.055,1.175,-0.420,0.719394,-0.719281,-1.551706,99745.16,-110,-110,-129
46278,0.856,0.616,-0.766,1.056220,-0.947556,-1.734752,99742.34,-112,-113,-129
46287,0.169,-0.374,-0.644,1.351541,-1.043336,-1.972605,99742.34,-116,-115,-127
46298,0.562,-1.162,-0.238,1.531926,-1.006088,-2.256220,99745.22,-121,-116,-125
46308,1.038,-1.769,0.278,1.589394,-0.849648,-2.539834,99742.97,-121,-116,-125
46318,1.573,-2.442,0.719,1.604293,-0.653299,-2.805889,99741.25,-127,-115,-123
46328,2.137,-3.230,0.773,1.632495,-0.483024,-3.057045,99740.58,-135,-114,-120
46338,2.369,-3.752,0.816,1.663357,-0.319666,-3.285852,99742.92,-144,-111,-117
46348,2.472,-4.235,0.846,1.734128,-0.194620,-3.454531,99743.34,-144,-111,-117
46358,2.554,-4.835,0.798,1.845338,-0.123318,-3.609907,99742.56,-154,-107,-113
46367,2.627,-5.726,0.704,1.962403,-0.076492,-3.774329,99742.56,-164,-102,-110
46377,2.583,-6.407,0.797,2.079999,-0.026474,-3.941411,99743.55,-176,-95,-107
46388,2.995,-7.334,1.138,2.221008,-0.007850,-4.075503,99743.55,-176,-95,-107
46398,3.492,-8.448,1.505,2.333283,0.003324,-4.195227,99744.82,-187,-87,-102
46403,3.646,-9.077,1.827,2.381173,0.019288,-4.287282,99741.54,-187,-87,-102
46412,3.667,-9.639,2.125,2.408310,0.030994,-4.366035,99739.55,-197,-76,-98
46423,3.863,-10.340,2.572,2.410439,0.057600,-4.447979,99740.40,-207,-65,-96
46433,4.277,-10.998,3.014,2.370531,0.109746,-4.508108,99740.40,-218,-52,-93
46443,4.508,-11.543,3.438,2.316256,0.178921,-4.540566,99745.97,-218,-52,-93
46453,4.457,-12.141,3.729,2.260916,0.271508,-4.553869,99744.03,-227,-34,-92
46462,4.312,-12.939,3.773,2.195999,0.390168,-4.559722,99742.31,-233,-17,-92
46473,4.221,-13.692,3.618,2.150769,0.514682,-4.571961,99742.58,-239,+0,-91
46483,4.452,-14.226,3.448,2.126824,0.651434,-4.586860,99742.58,-239,+0,-91
46493,4.900,-14.322,3.402,2.101283,0.799361,-4.579411,99745.81,-242,+18,-91
46502,5.514,-14.203,3.430,2.094366,0.930260,-4.523539,99746.69,-243,+36,-91
46513,6.057,-14.133,3.504,2.126824,1.003691,-4.405943,99747.48,-243,+50,-89
46523,6.385,-14.397,3.465,2.159283,1.030828,-4.240457,99744.56,-242,+65,-89
46533,6.408,-14.730,2.991,2.100751,1.053709,-4.023888,99744.56,-242,+65,-89
46543,5.777,-15.523,2.133,1.995393,1.105324,-3.773265,99749.95,-242,+77,-87
46553,4.755,-16.140,1.556,1.854384,1.167048,-3.472623,99746.55,-241,+87,-85
46563,3.656,-16.663,0.940,1.664953,1.188333,-3.088439,99747.29,-240,+95,-81
46573,2.345,-17.116,0.620,1.510109,1.100535,-2.636146,99746.71,-240,+95,-81
46583,0.841,-17.573,0.325,1.418054,0.831819,-2.060935,99746.71,-241,+102,-78
46593,-1.777,-18.259,-0.960,1.304715,0.392297,-1.405908,99750.77,-240,+106,-78
46603,-4.326,-18.022,-3.163,1.190843,-0.070107,-0.786533,99748.63,-239,+106,-79
46613,-4.336,-17.602,-4.129,0.960440,-0.305831,-0.174074,99750.41,-239,+106,-79
46623,-0.343,-18.782,-1.905,0.759302,-0.263795,0.197338,99746.44,-239,+105,-80
46632,2.139,-18.423,-1.252,0.211761,-0.514951,0.859283,99746.44,-239,+102,-82
46639,4.149,-15.151,-0.407,-0.236807,-0.762914,1.554218,99745.57,-239,+102,-82
46648,11.862,-6.040,4.145,-0.040459,-1.283849,1.445136,99745.57,-239,+96,-86
46658,27.746,5.976,3.748,0.923724,-2.561977,0.958788,99746.98,-236,+91,-95
46668,25.421,11.018,-4.499,-0.002679,-1.648876,2.308218,99749.34,-236,+91,-95
46679,5.566,-5.174,-5.805,-1.054660,-0.303171,4.093446,99745.99,-237,+80,-97
46688,-0.862,-14.449,-4.356,0.017541,-1.368987,4.046089,99746.87,-237,+66,-100
46698,3.640,-14.215,4.830,0.982789,-1.925041,3.810896,99744.15,-233,+50,-107
46708,-0.999,-15.189,12.670,1.254697,-1.277464,3.732144,99746.66,-232,+50,-107
46717,-0.696,-20.378,10.136,1.421779,-1.202968,3.822602,99746.66,-232,+34,-109
46728,5.613,-12.396,-2.446,0.899247,-1.829794,3.268144,99745.24,-228,+18,-114
46738,2.698,-6.750,-1.856,-0.004275,-0.796969,2.784988,99745.24,-226,+7,-116
46748,0.224,-11.181,5.463,-0.575229,0.173067,2.638658,99748.89,-225,+0,-115
46758,0.732,-12.688,7.126,-1.277614,0.347599,1.929888,99746.64,-225,+0,-115
46768,2.188,-9.574,0.897,-1.872512,0.665801,1.105650,99746.23,-225,-1,-115
46778,4.901,-6.991,-1.334,-1.653815,0.920682,0.619834,99746.70,-227,+0,-112
46788,7.524,-6.067,-0.836,-1.057320,0.726462,0.560769,99746.70,-228,-1,-111
46798,8.042,-5.559,0.185,-0.452311,0.313544,0.759246,99747.35,-228,-1,-111
46809,7.107,-6.566,1.920,-0.092073,0.101233,0.983797,99750.87,-228,-3,-111
46818,6.038,-7.082,2.595,0.087780,-0.011575,1.052971,99746.65,-227,-8,-111
46828,5.569,-7.320,2.238,0.109064,-0.002529,1.013595,99746.65,-226,-12,-110
46838,4.186,-8.081,2.854,0.017009,0.129966,0.910898,99746.65,-226,-12,-110
46849,3.789,-8.468,4.939,-0.107504,0.265122,0.681558,99749.13,-226,-14,-109
46858,4.325,-8.017,5.173,-0.246917,0.349196,0.448494,99748.61,-226,-16,-109
46868,5.080,-7.301,4.202,-0.414532,0.444443,0.318659,99747.98,-227,-16,-106
46878,5.594,-6.717,3.471,-0.469871,0.494994,0.326109,99745.95,-227,-16,-106
46887,6.074,-6.510,3.323,-0.429431,0.401342,0.406990,99745.95,-227,-15,-105
46899,6.004,-6.834,2.928,-0.365045,0.298645,0.505962,99748.70,-228,-18,-104
46908,5.934,-6.961,2.827,-0.336844,0.249691,0.609724,99752.24,-228,-19,-104
46918,5.698,-6.811,2.404,-0.317688,0.250223,0.750200,99748.85,-228,-19,-104
46928,5.690,-7.149,2.447,-0.304385,0.230535,0.770421,99748.85,-227,-21,-103
46939,4.999,-7.245,2.534,-0.272458,0.194352,0.770421,99748.74,-227,-23,-102
46948,4.385,-7.783,2.458,-0.294807,0.245434,0.757650,99746.76,-227,-26,-102
46958,3.995,-8.037,2.601,-0.348550,0.363031,0.706567,99746.76,-227,-26,-102
46968,4.311,-8.036,2.677,-0.409211,0.528517,0.640586,99748.01,-227,-27,-101
46979,4.906,-7.761,3.126,-0.510311,0.609930,0.597485,99749.48,-228,-29,-99
46988,5.190,-7.436,3.115,-0.543302,0.606205,0.615045,99749.48,-228,-32,-98
46998,5.483,-7.346,3.290,-0.546495,0.550865,0.642182,99750.05,-228,-32,-98
47008,5.613,-7.236,3.473,-0.520422,0.446040,0.659210,99748.91,-228,-31,-96
47019,5.298,-7.449,3.196,-0.496477,0.363563,0.718806,99747.08,-228,-34,-95
47029,4.886,-7.662,2.766,-0.497009,0.328976,0.778402,99747.64,-228,-36,-94
47038,4.830,-7.625,2.660,-0.531596,0.330572,0.805540,99750.19,-228,-36,-94
47048,4.968,-7.370,2.648,-0.569908,0.328443,0.842255,99748.27,-227,-37,-94
47058,5.167,-7.252,2.437,-0.569908,0.285343,0.906109,99747.95,-228,-40,-93
47068,5.323,-7.486,2.516,-0.551284,0.223086,0.961980,99747.95,-227,-43,-93
47078,5.460,-7.965,2.288,-0.527871,0.137948,1.031154,99745.28,-227,-43,-93
47088,5.305,-8.447,2.074,-0.517761,0.079416,1.085962,99745.28,-226,-46,-93
47098,4.983,-8.602,2.300,-0.520422,0.051746,1.112035,99748.23,-225,-49,-93
47109,4.973,-8.571,2.637,-0.547027,0.030462,1.125338,99746.05,-223,-52,-94
47118,4.977,-8.329,2.686,-0.580550,0.000132,1.164714,99748.81,-223,-52,-94
47128,4.928,-8.274,2.537,-0.595449,-0.046162,1.235485,99744.95,-221,-55,-94
47138,4.827,-8.289,2.732,-0.606091,-0.097244,1.289760,99744.95,-220,-60,-94
47149,5.205,-8.372,3.001,-0.620458,-0.156841,1.343503,99751.02,-218,-62,-96
47159,5.685,-8.693,3.316,-0.636421,-0.219098,1.418530,99745.68,-218,-62,-96
47168,5.998,-9.179,3.317,-0.655045,-0.293061,1.528677,99746.01,-215,-65,-96
47178,5.891,-9.559,2.866,-0.684311,-0.334033,1.639356,99746.01,-211,-69,-99
47188,5.515,-9.719,2.545,-0.723155,-0.331905,1.738328,99746.01,-209,-74,-100
47199,5.370,-9.846,2.851,-0.777963,-0.260602,1.780365,99748.22,-204,-74,-100
47208,5.417,-10.094,3.110,-0.879063,-0.162694,1.843154,99745.92,-204,-79,-101
47218,5.534,-10.377,3.261,-1.017944,-0.042437,1.893704,99750.63,-202,-83,-103
47228,6.055,-10.605,3.499,-1.201345,0.132450,1.939466,99747.16,-198,-87,-104
47238,7.401,-10.762,3.237,-1.374990,0.277361,1.982034,99747.16,-195,-91,-105
47248,9.634,-10.893,3.172,-1.568678,0.455086,2.042695,99749.03,-195,-91,-105
47258,12.320,-11.120,3.778,-1.683613,0.611526,2.154970,99747.06,-191,-95,-106
47268,14.803,-11.961,4.104,-1.775136,0.684957,2.356640,99746.33,-188,-98,-106
47279,15.380,-12.053,4.096,-1.832604,0.733911,2.587575,99746.33,-184,-101,-106
47289,14.078,-11.304,3.878,-1.873044,0.799893,2.772750,99747.22,-184,-101,-106
47298,11.986,-10.389,4.646,-1.882622,0.838737,3.005282,99747.91,-179,-106,-107
47308,9.730,-11.440,6.172,-1.884751,0.771691,3.479923,99747.91,-172,-112,-106
47319,8.729,-15.371,8.480,-1.765558,0.430076,4.104620,99748.00,-164,-120,-109
47328,9.289,-19.191,8.012,-1.708090,-0.162162,4.160492,99745.50,-164,-120,-109
47338,6.689,-18.709,7.494,-2.066200,-0.275501,3.825795,99745.50,-154,-126,-112
47348,4.362,-15.819,6.935,-2.382806,-0.008914,3.496951,99744.84,-145,-130,-116
47358,1.725,-9.488,5.141,-2.035870,0.211379,2.983465,99746.24,-139,-131,-120
47369,3.070,-6.488,5.862,-1.478219,0.494994,2.444970,99747.70,-139,-131,-120
47378,12.747,-8.761,6.787,-1.449485,0.713159,1.857521,99745.71,-133,-134,-120
47388,2.322,-5.172,2.558,-1.630934,0.922810,0.915154,99747.48,-132,-133,-122
47398,-8.004,-0.974,-0.566,-1.420751,0.377398,0.774678,99745.19,-130,-130,-125
47409,-0.276,-4.532,3.531,-0.631100,0.299709,0.446366,99743.47,-130,-130,-125
47419,8.321,-5.562,3.267,-0.521486,0.195948,-0.648716,99742.78,-130,-130,-125
47428,8.673,-0.026,1.196,-0.982825,0.407728,-1.493174,99742.78,-132,-122,-127
47438,6.177,3.710,-0.129,-0.962073,0.655159,-1.566073,99742.78,-137,-117,-129
47449,3.906,3.261,0.346,-0.486899,0.525856,-1.625670,99744.45,-137,-117,-129
47458,2.884,2.537,0.375,0.040422,0.139544,-1.858202,99744.52,-140,-110,-129
47464,2.322,1.912,-0.120,0.397468,-0.135024,-2.077963,99745.19,-143,-104,-129
47473,1.997,1.258,-0.535,0.673101,-0.253153,-2.324862,99743.94,-143,-104,-129
47483,2.169,0.015,-0.334,0.899779,-0.184510,-2.669669,99743.94,-147,-99,-129
47494,2.615,-0.771,0.400,0.990238,0.024609,-3.037889,99741.98,-151,-93,-127
47503,3.209,-0.902,0.913,1.109431,0.184774,-3.379503,99744.91,-156,-84,-126
47513,3.804,-1.160,1.355,1.320146,0.249691,-3.648219,99741.94,-156,-84,-126
47523,4.057,-1.548,1.711,1.572898,0.236921,-3.856806,99740.84,-161,-75,-124
47534,4.007,-2.092,1.808,1.830972,0.181581,-4.033466,99740.84,-166,-67,-122
47544,4.040,-2.893,1.831,2.091705,0.133691,-4.228218,99742.38,-170,-57,-120
47553,4.227,-4.016,1.872,2.314127,0.143269,-4.419778,99742.17,-170,-57,-120
47563,4.408,-5.414,2.025,2.493980,0.209783,-4.592181,99741.91,-174,-47,-118
47574,4.715,-6.822,2.090,2.647228,0.285343,-4.750750,99738.41,-177,-38,-115
47584,5.257,-7.926,2.151,2.775466,0.359838,-4.891227,99738.41,-179,-28,-112
47593,6.431,-8.602,2.150,2.904769,0.376333,-4.990200,99744.19,-179,-28,-112
47603,7.673,-9.754,2.316,3.020769,0.349728,-5.016805,99742.14,-181,-18,-109
47613,8.010,-12.023,2.911,3.062805,0.353985,-5.007227,99742.77,-181,-11,-107
47624,7.567,-14.409,4.054,3.043650,0.342278,-5.017337,99739.69,-183,-1,-104
47633,6.927,-15.986,4.944,2.924989,0.297581,-5.117373,99739.69,-183,-1,-104
47643,6.055,-16.460,4.675,2.758971,0.293856,-5.281796,99744.77,-183,+5,-101
47653,5.960,-16.380,3.962,2.634457,0.400278,-5.382364,99746.76,-183,+15,-99
47664,6.198,-16.497,4.131,2.580714,0.599819,-5.326493,99744.41,-185,+25,-96
47673,6.198,-16.793,4.262,2.575393,0.753067,-5.143979,99744.51,-185,+25,-96
47683,6.098,-17.139,3.892,2.573797,0.830755,-4.901337,99744.51,-187,+34,-94
47693,6.161,-17.767,3.245,2.482806,0.903122,-4.629429,99747.01,-190,+42,-91
47704,6.130,-18.274,2.478,2.247613,0.968039,-4.345814,99743.82,-192,+51,-89
47714,5.574,-17.282,1.513,1.942183,0.996773,-4.007925,99747.21,-192,+51,-89
47723,4.599,-17.074,1.106,1.672403,1.011140,-3.542329,99747.79,-195,+60,-88
47733,2.777,-17.002,0.686,1.532458,0.848315,-3.024054,99747.79,-198,+65,-86
47744,0.566,-16.759,-0.857,1.335577,0.636535,-2.458953,99751.17,-200,+71,-86
47754,-1.713,-16.283,-2.501,1.036000,0.526388,-1.823082,99747.58,-200,+71,-86
47763,-3.633,-15.701,-3.150,0.708752,0.493930,-1.113780,99748.16,-202,+75,-85
47773,-3.885,-15.632,-3.169,0.405982,0.389636,-0.293799,99748.05,-204,+74,-85
47783,-2.846,-15.385,-2.856,0.149505,0.167214,0.487338,99748.05,-205,+73,-86
47794,-1.549,-15.424,-1.457,-0.051633,-0.111611,1.187063,99750.52,-205,+73,-86
47804,2.478,-16.094,1.902,-0.117082,-0.387244,1.734071,99751.93,-206,+67,-86
47813,6.222,-18.864,2.215,-0.179339,-0.558051,1.975649,99750.32,-207,+61,-88
47823,5.930,-11.670,3.731,-0.400165,-1.124216,2.268310,99747.66,-204,+54,-93
47834,21.143,-5.356,6.173,0.482073,-1.567464,1.406824,99747.66,-204,+54,-93
47844,25.845,8.221,-6.184,-0.017046,-1.603647,1.179613,99751.90,-203,+49,-99
47853,14.286,3.302,-9.592,-1.585173,0.165618,2.861612,99751.70,-203,+42,-100
47863,-0.837,-12.221,-8.102,-1.725650,0.302370,3.939134,99748.82,-204,+34,-99
47874,4.617,-15.720,3.553,-0.319284,-0.766106,3.782694,99746.63,-204,+34,-99
47884,2.621,-14.497,16.064,0.957247,-0.988528,3.515043,99746.63,-201,+21,-101
47893,-0.469,-20.146,18.082,1.314293,-0.667666,3.832712,99747.13,-199,+6,-102
47903,2.683,-15.537,0.908,0.665119,-1.508932,3.567722,99744.67,-195,-6,-107
47913,2.191,-6.203,-7.905,-0.050037,-1.193923,2.767961,99752.08,-191,-6,-107
47924,0.649,-7.990,5.286,-0.427302,0.289599,2.532768,99750.36,-191,-15,-108
47934,1.353,-13.238,10.563,-0.707547,0.184242,1.979906,99750.36,-191,-21,-107
47943,1.955,-10.060,2.555,-0.950898,-0.442052,1.217925,99750.21,-190,-23,-110
47953,4.417,-8.060,-1.423,-1.154164,-0.083410,0.787980,99751.62,-190,-23,-110
47964,6.307,-7.524,0.499,-1.055192,0.276829,0.634201,99748.85,-190,-23,-110
47974,7.102,-6.499,0.990,-0.780091,0.181049,0.623558,99745.73,-190,-25,-110
47983,6.756,-6.141,1.660,-0.453908,-0.011575,0.758714,99745.73,-188,-25,-111
47993,6.467,-6.598,2.218,-0.175082,-0.247299,0.882164,99748.60,-188,-28,-111
48004,6.332,-6.585,1.168,0.045211,-0.388841,0.942292,99746.62,-188,-28,-111
48014,5.666,-6.926,2.328,0.104807,-0.353189,0.966237,99750.27,-186,-32,-112
48023,4.482,-8.020,4.065,0.057982,-0.267520,0.900255,99745.88,-185,-34,-114
48033,4.068,-8.655,4.252,-0.058550,-0.192492,0.678898,99745.88,-184,-36,-113
48044,3.190,-8.876,3.094,-0.288422,0.087398,0.371870,99750.72,-184,-36,-113
48054,3.877,-8.447,2.628,-0.534788,0.450829,0.048348,99749.58,-184,-36,-112
48063,5.347,-6.870,2.602,-0.608220,0.624296,-0.152258,99748.02,-186,-34,-112
48073,6.295,-6.140,2.884,-0.561926,0.633342,-0.106496,99746.92,-187,-33,-111
48083,6.547,-5.940,2.823,-0.434752,0.489673,0.055265,99746.92,-187,-33,-111
48094,6.571,-6.056,2.953,-0.327798,0.369416,0.245228,99749.35,-188,-33,-109
48104,6.370,-6.313,3.214,-0.294275,0.278425,0.425614,99749.15,-188,-33,-110
48113,5.906,-6.553,3.108,-0.295339,0.217232,0.573540,99749.20,-188,-36,-109
48123,5.497,-7.018,2.972,-0.335779,0.212976,0.663999,99747.16,-188,-36,-109
48134,5.193,-7.304,3.222,-0.401229,0.247563,0.689008,99747.16,-187,-36,-108
48144,5.157,-7.289,3.347,-0.478385,0.309287,0.705503,99751.30,-188,-38,-109
48153,5.249,-7.018,3.324,-0.541174,0.351324,0.768824,99750.00,-188,-39,-108
48163,5.722,-6.923,3.553,-0.573632,0.332168,0.791173,99749.27,-188,-39,-108
48174,5.714,-6.736,3.418,-0.559266,0.226810,0.863008,99747.13,-188,-41,-107
48184,5.738,-6.854,3.318,-0.525210,0.143801,0.936439,99747.13,-187,-42,-108
48194,5.583,-6.871,3.017,-0.489559,0.055471,1.030622,99750.50,-186,-46,-109
48203,5.325,-7.264,2.668,-0.439541,-0.027538,1.118953,99750.77,-186,-46,-109
48214,5.005,-8.105,2.821,-0.431027,-0.078621,1.190255,99745.81,-185,-47,-109
48224,4.696,-8.177,2.991,-0.384201,-0.034455,1.214732,99748.42,-183,-50,-110
48234,5.183,-7.647,2.833,-0.459229,-0.088731,1.234420,99748.42,-183,-54,-111
48243,5.012,-7.603,2.475,-0.448587,-0.148327,1.316365,99748.91,-183,-54,-111
48253,4.625,-8.274,2.333,-0.435284,-0.195153,1.355209,99749.80,-180,-58,-111
48264,4.366,-8.776,2.194,-0.443266,-0.200474,1.323815,99748.71,-179,-60,-112
48274,4.193,-9.003,1.961,-0.463486,-0.170676,1.253044,99746.82,-176,-64,-114
48283,4.449,-9.144,1.485,-0.479449,-0.124914,1.166310,99746.82,-176,-64,-114
48293,4.572,-9.070,1.143,-0.522018,-0.094052,1.076384,99748.24,-175,-66,-114
48304,4.580,-8.721,1.005,-0.546495,-0.051483,1.046054,99749.96,-173,-69,-115
48314,4.776,-8.546,0.747,-0.547027,-0.052015,1.057228,99747.73,-172,-71,-116
48324,4.819,-8.494,0.934,-0.553412,-0.074364,1.069466,99745.63,-172,-71,-116
48333,5.028,-8.553,1.615,-0.551816,-0.100437,1.113631,99745.63,-169,-73,-117
48344,5.257,-8.804,1.919,-0.557669,-0.159501,1.174824,99752.07,-168,-75,-118
48354,5.585,-9.292,2.572,-0.586935,-0.218565,1.246659,99747.74,-165,-77,-119
48364,5.845,-9.233,2.813,-0.602366,-0.279226,1.299870,99748.57,-165,-77,-119
48373,6.026,-9.222,2.727,-0.651321,-0.312749,1.407888,99746.60,-163,-79,-120
48384,6.060,-9.320,2.653,-0.707724,-0.317538,1.537191,99746.60,-160,-83,-122
48394,6.052,-9.767,3.011,-0.772642,-0.299446,1.648934,99749.84,-157,-87,-123
48404,6.417,-10.016,3.395,-0.865229,-0.249960,1.742585,99748.84,-154,-88,-125
48413,6.973,-10.574,3.410,-0.978036,-0.178657,1.843154,99748.02,-154,-88,-125
48423,8.058,-11.598,3.716,-1.116917,-0.096180,1.928824,99745.25,-151,-92,-127
48434,9.568,-12.668,4.501,-1.322311,0.043765,2.016622,99745.25,-147,-95,-129
48444,11.384,-12.878,5.084,-1.555375,0.258737,2.158695,99747.55,-145,-98,-130
48454,12.859,-12.957,4.174,-1.794292,0.484884,2.364621,99748.40,-145,-98,-130
48463,13.770,-12.683,3.986,-2.029485,0.815324,2.534897,99745.68,-142,-99,-132
48474,14.061,-12.304,4.976,-2.274787,1.310186,2.661007,99746.84,-140,-103,-132
48484,13.672,-11.749,6.468,-2.495081,1.718314,2.911630,99746.84,-139,-104,-132
48494,12.530,-12.049,7.969,-2.580750,1.738002,3.389997,99747.38,-139,-104,-132
48503,11.344,-14.266,9.959,-2.448255,1.056902,3.953501,99748.10,-136,-107,-134
48514,9.955,-15.981,8.712,-2.125265,-0.004657,4.035446,99744.24,-127,-115,-137
48524,6.738,-15.109,5.276,-2.021858,-0.522755,3.694364,99745.29,-119,-119,-143
48534,4.388,-12.994,3.936,-2.169962,-0.207391,3.367648,99745.29,-119,-119,-143
48544,3.491,-9.292,3.724,-1.982127,0.242242,2.920144,99748.38,-113,-121,-145
48553,1.590,-4.564,4.301,-1.595283,0.566829,2.445502,99745.61,-109,-124,-148
48564,9.172,-5.882,4.912,-1.328696,0.862682,1.937869,99747.19,-108,-125,-150
48574,6.645,-7.582,4.137,-1.387760,1.377764,0.620366,99742.95,-108,-125,-150
48583,-11.958,3.891,-4.322,-1.544733,1.006351,0.818310,99742.95,-111,-123,-150
48593,-4.763,-1.677,0.736,-1.100421,1.551232,0.884824,99748.26,-112,-124,-150
48604,6.117,-6.435,4.099,-0.640146,1.253782,-0.117138,99745.49,-116,-123,-150
48614,7.773,-1.506,2.991,-0.680054,0.861085,-1.008422,99747.10,-116,-123,-150
48624,6.692,2.364,0.753,-0.585871,0.825966,-1.305340,99743.55,-121,-119,-150
48633,4.971,2.609,0.574,-0.168165,0.774351,-1.432514,99743.55,-126,-116,-149
48644,3.512,2.034,0.243,0.270826,0.500315,-1.578844,99743.29,-131,-114,-148
48654,2.436,1.513,-0.231,0.707688,0.219893,-1.740605,99745.49,-131,-114,-148
48664,2.157,0.649,-0.335,1.137632,0.024077,-1.956642,99744.29,-135,-113,-147
48673,2.479,-0.272,-0.055,1.509577,-0.073832,-2.225357,99741.99,-140,-112,-145
48684,3.032,-1.191,0.328,1.754880,-0.065318,-2.515889,99741.99,-146,-110,-142
48694,3.334,-2.167,0.516,1.901742,0.001196,-2.813871,99745.34,-146,-110,-142
48704,3.352,-2.772,0.675,2.004971,0.103361,-3.103870,99745.88,-153,-109,-139
48714,3.333,-3.275,0.910,2.101815,0.219893,-3.344916,99744.56,-158,-106,-136
48723,3.410,-3.853,1.026,2.227393,0.328443,-3.568934,99742.78,-168,-102,-132
48734,3.696,-4.597,1.113,2.360421,0.424755,-3.786567,99742.78,-168,-102,-132
48744,3.983,-5.662,1.023,2.473228,0.534902,-4.000475,99745.52,-177,-97,-128
48754,4.352,-6.700,1.019,2.557833,0.662076,-4.184053,99741.04,-186,-91,-124
48759,4.795,-7.418,0.948,2.602530,0.742957,-4.291539,99744.63,-186,-91,-124
48769,5.319,-7.725,1.169,2.619558,0.817452,-4.369760,99744.63,-195,-83,-119
48779,6.045,-8.127,1.355,2.644035,0.882902,-4.425099,99742.71,-206,-75,-113
48789,6.581,-8.703,1.624,2.663191,0.891416,-4.460218,99742.71,-214,-66,-109
48799,6.790,-9.793,1.951,2.658402,0.870663,-4.494805,99745.64,-214,-66,-109
48809,6.909,-11.007,2.521,2.622751,0.852572,-4.551209,99746.20,-223,-55,-104
48819,7.216,-12.229,3.056,2.583907,0.827030,-4.621447,99742.03,-230,-46,-101
48829,7.299,-13.400,3.360,2.532292,0.799893,-4.684236,99742.03,-237,-35,-98
48839,6.971,-13.896,3.353,2.480677,0.822773,-4.740640,99742.03,-237,-35,-98
48849,6.836,-14.012,3.098,2.427999,0.907379,-4.739044,99746.15,-243,-21,-94
48859,6.756,-14.395,2.848,2.411503,1.018590,-4.652309,99747.41,-249,-8,-91
48869,6.384,-15.141,2.741,2.394476,1.131929,-4.489484,99746.68,-255,+3,-86
48879,5.896,-16.311,2.555,2.369999,1.189929,-4.296860,99744.59,-255,+3,-86
48888,5.424,-17.530,2.004,2.313063,1.158002,-4.118604,99744.59,-259,+18,-82
48899,4.974,-18.487,1.058,2.194402,1.029764,-3.908421,99747.23,-263,+29,-79
48909,4.982,-18.212,-0.105,2.011889,0.837140,-3.591815,99747.34,-265,+40,-75
48919,6.295,-18.769,-0.041,1.830972,0.633874,-3.190604,99747.51,-265,+40,-75
48929,4.745,-18.002,1.180,1.826183,0.220425,-2.824513,99747.51,-265,+51,-75
48940,0.451,-16.660,-0.564,1.691027,-0.207391,-2.167889,99748.63,-265,+57,-76
48949,-2.065,-17.598,-1.234,1.471797,-0.310620,-1.444220,99749.79,-265,+60,-77
48959,-3.882,-18.666,-2.324,1.207339,-0.342015,-0.821120,99749.79,-265,+60,-77
48969,-3.868,-17.973,-3.759,0.900844,-0.342015,-0.243248,99748.63,-264,+62,-79
48978,-1.758,-17.511,-3.505,0.550715,-0.320198,0.381448,99747.96,-265,+60,-80
48989,0.929,-17.999,-2.068,0.184092,-0.469721,1.084898,99747.96,-265,+55,-82
48999,3.385,-17.318,-1.289,-0.006936,-0.867739,1.745778,99750.84,-265,+55,-82
49009,9.021,-9.126,0.722,0.074477,-1.458913,1.886255,99751.36,-264,+46,-86
49019,21.294,-0.635,1.673,0.616165,-2.257610,1.615943,99750.69,-260,+38,-93
49029,21.604,3.121,-4.930,-0.003211,-1.572785,2.455612,99748.02,-258,+29,-98
49039,6.228,-6.002,-7.676,-1.014751,-0.218033,3.698088,99748.80,-258,+29,-98
49049,-0.946,-14.750,2.216,-0.411339,-0.415978,3.913061,99747.29,-256,+16,-98
49059,1.575,-16.566,15.997,1.101981,-1.238088,3.631575,99744.84,-253,+0,-102
49069,1.851,-15.813,12.318,1.461155,-1.644620,3.503336,99744.84,-248,-18,-106
49079,2.249,-10.710,-1.070,0.602862,-1.493500,3.113832,99745.57,-248,-18,-106
49089,3.070,-6.178,-3.060,0.005303,-0.897537,2.641319,99745.57,-242,-29,-111
49099,1.372,-9.538,5.651,0.035101,-0.362767,2.444970,99747.63,-240,-39,-111
49108,1.540,-12.181,6.388,-0.123468,-0.544217,1.972457,99746.89,-236,-47,-112
49119,2.315,-10.867,1.411,-0.713045,-0.331905,1.317429,99746.89,-235,-49,-115
49129,3.932,-9.607,-0.532,-1.261118,0.274700,0.837999,99747.69,-235,-49,-115
49139,5.390,-7.773,-0.360,-1.342531,0.594498,0.540017,99747.69,-235,-49,-114
49149,6.316,-6.725,0.964,-1.020073,0.589177,0.442109,99748.39,-235,-50,-114
49159,6.665,-6.428,1.497,-0.583210,0.381122,0.483081,99747.47,-235,-50,-113
49169,6.838,-6.323,1.225,-0.191046,0.134223,0.576201,99745.20,-235,-50,-113
49179,6.801,-6.456,1.991,0.014881,0.027269,0.687944,99745.20,-235,-52,-112
49189,5.866,-6.844,2.977,0.073945,-0.024345,0.761375,99745.20,-234,-56,-113
49199,4.639,-7.222,3.749,0.088312,-0.071171,0.717742,99748.79,-233,-57,-112
49209,4.914,-7.688,4.245,0.010092,-0.064786,0.593228,99745.51,-233,-57,-112
49219,4.755,-7.944,4.355,-0.183596,0.016627,0.435724,99746.71,-232,-59,-113
49229,4.148,-8.178,4.184,-0.400697,0.150187,0.238843,99746.55,-232,-60,-112
49239,4.657,-7.603,3.619,-0.570440,0.268315,0.018550,99746.55,-232,-58,-112
49249,5.676,-6.583,3.151,-0.624183,0.373141,-0.086276,99749.82,-232,-58,-112
49259,6.519,-5.982,2.745,-0.559798,0.386975,-0.020827,99748.30,-234,-58,-112
49269,6.775,-6.048,2.402,-0.448055,0.310352,0.145724,99747.16,-234,-57,-112
49280,6.590,-6.161,2.759,-0.330458,0.214572,0.326109,99747.09,-234,-56,-112
49289,6.327,-6.216,3.603,-0.280972,0.148058,0.486806,99748.70,-234,-56,-112
49299,5.515,-6.562,3.944,-0.307578,0.098040,0.603870,99746.04,-234,-60,-111
49309,4.889,-7.113,3.622,-0.342697,0.080480,0.639522,99746.04,-232,-59,-111
49319,4.816,-7.461,3.458,-0.421449,0.149655,0.593228,99745.88,-232,-62,-111
49329,4.709,-7.369,2.808,-0.487963,0.285343,0.563430,99744.52,-232,-62,-111
49339,5.243,-7.137,2.807,-0.603431,0.372609,0.574072,99744.52,-232,-63,-111
49349,5.410,-6.959,2.560,-0.594917,0.365691,0.588439,99750.48,-232,-64,-111
49359,5.799,-7.145,2.521,-0.549688,0.367287,0.635797,99751.27,-233,-65,-110
49370,5.830,-7.192,2.587,-0.517761,0.282682,0.648567,99745.73,-233,-65,-110
49379,5.729,-7.208,2.736,-0.489559,0.219893,0.696989,99747.78,-232,-67,-109
49389,5.631,-7.179,2.815,-0.463486,0.157636,0.737430,99749.54,-231,-68,-109
49399,5.540,-7.315,3.013,-0.477853,0.120921,0.802347,99746.93,-230,-70,-110
49410,5.418,-7.386,3.239,-0.510844,0.099636,0.865668,99749.38,-230,-70,-110
49420,5.625,-7.345,3.112,-0.543302,0.078352,0.932182,99747.35,-229,-73,-109
49429,5.581,-7.537,2.945,-0.578421,0.053875,1.013595,99747.35,-228,-75,-111
49439,5.528,-7.698,2.748,-0.611944,0.033655,1.091815,99747.35,-227,-78,-111
49449,5.461,-7.729,2.375,-0.647596,0.013434,1.179081,99747.22,-227,-78,-111
49459,5.293,-8.128,2.265,-0.664091,0.002792,1.257301,99747.69,-224,-81,-112
49469,4.949,-8.339,2.197,-0.697614,0.005985,1.312108,99746.13,-221,-85,-112
49479,4.722,-8.561,2.034,-0.736990,0.033123,1.345631,99747.22,-220,-87,-114
49489,5.036,-8.907,2.198,-0.790733,0.069306,1.383943,99747.22,-220,-87,-114
49500,5.278,-8.912,2.247,-0.827981,0.060792,1.309980,99751.45,-217,-91,-114
49509,5.661,-8.816,2.374,-0.839687,0.010774,1.276457,99747.82,-216,-94,-116
49519,6.279,-8.796,2.431,-0.883852,-0.074364,1.322751,99748.68,-212,-96,-117
49529,6.640,-9.021,2.592,-0.921100,-0.168547,1.396714,99748.68,-212,-96,-117
49540,6.983,-9.158,2.492,-0.972715,-0.262731,1.520163,99748.00,-209,-98,-119
49549,6.890,-9.349,2.525,-1.036568,-0.318602,1.688842,99748.00,-205,-102,-122
49559,6.815,-9.622,2.663,-1.082861,-0.378198,1.812824,99748.69,-200,-105,-124
49569,6.467,-10.304,2.887,-1.160550,-0.373941,1.891044,99746.80,-195,-105,-127
49580,6.482,-10.793,3.243,-1.253669,-0.288272,1.967668,99745.14,-195,-109,-127
49589,7.503,-11.117,3.687,-1.357430,-0.178125,2.016622,99745.14,-191,-112,-130
49599,9.438,-11.880,4.525,-1.469705,-0.076492,2.067172,99748.77,-186,-114,-132
49609,11.439,-13.259,5.945,-1.650623,0.026205,2.180511,99747.20,-181,-118,-135
49619,13.146,-12.805,7.384,-1.858678,0.145398,2.409319,99747.94,-181,-118,-135
49630,14.108,-12.245,6.531,-2.075246,0.239581,2.700383,99744.88,-176,-119,-138
49639,14.226,-11.842,6.057,-2.225301,0.412517,2.914291,99746.14,-170,-122,-141
49649,13.850,-11.851,8.046,-2.258292,0.776480,3.077116,99744.20,-163,-126,-142
49659,13.711,-12.411,9.566,-2.349283,1.101599,3.397979,99744.20,-163,-126,-142
49670,11.874,-13.598,9.336,-2.649393,1.170241,3.889648,99745.36,-158,-128,-145
49679,9.828,-15.333,9.098,-2.702604,0.661544,4.304694,99745.67,-149,-131,-147
49689,7.911,-15.271,6.370,-2.352475,-0.114804,4.166877,99745.67,-137,-136,-152
49699,5.937,-12.790,3.492,-2.064072,-0.197281,3.700749,99747.55,-137,-136,-152
49710,3.639,-9.822,2.990,-2.064604,0.317269,3.257502,99744.63,-128,-137,-154
49720,1.946,-6.495,2.868,-1.928916,0.666333,2.701979,99743.54,-122,-139,-157
49729,1.430,-4.163,2.908,-1.653283,0.825434,2.098567,99744.52,-117,-139,-158
49739,15.930,-11.201,5.104,-1.478219,1.338920,0.965705,99744.52,-117,-139,-158
49750,-9.401,2.169,-3.491,-1.777265,1.283048,0.529907,99746.48,-120,-135,-157
49760,-8.255,2.781,-2.905,-1.617632,1.609232,0.865136,99744.02,-122,-131,-158
49769,4.736,-5.183,3.610,-1.009962,1.369782,0.031852,99743.60,-124,-130,-158
49779,9.714,-2.308,2.459,-0.665688,0.491801,-1.002037,99743.60,-124,-130,-158
49789,9.186,2.397,0.031,-0.439541,0.176792,-1.473486,99743.60,-127,-124,-158
49800,7.451,2.950,0.519,0.167596,-0.071171,-1.623009,99746.28,-130,-122,-157
49809,5.208,2.722,0.507,0.819963,-0.641061,-1.691651,99742.53,-131,-120,-157
49820,2.444,2.036,0.138,1.421602,-1.165543,-1.733156,99743.44,-131,-120,-157
49829,0.889,0.614,0.176,1.833632,-1.421133,-1.842770,99743.44,-130,-120,-157
49840,0.415,-1.001,0.454,2.111393,-1.487647,-2.049761,99743.44,-130,-121,-155
49850,0.574,-2.220,1.015,2.192274,-1.348767,-2.326458,99745.84,-132,-122,-153
49859,1.155,-3.174,1.599,2.137999,-1.100803,-2.643064,99741.98,-132,-122,-153
49869,1.478,-3.987,1.750,2.056054,-0.836877,-2.987871,99741.87,-134,-120,-151
49880,1.572,-4.205,1.726,1.995926,-0.582528,-3.299155,99741.87,-139,-117,-148
49890,1.663,-4.320,1.590,1.995393,-0.356914,-3.536476,99744.55,-145,-114,-145
49899,1.880,-4.805,1.481,2.037430,-0.166419,-3.722182,99744.55,-145,-114,-145
49909,2.254,-5.699,1.142,2.097026,-0.006786,-3.880751,99743.40,-152,-109,-142
49920,2.465,-6.753,1.195,2.151834,0.146994,-4.048897,99741.48,-160,-105,-138
49930,3.093,-7.601,1.432,2.225265,0.241710,-4.189374,99741.68,-168,-98,-134
49939,3.948,-8.391,1.671,2.287522,0.280021,-4.317080,99741.68,-168,-98,-134
49949,4.414,-9.179,1.865,2.337540,0.315673,-4.424035,99744.20,-176,-90,-130
49959,4.678,-10.157,2.290,2.379045,0.334297,-4.517154,99741.68,-184,-84,-126
49970,5.030,-11.135,2.507,2.400329,0.356645,-4.588989,99741.01,-190,-76,-122
49980,5.437,-12.241,2.945,2.375320,0.459875,-4.621447,99739.55,-190,-76,-122
49989,5.429,-13.017,3.597,2.308806,0.594498,-4.604420,99743.78,-199,-67,-117
49999,5.183,-13.625,3.896,2.226329,0.720608,-4.551741,99741.33,-206,-60,-114
50010,5.061,-14.012,3.980,2.195999,0.825966,-4.496401,99739.86,-214,-52,-109
50019,5.207,-14.147,3.764,2.207705,0.915361,-4.426695,99739.86,-214,-52,-109
50029,5.303,-14.242,3.212,2.228990,1.022847,-4.334640,99742.38,-222,-41,-103
50039,5.214,-14.239,2.744,2.214622,1.178755,-4.215980,99742.38,-230,-32,-98
50050,5.032,-14.067,2.563,2.186953,1.335195,-4.083484,99746.05,-237,-23,-91
50055,5.083,-14.201,2.234,2.153430,1.404902,-3.989301,99745.67,-237,-23,-91
50064,5.235,-14.085,1.745,2.107668,1.432039,-3.894053,99743.28,-243,-13,-85
50074,5.550,-14.420,0.894,2.047008,1.435232,-3.742934,99743.33,-250,-4,-77
50084,5.623,-14.329,-0.049,1.987944,1.368718,-3.552439,99743.33,-250,-4,-77
50095,5.969,-14.656,-0.722,1.868751,1.261232,-3.258714,99747.76,-255,+5,-71
50105,6.348,-14.914,-0.897,1.770311,1.049452,-2.880384,99745.87,-260,+16,-67
50114,6.170,-14.937,-0.686,1.787871,0.649306,-2.442458,99745.62,-264,+22,-63
50124,4.758,-14.771,-0.612,1.833100,0.143801,-1.922055,99745.66,-264,+22,-63
50135,2.088,-15.171,-1.421,1.793192,-0.348400,-1.353762,99745.66,-264,+28,-62
50145,-1.116,-15.563,-2.520,1.587265,-0.654895,-0.759927,99748.36,-264,+30,-65
50154,-3.825,-15.931,-3.417,1.271192,-0.754932,-0.110221,99750.61,-264,+29,-67
50164,-4.078,-16.638,-3.662,0.858275,-0.714492,0.532568,99747.36,-264,+29,-67
50174,1.163,-18.912,-0.827,0.550183,-0.502180,0.841723,99746.89,-264,+25,-68
50185,3.289,-19.814,0.402,-0.037266,-0.624033,1.263154,99746.89,-264,+21,-70
50195,1.615,-10.016,0.339,-0.371963,-0.910840,1.653723,99749.85,-262,+14,-73
50204,18.663,-4.076,6.928,0.317119,-1.210950,0.992310,99746.20,-262,+14,-73
50214,29.896,6.310,0.272,0.012752,-1.390803,0.593760,99747.20,-261,+10,-78
50225,17.940,4.485,-5.429,-1.926255,0.492865,2.382181,99747.93,-260,+7,-79
50235,0.043,-10.581,-5.428,-1.998622,0.691874,3.620400,99747.93,-260,-5,-76
50244,3.379,-14.626,1.825,-0.535853,-0.632547,3.461300,99747.13,-260,-5,-76
50254,6.316,-10.365,6.286,0.284128,-1.134858,3.125538,99747.04,-256,-19,-80
50265,2.109,-10.939,12.201,0.508679,-0.444180,3.022309,99744.85,-253,-31,-81
50275,2.322,-13.276,11.310,0.761431,-0.738437,3.130860,99743.27,-249,-44,-83
50284,3.793,-9.847,1.355,0.670972,-1.491904,2.957924,99743.27,-243,-44,-86
50294,2.966,-7.489,-0.784,0.246349,-1.158271,2.631741,99749.12,-243,-57,-86
50305,0.827,-10.743,4.561,-0.018110,-0.486749,2.308750,99744.32,-239,-65,-89
50315,1.663,-12.192,4.689,-0.362385,-0.294657,1.758016,99742.71,-235,-73,-90
50325,2.580,-10.541,2.289,-0.949302,0.022480,1.122145,99744.74,-235,-75,-91
50334,4.399,-8.947,1.027,-1.415430,0.344939,0.646439,99744.74,-235,-75,-91
50344,5.495,-7.044,-0.219,-1.430861,0.509361,0.376127,99746.37,-235,-73,-92
50355,6.562,-6.435,0.118,-1.057852,0.546608,0.317595,99747.41,-236,-73,-91
50365,6.979,-6.075,1.260,-0.614605,0.401342,0.396347,99746.41,-235,-73,-91
50374,7.282,-5.904,2.195,-0.230954,0.175196,0.543742,99746.57,-235,-73,-91
50384,7.338,-5.723,2.734,0.081927,-0.065850,0.728916,99746.57,-235,-75,-92
50395,6.178,-5.903,2.829,0.348514,-0.261134,0.890145,99747.35,-233,-80,-91
50405,5.242,-7.288,3.814,0.365541,-0.267520,0.914090,99745.52,-230,-84,-91
50414,4.458,-8.236,4.882,0.129284,-0.136621,0.754989,99743.01,-230,-84,-91
50424,4.387,-8.084,4.817,-0.208073,0.041636,0.486806,99745.73,-230,-85,-93
50435,4.531,-7.646,4.561,-0.509247,0.232132,0.255871,99745.73,-230,-87,-92
50445,4.850,-7.419,4.284,-0.731669,0.429012,0.069632,99747.27,-230,-85,-92
50454,5.734,-6.399,3.507,-0.809889,0.540755,-0.030405,99748.63,-230,-85,-92
50464,6.609,-5.696,2.687,-0.733798,0.522663,0.037706,99746.13,-232,-83,-91
50475,7.035,-5.755,2.483,-0.555541,0.405067,0.226072,99746.54,-232,-83,-90
50485,6.988,-5.967,2.632,-0.420385,0.288535,0.430403,99746.54,-232,-84,-90
50495,6.364,-6.309,2.946,-0.385266,0.208187,0.631008,99750.02,-232,-84,-90
50504,5.596,-6.821,3.299,-0.395376,0.151251,0.762439,99747.05,-230,-86,-90
50514,5.001,-7.322,3.509,-0.433156,0.147526,0.773613,99745.65,-230,-88,-89
50525,5.145,-7.229,3.392,-0.528048,0.227520,0.775210,99745.59,-228,-91,-90
50535,5.168,-6.908,3.267,-0.620458,0.315673,0.827356,99745.59,-228,-91,-90
50544,5.381,-6.894,3.052,-0.643339,0.448700,0.935375,99749.39,-228,-92,-91
50554,6.176,-6.893,3.506,-0.729541,0.432737,0.933246,99748.34,-227,-95,-89
50565,6.530,-6.769,3.391,-0.693889,0.326847,1.001356,99747.88,-225,-97,-89
50575,6.316,-7.046,3.420,-0.664623,0.203398,1.129595,99744.42,-225,-97,-89
50584,5.908,-7.322,3.193,-0.680054,0.107086,1.254640,99744.42,-224,-100,-90
50594,5.431,-7.697,3.208,-0.702935,0.042700,1.324879,99748.18,-221,-104,-92
50605,4.967,-7.891,3.007,-0.703467,-0.009446,1.349888,99746.40,-219,-106,-93
50615,4.526,-7.961,2.663,-0.699210,-0.023813,1.359998,99746.87,-219,-106,-93
50625,4.167,-8.096,2.438,-0.707724,0.009178,1.347760,99744.21,-216,-110,-94
50634,4.059,-8.278,2.224,-0.738054,0.076223,1.313173,99744.21,-213,-114,-95
50644,4.323,-8.570,2.028,-0.777963,0.115067,1.286035,99748.22,-212,-116,-96
50655,4.800,-8.664,2.176,-0.785944,0.116132,1.230696,99747.02,-212,-116,-96
50665,5.007,-8.524,2.139,-0.776366,0.089526,1.208347,99747.38,-209,-120,-97
50674,5.141,-8.348,2.212,-0.759339,0.049086,1.212072,99744.56,-205,-122,-99
50684,5.814,-8.277,1.919,-0.713577,-0.039244,1.248787,99744.56,-204,-125,-100
50695,5.959,-8.570,1.600,-0.689632,-0.164290,1.290824,99747.70,-204,-125,-100
50705,5.716,-8.809,1.530,-0.681119,-0.263263,1.380218,99747.14,-200,-127,-102
50715,5.516,-8.930,1.970,-0.686440,-0.326584,1.463760,99744.73,-197,-131,-104
50724,5.338,-9.164,2.344,-0.723687,-0.364363,1.530805,99744.11,-192,-133,-107
50735,5.247,-9.258,2.321,-0.777963,-0.370749,1.594659,99744.11,-192,-133,-107
50745,5.222,-9.724,2.303,-0.842880,-0.347336,1.640952,99747.73,-188,-137,-109
50755,5.535,-9.938,2.541,-0.923761,-0.302107,1.693099,99746.44,-183,-141,-112
50764,6.133,-10.030,3.019,-1.020605,-0.233464,1.740457,99744.55,-179,-143,-115
50775,6.915,-10.251,3.359,-1.110531,-0.179189,1.834640,99744.34,-174,-146,-117
50785,7.593,-10.698,3.535,-1.208972,-0.130235,1.957025,99744.34,-174,-146,-117
50795,8.455,-11.651,3.100,-1.309008,-0.098841,2.066640,99746.89,-168,-149,-120
50804,9.403,-11.997,3.048,-1.464916,-0.019556,2.168805,99745.17,-163,-153,-124
50814,11.007,-11.863,3.237,-1.645301,0.115600,2.254475,99743.70,-158,-155,-128
50825,12.980,-11.942,4.805,-1.717668,0.323654,2.366218,99744.02,-158,-155,-128
50835,14.460,-12.351,5.540,-1.829412,0.520003,2.542878,99744.02,-152,-157,-130
50845,14.276,-11.689,5.443,-2.019375,0.723801,2.721135,99746.34,-147,-159,-134
50854,13.100,-11.201,5.369,-2.134843,0.984535,2.911098,99745.60,-142,-161,-136
50865,10.248,-12.168,5.557,-2.266806,1.132993,3.333061,99743.98,-142,-161,-136
50875,8.421,-14.353,8.055,-2.263613,0.835012,3.977978,99743.77,-135,-164,-139
50885,9.561,-16.513,9.346,-1.891668,0.068774,4.101960,99743.77,-124,-169,-143
50894,9.662,-15.785,8.511,-1.806531,-0.427152,3.710327,99743.77,-114,-172,-147
50905,7.838,-13.223,5.977,-2.209338,-0.340419,3.318694,99747.05,-114,-172,-147
50915,2.542,-8.585,3.351,-2.312567,-0.016364,2.840860,99742.93,-104,-173,-153
50925,-1.182,-3.246,2.089,-1.728843,0.404003,2.178383,99744.09,-101,-172,-157
50934,9.964,-6.210,5.472,-1.349448,0.792443,1.578163,99744.09,-100,-172,-157
50945,6.216,-7.727,4.661,-1.473962,1.044131,0.363357,99747.27,-100,-172,-157
50955,-13.104,6.475,-4.555,-1.170660,0.422095,0.295779,99747.59,-101,-169,-159
50965,-5.475,0.278,2.516,-0.487963,0.630150,0.238311,99745.60,-104,-168,-160
50975,8.218,-5.121,5.359,0.285725,0.309287,-0.604019,99741.79,-107,-169,-156
50984,9.689,-1.818,3.839,0.033505,0.041636,-1.637376,99741.79,-107,-169,-156
50995,7.143,2.840,1.458,-0.162312,0.219361,-1.859266,99745.03,-114,-164,-156
51005,4.386,2.720,0.929,0.177706,0.299709,-1.862458,99745.39,-121,-161,-155
51015,2.642,0.964,1.721,0.636385,0.076223,-2.014110,99740.23,-128,-161,-150
51024,1.546,-0.363,1.301,0.994495,-0.224419,-2.233871,99738.92,-128,-161,-150
51035,0.881,-1.472,0.784,1.296201,-0.383519,-2.516421,99738.92,-135,-158,-147
51045,0.880,-2.287,0.925,1.504256,-0.345740,-2.835155,99742.05,-143,-155,-143
51055,1.552,-2.923,1.247,1.597375,-0.198345,-3.122494,99742.92,-153,-153,-138
51064,2.222,-3.564,1.323,1.661229,-0.010511,-3.366201,99742.72,-153,-153,-138
51075,2.774,-4.504,1.480,1.742109,0.183177,-3.593411,99737.23,-163,-147,-132
51085,2.935,-4.985,1.475,1.855981,0.326847,-3.767943,99737.23,-175,-139,-125
51095,2.983,-5.303,1.299,2.000715,0.456150,-3.885008,99742.38,-188,-133,-119
51105,3.110,-6.129,1.292,2.166201,0.564168,-3.990365,99741.02,-188,-133,-119
51116,3.519,-7.239,1.308,2.321931,0.632633,-4.100689,99744.25,-199,-124,-110
51125,4.284,-8.016,1.242,2.437044,0.648773,-4.161705,99739.66,-212,-111,-101
51135,4.904,-8.948,1.316,2.551448,0.673251,-4.196291,99739.66,-223,-100,-93
51145,5.123,-9.993,1.506,2.636054,0.683361,-4.214383,99743.91,-223,-100,-93
51154,5.393,-10.563,1.641,2.679154,0.658884,-4.221301,99742.35,-233,-86,-84
51165,5.714,-10.976,1.672,2.655741,0.659416,-4.218108,99739.43,-242,-69,-77
51175,5.811,-11.596,2.145,2.586567,0.692406,-4.213319,99742.51,-248,-53,-70
51185,5.638,-12.294,2.746,2.504622,0.711562,-4.208530,99742.51,-248,-53,-70
51194,5.483,-12.720,2.793,2.426402,0.721673,-4.216512,99743.09,-253,-34,-64
51205,5.459,-12.908,2.754,2.359889,0.785526,-4.226090,99743.98,-257,-17,-59
51215,5.612,-13.167,2.634,2.294971,0.879709,-4.220768,99744.04,-258,+0,-55
51225,5.684,-13.094,2.394,2.210898,0.988260,-4.228218,99743.88,-258,+0,-55
51234,6.085,-12.894,2.028,2.123100,1.104792,-4.239924,99743.88,-260,+19,-49
51245,6.747,-12.894,1.934,2.045412,1.209085,-4.225026,99745.76,-258,+37,-47
51255,7.443,-13.309,1.816,1.957614,1.279856,-4.164897,99745.80,-258,+54,-42
51265,7.769,-14.193,1.730,1.838421,1.326681,-4.062732,99742.30,-256,+71,-37
51275,8.065,-15.216,1.502,1.720825,1.318168,-3.921191,99741.74,-256,+71,-37
51284,8.055,-16.061,1.602,1.656440,1.239415,-3.775393,99741.74,-253,+87,-35
51295,5.241,-14.044,-0.020,1.575559,0.976553,-3.379503,99747.58,-251,+100,-32
51305,5.028,-14.743,-0.496,1.563320,0.839269,-2.806953,99747.48,-248,+110,-32
51315,4.235,-15.819,-0.741,1.575559,0.553526,-2.320073,99745.59,-248,+110,-32
51324,1.811,-15.985,-1.870,1.492018,0.179453,-1.755504,99748.05,-244,+118,-32
51335,-0.945,-15.466,-3.091,1.291412,-0.121189,-1.098881,99748.05,-243,+122,-34
51345,-3.384,-15.181,-3.837,1.036000,-0.360639,-0.424698,99748.77,-241,+124,-36
51351,-3.965,-15.357,-4.099,0.859339,-0.533042,0.130293,99748.62,-241,+124,-36
51360,-0.453,-16.338,-2.625,0.697578,-0.677244,0.636861,99748.62,-241,+122,-40
51371,3.996,-18.203,-0.666,0.563486,-0.755464,0.966237,99747.52,-241,+122,-40
51380,2.550,-17.139,0.797,-0.033009,-1.175299,1.773448,99746.79,-241,+118,-44
51390,4.379,-9.857,3.469,-0.006936,-1.465299,2.317264,99746.79,-242,+109,-48
51400,19.788,-5.670,9.140,0.809853,-1.872895,1.513778,99747.12,-241,+104,-56
51410,24.455,5.475,-0.162,0.033505,-1.731353,1.465888,99748.16,-241,+104,-56
51420,11.624,1.106,-6.879,-1.646366,0.061856,3.098401,99746.24,-241,+97,-58
51430,0.530,-12.731,-5.379,-1.220146,-0.164290,3.812492,99746.24,-242,+84,-57
51440,3.759,-14.371,2.213,-0.044715,-1.243941,3.578896,99746.24,-243,+71,-62
51450,4.248,-11.154,7.242,0.495908,-1.186473,3.206419,99749.80,-242,+71,-62
51460,1.327,-13.332,12.553,0.473559,-0.397354,3.094144,99746.66,-242,+58,-62
51470,3.452,-12.750,7.508,0.426734,-0.795372,3.108511,99742.85,-242,+46,-65
51480,4.033,-7.844,-0.644,0.236239,-1.175299,2.857887,99748.02,-241,+36,-70
51490,2.030,-7.746,1.678,0.046275,-0.765574,2.614181,99748.02,-240,+25,-71
51501,1.579,-10.968,5.650,-0.112825,-0.409061,2.272567,99746.37,-240,+25,-71
51510,1.555,-11.012,4.961,-0.521486,-0.289336,1.675539,99744.27,-238,+19,-73
51520,3.137,-10.449,2.147,-1.074348,-0.036052,1.092347,99746.99,-239,+17,-73
51530,4.689,-8.134,0.232,-1.383503,0.210315,0.650164,99746.99,-238,+15,-71
51540,5.977,-6.730,0.145,-1.262715,0.412517,0.475100,99748.10,-238,+15,-71
51550,6.923,-6.235,1.117,-0.896091,0.369948,0.496916,99748.10,-238,+15,-71
51560,7.070,-5.969,1.721,-0.526807,0.144866,0.629412,99749.93,-239,+14,-71
51570,7.024,-6.123,2.060,-0.204880,-0.085538,0.784788,99746.12,-238,+11,-71
51580,6.662,-6.127,2.169,0.081927,-0.274437,0.911430,99744.71,-238,+11,-71
51586,6.026,-6.384,2.392,0.213358,-0.352125,0.980604,99744.71,-237,+7,-73
51595,5.265,-7.272,3.173,0.212294,-0.327116,0.980604,99749.46,-237,+7,-73
51605,4.420,-8.136,3.741,0.046275,-0.217501,0.841723,99746.38,-236,+4,-73
51615,4.272,-8.184,3.962,-0.183596,-0.041905,0.601742,99746.80,-235,+1,-73
51625,4.156,-8.077,4.054,-0.430495,0.171471,0.366017,99744.29,-235,+0,-73
51635,4.391,-7.798,3.691,-0.644935,0.387508,0.130825,99744.29,-235,+0,-73
51645,5.304,-6.950,3.170,-0.765192,0.527452,-0.026148,99748.21,-236,+1,-73
51655,6.202,-6.129,3.044,-0.735926,0.502975,-0.021359,99747.79,-237,+1,-70
51665,6.712,-5.845,2.890,-0.583743,0.383251,0.117522,99746.65,-237,+3,-70
51675,6.887,-5.880,2.683,-0.436880,0.257141,0.308549,99745.34,-237,+3,-70
51685,6.477,-6.121,3.000,-0.351211,0.159233,0.501705,99745.34,-238,+2,-69
51695,5.650,-6.628,3.564,-0.297468,0.079416,0.642182,99750.30,-237,+0,-68
51705,5.301,-7.015,3.358,-0.308642,0.043233,0.694861,99746.29,-237,-1,-69
51715,4.923,-7.293,3.036,-0.367706,0.083673,0.709228,99746.80,-237,-1,-68
51725,5.105,-7.403,2.862,-0.441137,0.172003,0.735301,99747.01,-237,-2,-68
51735,5.206,-7.242,2.655,-0.514036,0.223618,0.744347,99747.01,-237,-6,-68
51745,5.352,-7.283,2.533,-0.537981,0.254480,0.805540,99748.12,-237,-8,-68
51756,5.749,-7.424,2.468,-0.553944,0.260333,0.783191,99748.79,-237,-9,-68
51765,5.670,-7.458,2.660,-0.540642,0.222554,0.799687,99746.54,-237,-9,-68
51775,5.722,-7.401,2.930,-0.509779,0.156572,0.806072,99746.18,-236,-13,-67
51785,5.461,-7.267,3.141,-0.504458,0.088462,0.854494,99746.18,-235,-15,-67
51795,5.338,-7.091,3.264,-0.541706,0.028866,0.953999,99748.84,-235,-18,-68
51805,5.512,-7.312,3.476,-0.563522,-0.008382,1.047650,99747.22,-235,-18,-68
51815,5.256,-7.389,3.199,-0.584807,-0.044566,1.095008,99746.39,-234,-22,-68
51825,5.252,-7.611,2.851,-0.618862,-0.045630,1.218457,99746.75,-232,-25,-68
51835,5.365,-7.625,2.529,-0.608220,-0.070107,1.258897,99746.75,-231,-29,-70
51846,4.964,-8.026,1.988,-0.617798,-0.088731,1.333393,99746.83,-231,-29,-70
51855,4.610,-8.459,1.612,-0.645467,-0.069043,1.388732,99747.66,-230,-34,-70
51865,4.521,-8.763,1.586,-0.663027,-0.020088,1.379154,99746.14,-228,-37,-71
51875,4.986,-9.196,1.737,-0.725816,0.025141,1.389796,99746.72,-227,-40,-71
51886,5.405,-9.006,1.954,-0.776898,0.038976,1.347228,99746.72,-227,-40,-71
51895,5.760,-8.933,2.136,-0.787009,-0.004657,1.344567,99747.52,-225,-45,-71
51905,6.124,-9.109,2.078,-0.834898,-0.069043,1.349888,99747.77,-223,-49,-73
51915,6.307,-9.217,2.152,-0.859375,-0.158437,1.410017,99745.16,-221,-52,-75
51926,6.397,-9.487,2.031,-0.862568,-0.250492,1.489833,99745.64,-221,-52,-75
51935,6.160,-9.660,1.951,-0.907265,-0.296786,1.579227,99745.64,-218,-56,-76
51945,6.022,-9.629,2.304,-0.948238,-0.317538,1.649466,99749.59,-216,-60,-79
51955,6.113,-10.036,2.590,-1.017944,-0.303703,1.684585,99747.92,-212,-65,-81
51965,6.432,-10.508,3.080,-1.112660,-0.254749,1.739393,99747.41,-212,-65,-81
51976,7.333,-10.938,3.637,-1.230788,-0.160033,1.807503,99747.25,-209,-69,-83
51985,9.022,-11.752,3.878,-1.356898,-0.101501,1.870824,99747.25,-206,-72,-85
51995,11.206,-12.888,4.598,-1.518659,-0.016364,1.975117,99747.30,-202,-76,-88
52005,13.385,-12.863,5.125,-1.732568,0.097508,2.194878,99746.25,-202,-76,-88
52016,15.198,-12.233,4.702,-1.894861,0.178388,2.449227,99745.52,-198,-81,-89
52025,16.030,-11.626,4.659,-1.976274,0.303434,2.674309,99744.06,-193,-85,-93
52035,15.571,-10.832,5.321,-2.034274,0.506700,2.854162,99744.06,-188,-90,-93
52045,14.108,-10.989,5.815,-2.069925,0.719012,3.142566,99745.72,-188,-90,-93
52056,10.971,-13.531,6.334,-2.201711,0.733734,3.810718,99744.52,-182,-96,-95
52065,9.396,-15.782,8.639,-2.153999,0.374737,4.345666,99745.77,-174,-102,-98
52075,9.790,-16.802,9.674,-1.885283,-0.235593,4.206254,99745.67,-164,-111,-102
52085,9.757,-15.227,9.824,-2.012457,-0.390969,3.711391,99745.67,-164,-111,-102
52096,8.261,-12.019,8.217,-2.531796,-0.188235,3.341575,99747.58,-154,-115,-108
52106,4.095,-6.933,4.889,-2.350347,-0.064786,2.969630,99743.86,-146,-116,-114
52115,0.815,-2.287,3.639,-1.561228,0.137948,2.530640,99746.38,-140,-118,-117
52125,12.763,-8.168,5.867,-1.053595,0.559911,1.889447,99744.17,-140,-118,-117
52135,-2.132,-4.743,2.244,-1.214293,0.961122,0.756054,99744.17,-137,-118,-117
52146,-12.992,2.491,-3.700,-1.363283,0.776480,1.081173,99745.41,-135,-115,-119
52155,-1.930,-4.080,2.382,-0.816275,1.268681,0.735301,99745.98,-135,-115,-118
52165,7.033,-5.484,4.021,-0.600238,0.993049,-0.519946,99744.78,-135,-115,-118
52175,7.445,0.691,2.468,-0.834544,0.966443,-1.368129,99742.17,-137,-110,-118
52186,6.445,3.042,1.300,-0.711449,1.073397,-1.580972,99742.17,-142,-102,-119
52196,4.612,3.050,1.205,-0.235211,0.871195,-1.746459,99743.73,-145,-97,-119
52205,3.097,2.508,0.807,0.321908,0.441783,-1.882679,99742.48,-148,-91,-119
52215,1.779,1.825,0.203,0.896055,0.013967,-2.043908,99744.51,-148,-91,-119
52226,1.339,0.707,0.009,1.402623,-0.286675,-2.276440,99741.85,-151,-86,-117
52235,1.709,-0.208,0.184,1.773504,-0.437795,-2.560586,99741.85,-153,-81,-117
52245,2.271,-1.007,0.683,2.017742,-0.460143,-2.852183,99742.40,-155,-76,-116
52255,2.940,-1.809,1.149,2.205045,-0.440455,-3.110788,99742.91,-155,-76,-116
52265,3.171,-2.790,1.324,2.353503,-0.404272,-3.329485,99740.05,-159,-69,-115
52276,3.027,-3.517,1.639,2.474292,-0.352125,-3.515191,99738.90,-161,-65,-114
52285,2.893,-4.390,1.557,2.604659,-0.297850,-3.685999,99738.90,-164,-59,-112
52291,2.835,-5.259,1.396,2.685540,-0.239318,-3.829668,99741.70,-164,-59,-112
52300,2.750,-6.123,1.258,2.720127,-0.127043,-3.989301,99741.70,-168,-51,-111
52311,2.823,-7.255,1.187,2.738751,0.052278,-4.182457,99742.06,-168,-51,-111
52321,3.497,-8.284,1.272,2.777063,0.216168,-4.348475,99742.69,-170,-44,-110
52331,4.452,-9.174,1.480,2.818567,0.342278,-4.469264,99742.02,-174,-35,-107
52340,5.286,-9.889,1.659,2.837191,0.427948,-4.554934,99745.08,-177,-26,-106
52350,5.902,-10.327,1.683,2.811650,0.482755,-4.612934,99747.69,-177,-26,-106
52361,6.219,-11.282,1.970,2.722255,0.566829,-4.654438,99742.67,-181,-19,-102
52370,6.358,-12.471,2.821,2.573265,0.660480,-4.704988,99742.67,-182,-9,-102
52380,6.338,-13.291,3.528,2.418953,0.719012,-4.746493,99740.84,-185,+0,-101
52390,5.912,-13.827,3.602,2.297632,0.776480,-4.783209,99740.84,-185,+0,-101
52401,5.629,-13.835,3.594,2.219412,0.889287,-4.821520,99746.04,-186,+7,-98
52411,5.967,-13.741,3.549,2.166201,1.059562,-4.823117,99742.80,-188,+17,-96
52420,6.513,-13.796,3.695,2.135870,1.248993,-4.748089,99744.32,-191,+27,-94
52430,6.857,-14.531,3.791,2.136402,1.386278,-4.601759,99742.90,-193,+34,-90
52441,6.500,-15.330,3.212,2.092769,1.471415,-4.436805,99742.90,-193,+34,-90
52451,5.813,-16.280,2.703,2.009228,1.531011,-4.245245,99747.62,-197,+44,-86
52460,5.405,-16.778,1.678,1.847999,1.564534,-4.010053,99746.55,-200,+51,-82
52470,5.187,-18.469,0.589,1.602164,1.633177,-3.670568,99750.27,-202,+58,-76
52481,4.362,-18.476,0.227,1.381871,1.537397,-3.259779,99750.27,-202,+58,-76
52491,3.280,-17.351,-0.376,1.215853,1.275599,-2.796311,99750.27,-205,+65,-73
52500,2.005,-16.159,-0.914,1.147743,0.930792,-2.266330,99748.67,-205,+70,-70
52510,0.044,-15.769,-1.489,1.074844,0.535434,-1.621413,99748.36,-207,+72,-68
52520,-2.212,-15.877,-2.609,0.956715,0.103361,-0.823248,99747.38,-207,+72,-68
52531,-3.572,-16.097,-4.352,0.777926,-0.264327,0.082403,99748.05,-206,+73,-68
52540,-2.161,-16.210,-4.405,0.556037,-0.517611,0.924200,99748.05,-207,+67,-70
52550,2.639,-17.074,-1.678,0.531027,-0.833684,1.532934,99750.61,-205,+61,-72
52560,6.204,-19.287,-0.797,0.464514,-1.301941,1.875080,99749.98,-205,+61,-72
52571,6.315,-10.275,2.659,0.485266,-2.109152,2.262456,99748.11,-204,+54,-76
52581,21.423,-4.005,8.571,1.622385,-2.557188,1.391393,99748.11,-202,+46,-85
52591,28.104,9.340,-2.132,0.929578,-2.486417,1.104053,99752.07,-198,+40,-90
52600,15.875,4.998,-5.893,-1.104678,-0.459079,3.039869,99748.32,-198,+40,-90
52611,-1.057,-11.306,-5.143,-0.877467,-0.618712,4.120052,99748.32,-197,+30,-91
52621,2.572,-15.517,0.244,0.755046,-2.053812,3.823666,99749.88,-193,+16,-96
52630,4.799,-12.189,1.379,1.013119,-2.071904,3.446401,99748.12,-188,+3,-100
52640,1.445,-11.280,9.332,0.561890,-0.606473,3.144694,99748.12,-188,+3,-100
52646,1.060,-13.375,13.455,0.680550,-0.303171,3.204823,99748.42,-186,-6,-100
52656,2.480,-12.404,8.963,0.763559,-0.918290,3.193116,99746.06,-182,-17,-104
52666,2.778,-10.009,1.985,0.451211,-1.349299,2.924401,99746.69,-182,-17,-104
52675,1.665,-9.611,2.745,-0.017578,-0.955537,2.480089,99747.00,-177,-27,-106
52685,0.913,-11.243,6.208,-0.419321,-0.375006,2.018750,99747.00,-175,-32,-107
52696,2.015,-11.314,4.444,-1.000384,-0.111611,1.458971,99748.86,-174,-34,-108
52706,3.446,-9.551,-0.302,-1.553246,0.118792,0.956127,99749.39,-174,-34,-108
52716,4.809,-7.636,-1.817,-1.638916,0.497122,0.671448,99748.70,-172,-33,-108
52725,6.492,-7.004,-0.046,-1.260054,0.620572,0.560237,99745.94,-174,-31,-109
52736,7.035,-5.960,0.697,-0.793394,0.388572,0.621430,99745.94,-174,-31,-108
52746,7.150,-6.012,1.634,-0.371431,0.100168,0.793301,99748.66,-174,-31,-108
52756,6.906,-6.348,2.205,-0.024495,-0.162162,0.949742,99751.06,-173,-35,-107
52765,6.201,-6.664,2.604,0.219211,-0.351593,1.042861,99748.28,-171,-38,-109
52775,4.805,-7.746,3.540,0.260183,-0.390437,1.038072,99747.41,-169,-41,-109
52786,3.588,-9.088,4.181,0.077670,-0.264327,0.815118,99747.41,-169,-41,-109
52796,4.248,-7.474,4.478,-0.182000,-0.090327,0.502769,99750.01,-168,-44,-109
52805,4.725,-7.273,4.423,-0.466146,0.107086,0.381448,99748.34,-168,-43,-110
52815,4.358,-7.476,3.820,-0.671009,0.283214,0.254806,99747.62,-168,-43,-110
52826,5.614,-6.449,2.784,-0.711981,0.375269,0.152641,99746.98,-168,-43,-110
52836,6.608,-6.243,1.916,-0.647596,0.356113,0.215430,99746.98,-168,-42,-109
52846,6.832,-6.455,1.871,-0.533192,0.286939,0.356439,99748.50,-168,-42,-109
52855,6.700,-6.420,2.232,-0.431559,0.213508,0.499577,99751.06,-168,-42,-109
52866,6.242,-6.548,2.758,-0.385798,0.133159,0.645375,99746.36,-168,-42,-109
52876,5.413,-6.881,3.457,-0.404422,0.087398,0.740622,99748.34,-168,-44,-109
52881,4.812,-7.234,3.689,-0.439009,0.091655,0.756054,99748.34,-167,-44,-109
52890,4.580,-7.409,3.559,-0.488495,0.127306,0.741687,99748.34,-167,-44,-109
52900,4.458,-7.526,3.216,-0.555541,0.186370,0.727852,99748.20,-167,-46,-109
52911,4.317,-7.357,2.812,-0.537449,0.299177,0.727852,99748.82,-167,-47,-109
52921,5.424,-7.332,2.697,-0.613541,0.378994,0.768824,99747.32,-167,-48,-109
52931,6.115,-7.172,2.642,-0.582678,0.296517,0.785320,99747.43,-167,-48,-109
52940,6.043,-7.309,2.651,-0.533724,0.200737,0.847044,99749.95,-166,-50,-109
52951,5.698,-7.483,2.600,-0.514036,0.148058,0.927393,99748.01,-164,-52,-108
52961,5.473,-7.660,2.519,-0.505522,0.116664,0.988586,99748.01,-165,-53,-110
52971,5.047,-7.807,2.314,-0.507651,0.108150,1.035411,99746.55,-165,-53,-110
52980,4.639,-8.046,2.173,-0.523082,0.126774,1.060953,99746.49,-163,-55,-110
52990,4.641,-8.096,2.173,-0.532660,0.159233,1.062017,99746.49,-161,-57,-109
53001,4.722,-8.370,2.079,-0.544899,0.202866,1.050843,99748.55,-161,-59,-110
53011,4.685,-8.175,2.131,-0.555009,0.219893,1.052971,99747.57,-161,-59,-110
53021,4.944,-8.243,2.145,-0.541706,0.183177,1.082237,99747.41,-160,-61,-109
53030,4.950,-8.381,2.171,-0.542770,0.150187,1.120017,99748.24,-158,-64,-110
53041,4.868,-8.405,2.090,-0.567247,0.131031,1.174824,99749.10,-157,-64,-111
53051,5.210,-8.357,2.200,-0.613009,0.116664,1.255173,99749.10,-157,-64,-111
53061,5.827,-8.487,1.943,-0.649192,0.070902,1.293485,99745.60,-155,-66,-111
53070,5.894,-8.790,2.027,-0.722623,0.024609,1.365851,99748.48,-153,-69,-111
53081,6.066,-8.548,2.522,-0.774238,-0.016364,1.463228,99748.48,-150,-70,-112
53091,6.463,-8.951,2.713,-0.800311,-0.068510,1.604769,99748.48,-150,-70,-112
53101,6.526,-9.695,2.719,-0.848733,-0.103630,1.734071,99749.20,-147,-74,-113
53110,6.895,-10.077,2.899,-0.918972,-0.151520,1.822402,99747.27,-144,-77,-115
53121,7.084,-10.382,3.043,-0.978568,-0.191428,1.917649,99750.51,-141,-79,-117
53131,7.094,-10.793,3.128,-1.061045,-0.178125,2.013429,99747.79,-141,-79,-117
53141,7.161,-11.223,3.166,-1.171724,-0.116400,2.094310,99747.79,-137,-83,-118
53151,8.174,-11.519,3.541,-1.301026,-0.005722,2.159227,99747.48,-132,-85,-119
53160,10.768,-12.685,4.082,-1.437779,0.048554,2.215631,99748.11,-129,-85,-122
53171,12.712,-14.822,5.301,-1.679357,0.246499,2.270438,99744.72,-129,-85,-122
53181,14.168,-14.148,5.211,-2.021503,0.544480,2.450823,99744.72,-124,-88,-125
53191,15.187,-13.091,4.902,-2.338641,0.958993,2.657282,99746.25,-121,-89,-126
53200,15.605,-12.822,5.672,-2.640879,1.503342,2.856291,99746.25,-120,-88,-127
53211,15.156,-13.225,7.501,-2.996328,2.109415,3.112236,99743.17,-120,-88,-127
53221,13.115,-14.272,9.830,-3.297503,2.314277,3.591135,99746.20,-117,-89,-127
53231,11.780,-15.517,12.277,-3.302291,1.658718,4.204657,99744.69,-113,-90,-129
53240,12.389,-15.705,10.883,-2.708457,0.368884,4.187630,99744.69,-107,-92,-132
53251,10.400,-13.613,7.664,-2.407815,-0.330841,3.734272,99745.70,-107,-92,-132
53261,6.999,-10.546,5.516,-2.501466,-0.172804,3.364988,99747.93,-96,-95,-137
53271,3.870,-6.642,3.533,-2.287026,0.209251,2.883429,99744.85,-89,-95,-142
53281,0.966,-1.807,3.244,-1.765026,0.602480,2.261392,99743.05,-87,-95,-143
53291,14.419,-7.970,5.614,-1.426604,1.292626,1.259429,99747.17,-87,-95,-143
53301,-4.965,-1.417,0.383,-1.541540,1.153746,0.256935,99745.13,-87,-94,-143
53311,-12.085,2.354,-3.141,-1.160017,0.927599,0.668256,99745.13,-88,-93,-146
53321,-1.862,-3.325,3.549,-0.110697,0.868003,0.555448,99745.03,-89,-93,-144
53330,7.659,-3.954,3.129,0.453871,-0.049355,-0.613597,99743.83,-87,-93,-145
53341,7.369,1.434,0.959,0.282000,-0.217501,-1.326092,99743.83,-87,-94,-145
53351,5.864,3.244,-0.001,0.323505,0.053875,-1.455395,99745.43,-89,-93,-144
53361,4.453,2.828,0.341,0.698642,0.066113,-1.684734,99742.98,-93,-93,-144
53371,3.188,2.254,0.414,1.033871,-0.119061,-1.982183,99744.02,-94,-93,-143
53381,1.841,1.676,0.194,1.343559,-0.313813,-2.177999,99743.87,-94,-93,-143
53391,1.162,0.662,-0.064,1.683045,-0.445244,-2.383926,99743.87,-96,-93,-142
53401,1.254,-0.622,0.242,1.989540,-0.514951,-2.607944,99742.94,-101,-94,-140
53411,1.483,-1.800,0.662,2.220476,-0.552730,-2.850586,99742.86,-104,-95,-137
53421,2.001,-2.580,1.017,2.362549,-0.523996,-3.115045,99742.48,-104,-95,-137
53431,2.689,-3.261,1.038,2.417888,-0.445244,-3.373650,99742.48,-107,-96,-135
53441,3.263,-3.858,0.846,2.431723,-0.324455,-3.630127,99742.48,-115,-96,-131
53451,3.523,-4.625,0.683,2.426934,-0.168547,-3.880219,99743.31,-120,-94,-127
53460,3.516,-5.414,0.531,2.425870,-0.012639,-4.079227,99743.11,-120,-94,-127
53471,3.558,-6.358,0.530,2.455668,0.143801,-4.242053,99743.11,-128,-91,-124
53481,3.854,-7.527,0.691,2.544531,0.242774,-4.381466,99741.75,-137,-87,-120
53491,4.621,-8.548,0.816,2.655210,0.278425,-4.518218,99741.75,-144,-84,-117
53501,5.172,-9.154,0.865,2.733962,0.297049,-4.650181,99743.09,-144,-84,-117
53511,5.357,-9.943,1.045,2.768549,0.339618,-4.762989,99743.54,-151,-78,-112
53521,5.508,-11.085,1.452,2.749393,0.389636,-4.864622,99744.60,-161,-71,-108
53531,6.082,-12.032,1.812,2.652549,0.444443,-4.953484,99744.60,-169,-65,-104
53541,6.468,-12.617,2.551,2.484934,0.565232,-4.993924,99744.77,-169,-65,-104
53551,6.421,-13.267,3.497,2.322641,0.709966,-4.964126,99744.77,-177,-55,-101
53561,6.184,-14.256,4.114,2.227393,0.796168,-4.897612,99744.39,-186,-44,-97
53571,5.943,-15.211,3.821,2.207705,0.826498,-4.836420,99743.14,-193,-34,-94
53581,5.752,-15.640,3.148,2.213558,0.889819,-4.782677,99746.02,-193,-34,-94
53591,5.490,-15.836,2.565,2.210366,1.019654,-4.698071,99746.02,-202,-23,-91
53601,5.357,-16.018,2.151,2.164072,1.161195,-4.584732,99747.62,-212,-10,-88
53611,5.560,-16.554,1.737,2.069357,1.246333,-4.452768,99749.40,-219,+0,-84
53621,5.887,-17.318,1.380,1.884715,1.296883,-4.252695,99746.79,-219,+0,-84
53632,6.095,-17.504,0.971,1.685706,1.263360,-3.917466,99747.25,-227,+15,-80
53641,5.655,-17.427,0.333,1.517559,1.104792,-3.427393,99746.31,-234,+29,-78
53651,4.362,-16.814,-0.357,1.431889,0.808406,-2.817595,99748.56,-237,+38,-75
53661,2.204,-16.811,-1.226,1.360587,0.475306,-2.125321,99746.73,-237,+38,-75
53670,-0.631,-17.500,-2.516,1.198293,0.128370,-1.351633,99746.73,-239,+46,-74
53681,-3.431,-18.107,-4.135,0.978532,-0.219098,-0.524734,99744.55,-241,+51,-76
53691,-4.267,-18.357,-5.241,0.765156,-0.544217,0.300568,99744.55,-240,+48,-79
53701,0.462,-18.675,-3.075,0.599137,-0.747482,0.893870,99752.20,-240,+48,-79
53711,2.700,-20.218,-0.254,0.351174,-1.022051,1.485576,99748.34,-241,+45,-82
53722,2.211,-11.308,2.100,-0.003743,-1.500418,2.167209,99748.91,-239,+38,-88
53731,18.946,-6.311,8.783,0.909357,-1.749445,1.213136,99747.50,-236,+32,-94
53741,27.287,5.233,1.752,0.350110,-1.658987,0.632072,99747.50,-236,+32,-94
53751,16.067,4.975,-6.117,-2.263081,0.764773,2.232126,99749.73,-235,+32,-98
53762,-1.615,-11.911,-3.830,-2.414732,1.035085,3.469813,99749.23,-238,+25,-94
53771,5.178,-15.141,3.880,-0.459761,-0.711299,3.285703,99750.48,-234,+13,-96
53781,6.693,-8.986,1.608,0.325633,-1.439225,2.966970,99750.48,-232,+13,-96
53791,3.991,-8.127,6.356,-0.037798,-0.367024,2.802016,99750.48,-232,+3,-99
53801,2.687,-11.254,11.667,0.138862,-0.062125,2.815850,99752.16,-231,-5,-99
53811,3.437,-11.415,7.949,0.569871,-0.897005,2.821172,99747.37,-227,-18,-101
53821,3.675,-9.535,0.731,0.566147,-1.390271,2.661539,99749.87,-223,-27,-105
53831,2.158,-10.064,0.314,0.185688,-0.936381,2.391227,99746.43,-223,-27,-105
53840,2.027,-11.706,3.426,-0.156991,-0.303171,1.973521,99746.43,-220,-34,-106
53852,2.326,-10.623,3.464,-0.657174,0.065581,1.419595,99751.34,-219,-39,-107
53861,3.415,-9.192,2.150,-1.081797,0.323654,0.916751,99746.17,-219,-40,-106
53871,4.883,-7.726,1.286,-1.187687,0.449764,0.552256,99748.47,-219,-40,-106
53881,6.049,-6.747,1.055,-1.015816,0.469985,0.404329,99748.47,-220,-39,-106
53892,6.635,-6.209,1.581,-0.674201,0.368884,0.422421,99750.49,-220,-40,-106
53901,6.866,-6.055,2.241,-0.375156,0.209783,0.521393,99750.49,-220,-40,-106
53911,6.740,-5.983,2.827,-0.141027,0.036315,0.641650,99750.49,-220,-40,-106
53921,6.410,-6.310,2.738,0.074477,-0.092988,0.726788,99747.68,-219,-42,-106
53931,5.738,-6.881,2.884,0.108000,-0.102033,0.749136,99747.68,-217,-46,-106
53942,4.934,-7.885,3.406,-0.041700,-0.021862,0.644665,99747.44,-217,-48,-106
53951,4.722,-7.988,4.233,-0.216055,0.080480,0.449026,99747.44,-217,-48,-106
53961,4.835,-7.643,4.538,-0.408678,0.217765,0.223412,99748.59,-216,-48,-106
53971,5.408,-7.157,4.608,-0.591192,0.324187,0.051540,99748.44,-217,-48,-104
53982,5.800,-6.524,3.938,-0.689100,0.378462,-0.022423,99748.00,-218,-45,-104
53991,6.202,-6.022,2.790,-0.661431,0.358774,0.007375,99749.09,-218,-45,-104
54001,6.665,-5.881,2.502,-0.523614,0.283214,0.126568,99748.27,-218,-46,-104
54011,6.907,-5.795,2.651,-0.390587,0.211379,0.295247,99750.92,-218,-47,-103
54021,6.629,-5.813,2.794,-0.346422,0.173067,0.487870,99750.92,-219,-46,-104
54031,6.116,-6.129,3.495,-0.323541,0.125177,0.630476,99747.02,-219,-46,-104
54041,5.742,-6.652,4.014,-0.333119,0.091655,0.694861,99747.02,-218,-48,-104
54051,5.461,-7.009,4.023,-0.421449,0.121985,0.715613,99747.40,-217,-52,-103
54062,5.241,-7.030,3.936,-0.521486,0.186370,0.731577,99748.87,-217,-52,-104
54071,5.528,-6.847,3.741,-0.630036,0.275765,0.793301,99746.68,-217,-52,-104
54081,5.655,-6.755,3.388,-0.694954,0.340682,0.840659,99747.20,-218,-54,-103
54091,5.839,-6.690,3.074,-0.711449,0.326315,0.930586,99747.20,-216,-57,-103
54102,5.688,-6.887,2.735,-0.707724,0.309287,1.002953,99749.07,-216,-58,-103
54112,6.118,-7.097,2.714,-0.711449,0.272040,1.066806,99747.70,-216,-58,-103
54121,5.839,-7.194,2.576,-0.701339,0.225214,1.112035,99749.62,-215,-61,-103
54131,5.530,-7.452,2.466,-0.698146,0.178388,1.175356,99749.62,-214,-64,-102
54141,5.510,-7.504,2.704,-0.672605,0.129966,1.202494,99749.62,-213,-65,-104
54151,5.336,-7.823,2.838,-0.691761,0.093251,1.193448,99752.93,-213,-65,-104
54161,4.828,-8.004,2.626,-0.693357,0.023545,1.213668,99748.65,-211,-69,-104
54171,4.476,-8.381,2.359,-0.710385,0.032058,1.254108,99748.29,-209,-73,-104
54176,4.317,-8.199,2.346,-0.749761,0.056535,1.244530,99747.09,-209,-73,-104
54187,4.357,-7.962,2.528,-0.791798,0.070370,1.233888,99747.09,-209,-75,-106
54196,4.572,-7.947,2.599,-0.831706,0.086333,1.242402,99746.73,-206,-78,-106
54206,4.828,-8.336,2.819,-0.840219,0.060792,1.271136,99748.96,-204,-81,-107
54216,5.022,-8.407,2.751,-0.842348,-0.009446,1.298274,99746.77,-204,-81,-107
54226,5.364,-8.515,2.504,-0.867889,-0.049887,1.399374,99746.66,-203,-83,-108
54236,6.020,-8.935,2.431,-0.890238,-0.108419,1.439283,99746.66,-200,-87,-110
54246,6.341,-9.247,2.109,-0.901944,-0.178657,1.449393,99748.73,-196,-90,-111
54256,6.373,-9.493,1.406,-0.939724,-0.220162,1.505796,99749.05,-196,-90,-111
54266,6.394,-9.799,0.925,-0.985485,-0.240382,1.594127,99750.92,-195,-92,-112
54277,6.392,-9.816,1.415,-1.013687,-0.244107,1.661704,99747.73,-191,-96,-115
54286,6.528,-9.822,1.977,-1.032311,-0.258474,1.717576,99747.73,-186,-100,-116
54296,6.769,-10.260,2.191,-1.088183,-0.269648,1.756420,99747.22,-186,-100,-116
54306,7.096,-11.166,2.588,-1.191944,-0.236125,1.811227,99746.70,-184,-101,-118
54317,8.089,-12.003,3.761,-1.334017,-0.126510,1.840493,99750.78,-179,-106,-120
54326,9.719,-12.869,5.353,-1.537815,0.032058,1.885191,99747.44,-175,-106,-122
54336,12.093,-13.045,6.744,-1.770347,0.185306,2.067172,99747.44,-175,-106,-122
54346,14.448,-12.776,6.149,-2.029485,0.245434,2.320456,99746.53,-173,-109,-124
54356,15.699,-11.807,5.830,-2.197632,0.325251,2.551924,99747.16,-167,-111,-125
54367,15.894,-10.765,6.119,-2.189650,0.449764,2.765832,99746.42,-163,-114,-126
54376,14.961,-10.131,6.476,-2.121008,0.570021,2.996236,99745.59,-163,-114,-126
54386,12.446,-10.926,7.131,-2.063540,0.644517,3.377226,99745.59,-158,-116,-127
54396,8.776,-13.652,7.467,-2.184329,0.432737,4.026401,99746.57,-150,-121,-127
54407,7.649,-16.106,7.610,-2.091210,-0.173336,4.398877,99745.63,-140,-126,-130
54416,7.867,-15.837,6.649,-1.858145,-0.618712,3.977978,99745.99,-140,-126,-130
54426,7.583,-13.124,5.746,-2.102916,-0.405336,3.492694,99744.65,-132,-130,-132
54436,5.512,-8.998,5.496,-2.343430,0.051746,3.100529,99744.65,-123,-130,-135
54447,2.619,-5.077,3.828,-1.984787,0.293324,2.639722,99746.58,-117,-130,-136
54456,4.130,-4.329,4.272,-1.411173,0.426884,2.220420,99745.33,-117,-130,-136
54466,16.623,-11.417,6.944,-1.191944,0.959526,1.033283,99746.42,-116,-129,-135
54476,-10.472,3.469,-2.980,-1.353173,0.635471,0.682622,99742.56,-115,-126,-135
54487,-7.859,1.510,-2.054,-1.105210,0.971764,0.990714,99742.56,-114,-123,-134
54497,3.749,-5.651,3.803,-0.614073,1.007948,0.237779,99747.75,-119,-120,-129
54506,7.665,-3.256,4.229,-0.496477,0.559911,-0.875395,99745.09,-119,-120,-129
54516,7.574,1.112,2.408,-0.512440,0.490205,-1.398459,99747.59,-122,-113,-130
54526,6.609,2.205,2.041,-0.088881,0.399746,-1.555431,99745.41,-126,-108,-127
54536,4.722,1.713,1.677,0.434715,0.022480,-1.671431,99745.41,-130,-103,-124
54546,2.606,0.948,1.196,0.900844,-0.357446,-1.759761,99746.08,-130,-103,-124
54556,1.355,-0.327,1.049,1.329724,-0.648510,-1.911945,99742.11,-131,-98,-121
54566,1.228,-1.452,1.068,1.689430,-0.831024,-2.174807,99742.63,-133,-95,-117
54577,1.519,-2.073,1.068,1.923027,-0.862950,-2.489816,99742.67,-137,-91,-116
54586,1.861,-2.602,1.256,2.018274,-0.759721,-2.791522,99742.67,-137,-91,-116
54596,2.212,-3.488,1.332,2.055522,-0.601684,-3.078329,99745.31,-137,-84,-112
54606,2.393,-4.254,1.554,2.069889,-0.420235,-3.354494,99743.06,-142,-77,-109
54617,2.327,-4.643,1.608,2.104476,-0.241446,-3.589687,99743.58,-147,-69,-106
54627,2.405,-5.216,1.533,2.169925,-0.066914,-3.774329,99743.64,-147,-69,-106
54636,2.331,-5.997,1.414,2.239632,0.091655,-3.949393,99743.64,-149,-62,-103
54646,2.658,-6.841,1.394,2.322996,0.237098,-4.122683,99745.29,-153,-52,-99
54657,3.304,-7.794,1.283,2.388623,0.329508,-4.258016,99743.09,-158,-42,-96
54667,3.969,-8.413,1.371,2.424806,0.423691,-4.382530,99741.32,-158,-42,-96
54676,4.645,-9.076,1.604,2.471632,0.482223,-4.460218,99741.52,-160,-33,-93
54686,5.180,-9.726,1.982,2.523778,0.473177,-4.523539,99741.52,-163,-22,-91
54696,5.601,-10.318,2.340,2.535485,0.466792,-4.561851,99747.30,-166,-12,-89
54707,5.864,-11.211,2.921,2.511008,0.490737,-4.574622,99745.73,-166,-12,-89
54716,5.824,-12.020,3.573,2.475356,0.513618,-4.572493,99742.64,-167,-5,-88
54726,5.647,-12.658,3.920,2.411503,0.558315,-4.556530,99744.42,-169,+3,-85
54736,5.254,-13.000,4.019,2.377448,0.633874,-4.528860,99744.42,-172,+14,-85
54747,5.206,-13.107,3.904,2.375320,0.728590,-4.493209,99746.36,-172,+14,-85
54756,5.419,-13.288,3.641,2.369999,0.863214,-4.437337,99744.48,-172,+20,-83
54766,5.612,-13.713,3.522,2.360953,1.025507,-4.360713,99747.67,-174,+31,-81
54776,5.702,-14.405,3.256,2.318916,1.175030,-4.289943,99741.77,-176,+39,-78
54787,5.763,-14.908,2.835,2.227925,1.291030,-4.218640,99741.77,-176,+39,-78
54797,5.815,-15.403,2.461,2.100219,1.401177,-4.128714,99745.31,-177,+46,-75
54806,5.899,-15.749,1.557,1.926751,1.488443,-3.946732,99747.92,-178,+56,-73
54816,5.836,-16.881,0.785,1.641008,1.642222,-3.575320,99747.34,-181,+64,-68
54827,4.822,-18.009,0.873,1.418054,1.611360,-3.072476,99747.14,-181,+64,-68
54837,3.511,-18.124,-0.145,1.305247,1.251654,-2.558990,99747.14,-182,+68,-67
54846,1.774,-17.632,-1.449,1.289816,0.797764,-2.038587,99749.03,-182,+73,-65
54856,-0.498,-17.026,-2.604,1.236073,0.373673,-1.432514,99750.02,-183,+75,-65
54866,-3.053,-16.486,-3.577,1.125926,-0.058400,-0.664679,99749.55,-183,+75,-65
54877,-2.159,-16.843,-3.812,0.985981,-0.443116,0.137210,99750.23,-183,+71,-65
54882,0.297,-16.942,-3.180,0.895523,-0.699060,0.602806,99750.23,-183,+70,-68
54891,1.799,-18.563,-3.186,0.668312,-0.905519,1.095540,99750.23,-183,+70,-68
54901,4.132,-19.606,-1.445,0.250606,-1.433372,1.937869,99749.88,-183,+65,-71
54912,10.765,-8.475,1.644,0.486330,-2.080950,1.825062,99748.05,-181,+55,-78
54922,26.042,2.218,0.816,1.200954,-2.822179,1.047650,99749.03,-177,+51,-86
54932,25.260,7.399,-5.528,-0.185724,-1.403574,2.075154,99748.25,-177,+51,-86
54941,3.729,-6.701,-7.464,-1.727246,0.171471,3.801850,99750.55,-177,+44,-86
54951,0.013,-17.187,-3.702,-0.842880,-0.574547,3.972657,99750.08,-176,+31,-86
54962,5.834,-13.365,1.414,0.246881,-1.341317,3.513446,99750.08,-172,+22,-90
54972,3.504,-8.991,7.590,0.161211,-0.552198,3.132988,99747.41,-172,+22,-90
54981,1.282,-12.177,15.810,0.377780,0.083141,3.113832,99747.00,-172,+14,-89
54991,2.857,-12.794,9.725,0.615633,-0.903391,3.194180,99747.00,-170,+0,-90
55002,2.684,-9.453,-0.184,0.382037,-1.517445,2.912162,99746.88,-166,-7,-94
55012,0.955,-10.094,1.523,-0.019174,-0.938510,2.531704,99749.95,-166,-7,-94
55022,1.221,-12.106,4.673,-0.361321,-0.266455,2.042163,99746.34,-163,-12,-96
55031,1.708,-10.919,3.290,-0.981229,0.073563,1.389264,99747.81,-161,-18,-96
55042,3.505,-9.621,1.233,-1.456403,0.329508,0.861411,99751.78,-161,-16,-96
55052,5.026,-7.640,-0.266,-1.622953,0.507232,0.492659,99749.75,-161,-16,-96
55062,6.123,-6.604,-0.038,-1.330825,0.620040,0.376659,99749.06,-164,-15,-96
55071,6.969,-6.118,1.057,-0.806697,0.471049,0.426146,99747.14,-163,-16,-95
55081,7.261,-5.721,1.987,-0.382073,0.197544,0.591100,99747.14,-163,-15,-95
55092,7.282,-5.658,2.696,-0.087816,-0.033923,0.803944,99747.14,-163,-15,-95
55102,6.688,-6.322,3.134,0.160679,-0.248896,0.975815,99749.24,-163,-17,-95
55111,5.333,-6.936,3.742,0.193138,-0.327648,1.025833,99747.57,-160,-23,-96
55121,4.332,-8.164,4.034,-0.003743,-0.192492,0.909301,99745.07,-160,-23,-96
55132,3.930,-8.456,4.623,-0.251706,0.000664,0.652824,99747.41,-160,-23,-96
55142,3.766,-8.303,4.466,-0.506055,0.226278,0.353779,99747.41,-160,-25,-96
55152,4.740,-7.387,3.656,-0.732201,0.445508,0.106348,99752.02,-160,-26,-95
55161,5.991,-6.256,3.181,-0.799247,0.563104,0.027595,99748.01,-163,-22,-95
55172,6.728,-5.832,2.730,-0.702935,0.490737,0.144127,99749.57,-162,-22,-95
55182,6.871,-5.955,2.216,-0.511908,0.305563,0.345265,99749.57,-162,-22,-94
55192,6.549,-6.276,2.393,-0.345890,0.152315,0.532568,99752.30,-160,-25,-94
55201,5.984,-6.628,2.886,-0.270330,0.065049,0.672512,99752.30,-162,-23,-94
55212,5.224,-7.117,3.135,-0.275119,0.023545,0.752329,99748.08,-161,-25,-95
55222,4.701,-7.627,3.072,-0.329394,0.045361,0.748072,99750.16,-161,-25,-95
55232,4.563,-7.676,2.960,-0.419321,0.149122,0.702311,99749.22,-160,-29,-94
55237,4.506,-7.557,2.892,-0.491156,0.245966,0.699650,99749.22,-160,-29,-94
55246,4.806,-7.306,2.898,-0.552880,0.317269,0.710292,99748.83,-161,-28,-93
55257,5.299,-7.096,2.965,-0.587999,0.340150,0.725723,99747.16,-161,-30,-94
55267,5.279,-6.923,3.100,-0.539577,0.338021,0.768292,99750.61,-160,-32,-93
55277,5.784,-7.372,3.049,-0.529999,0.323122,0.817778,99744.61,-160,-32,-93
55286,5.778,-7.166,3.069,-0.525210,0.217765,0.876310,99744.61,-161,-31,-93
55297,5.595,-7.538,3.123,-0.502330,0.111343,0.937503,99746.63,-160,-34,-93
55307,5.376,-7.533,2.896,-0.516165,0.067710,1.015191,99748.61,-157,-37,-94
55317,5.226,-7.874,2.926,-0.547559,0.075159,1.073723,99746.47,-157,-37,-94
55326,5.127,-7.831,2.741,-0.565119,0.074095,1.099265,99748.03,-158,-36,-94
55336,5.022,-7.916,2.642,-0.588532,0.095911,1.132255,99748.03,-157,-40,-94
55347,4.817,-8.105,2.276,-0.636421,0.115600,1.187595,99746.43,-154,-42,-95
55357,4.803,-8.223,2.149,-0.639614,0.105489,1.233356,99747.99,-154,-42,-95
55366,4.935,-8.596,2.088,-0.631632,0.075691,1.232824,99746.54,-154,-44,-95
55376,4.835,-8.603,1.969,-0.648660,0.043233,1.206218,99747.68,-153,-47,-95
55387,4.713,-8.322,2.180,-0.664091,0.008645,1.225374,99747.68,-151,-50,-96
55397,5.195,-8.385,2.329,-0.656110,-0.030199,1.249319,99751.03,-151,-50,-96
55407,5.480,-8.456,2.373,-0.703467,-0.106290,1.255173,99749.83,-151,-51,-96
55416,5.635,-8.597,2.747,-0.738587,-0.173336,1.335521,99748.36,-147,-54,-98
55427,5.928,-8.943,3.003,-0.788073,-0.214841,1.432897,99748.00,-146,-56,-99
