40015,7.580,-5.193,2.536,0.007222,0.002326,0.020794,99740.64,-143,+47,-153
40026,7.571,-5.230,2.501,0.007222,0.004987,0.016005,99740.75,-143,+48,-153
40035,7.579,-5.198,2.497,0.008286,0.008179,0.014409,99740.75,-143,+48,-154
40045,7.602,-5.181,2.504,0.010415,0.009244,0.015473,99741.12,-143,+48,-154
40055,7.620,-5.153,2.659,0.013075,0.000730,0.021327,99744.66,-143,+47,-153
40066,7.602,-5.130,2.716,0.018929,-0.011509,0.031969,99742.48,-143,+48,-154
40076,7.573,-5.142,2.627,0.024782,-0.020555,0.042611,99741.74,-142,+48,-154
40085,7.604,-5.183,2.658,0.029571,-0.027472,0.050593,99741.74,-143,+48,-153
40095,7.623,-5.247,2.577,0.025846,-0.030665,0.053785,99745.11,-143,+46,-153
40105,7.602,-5.290,2.549,0.012543,-0.029068,0.048996,99742.50,-143,+47,-153
40116,7.573,-5.253,2.552,0.002965,-0.022151,0.045271,99744.16,-143,+47,-154
40126,7.546,-5.253,2.450,-0.004484,-0.012573,0.042611,99741.70,-142,+46,-154
40135,7.541,-5.276,2.453,0.000837,-0.007252,0.038354,99741.70,-142,+46,-154
40145,7.521,-5.201,2.421,0.000305,0.000730,0.036758,99742.12,-142,+47,-154
40156,7.538,-5.176,2.324,0.004030,0.004987,0.041015,99744.79,-143,+46,-153
40166,7.585,-5.177,2.335,0.012011,0.006583,0.051657,99742.91,-142,+45,-155
40175,7.610,-5.140,2.451,0.027442,0.002326,0.061767,99742.96,-142,+45,-155
40185,7.601,-5.174,2.391,0.041277,-0.002995,0.076666,99742.96,-143,+46,-154
40196,7.586,-5.242,2.605,0.046598,-0.010977,0.086776,99743.73,-142,+46,-153
40206,7.592,-5.192,2.846,0.043938,-0.024811,0.091565,99742.22,-143,+44,-154
40215,7.533,-5.252,2.736,0.044470,-0.035986,0.099547,99742.38,-143,+44,-154
40225,7.578,-5.253,3.105,0.035956,-0.050353,0.103271,99740.08,-143,+45,-154
40236,7.673,-5.169,3.240,0.036488,-0.076958,0.108060,99740.08,-141,+45,-155
40246,7.506,-5.238,2.935,0.038085,-0.095582,0.125088,99744.36,-142,+44,-155
40255,7.527,-5.290,3.038,0.051387,-0.121123,0.130941,99744.00,-142,+44,-155
40265,7.464,-5.424,2.537,0.049791,-0.117931,0.127748,99742.42,-141,+44,-155
40275,7.382,-5.604,2.075,0.035424,-0.097178,0.106996,99741.53,-141,+44,-155
40286,7.395,-5.496,2.129,0.017332,-0.062059,0.075602,99741.53,-141,+43,-155
40296,7.491,-5.345,2.015,0.009351,-0.037582,0.059106,99742.52,-141,+43,-155
40305,7.548,-5.396,1.938,0.012543,-0.029600,0.056446,99742.15,-141,+43,-155
40315,7.538,-5.282,2.136,0.027975,-0.022151,0.055382,99745.18,-141,+43,-156
40326,7.549,-5.302,2.377,0.045002,-0.018958,0.063895,99741.74,-141,+42,-156
40336,7.467,-5.392,2.523,0.064158,-0.022151,0.065492,99741.74,-141,+42,-156
40345,7.398,-5.479,2.486,0.068947,-0.014169,0.055382,99744.42,-141,+42,-155
40355,7.313,-5.495,2.303,0.059369,0.002858,0.038354,99743.78,-141,+41,-156
40366,7.342,-5.544,2.173,0.045534,0.031592,0.016538,99739.61,-140,+41,-155
40376,7.386,-5.456,2.233,0.029039,0.061390,-0.006875,99744.20,-140,+41,-155
40385,7.493,-5.232,2.635,0.034360,0.065647,-0.013261,99744.20,-141,+42,-155
40395,7.560,-5.174,2.586,0.059901,0.047023,0.005363,99742.73,-141,+41,-155
40406,7.386,-5.370,2.544,0.077993,0.035317,0.017602,99743.83,-141,+40,-155
40416,7.380,-5.249,2.558,0.097681,0.024675,0.018134,99741.80,-141,+40,-155
40426,7.401,-5.375,2.357,0.104066,0.022014,0.021859,99740.64,-141,+40,-155
40435,7.374,-5.373,2.457,0.108323,0.020950,0.014941,99740.64,-141,+40,-155
40445,7.488,-5.350,2.451,0.112048,0.026271,0.011749,99744.30,-142,+39,-155
40456,7.437,-5.458,2.578,0.116305,0.028400,0.012281,99744.03,-142,+39,-155
40466,7.385,-5.430,2.640,0.128543,0.017757,0.001638,99744.66,-141,+40,-155
40475,7.432,-5.310,2.659,0.132268,0.015097,-0.004215,99742.72,-141,+40,-155
40481,7.415,-5.319,2.568,0.130140,0.018289,-0.007407,99742.72,-141,+40,-155
40491,7.389,-5.322,2.487,0.125883,0.022014,-0.005279,99742.72,-142,+38,-155
40501,7.371,-5.340,2.452,0.128543,0.027867,-0.002086,99742.30,-141,+39,-155
40511,7.412,-5.435,2.386,0.134397,0.039042,-0.002086,99743.09,-141,+38,-155
40521,7.364,-5.458,2.406,0.137057,0.050748,-0.011664,99742.24,-141,+38,-155
40530,7.438,-5.388,2.555,0.149296,0.058730,-0.023371,99744.27,-142,+38,-154
40541,7.608,-5.234,3.144,0.166855,0.033189,-0.023903,99744.43,-142,+38,-154
40551,7.615,-5.255,3.284,0.183351,-0.010444,-0.015389,99742.85,-142,+37,-155
40560,7.420,-5.553,3.004,0.183883,-0.030665,-0.020178,99742.85,-142,+37,-155
40570,7.343,-5.625,2.957,0.178030,-0.038114,-0.046784,99742.96,-141,+36,-154
40581,7.278,-5.558,2.969,0.163130,-0.036518,-0.078178,99742.49,-142,+37,-154
40591,7.348,-5.436,2.844,0.148763,-0.030132,-0.105316,99742.49,-141,+36,-155
40601,7.378,-5.362,2.803,0.141314,-0.025344,-0.119683,99742.58,-141,+36,-155
40610,7.451,-5.277,2.849,0.153020,-0.033857,-0.128196,99745.70,-141,+36,-154
40621,7.518,-5.256,2.831,0.170580,-0.045032,-0.127132,99742.94,-141,+36,-155
40631,7.494,-5.309,2.772,0.188672,-0.061527,-0.125536,99742.83,-142,+36,-155
40641,7.477,-5.270,2.668,0.192929,-0.070573,-0.125536,99743.35,-142,+36,-155
40651,7.556,-5.207,2.661,0.189736,-0.066316,-0.121811,99743.46,-141,+36,-154
40660,7.586,-5.211,2.588,0.179094,-0.057270,-0.114361,99743.98,-141,+36,-155
40671,7.592,-5.157,2.692,0.178562,-0.057802,-0.104251,99739.91,-141,+35,-155
40681,7.695,-5.041,2.816,0.169516,-0.058334,-0.092545,99739.91,-141,+35,-155
40690,7.698,-5.045,2.951,0.147699,-0.056738,-0.071793,99739.91,-141,+35,-155
40700,7.607,-5.078,3.108,0.125351,-0.067912,-0.049976,99744.39,-141,+36,-155
40711,7.667,-4.986,3.118,0.089699,-0.080683,-0.033481,99742.19,-140,+36,-155
40721,7.676,-4.981,2.979,0.050323,-0.087600,-0.016453,99742.61,-140,+36,-155
40730,7.680,-5.082,3.040,0.031699,-0.098775,0.001638,99742.25,-140,+35,-155
40740,7.762,-5.079,2.992,0.017332,-0.111545,0.014409,99742.25,-140,+35,-156
40751,7.706,-5.078,2.966,-0.000227,-0.116866,0.027180,99744.25,-140,+35,-156
40761,7.621,-5.108,2.936,-0.014062,-0.122720,0.034097,99743.59,-140,+35,-156
40771,7.598,-5.061,2.916,-0.032686,-0.122187,0.032501,99742.00,-140,+34,-156
40780,7.594,-5.116,2.868,-0.057695,-0.120591,0.037290,99742.00,-140,+34,-157
40791,7.683,-5.073,2.887,-0.070998,-0.125380,0.040482,99741.16,-139,+34,-156
40801,7.700,-5.109,2.860,-0.084301,-0.134426,0.050593,99741.16,-138,+34,-156
40811,7.633,-5.127,2.736,-0.090686,-0.146132,0.064427,99743.72,-138,+34,-156
40820,7.674,-5.082,2.783,-0.102924,-0.147197,0.075070,99745.48,-138,+36,-158
40830,7.651,-5.103,2.768,-0.115163,-0.147197,0.087308,99741.27,-138,+35,-158
40841,7.735,-5.176,2.778,-0.138044,-0.142408,0.096354,99741.27,-137,+35,-158
40851,7.620,-5.041,2.724,-0.152411,-0.149857,0.107528,99743.30,-137,+35,-158
40861,7.578,-5.110,2.679,-0.169970,-0.147729,0.122427,99743.72,-137,+35,-158
40870,7.608,-5.242,2.665,-0.183805,-0.146665,0.128281,99743.30,-137,+35,-158
40881,7.524,-5.302,2.641,-0.209879,-0.139215,0.128813,99742.78,-136,+36,-159
40891,7.590,-5.337,2.669,-0.238612,-0.137087,0.131473,99745.55,-136,+36,-159
40901,7.540,-5.277,2.705,-0.267346,-0.146665,0.130941,99744.41,-136,+36,-160
40910,7.615,-5.260,2.693,-0.297145,-0.138683,0.137326,99744.41,-135,+36,-160
40921,7.609,-5.368,2.649,-0.323218,-0.144536,0.145840,99742.67,-135,+37,-160
40931,7.625,-5.410,2.626,-0.351420,-0.154114,0.157015,99741.38,-135,+37,-160
40941,7.716,-5.226,2.595,-0.380686,-0.166885,0.175638,99741.38,-135,+37,-160
40951,7.786,-5.115,2.712,-0.410484,-0.179655,0.199583,99744.80,-134,+38,-161
40961,7.834,-5.131,2.916,-0.473805,-0.181784,0.225125,99743.51,-133,+38,-161
40971,7.975,-5.042,2.902,-0.570649,-0.171142,0.251198,99742.88,-133,+38,-161
40981,8.010,-5.353,2.737,-0.640887,-0.195619,0.288978,99740.90,-132,+39,-162
40991,8.096,-5.493,3.144,-0.678135,-0.255215,0.331546,99740.90,-133,+42,-163
41001,8.416,-5.157,3.303,-0.748374,-0.315343,0.388482,99742.34,-131,+42,-163
41011,8.458,-4.858,3.151,-0.832447,-0.380261,0.478941,99743.23,-131,+42,-163
41021,8.390,-4.730,3.198,-0.914924,-0.429215,0.583767,99740.98,-130,+43,-164
41031,8.406,-4.972,3.177,-1.011236,-0.464334,0.696042,99740.98,-129,+44,-166
41040,8.558,-5.387,3.072,-1.127236,-0.499453,0.816298,99740.98,-127,+45,-166
41051,9.018,-5.350,3.281,-1.263988,-0.527123,0.955711,99747.05,-127,+45,-166
41061,9.460,-5.837,3.616,-1.479492,-0.486683,1.144078,99741.00,-126,+47,-167
41071,10.040,-6.153,3.652,-1.710428,-0.411655,1.372885,99742.52,-125,+48,-169
41080,10.651,-6.188,3.651,-1.898263,-0.310022,1.574023,99742.25,-124,+50,-168
41091,11.392,-7.044,3.257,-2.051510,-0.182316,1.692151,99742.25,-124,+50,-168
41101,12.147,-7.002,2.789,-2.090354,-0.208921,1.773564,99743.50,-124,+53,-169
41111,14.196,-6.493,1.378,-2.053639,-0.279692,1.889032,99742.77,-124,+53,-169
41121,14.585,-5.877,0.574,-1.946685,-0.496261,2.039087,99741.05,-123,+54,-169
41131,13.118,-5.982,2.103,-1.812593,-0.704848,2.224793,99741.05,-123,+54,-169
41141,12.935,-5.374,3.405,-1.562501,-0.851710,2.341325,99744.09,-121,+53,-171
41151,12.963,-5.248,3.344,-1.177254,-1.084242,2.449875,99744.09,-118,+51,-173
41161,11.508,-6.471,3.156,-0.805841,-1.188003,2.568004,99740.06,-115,+47,-174
41170,9.596,-8.715,4.202,-0.645676,-1.024114,2.687196,99741.00,-115,+47,-174
41181,9.084,-6.573,5.230,-0.478062,-0.844260,2.536077,99739.17,-112,+43,-176
41191,8.968,-3.159,3.787,-0.343438,-0.705912,2.203509,99739.17,-111,+37,-178
41201,7.704,-1.970,2.506,-0.288631,-0.568095,1.906059,99741.42,-109,+34,-178
41211,5.864,-1.124,1.884,-0.285438,-0.358444,1.519215,99741.89,-109,+34,-178
41221,4.826,0.148,1.532,-0.328007,-0.080683,1.000408,99739.91,-108,+31,-178
41231,4.778,0.834,0.955,-0.363658,0.190161,0.429455,99739.90,-108,+30,-179
41241,4.896,-0.063,0.331,-0.404099,0.406198,-0.017518,99741.62,-109,+31,-178
41251,5.508,0.174,0.579,-0.337053,0.564766,-0.432563,99739.32,-110,+33,-177
41262,6.380,1.043,0.702,-0.143365,0.632344,-0.884324,99739.48,-110,+33,-177
41271,6.884,0.942,0.669,0.083846,0.638197,-1.202526,99739.48,-112,+34,-176
41281,6.970,-0.116,0.416,0.372782,0.588711,-1.451553,99738.96,-114,+35,-175
41291,6.915,-1.195,0.388,0.650011,0.532308,-1.684617,99738.96,-115,+36,-174
41300,6.878,-2.189,0.445,0.861791,0.514216,-1.906507,99743.61,-115,+36,-174
41307,6.927,-2.769,0.519,1.002800,0.514216,-2.069865,99740.06,-117,+36,-173
41316,6.964,-3.232,0.491,1.135295,0.514748,-2.222580,99738.86,-117,+36,-173
41326,6.999,-3.908,0.365,1.280561,0.517941,-2.413608,99738.55,-118,+38,-172
41336,7.030,-4.700,0.302,1.374212,0.544014,-2.573241,99738.55,-119,+37,-173
41346,7.215,-5.594,0.319,1.406671,0.594564,-2.702543,99740.41,-122,+38,-171
41356,7.623,-6.505,0.360,1.391772,0.657353,-2.802048,99739.63,-122,+38,-171
41366,8.076,-7.167,0.546,1.347075,0.707904,-2.871222,99738.49,-122,+40,-169
41376,8.373,-7.561,0.892,1.283221,0.752601,-2.900488,99739.43,-125,+40,-168
41385,8.588,-8.038,1.316,1.224157,0.784528,-2.889846,99739.43,-127,+42,-166
41396,8.618,-8.539,1.513,1.172543,0.787188,-2.849938,99741.02,-127,+42,-166
41406,8.386,-9.115,1.359,1.136891,0.755794,-2.789277,99740.46,-131,+44,-164
41416,8.060,-9.799,0.933,1.100176,0.736106,-2.708397,99740.93,-133,+44,-164
41426,7.777,-9.978,0.614,1.079423,0.726528,-2.632305,99742.54,-136,+46,-161
41436,7.554,-9.787,0.506,1.047497,0.759518,-2.597186,99742.54,-136,+46,-161
41446,7.655,-9.327,0.529,1.023020,0.784528,-2.555681,99743.41,-140,+48,-161
41456,7.708,-9.073,0.302,0.986836,0.763775,-2.487039,99743.35,-142,+49,-158
41466,7.530,-8.898,0.159,0.944268,0.723867,-2.398709,99743.62,-147,+51,-156
41476,7.293,-8.836,0.123,0.909680,0.673317,-2.298140,99742.10,-147,+51,-156
41486,7.269,-8.754,0.336,0.887864,0.605739,-2.192782,99742.10,-150,+53,-154
41496,7.331,-8.523,0.461,0.866047,0.526986,-2.094342,99744.00,-153,+56,-153
41506,7.367,-8.174,0.779,0.820818,0.459941,-1.992177,99742.02,-157,+58,-151
41516,7.263,-8.031,0.925,0.784102,0.396087,-1.865535,99745.36,-159,+60,-151
41526,6.886,-8.129,0.968,0.780378,0.350858,-1.723994,99741.30,-159,+60,-151
41536,6.313,-8.369,0.894,0.745259,0.326381,-1.571810,99741.30,-161,+62,-150
41546,5.834,-8.541,0.849,0.714928,0.326913,-1.431333,99743.72,-163,+64,-148
41556,5.761,-8.423,0.930,0.692048,0.340216,-1.338746,99744.50,-165,+65,-147
41566,6.223,-7.782,0.926,0.682470,0.327445,-1.277021,99741.38,-165,+65,-147
41576,6.675,-7.008,0.809,0.644158,0.301372,-1.189223,99743.72,-167,+67,-146
41586,6.839,-6.572,0.834,0.592011,0.269445,-1.059388,99743.72,-168,+68,-145
41596,6.807,-6.451,1.021,0.571259,0.216234,-0.913590,99744.73,-170,+69,-145
41606,6.639,-6.507,1.205,0.562213,0.163023,-0.758746,99745.36,-170,+69,-145
41616,6.479,-6.716,1.248,0.525497,0.136950,-0.594857,99742.97,-172,+71,-143
41626,6.456,-7.001,1.138,0.455791,0.134289,-0.432031,99738.78,-173,+70,-144
41636,7.188,-7.032,1.789,0.381828,0.144400,-0.299536,99738.78,-175,+69,-143
41647,7.210,-6.847,0.792,0.320635,0.118326,-0.151609,99745.06,-175,+69,-143
41656,6.073,-7.256,0.734,0.212085,0.022014,0.179363,99745.02,-175,+69,-142
41666,6.210,-7.770,0.376,0.343516,-0.164224,0.485858,99744.34,-175,+67,-142
41676,7.756,-7.311,0.933,0.437699,-0.297252,0.722647,99742.52,-177,+63,-144
41687,10.831,-4.110,2.467,0.464305,-0.350463,0.626867,99742.52,-177,+63,-144
41696,14.897,0.447,3.720,0.431314,-0.294591,0.349106,99745.20,-175,+60,-143
41706,16.393,4.336,2.724,0.121626,-0.096114,0.253858,99742.13,-175,+59,-143
41716,13.133,3.200,2.009,-0.370576,0.196014,0.812574,99742.55,-177,+56,-144
41726,8.787,-2.115,0.473,-0.306190,0.153445,1.287748,99742.95,-177,+56,-144
41736,7.468,-5.695,0.472,0.039681,-0.103032,1.386720,99742.95,-179,+52,-143
41746,8.153,-6.337,1.630,0.184947,-0.254151,1.371289,99745.70,-179,+49,-142
41756,9.511,-5.276,4.168,0.156745,-0.107821,1.398427,99743.97,-179,+44,-143
41766,9.049,-4.635,5.255,0.231240,-0.040243,1.430353,99745.28,-179,+44,-143
41777,8.776,-4.875,4.501,0.469626,-0.249362,1.585729,99743.77,-179,+38,-143
41786,8.612,-5.211,2.461,0.573387,-0.452628,1.726738,99743.77,-179,+32,-143
41796,8.035,-5.575,1.323,0.455259,-0.459013,1.743234,99744.27,-178,+25,-145
41806,7.676,-5.549,1.848,0.267956,-0.377600,1.648518,99743.23,-178,+25,-145
41817,7.501,-5.278,2.973,0.073736,-0.257343,1.487289,99744.32,-178,+20,-145
41826,7.166,-5.337,3.470,-0.100264,-0.136022,1.348940,99742.98,-177,+17,-145
41836,7.160,-5.944,3.607,-0.164649,-0.078022,1.193032,99742.98,-176,+13,-146
41846,7.194,-5.631,2.767,-0.159328,-0.050353,0.998280,99746.83,-176,+13,-146
41857,7.218,-5.199,1.723,-0.175823,0.022546,0.843436,99745.06,-177,+11,-147
41866,7.572,-5.252,1.143,-0.149218,0.053941,0.748721,99743.75,-176,+9,-145
41876,7.679,-5.600,0.544,-0.118356,0.067776,0.661987,99744.11,-177,+7,-146
41886,7.831,-5.583,0.616,-0.135915,0.143867,0.550244,99744.11,-177,+7,-146
41896,8.147,-5.181,1.053,-0.165181,0.244436,0.426794,99746.28,-177,+6,-145
41906,8.350,-4.754,1.382,-0.160392,0.307225,0.365602,99742.16,-177,+5,-144
41916,8.554,-4.391,2.327,-0.101328,0.304032,0.360280,99745.64,-178,+5,-144
41926,8.629,-4.140,3.217,0.020525,0.253482,0.393803,99743.50,-178,+5,-144
41936,8.320,-4.531,3.654,0.070011,0.202399,0.452868,99743.50,-179,+3,-143
41947,8.007,-4.958,3.815,0.082250,0.135354,0.470959,99741.24,-179,+1,-142
41956,7.618,-4.982,3.752,0.047663,0.105555,0.432647,99744.43,-179,+0,-142
41966,7.566,-5.090,3.448,-0.036943,0.120455,0.374115,99745.26,-179,+0,-142
41976,7.713,-4.915,3.302,-0.101328,0.132693,0.315051,99742.13,-179,+0,-142
41987,7.868,-4.764,3.108,-0.126337,0.140675,0.279400,99742.13,-179,+0,-141
41996,7.966,-4.632,2.725,-0.127401,0.135886,0.275143,99744.44,-181,-1,-142
42006,8.130,-4.660,2.596,-0.115695,0.128436,0.286849,99746.00,-181,-2,-142
42012,8.189,-4.703,2.700,-0.106117,0.126840,0.298024,99744.84,-181,-2,-142
42021,8.112,-4.766,2.877,-0.114099,0.129500,0.313987,99744.84,-180,-3,-141
42032,7.997,-4.841,3.136,-0.125805,0.121519,0.327290,99744.22,-180,-3,-141
42042,7.993,-4.733,3.530,-0.157732,0.114069,0.324629,99744.22,-180,-3,-140
42051,7.882,-4.636,3.891,-0.213071,0.115666,0.323565,99745.34,-180,-3,-140
42061,7.548,-4.758,3.746,-0.265218,0.123647,0.340592,99744.01,-180,-4,-140
42072,7.590,-4.773,3.604,-0.286502,0.118858,0.344317,99741.63,-180,-4,-140
42082,7.640,-4.762,3.338,-0.297145,0.120987,0.338996,99741.63,-180,-4,-140
42091,7.621,-4.890,2.901,-0.317365,0.122051,0.359216,99741.63,-181,-5,-140
42101,7.525,-5.086,2.425,-0.298209,0.111409,0.350702,99745.52,-181,-5,-139
42112,7.506,-5.090,2.386,-0.270007,0.110877,0.337400,99746.98,-181,-5,-139
42122,7.483,-5.116,2.272,-0.269475,0.114069,0.340060,99744.06,-181,-5,-139
42131,7.602,-5.232,2.509,-0.246594,0.114069,0.335271,99745.52,-181,-7,-139
42141,7.656,-5.116,2.707,-0.226906,0.103427,0.335803,99745.52,-181,-6,-139
42151,7.707,-5.139,2.838,-0.210943,0.088528,0.345913,99744.27,-181,-6,-139
42162,7.592,-5.351,2.756,-0.214667,0.078418,0.356024,99742.76,-181,-7,-138
42172,7.377,-5.420,2.784,-0.247126,0.075757,0.353895,99742.65,-181,-7,-139
42181,7.567,-5.243,2.819,-0.264154,0.067244,0.365069,99742.65,-181,-8,-139
42191,7.680,-5.153,2.926,-0.293952,0.053409,0.382629,99746.04,-181,-9,-138
42202,7.556,-5.230,2.828,-0.293420,0.034785,0.406042,99742.38,-181,-9,-138
42211,7.428,-5.290,2.685,-0.292888,0.014033,0.458189,99742.38,-181,-9,-139
42221,7.518,-5.321,2.658,-0.342374,0.007115,0.522042,99745.35,-181,-10,-139
42231,7.676,-5.343,2.695,-0.317365,0.002858,0.489583,99745.93,-180,-11,-139
42242,7.394,-5.443,2.718,-0.305658,-0.026940,0.535877,99745.93,-180,-11,-139
42247,7.183,-5.625,2.650,-0.331732,-0.034921,0.594941,99744.72,-181,-11,-139
42256,7.076,-5.639,2.487,-0.393456,-0.038646,0.694445,99744.45,-181,-11,-139
42266,7.809,-5.401,2.780,-0.431236,-0.019490,0.700299,99741.73,-179,-13,-140
42276,7.615,-5.515,2.702,-0.401970,-0.048756,0.676886,99743.36,-179,-14,-140
42287,7.422,-5.565,2.489,-0.401438,-0.070041,0.747124,99743.36,-179,-16,-140
42297,7.790,-5.636,2.578,-0.412080,-0.066316,0.769473,99743.41,-179,-16,-140
42306,7.774,-5.625,2.730,-0.372172,-0.094518,0.735950,99744.30,-177,-17,-141
42316,7.433,-5.490,2.924,-0.367383,-0.139747,0.773730,99741.16,-177,-17,-141
42327,7.027,-5.786,2.537,-0.358869,-0.173802,0.830665,99743.73,-175,-19,-142
42337,6.959,-6.153,2.354,-0.340777,-0.206261,0.844500,99743.73,-175,-19,-142
42346,6.944,-6.446,2.421,-0.356209,-0.192958,0.822152,99743.59,-173,-21,-143
42356,6.661,-6.246,2.240,-0.373236,-0.197747,0.810977,99744.31,-173,-23,-143
42366,6.833,-6.499,2.060,-0.365255,-0.190830,0.809381,99743.95,-172,-24,-144
42377,6.786,-6.882,1.853,-0.388135,-0.183380,0.792354,99744.31,-172,-24,-144
42386,6.797,-6.934,2.027,-0.425383,-0.162628,0.755638,99744.31,-170,-23,-145
42396,6.922,-6.701,1.979,-0.473805,-0.147197,0.747124,99745.30,-170,-26,-145
42406,7.233,-6.846,1.940,-0.499878,-0.148261,0.756702,99747.38,-170,-27,-145
42417,7.267,-7.008,1.873,-0.541915,-0.138151,0.757234,99743.20,-170,-27,-145
42427,7.504,-6.837,1.941,-0.588741,-0.139747,0.777987,99743.63,-168,-27,-147
42436,7.689,-6.596,1.984,-0.626520,-0.172738,0.830665,99743.63,-168,-27,-148
42446,7.647,-6.456,2.304,-0.632374,-0.223288,0.899840,99744.01,-165,-29,-149
42457,7.592,-6.680,2.155,-0.618007,-0.270646,0.963693,99746.04,-164,-29,-150
42467,7.513,-6.950,2.102,-0.599915,-0.311086,1.011583,99747.55,-164,-29,-150
42476,7.504,-7.236,2.069,-0.574906,-0.329178,1.021161,99743.54,-162,-31,-152
42482,7.410,-7.428,2.015,-0.579695,-0.338224,1.033399,99743.54,-162,-31,-152
42491,7.372,-7.414,2.033,-0.589805,-0.362701,1.044574,99743.54,-161,-32,-153
42502,7.434,-7.511,1.941,-0.609493,-0.374940,1.061069,99745.32,-159,-33,-153
42512,7.577,-7.614,1.818,-0.646741,-0.385050,1.094060,99744.23,-156,-33,-156
42522,7.771,-7.544,1.929,-0.696759,-0.408995,1.123326,99743.02,-156,-33,-156
42531,8.278,-7.804,2.322,-0.768062,-0.420169,1.166427,99744.10,-155,-33,-157
42542,8.886,-7.879,2.889,-0.858520,-0.426554,1.237729,99744.05,-152,-34,-158
42552,9.396,-7.679,3.042,-0.936740,-0.418573,1.356390,99743.74,-149,-34,-160
42561,10.067,-7.048,3.064,-0.951640,-0.440921,1.524536,99743.74,-149,-34,-160
42571,11.170,-6.643,3.004,-0.910135,-0.499453,1.702793,99742.38,-147,-35,-161
42582,12.208,-7.148,3.193,-0.904282,-0.560646,1.861362,99742.65,-145,-37,-164
42592,13.154,-8.244,2.671,-0.942594,-0.586719,2.037490,99742.65,-141,-38,-166
42602,13.210,-8.706,3.348,-1.066575,-0.521802,2.201380,99743.23,-141,-38,-166
42611,12.937,-8.396,4.093,-1.174061,-0.401545,2.334408,99744.12,-137,-40,-166
42621,12.186,-8.119,4.860,-1.257603,-0.279160,2.477013,99742.66,-135,-41,-169
42632,11.308,-7.822,4.611,-1.258135,-0.249362,2.639839,99742.29,-132,-42,-170
42642,10.116,-9.280,4.046,-1.259199,-0.282353,2.879820,99742.90,-128,-42,-171
42652,10.457,-10.521,3.592,-1.082006,-0.451031,3.095325,99742.27,-128,-44,-171
42661,11.330,-10.317,3.507,-1.043694,-0.481362,3.006994,99741.02,-124,-47,-173
42672,11.151,-9.275,3.849,-1.253878,-0.370683,2.876095,99741.55,-120,-48,-174
42682,9.912,-8.760,3.862,-1.441712,-0.291398,2.859068,99741.55,-116,-49,-175
42691,8.433,-8.661,3.004,-1.461401,-0.287674,2.792022,99741.55,-116,-49,-175
42701,8.196,-7.970,2.251,-1.295915,-0.313215,2.574921,99743.47,-112,-48,-177
42712,5.791,-5.728,1.569,-1.194281,-0.247765,2.271619,99743.52,-110,-48,-177
42717,3.594,-4.174,1.474,-1.219291,-0.084940,1.984812,99741.59,-110,-48,-177
42727,4.528,-2.678,1.071,-1.152777,-0.056738,1.557527,99738.97,-108,-47,-179
42736,4.563,-0.894,-1.129,-1.202795,-0.080683,0.966886,99738.97,-106,-44,-179
42746,2.201,-2.806,-0.778,-1.245896,0.102363,0.869509,99742.04,-106,-44,-179
42757,3.614,-3.570,2.406,-0.616410,-0.075362,0.656133,99740.27,-107,-41,-180
42767,7.054,-0.689,1.893,0.129075,-0.482958,-0.094141,99739.90,-106,-40,-179
42776,6.437,1.583,-0.077,0.215809,-0.509031,-0.676269,99740.16,-105,-38,-180
42786,4.458,1.348,0.265,0.244011,-0.374940,-0.803444,99740.16,-105,-38,-180
42797,3.340,0.324,0.663,0.519644,-0.380793,-0.958288,99741.43,-106,-37,-179
42807,2.401,-0.491,0.760,0.799534,-0.404738,-1.266911,99742.93,-106,-36,-179
42817,2.085,-1.326,1.043,0.990029,-0.361105,-1.585113,99743.10,-106,-35,-179
42826,2.423,-2.100,1.101,1.048029,-0.236059,-1.882562,99738.29,-106,-35,-179
42836,3.089,-2.763,0.979,0.985240,-0.063123,-2.186929,99738.29,-108,-33,-177
42847,3.716,-3.311,0.703,0.881479,0.121519,-2.529608,99742.04,-111,-30,-176
42857,4.199,-3.904,0.433,0.813369,0.281152,-2.837699,99742.77,-115,-25,-175
42866,4.905,-4.887,0.087,0.805919,0.402473,-3.044690,99738.55,-115,-25,-175
42876,5.112,-4.422,-0.301,0.801130,0.534436,-3.255405,99739.96,-119,-21,-173
42887,5.277,-4.344,-0.415,0.828268,0.656821,-3.454947,99739.96,-124,-15,-171
42897,5.761,-4.762,-0.248,0.925112,0.725463,-3.637460,99740.13,-128,-9,-169
42907,6.358,-5.340,-0.107,1.048029,0.741427,-3.818910,99740.49,-132,-4,-167
42916,6.899,-5.920,0.196,1.174139,0.739298,-3.955130,99741.49,-132,-4,-167
42927,7.515,-6.761,0.760,1.294396,0.710032,-4.047717,99738.09,-136,+2,-164
42937,7.878,-7.535,1.143,1.411460,0.657885,-4.116359,99738.09,-140,+7,-163
42947,8.094,-8.314,1.483,1.493405,0.611592,-4.159460,99741.32,-143,+13,-161
42956,8.208,-9.030,1.665,1.525331,0.587115,-4.166377,99741.41,-143,+13,-161
42967,8.336,-9.805,1.818,1.496065,0.611592,-4.140836,99739.34,-147,+18,-158
42977,8.461,-10.654,2.034,1.428487,0.671188,-4.087093,99739.38,-151,+25,-157
42987,8.569,-11.246,2.200,1.358781,0.738766,-4.042928,99739.38,-156,+32,-154
42996,8.515,-11.190,2.025,1.319405,0.797830,-4.019515,99741.55,-156,+32,-154
43006,8.314,-10.976,1.802,1.299185,0.853170,-3.967368,99741.28,-159,+40,-152
43017,8.001,-10.970,1.459,1.273643,0.909573,-3.875845,99741.95,-163,+48,-150
43027,7.537,-11.249,1.235,1.235332,0.979280,-3.785919,99740.81,-166,+58,-147
43036,7.303,-11.439,1.241,1.184781,1.043133,-3.709827,99740.81,-166,+58,-147
43046,7.274,-11.421,1.028,1.120928,1.101665,-3.653424,99744.63,-170,+68,-145
43057,7.349,-11.192,0.882,1.027277,1.168711,-3.590635,99743.84,-170,+78,-143
43067,7.536,-10.825,0.720,0.921919,1.224050,-3.518268,99743.16,-172,+89,-139
43077,7.761,-10.360,0.536,0.804323,1.265555,-3.419295,99742.85,-172,+89,-139
43086,8.052,-10.016,0.408,0.705882,1.275133,-3.270304,99742.85,-172,+100,-137
43097,8.234,-9.765,0.380,0.647882,1.238949,-3.083534,99747.34,-171,+109,-134
43107,8.145,-9.565,0.514,0.620213,1.158601,-2.876543,99743.21,-170,+118,-132
43117,7.967,-9.459,0.663,0.620213,1.052179,-2.653589,99743.26,-170,+118,-132
43126,7.825,-9.550,0.853,0.630855,0.947353,-2.404030,99742.95,-167,+126,-130
43137,7.430,-9.675,0.945,0.640433,0.848913,-2.123608,99742.95,-165,+132,-130
43147,6.803,-9.689,0.691,0.624470,0.760050,-1.809131,99745.45,-164,+138,-128
43157,6.271,-9.989,0.282,0.572323,0.705243,-1.476030,99747.01,-164,+138,-128
43167,5.886,-10.500,0.063,0.501020,0.641390,-1.132820,99743.62,-162,+140,-129
43176,5.558,-10.801,-0.163,0.409497,0.555720,-0.801315,99744.40,-161,+142,-128
43187,5.197,-10.852,-0.253,0.286048,0.464730,-0.459169,99744.40,-160,+144,-126
43197,4.755,-10.821,-0.323,0.236029,0.304565,-0.089884,99744.53,-160,+144,-126
43207,6.230,-10.309,0.246,0.265828,0.090656,0.265565,99746.52,-159,+143,-127
43216,7.299,-9.594,0.254,0.305736,-0.131765,0.531088,99746.00,-159,+142,-128
43227,7.528,-9.699,-0.847,0.191864,-0.304169,1.144078,99743.91,-160,+138,-128
43237,9.747,-7.296,1.984,0.201442,-0.432940,1.381399,99743.91,-160,+138,-128
43247,17.441,0.693,3.307,0.702158,-0.797967,0.762023,99743.18,-159,+136,-130
43256,20.614,10.311,-2.215,0.325956,-0.571820,0.706152,99743.45,-157,+132,-133
43267,14.431,4.668,-3.253,-0.803713,0.153445,1.827839,99743.96,-160,+130,-131
43277,5.524,-3.748,-4.041,-0.536594,0.021482,2.456793,99745.95,-160,+130,-131
43287,6.466,-8.551,0.081,-0.034282,-0.309490,2.458389,99745.95,-162,+123,-132
43297,10.137,-9.461,9.360,0.406305,-0.347270,2.509472,99742.91,-164,+116,-133
43307,9.428,-9.443,13.882,0.792616,-0.209453,2.444554,99740.66,-165,+108,-133
43317,8.655,-9.261,10.302,1.114543,-0.568628,2.597270,99741.76,-165,+108,-133
43327,8.461,-5.598,0.986,1.137956,-1.098077,2.580774,99744.23,-164,+97,-136
43337,6.566,-4.270,-0.694,0.802726,-0.913967,2.415288,99744.23,-163,+87,-140
43346,5.204,-8.211,4.281,0.517516,-0.533508,2.235967,99744.76,-163,+79,-141
43357,5.824,-10.624,4.909,0.223259,-0.470719,1.842206,99741.32,-161,+79,-141
43367,6.192,-8.436,2.589,-0.416337,-0.295655,1.246775,99744.24,-161,+75,-142
43377,7.392,-6.262,1.255,-0.920245,-0.079087,0.828537,99742.35,-162,+75,-141
43386,8.026,-4.612,0.169,-0.972924,0.047023,0.628996,99742.35,-162,+75,-141
43397,8.335,-4.357,0.286,-0.693566,0.106088,0.585895,99745.64,-162,+75,-142
43407,8.418,-4.356,0.520,-0.421658,0.084271,0.586427,99745.33,-162,+75,-142
43417,8.511,-4.138,1.129,-0.157200,0.052877,0.612500,99742.50,-163,+73,-140
43427,8.481,-4.070,1.721,0.062030,0.025739,0.652409,99741.41,-163,+72,-140
43437,8.301,-4.191,2.128,0.238690,-0.007784,0.682739,99741.41,-163,+69,-140
43447,8.054,-4.526,2.728,0.319571,-0.018426,0.688060,99744.87,-163,+69,-140
43457,7.884,-5.004,3.924,0.285516,-0.024279,0.633785,99744.13,-163,+66,-140
43467,7.579,-5.371,4.922,0.123222,-0.045032,0.528427,99745.91,-163,+64,-141
43476,7.426,-5.085,4.748,-0.111438,-0.049288,0.393271,99741.48,-163,+64,-140
43487,7.643,-4.955,4.310,-0.353016,-0.009380,0.294831,99741.48,-163,+64,-140
43497,7.959,-4.648,3.587,-0.518502,0.040106,0.229914,99745.51,-163,+64,-141
43507,8.088,-4.137,2.856,-0.529144,0.060326,0.219803,99744.32,-163,+64,-140
43516,8.363,-4.478,1.778,-0.430704,0.057134,0.269290,99741.02,-164,+66,-140
43527,7.972,-4.312,1.803,-0.354612,0.066179,0.301748,99744.84,-164,+66,-140
43537,8.305,-4.108,1.862,-0.263089,0.048088,0.357088,99744.84,-165,+66,-139
43547,8.232,-4.375,2.227,-0.167310,0.026271,0.432115,99745.51,-165,+64,-140
43557,7.931,-4.414,2.607,-0.149218,0.040106,0.465106,99743.74,-165,+64,-140
43567,7.843,-4.547,2.956,-0.156668,0.051812,0.488519,99743.32,-165,+64,-140
43577,7.704,-4.875,3.362,-0.197108,0.062455,0.501289,99743.43,-165,+62,-139
43587,7.681,-5.040,3.552,-0.300869,0.112473,0.467767,99743.43,-166,+62,-138
43597,7.720,-4.751,3.180,-0.392924,0.133225,0.449675,99744.50,-165,+62,-138
43607,7.808,-5.362,2.694,-0.445071,0.140143,0.459785,99742.41,-165,+62,-138
43617,7.517,-4.688,2.953,-0.502007,0.177390,0.439565,99745.91,-166,+61,-137
43627,8.015,-4.515,2.444,-0.472741,0.132693,0.494372,99739.38,-166,+62,-137
43637,7.929,-4.976,2.323,-0.441346,0.088528,0.563546,99739.38,-167,+61,-137
43648,7.826,-5.098,2.452,-0.446135,0.083739,0.591216,99742.97,-167,+61,-137
43657,7.901,-5.003,2.748,-0.478062,0.094913,0.619418,99744.84,-167,+60,-137
43667,7.784,-5.140,2.863,-0.516906,0.089060,0.655069,99742.23,-167,+59,-137
43677,7.662,-5.618,2.779,-0.539254,0.083207,0.697638,99743.91,-168,+58,-136
43686,7.480,-5.450,2.741,-0.596190,0.101299,0.755638,99743.91,-168,+58,-136
43697,7.683,-5.276,2.734,-0.639291,0.103959,0.805124,99745.41,-168,+58,-136
43707,7.717,-5.327,2.625,-0.647273,0.095445,0.847161,99745.88,-168,+56,-135
43717,7.632,-5.592,2.434,-0.657915,0.083207,0.881216,99745.41,-169,+56,-136
43727,7.408,-5.559,2.415,-0.678667,0.062455,0.921124,99742.75,-169,+56,-136
43737,7.803,-5.412,2.595,-0.658447,0.019886,0.974867,99742.75,-170,+55,-135
43747,7.878,-5.521,2.571,-0.588741,-0.028004,0.978060,99744.83,-168,+53,-135
43757,7.649,-5.867,2.821,-0.534998,-0.079619,0.996152,99749.00,-168,+52,-135
43767,7.165,-5.930,2.756,-0.525420,-0.106756,1.021161,99744.45,-168,+52,-135
43778,7.099,-6.155,2.658,-0.530741,-0.135313,1.060005,99742.53,-168,+50,-136
43787,7.057,-6.184,2.540,-0.546704,-0.155178,1.078629,99742.53,-168,+48,-135
43797,7.104,-6.343,2.464,-0.570649,-0.154114,1.080757,99745.86,-168,+46,-136
43807,7.002,-6.190,2.347,-0.607365,-0.164224,1.128647,99744.91,-168,+46,-136
43817,7.331,-6.140,2.384,-0.601511,-0.190830,1.181326,99742.98,-167,+44,-136
43827,7.529,-6.676,2.033,-0.612153,-0.198279,1.225491,99744.03,-167,+41,-137
43837,7.559,-6.834,2.036,-0.653658,-0.177527,1.264335,99744.03,-165,+40,-137
43847,7.938,-6.626,2.070,-0.679199,-0.194554,1.335638,99748.52,-165,+38,-137
43857,8.475,-6.612,1.860,-0.672814,-0.233398,1.403216,99746.59,-165,+38,-137
43867,8.580,-7.004,1.501,-0.654722,-0.301508,1.451105,99744.24,-165,+36,-138
43877,8.460,-7.689,1.080,-0.625456,-0.359508,1.492610,99743.71,-163,+33,-139
43887,8.335,-8.145,1.046,-0.648337,-0.385582,1.517619,99743.71,-162,+30,-140
43897,8.027,-8.413,1.338,-0.702080,-0.389307,1.520280,99746.29,-162,+30,-140
43907,7.905,-8.119,1.693,-0.753695,-0.381325,1.514426,99746.18,-159,+28,-141
43917,8.022,-8.350,1.902,-0.821805,-0.379729,1.481436,99743.26,-158,+25,-143
43927,8.851,-8.677,2.482,-0.906410,-0.384518,1.485160,99742.52,-156,+23,-143
43937,9.800,-8.897,3.130,-1.055401,-0.357912,1.510170,99742.52,-156,+23,-143
43948,10.726,-8.837,3.606,-1.242171,-0.301508,1.629362,99744.53,-154,+22,-144
43957,11.812,-7.942,3.929,-1.412979,-0.251490,1.844867,99741.81,-152,+20,-145
43967,13.056,-6.567,3.931,-1.477364,-0.256811,2.133802,99741.09,-150,+17,-145
43977,15.770,-6.219,3.524,-1.439052,-0.272242,2.294499,99743.70,-150,+17,-145
43987,17.283,-8.207,3.734,-1.452887,-0.213178,2.343986,99743.70,-148,+16,-147
43997,16.624,-8.186,3.442,-1.526318,-0.193490,2.532885,99744.34,-145,+13,-148
44007,14.734,-7.487,3.473,-1.681162,-0.008316,2.660059,99741.63,-143,+11,-148
44013,13.365,-6.482,3.160,-1.867400,0.217299,2.697839,99740.69,-143,+11,-148
44022,11.528,-6.555,3.795,-2.086630,0.464730,2.794683,99740.69,-141,+9,-148
44033,9.603,-8.588,4.518,-2.155272,0.435996,3.140554,99740.38,-141,+9,-148
44042,9.329,-10.764,4.338,-1.798226,-0.049821,3.489086,99740.38,-140,+6,-147
44052,10.216,-11.134,3.476,-1.296447,-0.397820,3.249104,99743.04,-135,+1,-148
44062,10.566,-10.227,4.195,-1.163951,-0.479233,2.880352,99742.23,-131,-1,-150
44072,9.117,-8.790,3.689,-1.426813,-0.524995,2.743600,99741.01,-126,-4,-153
44083,6.294,-6.523,2.443,-1.464593,-0.411123,2.491380,99741.01,-126,-4,-153
44092,4.091,-3.898,2.900,-1.187364,-0.258940,2.107729,99741.01,-122,-5,-152
44102,5.612,-2.598,2.615,-0.953768,-0.186041,1.655436,99744.25,-119,-6,-154
44112,6.574,-2.954,1.056,-0.977181,0.001794,0.924317,99741.86,-117,-5,-155
44123,-2.706,-2.353,-1.445,-1.051144,-0.126976,1.131840,99741.95,-117,-5,-155
44132,1.476,-3.903,2.732,-0.466355,-0.151986,1.002005,99740.28,-115,-5,-155
44142,5.833,-2.442,2.725,0.209956,-0.474976,0.045804,99740.28,-112,-5,-156
44152,5.749,0.148,0.567,0.205699,-0.505306,-0.700214,99743.54,-110,-4,-157
44163,4.701,0.991,0.554,0.015204,-0.262664,-0.897095,99742.76,-110,-4,-157
44173,3.760,0.460,0.542,0.138121,-0.200408,-1.063645,99740.70,-109,-3,-156
44182,2.560,0.102,0.611,0.454194,-0.273839,-1.381847,99740.70,-108,+0,-157
44192,1.795,-0.610,0.823,0.784102,-0.325985,-1.655351,99739.91,-107,+1,-158
44203,1.996,-1.407,1.024,1.058139,-0.346206,-1.934709,99740.96,-107,+1,-158
44212,2.532,-1.891,0.913,1.225222,-0.315875,-2.258764,99740.96,-106,+2,-157
44222,3.113,-2.321,0.743,1.245974,-0.194554,-2.591865,99740.90,-105,+5,-156
44232,3.410,-3.152,0.769,1.191167,-0.016830,-2.893571,99737.62,-106,+7,-156
44242,3.941,-3.589,0.669,1.187974,0.144932,-3.113332,99737.62,-106,+7,-156
44248,4.042,-3.434,0.689,1.177332,0.281152,-3.285203,99743.21,-106,+10,-155
44257,4.345,-3.780,0.817,1.207130,0.398216,-3.447497,99740.18,-106,+10,-155
44267,4.577,-3.992,0.976,1.289075,0.517408,-3.666726,99741.18,-108,+16,-154
44277,4.987,-4.327,0.936,1.389643,0.619041,-3.856689,99738.30,-109,+19,-153
44288,5.658,-5.023,0.903,1.469992,0.727592,-4.024304,99738.30,-111,+23,-150
44298,6.395,-5.836,0.859,1.535974,0.821243,-4.161588,99740.07,-111,+23,-150
44307,7.145,-6.492,0.884,1.591313,0.899463,-4.252579,99742.37,-113,+29,-149
44317,7.895,-7.294,1.243,1.626964,0.976619,-4.310047,99737.82,-114,+33,-147
44327,8.490,-7.882,1.703,1.669001,1.013867,-4.340377,99739.13,-115,+38,-145
44338,8.994,-8.055,1.991,1.720616,0.999500,-4.343570,99739.13,-117,+43,-143
44347,9.153,-8.280,2.112,1.737643,0.968105,-4.314303,99742.74,-117,+43,-143
44357,9.171,-8.831,2.155,1.683368,0.960656,-4.269607,99741.71,-116,+47,-140
44367,9.180,-9.707,2.301,1.564175,1.002693,-4.232358,99741.18,-117,+51,-138
44378,9.226,-10.720,2.579,1.416781,1.092619,-4.223845,99739.62,-117,+56,-137
44387,9.271,-11.205,2.679,1.292267,1.178289,-4.273331,99739.62,-117,+56,-137
44397,9.281,-11.006,2.503,1.188506,1.269279,-4.318028,99745.41,-117,+60,-135
44407,9.283,-10.625,2.301,1.092726,1.386876,-4.293551,99743.31,-118,+64,-132
44418,9.236,-10.552,2.181,1.052818,1.474142,-4.207881,99742.38,-120,+69,-129
44427,9.455,-10.909,1.757,1.076763,1.505536,-4.103588,99740.64,-120,+69,-129
44437,9.894,-11.314,1.368,1.096983,1.500747,-4.020579,99740.64,-123,+73,-126
44447,10.240,-11.443,0.894,1.074102,1.474142,-3.943955,99743.37,-125,+78,-122
44457,10.522,-11.615,0.349,1.018763,1.424656,-3.806671,99746.77,-127,+83,-119
44468,10.325,-11.729,-0.004,0.992690,1.305995,-3.577332,99742.70,-127,+83,-119
44477,9.784,-11.718,-0.271,1.006524,1.116564,-3.242103,99744.73,-129,+88,-117
44487,8.897,-11.904,-0.375,1.068249,0.893078,-2.799387,99744.73,-129,+92,-112
44497,7.731,-12.324,-0.505,1.163497,0.640326,-2.289094,99745.84,-129,+93,-112
44508,6.515,-13.016,-0.837,1.269387,0.355115,-1.727718,99744.21,-129,+93,-112
44517,5.422,-13.660,-1.256,1.366231,0.058730,-1.183370,99744.84,-129,+93,-112
44527,3.930,-14.052,-1.960,1.388579,-0.207325,-0.595921,99743.79,-129,+92,-112
44537,2.908,-14.468,-2.406,1.340689,-0.448903,0.083583,99743.79,-129,+87,-113
44548,4.111,-15.462,-2.225,1.241185,-0.631949,0.720519,99745.02,-129,+87,-113
44558,5.873,-16.422,-1.434,0.987368,-0.811802,1.375546,99748.09,-128,+83,-114
44567,6.915,-13.234,-0.089,0.730359,-0.953343,1.820922,99744.59,-127,+76,-116
44577,12.674,-4.162,2.236,0.883075,-1.226847,1.396298,99744.39,-124,+71,-119
44588,20.231,6.112,-1.206,0.464305,-1.020389,1.201014,99744.39,-124,+71,-119
44598,15.995,4.094,-1.552,-1.263988,0.122583,2.130610,99747.26,-124,+68,-119
44607,5.657,-5.642,-1.866,-1.539089,0.381720,2.910150,99746.57,-125,+64,-117
44617,6.213,-10.338,2.498,-0.565860,-0.097178,2.946334,99744.01,-125,+58,-117
44627,9.431,-7.891,4.145,0.196121,-0.551068,2.681343,99739.95,-125,+58,-117
44638,8.408,-6.124,5.406,0.292433,-0.439857,2.499362,99739.95,-125,+51,-117
44647,7.133,-7.372,8.233,0.454194,-0.170077,2.452536,99744.52,-125,+44,-118
44657,7.114,-9.468,6.300,0.768671,-0.433472,2.560554,99744.99,-124,+36,-118
44667,7.151,-9.440,2.099,0.852213,-0.718150,2.519582,99744.52,-124,+36,-118
44678,6.662,-8.759,1.400,0.555827,-0.717086,2.183820,99740.98,-122,+29,-119
44687,5.786,-9.650,3.008,0.072140,-0.430279,1.729399,99740.98,-120,+23,-120
44697,6.067,-9.160,3.765,-0.488704,-0.096646,1.239858,99746.88,-119,+21,-120
44707,7.001,-7.248,2.518,-0.963878,-0.000334,0.779583,99744.89,-119,+21,-120
44718,7.198,-5.163,-0.131,-1.108612,0.066889,0.488164,99745.09,-120,+23,-120
44728,8.096,-4.708,0.482,-0.850007,0.181647,0.414024,99743.80,-119,+24,-121
44737,8.469,-4.409,0.955,-0.623860,0.214106,0.391143,99743.80,-120,+25,-120
44747,8.591,-4.009,1.497,-0.350355,0.179519,0.407106,99747.58,-120,+25,-120
44758,8.681,-3.819,1.827,-0.114099,0.120455,0.473088,99746.16,-121,+23,-120
44768,8.613,-3.821,2.257,0.102470,0.039574,0.564611,99742.34,-120,+23,-119
44777,8.253,-4.299,2.875,0.242947,-0.029600,0.638042,99746.47,-120,+21,-119
44787,7.808,-5.185,3.617,0.232837,-0.063123,0.632721,99746.47,-120,+21,-119
44797,7.416,-5.596,3.898,0.099809,-0.061527,0.523638,99745.42,-120,+19,-119
44808,7.528,-5.466,3.682,-0.126869,-0.004059,0.379968,99747.83,-118,+18,-119
44818,7.588,-5.452,3.369,-0.384943,0.098638,0.269822,99746.31,-119,+17,-120
44827,7.567,-5.325,3.167,-0.570649,0.211977,0.159143,99743.34,-120,+19,-119
44837,8.017,-4.321,2.688,-0.643016,0.268381,0.096354,99743.34,-120,+19,-119
44848,8.466,-3.849,2.258,-0.588209,0.273702,0.152758,99746.33,-120,+20,-119
44858,8.528,-3.658,2.492,-0.444007,0.222088,0.267693,99745.59,-120,+20,-119
44867,8.593,-3.795,2.346,-0.325346,0.156638,0.402849,99743.77,-121,+21,-119
44877,8.289,-4.193,2.781,-0.235420,0.105555,0.530556,99743.50,-121,+21,-119
44888,7.846,-4.690,2.813,-0.224245,0.081078,0.607711,99743.50,-121,+19,-119
44898,7.467,-5.264,2.723,-0.268411,0.099170,0.609308,99747.59,-121,+19,-118
44907,7.291,-5.596,2.614,-0.368979,0.163555,0.569932,99744.40,-122,+18,-118
44917,7.426,-5.401,2.685,-0.474337,0.234326,0.524702,99745.54,-122,+18,-118
44928,7.737,-5.003,2.807,-0.549897,0.274234,0.533748,99742.77,-122,+18,-117
44938,7.882,-4.648,3.009,-0.615346,0.263592,0.636445,99742.77,-122,+18,-117
44948,8.337,-4.385,3.542,-0.620135,0.222088,0.742867,99747.43,-122,+17,-117
44957,8.145,-4.705,3.229,-0.596190,0.125244,0.829601,99746.18,-122,+17,-117
44967,7.892,-5.058,3.108,-0.598319,0.057134,0.944005,99746.38,-122,+17,-117
44978,7.790,-5.215,2.934,-0.596722,0.019354,0.964225,99743.98,-122,+16,-118
44988,7.962,-5.064,3.024,-0.583952,-0.010977,0.998812,99743.98,-122,+14,-117
44997,8.144,-5.158,2.875,-0.586080,-0.033325,1.052555,99746.09,-122,+14,-117
45007,8.044,-5.565,2.515,-0.552557,-0.068444,1.074904,99745.71,-120,+14,-117
45018,7.762,-5.704,2.348,-0.531805,-0.116866,1.136629,99744.35,-120,+11,-119
45028,7.729,-5.699,2.204,-0.546172,-0.144536,1.218041,99744.57,-120,+10,-118
45037,7.734,-5.894,2.234,-0.566392,-0.149325,1.213784,99744.57,-120,+10,-118
45047,7.319,-5.704,2.400,-0.596722,-0.162628,1.226023,99748.37,-118,+9,-119
45058,7.402,-5.787,2.318,-0.595126,-0.196683,1.294665,99745.02,-118,+7,-120
45068,7.614,-6.249,2.476,-0.574374,-0.243509,1.329252,99745.65,-116,+5,-120
45078,7.301,-6.594,2.309,-0.605236,-0.247765,1.321803,99742.88,-116,+5,-120
45087,7.453,-6.748,2.075,-0.610557,-0.280756,1.356922,99742.88,-116,+3,-121
45097,7.676,-7.001,2.206,-0.605768,-0.303105,1.359583,99746.47,-114,+1,-123
45108,7.717,-7.075,1.819,-0.619071,-0.316940,1.380867,99749.03,-113,+0,-122
45118,8.227,-6.899,1.596,-0.619071,-0.330242,1.397362,99743.86,-113,+0,-122
45127,8.594,-6.827,1.509,-0.611621,-0.377600,1.381931,99741.56,-111,-1,-124
45137,8.740,-7.203,1.023,-0.585016,-0.446774,1.438867,99741.56,-110,-3,-125
45148,8.900,-7.214,1.180,-0.584484,-0.520206,1.530390,99746.56,-108,-5,-125
45158,8.835,-7.096,1.675,-0.584484,-0.580866,1.578280,99744.31,-108,-5,-125
45167,8.687,-7.675,1.685,-0.605236,-0.617050,1.631491,99744.38,-105,-7,-128
45177,8.672,-7.963,2.034,-0.681328,-0.608004,1.682573,99743.06,-102,-9,-129
45188,8.818,-8.034,2.341,-0.807970,-0.552132,1.729931,99743.06,-102,-12,-129
45198,9.413,-7.896,2.821,-0.933016,-0.501050,1.778353,99744.61,-102,-12,-129
45208,10.481,-7.610,3.545,-1.018153,-0.476040,1.851784,99745.66,-99,-12,-131
45217,12.068,-6.928,4.104,-1.061254,-0.480297,1.961931,99740.02,-97,-15,-133
45228,13.694,-6.652,4.466,-1.074025,-0.480829,2.108261,99741.75,-94,-18,-134
45238,15.540,-7.748,3.382,-1.091052,-0.502646,2.296096,99741.75,-94,-18,-134
45248,15.833,-8.219,3.095,-1.186832,-0.470187,2.439233,99746.16,-92,-19,-136
45257,15.205,-7.388,2.951,-1.359768,-0.318536,2.533949,99745.84,-89,-23,-137
45267,14.413,-6.111,3.695,-1.516208,-0.105160,2.658463,99741.92,-88,-26,-138
45278,13.549,-5.945,4.071,-1.620501,0.018822,2.881948,99740.36,-88,-26,-138
45288,11.867,-7.757,4.395,-1.633272,-0.040243,3.280499,99740.36,-86,-28,-139
45298,10.057,-10.765,5.388,-1.356043,-0.343013,3.807820,99740.72,-83,-33,-142
45307,10.912,-12.477,4.681,-0.890979,-0.638866,3.775361,99740.41,-78,-39,-142
45318,11.528,-12.261,5.708,-1.075089,-0.479765,3.386389,99741.30,-74,-42,-143
45328,10.838,-11.274,6.238,-1.615180,-0.331307,3.229416,99742.45,-74,-42,-143
45337,7.748,-8.866,4.046,-1.770556,-0.318536,2.875563,99742.45,-71,-46,-147
45347,5.368,-5.817,2.805,-1.426813,-0.171674,2.403050,99743.26,-69,-47,-148
45358,6.902,-3.503,2.936,-1.273034,-0.001931,1.991197,99746.71,-68,-49,-148
45368,10.117,-3.822,3.265,-1.349658,0.306161,1.294133,99744.20,-68,-49,-148
45378,-1.592,-2.854,-1.100,-1.457676,0.261996,1.332445,99742.95,-69,-50,-150
45387,2.623,-3.910,1.965,-1.079346,0.218363,1.142482,99742.95,-69,-50,-150
45398,6.790,-2.249,2.912,-0.475933,0.018822,0.043143,99746.25,-71,-50,-151
45408,6.896,0.818,1.551,-0.434961,0.023078,-0.735866,99740.41,-71,-50,-151
45418,5.884,2.477,1.311,-0.508392,0.175794,-0.871022,99741.39,-74,-49,-150
45427,4.290,1.635,0.903,-0.217328,0.144932,-0.954031,99739.47,-77,-50,-150
45437,2.743,0.435,1.041,0.247204,0.020418,-1.154636,99739.47,-79,-50,-150
45448,2.278,-0.309,0.946,0.716525,-0.122720,-1.440911,99740.23,-79,-50,-150
45458,2.380,-0.583,1.089,0.978855,-0.152518,-1.790507,99742.73,-83,-52,-147
45468,2.611,-1.429,0.945,1.069313,-0.040775,-2.156599,99739.14,-88,-54,-144
45477,3.089,-1.796,1.193,1.193827,0.028400,-2.474800,99738.77,-92,-53,-143
45488,3.485,-2.379,0.823,1.194359,0.164620,-2.794598,99738.77,-92,-53,-143
45498,3.477,-2.965,0.825,1.225754,0.307225,-3.083534,99740.75,-99,-52,-138
45508,4.002,-3.563,0.738,1.337497,0.420564,-3.297442,99740.39,-105,-51,-135
45517,4.173,-3.572,0.758,1.429552,0.534436,-3.545937,99739.30,-114,-46,-132
45528,4.340,-3.900,0.682,1.508304,0.660014,-3.763038,99737.47,-114,-46,-132
45538,4.495,-4.525,0.907,1.577478,0.786656,-3.958854,99737.47,-122,-44,-125
45543,4.657,-5.232,0.938,1.612597,0.873922,-4.086561,99739.25,-132,-39,-121
45553,5.138,-5.631,0.991,1.649845,0.951078,-4.210010,99739.25,-132,-39,-121
45563,5.934,-6.017,1.086,1.678579,1.039408,-4.340377,99738.63,-141,-31,-115
45573,6.832,-6.501,1.329,1.687093,1.107518,-4.425515,99739.52,-151,-23,-109
45583,7.670,-6.969,1.623,1.712634,1.133592,-4.479258,99736.87,-159,-13,-104
45593,8.242,-7.465,1.850,1.730194,1.133059,-4.517037,99738.48,-159,-13,-104
45603,8.647,-7.982,2.050,1.707313,1.142105,-4.543643,99737.34,-168,-1,-99
45613,9.232,-8.690,2.294,1.661552,1.156472,-4.560138,99741.82,-174,+11,-93
45623,9.685,-9.740,2.342,1.596634,1.178289,-4.564927,99741.82,-179,+26,-89
45633,9.957,-11.058,2.638,1.492873,1.234692,-4.549496,99736.60,-179,+26,-89
45643,9.934,-12.340,2.925,1.427423,1.277793,-4.565991,99736.60,-182,+41,-86
45652,9.454,-12.270,2.601,1.361974,1.307059,-4.629313,99743.63,-184,+56,-82
45663,9.228,-11.444,2.141,1.291203,1.381023,-4.636762,99742.95,-184,+73,-80
45673,9.655,-11.105,2.068,1.241185,1.498087,-4.552689,99741.69,-184,+73,-80
45683,10.275,-11.581,2.172,1.242249,1.566729,-4.412744,99737.72,-183,+89,-78
45692,10.500,-12.315,1.945,1.295460,1.544380,-4.254707,99737.72,-182,+104,-75
45703,10.064,-13.058,1.310,1.338561,1.492766,-4.054634,99743.04,-179,+117,-76
45713,9.692,-13.934,0.532,1.324194,1.444876,-3.798157,99741.90,-179,+117,-76
45723,9.372,-14.573,-0.385,1.254488,1.356546,-3.491130,99743.82,-175,+129,-75
45733,8.755,-14.550,-0.981,1.163497,1.203298,-3.072892,99743.82,-173,+138,-76
45743,8.065,-15.036,-1.639,1.120396,0.967041,-2.550892,99743.82,-170,+144,-78
45753,6.475,-15.459,-1.748,1.216708,0.621702,-2.023571,99746.25,-170,+144,-78
45763,4.006,-15.820,-1.996,1.351864,0.217831,-1.445168,99746.94,-166,+148,-80
45773,2.735,-16.094,-2.367,1.447643,-0.155710,-0.802379,99748.66,-165,+148,-84
45778,2.742,-16.059,-2.069,1.445515,-0.352059,-0.341572,99745.69,-165,+148,-84
45788,1.704,-16.053,-2.696,1.375276,-0.550536,0.263436,99745.69,-164,+147,-88
45798,3.525,-17.615,-3.392,1.178396,-0.775618,1.129179,99747.52,-164,+141,-94
45808,9.550,-17.383,-2.561,0.988965,-1.054444,1.821986,99744.48,-165,+133,-98
45818,12.684,-6.376,0.169,0.996946,-1.449801,1.439931,99743.70,-165,+133,-98
45828,21.529,6.594,-2.131,1.216176,-1.519508,1.048298,99743.61,-163,+128,-104
45838,19.911,7.986,-3.248,-0.510521,-0.294591,2.030041,99743.61,-163,+124,-106
45848,4.898,-4.622,-5.069,-1.880171,0.365225,3.135765,99746.73,-168,+118,-104
45858,4.560,-14.084,-0.640,-1.068704,-0.003527,3.308168,99745.57,-168,+118,-104
45868,9.953,-9.922,6.518,0.156213,-0.442518,2.854811,99744.95,-169,+110,-105
45878,8.586,-6.601,5.969,0.396195,-0.434004,2.547784,99741.29,-170,+101,-108
45888,6.078,-8.831,9.345,0.064158,0.098106,2.481270,99741.29,-172,+94,-106
45898,7.861,-11.257,8.075,0.453130,-0.263197,2.524903,99745.49,-172,+94,-106
45907,7.205,-8.529,3.090,0.727167,-0.804352,2.293435,99744.45,-173,+85,-109
45918,5.785,-8.611,1.390,0.287644,-0.603747,2.035894,99746.07,-171,+78,-112
45928,5.818,-10.066,3.272,-0.391328,-0.169545,1.661821,99743.57,-173,+74,-111
45938,6.554,-9.146,2.432,-0.959089,0.055005,1.119601,99743.57,-173,+74,-111
45948,7.244,-5.947,0.610,-1.074025,0.147592,0.666243,99746.64,-172,+73,-111
45958,8.108,-4.199,0.822,-0.896832,0.211977,0.531088,99745.17,-173,+74,-111
45968,8.630,-3.846,1.386,-0.562667,0.144932,0.577913,99743.97,-174,+73,-110
45978,8.721,-3.874,1.829,-0.217328,0.030528,0.666243,99743.19,-174,+73,-110
45988,8.485,-4.296,1.961,-0.107713,0.018822,0.732225,99743.19,-174,+71,-109
45998,8.282,-4.305,2.404,-0.010869,-0.001399,0.741271,99744.26,-175,+69,-109
46008,8.050,-4.550,2.351,0.027975,-0.023747,0.734886,99745.93,-175,+66,-109
46014,7.880,-5.149,2.427,0.015204,-0.014701,0.702427,99743.05,-175,+66,-109
46023,7.644,-5.942,3.239,-0.083236,0.033721,0.619950,99743.05,-174,+65,-110
46033,7.424,-6.347,3.749,-0.271603,0.094381,0.435840,99744.93,-175,+64,-110
46043,7.428,-5.872,3.326,-0.441346,0.157702,0.232574,99744.93,-175,+64,-110
46053,7.724,-5.070,3.088,-0.554686,0.236455,0.097950,99745.23,-176,+65,-109
46063,8.306,-4.099,3.014,-0.545108,0.244436,0.073473,99743.33,-175,+66,-108
46073,8.420,-3.876,2.656,-0.420594,0.173666,0.169785,99744.34,-177,+66,-108
46084,8.351,-4.180,2.683,-0.326411,0.115666,0.295895,99744.34,-177,+66,-108
46093,8.168,-4.327,2.744,-0.275328,0.081611,0.395932,99744.34,-177,+65,-106
46103,7.883,-4.539,3.010,-0.259365,0.063519,0.462978,99745.67,-177,+66,-107
46113,7.576,-4.894,3.016,-0.267878,0.062987,0.483730,99744.27,-177,+63,-106
46124,7.476,-5.126,2.997,-0.316300,0.083739,0.463510,99743.38,-177,+63,-106
46133,7.536,-5.059,3.185,-0.376961,0.117794,0.441161,99743.58,-177,+62,-106
46143,7.627,-5.130,3.295,-0.432832,0.141207,0.443290,99743.58,-178,+63,-106
46153,7.572,-5.192,3.118,-0.462631,0.134289,0.461381,99747.95,-179,+62,-105
46163,7.571,-4.994,3.051,-0.488704,0.131097,0.475216,99744.13,-179,+62,-105
46173,7.646,-4.878,3.020,-0.509988,0.118858,0.505546,99742.60,-179,+61,-104
46183,7.783,-4.841,3.112,-0.492961,0.082675,0.535344,99742.60,-179,+61,-104
46193,7.820,-4.944,3.069,-0.481787,0.054473,0.582170,99745.72,-180,+59,-104
46203,7.809,-5.054,2.889,-0.512649,0.042234,0.636977,99743.69,-180,+59,-104
46213,7.803,-5.080,2.811,-0.502539,0.020950,0.663051,99743.69,-179,+58,-104
46223,7.967,-4.951,2.877,-0.483915,0.002858,0.705620,99745.56,-179,+57,-104
46233,7.955,-4.895,2.787,-0.461566,-0.023747,0.748188,99743.16,-180,+55,-104
46243,7.805,-4.989,2.571,-0.420594,-0.068976,0.819491,99743.16,-180,+55,-104
46254,7.780,-5.071,2.541,-0.391328,-0.108885,0.887069,99745.58,-181,+54,-104
46263,7.865,-5.097,2.589,-0.359933,-0.147197,0.955711,99743.17,-179,+52,-104
46273,7.916,-5.268,2.657,-0.338649,-0.192958,1.037656,99743.59,-180,+48,-105
46283,7.808,-5.478,2.671,-0.322154,-0.249894,1.111087,99742.39,-180,+48,-105
46294,7.525,-5.815,2.560,-0.316300,-0.288206,1.173876,99747.03,-179,+46,-106
46304,7.329,-6.202,2.525,-0.365255,-0.301508,1.216977,99743.22,-178,+42,-107
46313,7.389,-6.233,2.413,-0.418998,-0.277564,1.226023,99743.94,-177,+39,-107
46323,7.521,-6.355,2.194,-0.471676,-0.258408,1.239858,99744.20,-177,+39,-107
46333,7.711,-6.404,2.146,-0.527016,-0.252022,1.268592,99744.20,-178,+36,-109
46343,8.080,-6.093,2.305,-0.567456,-0.267453,1.310628,99744.20,-176,+33,-109
46353,8.573,-5.933,2.443,-0.566392,-0.297252,1.372353,99747.33,-176,+30,-110
46363,8.964,-6.178,2.789,-0.550961,-0.346738,1.440463,99743.00,-176,+30,-110
46373,9.131,-6.360,2.449,-0.511585,-0.410591,1.535711,99743.27,-175,+27,-111
46384,8.841,-6.952,1.756,-0.498282,-0.447839,1.638408,99742.53,-172,+23,-112
46393,8.338,-7.288,1.454,-0.519034,-0.456352,1.698536,99742.53,-173,+19,-112
46403,8.142,-7.239,1.451,-0.569585,-0.447839,1.735784,99744.18,-173,+19,-112
46413,8.114,-7.631,1.766,-0.640887,-0.432940,1.744298,99744.45,-170,+13,-114
46424,8.161,-7.654,2.007,-0.718043,-0.401545,1.757601,99741.57,-168,+10,-115
46433,8.682,-7.608,2.106,-0.802649,-0.368022,1.788995,99741.57,-167,+5,-116
46443,9.821,-7.503,2.704,-0.942594,-0.343013,1.812408,99741.57,-167,+5,-116
46453,11.667,-7.241,3.099,-1.082006,-0.344077,1.889032,99743.67,-165,+2,-117
46464,13.974,-7.458,3.306,-1.186832,-0.359508,2.025252,99744.45,-163,+0,-119
46473,15.499,-8.034,3.008,-1.416703,-0.296187,2.248738,99742.95,-161,-5,-119
46484,15.834,-7.356,1.811,-1.657040,-0.211227,2.489252,99742.97,-158,-9,-121
46493,15.362,-6.017,1.958,-1.754061,-0.115802,2.605252,99742.97,-158,-9,-121
46503,15.314,-4.584,3.364,-1.679566,-0.064188,2.702628,99743.23,-156,-13,-122
46514,15.339,-3.904,4.261,-1.534300,-0.071637,2.804793,99743.50,-154,-19,-122
46523,14.148,-4.849,4.943,-1.398080,-0.199876,3.043178,99743.13,-150,-25,-124
46533,10.894,-9.112,5.854,-1.216630,-0.578206,3.571563,99741.68,-150,-25,-124
46543,9.462,-13.460,3.940,-0.968135,-1.112976,4.215948,99741.01,-143,-34,-128
46554,10.121,-15.597,4.006,-0.820741,-1.075728,3.950425,99741.95,-137,-46,-129
46563,10.619,-15.408,6.010,-1.248025,-0.611196,3.382664,99741.95,-132,-52,-132
46573,10.166,-12.358,6.726,-1.794501,-0.400481,3.093728,99742.68,-132,-52,-132
46583,7.685,-7.993,5.542,-1.694997,-0.403141,2.631857,99741.68,-128,-56,-134
46594,7.035,-4.878,5.010,-1.350190,-0.261068,2.034830,99741.68,-125,-61,-135
46603,6.815,-2.137,4.187,-1.370410,-0.077490,1.517619,99744.80,-124,-64,-137
46613,5.447,-0.442,2.485,-1.674777,0.157170,1.042977,99742.82,-124,-64,-137
46623,1.864,-2.315,2.305,-1.920079,0.423757,0.760427,99740.16,-125,-63,-139
46633,3.086,-1.665,4.752,-1.075621,0.258803,0.354427,99738.27,-126,-65,-139
46644,6.078,0.635,3.075,-0.510521,0.066179,-0.632636,99738.27,-129,-64,-139
46653,5.536,3.991,1.361,-0.657383,0.164088,-1.412709,99742.66,-129,-64,-139
46663,3.911,5.059,0.398,-0.742520,0.350858,-1.406856,99740.63,-134,-60,-140
46673,2.950,2.840,0.353,-0.380686,0.323188,-1.299902,99738.85,-139,-59,-140
46684,2.693,1.235,0.365,0.172708,0.153445,-1.615443,99738.85,-143,-56,-138
46693,2.339,0.122,0.566,0.627662,0.014033,-2.066672,99738.85,-143,-56,-138
46703,2.446,-1.039,0.732,0.963423,-0.062059,-2.396580,99738.90,-149,-54,-137
46713,2.930,-1.717,0.999,1.211919,-0.072701,-2.672745,99739.95,-153,-52,-135
46718,3.204,-2.477,0.560,1.302910,-0.038114,-2.908470,99740.46,-153,-52,-135
46729,3.416,-2.722,0.822,1.527992,-0.053545,-3.104286,99740.26,-161,-48,-133
46738,3.752,-3.177,0.631,1.720084,-0.015233,-3.307020,99740.26,-168,-43,-132
46748,4.068,-3.560,0.658,1.841937,0.080014,-3.477827,99741.67,-175,-39,-130
46758,4.377,-4.598,0.763,1.932927,0.197078,-3.657680,99739.16,-175,-39,-130
46769,4.689,-5.783,0.949,1.956340,0.334895,-3.833809,99737.80,-183,-31,-127
46778,5.175,-6.510,1.114,1.936120,0.474840,-3.967368,99736.45,-191,-23,-124
46788,5.824,-7.089,1.381,1.910047,0.592436,-4.058359,99736.45,-200,-13,-120
46798,6.550,-7.724,1.666,1.871203,0.674913,-4.131790,99741.22,-200,-13,-120
46809,7.377,-8.287,1.955,1.834487,0.710564,-4.178083,99738.50,-207,+0,-117
46818,8.019,-8.784,2.301,1.797772,0.713225,-4.185533,99738.81,-214,+12,-115
46828,8.251,-9.340,2.742,1.740304,0.733445,-4.156799,99739.97,-220,+27,-113
46838,8.390,-10.215,3.135,1.664212,0.758454,-4.139771,99739.97,-220,+27,-113
46849,8.197,-11.201,3.287,1.576946,0.779739,-4.156799,99741.67,-223,+42,-112
46859,7.766,-11.684,3.187,1.453497,0.854766,-4.190854,99741.77,-226,+59,-112
46868,7.585,-11.591,3.062,1.309827,1.011206,-4.233955,99741.45,-227,+77,-111
46878,7.893,-11.178,3.015,1.192231,1.215536,-4.272799,99739.63,-227,+77,-111
46888,8.362,-10.700,2.922,1.121992,1.407096,-4.265882,99739.63,-226,+95,-111
46899,8.749,-10.367,2.737,1.096451,1.554490,-4.208946,99742.97,-223,+112,-109
46908,9.050,-10.266,2.279,1.074634,1.662509,-4.127533,99742.66,-221,+126,-107
46918,9.380,-10.448,1.818,1.012378,1.752435,-4.053570,99741.45,-221,+126,-107
46928,9.868,-10.859,1.424,0.885735,1.829591,-3.983864,99739.89,-217,+140,-105
46939,10.294,-11.467,0.969,0.718121,1.882270,-3.888084,99739.89,-214,+153,-102
46949,10.264,-12.000,0.388,0.534011,1.861518,-3.739093,99745.02,-211,+165,-98
46954,9.750,-12.135,0.021,0.407901,1.793408,-3.570414,99744.55,-211,+165,-98
46963,9.234,-12.695,-0.083,0.304672,1.708802,-3.329901,99744.55,-207,+175,-94
46973,8.573,-13.466,0.011,0.278598,1.567793,-2.989351,99745.13,-205,+184,-90
46984,7.789,-13.846,0.287,0.363204,1.359206,-2.622195,99740.73,-205,+184,-90
46994,6.589,-13.357,0.429,0.531350,1.079316,-2.198635,99740.73,-201,+191,-88
47003,5.446,-12.428,-0.039,0.720249,0.768032,-1.650562,99747.01,-200,+196,-86
47013,4.855,-12.828,-0.835,0.874561,0.459941,-0.955627,99741.90,-200,+196,-86
47024,4.066,-13.788,-2.002,0.957038,0.129500,-0.238875,99745.91,-200,+196,-86
47034,4.075,-14.332,-2.748,0.937882,-0.170609,0.399124,99745.91,-200,+195,-88
47043,4.463,-14.042,-2.354,0.893717,-0.402609,0.887601,99745.91,-202,+191,-91
47053,5.192,-13.889,-2.110,0.818158,-0.690481,1.460683,99747.75,-204,+184,-96
47064,10.385,-13.399,-0.339,0.932561,-1.086902,1.873600,99744.58,-204,+184,-96
47074,12.654,-4.798,2.189,1.400286,-1.597728,1.582004,99745.14,-205,+176,-101
47083,20.073,7.628,-1.339,2.048395,-1.904223,1.033399,99744.00,-204,+169,-110
47093,21.130,12.231,-2.992,0.946928,-1.240150,1.793252,99744.00,-205,+160,-113
47104,11.194,3.752,-2.222,-0.096007,-0.677178,3.234205,99746.10,-205,+160,-113
47114,3.078,-8.052,-3.744,0.399387,-0.912903,3.761526,99744.55,-209,+148,-114
47124,6.546,-12.106,0.423,1.214047,-1.246535,3.528462,99743.34,-211,+133,-120
47133,7.956,-11.539,5.830,1.491809,-1.183214,3.168756,99743.34,-212,+120,-125
47143,5.677,-12.174,10.227,1.223093,-0.539362,2.764884,99745.48,-212,+120,-125
47154,7.078,-12.145,9.197,0.998011,-0.377068,2.654206,99745.48,-214,+107,-125
47164,6.954,-8.361,1.712,0.597864,-0.640994,2.395600,99743.97,-214,+98,-128
47173,5.620,-8.037,0.977,0.031167,-0.495196,2.099747,99745.38,-216,+89,-129
47183,6.041,-10.063,4.217,-0.227438,-0.183380,1.855509,99745.53,-216,+89,-129
47194,6.617,-9.062,3.344,-0.693566,-0.087068,1.430885,99745.53,-216,+85,-128
47204,6.904,-6.826,1.108,-1.150116,-0.086004,1.019564,99744.55,-217,+83,-129
47214,7.131,-5.709,-0.177,-1.276226,0.074161,0.799803,99744.14,-217,+84,-127
47223,8.093,-4.802,0.598,-0.908007,0.133757,0.689124,99743.09,-217,+84,-127
47234,8.573,-4.143,0.600,-0.561071,0.093849,0.683271,99743.80,-218,+82,-126
47244,8.569,-3.869,1.605,-0.320557,0.051280,0.762555,99744.95,-220,+81,-126
47254,8.731,-4.096,1.988,-0.040135,-0.055674,0.861528,99745.32,-219,+77,-127
47263,8.295,-4.497,2.949,0.206231,-0.178591,0.942408,99743.80,-219,+77,-127
47273,7.547,-5.297,3.139,0.220598,-0.211582,0.947730,99743.80,-219,+73,-127
47284,7.026,-6.093,3.145,0.135461,-0.186573,0.851418,99741.20,-218,+71,-128
47294,7.123,-6.091,3.466,0.005626,-0.140811,0.683803,99741.20,-218,+68,-127
47303,7.068,-6.072,3.397,-0.235952,-0.021087,0.528959,99745.00,-218,+68,-127
47313,6.914,-6.369,2.943,-0.491897,0.125244,0.368794,99745.89,-219,+68,-127
47324,7.420,-5.492,2.306,-0.640355,0.261996,0.212354,99744.27,-220,+68,-127
47334,8.120,-4.659,1.748,-0.654722,0.315207,0.180427,99745.31,-221,+68,-125
47344,8.148,-4.278,2.008,-0.547236,0.282748,0.251198,99745.31,-221,+68,-125
47353,8.439,-4.244,2.125,-0.360466,0.188565,0.364537,99746.31,-221,+68,-125
47364,8.319,-4.463,2.611,-0.226374,0.106620,0.501289,99743.80,-222,+67,-124
47374,7.683,-5.078,2.813,-0.191787,0.062455,0.592812,99744.22,-222,+65,-124
47384,7.072,-5.641,3.034,-0.226374,0.077354,0.601858,99744.22,-222,+65,-124
47393,6.818,-5.911,2.979,-0.319493,0.134822,0.555033,99744.22,-223,+64,-123
47404,6.903,-5.971,3.003,-0.425383,0.205060,0.507143,99744.01,-223,+64,-123
47414,7.246,-5.637,2.977,-0.511585,0.256675,0.478409,99743.07,-225,+61,-121
47424,7.504,-5.481,2.657,-0.549897,0.266785,0.502354,99743.54,-224,+61,-120
47433,7.538,-5.405,2.614,-0.569053,0.248693,0.555565,99742.87,-224,+61,-120
47443,7.809,-5.340,2.711,-0.546172,0.226344,0.596537,99742.87,-225,+61,-120
47454,7.752,-5.114,3.011,-0.534998,0.154510,0.657730,99748.00,-225,+58,-119
47464,7.771,-5.271,2.998,-0.540851,0.103959,0.783308,99745.34,-227,+58,-119
47474,7.754,-5.222,2.866,-0.511585,0.069904,0.816298,99743.88,-227,+58,-119
47483,7.761,-5.465,3.087,-0.495089,0.028932,0.835454,99743.88,-227,+56,-118
47494,7.541,-5.290,2.805,-0.521163,0.001794,0.917399,99748.16,-227,+52,-117
47504,7.832,-5.558,2.641,-0.553089,-0.017362,0.999344,99748.16,-227,+50,-118
47514,7.768,-5.750,2.136,-0.574906,-0.043967,1.076500,99744.77,-227,+50,-118
47523,7.914,-5.970,1.952,-0.545640,-0.071105,1.146739,99745.76,-227,+48,-118
47534,7.820,-6.073,2.020,-0.538722,-0.093986,1.200482,99744.71,-227,+44,-118
47544,7.831,-6.402,2.005,-0.519566,-0.136022,1.254225,99744.71,-227,+40,-118
47554,7.910,-6.853,2.110,-0.521163,-0.155178,1.272849,99745.22,-227,+40,-118
47564,7.838,-6.843,2.243,-0.553089,-0.146665,1.286683,99742.67,-225,+36,-119
47574,8.166,-6.701,2.113,-0.578098,-0.171142,1.339894,99742.72,-226,+33,-119
47584,8.679,-6.613,1.841,-0.589805,-0.229142,1.394702,99743.52,-225,+29,-119
47594,8.982,-6.492,1.868,-0.600979,-0.298316,1.468665,99743.74,-225,+29,-119
47604,9.326,-6.779,1.838,-0.582887,-0.368022,1.562848,99743.12,-224,+25,-120
47613,9.457,-7.288,1.669,-0.574374,-0.432407,1.665014,99746.40,-222,+20,-121
47624,9.508,-7.184,1.570,-0.598851,-0.498921,1.750683,99746.40,-220,+15,-123
47634,9.684,-7.327,1.973,-0.619071,-0.573949,1.809215,99743.48,-220,+15,-123
47643,9.893,-7.706,2.324,-0.666961,-0.613325,1.882646,99743.48,-219,+11,-124
47653,9.748,-8.155,2.406,-0.786686,-0.590976,1.961931,99745.23,-217,+5,-126
47664,9.976,-7.936,2.805,-0.919713,-0.529784,2.048665,99745.08,-214,+0,-128
47674,10.583,-7.442,3.278,-1.023474,-0.465398,2.126353,99742.05,-214,+0,-128
47684,11.916,-6.518,4.068,-1.075089,-0.445710,2.185949,99741.95,-211,-5,-130
47693,13.559,-6.412,4.480,-1.056465,-0.414848,2.229050,99741.95,-208,-10,-130
47704,15.144,-7.667,4.147,-1.060722,-0.367490,2.351967,99745.14,-205,-15,-132
47714,16.451,-7.187,4.453,-1.245364,-0.230206,2.592481,99741.91,-205,-15,-132
47724,16.579,-6.358,5.269,-1.607731,0.024143,2.846297,99741.91,-202,-21,-132
47734,15.967,-5.966,6.175,-1.905180,0.272106,3.075636,99741.91,-200,-27,-132
47744,14.676,-6.974,5.722,-2.104189,0.357776,3.432150,99741.91,-196,-33,-132
47754,12.437,-9.487,6.084,-2.139841,0.251886,3.978095,99746.02,-196,-33,-132
47764,12.333,-12.270,6.129,-1.843988,0.006051,4.344718,99743.57,-192,-40,-132
47774,12.745,-13.650,5.924,-1.577401,-0.062059,4.051526,99742.21,-186,-52,-133
47779,12.611,-12.614,5.994,-1.724795,-0.013637,3.630095,99743.68,-186,-52,-133
47789,11.475,-10.569,5.999,-2.123877,0.130033,3.276242,99743.68,-182,-56,-133
47799,8.716,-7.561,4.954,-2.395253,0.354051,2.844701,99744.22,-178,-60,-137
47809,5.295,-5.074,3.634,-2.026501,0.519537,2.317912,99741.03,-175,-62,-137
47819,10.834,-4.165,4.600,-1.633272,0.523794,1.840610,99743.48,-175,-62,-137
47828,6.305,-3.196,1.741,-1.608795,0.782931,0.828537,99738.11,-174,-61,-137
47839,-5.365,-2.962,-1.934,-1.641786,0.810069,1.153124,99738.11,-174,-60,-137
47849,1.988,-4.661,4.930,-1.044759,0.787720,1.014243,99743.16,-173,-60,-137
47859,7.849,-2.470,3.366,-0.160392,0.236987,-0.160655,99740.55,-173,-60,-137
47868,7.176,2.283,0.980,-0.120484,0.133757,-1.135480,99742.90,-174,-57,-136
47879,5.858,4.498,-0.010,-0.358337,0.439720,-1.310012,99738.93,-175,-52,-137
47889,4.357,3.523,-0.148,-0.144429,0.529647,-1.421223,99738.93,-177,-48,-135
47899,2.682,2.600,-0.107,0.419607,0.358840,-1.763370,99742.60,-177,-48,-135
47908,1.649,1.553,-0.020,1.002268,0.163023,-2.063480,99739.15,-179,-41,-135
47919,1.788,0.272,0.266,1.448176,0.039042,-2.330066,99741.04,-181,-37,-133
47929,2.430,-0.705,0.517,1.721148,0.008712,-2.645608,99739.73,-182,-33,-133
47939,2.972,-1.350,0.629,1.822781,0.083207,-2.971791,99739.73,-182,-33,-133
47949,3.235,-1.784,0.748,1.840340,0.210913,-3.271369,99738.86,-184,-25,-133
47959,3.708,-1.948,0.780,1.887698,0.302968,-3.532634,99738.44,-186,-17,-131
47969,4.239,-2.426,0.714,1.935056,0.396620,-3.788579,99738.44,-187,-9,-129
47979,4.647,-3.525,0.782,1.956340,0.514748,-3.987588,99735.88,-187,-9,-129
47988,5.132,-4.305,0.756,1.966450,0.625427,-4.172230,99735.88,-190,+0,-128
47998,5.372,-5.013,0.886,1.914836,0.769628,-4.387203,99740.82,-191,+10,-127
48009,6.027,-5.622,0.907,1.874395,0.917555,-4.569716,99742.27,-191,+21,-124
48015,6.762,-5.984,0.866,1.877588,1.004821,-4.675074,99738.26,-191,+21,-124
48024,7.677,-6.504,0.955,1.899937,1.076656,-4.742120,99738.26,-193,+33,-123
48034,8.655,-7.205,1.066,1.903129,1.152215,-4.810230,99738.21,-193,+44,-120
48044,9.382,-7.398,1.289,1.881313,1.179353,-4.846413,99738.21,-193,+44,-120
48054,10.068,-7.974,1.618,1.821717,1.194784,-4.844285,99740.25,-191,+54,-117
48064,10.797,-9.139,2.566,1.727533,1.233628,-4.837900,99739.66,-189,+66,-115
48074,11.018,-10.756,3.314,1.626964,1.242674,-4.866633,99738.45,-188,+76,-112
48083,10.455,-11.660,3.605,1.516818,1.249059,-4.919312,99738.45,-188,+76,-112
48094,9.989,-11.638,3.186,1.440194,1.295885,-5.005514,99738.45,-185,+87,-109
48104,9.855,-11.214,2.737,1.388579,1.396986,-5.047019,99740.72,-182,+99,-108
48114,10.103,-11.098,2.310,1.408267,1.501279,-4.999129,99742.17,-179,+108,-105
48123,10.571,-11.791,1.879,1.467864,1.578967,-4.880468,99741.91,-179,+108,-105
48134,11.105,-13.010,1.258,1.487020,1.627921,-4.729881,99741.70,-177,+118,-102
48144,11.715,-14.528,0.506,1.421038,1.634839,-4.534597,99741.70,-175,+126,-100
48154,11.742,-15.871,-0.025,1.255020,1.597059,-4.230762,99744.04,-176,+134,-97
48164,11.005,-16.449,-0.320,1.056543,1.440087,-3.763570,99743.84,-176,+134,-97
48174,10.687,-17.314,0.190,0.964488,1.187867,-3.269772,99743.41,-176,+140,-96
48184,7.932,-17.651,0.163,1.118268,0.801023,-2.794066,99743.41,-176,+147,-95
48194,5.251,-17.387,-0.752,1.263001,0.411519,-2.159259,99748.57,-176,+151,-96
48204,3.374,-17.273,-2.287,1.343882,0.101831,-1.422287,99745.32,-176,+151,-96
48214,1.758,-17.466,-3.618,1.348139,-0.175931,-0.568783,99745.32,-176,+151,-98
48224,1.546,-17.273,-3.617,1.281093,-0.438261,0.337400,99745.23,-178,+149,-102
48234,4.111,-18.762,-3.106,1.147001,-0.663875,1.157381,99744.13,-179,+142,-105
48244,8.244,-18.189,-1.132,0.909680,-0.930462,1.982683,99744.13,-179,+142,-105
48254,11.740,-9.474,2.746,0.781442,-1.141710,1.885839,99749.27,-181,+134,-109
48264,21.037,3.274,2.295,1.141148,-1.502480,1.030739,99747.34,-179,+129,-114
48274,20.850,12.677,-4.444,-0.230631,-0.569692,1.762922,99745.77,-182,+123,-115
48284,6.174,-0.856,-5.502,-1.824832,0.364693,3.342223,99742.70,-182,+123,-115
48294,2.939,-13.314,-1.541,-0.912263,0.031592,3.631159,99746.09,-186,+116,-113
48304,10.538,-11.121,9.530,0.415350,-0.530316,3.283691,99742.59,-189,+105,-114
48314,8.241,-9.542,12.148,1.062928,-0.620774,2.878756,99742.37,-190,+92,-116
48324,6.033,-12.332,9.604,1.150726,-0.536701,2.959636,99740.45,-190,+92,-116
48334,7.395,-10.278,1.382,1.095919,-0.956536,2.962829,99740.45,-191,+81,-117
48344,6.820,-7.192,-1.038,0.831460,-0.892150,2.672297,99740.45,-190,+71,-122
48354,4.642,-8.671,3.115,0.344048,-0.414316,2.285986,99747.14,-191,+61,-122
48364,5.581,-11.207,3.563,-0.136447,-0.220096,1.858701,99743.48,-191,+56,-122
48374,6.260,-10.033,2.213,-0.785089,-0.077490,1.205803,99743.23,-191,+56,-122
48385,7.184,-6.941,1.564,-1.404465,0.166216,0.595473,99741.30,-191,+57,-124
48394,7.233,-5.255,0.275,-1.514612,0.370014,0.245345,99741.30,-192,+58,-122
48404,8.576,-3.564,0.806,-1.118722,0.420564,0.166592,99745.53,-193,+60,-120
48414,9.067,-3.314,1.547,-0.634502,0.349262,0.287381,99745.98,-193,+60,-120
48424,9.090,-3.316,2.487,-0.218924,0.234858,0.433712,99741.05,-195,+61,-119
48434,8.746,-3.777,3.375,-0.033750,0.154510,0.552372,99741.05,-195,+59,-119
48444,8.145,-4.331,3.439,0.014672,0.066711,0.610904,99741.05,-195,+56,-119
48454,7.723,-4.907,3.233,-0.008209,0.019886,0.595473,99743.48,-195,+56,-119
48464,7.449,-5.681,4.256,-0.092814,0.050748,0.493308,99743.84,-195,+55,-118
48474,7.353,-5.999,4.693,-0.296080,0.098638,0.311858,99743.95,-196,+54,-118
48484,7.453,-5.757,3.555,-0.525952,0.159831,0.121895,99743.84,-195,+54,-118
48494,7.852,-4.946,3.080,-0.676007,0.263060,-0.005811,99743.84,-195,+54,-118
48504,8.489,-3.819,3.014,-0.676539,0.289133,0.004831,99744.80,-196,+56,-117
48515,8.720,-3.311,2.820,-0.552557,0.215702,0.128813,99742.76,-197,+57,-116
48524,8.623,-3.637,2.764,-0.406759,0.131097,0.278868,99743.96,-197,+57,-115
48534,8.424,-4.053,3.117,-0.343970,0.086400,0.417216,99743.05,-197,+57,-115
48544,7.973,-4.398,3.336,-0.349291,0.061390,0.531620,99743.00,-197,+56,-114
48555,7.518,-4.761,3.232,-0.379089,0.057666,0.591748,99744.20,-198,+55,-115
48564,7.359,-5.110,3.057,-0.445071,0.090656,0.547583,99744.20,-198,+54,-115
48574,7.528,-5.142,3.302,-0.506796,0.114601,0.521510,99744.00,-198,+54,-115
48584,7.779,-4.885,3.423,-0.570117,0.132693,0.517785,99742.53,-198,+54,-114
48594,7.738,-4.875,3.360,-0.641420,0.149189,0.541198,99742.53,-200,+52,-114
48604,7.777,-4.809,3.196,-0.666961,0.140675,0.592812,99745.43,-199,+52,-113
48614,7.935,-4.700,3.130,-0.678135,0.127372,0.614629,99745.74,-199,+52,-113
48624,7.924,-4.693,2.980,-0.669621,0.094381,0.665179,99743.34,-199,+52,-113
48634,8.095,-4.559,3.036,-0.658979,0.062987,0.706684,99741.30,-200,+50,-112
48645,8.220,-4.392,3.103,-0.630777,0.042234,0.739675,99745.80,-200,+50,-112
48654,8.041,-4.452,2.974,-0.602043,0.014033,0.815766,99743.55,-200,+50,-112
48664,7.914,-4.525,2.862,-0.554686,-0.022151,0.903032,99743.02,-201,+48,-112
48674,7.953,-4.478,2.783,-0.506264,-0.056206,0.992427,99741.57,-201,+44,-112
48685,7.869,-5.167,2.509,-0.458906,-0.111013,1.086610,99741.57,-201,+42,-112
48694,7.813,-5.205,2.594,-0.434429,-0.159967,1.161106,99741.57,-201,+42,-112
48704,7.810,-5.845,2.499,-0.440282,-0.188701,1.236665,99747.02,-200,+39,-113
48714,7.705,-6.120,2.342,-0.506796,-0.192958,1.272849,99746.38,-200,+36,-114
48724,7.803,-5.878,2.548,-0.557878,-0.195087,1.315950,99745.13,-200,+33,-114
48735,7.975,-5.601,2.718,-0.582887,-0.203068,1.355326,99745.66,-200,+33,-114
48744,8.155,-5.587,2.706,-0.583420,-0.250426,1.429289,99745.66,-200,+29,-115
48754,8.336,-5.851,2.621,-0.573309,-0.314279,1.521876,99742.94,-199,+25,-115
48764,8.406,-6.286,2.628,-0.572777,-0.349930,1.554867,99745.36,-198,+21,-117
48775,8.545,-6.641,1.936,-0.565328,-0.404206,1.601160,99741.31,-198,+21,-117
48784,8.628,-7.144,1.448,-0.575438,-0.439857,1.627234,99741.31,-198,+17,-117
48794,8.742,-7.290,1.163,-0.617475,-0.457949,1.634151,99741.31,-196,+12,-119
48804,8.655,-7.226,1.128,-0.709530,-0.446774,1.634151,99742.73,-195,+9,-120
48815,8.798,-7.159,1.325,-0.778172,-0.447307,1.661821,99744.46,-195,+9,-120
48824,9.016,-7.048,1.643,-0.829254,-0.464866,1.702793,99746.34,-193,+5,-120
48834,9.122,-7.031,2.175,-0.868098,-0.477637,1.759729,99743.35,-191,+0,-122
48844,9.454,-6.752,2.926,-0.885126,-0.488279,1.802298,99743.35,-189,-1,-124
48855,10.085,-6.882,3.175,-0.884062,-0.524462,1.894885,99744.09,-188,-6,-125
48865,11.202,-7.514,3.053,-0.995805,-0.553196,2.037490,99745.23,-188,-6,-125
48874,12.487,-7.757,3.070,-1.187364,-0.549472,2.163068,99744.55,-186,-11,-127
48884,14.009,-7.336,3.733,-1.323052,-0.485618,2.271086,99741.58,-184,-15,-129
48894,15.640,-6.926,3.811,-1.441712,-0.415912,2.404646,99744.56,-182,-21,-130
48905,16.662,-6.390,3.806,-1.538557,-0.390903,2.533417,99743.78,-182,-21,-130
48914,17.186,-5.358,4.532,-1.599217,-0.303105,2.699435,99743.78,-179,-25,-132
48924,17.613,-5.238,5.414,-1.653492,-0.278628,2.919196,99740.17,-177,-31,-133
48934,17.102,-5.501,4.602,-1.639657,-0.391435,3.309233,99741.91,-174,-38,-135
48945,14.136,-7.488,6.666,-1.489070,-0.447307,3.927012,99741.91,-174,-38,-135
48955,14.093,-11.270,7.648,-1.182043,-0.739790,4.431098,99743.76,-168,-48,-137
48964,14.257,-13.228,7.279,-1.233658,-0.892150,4.129214,99743.76,-162,-58,-140
48974,12.682,-13.384,7.868,-1.677969,-0.932591,3.711508,99743.70,-156,-65,-144
48985,9.223,-11.526,6.538,-2.098336,-1.122554,3.445985,99742.02,-156,-65,-144
48995,4.981,-7.910,2.037,-1.618905,-1.114572,2.755306,99742.02,-149,-69,-149
49004,6.308,-4.860,2.924,-1.021878,-0.711233,1.986940,99744.65,-145,-73,-151
49014,12.662,-2.338,3.155,-1.028795,-0.468059,1.484628,99744.46,-143,-75,-155
49025,4.078,-1.816,1.162,-1.331034,-0.282353,1.030207,99740.66,-143,-75,-155
49034,-1.886,-3.615,2.254,-0.809034,-0.589380,1.031803,99740.66,-140,-76,-156
49044,3.065,-2.519,5.039,0.374910,-0.758059,0.441161,99740.66,-138,-78,-158
49054,6.315,-1.046,3.378,0.857534,-0.618114,-0.891774,99743.03,-140,-79,-158
49064,6.241,1.348,4.076,0.445681,-0.402077,-1.578195,99741.94,-140,-79,-158
49075,5.556,3.297,3.022,-0.137512,-0.323857,-1.296177,99740.80,-141,-77,-158
49084,2.459,1.635,0.323,-0.260961,-0.176995,-1.017352,99742.41,-142,-73,-160
49094,0.052,-0.650,0.749,0.155681,0.008712,-1.334489,99742.41,-144,-72,-160
49104,0.174,-0.530,1.383,0.549442,0.091721,-1.926195,99740.19,-144,-72,-160
49115,1.338,-0.218,1.224,0.621809,0.235390,-2.412544,99739.77,-149,-69,-160
49125,2.500,-0.260,1.146,0.439828,0.480693,-2.743516,99738.41,-156,-63,-159
49134,3.240,-0.419,1.162,0.338195,0.689812,-3.063846,99738.41,-162,-58,-158
49144,3.865,-0.286,1.174,0.471754,0.802619,-3.402268,99738.87,-162,-58,-158
49155,4.564,-0.482,0.894,0.736213,0.840399,-3.683754,99738.87,-168,-49,-155
49165,5.148,-1.347,1.161,1.068781,0.827628,-3.898726,99736.63,-175,-40,-153
49174,5.604,-3.035,1.156,1.399221,0.786656,-4.056762,99736.73,-182,-34,-151
49184,5.944,-3.602,1.068,1.645056,0.781335,-4.296744,99736.26,-182,-34,-151
49195,6.173,-3.876,1.107,1.793515,0.839867,-4.543643,99736.26,-189,-25,-148
49205,6.665,-4.397,1.283,1.916432,0.918619,-4.712322,99741.16,-197,-15,-145
49215,7.421,-5.304,1.765,2.016469,0.996839,-4.807570,99742.25,-203,-5,-143
49224,8.222,-6.052,2.239,2.081918,1.054307,-4.858652,99738.33,-203,-5,-143
49234,9.206,-6.485,2.532,2.119698,1.105922,-4.881001,99737.16,-209,+5,-140
49245,10.274,-7.272,2.882,2.156946,1.158601,-4.896964,99736.16,-214,+16,-138
49255,10.669,-8.643,3.136,2.160670,1.191059,-4.931551,99737.88,-220,+27,-135
49264,10.283,-10.088,3.347,2.080854,1.246399,-4.987955,99737.88,-220,+27,-135
49274,10.163,-10.998,3.472,1.967515,1.315573,-5.127899,99739.86,-222,+40,-132
49285,10.544,-11.358,3.182,1.847790,1.387408,-5.332762,99740.23,-225,+54,-130
49294,11.133,-11.596,2.965,1.766377,1.469885,-5.483881,99740.23,-229,+68,-127
49304,11.508,-11.948,2.810,1.744029,1.534802,-5.536560,99741.62,-230,+68,-124
49314,11.897,-12.326,2.643,1.751478,1.571518,-5.497183,99742.66,-230,+84,-124
49325,12.621,-13.631,2.407,1.705717,1.588013,-5.331697,99742.13,-232,+101,-122
49335,13.225,-15.502,1.887,1.563643,1.579499,-5.030523,99742.13,-232,+114,-119
49345,13.119,-17.485,1.307,1.332708,1.572050,-4.568652,99742.13,-231,+128,-115
49354,11.975,-19.205,0.768,1.041644,1.559279,-3.902451,99744.78,-231,+128,-115
49364,8.630,-21.147,0.732,0.907552,1.432105,-3.224011,99742.17,-230,+141,-112
49375,5.124,-21.608,0.153,1.051222,1.047390,-2.717974,99744.98,-230,+147,-110
49384,2.424,-20.569,-1.814,1.250763,0.591372,-2.144892,99744.98,-228,+151,-110
49394,0.940,-19.771,-3.794,1.227350,0.246565,-1.278086,99744.98,-228,+151,-110
49404,0.379,-19.459,-4.161,1.061332,-0.028536,-0.308049,99748.08,-228,+153,-111
49415,-0.105,-18.446,-4.563,0.893185,-0.447839,0.835454,99744.80,-229,+147,-112
49425,6.505,-19.069,-2.874,0.772928,-0.782004,1.877325,99744.22,-231,+139,-118
49434,16.508,-13.812,2.018,0.729295,-1.146499,2.046004,99744.59,-231,+139,-118
49444,24.548,2.685,2.074,1.769570,-1.903159,0.579510,99744.59,-230,+131,-125
49455,25.286,19.587,-7.910,0.582965,-0.822444,0.636977,99745.14,-228,+126,-129
49465,7.606,4.239,-5.479,-2.027565,0.426418,3.177269,99748.33,-232,+119,-125
49475,0.683,-15.652,-6.788,-1.152245,-0.088132,4.180296,99745.77,-232,+119,-125
49484,10.963,-13.247,6.430,0.363736,-0.605343,3.857838,99745.77,-236,+104,-126
49495,10.853,-7.736,9.540,1.162433,-0.795838,3.366168,99745.80,-237,+87,-129
49505,5.088,-10.050,14.093,0.711736,-0.130169,3.158113,99745.80,-239,+73,-130
49514,8.022,-12.467,9.553,1.070378,-0.613857,3.468333,99742.03,-239,+73,-130
49524,7.288,-7.537,-0.184,1.305038,-1.452994,3.181526,99743.14,-239,+58,-133
49534,3.880,-7.894,0.673,0.773992,-0.988994,2.720187,99743.23,-236,+44,-136
49545,4.359,-12.105,4.724,-0.001114,-0.285723,2.255123,99745.46,-236,+36,-138
49554,6.022,-12.875,4.278,-0.696759,-0.167417,1.582536,99745.46,-236,+36,-138
49564,6.760,-7.985,0.914,-1.258667,-0.181252,0.767876,99744.99,-235,+34,-138
49574,7.455,-4.972,-0.878,-1.309217,0.028932,0.398060,99743.59,-236,+36,-138
49585,8.412,-3.434,-1.146,-1.083071,0.237519,0.342721,99746.02,-235,+37,-137
49595,9.189,-3.748,1.463,-0.644612,0.256143,0.451271,99746.54,-235,+37,-137
49605,8.912,-3.554,1.957,-0.229034,0.117794,0.535877,99743.51,-236,+37,-137
49614,8.763,-3.531,2.173,0.070543,0.036381,0.634317,99741.79,-236,+34,-136
49625,8.313,-4.233,2.516,0.172176,-0.021619,0.714133,99741.79,-236,+31,-137
49635,7.683,-5.343,3.335,0.237094,-0.068976,0.679546,99744.04,-236,+31,-137
49644,7.571,-5.815,3.835,0.171112,-0.099307,0.515656,99744.04,-236,+28,-137
49654,7.712,-5.356,4.137,-0.025769,-0.080683,0.333675,99746.08,-236,+26,-137
49660,7.762,-5.213,4.479,-0.239145,-0.011509,0.236299,99744.94,-236,+26,-137
49670,7.500,-5.592,4.241,-0.491365,0.093849,0.147437,99746.30,-235,+27,-137
49680,7.446,-5.265,3.394,-0.758484,0.203996,-0.002086,99743.38,-236,+28,-136
49689,8.123,-3.826,2.627,-0.824465,0.241776,-0.085628,99743.38,-237,+30,-135
49699,8.719,-3.084,2.003,-0.723897,0.251886,-0.010600,99746.06,-237,+30,-135
49710,8.876,-3.251,2.175,-0.592465,0.242308,0.172978,99744.97,-237,+32,-135
49720,8.618,-3.481,2.441,-0.533933,0.222088,0.408702,99746.17,-238,+31,-133
49730,8.764,-3.124,3.575,-0.566924,0.217299,0.613033,99741.98,-239,+29,-133
49739,8.410,-3.387,4.038,-0.497218,0.147060,0.703491,99741.98,-239,+29,-133
49750,8.050,-3.978,4.354,-0.463695,0.084271,0.758299,99744.35,-238,+29,-133
49760,7.652,-4.359,4.210,-0.524355,0.090124,0.813638,99744.30,-238,+26,-133
49770,7.588,-4.430,3.879,-0.616410,0.139611,0.841840,99742.99,-237,+25,-132
49779,7.683,-4.289,3.531,-0.670153,0.140143,0.911546,99743.15,-237,+25,-132
49789,8.106,-4.189,3.381,-0.677071,0.138546,0.965289,99743.15,-238,+23,-132
49800,8.208,-4.246,2.748,-0.614282,0.086932,1.045106,99744.71,-239,+20,-132
49810,8.274,-4.794,2.382,-0.562667,0.031592,1.137693,99743.76,-239,+17,-132
49819,7.985,-5.513,1.663,-0.521695,-0.013637,1.172280,99745.18,-239,+17,-132
49829,7.829,-5.815,1.493,-0.527548,-0.021087,1.165895,99742.77,-238,+14,-132
49840,7.829,-6.032,1.649,-0.586080,-0.011509,1.158977,99742.77,-239,+10,-132
49850,8.162,-5.988,1.681,-0.614282,0.006051,1.125454,99746.66,-237,+6,-132
49860,7.810,-5.667,2.160,-0.647273,-0.005655,1.110023,99745.19,-237,+6,-132
49869,7.687,-5.106,2.343,-0.660043,-0.047160,1.223894,99745.39,-237,+4,-132
49880,8.009,-5.091,2.524,-0.653126,-0.078554,1.313821,99743.47,-237,+1,-132
49890,8.035,-5.067,3.066,-0.618007,-0.170077,1.378739,99743.47,-235,-1,-133
49900,8.202,-5.304,3.098,-0.579695,-0.251490,1.497931,99743.58,-235,-1,-133
49909,8.297,-5.930,2.488,-0.569585,-0.307894,1.609674,99745.30,-233,-7,-135
49920,8.318,-6.631,2.020,-0.580759,-0.331839,1.676720,99743.42,-232,-11,-135
49930,8.361,-6.571,1.601,-0.628649,-0.344609,1.724078,99742.73,-229,-16,-137
49940,9.156,-6.583,1.451,-0.656851,-0.366426,1.753876,99742.73,-229,-16,-137
49950,9.710,-6.896,1.297,-0.700484,-0.407398,1.750151,99746.54,-227,-21,-138
49959,9.843,-7.257,0.932,-0.732942,-0.448371,1.783674,99743.30,-224,-25,-141
49970,10.143,-7.391,0.925,-0.752630,-0.486151,1.873600,99743.04,-221,-30,-142
49980,10.310,-7.190,1.422,-0.781897,-0.534573,1.931600,99741.16,-221,-30,-142
49990,10.310,-7.575,1.957,-0.834575,-0.556921,1.991197,99741.16,-219,-34,-145
49999,10.330,-7.841,2.661,-0.956429,-0.530848,2.065692,99744.44,-214,-40,-147
50010,10.734,-7.611,3.619,-1.119254,-0.469123,2.126353,99744.11,-211,-44,-149
50020,12.084,-7.245,4.328,-1.237382,-0.412719,2.207233,99742.55,-211,-44,-149
50030,14.156,-6.588,5.230,-1.291658,-0.408995,2.304077,99740.78,-206,-48,-151
50039,16.859,-6.777,5.663,-1.232061,-0.393563,2.487655,99740.78,-202,-53,-153
50050,19.832,-7.252,6.170,-1.390098,-0.299380,2.709545,99746.58,-197,-58,-155
50060,20.485,-6.582,5.870,-1.796630,-0.253086,3.093728,99741.31,-192,-58,-158
50070,19.173,-5.393,5.819,-2.123345,-0.125912,3.370425,99742.09,-192,-62,-158
50079,16.555,-4.645,5.876,-2.245730,0.057134,3.585930,99739.80,-186,-68,-160
50089,12.994,-5.860,6.095,-2.247327,0.130033,3.905728,99739.80,-181,-73,-161
50100,10.643,-9.063,7.982,-1.978611,-0.195619,4.486259,99741.46,-172,-79,-164
50110,12.887,-12.250,6.466,-1.338483,-0.828829,4.626204,99743.35,-172,-79,-164
50120,13.494,-13.161,5.330,-1.086795,-1.050187,4.047801,99740.05,-161,-90,-166
50129,11.026,-10.651,4.510,-1.522061,-0.927270,3.490682,99740.68,-150,-94,-171
50140,7.153,-7.132,3.313,-1.861547,-0.444114,2.869178,99740.68,-143,-95,-174
50150,4.782,-4.627,4.292,-1.840263,0.113005,2.136995,99746.68,-143,-95,-174
50160,11.813,-2.713,4.242,-1.628483,0.242840,1.558592,99742.40,-140,-95,-175
50169,8.980,-2.477,4.074,-1.584850,0.607867,0.280996,99742.91,-140,-91,-176
50180,-9.185,-0.419,-4.663,-1.172997,0.189097,0.641766,99742.45,-139,-89,-176
50190,-0.356,-2.648,4.316,-0.465291,0.181647,0.704023,99742.45,-139,-89,-176
50200,7.190,-2.401,3.539,0.548378,-0.230738,-0.640086,99742.91,-137,-91,-176
50210,7.147,1.237,2.002,0.416947,-0.252022,-1.778269,99741.55,-140,-88,-174
50220,6.279,5.136,1.392,-0.052374,0.097042,-2.013993,99739.92,-141,-83,-174
50230,3.753,4.296,0.920,-0.020980,0.296051,-1.859149,99739.09,-141,-83,-174
50240,1.695,2.009,1.001,0.544121,0.251354,-1.929920,99739.09,-145,-79,-173
50250,1.140,0.468,0.746,1.143631,0.095268,-2.207504,99738.31,-149,-76,-171
50259,1.779,-0.594,0.837,1.416249,0.075225,-2.485443,99740.14,-153,-75,-169
50270,2.812,-1.433,1.191,1.492341,0.173133,-2.780763,99738.16,-153,-75,-169
50280,3.505,-1.756,1.411,1.472121,0.311482,-3.087791,99736.75,-156,-72,-166
50290,3.881,-1.878,1.256,1.453497,0.438124,-3.396415,99736.75,-163,-67,-162
50299,4.431,-2.169,1.001,1.488084,0.541353,-3.655020,99739.84,-169,-61,-160
50310,4.938,-2.774,0.458,1.541295,0.652564,-3.880634,99738.48,-169,-61,-160
50320,5.107,-3.425,0.337,1.574818,0.786656,-4.082836,99736.96,-175,-53,-155
50330,5.515,-4.246,0.323,1.605148,0.923940,-4.281845,99739.37,-182,-44,-151
50339,6.424,-5.455,0.483,1.655698,1.037812,-4.421257,99739.37,-189,-36,-148
50350,7.621,-6.035,0.597,1.727533,1.104858,-4.521294,99740.41,-189,-36,-148
50360,8.284,-6.231,0.989,1.799368,1.152215,-4.622395,99740.36,-195,-27,-143
50370,8.941,-6.414,1.437,1.893551,1.149023,-4.664964,99739.42,-200,-15,-139
50380,9.721,-6.993,1.879,1.996781,1.078784,-4.681992,99737.64,-205,-6,-135
50390,10.324,-7.870,2.115,2.052120,0.997371,-4.713918,99737.64,-205,-6,-135
50400,10.589,-8.982,2.495,1.999973,0.961720,-4.751698,99742.13,-211,+2,-130
50410,10.317,-10.232,3.028,1.869074,0.973959,-4.797459,99741.51,-214,+13,-128
50420,9.825,-10.967,3.440,1.752010,1.006417,-4.874083,99740.93,-219,+25,-125
50429,9.636,-10.874,3.343,1.657827,1.060693,-4.997532,99738.01,-219,+25,-125
50440,10.049,-10.661,3.004,1.563643,1.162858,-5.080009,99738.01,-223,+36,-122
50450,10.491,-10.765,2.658,1.472653,1.310252,-5.075753,99743.06,-227,+50,-117
50460,10.858,-11.394,2.414,1.379533,1.466160,-5.014028,99741.81,-231,+65,-113
50470,11.264,-12.500,2.043,1.309295,1.574710,-4.946982,99741.55,-231,+65,-113
50480,11.748,-13.867,1.551,1.227350,1.628454,-4.853331,99740.81,-234,+78,-107
50486,12.086,-14.943,0.900,1.142212,1.638032,-4.713386,99740.81,-237,+95,-102
50495,12.262,-15.508,0.384,1.010249,1.612490,-4.436157,99740.81,-237,+95,-102
50505,12.262,-16.489,-0.191,0.789956,1.535866,-3.903515,99747.99,-238,+109,-98
50515,10.504,-17.605,-0.254,0.718653,1.378894,-3.293185,99743.20,-239,+120,-93
50525,7.674,-18.243,-0.479,0.900635,1.014399,-2.715846,99744.82,-238,+130,-91
50535,4.548,-17.791,-0.938,1.220965,0.526986,-2.127865,99744.97,-238,+130,-91
50545,2.588,-17.864,-3.115,1.466799,0.029996,-1.346728,99745.28,-238,+135,-91
50555,2.217,-18.335,-3.925,1.402414,-0.224353,-0.524618,99747.16,-237,+136,-92
50565,1.268,-17.769,-3.514,1.162965,-0.432407,0.370391,99747.16,-239,+133,-95
50575,3.306,-17.813,-3.066,1.033662,-0.755930,1.386720,99744.23,-239,+133,-95
50585,10.286,-16.752,-0.806,0.738873,-0.937912,2.225325,99745.17,-240,+126,-98
50595,16.759,-6.432,4.767,0.832524,-1.224719,1.632555,99745.17,-241,+116,-102
50606,23.838,10.618,-2.426,1.397093,-1.556755,0.647088,99745.48,-239,+112,-109
50615,18.758,15.560,-4.171,-0.650998,-0.197215,1.834756,99744.44,-239,+112,-109
50625,2.776,-4.347,-5.814,-1.748208,0.188033,3.837618,99742.92,-242,+104,-106
50635,7.289,-13.161,0.667,-0.108778,-0.445178,3.947764,99742.98,-245,+89,-105
50646,11.636,-9.340,10.970,1.319405,-0.847453,3.569434,99744.73,-245,+73,-109
50655,7.128,-10.400,13.972,1.527992,-0.538297,3.321471,99740.30,-245,+73,-109
50665,6.249,-15.784,10.886,1.544487,-0.534040,3.526865,99741.61,-246,+57,-110
50675,8.916,-10.154,-0.223,1.827038,-1.308260,3.395967,99743.48,-246,+38,-112
50684,5.153,-6.100,-2.692,1.241185,-1.046462,2.903233,99743.48,-243,+26,-116
50695,3.649,-10.843,4.732,0.420139,-0.252022,2.496701,99743.48,-243,+26,-116
50705,5.939,-13.091,5.590,-0.251915,-0.190830,1.886371,99744.20,-243,+17,-116
50715,6.679,-10.757,1.629,-1.076153,-0.199343,1.081289,99742.22,-242,+12,-117
50720,6.924,-7.294,-0.127,-1.530043,-0.026408,0.580042,99743.63,-242,+12,-117
50729,7.263,-4.815,-0.940,-1.692336,0.209849,0.307602,99742.89,-241,+14,-118
50740,8.861,-3.051,0.259,-1.502373,0.395023,0.237895,99742.89,-242,+16,-117
50750,9.319,-2.910,1.345,-1.046887,0.345537,0.363473,99744.17,-243,+17,-117
50760,9.244,-2.993,2.084,-0.469548,0.181115,0.525767,99744.38,-243,+17,-117
50770,9.050,-3.256,1.910,-0.084301,0.068308,0.656133,99745.53,-243,+16,-116
50780,8.585,-3.700,1.930,0.116837,0.016161,0.740739,99741.30,-243,+12,-116
50790,8.222,-4.616,2.820,0.148763,0.016693,0.751913,99741.30,-243,+9,-115
50800,7.601,-5.514,3.965,0.016268,0.043299,0.660922,99743.95,-243,+9,-115
50810,7.303,-5.883,4.582,-0.218924,0.093849,0.465106,99746.93,-243,+7,-115
50820,7.165,-5.933,4.431,-0.568520,0.180583,0.256519,99742.27,-243,+7,-114
50830,7.140,-5.551,3.764,-0.890447,0.321592,0.074005,99743.74,-243,+7,-114
50840,8.083,-3.893,3.458,-1.042098,0.438656,-0.041995,99743.74,-243,+7,-114
50850,8.976,-2.671,2.922,-0.978245,0.423225,0.061235,99744.86,-244,+11,-114
50861,9.022,-2.744,2.531,-0.798392,0.307757,0.285785,99743.45,-245,+11,-112
50870,8.818,-3.154,2.743,-0.681328,0.231133,0.550776,99743.56,-244,+11,-111
50880,8.781,-3.021,3.305,-0.603108,0.153445,0.743399,99741.89,-244,+11,-111
50890,8.195,-3.649,3.429,-0.491365,0.036913,0.868977,99741.89,-245,+10,-112
50900,7.584,-4.405,3.530,-0.454117,-0.012573,0.945069,99744.91,-245,+6,-111
50910,7.424,-5.189,3.083,-0.514245,0.005519,0.941876,99743.19,-244,+3,-112
50920,7.409,-5.234,2.914,-0.614282,0.070968,0.896115,99740.56,-244,+3,-112
50930,7.930,-4.951,2.771,-0.690906,0.131629,0.897179,99739.84,-244,+1,-112
50940,8.179,-4.424,3.182,-0.728153,0.147592,0.928042,99739.84,-244,+0,-112
50951,8.563,-4.179,3.111,-0.653658,0.066711,0.988170,99742.26,-244,-3,-112
50956,8.742,-4.222,3.105,-0.565860,-0.014701,1.046170,99742.84,-244,-3,-112
50965,8.629,-4.312,3.011,-0.507328,-0.081747,1.116940,99742.84,-243,-5,-112
50975,7.989,-4.465,2.699,-0.450924,-0.159435,1.233472,99742.41,-242,-9,-112
50985,7.968,-4.781,2.725,-0.416337,-0.221692,1.319674,99742.04,-242,-9,-112
50996,7.902,-4.909,2.461,-0.425383,-0.262664,1.367032,99742.04,-241,-14,-114
51005,7.758,-5.818,1.947,-0.480190,-0.261600,1.409601,99744.37,-239,-18,-115
51015,7.898,-5.297,2.105,-0.422190,-0.314279,1.438867,99741.21,-237,-23,-115
51025,7.880,-6.115,1.892,-0.470080,-0.282353,1.462812,99743.46,-237,-23,-115
51035,7.978,-6.182,2.024,-0.496154,-0.297252,1.497931,99743.46,-235,-27,-117
51045,8.342,-6.542,1.945,-0.464759,-0.318536,1.502720,99743.46,-234,-31,-119
51055,8.338,-6.686,1.756,-0.496686,-0.336628,1.516023,99746.59,-230,-37,-120
51065,8.520,-6.853,1.781,-0.569053,-0.323325,1.544225,99746.59,-230,-37,-120
51076,9.084,-6.647,1.681,-0.605768,-0.341417,1.572426,99745.50,-229,-40,-122
51085,9.642,-6.444,1.457,-0.616942,-0.404738,1.604353,99740.73,-227,-45,-124
51095,9.662,-6.718,1.468,-0.620667,-0.452628,1.681509,99740.73,-223,-50,-125
51105,9.837,-7.017,1.582,-0.640355,-0.497325,1.766114,99740.63,-223,-50,-125
51116,10.013,-6.883,1.911,-0.673878,-0.538829,1.846463,99743.69,-220,-54,-128
51126,10.146,-7.197,2.244,-0.721768,-0.570756,1.914573,99742.03,-217,-59,-130
51135,10.359,-7.552,2.532,-0.801052,-0.589380,1.995986,99742.03,-212,-65,-133
51145,10.627,-7.839,3.373,-0.952704,-0.539362,2.067821,99744.38,-212,-65,-133
51155,11.435,-7.933,3.804,-1.158630,-0.471784,2.140188,99744.38,-207,-68,-136
51165,12.890,-7.436,4.591,-1.330502,-0.425490,2.224793,99744.11,-205,-73,-139
51175,14.115,-6.355,5.286,-1.332630,-0.455288,2.434976,99742.55,-200,-78,-142
51185,16.044,-4.207,4.316,-1.159162,-0.526591,2.792554,99741.61,-200,-78,-142
51195,20.525,-6.416,3.569,-1.180447,-0.254151,2.719123,99741.61,-194,-83,-145
51206,21.571,-6.521,5.643,-1.505034,-0.003527,2.782976,99741.25,-189,-88,-147
51216,20.041,-5.380,5.602,-2.027033,0.168344,3.150132,99744.48,-186,-93,-148
51225,15.599,-4.975,5.330,-2.419198,0.269445,3.406609,99741.67,-181,-93,-148
51235,10.895,-7.339,4.960,-2.479859,0.092253,3.832297,99740.62,-181,-97,-152
51246,8.495,-10.513,5.547,-2.028630,-0.442518,4.469764,99741.73,-173,-103,-156
51256,11.663,-13.308,4.472,-1.175658,-0.765508,4.281929,99742.82,-162,-112,-159
51265,12.436,-12.896,6.935,-1.118190,-0.642591,3.583801,99741.62,-154,-117,-163
51275,11.030,-9.673,7.199,-1.647107,-0.543086,3.155453,99741.62,-154,-117,-163
51286,6.957,-6.067,4.852,-1.691804,-0.407398,2.673362,99740.62,-149,-120,-167
51295,5.745,-3.369,4.444,-1.420960,-0.099307,2.099215,99740.62,-143,-122,-169
51305,16.622,-3.432,5.446,-1.570483,0.487078,1.102041,99742.70,-145,-119,-170
51315,-5.042,0.273,-0.965,-1.812593,0.471115,0.710409,99744.48,-145,-119,-170
51325,-3.076,-1.255,-0.101,-1.590171,0.545078,1.178665,99740.09,-145,-117,-172
51336,5.149,-2.903,5.403,-0.850007,0.434399,0.254923,99739.26,-147,-115,-171
51345,8.090,-0.480,3.125,-0.374833,0.125244,-1.102489,99739.26,-152,-111,-171
51355,6.981,4.541,1.797,-0.635034,0.300308,-1.694195,99744.60,-152,-111,-171
51365,5.344,5.380,0.912,-0.669089,0.548271,-1.724526,99738.49,-158,-104,-170
51376,2.924,2.406,0.836,-0.185401,0.492931,-1.723461,99739.27,-163,-100,-168
51385,1.091,0.894,0.564,0.559020,0.257207,-1.884691,99739.27,-169,-97,-165
51395,1.328,-0.395,0.496,1.218304,0.045427,-2.156599,99739.27,-169,-97,-165
51405,2.675,-1.166,0.471,1.573221,-0.031197,-2.498213,99741.91,-175,-93,-162
51416,3.580,-1.421,0.406,1.652506,0.055537,-2.840360,99741.75,-182,-90,-158
51426,4.057,-1.585,0.473,1.613130,0.232198,-3.151644,99739.08,-191,-83,-153
51435,4.553,-1.970,0.501,1.622707,0.383317,-3.410781,99737.78,-191,-83,-153
51445,4.750,-2.470,0.545,1.676983,0.495060,-3.622561,99737.78,-200,-76,-148
51456,4.683,-3.097,0.606,1.742432,0.596693,-3.777405,99739.51,-209,-66,-142
51466,4.978,-4.049,0.756,1.841937,0.705243,-3.924267,99740.24,-217,-55,-137
51476,5.489,-5.052,0.755,1.895148,0.816454,-4.092414,99736.88,-217,-55,-137
51485,6.210,-5.719,0.831,1.922817,0.926601,-4.241937,99736.88,-225,-42,-130
51495,7.165,-6.518,1.004,1.985606,1.001096,-4.359533,99741.26,-234,-29,-124
51506,7.787,-6.852,1.246,2.026047,1.049518,-4.468616,99741.26,-242,-12,-117
51515,8.384,-6.999,1.414,2.054780,1.061757,-4.541514,99739.01,-242,-12,-117
51525,8.950,-7.059,1.521,2.065955,1.022381,-4.592065,99740.79,-246,+5,-111
51535,9.532,-7.566,1.691,2.045735,0.970766,-4.617074,99739.07,-249,+23,-107
51546,10.052,-8.505,2.116,1.973368,0.935115,-4.650065,99739.07,-250,+42,-102
51556,10.305,-9.553,2.693,1.862689,0.911170,-4.697423,99741.05,-250,+42,-102
51565,10.188,-10.394,2.843,1.756267,0.898931,-4.750634,99742.19,-248,+62,-99
51575,9.752,-10.429,2.623,1.664744,0.951078,-4.824065,99741.83,-244,+81,-97
51586,9.970,-10.124,2.313,1.567368,1.060160,-4.882597,99739.03,-240,+103,-94
51596,10.797,-10.266,2.226,1.451900,1.209151,-4.877808,99743.80,-240,+103,-94
51606,11.686,-10.994,2.461,1.366231,1.351757,-4.809165,99740.66,-235,+120,-91
51615,12.010,-12.009,2.395,1.320469,1.418802,-4.699551,99742.75,-230,+137,-88
51625,11.953,-13.129,1.957,1.313552,1.392197,-4.569184,99742.75,-221,+155,-86
51636,11.811,-13.849,1.274,1.298121,1.321426,-4.350487,99742.13,-221,+155,-86
51645,12.250,-15.137,0.825,1.180524,1.261830,-3.945020,99742.13,-216,+168,-84
51655,11.533,-16.544,0.743,1.106029,1.179885,-3.413974,99744.34,-209,+179,-83
51661,9.802,-17.079,0.897,1.180524,1.043133,-3.034048,99744.56,-209,+179,-83
51671,7.650,-17.218,0.235,1.333772,0.788252,-2.597718,99743.41,-203,+190,-81
51681,5.557,-17.186,-0.660,1.418377,0.468454,-1.966636,99741.69,-200,+193,-83
51690,3.693,-17.727,-1.404,1.413056,0.198675,-1.294049,99741.69,-196,+196,-86
51700,2.063,-18.413,-2.103,1.255552,-0.024811,-0.608159,99745.98,-196,+196,-86
51710,0.959,-18.685,-2.164,0.943735,-0.214242,0.113914,99745.30,-194,+196,-88
51721,1.451,-18.466,-1.757,0.534543,-0.320132,0.802464,99744.93,-195,+193,-89
51730,7.436,-17.855,-0.324,0.360543,-0.401545,1.433546,99743.10,-196,+188,-92
51740,13.846,-13.659,1.442,0.084910,-0.595765,1.798573,99743.10,-196,+188,-92
51750,16.970,0.303,1.904,0.684066,-1.208756,0.815766,99744.82,-197,+182,-95
51761,23.748,16.848,-6.860,1.031001,-1.103398,0.533748,99745.55,-195,+180,-101
51771,16.420,10.022,-0.985,-1.387437,-0.002463,2.533949,99742.99,-200,+174,-98
51780,-0.395,-6.887,-6.558,-1.323052,-0.074298,4.050462,99745.60,-200,+174,-98
51790,6.629,-11.431,1.487,0.196653,-0.465930,3.779618,99745.60,-205,+161,-97
51801,9.493,-10.715,16.600,1.414653,-0.509031,3.226223,99744.98,-210,+148,-100
51811,6.647,-16.534,15.915,2.136725,-0.540426,3.494939,99741.17,-213,+132,-103
51820,10.656,-14.272,1.781,2.214946,-1.306664,3.659893,99743.48,-213,+132,-103
51830,7.735,-4.502,-7.656,1.635478,-1.323691,3.041049,99744.52,-214,+117,-111
51841,3.723,-7.278,2.330,0.493571,-0.177527,2.756903,99744.52,-216,+105,-112
51851,5.728,-11.884,8.626,-0.102924,0.019354,2.381765,99742.01,-218,+97,-112
51861,6.979,-10.721,5.177,-0.569053,-0.354719,1.605949,99743.52,-218,+97,-112
51870,7.159,-6.833,0.505,-1.264520,-0.249894,0.990298,99744.57,-218,+95,-113
51880,7.184,-5.328,-1.231,-1.720006,0.155042,0.638574,99745.09,-218,+95,-111
51891,8.575,-3.553,0.764,-1.467254,0.339152,0.491712,99745.09,-219,+96,-110
51901,9.256,-2.921,1.250,-1.000062,0.305097,0.561418,99744.59,-219,+96,-110
51910,9.341,-2.802,1.295,-0.412612,0.111941,0.733289,99746.31,-220,+96,-109
51920,9.163,-3.179,1.847,0.042874,-0.027472,0.912610,99743.34,-220,+91,-108
51931,8.428,-4.028,2.615,0.242947,-0.112077,1.018500,99741.25,-220,+88,-109
51941,7.652,-5.173,3.466,0.228580,-0.139215,0.996152,99741.25,-220,+88,-109
51950,7.342,-5.514,3.785,0.077461,-0.110481,0.842372,99744.71,-221,+85,-109
51960,7.554,-4.915,4.410,-0.179016,-0.039178,0.698170,99747.63,-221,+81,-109
51971,7.434,-5.345,4.480,-0.438686,0.018822,0.620482,99742.88,-223,+81,-109
51981,7.120,-5.837,3.692,-0.656851,0.079482,0.456592,99742.82,-222,+81,-109
51990,7.752,-4.615,3.216,-0.798924,0.177390,0.332611,99742.82,-222,+81,-109
52000,8.564,-3.443,2.554,-0.776575,0.188565,0.388482,99742.90,-223,+81,-106
52011,8.782,-3.231,2.279,-0.623860,0.115133,0.555565,99746.40,-223,+81,-107
52017,8.950,-3.466,1.991,-0.432832,0.021482,0.693913,99743.63,-223,+81,-107
52026,8.880,-3.759,2.060,-0.307255,-0.051949,0.814170,99743.63,-224,+77,-107
52036,8.447,-4.347,2.439,-0.241805,-0.113674,0.927509,99743.95,-223,+75,-107
52045,7.561,-5.126,2.522,-0.275860,-0.123252,0.984445,99743.95,-223,+75,-107
52056,7.289,-5.505,2.608,-0.360466,-0.067380,0.953051,99743.17,-223,+72,-107
52066,7.413,-5.580,2.627,-0.442410,0.003390,0.850353,99741.64,-224,+70,-107
52076,7.558,-5.532,2.526,-0.505732,0.042767,0.814702,99744.92,-225,+67,-106
52085,7.725,-5.315,2.465,-0.537126,0.056069,0.822152,99744.92,-225,+67,-106
52096,8.041,-5.173,2.623,-0.545640,0.057134,0.832262,99744.92,-225,+66,-106
52106,7.995,-5.065,2.604,-0.517438,0.033189,0.858335,99747.12,-225,+64,-106
52116,8.036,-5.276,2.540,-0.478594,0.017225,0.893986,99746.01,-225,+60,-105
52125,7.758,-5.562,2.382,-0.494557,0.053941,0.889730,99745.45,-225,+60,-105
52135,7.637,-5.413,2.219,-0.409952,0.037978,0.931766,99741.05,-225,+58,-106
52146,7.851,-5.891,2.318,-0.488704,0.077354,0.948262,99741.05,-225,+56,-104
52156,7.644,-5.680,2.410,-0.528612,0.105555,0.970610,99744.96,-227,+53,-104
52166,7.985,-5.316,2.437,-0.570117,0.064051,1.034463,99743.91,-227,+53,-104
52175,8.171,-5.438,2.297,-0.535530,0.002858,1.116408,99744.15,-227,+50,-104
52186,8.222,-5.823,2.121,-0.519034,-0.046096,1.183454,99744.15,-227,+47,-104
52196,8.360,-6.401,1.977,-0.508924,-0.074830,1.225491,99742.92,-227,+43,-104
52206,8.302,-6.424,1.849,-0.548832,-0.083876,1.272849,99744.75,-226,+40,-105
52215,8.810,-6.183,1.648,-0.561603,-0.115802,1.319674,99744.75,-226,+40,-105
52226,9.103,-6.171,1.522,-0.554686,-0.185509,1.355858,99743.75,-226,+36,-105
52236,9.157,-6.284,1.814,-0.544576,-0.259472,1.444720,99746.16,-225,+32,-106
52246,9.526,-6.389,2.103,-0.553089,-0.299380,1.551674,99746.16,-224,+27,-107
52251,9.663,-6.681,2.260,-0.573309,-0.319068,1.624041,99743.46,-224,+27,-107
52260,9.844,-6.448,2.483,-0.579163,-0.352591,1.712371,99742.79,-223,+21,-107
52271,10.098,-6.486,2.333,-0.609493,-0.404738,1.807087,99743.57,-223,+21,-107
52281,10.263,-6.723,2.586,-0.650465,-0.453692,1.914041,99742.21,-221,+16,-108
52291,10.567,-6.896,2.950,-0.729218,-0.474976,2.025252,99742.21,-219,+11,-111
52300,11.006,-7.461,3.148,-0.857456,-0.450499,2.130610,99743.70,-216,+6,-112
52311,11.323,-7.894,3.789,-1.049548,-0.398885,2.255655,99743.03,-216,+6,-112
52321,12.546,-7.345,4.873,-1.215566,-0.324921,2.443490,99742.05,-214,+0,-113
52331,14.455,-5.830,5.323,-1.292190,-0.258408,2.530756,99743.23,-211,-5,-114
52340,17.747,-6.347,3.922,-1.295915,-0.172738,2.505215,99743.23,-209,-11,-117
52350,21.233,-7.198,4.949,-1.447566,0.049152,2.597270,99747.59,-209,-11,-117
52361,21.254,-6.122,6.525,-1.841327,0.321060,2.859600,99742.27,-207,-17,-117
52371,18.853,-5.194,6.639,-2.375033,0.488142,3.130444,99741.01,-204,-22,-117
52381,15.526,-6.224,6.481,-2.690042,0.499317,3.403416,99739.71,-201,-27,-118
52390,12.068,-8.989,5.789,-2.802317,0.159299,3.991397,99739.71,-201,-27,-118
52401,11.315,-12.018,4.936,-2.306923,-0.324389,4.364407,99743.36,-193,-35,-120
52411,12.225,-12.735,4.393,-1.696593,-0.380793,3.762058,99742.69,-187,-42,-124
52421,12.086,-9.878,7.004,-1.878043,-0.032793,3.094792,99739.50,-182,-48,-126
52430,10.251,-5.788,7.669,-2.179217,0.176326,2.693050,99740.48,-182,-48,-126
52441,6.408,-2.681,4.271,-2.010006,0.186436,2.246077,99740.48,-177,-51,-127
52451,16.520,-2.089,3.449,-1.948281,0.617977,1.552738,99744.01,-173,-50,-129
52461,-3.507,0.274,0.414,-2.034483,0.828161,0.807253,99739.35,-173,-48,-130
52470,-4.885,-0.922,-0.818,-1.590703,0.580729,1.158445,99742.54,-171,-47,-130
52481,4.461,-1.846,4.812,-0.621731,0.322124,0.547583,99740.35,-171,-47,-130
52491,8.467,0.563,2.104,0.159406,-0.107288,-0.777370,99740.35,-170,-45,-131
52501,7.573,4.433,1.753,0.082250,-0.022151,-1.416434,99742.32,-169,-41,-131
52511,6.047,5.595,0.980,0.122690,0.120987,-1.414838,99740.49,-169,-36,-132
52520,3.793,3.315,0.739,0.547314,0.086400,-1.452618,99741.16,-169,-36,-132
52531,2.341,1.674,0.659,1.130506,-0.062059,-1.709094,99739.60,-170,-32,-131
52541,2.065,0.526,0.232,1.633882,-0.189765,-2.046984,99739.60,-169,-30,-131
52551,2.472,-0.413,-0.028,1.848854,-0.167949,-2.405626,99740.91,-168,-27,-131
52560,3.018,-1.190,0.059,1.807882,-0.013637,-2.757883,99738.98,-168,-27,-131
52571,3.576,-1.756,0.357,1.690818,0.181115,-3.100029,99738.40,-171,-20,-131
52581,4.414,-2.318,0.467,1.615790,0.358308,-3.444836,99737.88,-172,-14,-129
52591,4.710,-2.653,0.649,1.555662,0.518473,-3.777937,99737.88,-173,-5,-128
52601,5.011,-2.874,0.563,1.547680,0.659482,-4.037607,99740.11,-173,-5,-128
52611,5.508,-3.223,0.590,1.582799,0.791445,-4.244597,99736.34,-175,+4,-127
52621,6.268,-4.034,0.620,1.642928,0.899463,-4.445735,99736.09,-177,+13,-125
52631,7.232,-4.837,0.603,1.691350,0.985665,-4.622395,99737.50,-179,+23,-124
52640,8.362,-5.595,0.827,1.725937,1.076124,-4.738927,99737.50,-179,+23,-124
52651,9.254,-6.377,0.919,1.739772,1.150619,-4.830450,99739.27,-180,+34,-122
52661,9.782,-6.589,1.048,1.737111,1.201702,-4.904413,99740.59,-181,+44,-121
52671,10.306,-6.740,1.346,1.724873,1.232564,-4.967202,99740.48,-181,+56,-120
52681,10.823,-7.276,1.629,1.692414,1.241078,-5.017220,99737.91,-181,+56,-120
52690,11.342,-8.183,2.034,1.643460,1.249059,-5.066707,99737.91,-179,+66,-119
52701,11.714,-9.358,2.475,1.599827,1.259169,-5.125239,99741.72,-179,+76,-118
52711,11.704,-10.368,2.845,1.566304,1.280986,-5.185899,99740.47,-177,+87,-117
52721,11.611,-10.706,2.742,1.519301,1.302802,-5.280260,99741.77,-177,+87,-117
52730,11.761,-10.579,2.267,1.447111,1.356013,-5.327973,99740.25,-175,+98,-116
52741,12.218,-10.637,1.884,1.334836,1.461903,-5.304028,99740.25,-173,+106,-114
52751,12.941,-11.278,1.768,1.207662,1.570986,-5.204523,99740.84,-172,+118,-112
52761,13.575,-12.432,1.912,1.109754,1.622068,-5.029459,99740.90,-172,+118,-112
52771,13.693,-13.478,1.641,1.065589,1.568857,-4.758615,99744.38,-170,+128,-109
52781,13.773,-14.390,1.138,0.982579,1.487445,-4.302597,99740.95,-169,+136,-105
52791,13.106,-15.932,1.113,0.933093,1.381023,-3.721534,99740.95,-168,+144,-103
52801,10.514,-17.369,0.823,1.002800,1.114968,-3.073424,99744.38,-168,+144,-103
52811,7.503,-18.663,-0.526,1.118800,0.726528,-2.439149,99744.80,-167,+150,-102
52820,4.497,-19.755,-2.136,1.278965,0.332234,-1.825094,99743.64,-166,+151,-101
52831,1.718,-20.335,-3.378,1.325790,-0.000334,-1.176985,99744.27,-165,+152,-103
52841,-0.261,-20.069,-3.435,1.219368,-0.269582,-0.342104,99744.27,-165,+152,-103
52851,3.027,-19.057,-2.279,1.051222,-0.510628,0.519913,99743.29,-165,+151,-105
52861,1.780,-18.278,-1.480,0.892653,-0.767105,1.339894,99743.82,-166,+145,-107
52871,5.623,-16.303,1.037,0.862855,-1.029435,2.478077,99743.62,-167,+136,-111
52881,17.711,-9.974,5.243,0.928304,-0.953343,2.285986,99742.93,-167,+136,-111
52891,25.345,1.830,3.581,1.675386,-1.431177,0.427858,99742.93,-168,+129,-114
52901,23.977,18.386,-6.724,0.167387,-0.533508,-0.071261,99747.74,-166,+126,-117
52911,4.237,9.008,-3.780,-2.463896,0.521133,2.276408,99747.27,-169,+125,-114
52921,1.461,-11.722,-3.607,-1.315070,-0.056206,3.699801,99744.40,-169,+125,-114
52931,11.056,-8.693,5.714,0.895313,-0.727196,3.307104,99744.98,-172,+116,-114
52941,9.796,-6.312,3.185,1.561515,-0.963453,3.034132,99744.98,-174,+103,-117
52951,6.839,-7.348,10.116,0.802194,-0.037582,2.845765,99745.13,-175,+93,-118
52957,6.953,-11.599,14.365,0.651607,0.198143,2.945802,99741.73,-175,+93,-118
52966,9.297,-12.924,10.134,1.246506,-0.450499,3.072444,99741.73,-177,+82,-119
52976,8.242,-9.049,0.041,1.482763,-1.180554,2.890994,99743.50,-177,+69,-122
52986,6.134,-7.544,-0.253,0.839442,-0.780939,2.464774,99742.30,-177,+69,-122
52996,6.177,-9.242,3.605,0.063626,-0.217435,2.066224,99742.30,-175,+62,-123
53006,6.637,-8.699,3.591,-0.599383,-0.100371,1.583601,99744.21,-177,+58,-124
53016,7.380,-7.332,2.646,-1.167144,-0.086536,1.127051,99743.23,-176,+56,-122
53026,8.189,-5.661,1.569,-1.350190,-0.018426,0.775858,99745.99,-176,+56,-122
53036,8.406,-4.063,0.010,-1.126704,0.084803,0.570464,99745.99,-175,+57,-122
53046,8.851,-3.055,1.252,-0.767530,0.141739,0.561418,99745.99,-177,+57,-122
53056,8.988,-2.999,0.942,-0.445603,0.100234,0.656133,99744.08,-177,+56,-121
53066,8.872,-3.267,1.582,-0.199236,0.072033,0.753510,99746.22,-177,+56,-121
53076,8.666,-3.790,2.037,-0.031622,0.048620,0.808317,99742.34,-177,+54,-122
53086,8.313,-4.428,2.395,0.008819,0.039042,0.795546,99743.34,-177,+52,-121
53096,7.993,-4.967,3.360,-0.108778,0.042767,0.708280,99743.34,-178,+48,-120
53106,7.725,-5.303,3.867,-0.297677,0.076289,0.552372,99745.63,-178,+48,-120
53116,7.614,-5.219,3.824,-0.529144,0.133757,0.380501,99742.29,-178,+49,-119
53127,7.835,-4.711,3.635,-0.698887,0.194418,0.225125,99741.71,-179,+49,-120
53136,8.357,-3.632,3.475,-0.776043,0.252950,0.160207,99741.71,-179,+50,-119
53146,8.818,-2.907,2.906,-0.760080,0.255078,0.234703,99743.68,-179,+50,-118
53156,8.900,-2.789,2.724,-0.642484,0.199207,0.400189,99743.68,-179,+52,-118
53166,8.901,-3.012,2.809,-0.482851,0.125244,0.568335,99742.23,-180,+51,-118
53176,8.642,-3.476,3.194,-0.375897,0.054473,0.726372,99744.52,-180,+49,-117
53186,8.137,-4.347,3.109,-0.358869,-0.005123,0.860996,99746.45,-179,+48,-119
53191,7.619,-4.742,2.985,-0.426447,-0.014701,0.908886,99746.45,-179,+48,-119
53201,7.284,-5.019,3.114,-0.527016,0.016693,0.892922,99744.20,-181,+46,-117
53211,7.512,-4.878,3.038,-0.672814,0.078950,0.863656,99744.57,-181,+46,-117
53221,7.768,-4.629,3.142,-0.747841,0.120987,0.835454,99742.48,-181,+43,-117
53231,8.258,-4.171,3.352,-0.755823,0.125776,0.874298,99742.63,-181,+44,-117
53241,8.672,-3.765,3.446,-0.691438,0.055005,0.937620,99742.63,-181,+42,-116
53252,8.746,-3.717,3.308,-0.578631,-0.064188,1.013179,99745.13,-181,+42,-116
53261,8.540,-4.198,2.999,-0.410484,-0.169013,1.122794,99745.44,-181,+39,-117
53271,8.533,-5.192,2.227,-0.374300,-0.244041,1.155252,99740.95,-181,+38,-117
53281,7.932,-5.274,2.085,-0.439750,-0.249894,1.134500,99742.94,-180,+34,-118
53292,8.005,-5.194,2.005,-0.465291,-0.212646,1.134500,99742.94,-180,+34,-118
53301,8.154,-5.578,1.978,-0.481254,-0.183912,1.145674,99747.23,-178,+32,-118
53311,7.981,-5.735,1.826,-0.514245,-0.106224,1.158977,99742.95,-179,+30,-119
53321,8.165,-5.264,2.011,-0.543511,-0.131233,1.195161,99742.84,-179,+27,-119
53331,8.520,-5.519,2.220,-0.495089,-0.179123,1.246775,99740.08,-179,+27,-119
53341,8.123,-5.751,2.221,-0.512117,-0.214775,1.285087,99740.08,-177,+24,-119
53351,8.378,-5.789,1.893,-0.505199,-0.237123,1.335105,99747.50,-177,+22,-120
53361,8.692,-5.934,1.917,-0.515842,-0.265857,1.377142,99743.94,-175,+19,-120
53371,9.094,-6.025,1.645,-0.544043,-0.309490,1.444188,99743.58,-175,+19,-120
53382,9.530,-5.994,1.485,-0.572777,-0.369086,1.494738,99744.36,-174,+15,-121
53391,9.827,-5.956,1.714,-0.591401,-0.424426,1.566573,99744.36,-173,+13,-122
53401,10.225,-6.118,1.967,-0.596190,-0.474444,1.677784,99746.42,-172,+8,-124
53411,10.402,-6.579,2.367,-0.618539,-0.515417,1.785270,99745.06,-168,+8,-124
53422,10.541,-6.450,2.744,-0.650998,-0.563839,1.878922,99742.09,-168,+5,-125
53427,10.700,-6.707,2.887,-0.704208,-0.563839,1.939050,99742.14,-166,+1,-127
53436,10.810,-6.974,3.217,-0.782961,-0.556389,2.011417,99742.14,-166,+1,-127
53446,11.169,-7.233,3.566,-0.918649,-0.527123,2.126353,99742.14,-164,-3,-129
53456,11.852,-7.363,3.690,-1.108080,-0.434004,2.250334,99745.43,-161,-7,-130
53467,13.355,-6.105,4.047,-1.226208,-0.370151,2.375912,99744.07,-158,-9,-131
53477,15.643,-5.229,4.620,-1.253346,-0.315875,2.431784,99741.43,-158,-9,-131
53486,18.723,-5.711,3.807,-1.218226,-0.307362,2.550976,99741.43,-155,-14,-132
53496,20.505,-6.254,4.170,-1.365621,-0.171142,2.781380,99742.25,-152,-19,-133
53507,19.365,-5.407,5.231,-1.731712,0.116198,3.034132,99742.25,-150,-23,-134
53516,17.354,-5.061,6.412,-2.158464,0.422693,3.269325,99743.14,-150,-23,-134
53526,16.105,-5.739,6.811,-2.420795,0.495060,3.533783,99742.30,-147,-27,-134
53536,14.233,-7.695,6.896,-2.773051,0.276363,4.015875,99741.78,-143,-31,-137
53547,13.464,-9.908,6.743,-2.425584,-0.242444,4.404315,99741.78,-138,-36,-138
53557,12.425,-11.588,4.230,-1.738098,-0.596829,3.999379,99741.15,-138,-36,-138
53566,10.731,-9.548,4.037,-1.686483,-0.468591,3.356058,99742.09,-131,-42,-141
53576,10.031,-6.318,5.149,-1.892410,-0.198811,2.946334,99738.59,-125,-45,-143
53586,7.620,-3.952,5.160,-1.663070,-0.084408,2.508408,99741.31,-122,-46,-145
53597,11.317,-2.052,4.164,-1.329437,-0.013637,1.951821,99740.84,-122,-46,-145
53607,9.551,-3.475,4.691,-1.560373,0.559445,0.781179,99740.95,-120,-49,-146
53616,-10.927,-0.304,-4.667,-1.649768,0.150785,0.932831,99740.33,-118,-48,-148
53626,-1.399,-2.708,2.755,-1.317731,0.495592,0.759895,99740.33,-119,-46,-149
53637,6.970,-2.312,3.731,-0.323750,0.086932,-0.394251,99741.22,-119,-46,-149
53646,6.393,2.154,1.484,-0.076319,-0.137087,-1.316397,99741.22,-118,-44,-149
53656,5.640,4.520,1.187,-0.287567,0.068308,-1.551590,99744.14,-118,-41,-150
53662,4.193,3.806,1.197,-0.226374,0.132161,-1.583517,99740.53,-118,-41,-150
53671,2.714,2.631,0.831,0.126947,0.084803,-1.720269,99739.33,-122,-40,-151
53682,1.717,1.789,0.604,0.676616,-0.013637,-1.969296,99741.06,-122,-38,-150
53691,1.672,0.843,0.451,1.117735,-0.084408,-2.213002,99741.06,-124,-37,-150
53701,2.101,-0.069,0.303,1.384322,-0.081747,-2.485975,99740.34,-124,-37,-150
53711,2.678,-0.646,0.429,1.506176,0.009244,-2.777571,99739.52,-127,-36,-149
53722,3.209,-1.023,0.519,1.535442,0.157170,-3.067039,99738.63,-130,-36,-148
53731,3.752,-1.476,0.750,1.548212,0.308289,-3.327772,99739.52,-134,-32,-145
53741,4.224,-1.883,0.779,1.581735,0.431207,-3.567222,99739.52,-134,-32,-145
53751,4.681,-2.365,0.689,1.631221,0.558913,-3.791772,99740.78,-140,-29,-143
53762,5.041,-2.879,0.889,1.681240,0.701518,-3.999295,99739.69,-143,-25,-141
53772,5.643,-3.557,0.889,1.737643,0.829225,-4.188194,99737.44,-150,-19,-138
53781,6.356,-4.409,1.035,1.786597,0.952674,-4.369111,99738.17,-150,-19,-138
53791,7.295,-5.156,1.265,1.871203,1.046326,-4.505863,99738.17,-157,-13,-135
53801,8.540,-6.018,1.368,1.964854,1.118692,-4.627716,99739.29,-162,-7,-132
53812,9.358,-6.730,1.463,2.013808,1.187867,-4.749569,99739.04,-168,+1,-129
53821,9.831,-7.040,1.631,2.022322,1.243206,-4.831514,99740.13,-168,+1,-129
53831,10.529,-7.192,1.625,2.054248,1.235757,-4.886322,99738.41,-173,+10,-125
53841,11.245,-7.567,1.689,2.075533,1.213940,-4.941129,99738.41,-178,+18,-122
53852,11.672,-8.223,2.175,2.030836,1.230435,-4.978909,99741.13,-182,+29,-119
53861,11.974,-8.924,2.834,1.936652,1.269812,-4.990083,99742.13,-182,+29,-119
53871,12.587,-9.628,3.309,1.832359,1.316105,-5.007111,99741.08,-186,+39,-117
53881,13.118,-10.394,3.633,1.667937,1.358142,-4.994872,99738.56,-188,+50,-115
53892,13.112,-11.190,3.572,1.518946,1.395922,-4.990615,99738.56,-192,+63,-113
53897,12.726,-11.335,3.378,1.429552,1.437958,-4.963478,99741.83,-192,+63,-113
53906,12.826,-11.466,3.205,1.324726,1.485848,-4.855459,99741.83,-196,+76,-111
53916,12.818,-12.598,2.734,1.191167,1.548637,-4.639955,99739.44,-199,+89,-108
53926,12.787,-13.834,2.289,1.078891,1.607701,-4.359533,99742.56,-199,+89,-108
53937,12.669,-15.033,1.426,0.888928,1.593866,-4.015258,99742.52,-202,+103,-106
53947,11.998,-15.766,0.101,0.701625,1.510325,-3.586910,99745.02,-205,+117,-104
53956,10.893,-15.779,-1.090,0.720249,1.340582,-3.121314,99742.73,-206,+128,-102
53966,9.146,-15.288,-1.193,0.920855,1.059628,-2.568452,99742.77,-206,+128,-102
53977,6.660,-15.484,-0.646,1.239588,0.594564,-1.839461,99742.77,-207,+138,-101
53987,4.251,-16.842,-1.730,1.575882,-0.018426,-0.960948,99742.04,-207,+142,-104
53996,1.846,-18.559,-3.127,1.698267,-0.485618,-0.060086,99742.04,-207,+140,-107
54006,0.704,-18.975,-3.546,1.539698,-0.746884,0.803528,99746.77,-207,+140,-107
54017,4.200,-18.433,-1.633,1.162433,-0.851710,1.514959,99744.79,-208,+136,-112
54027,5.706,-15.401,0.083,0.979919,-0.936315,2.143380,99745.66,-209,+129,-118
54037,9.898,-12.133,1.745,0.601589,-0.836279,2.669105,99744.88,-211,+119,-121
54046,18.940,-6.493,7.182,0.769736,-0.703251,2.284389,99744.88,-211,+119,-121
54056,23.448,4.462,4.698,1.246506,-0.952279,0.774794,99745.45,-212,+112,-126
54067,21.603,21.536,-4.067,-0.404099,-0.404738,0.280996,99745.19,-211,+111,-129
54077,8.666,7.645,-5.845,-2.299474,0.138014,2.896316,99743.98,-214,+106,-125
54086,-1.228,-10.289,-4.896,-1.162887,-0.106224,3.655104,99743.98,-214,+106,-125
54096,8.190,-9.895,3.769,0.610103,-0.730921,3.289012,99743.98,-217,+98,-127
54107,10.274,-8.436,12.835,1.768506,-0.837875,3.041049,99741.98,-216,+84,-130
54117,6.611,-11.254,12.681,1.803625,-0.576609,3.034132,99743.45,-217,+68,-132
54126,8.331,-14.772,2.965,1.272047,-0.824040,3.201214,99742.56,-217,+56,-135
54136,9.153,-9.009,-4.583,1.018231,-0.898536,2.833527,99743.97,-217,+56,-135
54147,6.076,-7.066,-0.523,0.366396,-0.290866,2.337600,99743.97,-216,+46,-138
54157,6.921,-8.343,4.005,-0.233823,0.178455,2.032701,99745.17,-216,+37,-136
54167,7.426,-8.381,5.553,-0.810098,0.148656,1.598500,99744.39,-218,+36,-137
54176,7.266,-6.704,3.084,-1.128300,0.002326,1.095656,99743.53,-218,+36,-137
54187,7.694,-4.736,1.451,-1.150116,0.102363,0.733821,99743.53,-218,+36,-137
54197,8.642,-3.718,0.975,-0.898429,0.185372,0.632188,99745.64,-218,+34,-135
54207,9.019,-2.959,0.962,-0.694631,0.194418,0.660922,99746.17,-218,+36,-135
54216,9.290,-2.740,2.194,-0.439750,0.213042,0.767344,99746.17,-218,+36,-135
54226,9.151,-3.121,3.269,-0.290759,0.179519,0.918996,99742.72,-219,+34,-135
54237,8.470,-3.979,2.656,-0.151346,0.040638,1.005730,99743.66,-218,+29,-133
54247,8.046,-4.855,2.944,-0.117291,0.007115,0.970610,99743.66,-219,+27,-134
54256,7.716,-5.313,3.566,-0.227438,0.035849,0.846629,99743.52,-219,+27,-134
54266,7.639,-5.406,3.367,-0.396649,0.100767,0.693913,99745.82,-219,+25,-133
54277,7.707,-5.426,3.132,-0.547236,0.174198,0.555033,99745.98,-218,+24,-132
54287,7.973,-5.128,2.731,-0.677603,0.275299,0.439565,99742.99,-220,+25,-132
54297,8.210,-4.330,2.639,-0.768062,0.325849,0.411895,99746.91,-220,+25,-132
54306,8.507,-3.638,3.174,-0.802649,0.304565,0.503418,99746.48,-220,+24,-131
54317,8.679,-3.543,2.980,-0.729218,0.227941,0.632188,99743.72,-221,+23,-130
54327,8.821,-3.912,3.393,-0.650998,0.165152,0.762555,99743.72,-222,+23,-131
54337,8.265,-4.163,2.999,-0.558942,0.084803,0.842372,99746.28,-222,+23,-131
54346,8.335,-4.523,3.033,-0.547768,0.081078,0.876959,99746.28,-221,+21,-130
54356,8.107,-4.916,2.888,-0.494557,0.068840,0.795546,99743.36,-221,+18,-130
54367,7.750,-4.916,3.082,-0.463163,0.060326,0.762555,99746.81,-221,+19,-130
54377,7.588,-4.993,3.282,-0.505732,0.065115,0.758831,99743.00,-221,+19,-130
54387,7.615,-5.037,2.926,-0.557346,0.081078,0.764684,99742.16,-221,+16,-129
54396,7.609,-5.070,2.694,-0.567456,0.060858,0.770005,99742.16,-221,+13,-129
54407,7.680,-4.998,2.817,-0.521695,0.039042,0.790757,99743.48,-221,+13,-130
54417,7.711,-5.234,2.797,-0.498282,0.023611,0.809381,99743.04,-221,+13,-130
54427,7.783,-5.381,2.379,-0.505732,0.011904,0.820555,99741.34,-221,+11,-130
54436,7.783,-5.341,2.348,-0.508392,0.008179,0.821620,99741.34,-221,+8,-130
54447,7.892,-5.273,2.365,-0.507328,0.014033,0.818427,99741.34,-221,+8,-131
54457,8.148,-5.237,2.225,-0.526484,0.023078,0.838115,99745.33,-221,+8,-131
54467,8.524,-5.187,1.927,-0.544576,0.000198,0.881216,99743.66,-221,+4,-130
54476,8.719,-4.779,1.732,-0.540851,-0.044499,0.932298,99744.02,-221,+3,-130
54487,8.806,-4.811,1.620,-0.492961,-0.109417,1.042445,99746.53,-221,+1,-132
54497,8.916,-5.085,1.703,-0.420062,-0.191894,1.146739,99746.53,-221,+1,-132
54507,8.745,-5.358,1.860,-0.388135,-0.260536,1.223362,99744.84,-219,-3,-131
54517,8.690,-5.568,1.994,-0.361530,-0.312683,1.313289,99741.76,-217,-5,-133
54526,8.780,-5.659,2.383,-0.341842,-0.356316,1.379271,99742.80,-216,-8,-134
54537,8.904,-5.719,2.477,-0.351952,-0.408463,1.446316,99742.80,-216,-8,-134
54547,8.937,-5.916,2.870,-0.366851,-0.460609,1.524004,99743.87,-215,-13,-134
54557,9.135,-6.078,2.922,-0.398245,-0.502646,1.602757,99744.98,-212,-18,-135
54566,9.425,-6.315,2.708,-0.464227,-0.507435,1.686298,99744.98,-211,-21,-137
54577,9.821,-6.505,2.215,-0.547768,-0.511160,1.760793,99745.96,-211,-21,-137
54587,10.216,-6.517,2.151,-0.628117,-0.498921,1.834224,99742.88,-207,-27,-138
54597,10.619,-6.533,2.407,-0.690374,-0.473380,1.909252,99742.88,-204,-30,-139
54602,10.923,-6.667,2.614,-0.761676,-0.438261,1.969912,99744.10,-204,-30,-139
54611,11.179,-6.718,2.809,-0.859585,-0.404206,2.018867,99745.46,-202,-34,-141
54622,12.153,-6.389,3.424,-0.973988,-0.346738,2.065692,99743.05,-198,-39,-142
54632,14.279,-6.231,3.761,-1.055401,-0.327050,2.106133,99742.38,-195,-43,-143
54641,16.554,-6.068,5.334,-1.220887,-0.169013,2.250334,99742.38,-195,-43,-143
54651,18.347,-5.343,6.233,-1.475235,-0.087600,2.529692,99741.34,-193,-46,-143
54662,18.517,-4.638,5.316,-1.801951,-0.109949,2.845233,99743.88,-189,-50,-144
54672,17.342,-4.304,5.456,-2.005217,0.087464,3.107563,99743.68,-186,-55,-144
54682,15.784,-5.537,6.319,-2.101529,0.291262,3.360847,99741.34,-186,-55,-144
54691,13.956,-7.882,6.582,-2.345235,0.331170,3.967984,99741.34,-183,-59,-145
54702,14.610,-10.308,8.176,-2.240942,0.185372,4.554370,99742.81,-176,-66,-144
54712,17.107,-12.711,8.496,-1.937107,-0.026408,4.348443,99742.23,-171,-71,-145
54722,16.404,-11.157,7.948,-2.053639,-0.219031,3.707783,99743.22,-171,-71,-145
54731,13.450,-7.427,5.568,-2.404831,-0.339820,3.175673,99741.92,-166,-74,-146
54742,8.687,-4.458,3.105,-2.543712,-0.051949,2.772334,99741.92,-159,-75,-147
54752,4.072,-2.331,2.372,-2.319162,0.329042,2.183288,99741.74,-156,-73,-147
54762,14.285,-0.262,4.439,-1.948813,0.551463,1.660225,99741.49,-156,-73,-147
54772,9.217,-4.096,4.174,-1.855162,0.859555,0.505546,99740.60,-158,-70,-146
54781,-12.622,-2.157,-5.344,-1.490667,0.338087,0.574721,99740.65,-156,-64,-145
54792,-1.132,-3.668,4.103,-0.761676,0.423225,0.598133,99740.65,-157,-62,-142
54802,9.182,-2.696,4.374,0.412690,-0.260004,-0.735334,99743.39,-157,-62,-142
54812,6.988,2.814,-0.101,0.518580,-0.523930,-1.783590,99741.72,-158,-58,-138
54821,5.381,6.326,-0.022,0.055644,-0.071105,-1.920874,99741.30,-157,-52,-138
54832,3.757,4.034,0.610,0.137057,0.095445,-1.832012,99739.53,-160,-44,-136
54842,1.334,2.206,0.259,0.602653,0.034785,-1.982599,99739.53,-163,-44,-133
54852,0.788,1.098,0.329,1.124121,-0.017894,-2.211938,99743.52,-163,-37,-133
54861,1.570,-0.071,0.635,1.464671,-0.019490,-2.491828,99743.14,-161,-32,-130
54872,2.678,-0.825,0.848,1.599827,0.041702,-2.797259,99739.08,-165,-25,-127
54882,3.236,-0.990,0.851,1.604616,0.167280,-3.145259,99741.42,-166,-16,-125
54892,3.790,-1.044,1.018,1.597698,0.297115,-3.482084,99741.42,-166,-16,-125
54902,4.631,-1.271,0.952,1.636010,0.406198,-3.791240,99742.64,-166,-7,-122
54912,5.374,-1.885,0.703,1.653038,0.525390,-4.068469,99740.50,-168,+3,-119
54922,5.385,-2.297,0.635,1.660487,0.643518,-4.311111,99738.83,-168,+15,-115
54932,5.641,-2.996,0.384,1.701460,0.771757,-4.515441,99740.45,-168,+15,-115
54942,6.199,-3.673,0.308,1.734983,0.899995,-4.710193,99740.45,-167,+25,-113
54951,7.394,-4.392,0.467,1.786597,1.012270,-4.867166,99739.91,-168,+38,-110
54958,8.313,-4.926,0.631,1.844597,1.079316,-4.975184,99737.55,-168,+38,-110
54967,8.993,-5.414,0.900,1.895148,1.138913,-5.061386,99737.55,-167,+50,-109
54977,9.892,-5.714,1.202,1.971239,1.186803,-5.151845,99741.20,-164,+60,-106
54987,10.925,-5.932,1.344,2.056377,1.180417,-5.218358,99737.97,-164,+60,-106
54996,11.909,-6.571,1.620,2.094689,1.171371,-5.272633,99737.97,-162,+73,-104
55007,12.721,-7.649,2.360,2.044670,1.196913,-5.311477,99742.30,-159,+82,-104
55017,13.142,-8.893,3.160,1.968047,1.208087,-5.326909,99742.29,-156,+91,-103
55027,12.902,-9.690,3.611,1.895680,1.205426,-5.337551,99739.26,-156,+91,-103
55036,13.104,-10.374,3.783,1.791386,1.216069,-5.332230,99739.26,-153,+103,-102
55047,13.388,-11.109,3.878,1.692946,1.252784,-5.266780,99739.26,-149,+112,-102
55057,13.641,-12.058,3.724,1.627496,1.311848,-5.140138,99743.71,-146,+119,-101
55067,13.628,-13.015,3.758,1.551405,1.370380,-4.938468,99741.77,-144,+131,-99
55077,13.403,-14.034,3.501,1.401882,1.397518,-4.594726,99743.76,-144,+131,-99
55087,13.307,-15.439,2.546,1.112414,1.396454,-4.077515,99741.30,-141,+138,-99
55097,12.065,-17.260,1.548,0.776653,1.357610,-3.460268,99741.30,-138,+142,-97
55107,9.762,-18.636,0.496,0.609571,1.180949,-2.876011,99745.75,-138,+150,-96
55117,7.250,-19.065,-0.750,0.654268,0.856894,-2.388599,99744.67,-138,+150,-96
55128,4.919,-18.349,-1.343,0.822946,0.536564,-1.844782,99743.14,-136,+152,-95
55137,4.091,-17.845,-1.975,0.978323,0.120455,-1.059921,99743.14,-136,+151,-97
55147,4.572,-17.552,-2.506,0.961295,-0.156243,-0.309114,99747.27,-136,+152,-99
55157,3.448,-16.954,-2.754,0.997479,-0.443050,0.556097,99747.27,-136,+152,-99
55166,5.665,-16.011,-2.450,0.931497,-0.669728,1.555399,99747.16,-136,+147,-102
55177,10.752,-15.604,-0.084,0.743130,-0.743692,2.395068,99746.16,-138,+137,-104
55187,17.574,-7.775,3.743,1.084212,-1.028903,2.008756,99745.91,-138,+133,-109
55192,22.001,1.071,4.034,1.632818,-1.537599,0.795014,99745.91,-138,+133,-109
55202,23.516,14.677,-6.076,1.464139,-1.208756,0.416152,99746.01,-135,+127,-113
55212,11.813,12.267,-4.155,-1.434795,0.008712,2.482866,99743.91,-135,+127,-113
55222,-0.337,-11.424,-5.983,-1.768960,0.049684,4.239893,99744.18,-140,+122,-110
55232,9.018,-12.977,6.130,0.100341,-0.245637,3.805159,99746.79,-144,+114,-110
55242,11.054,-8.890,14.958,1.840873,-0.464866,3.168756,99746.79,-145,+101,-112
55252,7.169,-10.239,12.054,1.688157,-0.628756,3.278370,99743.77,-145,+101,-112
55262,7.989,-11.900,2.252,1.276836,-0.966646,3.439600,99745.98,-147,+87,-114
55272,7.516,-6.904,-2.627,1.398157,-0.964517,2.989967,99746.70,-147,+79,-117
55282,5.100,-7.704,2.008,0.873497,-0.461141,2.563215,99742.21,-147,+68,-119
55292,6.301,-10.663,5.687,0.189736,-0.191894,2.162536,99742.21,-147,+68,-119
55302,7.516,-10.084,4.178,-0.572245,-0.219031,1.487289,99747.39,-147,+62,-118
55312,7.626,-7.100,0.952,-1.233658,-0.215307,0.891858,99744.98,-148,+64,-119
55322,8.009,-4.944,0.240,-1.548134,-0.008848,0.528427,99746.03,-147,+62,-119
55332,8.715,-3.207,0.422,-1.352318,0.177922,0.401785,99744.20,-148,+64,-117
55342,9.484,-2.588,1.878,-0.892043,0.201867,0.470959,99744.20,-148,+64,-117
55352,9.472,-2.546,1.552,-0.378025,0.074693,0.609840,99748.54,-149,+67,-118
55362,9.226,-2.478,1.644,-0.050778,0.018289,0.742335,99746.40,-149,+62,-118
55372,8.916,-3.169,2.553,0.065754,-0.011509,0.855675,99744.77,-149,+60,-117
55383,8.475,-4.171,3.190,0.072140,-0.051417,0.870574,99742.27,-149,+60,-117
55392,8.064,-5.003,3.194,-0.061952,-0.033857,0.765216,99742.27,-150,+60,-118
55402,7.894,-5.131,3.878,-0.274796,0.047023,0.595473,99742.81,-149,+57,-118
55412,7.875,-5.102,3.953,-0.536062,0.115666,0.436904,99745.69,-149,+57,-116
55422,7.716,-4.798,3.603,-0.762741,0.196014,0.298024,99744.75,-149,+57,-116
55428,8.155,-3.741,3.876,-0.860649,0.257739,0.245877,99743.28,-152,+61,-116
55437,8.575,-2.802,3.763,-0.863309,0.250289,0.277803,99743.28,-152,+61,-116
55447,8.936,-2.399,2.608,-0.755291,0.160363,0.453400,99743.28,-151,+59,-115
55457,8.934,-2.737,1.823,-0.544576,0.043831,0.674225,99746.13,-150,+59,-115
55468,9.213,-2.836,2.045,-0.349823,-0.062059,0.875895,99744.68,-153,+60,-115
55477,8.933,-3.478,2.147,-0.225842,-0.165288,0.988702,99744.45,-153,+60,-115
55487,8.205,-4.578,2.171,-0.224778,-0.185509,1.054152,99744.45,-152,+54,-115
