40003,8.020,-4.929,1.959,0.106768,-0.145880,-0.048115,99848.79,-209,+47,-30
40009,8.099,-5.053,2.002,0.119007,-0.131513,-0.060354,99848.99,-209,+47,-30
40018,8.087,-5.056,2.104,0.121135,-0.114485,-0.078446,99848.01,-209,+47,-30
40029,8.069,-4.964,2.329,0.114750,-0.092137,-0.099198,99845.46,-209,+47,-30
40038,8.018,-4.865,2.317,0.097190,-0.068192,-0.111969,99845.46,-208,+48,-30
40048,8.072,-4.828,2.105,0.064731,-0.041054,-0.123143,99849.02,-208,+48,-31
40058,8.163,-4.721,2.209,0.051961,-0.019770,-0.133785,99848.86,-208,+48,-30
40069,8.179,-4.646,2.099,0.034401,0.002579,-0.134317,99847.25,-208,+48,-30
40079,8.143,-4.562,2.068,0.015777,0.022799,-0.128996,99845.84,-208,+49,-30
40088,8.170,-4.487,2.110,-0.002314,0.037698,-0.117290,99845.84,-209,+50,-30
40098,8.206,-4.368,2.440,-0.010828,0.046212,-0.098666,99850.87,-209,+50,-30
40109,8.366,-4.350,2.835,0.001942,0.031313,-0.076849,99849.51,-209,+50,-30
40119,8.394,-4.457,2.689,0.023227,0.002047,-0.046519,99847.23,-209,+50,-30
40128,8.284,-4.510,2.504,0.038658,-0.015513,-0.024170,99844.84,-209,+50,-31
40138,8.293,-4.643,2.418,0.030144,-0.013916,-0.017253,99844.84,-208,+50,-30
40148,8.344,-4.597,2.548,0.027484,-0.013384,-0.017785,99847.45,-208,+50,-31
40159,8.326,-4.603,2.503,0.029080,-0.009660,-0.012464,99849.38,-208,+50,-31
40169,8.235,-4.657,2.487,0.032273,-0.011788,-0.011400,99845.33,-209,+50,-30
40178,8.204,-4.677,2.524,0.021098,-0.006999,-0.015125,99847.72,-208,+50,-31
40188,8.184,-4.637,2.573,0.010456,-0.002742,-0.020978,99847.72,-208,+50,-30
40199,8.238,-4.611,2.546,-0.006571,0.001515,-0.024703,99849.31,-208,+50,-30
40209,8.264,-4.624,2.517,-0.021470,0.002047,-0.027363,99848.17,-209,+50,-31
40218,8.270,-4.586,2.570,-0.015085,-0.003274,-0.025767,99848.84,-208,+50,-30
40228,8.227,-4.581,2.361,0.000878,-0.009127,-0.023106,99847.39,-208,+50,-31
40239,8.208,-4.636,2.365,0.010988,-0.010724,-0.026299,99847.39,-208,+50,-31
40249,8.224,-4.645,2.537,0.020566,-0.011788,-0.031620,99849.59,-209,+50,-31
40258,8.242,-4.690,2.656,0.020566,-0.017641,-0.037473,99849.23,-208,+50,-31
40268,8.238,-4.672,2.736,0.010988,-0.024027,-0.045455,99846.16,-209,+50,-30
40279,8.254,-4.597,2.764,-0.002314,-0.034137,-0.047583,99846.48,-209,+50,-30
40289,8.299,-4.546,2.753,-0.021470,-0.043715,-0.044391,99846.48,-208,+51,-31
40299,8.254,-4.514,2.626,-0.039562,-0.050632,-0.035345,99850.62,-209,+50,-31
40308,8.301,-4.469,2.389,-0.059250,-0.052760,-0.023106,99846.77,-209,+51,-31
40318,8.306,-4.482,2.339,-0.077342,-0.047971,-0.008739,99848.02,-209,+51,-31
40329,8.313,-4.402,2.512,-0.073085,-0.054889,0.005096,99845.99,-209,+52,-31
40339,8.373,-4.416,2.438,-0.061379,-0.068724,0.025848,99845.99,-208,+50,-32
40348,8.402,-4.591,2.528,-0.050736,-0.084155,0.042875,99848.93,-207,+52,-31
40358,8.302,-4.670,2.586,-0.054993,-0.093733,0.048729,99850.45,-207,+52,-31
40365,8.123,-4.663,2.653,-0.065103,-0.099586,0.047132,99848.77,-209,+51,-32
40374,8.060,-4.618,2.767,-0.076810,-0.107036,0.047132,99848.77,-208,+51,-32
40384,8.198,-4.706,2.760,-0.088516,-0.124063,0.044472,99847.90,-208,+51,-32
40393,8.299,-4.743,2.582,-0.097562,-0.139494,0.042343,99847.90,-207,+51,-33
40403,8.325,-4.720,2.398,-0.112461,-0.142687,0.037022,99849.58,-208,+50,-33
40414,8.301,-4.755,2.359,-0.135874,-0.138430,0.034362,99845.66,-207,+50,-34
40424,8.355,-4.672,2.398,-0.154498,-0.134173,0.037554,99848.91,-207,+50,-34
40433,8.376,-4.586,2.445,-0.169397,-0.133109,0.056178,99848.91,-208,+51,-34
40443,8.352,-4.637,2.324,-0.183232,-0.141091,0.082252,99848.91,-207,+50,-34
40454,8.346,-4.673,2.334,-0.198663,-0.146412,0.106729,99848.27,-208,+51,-35
40464,8.384,-4.708,2.305,-0.226333,-0.145880,0.128545,99848.69,-208,+51,-35
40473,8.309,-4.904,2.272,-0.264112,-0.137366,0.149829,99849.41,-207,+50,-35
40484,8.080,-4.827,1.709,-0.338253,-0.103843,0.183707,99845.88,-207,+50,-36
40494,8.113,-4.505,1.946,-0.410975,-0.079898,0.189206,99845.88,-207,+49,-36
40504,8.622,-4.308,2.280,-0.426938,-0.086283,0.200912,99848.11,-207,+49,-36
40514,9.059,-4.568,2.370,-0.379048,-0.138430,0.234435,99849.97,-207,+50,-35
40523,8.933,-5.024,2.670,-0.318388,-0.222503,0.279664,99846.19,-207,+48,-37
40534,8.577,-5.174,2.952,-0.290718,-0.297531,0.295628,99845.63,-206,+48,-38
40544,8.291,-5.190,3.069,-0.310938,-0.344889,0.290306,99849.56,-206,+48,-38
40554,8.211,-4.991,2.900,-0.363085,-0.375219,0.283921,99848.42,-206,+48,-38
40563,8.398,-4.647,2.821,-0.397672,-0.408210,0.288710,99848.42,-206,+47,-40
40573,8.781,-4.566,2.468,-0.414167,-0.445457,0.316380,99845.16,-206,+46,-41
40584,8.958,-4.635,2.456,-0.380112,-0.500265,0.358416,99844.95,-206,+46,-41
40594,8.903,-4.785,2.266,-0.335947,-0.550815,0.401517,99844.95,-205,+45,-42
40603,8.642,-5.161,1.910,-0.331690,-0.576889,0.440894,99849.02,-204,+44,-44
40613,8.352,-5.503,1.477,-0.360956,-0.552944,0.459517,99848.98,-204,+42,-47
40624,8.209,-5.699,0.796,-0.432259,-0.491219,0.456857,99844.77,-204,+42,-47
40634,8.162,-5.730,0.208,-0.545066,-0.401824,0.446747,99848.15,-204,+41,-47
40644,8.364,-5.449,0.773,-0.650424,-0.325201,0.425994,99848.38,-203,+41,-49
40653,8.722,-4.733,1.646,-0.682351,-0.307109,0.427591,99847.08,-202,+41,-49
40664,8.794,-4.196,2.311,-0.646699,-0.359788,0.469627,99849.20,-202,+41,-49
40674,8.890,-4.430,2.166,-0.486534,-0.473659,0.523903,99851.38,-202,+39,-50
40684,9.062,-5.066,2.067,-0.324773,-0.584870,0.561682,99851.38,-202,+37,-52
40693,9.182,-5.588,2.110,-0.259323,-0.625311,0.594141,99851.38,-200,+36,-53
40704,9.482,-5.958,1.757,-0.314663,-0.594980,0.615426,99850.09,-200,+36,-53
40714,9.974,-6.222,1.369,-0.403525,-0.518889,0.630857,99848.59,-200,+34,-56
40724,10.411,-6.353,0.939,-0.500901,-0.445457,0.656398,99848.48,-199,+33,-58
40734,10.868,-6.422,0.650,-0.590828,-0.370962,0.688325,99848.38,-199,+31,-59
40743,11.457,-6.605,0.410,-0.676498,-0.306577,0.696838,99848.38,-199,+31,-59
40754,11.838,-6.620,0.506,-0.768552,-0.230485,0.675022,99851.24,-199,+30,-59
40764,11.757,-5.863,0.780,-0.830277,-0.191641,0.636178,99847.76,-198,+28,-60
40774,11.363,-4.973,1.057,-0.877103,-0.154926,0.684068,99846.73,-198,+26,-61
40783,11.014,-4.903,1.272,-0.781323,-0.191641,0.794747,99846.73,-198,+26,-61
40794,10.635,-5.668,1.649,-0.608387,-0.243788,0.889462,99849.73,-197,+24,-61
40804,10.783,-7.052,2.072,-0.419488,-0.277311,0.967150,99849.73,-197,+23,-62
40814,10.851,-8.802,2.220,-0.342333,-0.272522,1.007590,99848.48,-196,+20,-63
40823,10.204,-9.960,2.114,-0.394479,-0.258155,1.031535,99844.66,-196,+20,-63
40834,9.389,-11.034,1.836,-0.558369,-0.178338,1.064526,99845.42,-195,+16,-63
40839,9.083,-12.298,1.416,-0.711085,-0.117678,1.132636,99845.42,-195,+13,-64
40849,8.706,-14.032,0.185,-0.871250,-0.101182,1.255021,99851.23,-195,+13,-64
40859,8.053,-16.604,-1.510,-1.122406,-0.120870,1.495003,99848.84,-195,+10,-65
40868,9.255,-15.453,-1.286,-1.222442,-0.218779,1.669535,99847.50,-193,+6,-67
40879,10.178,-12.563,-0.836,-1.335781,-0.187916,1.637608,99846.61,-192,+1,-68
40889,9.985,-11.049,-0.551,-1.334185,-0.223568,1.729131,99846.61,-192,+1,-68
40899,9.183,-10.392,-0.816,-1.018112,-0.440136,1.904727,99848.87,-191,-1,-70
40908,7.907,-10.059,-1.073,-0.574865,-0.682246,2.040416,99850.16,-189,-6,-72
40919,6.887,-9.926,-1.255,-0.205580,-0.841879,2.119168,99848.04,-186,-14,-75
40929,6.698,-9.976,-1.109,0.012053,-0.909989,2.128746,99847.88,-186,-14,-75
40939,6.885,-9.660,-0.902,0.102511,-0.950430,2.088305,99847.88,-183,-20,-77
40949,6.876,-8.912,-0.842,0.138695,-0.971182,2.055847,99847.88,-181,-26,-80
40958,6.238,-7.838,-0.744,0.197759,-0.984485,2.039883,99845.09,-177,-33,-82
40969,5.216,-6.506,-0.840,0.279172,-0.996191,2.020727,99845.96,-177,-33,-82
40979,3.905,-5.086,-1.012,0.335043,-0.980760,1.973902,99845.18,-173,-39,-85
40989,2.770,-3.854,-1.206,0.341961,-0.919035,1.902599,99845.18,-169,-45,-87
40998,1.864,-2.796,-1.365,0.286621,-0.815806,1.781278,99848.73,-165,-50,-88
41009,1.099,-1.909,-1.398,0.207337,-0.703531,1.631223,99846.07,-165,-50,-88
41019,0.465,-1.155,-1.420,0.144548,-0.599769,1.468930,99847.32,-162,-55,-91
41029,-0.054,-0.515,-1.389,0.115282,-0.505054,1.308765,99843.21,-161,-59,-93
41038,-0.603,0.091,-1.442,0.103043,-0.411935,1.141150,99843.21,-157,-63,-93
41049,-0.997,0.623,-1.545,0.092401,-0.315623,0.967150,99845.09,-157,-63,-93
41059,-1.483,1.073,-1.492,0.075374,-0.213458,0.789425,99843.84,-156,-65,-93
41069,-1.674,1.465,-1.435,0.070585,-0.119806,0.614361,99844.25,-155,-67,-93
41074,-1.569,1.754,-1.347,0.071117,-0.051696,0.473884,99844.67,-155,-67,-93
41083,-1.505,1.974,-1.317,0.079098,0.005772,0.335004,99844.67,-154,-68,-94
41094,-1.585,2.150,-1.277,0.123263,0.063772,0.155151,99844.67,-154,-69,-93
41104,-1.710,2.105,-1.250,0.192438,0.111661,-0.029492,99846.46,-154,-69,-93
41114,-1.843,1.832,-1.310,0.250970,0.154230,-0.221051,99846.35,-154,-69,-93
41124,-1.913,1.300,-1.240,0.307906,0.194138,-0.412611,99845.84,-155,-69,-92
41134,-1.835,0.685,-1.139,0.357392,0.236175,-0.609491,99845.84,-156,-68,-91
41144,-1.575,0.159,-0.879,0.410603,0.279808,-0.810629,99849.69,-158,-67,-90
41154,-1.121,-0.300,-0.738,0.458493,0.331423,-1.024537,99849.69,-158,-67,-90
41164,-0.646,-0.825,-0.637,0.472860,0.400065,-1.246959,99844.70,-160,-65,-88
41174,-0.299,-1.520,-0.510,0.468071,0.480414,-1.467784,99845.42,-163,-61,-85
41184,0.158,-2.344,-0.368,0.426566,0.579918,-1.694463,99846.11,-166,-58,-84
41194,0.750,-3.088,-0.084,0.333447,0.689533,-1.915821,99846.11,-166,-58,-84
41204,1.638,-3.699,0.159,0.213722,0.806065,-2.131325,99846.17,-170,-52,-80
41214,2.645,-4.227,0.295,0.095594,0.925789,-2.349490,99847.11,-174,-46,-78
41224,3.657,-4.854,0.173,0.053025,1.025826,-2.544242,99845.66,-179,-38,-76
41234,4.576,-5.715,-0.010,0.075906,1.100853,-2.711325,99849.07,-179,-38,-76
41244,5.293,-6.852,0.239,0.105704,1.172688,-2.880003,99848.66,-183,-29,-73
41254,6.114,-7.768,0.602,0.162640,1.248248,-3.051875,99849.29,-188,-20,-68
41264,7.540,-8.122,0.751,0.193502,1.336046,-3.222682,99846.12,-193,-11,-65
41274,9.563,-8.509,0.654,0.114218,1.424376,-3.400939,99846.12,-193,-11,-65
41284,11.254,-9.370,0.390,0.046640,1.493018,-3.496186,99848.24,-196,+0,-60
41294,13.026,-10.801,0.223,0.151465,1.502596,-3.462132,99848.24,-200,+11,-55
41304,14.695,-12.745,1.085,0.370694,1.437679,-3.335490,99847.79,-201,+23,-51
41314,15.057,-13.998,2.355,0.676125,1.329661,-3.058260,99848.15,-201,+23,-51
41324,11.927,-19.244,1.784,0.903336,1.262615,-2.449527,99843.85,-202,+32,-46
41334,4.479,-32.076,4.465,1.002309,1.347220,-0.875546,99847.74,-205,+37,-41
41344,16.786,-36.185,0.021,1.143318,0.489991,0.320637,99847.74,-205,+35,-41
41354,17.637,-13.805,6.196,1.125758,-0.012320,-1.620500,99848.56,-205,+42,-41
41364,11.094,11.097,8.239,0.439337,1.262083,-3.318994,99846.91,-205,+42,-41
41374,15.462,14.146,8.209,-1.936001,2.507220,-2.420261,99846.75,-207,+54,-33
41384,22.028,-1.743,-3.579,-2.580386,1.928284,-1.536426,99846.75,-208,+63,-28
41394,32.388,-7.384,-2.087,-0.070425,0.013221,-0.927693,99846.75,-208,+65,-28
41404,22.871,-2.067,0.840,1.156088,0.165405,-0.905876,99850.84,-208,+65,-28
41414,10.300,-1.774,1.775,1.222070,-0.014449,-0.292886,99851.15,-208,+67,-29
41424,1.908,-3.318,1.295,1.150767,-0.203880,0.154618,99848.76,-208,+64,-29
41430,0.854,-5.524,2.826,1.200254,-0.168760,0.211022,99844.55,-208,+64,-29
41439,3.338,-6.666,3.305,1.217813,-0.039990,-0.017785,99844.55,-207,+63,-30
41449,5.918,-7.563,2.895,0.805428,0.174983,-0.280115,99849.52,-208,+63,-28
41459,7.510,-7.573,3.138,0.233942,0.362285,-0.315767,99847.35,-208,+63,-28
41468,8.984,-5.801,3.487,-0.057122,0.452744,-0.323748,99847.51,-208,+64,-28
41479,9.402,-4.293,2.869,-0.127360,0.487331,-0.369510,99848.29,-208,+66,-26
41489,8.967,-3.966,2.308,-0.042223,0.437313,-0.327473,99848.29,-209,+67,-25
41499,8.467,-4.114,1.951,0.126988,0.362285,-0.274262,99847.38,-209,+67,-25
41509,8.400,-4.191,1.602,0.239263,0.324505,-0.234886,99849.20,-209,+68,-25
41519,8.594,-4.502,1.389,0.243520,0.307478,-0.213069,99848.84,-209,+69,-23
41529,8.877,-5.072,1.628,0.198823,0.311203,-0.211473,99848.30,-209,+69,-23
41539,9.060,-5.013,2.059,0.129117,0.319184,-0.212537,99848.30,-209,+69,-23
41549,8.731,-4.370,2.456,0.070585,0.306946,-0.195510,99851.64,-209,+69,-21
41559,8.520,-3.889,3.051,0.053025,0.247349,-0.141235,99848.27,-210,+70,-21
41569,8.486,-3.771,3.292,0.068988,0.157423,-0.050776,99846.45,-210,+70,-20
41579,8.508,-3.883,3.202,0.100915,0.075478,0.041811,99846.14,-210,+70,-20
41589,8.492,-3.932,3.202,0.129117,-0.006999,0.104600,99846.14,-211,+69,-20
41600,8.431,-4.027,3.137,0.144016,-0.066595,0.162068,99848.99,-210,+69,-20
41609,8.385,-4.372,2.767,0.133374,-0.090540,0.215279,99850.60,-210,+68,-20
41619,8.439,-4.670,2.406,0.108364,-0.099586,0.253591,99847.13,-210,+67,-20
41629,8.403,-4.628,2.370,0.069520,-0.101182,0.275939,99845.52,-210,+67,-20
41639,8.394,-4.384,2.308,0.039190,-0.104907,0.316912,99845.52,-209,+66,-21
41649,8.398,-4.215,2.246,0.029612,-0.118742,0.367462,99845.77,-209,+66,-21
41659,8.489,-4.068,2.839,0.074841,-0.168228,0.403646,99846.34,-209,+63,-22
41669,8.416,-4.138,2.896,0.132841,-0.224632,0.449407,99847.33,-209,+63,-22
41679,8.241,-4.613,2.219,0.202016,-0.271458,0.474416,99847.95,-209,+62,-22
41689,8.038,-5.123,1.853,0.252034,-0.291146,0.465371,99847.95,-209,+60,-23
41699,7.908,-5.469,1.655,0.247777,-0.265072,0.419609,99850.47,-209,+58,-24
41709,7.927,-5.558,1.590,0.202016,-0.211861,0.377040,99848.03,-209,+58,-24
41719,7.969,-5.317,1.796,0.147740,-0.159715,0.325426,99849.59,-209,+57,-24
41730,7.941,-5.139,1.989,0.140291,-0.133641,0.279132,99847.72,-209,+56,-25
41739,7.945,-5.212,1.866,0.155722,-0.119274,0.247206,99847.72,-209,+55,-26
41749,8.026,-5.418,1.965,0.167961,-0.104375,0.201976,99848.31,-209,+55,-26
41759,7.905,-5.506,1.936,0.150401,-0.069788,0.160472,99851.44,-209,+55,-26
41769,7.865,-5.508,1.422,0.078034,-0.011788,0.115774,99850.81,-209,+54,-25
41779,8.005,-5.260,1.665,-0.016681,0.060047,0.062031,99848.22,-209,+54,-25
41785,8.221,-4.986,1.966,-0.064039,0.102616,0.037554,99848.22,-209,+54,-25
41794,8.239,-4.715,2.032,-0.071489,0.118047,0.041811,99848.22,-209,+54,-24
41804,8.221,-4.561,2.030,-0.049672,0.117515,0.077463,99849.45,-209,+54,-24
41815,8.107,-4.661,2.019,-0.017214,0.105808,0.121628,99846.08,-210,+53,-23
41824,8.058,-4.969,1.408,-0.012957,0.094102,0.142380,99848.31,-210,+52,-24
41834,8.008,-5.220,1.686,-0.031048,0.110065,0.124288,99847.42,-209,+53,-23
41844,8.170,-5.366,1.744,-0.040094,0.131350,0.087573,99851.27,-209,+53,-22
41854,8.071,-5.314,1.783,-0.040094,0.140928,0.046600,99848.00,-209,+52,-22
41864,8.206,-5.230,2.376,-0.068296,0.180304,0.033297,99848.00,-210,+52,-22
41874,8.106,-5.151,2.461,-0.095966,0.180836,0.055114,99847.22,-210,+51,-22
41884,7.858,-5.107,2.412,-0.107140,0.168065,0.080123,99847.73,-211,+52,-22
41894,7.863,-5.092,2.650,-0.108204,0.145716,0.085444,99847.73,-211,+52,-22
41905,7.873,-4.889,3.304,-0.120088,0.102261,0.076930,99847.84,-211,+50,-21
41914,7.781,-4.653,3.131,-0.114590,0.068028,0.088637,99847.84,-210,+50,-20
41924,7.942,-4.853,2.533,-0.079470,0.027588,0.104068,99850.10,-210,+50,-21
41934,8.093,-5.169,2.308,-0.033177,-0.012852,0.111518,99846.77,-210,+50,-21
41945,8.161,-5.043,2.458,-0.020938,-0.036797,0.115774,99846.77,-210,+50,-21
41955,8.155,-5.000,2.396,-0.009764,-0.049568,0.133866,99849.14,-211,+49,-22
41964,8.190,-5.035,2.416,0.031208,-0.075641,0.152490,99846.00,-210,+48,-20
41974,8.218,-5.235,2.436,0.066328,-0.099054,0.161004,99848.08,-210,+48,-20
41985,8.075,-5.381,2.545,0.069520,-0.108632,0.151958,99848.08,-209,+48,-22
41994,7.977,-5.285,2.609,0.048768,-0.109696,0.135463,99848.08,-210,+47,-22
42004,7.972,-5.175,2.479,0.022695,-0.110228,0.128013,99848.06,-210,+48,-22
42014,8.051,-5.084,2.309,0.013649,-0.106504,0.134930,99848.84,-210,+48,-22
42024,7.994,-5.012,2.431,0.030676,-0.102779,0.151958,99849.05,-210,+47,-22
42034,7.871,-5.000,2.152,0.043979,-0.095861,0.172710,99847.86,-210,+47,-22
42044,7.808,-5.212,1.953,0.059410,-0.102779,0.179628,99847.86,-210,+46,-23
42054,7.887,-5.489,1.905,0.037062,-0.092669,0.170050,99851.69,-210,+46,-23
42064,8.010,-5.639,1.788,0.001942,-0.061274,0.149297,99848.16,-209,+45,-23
42075,7.866,-5.819,1.655,-0.052333,-0.030412,0.110453,99847.69,-209,+45,-23
42084,7.858,-5.621,1.830,-0.109269,0.019074,0.058307,99847.69,-210,+45,-23
42094,7.876,-5.611,2.246,-0.157158,0.061111,0.037554,99848.95,-210,+45,-23
42104,7.871,-5.467,2.132,-0.191746,0.077074,0.051921,99848.95,-209,+44,-23
42115,7.844,-5.278,2.008,-0.217819,0.090909,0.059903,99848.58,-210,+45,-23
42124,7.912,-5.304,1.939,-0.224204,0.102083,0.065756,99849.83,-210,+44,-22
42134,7.971,-5.424,2.033,-0.220479,0.101551,0.080655,99850.09,-210,+44,-22
42144,8.015,-5.419,2.308,-0.225268,0.093038,0.095022,99850.09,-210,+45,-22
42155,7.983,-5.213,2.503,-0.244424,0.074946,0.106196,99848.86,-209,+44,-22
42165,8.060,-5.053,2.850,-0.255067,0.042487,0.128545,99847.56,-210,+43,-22
42174,8.088,-4.768,3.156,-0.224736,-0.024559,0.150894,99846.67,-210,+43,-22
42184,7.865,-4.856,2.556,-0.203452,-0.064999,0.186013,99848.32,-210,+44,-22
42194,7.851,-5.038,2.515,-0.172057,-0.103843,0.219004,99849.57,-211,+42,-22
42205,7.924,-5.041,2.424,-0.163544,-0.121935,0.244545,99849.46,-210,+42,-22
42215,7.990,-5.077,2.158,-0.173654,-0.128852,0.284453,99848.32,-210,+42,-22
42224,7.924,-5.140,2.039,-0.155562,-0.148008,0.327554,99848.32,-209,+41,-23
42234,7.972,-5.192,1.991,-0.144388,-0.161311,0.365866,99848.90,-210,+40,-23
42245,7.969,-5.538,1.827,-0.145984,-0.170357,0.393536,99848.90,-209,+39,-24
42254,8.050,-5.542,1.914,-0.161947,-0.167696,0.421205,99850.45,-209,+39,-24
42260,8.058,-5.575,2.038,-0.186424,-0.166632,0.444086,99847.50,-209,+37,-25
42269,8.046,-5.585,2.019,-0.203984,-0.176742,0.466967,99847.50,-209,+37,-25
42279,8.079,-5.560,2.027,-0.234314,-0.184724,0.495701,99845.31,-209,+37,-25
42290,7.920,-5.681,2.236,-0.263048,-0.196430,0.523903,99845.31,-209,+35,-25
42299,7.901,-5.638,2.325,-0.279544,-0.219311,0.562747,99848.20,-208,+33,-26
42309,7.852,-5.635,2.416,-0.308278,-0.240063,0.592013,99849.86,-209,+31,-27
42319,8.021,-5.757,2.375,-0.336479,-0.260815,0.628196,99848.25,-209,+31,-27
42330,7.898,-5.890,2.337,-0.374259,-0.284228,0.663848,99845.30,-208,+28,-28
42339,7.949,-6.030,2.246,-0.393947,-0.314026,0.714398,99845.30,-207,+27,-29
42349,7.942,-5.963,2.237,-0.437580,-0.337439,0.752178,99847.41,-207,+24,-30
42359,7.930,-6.133,2.011,-0.481745,-0.361916,0.788361,99848.24,-207,+24,-30
42370,8.118,-6.271,2.000,-0.509947,-0.385861,0.833591,99851.82,-206,+22,-31
42380,8.361,-6.465,1.772,-0.536021,-0.402889,0.881480,99848.13,-206,+20,-31
42389,8.327,-6.649,1.322,-0.586571,-0.423109,0.897976,99848.13,-205,+16,-33
42399,8.527,-6.696,1.126,-0.633929,-0.434815,0.913407,99849.45,-205,+16,-33
42409,8.844,-6.708,1.206,-0.696718,-0.453971,0.929902,99848.94,-205,+14,-36
42420,9.352,-6.760,0.991,-0.761103,-0.474723,0.953847,99846.30,-204,+11,-36
42429,10.360,-6.917,0.815,-0.825488,-0.496008,0.962893,99847.84,-203,+9,-38
42439,10.800,-7.047,1.205,-0.847837,-0.570503,0.971407,99847.84,-203,+9,-38
42449,11.066,-7.206,1.061,-0.807929,-0.644467,1.021425,99850.07,-202,+7,-41
42460,10.726,-7.568,0.545,-0.787176,-0.700338,1.091664,99850.43,-201,+2,-43
42469,10.322,-6.291,0.545,-0.759507,-0.757806,1.148067,99848.62,-200,+0,-46
42479,10.173,-6.475,0.551,-0.793030,-0.763127,1.163499,99849.20,-200,+0,-46
42489,10.680,-6.183,1.213,-0.769617,-0.828044,1.228416,99849.20,-198,-3,-49
42496,10.926,-6.367,1.636,-0.773874,-0.837090,1.275242,99846.51,-195,-6,-51
42505,10.847,-6.755,1.781,-0.784516,-0.871145,1.329517,99846.51,-195,-6,-51
42515,10.913,-6.789,2.206,-0.819103,-0.907861,1.406673,99848.90,-194,-9,-54
42524,11.036,-6.943,3.066,-0.921268,-0.885512,1.474783,99843.91,-191,-14,-57
42534,11.382,-7.113,3.659,-1.060149,-0.825916,1.589186,99846.35,-189,-18,-61
42545,11.737,-6.908,4.031,-1.176681,-0.766852,1.724874,99848.67,-189,-18,-61
42555,11.673,-6.584,3.914,-1.274589,-0.735457,1.835553,99849.44,-186,-22,-63
42564,10.951,-6.212,3.242,-1.287359,-0.742375,1.962727,99841.81,-184,-27,-66
42574,10.178,-7.047,2.440,-1.221378,-0.757806,2.214947,99841.81,-179,-32,-69
42585,10.287,-7.640,2.097,-1.017048,-0.862631,2.540599,99847.63,-179,-32,-69
42594,11.021,-7.434,2.330,-0.868589,-0.900411,2.645424,99847.63,-176,-39,-72
42604,11.148,-7.042,2.989,-0.866461,-0.899347,2.658195,99847.93,-171,-46,-76
42614,11.429,-6.780,2.829,-0.949470,-0.874870,2.674158,99848.09,-166,-53,-79
42625,11.176,-7.020,2.746,-1.113892,-0.831769,2.675755,99845.34,-166,-53,-79
42635,10.793,-7.289,3.154,-1.228827,-0.792925,2.668837,99846.90,-161,-59,-82
42645,10.648,-7.006,3.549,-1.239470,-0.792393,2.568800,99846.90,-156,-63,-85
42654,10.190,-5.988,3.535,-1.126130,-0.797182,2.394801,99845.82,-150,-69,-89
42664,8.818,-4.981,3.076,-0.960644,-0.749292,2.184617,99845.12,-150,-69,-89
42675,6.176,-4.840,1.756,-0.883488,-0.653512,2.014342,99844.45,-146,-73,-92
42685,9.374,-3.821,1.856,-0.996828,-0.237935,1.338031,99844.45,-142,-76,-94
42694,0.010,-5.660,-0.017,-0.730241,-0.661494,1.157113,99844.45,-139,-78,-97
42704,3.386,-4.137,2.701,-0.438644,-0.599769,1.149664,99850.41,-139,-78,-97
42715,7.384,-1.800,5.034,-0.223672,-0.322540,0.316380,99848.19,-136,-80,-98
42725,8.682,0.076,3.761,-0.117782,-0.177274,-0.445069,99845.58,-136,-78,-98
42734,8.047,1.664,2.280,0.006199,-0.146412,-0.664298,99845.22,-137,-78,-99
42744,5.918,1.256,1.308,0.281832,-0.082026,-0.769656,99845.22,-137,-78,-99
42755,3.803,0.205,1.069,0.611740,0.025992,-1.003785,99847.91,-137,-78,-98
42765,2.725,-0.230,1.136,0.852786,0.180836,-1.369876,99845.79,-139,-78,-97
42775,2.509,-0.193,1.420,0.862364,0.464450,-1.828022,99845.20,-142,-76,-95
42784,3.006,-0.187,1.789,0.745832,0.801276,-2.274995,99845.20,-142,-76,-95
42795,3.984,-0.100,1.914,0.693153,1.077441,-2.661839,99844.01,-147,-72,-90
42805,5.057,-0.058,1.674,0.772437,1.264743,-3.023673,99843.59,-154,-66,-87
42814,5.920,-0.298,1.496,0.953887,1.377018,-3.326976,99843.59,-161,-61,-82
42824,6.571,-0.930,1.429,1.180033,1.464284,-3.568553,99842.80,-161,-61,-82
42834,7.255,-1.670,1.380,1.409373,1.537716,-3.787251,99844.16,-169,-55,-77
42845,7.653,-2.479,1.265,1.608914,1.628174,-4.005416,99844.16,-177,-47,-71
42855,7.899,-3.066,1.067,1.774932,1.730339,-4.196975,99845.54,-186,-38,-64
42865,8.194,-3.404,0.837,1.906895,1.841550,-4.347562,99842.95,-193,-28,-56
42874,8.515,-3.900,0.799,2.033537,1.952229,-4.467819,99841.34,-193,-28,-56
42885,9.148,-4.428,0.853,2.174546,2.033642,-4.585415,99842.43,-200,-16,-49
42895,10.043,-5.195,1.007,2.279372,2.114523,-4.706204,99844.97,-206,-4,-39
42905,10.974,-6.362,1.089,2.265537,2.197000,-4.821140,99844.66,-212,+9,-31
42914,11.599,-7.889,1.148,2.149005,2.284266,-4.924369,99845.17,-212,+9,-31
42925,12.499,-9.134,1.252,2.007464,2.361954,-4.999929,99842.69,-216,+25,-24
42935,13.639,-10.381,1.085,1.837721,2.424211,-5.053672,99842.69,-216,+41,-15
42944,14.101,-11.687,0.845,1.683941,2.443899,-5.063250,99842.69,-217,+58,-7
42954,13.844,-12.748,0.780,1.572730,2.442302,-4.990351,99849.79,-217,+58,-7
42964,13.496,-13.365,0.535,1.488657,2.416229,-4.834975,99846.68,-215,+75,-1
42970,13.057,-13.351,0.178,1.395006,2.365146,-4.652461,99845.65,-215,+75,-1
42980,13.231,-13.884,-0.086,1.217813,2.322577,-4.395984,99844.91,-213,+89,+4
42989,12.956,-15.439,-0.107,1.042749,2.208174,-4.059159,99844.91,-209,+104,+11
42999,12.207,-17.567,-0.752,1.009226,1.934137,-3.677636,99848.29,-206,+115,+14
43010,11.477,-18.914,-2.231,1.002841,1.585605,-3.365288,99850.26,-206,+115,+14
43020,9.710,-17.843,-3.585,0.950162,1.283367,-3.136480,99846.26,-202,+125,+17
43030,7.347,-15.955,-4.181,0.847997,1.106175,-2.755490,99848.40,-200,+135,+19
43039,5.416,-15.707,-5.064,0.796914,0.889606,-2.071197,99848.40,-197,+141,+20
43049,4.196,-16.371,-6.174,0.813942,0.526175,-1.213436,99850.73,-197,+141,+20
43060,3.502,-16.891,-7.098,0.763391,0.090909,-0.309381,99850.22,-196,+143,+21
43070,4.829,-15.969,-6.122,0.675593,-0.349146,0.507407,99849.75,-198,+143,+19
43079,5.052,-14.740,-5.015,0.671869,-0.722154,1.173609,99848.19,-200,+138,+15
43089,6.631,-13.966,-0.768,0.321740,-0.698210,2.001039,99848.19,-200,+138,+15
43100,22.211,-5.291,11.431,0.140291,-0.332650,1.610471,99849.47,-204,+131,+15
43110,29.583,11.726,4.596,-0.208773,-0.491751,0.211554,99850.20,-204,+128,+12
43119,15.443,13.766,1.213,-2.351579,0.410707,1.614196,99848.80,-206,+123,+15
43129,2.599,-5.404,-0.679,-2.213231,0.301093,2.365535,99848.84,-209,+115,+17
43140,8.726,-14.245,5.333,-0.076278,-0.910521,2.879020,99848.84,-209,+115,+17
43150,11.943,-11.132,7.183,1.256657,-1.347916,3.196158,99847.86,-212,+104,+12
43160,7.354,-12.193,3.954,0.787336,-1.020668,2.877956,99849.11,-214,+93,+9
43169,6.957,-10.852,0.412,0.226493,-1.000980,2.730562,99848.44,-216,+84,+5
43180,6.540,-9.053,0.390,0.089741,-1.004173,2.349571,99844.64,-216,+84,+5
43190,5.929,-9.401,3.658,-0.220479,-0.837090,1.865351,99844.64,-218,+76,+3
43200,6.390,-9.727,2.942,-0.868589,-0.672136,1.423700,99850.82,-218,+70,+1
43205,7.218,-8.017,0.673,-1.214460,-0.442265,0.938948,99848.91,-218,+70,+1
43214,8.127,-5.257,0.311,-1.315029,-0.130448,0.597866,99848.91,-218,+68,+1
43225,8.956,-3.843,0.001,-1.304919,0.045680,0.521242,99846.88,-219,+67,+1
43235,9.530,-3.431,0.045,-0.957984,-0.001146,0.576049,99846.77,-219,+67,+1
43245,9.742,-4.127,0.337,-0.636589,-0.024027,0.684068,99846.77,-218,+65,+1
43255,9.906,-4.685,1.118,-0.419488,-0.042650,0.799536,99849.45,-218,+63,+1
43265,9.293,-5.402,2.721,-0.350846,-0.058082,0.771334,99848.90,-219,+60,+1
43275,7.991,-5.661,3.569,-0.375323,-0.044247,0.633517,99848.34,-219,+60,+1
43285,7.431,-5.431,4.559,-0.461525,0.026524,0.445682,99848.34,-220,+57,+2
43294,7.499,-4.734,4.067,-0.599874,0.093570,0.287114,99848.34,-219,+57,+1
43304,7.777,-3.901,4.084,-0.728112,0.152634,0.201444,99850.91,-220,+56,+2
43315,8.356,-3.474,4.361,-0.717470,0.133478,0.155151,99846.87,-220,+56,+2
43325,8.583,-3.406,4.121,-0.613176,0.091973,0.144508,99846.04,-220,+55,+4
43334,8.475,-3.814,3.499,-0.554644,0.046744,0.174307,99847.71,-220,+56,+3
43344,8.477,-3.528,3.669,-0.474296,0.013753,0.189738,99847.71,-220,+55,+3
43355,8.346,-3.912,3.082,-0.469507,0.011625,0.202508,99847.38,-220,+55,+3
43365,8.436,-4.008,2.937,-0.460993,-0.023494,0.208894,99849.07,-220,+55,+3
43375,8.564,-4.003,2.722,-0.455672,-0.033072,0.200912,99845.93,-220,+54,+3
43384,8.402,-4.181,2.313,-0.462589,-0.040522,0.219536,99845.93,-220,+54,+3
43395,8.196,-4.139,2.509,-0.457268,-0.038393,0.240288,99849.77,-220,+52,+3
43405,8.148,-4.197,2.536,-0.454608,-0.035201,0.250398,99849.77,-220,+52,+3
43415,8.387,-4.549,2.067,-0.485470,-0.044247,0.248802,99848.27,-220,+52,+3
43424,8.842,-4.217,2.155,-0.517397,-0.039990,0.256251,99847.86,-220,+51,+3
43435,8.738,-4.211,2.106,-0.516865,-0.028816,0.285517,99847.48,-220,+50,+3
43445,8.435,-4.381,1.887,-0.475892,-0.054889,0.322233,99847.48,-220,+50,+3
43455,8.241,-4.187,2.319,-0.454608,-0.070852,0.337132,99851.46,-219,+48,+3
43465,7.978,-4.285,2.657,-0.415232,-0.089476,0.359481,99849.02,-220,+47,+2
43474,7.847,-4.434,3.011,-0.330626,-0.137366,0.384490,99849.43,-220,+46,+2
43485,7.799,-4.506,3.078,-0.276351,-0.186852,0.393004,99846.43,-220,+46,+2
43495,7.773,-4.806,3.147,-0.267305,-0.207072,0.398325,99848.51,-220,+45,+2
43505,7.980,-5.132,2.735,-0.282204,-0.204944,0.396196,99847.99,-220,+43,+1
43515,8.090,-5.183,2.088,-0.334883,-0.189513,0.383426,99851.01,-220,+42,+0
43525,8.386,-4.859,1.691,-0.375323,-0.179935,0.374912,99851.01,-220,+42,+0
43535,8.552,-4.916,1.127,-0.398204,-0.182063,0.373316,99845.35,-219,+40,+0
43545,8.651,-4.819,1.201,-0.389158,-0.211861,0.380233,99845.35,-218,+40,+0
43554,8.616,-4.370,1.521,-0.358828,-0.225696,0.390875,99849.23,-219,+38,+0
43560,8.393,-4.337,1.722,-0.320516,-0.235806,0.413224,99846.95,-219,+38,+0
43570,7.993,-4.522,2.088,-0.252406,-0.275182,0.449939,99847.78,-218,+37,-2
43580,7.748,-4.758,2.256,-0.171525,-0.317751,0.495169,99848.52,-218,+37,-2
43590,7.668,-5.077,2.439,-0.161415,-0.339036,0.519646,99848.52,-219,+36,-3
43599,7.857,-5.089,2.671,-0.181635,-0.335843,0.530820,99851.37,-218,+33,-4
43610,8.093,-5.273,2.519,-0.221012,-0.316155,0.539866,99849.07,-218,+31,-5
43620,8.167,-5.560,2.117,-0.248149,-0.309237,0.549444,99846.95,-218,+29,-6
43630,8.276,-5.539,1.772,-0.285929,-0.313494,0.544123,99847.21,-218,+29,-6
43639,8.344,-5.141,1.878,-0.322112,-0.302852,0.524967,99847.21,-218,+28,-6
43650,8.375,-5.062,1.713,-0.317856,-0.306045,0.516453,99850.84,-217,+26,-8
43660,8.334,-5.289,1.452,-0.289654,-0.334247,0.529756,99848.66,-218,+24,-9
43670,8.321,-5.600,1.289,-0.271562,-0.353402,0.530288,99848.61,-218,+24,-9
43680,8.341,-5.864,1.254,-0.293911,-0.341164,0.520001,99848.88,-217,+23,-10
43689,8.464,-5.799,1.224,-0.340204,-0.321476,0.505811,99848.88,-216,+21,-11
43700,8.479,-5.492,1.207,-0.380645,-0.308173,0.504215,99849.31,-216,+19,-12
43710,8.490,-5.315,1.322,-0.380645,-0.319347,0.525499,99846.83,-216,+19,-12
43720,8.515,-5.218,1.541,-0.350846,-0.360852,0.573389,99849.73,-216,+18,-13
43729,8.543,-5.052,1.934,-0.308278,-0.402357,0.625536,99845.95,-216,+15,-14
43740,8.545,-5.025,2.200,-0.267837,-0.451843,0.688857,99845.95,-215,+13,-16
43750,8.550,-5.170,2.316,-0.227397,-0.511439,0.768673,99850.38,-215,+13,-16
43760,8.555,-5.638,2.311,-0.206112,-0.562522,0.834123,99847.68,-214,+9,-17
43769,8.428,-6.291,2.176,-0.229525,-0.592852,0.883077,99847.37,-212,+7,-20
43780,8.368,-6.498,1.972,-0.319984,-0.582210,0.907554,99849.24,-212,+4,-21
43790,8.417,-6.195,1.626,-0.425342,-0.554008,0.927774,99849.24,-212,+4,-21
43800,8.518,-6.039,1.176,-0.479617,-0.541237,0.967150,99850.61,-212,+1,-22
43809,8.682,-5.952,0.937,-0.491323,-0.548155,1.011847,99849.20,-210,-1,-25
43820,8.720,-6.118,0.670,-0.506222,-0.557200,1.051756,99847.86,-209,-4,-26
43830,8.897,-6.354,0.348,-0.506222,-0.583274,1.088471,99847.70,-209,-4,-26
43840,8.982,-6.570,0.129,-0.524846,-0.609879,1.107095,99847.70,-207,-7,-29
43850,8.975,-6.528,0.286,-0.552516,-0.641806,1.133700,99852.09,-207,-11,-31
43859,9.002,-6.613,0.542,-0.597213,-0.666815,1.180526,99849.03,-205,-13,-33
43870,9.222,-6.371,1.122,-0.644571,-0.696081,1.243315,99847.47,-205,-13,-33
43880,9.840,-6.219,1.695,-0.723323,-0.717898,1.294398,99849.30,-203,-16,-36
43890,10.687,-6.125,2.329,-0.799415,-0.772705,1.384856,99849.30,-201,-20,-38
43899,11.968,-6.440,2.456,-0.883488,-0.833898,1.508838,99848.50,-200,-24,-42
43910,12.703,-6.392,2.436,-1.017580,-0.857843,1.640269,99848.77,-200,-24,-42
43916,13.074,-5.984,2.172,-1.131451,-0.870081,1.738177,99847.94,-196,-29,-45
43925,13.700,-5.431,2.318,-1.212864,-0.893494,1.841938,99847.94,-193,-34,-49
43935,14.497,-4.768,2.978,-1.226167,-0.948301,1.978691,99845.50,-193,-34,-49
43945,15.327,-4.883,3.428,-1.139965,-1.039292,2.156948,99845.50,-189,-39,-53
43955,15.734,-5.548,4.097,-1.040461,-1.090907,2.392672,99846.13,-186,-44,-57
43965,15.005,-6.453,4.557,-0.934039,-1.108998,2.675755,99849.35,-180,-50,-61
43975,12.913,-8.837,3.809,-0.893598,-1.229787,2.992892,99846.91,-180,-50,-61
43985,11.867,-10.471,3.072,-0.705764,-1.414429,3.235002,99846.91,-174,-59,-66
43995,12.069,-10.061,3.429,-0.577525,-1.340466,3.072176,99846.91,-167,-67,-70
44005,12.138,-8.960,4.183,-0.741415,-1.184558,2.868378,99847.52,-161,-74,-74
44015,11.598,-8.068,3.505,-1.069195,-1.126558,2.788562,99848.08,-161,-74,-74
44025,10.136,-7.334,2.835,-1.306515,-1.078136,2.690121,99846.73,-155,-78,-77
44036,8.546,-6.271,2.179,-1.330460,-1.016589,2.441626,99845.75,-149,-82,-83
44045,7.022,-5.430,2.183,-1.279910,-0.873274,2.185149,99845.75,-143,-85,-87
44055,6.496,-3.655,2.264,-1.058552,-0.833898,1.913241,99846.53,-143,-85,-87
44065,14.346,-1.497,1.125,-1.255433,-0.368302,1.152324,99847.88,-139,-87,-90
44076,-3.477,-4.404,-0.690,-0.981929,-0.781751,0.787829,99848.23,-137,-87,-94
44085,-2.906,-4.878,1.464,-0.314131,-1.094099,1.029407,99847.21,-132,-89,-97
44095,4.512,-1.457,3.457,0.266933,-1.201053,0.742068,99847.84,-132,-89,-97
44105,7.286,1.443,2.287,0.195098,-0.877531,-0.454647,99846.12,-129,-89,-98
44114,6.421,2.976,1.063,-0.078938,-0.651916,-0.885656,99846.12,-130,-87,-100
44125,5.500,1.675,1.088,0.058878,-0.563054,-0.733473,99845.80,-130,-85,-102
44135,4.317,-0.134,1.387,0.449979,-0.557200,-0.918647,99843.68,-130,-85,-102
44145,3.232,-1.086,1.272,0.774034,-0.526870,-1.318261,99843.68,-131,-85,-103
44155,2.985,-1.497,1.489,0.949098,-0.389054,-1.716812,99844.13,-132,-84,-102
44165,3.223,-1.739,1.735,0.963465,-0.168760,-2.092481,99846.47,-137,-81,-102
44175,3.729,-1.603,1.563,0.903336,0.054194,-2.476132,99844.95,-137,-81,-102
44185,4.394,-1.300,1.127,0.884713,0.263313,-2.836903,99844.13,-141,-76,-101
44195,5.054,-1.274,0.796,0.953355,0.446891,-3.154572,99845.66,-147,-71,-99
44206,5.592,-1.593,0.623,1.111391,0.590028,-3.387636,99843.48,-154,-65,-96
44215,6.091,-2.080,0.581,1.307208,0.694854,-3.591966,99842.96,-154,-65,-96
44225,6.542,-2.814,0.780,1.509409,0.808725,-3.785654,99843.74,-160,-57,-93
44235,7.116,-3.740,1.047,1.715336,0.917276,-3.953801,99843.74,-168,-49,-90
44244,7.760,-4.750,1.292,1.881886,1.033276,-4.090021,99843.74,-176,-41,-86
44255,8.447,-5.751,1.665,2.020767,1.133312,-4.199636,99846.90,-176,-41,-86
44265,9.092,-6.607,2.127,2.136767,1.206743,-4.268810,99842.91,-183,-32,-81
44275,9.618,-7.321,2.573,2.227757,1.268468,-4.309783,99842.80,-190,-20,-77
44285,10.070,-8.023,2.760,2.262877,1.333918,-4.347030,99843.43,-195,-10,-71
44295,10.335,-8.777,2.844,2.216583,1.413734,-4.371507,99843.43,-195,-10,-71
44305,10.493,-9.560,2.731,2.072913,1.515899,-4.376828,99845.06,-198,+1,-67
44315,10.488,-10.351,2.718,1.851024,1.651055,-4.369379,99845.48,-204,+14,-61
44325,10.331,-10.858,2.726,1.591354,1.810156,-4.354480,99845.22,-207,+28,-57
44336,10.281,-10.963,2.596,1.302419,2.007569,-4.352883,99845.22,-209,+41,-51
44345,10.421,-10.581,2.392,1.008162,2.229458,-4.352351,99846.99,-209,+41,-51
44355,10.924,-9.894,2.053,0.764456,2.426339,-4.308186,99846.99,-209,+57,-45
44365,11.393,-9.354,1.695,0.595777,2.546596,-4.208682,99846.21,-209,+71,-38
44376,11.589,-9.040,1.337,0.504786,2.572137,-4.054369,99846.79,-209,+85,-33
44385,11.691,-8.960,0.946,0.455300,2.514669,-3.846847,99845.12,-209,+85,-33
44395,11.697,-9.586,0.521,0.431887,2.440706,-3.669654,99845.12,-207,+98,-26
44405,11.314,-9.998,0.361,0.438805,2.329495,-3.527049,99846.84,-204,+110,-22
44416,11.182,-9.949,0.269,0.433483,2.224137,-3.441379,99847.31,-202,+121,-17
44426,10.992,-9.415,0.391,0.394639,2.125697,-3.381783,99848.56,-202,+121,-17
44435,10.751,-8.651,0.639,0.331318,2.023532,-3.284407,99845.53,-198,+131,-12
44445,10.573,-8.170,0.842,0.280236,1.922963,-3.130095,99849.22,-196,+141,-8
44455,10.440,-8.105,0.858,0.254162,1.804303,-2.923104,99847.39,-192,+149,-5
44466,9.765,-8.166,0.720,0.216915,1.688835,-2.699086,99848.17,-192,+149,-5
44475,8.925,-8.058,0.265,0.142419,1.600505,-2.445270,99848.17,-190,+157,-1
44485,8.222,-7.944,-0.308,0.029080,1.543569,-2.158995,99846.92,-187,+164,+1
44495,7.889,-8.029,-0.437,-0.087452,1.473330,-1.847178,99846.92,-185,+168,+5
44506,7.663,-8.072,-0.628,-0.175250,1.333385,-1.512481,99849.46,-185,+168,+5
44515,7.258,-8.135,-0.916,-0.249213,1.141294,-1.169271,99847.96,-184,+173,+9
44525,6.728,-8.336,-0.727,-0.305617,0.910890,-0.807968,99848.16,-183,+175,+11
44535,6.328,-8.494,-0.305,-0.355635,0.660267,-0.410482,99848.48,-184,+175,+13
44546,6.196,-8.517,0.348,-0.412039,0.426670,0.023187,99848.48,-184,+175,+13
44556,6.463,-8.540,0.610,-0.468975,0.214359,0.480802,99848.80,-186,+175,+14
44565,6.899,-9.026,0.565,-0.495048,-0.004871,0.965022,99847.63,-188,+171,+14
44575,7.039,-9.787,0.288,-0.483342,-0.242192,1.463609,99851.56,-193,+166,+15
44585,9.779,-9.055,1.503,-0.423745,-0.444925,1.861094,99851.56,-193,+166,+15
44595,18.944,-5.528,4.174,-0.493452,-0.107036,1.553535,99851.56,-197,+160,+15
44605,16.997,4.188,8.074,-0.294975,-0.242724,1.251297,99852.13,-199,+154,+14
44615,31.000,20.237,9.518,-0.022535,-0.096926,0.493572,99847.83,-201,+153,+14
44625,22.312,16.971,-1.035,-1.091720,-0.528467,1.666165,99847.33,-201,+153,+14
44635,2.751,2.558,-8.859,-0.833470,-0.778026,2.714598,99847.33,-205,+146,+14
44645,5.222,-7.988,-3.919,0.975171,-1.537879,2.893387,99847.33,-209,+136,+9
44655,13.775,-8.315,-4.271,1.992565,-1.865126,3.428690,99847.40,-213,+124,+1
44665,11.366,-7.956,-2.131,1.181630,-1.378246,3.198818,99853.32,-213,+124,+1
44676,6.824,-9.975,7.212,0.522346,-0.782283,2.842305,99846.74,-216,+113,-2
44685,7.160,-11.523,13.250,0.863428,-0.538577,2.933296,99846.74,-220,+102,-5
44695,9.857,-8.413,9.970,1.121501,-1.056319,2.905094,99846.51,-221,+91,-8
44705,5.728,-4.465,4.525,0.816602,-1.516594,2.352232,99846.51,-221,+91,-8
44716,3.210,-7.210,8.197,0.321740,-1.192539,2.112250,99850.04,-223,+84,-12
44725,5.200,-10.643,7.997,-0.198131,-1.036631,1.933993,99847.80,-223,+75,-16
44735,7.500,-8.454,1.118,-0.831874,-1.112723,1.377939,99843.60,-223,+71,-20
44746,7.697,-4.920,-1.876,-1.442558,-0.641983,0.993578,99852.09,-223,+71,-20
44755,9.086,-3.778,-1.159,-1.493286,-0.344889,0.882545,99852.09,-223,+69,-20
44766,9.591,-2.621,-1.202,-1.016516,-0.297531,0.886802,99849.23,-223,+66,-20
44775,9.787,-2.067,-0.041,-0.372663,-0.316687,1.013976,99847.51,-224,+63,-21
44785,9.427,-2.205,0.878,0.228089,-0.391714,1.179994,99848.08,-224,+63,-21
44795,8.946,-2.663,2.033,0.681979,-0.488026,1.287480,99851.41,-224,+58,-22
44806,8.544,-3.446,4.146,0.902272,-0.548687,1.244379,99848.50,-223,+52,-25
44816,8.066,-4.669,6.002,0.821391,-0.604026,1.076233,99848.19,-223,+48,-26
44825,7.435,-6.157,6.092,0.394639,-0.610411,0.946930,99848.19,-223,+48,-26
44835,6.912,-6.783,4.905,-0.263048,-0.454503,0.813902,99848.81,-223,+44,-28
44846,7.537,-5.219,3.901,-0.816974,-0.255494,0.597866,99848.81,-223,+43,-29
44855,8.484,-3.208,3.208,-1.029286,-0.171421,0.502086,99849.02,-223,+41,-29
44865,9.153,-2.329,2.703,-0.936699,-0.149072,0.568068,99849.84,-223,+39,-30
44875,9.403,-2.748,2.153,-0.714809,-0.187916,0.723444,99848.70,-223,+39,-30
44886,9.077,-3.412,1.119,-0.507287,-0.299127,0.862857,99849.22,-223,+37,-30
44896,8.610,-4.148,1.399,-0.391287,-0.339568,0.957572,99849.22,-222,+33,-32
44905,8.344,-4.803,1.926,-0.391287,-0.292210,0.981517,99848.91,-223,+31,-32
44915,7.822,-5.678,2.663,-0.496644,-0.190577,0.937352,99850.00,-223,+31,-32
44925,7.755,-6.159,2.981,-0.678094,-0.078834,0.861792,99849.38,-223,+28,-33
44936,8.107,-5.752,2.867,-0.855286,-0.026155,0.810178,99849.38,-223,+25,-32
44945,8.111,-5.262,2.595,-0.968626,0.000451,0.808049,99849.38,-222,+24,-33
44955,8.247,-5.139,2.199,-1.005873,0.004175,0.808049,99850.95,-222,+24,-33
44965,8.349,-5.060,2.217,-1.021305,0.014817,0.795811,99850.28,-221,+21,-33
44976,8.550,-5.120,2.394,-1.044185,0.040891,0.802196,99849.81,-221,+19,-33
44985,8.726,-5.083,2.230,-1.052699,0.033441,0.808049,99848.72,-222,+17,-34
44995,8.722,-4.894,2.655,-1.004809,-0.017109,0.824013,99848.72,-222,+17,-34
45005,8.611,-4.555,3.172,-0.925525,-0.109164,0.839976,99850.28,-221,+14,-33
45016,8.173,-4.600,2.917,-0.813782,-0.206540,0.864985,99847.38,-221,+13,-34
45026,7.706,-5.038,2.700,-0.692461,-0.297531,0.909682,99846.58,-220,+10,-36
45035,7.417,-5.449,2.701,-0.595085,-0.357127,0.930967,99846.58,-220,+10,-36
45045,7.437,-5.673,2.124,-0.597745,-0.359256,0.929902,99850.65,-220,+7,-36
45056,7.622,-5.904,1.861,-0.648296,-0.341164,0.933095,99847.43,-218,+3,-38
45066,7.817,-5.905,1.838,-0.677030,-0.334247,0.945334,99847.43,-218,+1,-39
45075,8.038,-5.720,1.954,-0.708424,-0.332650,0.955444,99850.34,-218,+1,-39
45085,7.966,-5.550,1.971,-0.718534,-0.351806,0.986306,99847.79,-217,+0,-41
45095,7.929,-5.340,1.938,-0.696186,-0.405549,1.048563,99847.79,-216,-3,-41
45101,7.799,-5.225,2.064,-0.662131,-0.459292,1.099645,99847.76,-216,-3,-41
45111,7.714,-5.220,1.981,-0.591360,-0.521017,1.157113,99849.95,-215,-6,-44
45120,7.756,-5.484,1.835,-0.500369,-0.595512,1.216710,99847.66,-214,-10,-46
45130,7.917,-5.874,1.880,-0.444498,-0.658833,1.258746,99847.35,-212,-14,-47
45140,8.259,-6.346,1.388,-0.416296,-0.704063,1.293333,99847.35,-212,-14,-47
45151,8.612,-6.945,0.991,-0.430663,-0.731732,1.306636,99850.59,-211,-18,-50
45160,8.774,-7.129,0.984,-0.487599,-0.741310,1.320471,99846.34,-209,-23,-53
45170,8.957,-7.137,0.974,-0.556773,-0.725879,1.348141,99846.81,-206,-27,-55
45180,8.945,-7.197,0.926,-0.622222,-0.723219,1.378471,99846.19,-206,-27,-55
45191,8.959,-7.406,1.037,-0.638718,-0.737054,1.408801,99846.19,-204,-30,-58
45201,9.090,-7.546,1.110,-0.654149,-0.738650,1.431150,99848.73,-202,-35,-60
45210,9.263,-7.671,0.691,-0.690332,-0.731200,1.448177,99848.36,-200,-39,-62
45220,9.544,-7.645,0.606,-0.739819,-0.726411,1.453498,99846.23,-200,-39,-62
45231,9.868,-7.689,0.475,-0.772277,-0.729072,1.454563,99844.89,-197,-41,-65
45241,10.119,-8.061,0.143,-0.791433,-0.743439,1.454031,99844.89,-194,-44,-68
45250,10.326,-8.128,0.260,-0.827085,-0.749824,1.450838,99849.20,-191,-48,-71
45260,10.319,-8.256,0.512,-0.929250,-0.739714,1.434875,99847.85,-191,-48,-71
45271,10.486,-8.211,0.827,-1.077176,-0.730136,1.410398,99848.68,-187,-50,-73
45281,11.156,-7.914,1.355,-1.267139,-0.705127,1.407205,99845.73,-185,-52,-77
45290,12.731,-7.063,2.149,-1.493286,-0.687567,1.394966,99845.73,-183,-53,-80
45300,14.612,-6.292,4.015,-1.690699,-0.699274,1.397627,99846.89,-183,-53,-80
45310,16.817,-6.289,5.998,-1.813084,-0.693421,1.488618,99847.89,-179,-55,-84
45321,18.574,-7.073,6.089,-1.905671,-0.735457,1.799902,99846.48,-176,-56,-88
45330,18.600,-7.334,5.755,-2.082864,-0.799310,2.300617,99847.42,-170,-58,-92
45336,17.862,-7.344,5.663,-2.221212,-0.810485,2.660856,99847.42,-170,-58,-92
45345,17.174,-7.563,5.459,-2.320717,-0.822191,3.047699,99847.42,-165,-62,-95
45356,16.185,-7.397,5.781,-2.220680,-0.958943,3.499993,99850.03,-158,-67,-101
45366,17.121,-6.705,6.404,-1.891304,-1.057384,3.546286,99852.00,-158,-67,-101
45376,17.177,-6.971,7.657,-1.724222,-1.144650,3.239791,99845.92,-151,-71,-104
45385,14.087,-6.573,7.918,-1.883855,-1.275549,2.895516,99845.22,-144,-74,-109
45395,10.810,-4.536,5.027,-1.915781,-1.313329,2.542195,99850.09,-138,-74,-114
45406,10.028,-1.314,3.719,-1.632167,-1.111127,2.140984,99847.91,-138,-74,-114
45415,27.629,0.983,5.422,-1.622057,-0.500265,1.452966,99847.91,-133,-74,-117
45425,-4.011,-1.841,1.185,-0.988314,-0.733329,0.748985,99843.97,-131,-72,-120
45435,-10.506,-4.102,-1.196,0.343557,-1.269696,0.779847,99847.39,-126,-74,-122
45446,-0.516,-2.995,2.974,0.973575,-1.402723,0.851150,99847.39,-126,-74,-122
45456,7.909,-0.084,3.818,1.604125,-1.426668,0.038619,99847.45,-123,-76,-122
45465,7.839,-1.081,3.716,1.566345,-1.210099,-0.535528,99846.11,-121,-77,-122
45475,5.584,-2.411,3.283,1.305611,-1.064301,-0.537124,99844.97,-119,-78,-122
45486,2.869,-3.130,1.853,1.213556,-0.930209,-0.687179,99841.59,-119,-78,-122
45496,1.041,-3.604,1.483,1.149171,-0.687035,-1.003785,99841.59,-117,-76,-120
45506,-0.049,-3.699,1.417,1.046474,-0.413531,-1.364555,99846.17,-119,-74,-121
45515,-0.105,-3.699,0.706,0.843208,-0.059678,-1.745013,99845.45,-121,-72,-120
45526,0.758,-3.408,0.107,0.492548,0.363349,-2.132921,99844.36,-121,-72,-120
45536,1.943,-3.115,-0.261,0.126988,0.778927,-2.516572,99844.36,-125,-66,-119
45545,3.062,-2.758,-0.458,-0.095966,1.123734,-2.864572,99844.36,-131,-57,-115
45555,3.946,-2.266,-0.708,-0.140663,1.386596,-3.170535,99845.30,-137,-50,-113
45565,4.420,-1.885,-0.872,-0.017746,1.591991,-3.386572,99844.37,-137,-50,-113
45576,4.822,-1.801,-0.961,0.246713,1.741514,-3.530241,99845.46,-143,-41,-111
45586,5.285,-2.029,-0.841,0.590456,1.830908,-3.658480,99842.65,-150,-31,-106
45595,5.804,-2.554,-0.776,0.969318,1.883587,-3.805342,99842.65,-157,-23,-101
45605,6.536,-3.406,-0.661,1.296033,1.941587,-3.962315,99844.11,-157,-23,-101
45616,7.370,-4.331,-0.443,1.523776,2.002248,-4.107049,99844.55,-163,-14,-96
45626,8.145,-5.059,-0.157,1.723318,2.048541,-4.200168,99843.86,-171,-5,-90
45636,8.835,-5.906,0.365,1.934565,2.075146,-4.250718,99843.86,-176,+4,-84
45645,9.799,-6.821,0.876,2.183060,2.040027,-4.272003,99846.64,-176,+4,-84
45656,10.654,-7.568,0.951,2.415592,1.939991,-4.293819,99846.64,-181,+14,-78
45666,11.158,-8.402,0.900,2.538510,1.859110,-4.338516,99844.83,-185,+26,-72
45676,11.665,-9.809,0.938,2.518289,1.855385,-4.364058,99843.69,-188,+38,-69
45685,11.413,-11.093,1.104,2.318748,1.858046,-4.339048,99843.27,-188,+38,-69
45691,11.293,-11.816,1.380,2.066528,1.860706,-4.245929,99843.27,-190,+50,-65
45701,11.425,-12.651,1.587,1.771207,1.904871,-4.201232,99846.25,-190,+62,-62
45711,10.851,-13.015,1.820,1.405648,1.950101,-4.206553,99846.72,-190,+62,-62
45720,10.149,-12.082,1.748,1.148639,1.975642,-4.210810,99847.23,-190,+74,-60
45730,9.834,-10.462,1.735,0.962933,2.076211,-4.192186,99843.28,-189,+85,-57
45741,9.901,-9.438,1.762,0.863428,2.173587,-4.083636,99843.28,-188,+97,-53
45751,10.015,-8.911,1.600,0.858107,2.215091,-3.937305,99847.80,-188,+97,-53
45761,10.142,-8.711,1.431,0.882584,2.226266,-3.810663,99848.34,-188,+106,-50
45770,10.486,-8.860,1.171,0.863428,2.224669,-3.714352,99847.80,-188,+115,-45
45780,10.798,-8.946,0.870,0.760731,2.209238,-3.629746,99846.51,-188,+125,-40
45791,11.131,-9.083,0.544,0.599502,2.210302,-3.542480,99846.51,-188,+125,-40
45801,11.334,-9.166,0.495,0.428694,2.200724,-3.429141,99846.80,-186,+134,-33
45810,11.266,-9.136,0.377,0.307906,2.139532,-3.273765,99850.95,-185,+143,-28
45820,11.085,-8.668,0.138,0.269062,2.021404,-3.083802,99847.88,-183,+151,-21
45831,10.905,-8.077,-0.074,0.293006,1.896358,-2.878939,99849.02,-183,+151,-21
45841,10.572,-7.804,-0.264,0.393043,1.733532,-2.603838,99849.02,-181,+160,-15
45851,10.049,-7.763,-0.709,0.537777,1.491422,-2.265417,99852.30,-179,+168,-11
45860,9.308,-8.178,-1.551,0.681979,1.209936,-1.870591,99846.69,-177,+173,-8
45871,8.271,-9.117,-2.234,0.809153,0.906101,-1.384243,99848.30,-177,+173,-8
45881,7.001,-10.400,-2.926,0.920896,0.569808,-0.822867,99848.34,-176,+177,-6
45891,5.720,-11.815,-3.751,0.956015,0.221276,-0.215198,99848.34,-176,+178,-7
45900,4.971,-12.663,-4.089,0.895355,-0.153861,0.405242,99851.02,-177,+177,-7
45911,4.685,-12.598,-3.655,0.774566,-0.493347,1.001737,99851.27,-177,+177,-7
45921,5.196,-12.615,-2.949,0.659630,-0.816338,1.624306,99848.11,-180,+173,-10
45931,5.663,-13.034,-2.388,0.653245,-1.163274,2.234103,99850.66,-183,+168,-12
45940,7.354,-11.892,-0.544,0.760731,-1.454870,2.738011,99850.66,-189,+158,-19
45950,10.292,-4.567,7.090,1.213024,-1.565016,2.811443,99849.11,-189,+158,-19
45961,31.495,10.695,14.201,1.067226,-0.528999,1.235865,99847.03,-192,+149,-23
45971,42.519,28.172,4.437,-0.256663,-0.653512,0.381297,99846.41,-193,+149,-23
45980,17.084,10.222,-5.232,-2.774606,-0.458760,2.816764,99848.91,-196,+142,-20
45990,-8.657,-9.653,-5.134,-1.095268,-0.220375,2.762488,99848.91,-196,+142,-20
46001,11.524,-16.776,1.798,1.961171,-2.008796,3.594176,99849.77,-200,+134,-23
46011,15.671,-8.624,0.541,2.166033,-1.823090,3.912378,99849.39,-202,+119,-31
46021,7.353,-7.622,1.448,0.679318,-1.019604,3.255754,99850.17,-204,+108,-34
46030,4.931,-7.679,5.710,0.564915,-0.803035,3.209993,99848.09,-204,+108,-34
46041,7.234,-8.038,9.561,1.185887,-0.846136,3.281295,99848.09,-205,+97,-36
46047,7.117,-7.967,8.174,1.319446,-1.131879,3.032268,99847.52,-207,+85,-40
46056,4.720,-8.352,6.661,0.884713,-1.219145,2.698635,99847.52,-207,+85,-40
46066,4.735,-11.510,5.629,0.155722,-1.037696,2.439498,99847.56,-208,+76,-44
46075,7.439,-11.213,3.897,-0.642442,-0.956283,2.108526,99847.05,-208,+69,-46
46086,7.110,-7.956,0.132,-1.444332,-0.823255,1.647718,99845.03,-207,+65,-47
46096,7.201,-7.176,-2.754,-2.016882,-0.440136,1.423168,99849.52,-207,+65,-47
46106,9.223,-4.619,-2.298,-1.810423,-0.275182,1.214581,99847.55,-208,+63,-48
46116,9.412,-3.664,0.239,-1.131984,-0.194834,1.083682,99846.98,-207,+61,-48
46126,9.183,-3.270,0.432,-0.539213,-0.224632,1.107627,99846.98,-207,+58,-49
46136,9.056,-3.131,0.336,0.019502,-0.315623,1.168820,99847.87,-207,+58,-49
46146,8.776,-3.453,1.205,0.494676,-0.358191,1.220966,99847.87,-207,+54,-50
46155,8.756,-4.350,1.728,0.727740,-0.389054,1.190636,99850.90,-207,+49,-50
46166,7.954,-5.832,3.292,0.555869,-0.335311,1.032600,99847.26,-207,+44,-51
46176,7.427,-7.154,3.651,0.206805,-0.234742,0.781976,99848.40,-207,+44,-51
46186,7.082,-7.375,3.643,-0.242828,-0.083623,0.524435,99849.29,-207,+42,-52
46196,7.275,-6.122,3.685,-0.729176,0.118047,0.264765,99849.29,-207,+42,-52
46206,7.797,-4.961,2.653,-1.004277,0.234047,0.131206,99849.97,-207,+43,-51
46216,8.453,-4.160,2.064,-1.058552,0.262781,0.139719,99849.92,-207,+43,-51
46226,9.090,-4.082,2.033,-0.917543,0.250010,0.190270,99848.98,-207,+42,-50
46236,8.890,-4.473,1.748,-0.792497,0.233515,0.282325,99848.98,-208,+42,-49
46245,8.946,-4.223,1.495,-0.687140,0.201056,0.435572,99848.98,-208,+42,-49
46256,8.853,-4.010,1.508,-0.634461,0.211698,0.458985,99850.79,-208,+42,-49
46266,8.841,-5.105,1.584,-0.634993,0.251606,0.427059,99847.32,-208,+41,-47
46276,8.627,-6.528,1.945,-0.708424,0.297368,0.362673,99847.84,-208,+41,-47
46285,8.476,-6.304,2.615,-0.870718,0.354304,0.308930,99848.71,-209,+41,-46
46296,8.309,-5.101,3.093,-1.086754,0.426138,0.264765,99848.71,-209,+41,-46
46306,8.015,-4.317,3.457,-1.154332,0.397404,0.271683,99848.45,-209,+41,-44
46316,8.169,-3.881,3.677,-1.061213,0.305882,0.301481,99849.84,-209,+41,-44
46326,8.384,-4.004,3.918,-0.930314,0.203716,0.316380,99847.40,-209,+41,-44
46336,8.381,-4.129,3.799,-0.798351,0.082395,0.338196,99847.40,-210,+39,-44
46346,8.119,-4.293,3.459,-0.702039,-0.010724,0.388747,99849.02,-210,+39,-44
46356,7.796,-4.767,2.934,-0.630736,-0.069788,0.437169,99845.34,-209,+40,-43
46366,7.876,-5.065,2.809,-0.589764,-0.103311,0.476545,99845.34,-209,+38,-44
46375,7.931,-5.199,2.698,-0.589231,-0.127788,0.512728,99848.81,-209,+37,-44
46386,8.162,-5.111,2.503,-0.611048,-0.126724,0.573389,99849.80,-209,+37,-44
46396,8.040,-5.181,2.146,-0.604663,-0.138962,0.581371,99849.80,-209,+36,-45
46401,7.902,-5.259,1.995,-0.596149,-0.159182,0.620747,99850.55,-209,+36,-45
46411,7.956,-5.059,1.843,-0.606259,-0.170889,0.674490,99847.18,-209,+35,-45
46420,8.040,-4.694,1.734,-0.628608,-0.178870,0.719719,99846.13,-208,+31,-46
46431,8.035,-4.420,1.723,-0.619030,-0.206540,0.777187,99848.05,-207,+30,-46
46441,8.330,-4.285,1.848,-0.579654,-0.255494,0.866581,99848.05,-207,+30,-46
46451,8.731,-4.475,1.711,-0.514204,-0.337439,0.964490,99851.36,-207,+28,-47
46460,8.874,-4.837,1.646,-0.453544,-0.432155,1.073572,99847.56,-207,+25,-49
46471,8.731,-5.109,1.686,-0.382241,-0.533256,1.172544,99849.55,-206,+22,-50
46481,8.639,-5.724,1.478,-0.343929,-0.619989,1.228948,99848.61,-206,+22,-50
46491,8.600,-6.252,1.405,-0.375323,-0.663622,1.252893,99848.61,-204,+17,-51
46501,8.793,-6.552,1.472,-0.460993,-0.658301,1.261407,99847.86,-203,+14,-53
46511,9.069,-6.602,1.437,-0.578589,-0.637549,1.272049,99849.78,-202,+11,-56
46521,9.238,-6.394,1.450,-0.703280,-0.633470,1.295107,99850.09,-202,+7,-58
46531,9.389,-6.186,1.638,-0.740351,-0.664155,1.344948,99846.41,-202,+7,-58
46541,9.475,-6.237,1.654,-0.740351,-0.722687,1.420508,99846.41,-198,+4,-60
46551,9.499,-6.371,1.727,-0.723323,-0.785476,1.505645,99850.03,-197,+0,-62
46561,9.554,-6.360,1.675,-0.720663,-0.842943,1.589718,99850.50,-194,+0,-62
46571,9.511,-6.895,1.203,-0.738222,-0.896686,1.645058,99845.52,-194,-3,-65
46581,9.518,-6.950,1.210,-0.774938,-0.936063,1.701994,99848.63,-192,-7,-68
46590,9.657,-7.060,1.302,-0.858479,-0.947237,1.735517,99848.63,-190,-11,-71
46601,9.977,-7.418,0.928,-0.959048,-0.959475,1.747223,99850.06,-186,-14,-75
46611,10.790,-7.425,0.985,-1.058020,-0.974375,1.730196,99847.31,-186,-14,-75
46621,12.178,-7.163,1.308,-1.154332,-1.002044,1.711572,99847.78,-183,-18,-77
46631,13.547,-7.089,2.173,-1.240002,-1.085053,1.679113,99846.58,-179,-20,-82
46641,14.409,-6.868,3.178,-1.259690,-1.123897,1.712104,99846.58,-176,-23,-85
46651,15.503,-6.670,2.985,-1.287892,-1.128154,1.846195,99849.66,-176,-23,-85
46661,16.319,-6.073,3.196,-1.373029,-1.159549,2.022324,99846.54,-172,-26,-90
46671,16.493,-6.165,4.197,-1.408148,-1.197329,2.234103,99848.26,-167,-29,-93
46681,16.964,-6.805,4.497,-1.387396,-1.184558,2.537938,99844.62,-161,-33,-96
46691,17.200,-7.970,4.143,-1.410277,-1.185622,2.917865,99844.62,-161,-33,-96
46701,17.227,-8.214,4.748,-1.331525,-1.212228,3.260543,99848.64,-155,-39,-101
46711,16.240,-7.516,5.693,-1.278846,-1.163806,3.264268,99848.58,-149,-44,-105
46721,14.452,-7.179,6.926,-1.315029,-1.052063,3.073241,99845.16,-143,-48,-109
46731,12.243,-6.717,6.891,-1.420387,-1.024393,2.793351,99847.39,-143,-48,-109
46741,9.346,-5.606,5.431,-1.565653,-0.991402,2.440562,99847.39,-137,-51,-112
46751,7.620,-3.894,4.364,-1.597047,-0.754081,2.179296,99848.71,-132,-53,-115
46756,6.370,-3.130,4.325,-1.611414,-0.508246,1.989333,99846.74,-132,-53,-115
46766,14.913,-0.819,3.312,-1.544901,-0.282632,1.756269,99846.74,-128,-52,-118
46776,10.909,-3.817,2.742,-1.829047,0.116983,0.926710,99846.52,-127,-50,-119
46786,-10.841,-5.162,-2.645,-0.924993,-0.193237,0.631389,99845.07,-127,-50,-119
46796,-3.781,-6.148,0.353,-0.354039,-0.357659,0.986838,99845.07,-124,-49,-120
46807,5.683,-2.528,2.485,-0.024663,-0.285292,0.529224,99849.03,-123,-49,-122
46816,8.133,-0.365,1.733,-0.146516,-0.124063,-0.459436,99846.08,-123,-48,-122
46826,6.602,0.343,1.766,-0.329030,-0.024559,-0.694097,99843.13,-124,-43,-122
46836,5.124,0.434,0.472,-0.174718,0.051533,-0.687179,99843.13,-124,-43,-122
46845,3.474,0.083,-0.109,0.114750,0.142524,-0.988353,99843.13,-124,-40,-122
46856,1.828,-0.902,-0.250,0.515428,0.212762,-1.365619,99847.51,-126,-37,-121
46866,1.347,-1.551,-0.388,0.886309,0.248946,-1.669454,99845.95,-128,-33,-119
46876,1.622,-1.948,-0.435,1.116890,0.378958,-1.960695,99843.76,-128,-33,-119
46886,2.196,-2.219,-0.182,1.168859,0.521918,-2.206352,99843.76,-131,-30,-117
46897,2.890,-2.258,-0.010,1.202914,0.684212,-2.489435,99843.76,-133,-26,-115
46906,3.389,-2.092,-0.020,1.219410,0.842780,-2.761875,99846.99,-137,-19,-113
46916,3.918,-2.084,0.016,1.252400,0.992303,-2.997600,99843.77,-137,-19,-113
46926,4.340,-2.287,-0.001,1.299758,1.137037,-3.218957,99841.85,-141,-13,-110
46937,4.772,-2.687,0.076,1.369465,1.258358,-3.416902,99841.85,-145,-5,-107
46946,5.323,-3.300,0.027,1.443960,1.357330,-3.596755,99847.09,-149,+1,-104
46956,5.965,-4.166,0.143,1.514730,1.460028,-3.777673,99847.09,-149,+1,-104
46966,6.765,-4.945,0.458,1.564749,1.538248,-3.947416,99843.87,-152,+10,-100
46977,7.795,-5.668,0.604,1.593483,1.597312,-4.102260,99843.55,-156,+20,-96
46986,8.846,-6.499,0.920,1.636052,1.641477,-4.246994,99842.57,-159,+29,-93
46996,9.826,-7.404,1.304,1.703629,1.652119,-4.341709,99842.57,-159,+29,-93
47006,10.337,-7.989,1.685,1.766950,1.625514,-4.392791,99845.80,-161,+39,-88
47016,10.720,-8.344,1.977,1.785574,1.613807,-4.419929,99847.25,-161,+49,-85
47027,11.067,-8.799,2.274,1.750987,1.643605,-4.391727,99844.81,-162,+60,-80
47036,11.070,-8.974,2.470,1.708418,1.659037,-4.325213,99843.09,-162,+60,-80
47046,10.941,-8.992,2.458,1.695648,1.690431,-4.264553,99846.78,-162,+70,-78
47056,10.848,-9.058,2.319,1.714272,1.739385,-4.206553,99845.86,-161,+81,-73
47067,10.700,-9.143,2.257,1.739813,1.806431,-4.145360,99846.11,-160,+90,-71
47076,10.689,-9.206,2.266,1.753116,1.876670,-4.089489,99846.11,-160,+90,-71
47086,10.771,-9.198,2.160,1.719061,1.950101,-4.058627,99845.13,-158,+100,-67
47096,10.821,-9.018,2.099,1.606253,2.013422,-4.024039,99845.13,-156,+108,-63
47107,11.246,-9.110,1.917,1.418951,2.084192,-3.986792,99847.19,-153,+117,-60
47116,11.598,-9.311,1.675,1.189611,2.143257,-3.976150,99848.13,-153,+117,-60
47126,11.913,-9.160,1.454,0.928346,2.170926,-3.942627,99845.28,-151,+126,-56
47136,12.175,-8.946,1.374,0.647392,2.202853,-3.876645,99842.98,-147,+134,-52
47147,12.408,-8.846,1.248,0.441997,2.205513,-3.744150,99842.98,-145,+143,-47
47157,12.469,-8.490,1.086,0.357392,2.137403,-3.561636,99848.77,-145,+143,-47
47166,12.336,-8.103,0.634,0.371759,2.032046,-3.360499,99849.08,-142,+151,-44
47176,11.720,-7.983,-0.065,0.421245,1.944780,-3.116792,99844.92,-139,+158,-40
47186,11.241,-8.339,-0.992,0.452107,1.837826,-2.808169,99844.92,-136,+164,-38
47196,10.684,-8.897,-1.749,0.439869,1.693092,-2.454316,99844.92,-136,+164,-38
47206,9.692,-9.277,-2.449,0.462217,1.472266,-2.049912,99850.91,-135,+168,-35
47216,8.283,-9.834,-3.066,0.519153,1.183863,-1.599747,99848.05,-133,+173,-34
47226,6.712,-10.849,-3.672,0.631960,0.807129,-1.064977,99849.30,-133,+174,-34
47237,5.710,-11.814,-4.147,0.716034,0.365478,-0.441877,99848.72,-133,+174,-34
47246,5.335,-12.240,-3.926,0.727740,-0.058082,0.241352,99848.72,-133,+174,-35
47256,5.339,-12.377,-2.728,0.654841,-0.412999,0.915003,99850.97,-135,+171,-37
47266,5.657,-12.362,-1.018,0.598970,-0.707788,1.557792,99849.45,-136,+166,-39
47277,6.376,-12.753,-0.077,0.604823,-0.980760,2.172379,99846.58,-136,+166,-39
47286,8.730,-10.291,2.958,0.634089,-1.158484,2.579443,99846.58,-139,+160,-44
47296,19.743,-2.741,6.273,0.607483,-0.733861,2.206966,99846.55,-142,+151,-47
47306,28.064,11.902,11.277,0.276511,-0.386393,1.024086,99846.98,-143,+149,-49
47316,31.704,25.352,3.076,-0.446626,-0.885512,0.823480,99846.98,-143,+149,-49
47326,13.156,9.151,-6.391,-1.990276,-0.827512,2.686397,99847.29,-145,+147,-50
47336,-3.404,-7.047,-5.817,-0.533892,-0.731732,2.647021,99849.21,-148,+141,-50
47346,10.522,-12.512,1.601,1.849960,-1.681016,3.456360,99849.21,-149,+128,-56
47356,14.757,-6.850,0.179,2.111225,-1.661860,3.928341,99849.31,-152,+116,-61
47367,7.453,-6.999,2.864,1.054456,-1.056319,3.209993,99851.08,-152,+116,-61
47376,4.713,-8.204,7.870,0.966125,-0.690760,2.915736,99847.44,-154,+106,-64
47386,7.525,-9.688,11.353,1.419483,-0.667347,3.252029,99847.19,-156,+95,-66
47396,8.269,-8.414,6.347,1.396070,-1.140393,3.141351,99847.21,-157,+85,-69
47407,5.514,-7.520,2.861,0.551612,-1.237237,2.700232,99848.55,-157,+85,-69
47417,5.678,-10.431,5.753,-0.197599,-0.959475,2.394801,99847.62,-156,+78,-71
47426,6.972,-10.995,3.900,-0.835598,-0.991934,2.089370,99847.62,-157,+72,-74
47436,8.139,-8.625,-2.252,-1.597047,-0.989806,1.709975,99847.15,-155,+70,-77
47447,8.194,-5.624,-3.525,-2.074350,-0.511971,1.368893,99847.15,-155,+70,-77
47457,8.524,-4.549,-1.947,-1.920570,-0.026687,1.106563,99850.77,-156,+71,-76
47466,9.541,-2.833,-0.406,-1.327268,-0.011788,0.982581,99848.11,-156,+69,-76
47476,9.521,-2.060,0.737,-0.615305,-0.099586,1.064526,99844.64,-157,+67,-76
47486,9.565,-2.106,0.361,0.058878,-0.194302,1.227884,99847.33,-157,+67,-76
47497,9.067,-3.362,0.836,0.490951,-0.252834,1.357187,99847.33,-157,+63,-76
47507,8.233,-4.968,1.806,0.604291,-0.243256,1.320471,99850.36,-156,+59,-77
47516,7.780,-6.507,2.029,0.439337,-0.121403,1.106563,99848.56,-156,+55,-77
47526,7.530,-7.435,2.475,0.085484,0.043019,0.769205,99847.77,-156,+55,-77
47537,7.232,-6.965,3.679,-0.382773,0.257460,0.391939,99847.77,-157,+54,-76
47546,7.444,-6.376,3.415,-0.782387,0.414964,0.143976,99847.77,-157,+54,-75
47556,8.052,-4.847,2.918,-0.995763,0.443698,0.078527,99846.64,-158,+56,-74
47566,8.533,-4.120,2.685,-0.969690,0.401129,0.075866,99849.59,-158,+56,-74
47577,9.025,-3.906,2.458,-0.831341,0.347386,0.187609,99848.41,-158,+56,-74
47586,8.971,-4.160,2.049,-0.680754,0.289386,0.286582,99846.80,-160,+57,-73
47596,9.006,-3.741,2.420,-0.565287,0.226065,0.405242,99846.80,-160,+56,-71
47606,8.848,-3.628,2.703,-0.464718,0.162212,0.464306,99850.63,-160,+56,-71
47617,8.516,-4.367,2.995,-0.374259,0.097827,0.455260,99849.69,-161,+56,-72
47627,8.123,-5.065,2.990,-0.352443,0.089313,0.399921,99848.66,-160,+55,-71
47637,7.787,-5.564,2.505,-0.480681,0.153698,0.351499,99847.59,-161,+54,-70
47646,7.756,-5.313,2.281,-0.648828,0.221276,0.338196,99850.03,-161,+54,-70
47656,8.062,-4.733,2.487,-0.778130,0.277148,0.339261,99849.30,-161,+54,-70
47667,8.405,-4.404,2.401,-0.821231,0.300560,0.324361,99849.30,-161,+54,-69
47676,8.652,-4.171,2.202,-0.807929,0.286726,0.322233,99849.83,-161,+55,-68
47686,8.818,-4.059,2.604,-0.772809,0.253735,0.360545,99849.25,-161,+55,-68
47696,8.965,-4.077,2.807,-0.716406,0.198927,0.405242,99849.25,-163,+55,-68
47707,8.996,-4.155,3.214,-0.646699,0.123900,0.454196,99848.93,-163,+55,-67
47716,8.823,-4.363,3.500,-0.565819,0.027056,0.511664,99848.57,-162,+54,-66
47726,8.363,-4.545,3.447,-0.508351,-0.068192,0.575517,99847.99,-162,+54,-66
47736,7.680,-4.818,3.080,-0.501966,-0.127256,0.639371,99845.76,-163,+52,-68
47747,7.479,-5.024,2.681,-0.513672,-0.152265,0.674490,99849.23,-163,+51,-68
47757,7.669,-5.049,2.432,-0.556773,-0.145348,0.698435,99849.12,-163,+50,-68
47766,8.023,-4.876,2.270,-0.599342,-0.140026,0.721847,99848.29,-163,+50,-68
47776,8.251,-4.811,2.041,-0.609984,-0.153861,0.731958,99847.66,-163,+48,-67
47787,8.470,-5.092,1.811,-0.555176,-0.194834,0.756435,99847.66,-163,+47,-69
47797,8.579,-5.412,1.880,-0.476424,-0.256558,0.782508,99847.66,-162,+46,-69
47806,8.429,-5.575,2.043,-0.425342,-0.302320,0.795279,99851.26,-161,+46,-70
47816,8.130,-5.836,1.847,-0.413635,-0.319880,0.801132,99847.77,-161,+44,-70
47822,7.874,-6.001,1.763,-0.414167,-0.325201,0.801664,99848.29,-161,+42,-71
47832,7.747,-5.906,1.736,-0.424277,-0.329458,0.801664,99848.20,-161,+42,-71
47842,7.763,-5.591,1.763,-0.461525,-0.334247,0.797939,99848.20,-161,+41,-71
47851,7.810,-5.286,1.757,-0.478021,-0.351806,0.813370,99849.70,-161,+39,-73
47861,7.796,-5.011,1.896,-0.444498,-0.405017,0.872435,99849.07,-160,+36,-73
47872,7.960,-4.993,2.009,-0.402461,-0.455035,0.944269,99847.77,-160,+36,-73
47882,8.216,-5.290,1.610,-0.358296,-0.527402,1.016104,99843.88,-159,+34,-75
47891,8.257,-5.378,1.830,-0.314663,-0.599769,1.094324,99843.88,-158,+31,-76
47901,8.330,-5.710,2.066,-0.274223,-0.662026,1.167755,99848.98,-158,+28,-77
47911,8.324,-6.057,1.920,-0.238039,-0.714173,1.233205,99850.08,-158,+28,-77
47922,8.294,-6.488,1.827,-0.228993,-0.746099,1.280031,99850.48,-156,+26,-79
47932,8.220,-6.857,1.643,-0.259856,-0.756210,1.310893,99851.00,-154,+23,-81
47942,8.304,-6.988,1.366,-0.315195,-0.738118,1.341933,99851.00,-153,+19,-83
47951,8.241,-7.152,1.153,-0.368406,-0.720558,1.351333,99848.99,-153,+19,-83
47962,8.217,-7.439,0.896,-0.421085,-0.692888,1.347076,99848.93,-151,+16,-85
47972,8.253,-7.886,0.654,-0.489727,-0.660962,1.338031,99847.70,-151,+13,-86
47981,8.427,-7.753,0.621,-0.608387,-0.629035,1.321535,99846.96,-149,+11,-88
47991,8.674,-7.484,0.837,-0.733433,-0.596577,1.302911,99846.96,-149,+11,-88
48002,8.987,-7.234,0.818,-0.819635,-0.592320,1.319407,99850.20,-147,+7,-90
48012,9.569,-7.232,0.639,-0.875507,-0.621054,1.340691,99847.49,-146,+6,-92
48021,10.451,-7.161,0.954,-0.923396,-0.678522,1.364636,99845.73,-144,+4,-93
48031,11.642,-7.220,1.783,-0.971818,-0.736521,1.399223,99847.45,-144,+4,-93
48041,12.643,-7.565,2.528,-1.020773,-0.773769,1.470526,99847.45,-141,+0,-93
48052,13.465,-7.795,2.613,-1.094204,-0.772173,1.602489,99847.94,-139,+0,-98
48062,13.894,-7.261,2.862,-1.222442,-0.770577,1.734452,99847.67,-137,-3,-100
48071,14.254,-6.614,3.382,-1.351213,-0.753017,1.832361,99846.80,-135,-5,-102
48081,14.859,-6.124,4.049,-1.432626,-0.726411,1.926544,99847.78,-135,-5,-102
48092,15.761,-6.354,4.350,-1.497543,-0.665219,2.039883,99847.78,-131,-9,-104
48102,15.816,-7.242,3.666,-1.605029,-0.635421,2.214415,99846.63,-128,-12,-107
48111,13.592,-8.554,2.175,-1.663029,-0.628503,2.423534,99848.70,-126,-14,-110
48121,10.723,-8.678,1.678,-1.518827,-0.680118,2.517186,99847.47,-126,-14,-110
48132,9.302,-7.962,1.895,-1.280974,-0.651384,2.388415,99847.83,-123,-19,-111
48142,8.157,-7.524,2.701,-1.179873,-0.560925,2.163333,99847.83,-119,-22,-114
48151,7.246,-7.283,2.680,-1.083029,-0.563054,2.042544,99849.91,-116,-26,-115
48161,6.923,-6.932,2.437,-1.055892,-0.574760,1.976562,99846.49,-116,-26,-115
48172,6.670,-6.067,2.442,-1.040993,-0.548155,1.855241,99847.73,-114,-28,-118
48177,6.073,-5.199,2.711,-1.027158,-0.470999,1.707315,99848.04,-114,-28,-118
48187,5.816,-4.126,3.343,-0.997360,-0.381604,1.535443,99848.04,-110,-31,-120
48196,7.487,-2.274,1.924,-1.041525,-0.240063,1.170948,99848.04,-109,-33,-122
48206,3.192,-4.676,-1.670,-1.267139,-0.175146,0.982581,99850.70,-107,-32,-124
48217,1.742,-5.392,3.600,-1.151672,0.124432,0.705352,99848.57,-107,-32,-124
48227,4.113,-2.489,2.244,-0.388094,-0.309769,0.547848,99844.65,-107,-33,-125
48237,5.272,1.007,1.620,-0.665855,0.027056,0.220068,99844.65,-105,-32,-126
48246,4.908,1.238,2.924,-1.049506,0.533092,-0.373767,99846.59,-107,-30,-126
48257,5.242,0.796,0.620,-0.903176,0.586303,-0.776574,99846.59,-107,-30,-126
48267,4.716,0.662,-0.143,-0.674901,0.585771,-1.022408,99845.98,-110,-28,-127
48277,3.972,-0.663,-0.335,-0.341800,0.593753,-1.211307,99846.97,-111,-25,-126
48286,4.021,-1.731,-0.294,0.066860,0.576725,-1.440114,99847.48,-115,-22,-126
48296,4.825,-1.836,-0.265,0.415392,0.549056,-1.718408,99847.48,-117,-22,-125
48307,5.428,-1.594,-0.324,0.637814,0.565551,-2.008940,99849.31,-117,-20,-125
48317,5.713,-1.545,-0.253,0.830437,0.600670,-2.244664,99846.55,-120,-16,-124
48327,5.853,-1.684,-0.204,1.053923,0.612909,-2.425050,99844.38,-123,-14,-123
48336,5.861,-1.950,-0.136,1.300290,0.626212,-2.587343,99842.41,-126,-12,-122
48347,5.837,-2.428,-0.058,1.517923,0.659734,-2.729416,99848.42,-126,-12,-122
48357,6.023,-3.378,0.035,1.669042,0.725184,-2.873086,99842.50,-130,-9,-119
48367,6.242,-4.290,0.142,1.775464,0.809257,-3.036444,99844.63,-134,-5,-117
48376,6.705,-5.046,0.183,1.831868,0.897055,-3.205655,99844.63,-139,-3,-114
48387,7.259,-5.779,0.277,1.823354,0.985386,-3.392957,99844.06,-139,-3,-114
48397,7.796,-6.322,0.495,1.770143,1.056156,-3.564829,99844.06,-142,+1,-111
48407,8.263,-6.602,0.694,1.714272,1.114156,-3.699985,99846.06,-146,+7,-109
48416,8.865,-6.999,1.096,1.683409,1.169496,-3.818113,99845.28,-151,+13,-106
48427,9.424,-7.528,1.417,1.683941,1.193973,-3.924535,99844.14,-151,+13,-106
48437,9.657,-7.764,1.748,1.703629,1.195037,-4.017122,99844.19,-154,+20,-103
48447,10.073,-7.819,2.064,1.724914,1.221110,-4.058095,99844.19,-158,+28,-100
48457,10.350,-7.738,2.246,1.761097,1.247716,-4.027232,99845.98,-162,+35,-96
48466,10.605,-7.825,2.373,1.843042,1.250908,-3.952205,99845.48,-162,+35,-96
48477,10.890,-8.248,2.269,1.970216,1.222707,-3.872920,99841.95,-164,+42,-95
48487,11.219,-9.048,2.005,2.109629,1.203551,-3.793636,99841.95,-167,+49,-92
48496,11.404,-9.500,1.725,2.185721,1.181734,-3.721801,99841.95,-170,+56,-90
48506,11.683,-9.636,1.195,2.154858,1.165239,-3.674975,99846.63,-170,+56,-90
48517,11.950,-9.314,0.616,2.036730,1.127459,-3.628150,99844.49,-172,+64,-87
48527,11.844,-8.496,0.314,1.917538,1.016780,-3.513214,99846.10,-173,+71,-87
48532,12.059,-8.113,-0.097,1.871776,0.911422,-3.430737,99845.65,-173,+71,-87
48541,12.230,-7.975,-0.032,1.877097,0.815643,-3.376462,99845.65,-173,+77,-85
48551,12.456,-7.884,0.258,2.008528,0.629936,-3.266315,99848.70,-175,+84,-85
48562,12.245,-7.701,0.638,2.247977,0.418689,-3.040169,99846.06,-173,+84,-85
48572,12.779,-7.512,0.557,2.511372,0.180836,-2.719306,99846.53,-173,+90,-85
48582,12.879,-7.404,1.028,2.835427,-0.111825,-2.390462,99847.52,-172,+93,-87
48591,12.119,-7.235,1.182,3.255261,-0.434815,-2.107380,99847.52,-170,+95,-90
48602,10.513,-7.429,1.969,3.755977,-0.693953,-1.848775,99851.17,-168,+95,-94
48612,9.515,-7.910,2.584,4.273188,-0.890833,-1.506628,99848.78,-168,+95,-94
48622,8.994,-8.608,2.248,4.613738,-1.065897,-1.175656,99846.30,-165,+89,-100
48631,8.267,-9.079,1.514,4.679719,-1.197329,-0.918115,99846.39,-163,+84,-104
48642,7.513,-9.085,0.999,4.550417,-1.259053,-0.689840,99846.39,-161,+78,-110
48652,7.177,-8.680,1.132,4.330123,-1.270760,-0.459436,99850.19,-161,+78,-110
48662,6.832,-8.237,1.346,4.086949,-1.257989,-0.222115,99846.88,-160,+70,-114
48671,6.382,-8.050,1.802,3.857078,-1.248411,0.074802,99848.22,-157,+63,-117
48681,6.083,-8.354,2.413,3.686270,-1.266503,0.408967,99847.66,-154,+54,-122
48692,6.004,-9.111,2.908,3.511738,-1.260650,0.726104,99847.66,-154,+54,-122
48702,5.325,-10.119,3.066,3.281867,-1.232448,1.011847,99849.88,-153,+43,-124
48712,4.686,-10.555,2.681,3.097225,-1.242026,1.270453,99848.06,-149,+33,-127
48721,4.560,-9.936,2.782,2.903537,-1.172852,1.418911,99850.19,-146,+23,-129
48732,4.880,-9.483,4.765,2.469335,-0.872209,1.613663,99845.98,-146,+23,-129
48742,7.483,-8.757,6.586,2.013849,-0.505054,1.722746,99845.98,-145,+13,-128
48752,10.586,-5.787,7.150,1.640308,-0.307641,1.562581,99848.55,-144,+5,-130
48761,13.699,-0.444,3.362,1.239630,-0.499201,0.946398,99847.83,-143,+0,-130
48772,15.075,5.052,-2.203,0.412199,-0.407678,0.606912,99848.19,-143,+0,-130
48782,11.893,1.268,-1.402,-0.525910,0.066964,1.303443,99846.67,-142,-1,-129
48792,8.481,-8.421,-1.335,-0.437580,0.139863,2.061700,99846.67,-141,-5,-130
48801,10.413,-11.740,3.208,0.219043,0.173918,2.330415,99850.29,-140,-12,-130
48812,11.795,-12.707,2.876,0.610676,0.226597,2.078727,99848.16,-140,-12,-130
48822,11.834,-10.295,1.386,0.418052,0.239900,2.023388,99846.34,-139,-18,-128
48832,10.779,-5.149,-1.371,0.487759,0.231918,1.771700,99846.96,-139,-23,-127
48841,8.929,-2.100,-1.533,0.509575,0.366010,1.446049,99846.96,-139,-29,-127
48851,7.253,-2.314,2.238,0.370694,0.410707,1.372086,99847.37,-139,-29,-127
48862,7.094,-4.081,3.066,0.469135,0.261184,1.366765,99849.96,-137,-33,-124
48872,8.267,-5.827,1.086,0.462217,0.205845,1.139554,99849.09,-137,-37,-123
48882,8.889,-7.180,1.031,0.066328,0.338340,0.851682,99845.60,-137,-39,-123
48887,9.547,-6.798,0.661,-0.225801,0.422946,0.629260,99845.60,-137,-39,-123
48897,9.584,-4.874,0.438,-0.365745,0.530432,0.371187,99845.60,-138,-39,-122
48907,9.538,-2.702,0.474,-0.419488,0.648028,0.255187,99849.14,-138,-39,-121
48917,9.998,-1.580,0.651,-0.319452,0.648560,0.300417,99850.22,-138,-39,-121
48927,9.821,-1.405,0.973,-0.087984,0.573533,0.345114,99849.55,-140,-39,-120
48937,9.747,-1.963,1.270,0.125924,0.512340,0.427591,99848.16,-140,-41,-119
48947,9.491,-2.874,1.575,0.220640,0.459129,0.474416,99849.41,-140,-43,-117
48957,9.147,-3.310,2.181,0.229685,0.422946,0.452068,99849.72,-140,-43,-117
48967,9.050,-3.194,2.452,0.148805,0.406450,0.414820,99849.72,-141,-44,-117
48976,8.987,-3.134,1.804,0.006199,0.370799,0.395664,99846.81,-142,-45,-115
48987,9.059,-2.989,1.558,-0.109801,0.361753,0.378105,99848.27,-141,-46,-114
48997,9.251,-2.644,1.732,-0.143856,0.364414,0.381297,99848.27,-141,-46,-114
49007,9.153,-2.607,1.296,-0.124168,0.355900,0.430251,99850.38,-142,-46,-112
49016,9.099,-2.942,1.047,-0.080002,0.352175,0.469627,99848.25,-142,-48,-112
49027,9.193,-3.125,1.198,-0.062975,0.379845,0.474416,99846.06,-142,-49,-112
49037,9.212,-3.337,0.982,-0.108204,0.382505,0.470692,99847.16,-142,-49,-112
49047,9.205,-3.340,0.924,-0.161947,0.344193,0.460049,99848.93,-142,-50,-112
49057,9.439,-3.128,1.867,-0.193342,0.322377,0.465371,99849.09,-142,-50,-111
49068,9.648,-3.123,2.334,-0.185360,0.285129,0.512728,99848.04,-142,-52,-111
49077,9.590,-3.155,2.601,-0.167801,0.223405,0.570728,99848.04,-142,-52,-111
49087,9.190,-3.092,2.318,-0.150773,0.149973,0.607976,99848.04,-142,-52,-110
49097,8.758,-3.141,2.257,-0.083195,0.086120,0.637774,99848.04,-140,-54,-110
49106,8.624,-3.475,2.128,0.007264,0.047276,0.636710,99853.74,-140,-56,-110
49117,8.609,-4.094,1.495,0.042383,0.038230,0.599994,99850.63,-140,-56,-110
49127,8.834,-4.387,0.999,0.013117,0.049405,0.541462,99850.63,-140,-57,-109
49137,8.931,-4.162,1.393,-0.020406,0.060047,0.487187,99846.88,-140,-59,-109
49147,8.929,-3.941,1.557,-0.019874,0.057386,0.466435,99846.88,-139,-59,-110
49157,8.837,-3.817,1.734,0.054089,0.006836,0.455260,99849.12,-139,-59,-110
49167,8.751,-3.893,1.849,0.134970,-0.061274,0.441426,99849.27,-138,-61,-109
49177,8.647,-4.160,2.251,0.173814,-0.112357,0.421738,99849.37,-137,-62,-109
49187,8.611,-4.339,2.627,0.167961,-0.122999,0.390875,99849.37,-137,-63,-110
49198,8.580,-4.539,2.319,0.082823,-0.102779,0.347774,99848.57,-137,-63,-110
49207,8.466,-4.379,1.920,-0.016681,-0.074577,0.305738,99848.57,-135,-64,-110
49217,8.425,-3.856,1.878,-0.064039,-0.046375,0.280728,99848.10,-136,-65,-109
49227,8.774,-3.378,2.167,-0.064039,-0.026687,0.266362,99848.41,-135,-65,-109
49236,9.047,-3.644,2.255,-0.023599,-0.040522,0.255719,99847.23,-135,-65,-109
49247,9.044,-3.813,2.394,0.065263,-0.093733,0.269022,99847.23,-135,-66,-109
49257,8.815,-3.779,2.686,0.153062,-0.136834,0.275939,99849.24,-133,-67,-110
49267,8.490,-3.916,2.667,0.206805,-0.170357,0.263701,99846.60,-133,-68,-111
49277,8.178,-4.042,2.325,0.258419,-0.202815,0.250398,99849.60,-133,-68,-111
49287,8.227,-4.156,1.920,0.294603,-0.222503,0.224325,99848.02,-132,-69,-110
49297,8.536,-4.345,1.599,0.288217,-0.230485,0.192930,99852.02,-132,-70,-111
49307,8.721,-4.512,1.683,0.281300,-0.223568,0.162068,99851.59,-131,-72,-111
49317,8.792,-4.505,1.705,0.275979,-0.211329,0.141848,99849.94,-130,-73,-111
49327,8.695,-4.466,1.662,0.236071,-0.199091,0.121096,99849.94,-130,-73,-111
49337,8.622,-4.321,1.762,0.206805,-0.188981,0.106729,99845.72,-130,-73,-109
49347,8.794,-3.900,2.056,0.198823,-0.190045,0.105664,99845.72,-130,-74,-111
49357,8.858,-3.906,2.128,0.188713,-0.196430,0.105664,99849.44,-129,-75,-110
49367,8.807,-4.062,1.923,0.221704,-0.220907,0.125885,99848.45,-129,-75,-110
49377,8.791,-4.102,1.796,0.256291,-0.245916,0.134930,99847.36,-128,-76,-111
49387,8.610,-4.287,1.668,0.257355,-0.258687,0.129077,99849.19,-127,-76,-111
49397,8.597,-4.423,1.338,0.249906,-0.255494,0.123224,99849.19,-126,-76,-112
49408,8.629,-4.466,1.265,0.227557,-0.237935,0.112050,99850.03,-126,-76,-112
49417,8.618,-4.345,1.520,0.202548,-0.220375,0.100343,99851.41,-126,-77,-111
49427,8.812,-4.084,1.952,0.165832,-0.210265,0.106196,99847.81,-124,-79,-111
49437,8.940,-3.872,1.960,0.113153,-0.212393,0.132270,99847.81,-126,-79,-111
49447,8.811,-3.731,2.260,0.083887,-0.229421,0.175903,99847.81,-126,-79,-111
49457,8.820,-3.336,2.682,0.104640,-0.265604,0.235499,99847.11,-124,-80,-112
49467,8.777,-3.140,2.913,0.130181,-0.307109,0.307866,99848.67,-123,-81,-112
49477,8.776,-3.024,3.026,0.189245,-0.366705,0.394600,99848.61,-122,-82,-112
49487,8.828,-3.158,2.898,0.256823,-0.436412,0.490380,99850.06,-122,-82,-112
49497,8.721,-3.391,2.864,0.310034,-0.503990,0.586692,99850.06,-120,-84,-112
49507,8.781,-3.783,2.372,0.324401,-0.556668,0.663315,99848.41,-118,-86,-114
49517,8.649,-4.352,2.014,0.285557,-0.597641,0.726104,99848.30,-116,-87,-114
49527,8.782,-4.661,1.497,0.226493,-0.630100,0.771334,99847.77,-116,-87,-114
49538,8.944,-5.035,1.055,0.117942,-0.651384,0.799536,99847.77,-114,-91,-115
49547,8.975,-5.128,1.229,0.014713,-0.674265,0.819756,99846.98,-110,-92,-117
49557,9.073,-4.728,1.173,-0.050204,-0.695017,0.842104,99846.98,-107,-94,-118
49567,8.866,-5.061,1.054,-0.122039,-0.712577,0.859132,99852.50,-107,-94,-118
49577,8.733,-5.177,1.118,-0.143856,-0.741310,0.862857,99848.03,-103,-95,-120
49587,8.582,-4.951,1.234,-0.174186,-0.746632,0.850086,99847.83,-102,-97,-122
49598,8.335,-5.228,0.808,-0.195648,-0.753372,0.839621,99850.43,-98,-98,-122
49607,8.191,-5.619,0.398,-0.191746,-0.768980,0.816563,99850.43,-98,-98,-122
49617,8.271,-6.101,0.092,-0.244424,-0.772173,0.769737,99849.49,-95,-98,-123
49628,8.443,-6.228,0.160,-0.344993,-0.755677,0.709609,99845.45,-91,-99,-127
49637,8.706,-6.086,0.454,-0.460993,-0.742907,0.653205,99846.07,-89,-100,-128
49647,9.071,-5.985,0.173,-0.598277,-0.750888,0.626600,99850.29,-89,-100,-128
49657,9.312,-5.733,0.029,-0.703635,-0.791329,0.635646,99847.23,-85,-99,-130
49668,9.515,-5.309,0.225,-0.756314,-0.851989,0.671829,99849.76,-83,-98,-133
49677,9.614,-5.036,-0.032,-0.770149,-0.944044,0.739407,99849.76,-79,-98,-136
49687,9.572,-4.598,0.363,-0.723323,-1.063237,0.816563,99843.63,-79,-98,-136
49697,10.040,-4.794,0.019,-0.624351,-1.172852,0.872435,99843.63,-74,-98,-139
49708,10.234,-5.332,0.070,-0.475360,-1.271292,0.895315,99852.23,-70,-98,-141
49718,10.941,-6.101,0.227,-0.360247,-1.293640,0.857003,99848.45,-65,-98,-143
49727,11.100,-6.944,-0.896,-0.378516,-1.315989,0.851150,99848.45,-65,-98,-143
49737,11.082,-6.512,-1.020,-0.419488,-1.339934,0.852214,99848.50,-59,-98,-145
49747,10.767,-5.720,-0.392,-0.486002,-1.360686,0.845297,99848.50,-54,-98,-149
49758,10.935,-5.114,0.384,-0.504626,-1.404851,0.886269,99847.86,-49,-98,-151
49767,11.307,-5.181,1.266,-0.486002,-1.459126,0.953847,99847.39,-49,-98,-151
49777,11.586,-5.001,2.578,-0.441837,-1.527769,1.033664,99843.19,-44,-98,-152
49787,12.095,-5.359,3.379,-0.392351,-1.582576,1.124655,99843.19,-37,-98,-155
49797,12.298,-5.984,3.485,-0.359892,-1.596943,1.198086,99843.19,-31,-99,-157
49807,12.091,-6.422,2.847,-0.373727,-1.568741,1.256086,99848.34,-25,-99,-159
49817,11.442,-6.707,2.031,-0.517929,-1.504356,1.303976,99849.13,-25,-99,-159
49827,11.415,-6.167,1.497,-0.724919,-1.426136,1.347609,99848.92,-19,-98,-161
49838,11.731,-5.177,1.197,-0.973947,-1.344723,1.374746,99846.58,-12,-97,-164
49847,12.019,-4.639,1.356,-1.191048,-1.298429,1.396563,99846.58,-6,-95,-166
49857,12.339,-3.524,1.941,-1.252772,-1.338338,1.423168,99851.57,-6,-95,-166
49867,12.442,-3.245,2.542,-1.258626,-1.434649,1.510434,99846.63,+1,-92,-169
49878,11.905,-4.352,3.369,-1.144222,-1.627805,1.681774,99848.12,+7,-90,-172
49888,11.714,-6.628,3.829,-0.859011,-1.819365,1.981883,99848.12,+17,-88,-174
49897,12.012,-7.792,3.414,-0.478553,-2.002943,2.260177,99849.34,+17,-88,-174
49907,12.139,-6.813,3.020,-0.153966,-2.100319,2.289443,99848.66,+27,-88,-174
49917,10.648,-6.255,2.877,-0.072553,-2.072649,2.290507,99848.66,+37,-88,-174
49927,9.757,-5.675,2.873,0.021630,-2.018906,2.234103,99847.21,+47,-89,-173
49937,8.976,-4.970,2.688,0.086016,-1.925255,1.971773,99845.76,+47,-89,-173
49947,7.833,-4.640,1.655,0.123796,-1.851291,1.713168,99845.76,+56,-89,-173
49952,11.300,-2.723,0.154,0.156254,-1.862998,1.521076,99845.38,+56,-89,-173
49963,10.393,-3.602,-0.034,0.120071,-1.751787,1.098049,99848.19,+63,-90,-171
49972,0.675,-3.257,0.083,0.973575,-2.194502,1.164031,99848.03,+71,-91,-169
49982,6.105,-2.436,2.953,1.896785,-2.201952,1.069315,99845.17,+79,-96,-164
49992,7.049,-2.327,3.169,2.298528,-2.134906,0.562747,99845.17,+79,-96,-164
50002,5.737,-2.586,2.579,2.245849,-1.953456,0.350967,99846.84,+85,-102,-157
50013,4.862,-2.847,1.853,1.988840,-1.698576,0.201444,99847.00,+89,-108,-150
50022,3.507,-3.107,1.199,1.652547,-1.402723,-0.128464,99847.00,+93,-112,-145
50032,2.503,-3.325,0.760,1.358290,-1.082393,-0.512115,99845.81,+93,-112,-145
50042,2.371,-3.475,0.675,1.119373,-0.767384,-0.885124,99845.81,+93,-115,-142
50053,2.776,-3.270,0.582,0.904933,-0.511439,-1.278885,99847.16,+91,-119,-138
50062,3.283,-2.717,0.427,0.725080,-0.307641,-1.665197,99848.77,+88,-121,-134
50072,3.963,-2.295,0.088,0.647924,-0.146944,-2.022243,99846.64,+82,-123,-133
50082,4.655,-2.001,-0.115,0.688364,-0.033072,-2.345765,99845.23,+82,-123,-133
50093,5.343,-2.036,0.045,0.875667,0.007900,-2.624059,99845.23,+77,-125,-128
50103,6.037,-2.175,0.302,1.190676,-0.012852,-2.850205,99848.13,+70,-128,-125
50112,6.605,-2.498,0.855,1.579116,-0.052760,-3.050279,99845.27,+62,-134,-120
50122,6.983,-2.961,1.265,1.968620,-0.088944,-3.249288,99845.42,+62,-134,-120
50132,7.207,-3.506,1.503,2.299060,-0.100118,-3.433398,99845.06,+54,-138,-113
50143,7.188,-4.002,1.862,2.555005,-0.082026,-3.583985,99845.06,+45,-143,-107
50152,7.157,-4.502,2.309,2.768913,-0.040522,-3.713820,99846.12,+35,-148,-98
50162,7.190,-5.230,2.754,2.947702,0.029184,-3.838333,99847.63,+35,-148,-98
50172,7.438,-6.051,3.065,3.068491,0.130817,-3.969764,99844.98,+24,-152,-90
50183,8.016,-6.966,3.222,3.095628,0.264909,-4.105984,99844.87,+12,-156,-80
50188,8.695,-7.682,3.305,3.060509,0.370799,-4.190590,99844.87,+12,-156,-80
50197,9.430,-8.315,3.549,2.986546,0.478817,-4.250718,99844.87,+0,-158,-71
50207,10.364,-8.952,3.936,2.879592,0.608652,-4.302865,99846.96,-13,-159,-63
50217,11.017,-9.486,4.295,2.784876,0.725716,-4.304461,99844.73,-13,-159,-63
50228,11.291,-10.085,4.584,2.707721,0.828413,-4.261892,99843.95,-26,-159,-55
50238,11.406,-10.897,4.861,2.611941,0.936432,-4.178884,99843.55,-41,-156,-46
50247,11.112,-11.630,5.111,2.431556,1.050303,-4.070333,99848.42,-52,-153,-39
50257,10.291,-12.009,5.139,2.163904,1.187587,-3.968700,99844.80,-52,-153,-39
50268,9.617,-11.804,4.772,1.850492,1.379679,-3.891544,99844.80,-65,-148,-31
50277,9.420,-10.932,4.362,1.522180,1.632431,-3.804810,99843.19,-76,-141,-25
50287,9.620,-10.075,4.086,1.203446,1.900082,-3.677104,99844.75,-86,-134,-19
50297,9.895,-9.505,3.711,0.949098,2.115055,-3.527049,99844.75,-93,-134,-14
50308,10.184,-8.947,3.098,0.756474,2.280009,-3.360144,99847.56,-93,-126,-14
50317,10.595,-8.475,2.224,0.633025,2.364614,-3.229599,99847.56,-102,-119,-8
50327,11.124,-8.052,0.916,0.501593,2.360889,-3.124242,99846.23,-108,-113,-4
50337,11.298,-7.569,-0.118,0.371759,2.268302,-3.065710,99844.06,-114,-106,+0
50348,11.049,-7.070,-0.494,0.245649,2.153899,-2.992279,99844.06,-114,-106,+0
50358,10.828,-7.016,-0.291,0.216383,2.053330,-2.857123,99848.89,-119,-100,+3
50368,10.785,-7.373,-0.105,0.321208,1.909128,-2.662903,99848.27,-124,-94,+7
50377,10.671,-7.744,-0.301,0.495208,1.684046,-2.468151,99847.28,-129,-89,+11
50387,10.197,-7.787,-0.866,0.631428,1.462156,-2.310114,99847.28,-129,-89,+11
50398,9.606,-7.560,-1.590,0.695814,1.294541,-2.103655,99847.28,-133,-85,+14
50407,9.091,-7.464,-2.271,0.697410,1.162046,-1.816316,99850.25,-137,-80,+17
50417,8.582,-7.574,-2.647,0.724547,1.008799,-1.475234,99849.63,-139,-78,+20
50427,8.236,-7.929,-2.817,0.807024,0.797019,-1.094775,99849.94,-139,-78,+20
50438,7.779,-8.698,-2.961,0.903868,0.535221,-0.688243,99849.31,-140,-76,+22
50448,7.285,-9.832,-3.061,0.952823,0.248946,-0.258299,99849.31,-142,-76,+23
50457,6.697,-10.795,-2.744,0.910786,-0.037861,0.182820,99852.11,-141,-76,+25
50467,6.073,-11.452,-2.273,0.806492,-0.284228,0.630857,99850.00,-141,-76,+25
50478,5.854,-12.052,-1.601,0.677190,-0.480045,1.087407,99848.38,-140,-78,+25
50488,5.950,-12.850,-1.077,0.498933,-0.630100,1.554067,99848.38,-138,-82,+25
50498,5.946,-13.800,-0.518,0.244052,-0.711512,2.021792,99848.82,-135,-87,+23
50507,6.474,-14.054,0.628,-0.077342,-0.710448,2.430452,99848.82,-135,-87,+23
50518,9.415,-9.541,4.195,-0.207709,-0.658301,2.473553,99850.79,-130,-94,+23
50528,15.393,-0.798,6.536,-0.309874,-0.359256,1.773829,99849.55,-127,-99,+21
50537,30.944,17.801,10.663,-0.611580,0.006836,0.259444,99846.63,-127,-99,+20
50547,34.577,33.481,2.409,-1.404424,-0.268797,-0.470610,99846.63,-127,-99,+20
50557,15.704,10.439,-4.541,-3.067799,0.155827,1.820122,99850.44,-126,-100,+15
50568,-7.575,-7.277,-8.925,-1.998790,0.383037,2.040416,99849.19,-122,-104,+12
50578,4.838,-14.639,-0.228,0.550015,-0.875934,2.168654,99848.88,-117,-109,+12
50587,15.496,-7.369,0.556,1.642969,-1.192539,2.896580,99848.34,-117,-109,+12
50597,9.223,-5.615,4.710,1.014015,-0.634889,2.536342,99848.97,-112,-115,+13
50608,6.011,-10.067,9.427,0.878327,-0.225696,2.443755,99847.83,-107,-121,+14
50618,11.192,-10.723,7.530,1.276345,-0.631696,2.798672,99849.13,-101,-126,+15
50627,10.642,-7.516,2.330,1.507281,-1.218613,2.317645,99849.13,-101,-126,+15
50637,7.396,-4.616,2.841,1.014015,-1.174448,1.662085,99849.08,-96,-130,+16
50648,5.149,-4.798,7.077,0.133374,-0.746099,1.497131,99849.08,-92,-133,+15
50658,6.234,-7.457,6.127,-0.555176,-0.617329,1.517352,99845.81,-89,-135,+14
50663,8.017,-7.260,2.627,-0.902644,-0.639145,1.257150,99846.59,-89,-135,+14
50672,7.911,-5.541,-0.153,-1.233616,-0.536448,0.896379,99845.45,-86,-137,+10
50682,8.428,-4.106,-1.631,-1.569910,-0.234742,0.742600,99847.38,-86,-137,+7
50693,9.856,-2.900,-0.382,-1.353873,-0.012852,0.733554,99847.38,-86,-137,+7
50703,10.684,-1.876,0.766,-0.779195,-0.019770,0.796343,99849.81,-83,-139,+4
50712,10.382,-1.791,0.823,-0.208241,-0.133109,0.960233,99849.08,-80,-140,+4
50722,10.208,-2.256,1.277,0.296199,-0.237935,1.063994,99847.63,-78,-143,+4
50733,9.539,-3.207,2.003,0.617061,-0.290614,1.059205,99848.00,-78,-143,+4
50743,8.984,-4.185,2.869,0.637814,-0.288485,0.974600,99848.00,-75,-143,+6
50753,8.082,-5.466,3.594,0.408474,-0.276779,0.832526,99849.51,-73,-145,+6
50762,7.431,-6.336,3.234,0.072181,-0.211329,0.646820,99845.29,-72,-147,+5
50772,7.358,-5.898,3.117,-0.360956,-0.086815,0.436637,99847.59,-72,-147,+5
50783,7.933,-4.579,3.481,-0.745672,-0.001146,0.267958,99847.27,-70,-147,+4
50792,8.399,-3.266,2.948,-0.889874,0.042487,0.198251,99847.27,-70,-147,+3
50802,9.229,-2.932,2.219,-0.837195,0.065900,0.221132,99849.63,-69,-147,+1
50812,9.530,-2.958,1.819,-0.667984,0.051001,0.251995,99849.27,-69,-147,+1
50823,9.475,-2.949,1.501,-0.464186,0.005772,0.325426,99850.05,-69,-146,+0
50833,9.187,-2.879,1.641,-0.289122,-0.046907,0.404178,99848.96,-68,-147,-1
50842,8.661,-3.220,2.073,-0.148113,-0.095861,0.447811,99848.96,-66,-148,-1
50852,8.306,-3.959,2.400,-0.077874,-0.116082,0.458985,99848.74,-66,-148,-1
50863,8.160,-4.501,2.744,-0.124700,-0.100118,0.451536,99850.55,-65,-148,-2
50873,8.181,-4.369,2.758,-0.280076,-0.054889,0.447279,99848.43,-65,-149,-3
50882,8.407,-3.696,2.910,-0.445030,0.004707,0.473884,99849.26,-63,-149,-3
50892,8.792,-3.207,3.041,-0.519525,0.032377,0.527095,99849.26,-63,-149,-3
50903,8.840,-3.068,2.713,-0.505158,0.012689,0.586160,99850.22,-61,-150,-4
50913,8.747,-3.221,2.600,-0.424277,-0.038926,0.659591,99850.02,-59,-150,-6
50923,8.779,-3.397,2.999,-0.310406,-0.108632,0.742068,99848.05,-58,-151,-7
50932,8.810,-3.744,2.850,-0.236443,-0.187384,0.808049,99846.06,-58,-151,-7
50942,8.704,-4.281,2.455,-0.192810,-0.256026,0.865517,99846.06,-55,-153,-7
50953,8.674,-4.564,2.364,-0.181103,-0.299659,0.903297,99848.00,-53,-154,-8
50963,8.820,-4.804,2.068,-0.230057,-0.312962,0.921389,99851.33,-51,-154,-9
50972,8.999,-5.195,1.826,-0.323177,-0.320412,0.923517,99850.28,-51,-154,-9
50982,8.753,-5.077,1.650,-0.415232,-0.317219,0.953847,99846.91,-47,-156,-11
50993,8.621,-4.584,1.592,-0.487066,-0.301256,0.980985,99846.91,-45,-156,-12
51003,8.611,-4.569,1.460,-0.502498,-0.311366,1.017701,99850.55,-42,-157,-14
51013,8.512,-4.732,1.520,-0.503030,-0.347549,1.062930,99849.66,-42,-157,-14
51022,8.532,-4.858,1.657,-0.520589,-0.368834,1.121462,99848.31,-38,-158,-15
51033,8.598,-5.068,1.824,-0.562626,-0.381072,1.173077,99848.52,-35,-158,-17
51043,8.538,-5.117,2.100,-0.610516,-0.411402,1.228948,99848.52,-31,-160,-19
51053,8.656,-5.218,2.358,-0.666920,-0.450779,1.293333,99848.55,-28,-160,-19
51062,8.668,-5.284,2.257,-0.724919,-0.489623,1.356654,99848.86,-28,-160,-20
51073,8.811,-5.502,2.097,-0.762699,-0.524210,1.419976,99847.52,-22,-161,-23
51083,9.135,-5.868,2.068,-0.814846,-0.542301,1.501388,99847.56,-17,-161,-25
51093,9.493,-6.044,1.392,-0.848369,-0.555072,1.527462,99847.56,-12,-162,-28
51102,9.308,-6.332,1.241,-0.882424,-0.583806,1.541296,99849.56,-12,-162,-28
51112,9.698,-6.507,1.055,-0.905837,-0.581678,1.545021,99850.92,-8,-162,-31
51123,10.287,-6.815,-0.052,-0.946277,-0.565714,1.507241,99849.16,-3,-162,-34
51133,10.818,-6.580,-0.673,-1.005873,-0.577953,1.505645,99846.66,+1,-161,-37
51142,11.097,-6.268,-0.508,-1.004809,-0.627439,1.539168,99846.66,+1,-161,-37
51152,11.222,-6.158,-0.056,-0.970222,-0.698210,1.605150,99851.72,+6,-161,-39
51163,11.462,-5.730,0.930,-0.886149,-0.808356,1.658361,99849.64,+12,-161,-43
51173,11.647,-5.928,1.426,-0.791965,-0.955219,1.691884,99848.34,+17,-161,-46
51183,12.541,-6.492,1.990,-0.750993,-1.103145,1.747755,99848.14,+17,-161,-46
51192,13.919,-7.348,3.460,-0.881892,-1.176044,1.792452,99848.14,+24,-160,-48
51203,15.294,-7.350,4.193,-1.075048,-1.195732,1.903663,99847.12,+31,-158,-51
51213,16.984,-6.640,4.129,-1.317158,-1.192539,2.039351,99849.49,+38,-157,-55
51223,18.207,-5.850,4.551,-1.529469,-1.193072,2.189406,99846.49,+38,-157,-55
51232,18.743,-5.153,5.128,-1.647598,-1.183494,2.354360,99848.26,+46,-154,-60
51243,19.107,-4.386,5.989,-1.677928,-1.103145,2.541663,99848.26,+54,-151,-65
51253,19.148,-4.639,6.380,-1.783818,-0.985017,2.735351,99848.34,+63,-148,-69
51263,18.098,-5.856,5.124,-1.879066,-1.038760,3.014176,99847.72,+63,-148,-69
51273,16.444,-8.014,4.010,-1.848735,-1.215952,3.474451,99847.05,+73,-143,-74
51282,16.339,-8.614,4.303,-1.578956,-1.370264,3.562782,99843.63,+84,-139,-78
51293,14.849,-7.206,7.401,-1.568313,-1.163274,3.107296,99843.63,+93,-134,-81
51303,12.828,-4.956,7.952,-1.564057,-1.092503,2.850286,99847.08,+93,-134,-81
51313,10.698,-1.822,5.814,-1.446460,-1.092503,2.623076,99847.70,+102,-128,-85
51322,8.030,-0.208,3.689,-1.257561,-0.865292,2.193131,99845.42,+111,-123,-88
51333,18.880,1.324,2.497,-1.278846,-0.614668,1.745095,99845.27,+115,-119,-92
51343,1.722,-1.969,1.362,-1.450717,0.028120,0.660123,99845.27,+115,-119,-92
51353,-10.698,-5.647,-1.781,-0.297635,-0.475788,0.914471,99847.92,+117,-115,-93
51362,-0.969,-3.729,3.526,0.329190,-0.455035,1.161902,99847.20,+121,-115,-93
51374,8.198,0.950,1.214,0.642957,-0.250705,-0.211473,99846.78,+121,-116,-92
51383,6.723,2.534,1.444,0.058346,0.011625,-0.894702,99843.52,+121,-116,-92
51393,5.538,1.790,1.106,-0.140663,0.227661,-0.722830,99843.52,+119,-116,-93
51403,3.910,0.679,0.766,0.082823,0.328230,-0.870757,99842.91,+117,-116,-94
51412,2.095,-0.255,0.529,0.431887,0.436781,-1.279417,99846.02,+114,-117,-94
51423,1.354,-0.729,0.519,0.721887,0.534157,-1.680096,99845.04,+114,-117,-94
51433,1.330,-0.449,0.460,0.811281,0.725184,-2.036077,99843.32,+110,-121,-93
51443,1.796,-0.060,0.562,0.748492,0.976340,-2.398444,99843.32,+104,-125,-94
51452,2.726,0.167,0.519,0.704859,1.193441,-2.741655,99845.47,+96,-128,-93
51463,3.750,0.247,0.324,0.765520,1.364248,-3.056132,99845.31,+96,-128,-93
51473,4.574,-0.009,0.187,0.888437,1.508450,-3.326976,99843.44,+87,-131,-93
51483,5.102,-0.535,0.112,1.048602,1.632963,-3.571214,99843.08,+77,-136,-92
51492,5.622,-1.289,0.038,1.230584,1.736725,-3.757985,99843.08,+65,-141,-91
51503,6.345,-2.151,0.108,1.424272,1.848468,-3.948480,99845.09,+65,-141,-91
51513,7.039,-3.011,0.138,1.574327,1.951165,-4.149617,99845.40,+52,-145,-89
51523,7.972,-3.868,0.128,1.694584,2.049605,-4.328406,99843.52,+38,-151,-86
51533,8.989,-4.680,0.191,1.776528,2.143257,-4.498149,99844.04,+22,-156,-83
51543,10.109,-5.643,0.508,1.832932,2.220412,-4.645011,99844.04,+22,-156,-83
51553,11.095,-6.304,0.648,1.870712,2.246486,-4.753562,99845.80,+5,-160,-79
51563,11.813,-6.657,0.829,1.868051,2.257128,-4.847745,99844.71,-12,-162,-74
51573,12.624,-7.314,1.200,1.814308,2.307678,-4.879140,99846.70,-30,-164,-68
51582,13.290,-8.278,1.741,1.720657,2.309807,-4.829654,99843.41,-49,-164,-63
51593,13.282,-9.382,2.285,1.617428,2.293844,-4.723232,99843.41,-49,-165,-63
51603,12.911,-9.948,2.560,1.519519,2.231587,-4.607764,99846.77,-68,-164,-57
51608,13.167,-10.514,2.287,1.448217,2.219348,-4.569452,99846.04,-68,-164,-57
51617,13.378,-10.931,2.258,1.373721,2.250743,-4.566792,99846.04,-87,-162,-50
51628,13.561,-11.225,2.215,1.257721,2.302357,-4.537525,99845.57,-105,-157,-42
51638,13.496,-11.011,2.255,1.102345,2.368339,-4.476865,99844.38,-124,-151,-34
51648,13.371,-10.593,2.191,0.953887,2.403458,-4.364590,99844.38,-124,-151,-34
51658,13.250,-10.255,2.078,0.808621,2.410908,-4.218791,99847.45,-141,-142,-26
51668,13.186,-10.043,1.885,0.637281,2.402926,-4.054369,99848.12,-156,-132,-18
51678,13.149,-9.920,1.462,0.457428,2.378981,-3.864938,99845.41,-169,-121,-9
51688,12.992,-9.714,0.964,0.305245,2.331623,-3.651031,99845.41,-169,-121,-9
51698,12.561,-9.589,0.237,0.173282,2.284798,-3.431269,99845.41,-181,-110,-1
51708,11.831,-9.359,0.087,0.113153,2.211367,-3.136480,99849.73,-190,-97,+7
51718,11.545,-9.331,-0.344,0.141887,2.058651,-2.788481,99845.69,-197,-85,+14
51729,10.788,-9.222,-0.757,0.172218,1.817428,-2.419729,99846.98,-197,-85,+14
51738,9.842,-8.973,-1.347,0.194566,1.551550,-2.088224,99846.98,-201,-75,+22
51748,8.445,-8.779,-1.595,0.221704,1.290817,-1.660408,99846.98,-204,-67,+27
51759,7.457,-9.156,-2.161,0.265869,1.025826,-1.143729,99848.52,-205,-60,+32
51768,6.691,-9.980,-2.814,0.306841,0.720395,-0.595656,99848.41,-205,-60,+32
51778,6.107,-10.601,-3.536,0.340364,0.381441,-0.012464,99848.60,-205,-57,+36
51788,6.050,-10.611,-3.781,0.353135,0.046744,0.598930,99848.60,-204,-56,+38
51799,6.483,-10.711,-3.644,0.389850,-0.278375,1.204471,99851.80,-202,-57,+39
51808,6.692,-11.396,-3.455,0.483502,-0.644999,1.783939,99851.80,-202,-57,+39
51818,6.547,-12.223,-3.190,0.677722,-1.023329,2.354360,99849.05,-200,-62,+39
51828,7.918,-12.039,-2.124,0.919300,-1.375053,2.850286,99849.31,-197,-69,+38
51837,10.414,-6.247,4.454,1.359887,-1.558099,2.945534,99846.97,-195,-77,+38
51848,23.430,4.695,13.535,1.546657,-0.626375,1.940379,99846.97,-193,-81,+41
51858,47.542,30.603,12.234,1.450877,-0.561989,0.499426,99848.31,-193,-81,+41
51868,27.580,22.692,0.663,-1.799781,-0.690228,1.872801,99847.11,-191,-82,+38
51878,-8.281,-2.552,-14.041,-2.274955,0.019606,2.565076,99848.94,-184,-88,+34
51889,0.794,-17.900,-4.053,0.788933,-1.345787,2.773663,99848.05,-179,-95,+33
51898,17.539,-8.169,-1.624,2.432620,-1.817236,3.783075,99848.88,-179,-95,+33
51908,8.792,-5.912,-1.303,0.751685,-0.842411,3.112085,99849.56,-173,-104,+33
51918,4.422,-9.068,6.156,0.293006,-0.309769,2.757167,99847.69,-167,-110,+33
51928,8.502,-12.547,10.518,1.042749,-0.372026,3.153589,99847.69,-160,-117,+34
51938,10.162,-9.835,4.738,1.438639,-0.997255,3.040250,99846.13,-160,-117,+34
51948,6.552,-8.570,2.819,0.840015,-1.167530,2.427791,99846.13,-154,-123,+34
51958,6.068,-10.448,5.831,0.103043,-0.928613,1.984012,99849.95,-149,-128,+33
51963,6.298,-11.010,6.271,-0.584442,-0.823255,1.671131,99850.11,-149,-128,+33
51973,6.925,-10.003,4.859,-1.272992,-0.788668,1.212985,99848.14,-146,-130,+28
51983,7.155,-6.354,0.689,-1.967396,-0.725347,0.551572,99846.78,-144,-132,+23
51993,8.081,-3.518,-2.446,-2.378185,-0.331586,0.282325,99846.78,-144,-132,+23
52003,10.003,-1.597,-0.660,-1.963671,0.043551,0.265297,99850.95,-143,-132,+18
52013,10.496,-0.337,1.107,-1.053231,-0.041586,0.428655,99849.61,-143,-133,+15
52023,10.347,0.052,1.910,-0.101287,-0.212393,0.760159,99850.44,-140,-134,+14
52033,9.651,-0.379,2.430,0.769245,-0.421513,1.101774,99847.69,-140,-134,+14
52043,8.889,-2.787,3.290,1.272088,-0.582742,1.315150,99847.69,-138,-138,+15
52054,8.846,-4.661,4.274,1.282731,-0.667347,1.207132,99848.17,-135,-140,+17
52063,8.483,-5.764,4.795,0.876199,-0.661494,0.877224,99848.95,-133,-143,+18
52073,7.170,-6.819,4.405,0.184988,-0.538577,0.647352,99846.77,-133,-143,+18
52083,6.796,-5.497,4.004,-0.615837,-0.282100,0.499958,99847.14,-131,-143,+17
52092,7.728,-3.291,2.805,-1.074516,-0.090008,0.410563,99847.14,-130,-143,+14
52103,9.390,-1.815,2.297,-1.137837,-0.009660,0.394068,99851.13,-128,-145,+12
52113,10.149,-1.477,1.938,-0.895727,-0.052760,0.477609,99849.16,-126,-146,+9
52123,10.196,-1.549,2.166,-0.573800,-0.103311,0.679279,99846.41,-126,-146,+9
52133,9.773,-1.785,2.512,-0.286461,-0.212925,0.863389,99850.46,-124,-147,+9
52143,8.491,-3.130,2.732,-0.080535,-0.327329,0.930967,99850.46,-122,-149,+8
52153,7.720,-4.628,3.060,-0.031048,-0.372026,0.909150,99849.27,-119,-151,+7
52163,7.640,-5.283,2.887,-0.186424,-0.315091,0.823480,99849.90,-119,-151,+7
52173,7.963,-5.407,2.521,-0.500901,-0.188981,0.718655,99849.27,-117,-151,+6
52184,8.525,-5.091,2.146,-0.788241,-0.060742,0.651077,99845.43,-115,-153,+4
52193,8.891,-4.446,2.239,-0.934571,0.009496,0.632985,99845.43,-114,-155,+1
52203,8.880,-4.203,2.311,-0.960112,0.023863,0.661187,99850.59,-114,-155,+1
52213,8.855,-4.038,2.416,-0.916479,-0.006467,0.695242,99848.36,-112,-154,+0
52224,8.773,-4.054,2.533,-0.820699,-0.053293,0.723976,99848.72,-109,-156,-2
52233,8.703,-4.120,2.620,-0.704699,-0.115549,0.744728,99846.69,-107,-158,-3
52243,8.588,-4.549,2.589,-0.634461,-0.154393,0.758563,99846.69,-107,-158,-3
52253,8.542,-4.818,2.483,-0.620626,-0.160779,0.776123,99850.37,-105,-158,-6
52263,8.641,-4.897,2.189,-0.650956,-0.154393,0.792618,99850.05,-102,-159,-7
52273,8.660,-5.105,1.665,-0.713213,-0.144815,0.830930,99847.15,-100,-160,-9
52283,8.670,-5.050,1.543,-0.780259,-0.119274,0.868178,99846.48,-100,-160,-9
52293,8.745,-5.289,1.072,-0.843580,-0.078834,0.900636,99846.48,-96,-161,-11
52303,8.822,-5.564,0.900,-0.975011,-0.037861,0.944801,99848.94,-95,-162,-14
52314,9.253,-5.038,1.832,-1.072919,0.014285,0.971939,99849.19,-91,-163,-16
52319,9.413,-4.236,3.501,-1.149543,-0.009127,0.948526,99849.77,-91,-163,-16
52328,9.409,-3.828,3.895,-1.064938,-0.110228,0.991627,99849.77,-89,-163,-20
52338,9.596,-4.285,2.942,-0.936167,-0.283164,1.133700,99848.78,-84,-164,-23
52348,9.026,-4.488,2.816,-0.748864,-0.467806,1.242783,99848.78,-84,-164,-23
52359,8.685,-4.835,2.533,-0.653617,-0.578485,1.322599,99848.82,-79,-165,-25
52368,9.099,-5.504,1.430,-0.694057,-0.642870,1.362508,99850.10,-74,-167,-28
52378,9.577,-5.547,1.291,-0.763763,-0.667879,1.421572,99848.98,-70,-168,-31
52388,9.924,-5.453,1.149,-0.818571,-0.705659,1.505645,99848.98,-70,-168,-31
52399,10.373,-5.463,1.199,-0.851030,-0.758338,1.584397,99848.98,-63,-168,-34
52408,10.736,-5.876,1.059,-0.869653,-0.816870,1.651975,99849.18,-58,-168,-38
52418,10.993,-6.225,0.853,-0.906369,-0.891898,1.742966,99848.24,-51,-169,-41
52428,11.198,-6.050,0.913,-0.963837,-0.964797,1.802030,99848.80,-51,-169,-41
52439,11.626,-5.989,0.715,-1.042057,-1.033971,1.821718,99847.62,-44,-169,-45
52448,12.230,-6.069,0.899,-1.111231,-1.097824,1.856838,99847.62,-36,-168,-49
52458,12.913,-6.026,1.398,-1.154332,-1.152099,1.907920,99848.22,-28,-168,-53
52468,13.930,-5.866,2.007,-1.207543,-1.222870,1.944104,99849.52,-28,-168,-53
52478,15.294,-5.900,3.052,-1.272460,-1.284062,1.960599,99848.22,-19,-165,-58
52489,16.648,-5.514,4.135,-1.315029,-1.315457,1.997315,99843.24,-10,-164,-62
52498,18.014,-5.152,4.477,-1.417194,-1.292044,2.119168,99851.24,+0,-161,-67
52508,19.343,-4.730,4.376,-1.564589,-1.343127,2.362874,99844.74,+0,-161,-67
52518,19.757,-3.409,5.191,-1.647066,-1.311200,2.585296,99844.74,+10,-156,-71
52529,19.989,-3.197,5.980,-1.689102,-1.213824,2.902965,99848.65,+22,-152,-76
52538,19.828,-4.422,5.839,-1.618332,-1.376117,3.364837,99844.12,+36,-146,-80
52548,19.465,-5.252,5.376,-1.340570,-1.621420,3.732524,99844.12,+36,-146,-80
52558,17.804,-5.319,6.210,-1.117084,-1.632594,3.545754,99847.41,+51,-140,-82
52569,14.184,-5.925,8.408,-1.066002,-1.534686,3.098250,99845.33,+64,-133,-86
52579,10.973,-5.575,7.382,-1.088883,-1.609714,2.810910,99845.58,+77,-126,-88
52588,7.048,-4.029,3.989,-1.108571,-1.598007,2.410232,99844.91,+77,-126,-88
52598,5.009,-2.735,4.174,-1.004277,-1.079200,1.965920,99849.23,+87,-118,-90
52609,21.371,1.595,5.067,-1.000552,-0.993531,1.601425,99844.09,+96,-112,-91
52619,-1.186,-2.010,2.122,-1.042057,-0.363513,0.374912,99845.34,+102,-106,-93
52628,-8.326,-6.391,-1.430,-0.319452,-0.519953,0.544123,99845.70,+102,-106,-93
52638,-1.257,-5.500,4.029,0.156254,-0.571567,0.998545,99845.70,+108,-102,-93
52648,7.366,-0.776,3.513,0.541502,-0.517824,-0.015125,99845.70,+114,-98,-91
52659,7.876,1.119,2.409,-0.121507,-0.143751,-1.306555,99848.85,+114,-97,-92
52668,5.728,1.939,3.057,-0.544002,0.115386,-1.304959,99846.24,+114,-97,-92
52674,4.696,1.426,1.684,-0.508883,0.203716,-1.180977,99845.84,+116,-94,-93
52683,3.489,0.869,0.884,-0.331690,0.294707,-1.375197,99844.54,+117,-93,-96
52694,1.511,-0.445,0.663,-0.026259,0.489459,-1.768958,99844.54,+117,-93,-96
52704,0.559,-1.545,0.847,0.387722,0.611845,-2.083435,99846.45,+116,-93,-96
52713,1.062,-1.580,0.730,0.700070,0.793294,-2.355343,99848.05,+114,-96,-96
52723,2.356,-1.074,0.767,0.796382,1.026358,-2.643215,99844.88,+110,-98,-96
52733,3.432,-0.710,0.956,0.828309,1.248248,-2.947581,99844.68,+110,-98,-96
52744,4.256,-0.735,1.005,0.913979,1.444596,-3.232792,99844.68,+106,-103,-97
52753,5.076,-1.069,0.943,1.084786,1.612211,-3.474902,99848.31,+100,-108,-98
52763,5.645,-1.721,0.991,1.298162,1.737257,-3.656884,99844.94,+92,-115,-98
52773,6.138,-2.653,0.885,1.518987,1.845807,-3.825030,99842.19,+92,-115,-98
52784,6.770,-3.476,0.896,1.696712,1.953825,-3.976150,99841.97,+83,-121,-96
52793,7.607,-4.290,0.774,1.830272,2.041091,-4.109709,99841.97,+73,-128,-95
52803,8.363,-4.854,0.870,1.918602,2.113458,-4.256571,99844.09,+61,-136,-93
52813,9.257,-5.364,1.028,1.979262,2.145917,-4.418865,99845.27,+61,-136,-93
52824,10.444,-6.183,1.130,2.006400,2.182633,-4.571580,99841.01,+46,-143,-91
52834,11.567,-6.898,1.300,1.976070,2.223073,-4.651397,99843.51,+31,-151,-87
52843,12.329,-7.271,1.667,1.883483,2.234779,-4.689177,99843.51,+14,-158,-84
52853,12.664,-7.713,2.102,1.753648,2.244889,-4.715782,99844.12,+14,-158,-84
52864,12.852,-8.480,2.754,1.624345,2.244889,-4.671085,99848.85,-5,-162,-80
52874,12.607,-9.244,3.156,1.524308,2.209770,-4.550828,99847.55,-23,-164,-75
52883,12.293,-9.433,3.083,1.482272,2.126761,-4.405562,99844.34,-42,-166,-70
52893,12.154,-9.650,2.721,1.441831,2.137935,-4.384810,99844.34,-42,-166,-70
52903,12.026,-9.737,2.643,1.355098,2.209238,-4.369379,99848.25,-61,-164,-65
52914,12.145,-9.484,2.578,1.218345,2.273091,-4.305525,99847.22,-80,-162,-58
52923,12.152,-9.233,2.349,1.053391,2.311403,-4.232094,99847.31,-98,-156,-52
52933,12.220,-8.992,2.193,0.877263,2.337477,-4.141636,99847.06,-98,-156,-52
52943,12.460,-8.797,2.141,0.697410,2.371000,-4.052241,99847.06,-115,-150,-45
52954,12.901,-8.715,2.213,0.522878,2.408247,-3.950076,99850.25,-131,-141,-38
52964,13.318,-8.704,2.011,0.360052,2.414633,-3.808003,99846.83,-145,-132,-31
52973,13.130,-8.408,1.660,0.235539,2.378981,-3.619636,99847.30,-145,-132,-31
52983,12.690,-8.249,0.973,0.142952,2.331091,-3.398810,99848.75,-156,-123,-25
52994,12.209,-8.460,-0.001,0.034401,2.240633,-3.108811,99848.75,-167,-114,-17
53004,11.435,-8.958,-0.888,-0.080002,2.071954,-2.713985,99850.81,-174,-104,-11
53013,10.379,-9.659,-1.473,-0.101287,1.854321,-2.254242,99848.94,-174,-104,-11
53023,9.352,-10.713,-2.238,0.046640,1.547294,-1.725857,99846.61,-180,-97,-5
53029,8.542,-11.819,-3.028,0.194566,1.249844,-1.306555,99846.30,-184,-93,-1
53039,7.197,-13.167,-3.855,0.370694,0.930578,-0.832977,99846.30,-184,-93,-1
53048,5.985,-14.063,-4.967,0.548951,0.433588,-0.132721,99846.30,-185,-90,+1
53059,5.652,-13.830,-4.831,0.549483,0.002047,0.593609,99853.90,-184,-91,+4
53068,6.020,-13.443,-3.653,0.426566,-0.348081,1.366765,99847.60,-182,-95,+4
53079,6.739,-13.834,-2.890,0.425502,-0.718430,2.133003,99849.84,-182,-95,+4
53089,8.442,-13.650,-1.693,0.573960,-1.076008,2.779516,99849.84,-178,-101,+3
53099,14.124,-6.546,1.295,0.982621,-1.263842,2.903497,99849.73,-172,-110,+2
53108,28.040,4.787,8.605,0.950694,-0.482173,1.913241,99849.73,-170,-115,+4
53118,39.902,30.729,11.530,1.627538,-1.012154,1.254489,99847.66,-170,-115,+4
53129,28.088,24.876,-2.358,-0.515268,-1.383035,2.890727,99848.22,-165,-119,+3
53139,-5.910,-2.310,-15.812,-1.011727,-0.920631,3.269057,99848.75,-156,-128,-1
53148,0.740,-19.377,-1.466,1.986180,-1.866723,3.551607,99848.75,-147,-136,+0
53158,16.980,-11.521,1.286,3.840582,-2.148741,4.608377,99849.99,-147,-136,+0
53169,8.804,-10.117,6.403,2.479445,-1.350576,3.725075,99849.16,-135,-149,+4
53179,3.677,-14.974,13.521,1.815905,-0.613072,3.377075,99845.79,-126,-157,+7
53189,9.822,-12.662,6.549,1.819097,-1.082393,3.590451,99847.60,-116,-165,+9
53198,6.202,-6.525,1.124,1.005501,-1.471365,2.754507,99851.13,-116,-165,+9
53209,3.496,-9.518,7.566,-0.061911,-1.137200,2.324030,99850.04,-109,-170,+9
53219,6.953,-10.406,5.825,-0.722259,-1.017475,2.138856,99851.76,-102,-175,+4
53228,7.595,-8.907,-1.511,-1.702937,-1.025989,1.717957,99851.76,-96,-176,+0
53238,7.846,-6.361,-5.184,-2.568148,-0.585402,1.317810,99848.90,-96,-176,+0
53249,9.828,-3.649,-2.587,-2.448423,-0.022430,0.915535,99848.90,-93,-177,-9
53259,10.156,-1.438,-1.419,-1.692295,0.178707,0.800600,99851.17,-91,-177,-14
53264,9.904,-0.829,-0.105,-1.105910,0.149441,0.911279,99851.02,-91,-177,-14
53273,9.842,-0.807,0.768,-0.452479,0.060579,1.068251,99849.41,-88,-179,-14
53283,9.742,-1.641,2.861,0.151465,-0.050100,1.241187,99848.31,-85,-181,-15
53294,8.481,-3.896,3.080,0.409006,-0.199091,1.298122,99848.31,-80,-183,-14
53304,8.390,-5.773,2.889,0.473392,-0.155990,1.176801,99849.00,-80,-183,-14
53313,8.290,-7.631,4.199,0.119007,-0.000082,0.880948,99849.20,-77,-185,-14
53323,7.635,-8.812,3.494,-0.552516,0.163276,0.525499,99849.63,-75,-185,-15
53334,7.960,-5.937,2.979,-1.171892,0.340469,0.383958,99847.86,-74,-186,-17
53344,8.416,-3.142,3.430,-1.445928,0.416028,0.421205,99847.86,-74,-186,-17
53354,9.450,-1.874,3.153,-1.307580,0.335148,0.408967,99852.69,-73,-185,-21
53363,10.161,-1.822,2.986,-0.967029,0.209570,0.372783,99849.05,-72,-184,-23
53373,10.061,-2.625,3.505,-0.599342,0.042487,0.433444,99848.06,-71,-184,-25
53384,9.224,-3.311,3.614,-0.305972,-0.141800,0.552991,99849.47,-71,-184,-25
53394,8.233,-3.999,3.379,-0.202920,-0.203348,0.565407,99849.47,-68,-185,-25
53403,7.616,-4.804,2.855,-0.220479,-0.192705,0.523371,99849.69,-66,-187,-26
53413,7.456,-5.139,2.814,-0.367342,-0.135770,0.452600,99847.52,-65,-186,-27
53424,7.704,-4.871,2.913,-0.570608,-0.061806,0.390875,99845.17,-65,-186,-27
53434,8.291,-4.337,2.931,-0.703103,-0.021898,0.363738,99844.14,-63,-186,-29
53443,8.382,-4.021,2.959,-0.714809,-0.028816,0.361609,99844.14,-63,-187,-32
53453,8.289,-3.926,2.782,-0.665323,-0.052760,0.383426,99849.05,-61,-186,-34
53464,8.162,-3.924,2.604,-0.601470,-0.088412,0.417481,99850.45,-61,-186,-34
53474,8.120,-3.995,2.631,-0.533892,-0.120338,0.435572,99848.59,-60,-185,-36
53484,8.186,-4.208,2.636,-0.470571,-0.139494,0.446215,99845.31,-58,-186,-37
53493,8.361,-4.691,2.392,-0.450351,-0.135770,0.439297,99845.31,-57,-186,-38
53504,8.473,-5.059,2.232,-0.477488,-0.125659,0.419077,99849.47,-57,-186,-38
53514,8.554,-5.097,2.264,-0.552516,-0.108632,0.397793,99847.23,-55,-186,-39
53524,8.477,-4.986,2.072,-0.631800,-0.090008,0.400985,99847.70,-53,-185,-42
53533,8.561,-4.843,1.939,-0.692993,-0.062338,0.419077,99846.88,-52,-186,-44
53543,8.543,-4.640,2.220,-0.709488,-0.060742,0.398857,99846.88,-52,-186,-44
53554,8.485,-4.448,2.442,-0.676498,-0.080962,0.408435,99850.34,-51,-186,-46
53564,8.506,-4.321,2.205,-0.626479,-0.090008,0.441958,99850.65,-49,-185,-48
53573,8.325,-4.009,2.203,-0.593488,-0.092669,0.439829,99842.54,-47,-185,-49
53583,8.380,-3.894,2.264,-0.532296,-0.120338,0.487187,99849.98,-45,-185,-50
53594,8.479,-3.732,1.856,-0.478021,-0.169292,0.590948,99849.98,-45,-185,-50
53604,8.470,-3.777,1.189,-0.451947,-0.231549,0.680875,99852.65,-44,-184,-53
53614,8.491,-3.894,1.109,-0.400333,-0.314026,0.775591,99849.52,-40,-186,-53
53623,8.567,-3.990,1.306,-0.353507,-0.377347,0.869242,99848.85,-37,-186,-55
53634,8.977,-4.321,1.610,-0.311470,-0.434815,0.943737,99845.27,-37,-186,-55
53644,9.280,-4.702,2.076,-0.294975,-0.490155,1.012912,99845.27,-34,-187,-56
53654,9.724,-5.107,2.266,-0.310406,-0.553476,1.092728,99846.88,-30,-187,-58
53663,9.882,-4.921,3.090,-0.366810,-0.638081,1.164031,99848.60,-24,-188,-60
53673,10.221,-4.737,3.222,-0.400865,-0.712577,1.302911,99849.49,-24,-188,-60
53684,10.117,-4.716,2.711,-0.448222,-0.812613,1.443388,99846.99,-19,-187,-61
53694,9.815,-4.858,2.379,-0.448755,-0.920099,1.588122,99846.99,-13,-188,-63
53704,9.673,-5.113,2.342,-0.437580,-1.000448,1.715296,99848.06,-5,-189,-65
53713,9.670,-5.715,2.139,-0.469507,-1.053659,1.804159,99848.69,-5,-189,-65
53724,9.881,-6.431,2.032,-0.555709,-1.085586,1.859498,99848.28,+1,-189,-66
53734,10.352,-6.884,2.093,-0.703635,-1.085586,1.901003,99849.89,+8,-188,-69
53739,10.945,-7.109,2.218,-0.865396,-1.080796,1.911645,99849.89,+8,-188,-69
53748,11.818,-6.994,2.440,-1.021837,-1.092503,1.905792,99849.89,+17,-188,-73
53758,13.343,-6.720,3.123,-1.197433,-1.130283,1.870672,99849.63,+25,-185,-77
53769,14.860,-6.465,4.204,-1.288424,-1.155824,1.845663,99849.27,+25,-185,-77
53779,16.781,-5.922,3.562,-1.368240,-1.162209,1.957938,99847.86,+33,-184,-80
53789,18.263,-4.771,3.002,-1.533194,-1.208503,2.160140,99847.86,+43,-181,-84
53798,18.695,-3.493,3.633,-1.609818,-1.230319,2.387351,99850.92,+52,-177,-89
53809,18.966,-2.946,4.784,-1.550754,-1.240962,2.591681,99846.63,+62,-175,-93
53819,19.575,-3.823,6.013,-1.428901,-1.160081,2.771002,99846.63,+62,-175,-93
53829,19.361,-4.645,6.491,-1.311837,-1.100485,3.121130,99846.77,+74,-169,-96
53838,16.895,-6.542,5.907,-1.402295,-1.172319,3.538304,99848.55,+88,-164,-100
53849,14.794,-8.196,5.094,-1.312901,-1.359622,3.877790,99848.55,+102,-158,-101
53859,14.583,-8.138,5.670,-1.076644,-1.309604,3.711240,99848.19,+102,-158,-101
53869,14.715,-7.443,6.308,-1.100589,-1.087182,3.207332,99845.70,+114,-153,-103
53879,12.308,-5.955,5.476,-1.495947,-1.063769,2.855076,99846.58,+124,-147,-105
53889,9.324,-3.932,3.429,-1.822130,-0.900943,2.501755,99845.95,+132,-139,-109
53899,6.783,-3.334,2.695,-1.998258,-0.498668,2.139388,99849.16,+132,-139,-109
53909,11.039,-0.882,2.984,-1.859378,-0.167696,1.820122,99849.42,+138,-132,-113
53919,12.741,-2.457,2.559,-2.169598,0.299496,0.894251,99846.05,+140,-126,-118
53928,-9.884,-5.813,-4.166,-1.399635,-0.076173,0.712802,99846.83,+142,-122,-120
53939,-3.368,-6.028,1.545,-0.814314,-0.084155,1.153389,99846.83,+142,-122,-120
53949,5.625,0.527,2.267,-0.111397,-0.199091,0.585627,99846.83,+146,-119,-120
53959,7.177,5.272,0.877,-0.533360,0.228194,-0.793069,99846.73,+145,-118,-121
53968,5.763,4.015,1.210,-0.738222,0.469239,-1.102757,99844.61,+140,-119,-123
53975,4.541,2.431,0.630,-0.371599,0.448487,-1.039436,99844.45,+140,-119,-123
53984,3.264,1.937,0.444,0.203080,0.344726,-1.140537,99845.59,+139,-121,-123
53994,1.956,1.212,0.407,0.928346,0.301093,-1.449692,99845.59,+139,-121,-123
54004,1.086,0.143,0.414,1.403520,0.338340,-1.828022,99844.33,+134,-125,-121
54013,0.813,-0.494,0.890,1.600932,0.481478,-2.192518,99847.03,+128,-130,-118
54024,1.195,-0.829,1.061,1.617428,0.694854,-2.559673,99842.14,+119,-136,-114
54034,1.975,-1.048,0.949,1.490253,0.906633,-2.944921,99845.67,+119,-136,-114
54044,2.755,-1.050,0.853,1.385960,1.104578,-3.320590,99845.67,+110,-142,-112
54053,3.420,-1.083,0.811,1.315189,1.285496,-3.654223,99843.05,+97,-148,-109
54064,4.234,-1.354,0.757,1.291244,1.461092,-3.966039,99845.07,+84,-154,-107
54074,4.990,-1.788,0.736,1.298694,1.602633,-4.225177,99843.46,+68,-158,-105
54084,5.763,-2.350,0.636,1.353501,1.733532,-4.437489,99842.68,+68,-158,-105
54094,6.689,-3.340,0.555,1.447152,1.875605,-4.637917,99842.68,+51,-162,-101
54104,7.759,-4.301,0.689,1.538675,1.975642,-4.781764,99844.50,+32,-165,-97
54114,8.919,-5.175,0.942,1.642969,2.035238,-4.920112,99844.75,+14,-167,-92
54124,9.772,-5.630,0.955,1.729703,2.070890,-5.034516,99840.86,+14,-167,-92
54134,10.353,-5.977,1.121,1.804198,2.144853,-5.147323,99844.23,-5,-166,-86
54144,11.185,-6.677,1.434,1.886675,2.233715,-5.250552,99844.23,-25,-167,-80
54154,12.261,-7.465,1.983,1.885611,2.295972,-5.305892,99847.70,-44,-164,-73
54164,12.980,-8.314,2.634,1.779721,2.324174,-5.282479,99847.50,-44,-164,-73
54174,13.219,-8.778,3.393,1.617428,2.324706,-5.155837,99843.91,-62,-159,-67
54183,13.696,-9.074,3.541,1.520052,2.315128,-5.048883,99845.98,-79,-153,-60
54194,14.230,-9.210,3.292,1.482804,2.344926,-4.999929,99845.98,-95,-147,-53
54204,14.685,-9.322,3.019,1.427464,2.382174,-4.925965,99845.53,-95,-147,-53
54214,14.920,-9.541,2.845,1.269428,2.409312,-4.807837,99848.39,-109,-138,-46
54223,15.093,-9.730,2.841,1.019868,2.406119,-4.658314,99846.05,-123,-128,-40
54234,15.464,-9.870,3.040,0.769777,2.385366,-4.481122,99845.11,-135,-120,-34
54244,15.260,-9.829,3.167,0.535116,2.354504,-4.278920,99845.11,-135,-120,-34
54254,14.312,-9.838,2.820,0.335575,2.300761,-4.022443,99850.24,-146,-109,-28
54264,13.359,-10.058,1.698,0.181263,2.252871,-3.698388,99845.84,-154,-100,-23
54274,12.857,-10.484,-0.108,0.031208,2.170926,-3.298242,99847.85,-161,-91,-18
54284,12.188,-10.804,-1.928,-0.144388,2.049073,-2.893306,99849.26,-161,-91,-18
54294,10.821,-10.770,-2.451,-0.245489,1.881991,-2.436224,99849.26,-168,-84,-14
54304,9.691,-11.188,-2.562,-0.173122,1.615936,-1.868463,99850.29,-172,-77,-11
54313,8.321,-12.008,-3.030,-0.027324,1.209936,-1.231527,99850.02,-174,-72,-8
54324,7.263,-12.729,-3.660,0.111557,0.709221,-0.544042,99845.76,-174,-72,-8
54334,6.840,-12.450,-3.376,0.177007,0.261716,0.118435,99850.13,-175,-72,-7
54344,7.020,-11.154,-2.244,0.155190,-0.058082,0.737279,99850.13,-174,-74,-7
54354,7.614,-10.370,-1.336,0.222236,-0.382668,1.343352,99851.34,-172,-79,-7
54364,8.267,-10.473,-1.307,0.437208,-0.756210,1.960599,99849.93,-172,-79,-7
54374,11.908,-8.102,0.368,0.686236,-1.011622,2.509736,99849.05,-168,-85,-9
54384,22.162,-4.123,3.122,0.668144,-0.609879,2.150562,99846.40,-163,-93,-9
54394,17.547,8.964,6.300,0.655373,-0.699274,1.892489,99846.40,-160,-98,-11
54404,26.056,25.358,8.700,0.989538,-0.852521,1.151792,99847.00,-160,-98,-11
54414,24.106,18.793,-2.470,-0.111929,-1.288851,2.324030,99848.03,-157,-102,-11
54424,0.504,0.649,-10.421,-0.655213,-0.982888,2.886470,99850.33,-151,-110,-15
54434,3.565,-11.192,-2.359,1.312529,-1.510209,2.894452,99847.72,-144,-117,-17
54444,12.687,-8.662,-0.188,2.659298,-1.787438,3.604286,99847.72,-144,-117,-17
54450,12.719,-6.372,1.028,2.302785,-1.433053,3.746359,99851.60,-135,-128,-14
54459,8.820,-7.733,5.334,1.562088,-0.987677,3.385057,99851.60,-126,-136,-12
54469,6.201,-10.976,10.589,1.396070,-0.644999,3.134965,99845.84,-126,-136,-12
54479,9.886,-10.473,9.437,1.836125,-0.878063,3.471791,99846.26,-118,-144,-11
54490,9.788,-5.497,1.544,1.562620,-1.519787,3.181259,99846.35,-110,-151,-9
54499,5.575,-4.398,2.682,0.647392,-1.400594,2.520911,99851.36,-102,-157,-10
54509,3.502,-8.195,9.830,-0.155030,-1.011622,2.244214,99845.95,-102,-157,-10
54519,5.364,-12.275,6.833,-0.758442,-0.941384,1.948893,99851.41,-96,-161,-12
54529,7.252,-8.674,-3.336,-1.464020,-0.930209,1.448177,99851.41,-91,-164,-19
54539,8.836,-5.067,-4.473,-2.119579,-0.302852,1.047499,99848.19,-88,-163,-25
54549,11.210,-2.489,-2.152,-2.107341,0.039295,0.774526,99848.19,-88,-163,-25
54559,11.028,-0.416,-1.113,-1.251176,-0.082026,0.799003,99853.13,-86,-164,-29
54569,10.147,-0.646,1.200,-0.294443,-0.120870,1.045902,99849.54,-83,-164,-30
54579,9.400,-1.642,1.708,0.414327,-0.246981,1.253957,99850.74,-79,-167,-28
54589,8.901,-3.155,0.313,0.774034,-0.335843,1.326324,99845.74,-79,-167,-28
54599,8.261,-4.834,1.441,0.824584,-0.295935,1.243847,99845.74,-75,-169,-27
54609,8.406,-6.319,3.906,0.686768,-0.181531,1.003334,99848.86,-72,-172,-25
54620,8.156,-7.114,4.710,0.262144,-0.062338,0.641499,99849.77,-70,-173,-25
54629,7.198,-6.732,4.389,-0.370002,0.095166,0.350435,99845.30,-70,-173,-25
54639,7.154,-5.262,3.236,-0.819635,0.184028,0.246141,99845.30,-68,-173,-26
54649,8.792,-2.647,2.713,-1.062809,0.213294,0.198784,99845.30,-70,-172,-28
54659,10.100,-2.207,3.010,-0.960112,0.143588,0.093426,99849.37,-69,-173,-32
54669,9.789,-2.641,2.388,-0.637121,0.007900,0.205701,99847.91,-69,-173,-32
54679,9.333,-2.690,2.503,-0.374791,-0.076705,0.405242,99848.43,-68,-171,-32
54689,9.042,-2.921,2.135,-0.149709,-0.163439,0.467499,99847.55,-66,-172,-33
54699,8.674,-3.592,2.469,-0.035305,-0.199091,0.393536,99847.55,-65,-173,-33
54709,8.281,-4.415,2.428,0.017374,-0.175146,0.340325,99849.61,-65,-173,-33
54719,8.032,-5.038,2.043,-0.109801,-0.087880,0.297224,99849.81,-64,-173,-34
54729,8.282,-4.697,2.306,-0.351378,0.013221,0.241884,99845.66,-63,-174,-34
54739,8.612,-3.774,2.746,-0.505158,0.066964,0.212618,99845.66,-63,-173,-36
54750,8.660,-3.142,2.914,-0.510479,0.052065,0.231242,99849.30,-63,-173,-36
54759,8.696,-2.757,3.026,-0.391819,0.000451,0.294563,99847.89,-62,-173,-37
54769,8.544,-2.970,3.019,-0.228461,-0.077237,0.348839,99847.89,-61,-173,-38
54779,8.348,-3.356,2.882,-0.085856,-0.150137,0.412160,99849.08,-60,-173,-38
54789,8.492,-3.829,2.750,-0.014021,-0.195366,0.449939,99846.75,-58,-173,-38
54799,8.819,-4.266,2.677,-0.038498,-0.224632,0.453664,99846.75,-58,-174,-38
54809,8.855,-4.354,2.657,-0.111929,-0.229421,0.451004,99850.30,-57,-174,-38
54819,8.849,-4.288,2.373,-0.177911,-0.214522,0.461114,99848.58,-55,-175,-40
54830,8.764,-4.148,2.161,-0.216223,-0.211861,0.465903,99850.50,-54,-175,-41
54839,8.621,-4.139,1.798,-0.222608,-0.209201,0.477609,99848.69,-54,-175,-41
54849,8.594,-4.191,1.581,-0.197599,-0.222503,0.496765,99849.45,-52,-176,-41
54859,8.418,-4.063,1.538,-0.155562,-0.238999,0.508471,99849.29,-51,-176,-42
54870,8.381,-4.074,1.549,-0.112461,-0.234210,0.519646,99850.49,-49,-177,-42
54879,8.476,-4.321,1.507,-0.119379,-0.213990,0.522838,99850.49,-49,-177,-42
54889,8.670,-4.434,1.430,-0.145984,-0.190577,0.536673,99847.21,-46,-177,-44
54899,8.722,-4.248,1.860,-0.175250,-0.180999,0.571793,99847.21,-44,-178,-44
54909,8.710,-4.203,2.037,-0.186424,-0.179935,0.617022,99848.76,-42,-179,-44
54919,8.710,-4.117,2.135,-0.188021,-0.207604,0.683536,99849.65,-42,-179,-44
54929,8.679,-3.904,2.365,-0.192278,-0.237403,0.756967,99850.63,-40,-179,-45
54939,8.659,-3.789,2.285,-0.193342,-0.279971,0.839976,99847.77,-36,-179,-46
54949,8.649,-3.734,2.413,-0.172057,-0.349146,0.945866,99847.77,-34,-180,-46
54960,8.982,-4.624,2.433,-0.155562,-0.438540,1.078361,99849.66,-34,-180,-46
54969,9.014,-4.745,2.691,-0.232718,-0.515696,1.217774,99848.77,-29,-182,-47
54979,9.001,-4.469,2.749,-0.325837,-0.573696,1.331645,99846.54,-25,-181,-49
54989,8.835,-4.750,2.813,-0.401929,-0.652980,1.439131,99846.54,-19,-183,-51
55000,8.733,-4.995,2.699,-0.487066,-0.713641,1.540764,99846.54,-19,-183,-51
55009,8.894,-5.358,2.736,-0.599874,-0.735457,1.616324,99850.51,-13,-184,-53
55019,9.040,-6.117,2.504,-0.739286,-0.769512,1.661021,99848.48,-7,-184,-56
55029,9.700,-6.486,1.766,-0.877635,-0.760999,1.659425,99848.90,-1,-184,-58
55040,9.850,-7.198,1.182,-1.050571,-0.732087,1.574997,99848.57,-1,-184,-58
55049,10.370,-7.218,2.351,-1.147415,-0.729604,1.532783,99848.57,+4,-183,-63
55059,11.334,-6.204,4.145,-1.112295,-0.782283,1.552471,99848.98,+9,-183,-66
55069,12.235,-6.340,2.094,-1.085158,-0.764191,1.637608,99847.48,+15,-181,-69
55079,13.219,-6.580,1.270,-1.133048,-0.874870,1.663682,99847.68,+15,-181,-69
55090,14.204,-6.258,1.983,-1.121341,-0.997255,1.742966,99845.99,+22,-179,-73
55099,16.147,-5.955,2.705,-1.143690,-1.070686,1.851516,99849.10,+30,-179,-76
55109,17.408,-5.298,3.679,-1.160717,-1.176044,1.960067,99848.12,+38,-177,-79
55119,17.745,-5.257,4.030,-1.087818,-1.273952,2.176103,99848.12,+38,-177,-79
55130,17.843,-6.092,3.508,-1.147947,-1.314393,2.286782,99847.49,+47,-175,-82
55139,17.431,-6.252,4.653,-1.492754,-1.140393,2.417149,99847.96,+56,-172,-85
55149,17.720,-5.942,5.297,-1.979102,-0.842943,2.674158,99847.96,+65,-168,-92
55159,17.394,-4.744,6.482,-2.412240,-0.627439,2.879553,99848.14,+65,-168,-92
55170,16.627,-4.730,6.528,-2.681487,-0.571567,2.902965,99847.63,+75,-162,-98
55180,13.811,-6.966,5.475,-2.959249,-0.707788,3.032800,99846.44,+84,-154,-106
55189,12.279,-8.618,4.843,-2.628276,-0.856778,3.361644,99846.48,+96,-147,-112
55199,13.091,-7.182,3.404,-1.880662,-0.870081,3.275442,99846.48,+96,-147,-112
55209,12.081,-4.416,3.961,-1.274589,-0.739714,2.988103,99847.53,+106,-141,-115
55220,10.577,-2.995,3.878,-0.889874,-0.539641,2.755571,99846.63,+115,-136,-116
55229,7.564,-2.717,2.748,-0.871782,-0.326265,2.395865,99845.17,+120,-132,-118
55239,5.112,-1.451,1.753,-1.020773,-0.097990,1.929737,99845.17,+120,-132,-118
55249,3.620,-1.098,-0.446,-1.368240,0.162744,1.408269,99845.17,+125,-126,-122
55260,1.797,-2.228,-0.291,-1.631634,0.495845,1.062930,99848.73,+127,-123,-125
55269,2.818,1.746,1.347,-1.071855,0.509680,0.618618,99847.91,+127,-119,-127
55279,3.820,5.521,0.651,-0.649892,0.607056,-0.049712,99845.92,+124,-119,-128
55289,3.869,5.757,0.092,-0.462057,0.799679,-0.575436,99849.41,+124,-115,-128
55300,2.891,4.027,-0.387,0.097722,0.749129,-0.943656,99849.41,+121,-116,-130
55310,2.222,3.115,-0.052,0.954419,0.573001,-1.196940,99847.48,+117,-119,-128
55319,2.166,2.032,-0.156,1.616363,0.497973,-1.477894,99845.23,+112,-124,-125
55329,2.027,0.802,0.295,1.927648,0.528303,-1.837600,99843.95,+112,-124,-125
55340,2.081,-0.073,0.665,2.026620,0.623019,-2.227637,99843.95,+105,-131,-122
55350,2.421,-0.695,0.739,1.990437,0.749129,-2.631508,99848.41,+97,-137,-116
55359,2.948,-0.978,0.354,1.895721,0.857679,-3.008242,99848.41,+87,-142,-112
55369,3.614,-1.087,-0.150,1.811116,0.948138,-3.326976,99847.43,+87,-142,-112
55379,4.534,-1.266,-0.655,1.731299,1.049239,-3.616976,99844.93,+75,-147,-109
55390,5.611,-1.871,-0.993,1.649354,1.148211,-3.893672,99844.41,+63,-151,-106
55399,6.781,-2.775,-1.243,1.589758,1.211532,-4.141104,99844.41,+49,-155,-102
55409,7.913,-3.555,-1.155,1.551446,1.234945,-4.368846,99848.35,+49,-155,-102
55419,8.853,-4.309,-0.884,1.546657,1.224303,-4.587011,99845.49,+35,-158,-98
55430,9.741,-5.036,-0.605,1.604657,1.207808,-4.793470,99846.79,+19,-160,-94
55440,10.405,-5.530,-0.315,1.717464,1.216321,-4.957892,99846.65,+3,-161,-88
55449,11.047,-6.000,0.302,1.884547,1.242395,-5.028663,99845.24,+3,-161,-88
55459,11.758,-6.500,0.851,2.145813,1.172156,-5.033452,99847.59,-12,-161,-82
55470,12.200,-6.670,1.288,2.507647,0.992835,-4.998865,99846.34,-28,-162,-75
55480,13.433,-7.252,1.412,2.881720,0.784780,-4.914791,99846.34,-42,-162,-67
55489,15.124,-8.286,1.482,3.261115,0.630468,-4.854663,99845.98,-42,-162,-67
55499,16.573,-9.026,1.168,3.611243,0.380909,-4.664167,99845.98,-56,-160,-57
55510,16.752,-9.241,1.118,3.880490,0.077074,-4.369379,99847.30,-68,-159,-49
55515,16.713,-9.322,1.124,3.994894,-0.135770,-4.177819,99848.18,-68,-159,-49
55524,16.494,-9.450,1.661,4.072582,-0.331586,-3.976150,99847.30,-80,-157,-39
55534,16.056,-9.495,2.774,4.210399,-0.585402,-3.649434,99847.04,-90,-156,-29
55544,14.910,-9.646,4.106,4.251903,-0.838154,-3.332829,99847.04,-90,-156,-29
55555,13.068,-10.063,6.196,4.324802,-0.998320,-2.943857,99848.49,-97,-153,-20
55565,11.826,-10.621,7.170,4.597242,-1.043549,-2.459637,99846.73,-105,-151,-11
