89998,15.093,-14.276,-0.874,0.850657,0.418157,-0.713253,99847.60,-203,+86,-35
90008,12.679,1.404,-0.056,-0.259323,0.558102,-1.506096,99847.60,-202,+93,-33
90018,16.413,8.550,4.206,-1.543836,1.388193,-1.622096,99849.02,-202,+93,-33
90028,25.612,5.169,3.593,-1.568313,1.064138,-1.000060,99848.04,-203,+100,-26
90038,21.408,-0.129,2.946,-0.479617,0.383570,0.071077,99845.23,-204,+100,-26
90048,13.815,-2.881,1.693,0.739979,0.121772,0.384490,99847.88,-204,+98,-26
90058,7.130,-1.969,2.603,1.170988,-0.006467,0.237095,99847.88,-204,+98,-26
90068,3.030,-3.226,3.060,0.996456,-0.106504,0.433976,99850.02,-203,+96,-26
90078,2.657,-5.904,4.535,0.826713,-0.084155,0.541994,99849.04,-204,+93,-28
90088,6.152,-7.446,4.800,0.667080,0.018542,0.280196,99848.62,-204,+93,-27
90098,8.166,-7.255,3.734,0.170621,0.118579,-0.002886,99844.93,-204,+93,-27
90108,8.830,-6.140,2.242,-0.304553,0.235111,-0.027895,99844.93,-204,+92,-26
90118,9.154,-4.002,1.265,-0.400333,0.223937,-0.001822,99848.88,-204,+93,-25
90128,9.894,-2.689,1.395,-0.194406,0.214359,-0.010336,99848.45,-204,+93,-25
90138,9.941,-3.001,0.886,0.057637,0.136316,-0.035167,99852.16,-204,+93,-25
90148,9.339,-3.736,0.020,0.257355,0.053662,0.017334,99847.67,-204,+92,-25
90158,9.028,-3.981,0.007,0.356860,0.068028,0.045004,99847.67,-204,+93,-25
90168,9.099,-4.023,0.629,0.351539,0.138267,0.044472,99849.81,-205,+92,-25
90178,9.013,-4.306,1.167,0.298860,0.177643,0.034894,99849.59,-205,+92,-25
90188,8.920,-4.117,2.227,0.250438,0.212762,0.006160,99848.88,-205,+91,-24
90199,8.872,-3.968,3.238,0.212658,0.226065,0.006160,99846.06,-205,+91,-23
90208,8.771,-3.957,3.422,0.138163,0.174450,0.012545,99846.06,-205,+91,-23
90218,8.732,-3.866,3.624,0.129649,0.088249,0.012545,99849.83,-205,+91,-23
90228,8.494,-3.877,3.007,0.139227,0.055258,0.011481,99848.94,-205,+91,-23
90238,8.251,-4.317,1.735,0.114750,0.063772,-0.001290,99850.30,-205,+91,-23
90248,8.223,-4.651,1.222,0.091869,0.125496,-0.038005,99846.86,-205,+91,-23
90258,8.467,-4.321,0.636,0.066860,0.210634,-0.096005,99846.86,-205,+91,-23
90268,8.824,-3.674,0.459,-0.038498,0.273423,-0.149748,99850.23,-205,+91,-22
90278,9.244,-3.153,1.843,-0.074149,0.320248,-0.133253,99850.23,-205,+92,-21
90289,9.214,-2.973,2.167,-0.018810,0.298964,-0.038537,99847.36,-206,+91,-20
90298,8.928,-3.232,2.641,0.106236,0.242560,0.065756,99846.95,-206,+91,-20
90308,8.753,-3.683,2.752,0.182328,0.176579,0.136527,99846.95,-205,+91,-18
90318,8.581,-4.131,2.700,0.154658,0.138267,0.157279,99848.78,-206,+91,-19
90329,8.636,-4.069,2.779,0.087612,0.134542,0.140784,99849.31,-206,+90,-19
90338,8.617,-3.846,2.286,-0.000718,0.140395,0.134930,99846.81,-206,+90,-18
90348,8.571,-3.738,1.866,-0.023067,0.140928,0.152490,99849.67,-206,+90,-18
90358,8.656,-3.860,2.110,0.047704,0.127625,0.172178,99849.67,-205,+90,-18
90369,8.429,-4.057,1.910,0.109429,0.122304,0.180160,99850.81,-207,+89,-17
90378,8.349,-4.343,1.450,0.110493,0.146781,0.155151,99847.06,-206,+87,-17
90388,8.527,-4.539,2.108,0.092401,0.177111,0.093958,99848.05,-206,+87,-17
90398,8.816,-4.179,3.485,0.067392,0.170194,0.036490,99845.75,-207,+88,-16
90408,8.830,-3.936,3.623,0.028548,0.130285,0.033297,99845.75,-207,+88,-16
90419,8.800,-3.899,4.023,0.038126,0.063772,0.051389,99849.91,-207,+87,-15
90428,8.793,-3.935,3.484,0.029080,0.003111,0.073206,99848.88,-207,+87,-15
90438,8.548,-3.989,2.711,0.005135,-0.027219,0.090233,99847.00,-207,+87,-15
90448,8.679,-3.878,2.483,0.010456,-0.025091,0.100343,99847.52,-207,+86,-16
90459,8.764,-3.645,2.470,0.003539,-0.020302,0.130141,99847.52,-207,+85,-15
90468,8.746,-3.452,2.303,-0.005507,-0.020302,0.183885,99852.79,-207,+85,-15
90478,8.817,-3.422,2.541,0.019502,-0.046907,0.253059,99850.35,-207,+85,-16
90488,8.759,-3.572,2.512,0.035465,-0.076705,0.327022,99849.77,-207,+85,-16
90493,8.597,-3.700,2.464,0.047704,-0.105971,0.373848,99848.79,-207,+85,-16
90503,8.670,-3.726,2.602,0.067392,-0.135237,0.406306,99848.79,-208,+84,-16
90513,8.646,-3.749,2.695,0.082823,-0.173017,0.435572,99848.79,-207,+82,-17
90523,8.703,-3.755,2.928,0.093997,-0.205476,0.457921,99851.64,-207,+82,-17
90533,8.446,-4.598,2.413,0.074309,-0.211329,0.443554,99848.94,-208,+80,-17
90544,8.351,-4.888,1.865,0.059410,-0.200687,0.389279,99849.45,-207,+78,-18
90554,8.342,-4.985,2.025,0.011520,-0.166632,0.330215,99849.45,-208,+77,-19
90563,8.279,-4.795,2.096,-0.050204,-0.135770,0.284453,99849.68,-208,+76,-19
90573,8.224,-4.599,1.957,-0.070957,-0.107568,0.242417,99849.68,-208,+76,-19
90584,8.302,-4.489,2.205,-0.034241,-0.110760,0.210490,99847.65,-208,+76,-19
90594,8.252,-4.388,2.203,0.031741,-0.133641,0.178031,99847.80,-207,+75,-20
90603,8.279,-4.554,1.976,0.055686,-0.135237,0.175903,99849.01,-208,+74,-20
90613,8.372,-4.722,2.109,0.056218,-0.135237,0.170582,99849.01,-208,+74,-20
90624,8.498,-4.648,2.325,0.017374,-0.117678,0.162600,99849.88,-208,+74,-21
90634,8.588,-4.551,2.157,-0.059782,-0.090008,0.155151,99848.43,-207,+74,-20
90644,8.548,-4.391,2.224,-0.131617,-0.067127,0.152490,99848.48,-209,+73,-20
90653,8.606,-4.192,2.458,-0.160883,-0.067127,0.172710,99847.84,-209,+73,-20
90663,8.598,-4.188,2.583,-0.175250,-0.093733,0.213683,99848.21,-209,+73,-20
90674,8.513,-4.199,2.627,-0.189617,-0.132045,0.261573,99849.20,-209,+72,-21
90684,8.443,-4.305,2.533,-0.210901,-0.170357,0.311059,99846.49,-209,+70,-22
90693,8.451,-4.499,2.384,-0.238039,-0.194302,0.348839,99846.49,-209,+70,-22
90703,8.495,-4.506,2.139,-0.260920,-0.213990,0.386618,99847.21,-208,+70,-22
90714,8.645,-4.325,2.165,-0.276351,-0.231017,0.416416,99847.21,-209,+68,-23
90724,8.807,-4.253,2.337,-0.269434,-0.252302,0.450471,99851.95,-208,+67,-23
90729,8.721,-4.588,2.091,-0.254534,-0.267733,0.482398,99852.52,-208,+67,-23
90738,8.600,-4.758,1.905,-0.248681,-0.283164,0.501554,99848.88,-208,+65,-23
90748,8.434,-4.837,2.191,-0.268369,-0.294338,0.518049,99848.20,-208,+65,-23
90759,8.410,-4.926,2.208,-0.310406,-0.296999,0.531352,99848.20,-207,+64,-25
90769,8.385,-4.846,2.051,-0.372131,-0.291678,0.553701,99849.18,-208,+62,-25
90778,8.504,-4.803,1.903,-0.412571,-0.304448,0.586160,99846.57,-207,+61,-26
90788,8.610,-4.904,1.675,-0.453011,-0.320944,0.624471,99849.49,-207,+61,-26
90799,8.652,-4.897,1.629,-0.486534,-0.331586,0.672893,99848.24,-207,+59,-26
90809,8.795,-5.005,1.510,-0.524314,-0.350742,0.710141,99848.24,-207,+57,-28
90818,8.927,-5.169,1.515,-0.569543,-0.354467,0.738875,99851.28,-207,+54,-30
90828,9.022,-5.439,1.618,-0.618498,-0.336907,0.776655,99849.16,-207,+52,-30
90839,9.105,-5.295,2.351,-0.642975,-0.361916,0.825077,99847.38,-207,+52,-30
90849,9.322,-5.331,2.109,-0.647231,-0.416191,0.874563,99848.53,-207,+50,-30
90858,9.008,-5.410,1.745,-0.677562,-0.468870,0.895315,99848.53,-207,+47,-31
90868,8.841,-5.224,2.336,-0.625947,-0.542834,0.926178,99848.93,-206,+44,-34
90878,8.860,-5.608,1.729,-0.591360,-0.564118,0.941609,99850.29,-206,+44,-34
90889,8.870,-5.917,1.440,-0.581782,-0.567843,0.946398,99847.01,-205,+41,-35
90898,8.989,-6.137,0.858,-0.571140,-0.569439,0.946930,99849.98,-206,+39,-38
90908,9.265,-5.813,0.329,-0.581782,-0.592852,0.931499,99849.98,-205,+36,-39
90918,9.534,-5.958,0.302,-0.562094,-0.614136,0.910746,99848.58,-205,+36,-39
90929,9.964,-5.745,0.423,-0.547727,-0.658301,0.924581,99848.64,-204,+33,-41
90939,10.595,-5.758,1.148,-0.555709,-0.711512,0.947994,99849.05,-204,+30,-42
90948,11.406,-6.172,1.613,-0.594553,-0.792393,0.996948,99845.25,-202,+27,-45
90958,11.496,-5.813,2.589,-0.639782,-0.866356,1.116141,99845.25,-202,+27,-45
90969,11.229,-5.546,1.918,-0.705231,-0.918503,1.250232,99850.39,-201,+24,-48
90979,11.307,-5.347,1.774,-0.786112,-0.961072,1.345480,99848.89,-199,+20,-51
90988,11.965,-5.444,2.073,-0.841452,-0.988742,1.433810,99846.81,-198,+16,-54
90998,12.737,-5.627,2.097,-0.881360,-1.015347,1.526929,99845.77,-198,+16,-54
91009,13.324,-5.644,2.609,-0.936699,-1.023861,1.610471,99845.77,-196,+11,-57
91019,13.639,-5.667,2.938,-0.999488,-1.005237,1.691884,99849.69,-194,+7,-60
91029,13.578,-5.383,2.944,-1.061213,-0.964264,1.794581,99848.13,-191,+3,-65
91038,12.836,-4.866,3.329,-1.177745,-0.913714,1.918562,99844.80,-191,+3,-65
91048,12.290,-5.216,3.117,-1.310240,-0.856778,2.041480,99844.64,-190,-1,-66
91059,11.950,-5.867,2.839,-1.374093,-0.825916,2.206434,99844.64,-186,-7,-70
91069,11.982,-6.004,2.424,-1.369837,-0.832301,2.393204,99849.48,-183,-13,-73
91078,12.382,-6.396,2.167,-1.394846,-0.858907,2.563479,99848.96,-183,-13,-73
91088,13.289,-6.702,2.475,-1.364515,-0.956815,2.655002,99847.51,-179,-18,-76
91099,13.217,-6.625,3.026,-1.322479,-1.045145,2.575718,99845.99,-176,-25,-80
91109,12.050,-5.687,2.750,-1.337910,-1.107934,2.546452,99845.99,-171,-31,-85
91118,10.871,-5.332,3.247,-1.227231,-1.082393,2.564543,99848.84,-171,-31,-85
91128,10.408,-5.351,3.560,-0.970222,-1.066962,2.567736,99847.23,-167,-38,-87
91139,10.122,-4.501,3.165,-0.697782,-1.048338,2.406507,99846.88,-161,-42,-91
91149,7.888,-4.075,2.370,-0.637654,-0.939255,2.110654,99847.50,-157,-48,-95
91158,6.337,-3.560,1.332,-0.599874,-0.841879,1.846195,99847.50,-157,-48,-95
91168,7.439,-3.179,0.885,-0.700975,-0.587531,1.291205,99848.10,-153,-51,-96
91179,2.508,-5.736,0.458,-0.326369,-0.896154,1.352398,99847.95,-149,-54,-99
91189,5.643,-3.674,2.539,0.090273,-0.674797,1.018233,99847.59,-147,-58,-100
91199,7.139,-1.485,2.369,0.190309,-0.487494,0.077995,99846.80,-147,-58,-100
91208,5.831,0.123,1.620,0.004071,-0.357659,-0.368978,99846.80,-146,-58,-101
91218,4.220,-0.276,1.145,-0.052333,-0.206540,-0.444005,99846.80,-146,-57,-102
91229,3.192,-1.148,0.946,0.179667,-0.070852,-0.649399,99846.02,-146,-57,-102
91239,2.620,-1.195,0.831,0.469135,0.033973,-0.972390,99845.40,-146,-57,-102
91248,2.409,-1.126,0.648,0.622914,0.185625,-1.304426,99843.74,-147,-55,-101
91258,2.415,-1.051,0.337,0.596309,0.393680,-1.629013,99843.74,-151,-53,-99
91269,2.639,-0.767,0.126,0.507979,0.600670,-1.958921,99846.58,-154,-50,-98
91279,3.053,-0.436,-0.050,0.473392,0.784780,-2.270738,99844.50,-154,-50,-98
91289,3.689,-0.491,-0.062,0.535116,0.958780,-2.537325,99844.39,-158,-46,-94
91298,4.529,-0.857,0.065,0.677722,1.096597,-2.778370,99845.38,-163,-41,-92
91309,5.297,-1.343,0.202,0.863428,1.212597,-3.004517,99845.38,-168,-35,-87
91319,5.982,-2.003,0.286,1.073611,1.328597,-3.232083,99847.84,-174,-28,-84
91329,6.455,-2.465,0.456,1.243887,1.419055,-3.400407,99848.83,-174,-28,-84
91338,6.943,-2.684,0.471,1.417886,1.503129,-3.569618,99844.34,-181,-22,-77
91348,7.508,-2.843,0.459,1.595611,1.586670,-3.719673,99841.80,-186,-14,-72
91359,8.095,-3.184,0.530,1.766950,1.655312,-3.853764,99841.80,-193,-5,-66
91369,8.545,-3.771,0.560,1.885079,1.714908,-3.970296,99846.93,-193,-5,-66
91378,8.894,-4.500,0.697,1.931372,1.781422,-4.078847,99843.96,-198,+4,-60
91388,9.567,-5.091,0.766,1.912749,1.843147,-4.193250,99844.48,-204,+14,-53
91399,10.555,-5.873,0.582,1.828143,1.885183,-4.308186,99842.24,-207,+27,-46
91409,11.662,-6.859,0.442,1.699905,1.907000,-4.410883,99842.24,-207,+27,-46
91419,12.367,-7.957,0.708,1.520052,1.921899,-4.477397,99847.24,-209,+41,-40
91428,12.619,-8.872,1.193,1.298162,1.927220,-4.495489,99845.84,-210,+55,-34
91439,12.559,-9.168,1.411,1.094896,1.942119,-4.497085,99847.24,-209,+69,-28
91449,12.474,-9.076,1.437,0.926749,1.982559,-4.478461,99844.34,-209,+69,-28
91459,12.278,-8.512,1.341,0.823520,2.030449,-4.413544,99844.34,-209,+84,-23
91468,12.129,-7.685,1.398,0.799575,2.091642,-4.283709,99846.30,-206,+97,-17
91479,12.376,-7.158,1.389,0.853318,2.118248,-4.100663,99847.13,-204,+110,-12
91489,12.561,-7.033,1.107,0.937923,2.095899,-3.924003,99846.20,-204,+110,-12
91499,12.638,-7.245,0.834,0.958676,2.045881,-3.746810,99848.91,-202,+122,-7
91508,13.016,-7.783,0.572,0.983685,1.992137,-3.584517,99848.91,-198,+132,-3
91518,13.305,-8.377,0.538,1.007098,1.878266,-3.461599,99849.41,-194,+143,+0
91529,13.080,-8.820,0.703,1.028382,1.707459,-3.366884,99848.23,-194,+143,+0
91539,12.154,-8.716,0.969,1.036364,1.529202,-3.268444,99848.48,-190,+153,+3
91549,11.063,-8.110,1.122,1.004969,1.395642,-3.094444,99847.07,-186,+162,+4
91558,10.544,-7.627,1.113,0.953355,1.311569,-2.832646,99847.07,-183,+170,+6
91569,10.192,-7.317,0.830,0.894823,1.244523,-2.561802,99848.42,-183,+170,+6
91579,9.563,-7.340,0.428,0.811813,1.181734,-2.259563,99848.48,-179,+177,+8
91589,8.949,-7.861,-0.034,0.708052,1.095532,-1.897197,99849.94,-176,+183,+9
91598,8.651,-8.312,-0.514,0.590456,0.965698,-1.494922,99850.34,-174,+186,+11
91609,8.294,-8.700,-0.822,0.451043,0.814578,-1.099032,99850.34,-174,+186,+11
91619,7.720,-9.214,-0.591,0.351006,0.619826,-0.691436,99852.10,-172,+190,+12
91629,7.087,-9.844,-0.331,0.291942,0.362285,-0.251913,99848.26,-173,+190,+12
91638,6.386,-10.735,-0.154,0.166364,0.122304,0.201444,99850.76,-174,+190,+13
91649,6.163,-11.571,-0.008,-0.056058,-0.062871,0.679811,99847.95,-174,+190,+13
91659,7.160,-11.224,0.927,-0.363617,-0.151733,1.115077,99847.95,-176,+187,+14
91669,12.330,-8.399,2.363,-0.631800,-0.054357,1.326324,99850.64,-180,+182,+14
91674,17.173,-8.058,0.638,-1.191048,0.262249,1.253957,99851.31,-180,+182,+14
91683,18.566,-2.534,3.421,-1.336846,-0.127256,1.487021,99851.31,-182,+177,+19
91694,25.424,11.693,6.758,-0.882956,-0.283696,0.820820,99850.80,-184,+174,+19
91704,19.854,18.066,-0.646,-1.240534,-0.519421,1.250232,99847.31,-188,+169,+20
91714,5.955,6.160,-3.539,-1.500736,-0.342228,2.413956,99847.31,-188,+169,+20
91724,5.204,-4.921,-2.438,-0.259856,-0.506650,2.690654,99851.04,-193,+161,+20
91734,14.519,-5.266,-2.140,1.077868,-1.040888,3.273314,99847.76,-198,+151,+15
91744,10.574,-3.283,-1.656,0.959740,-0.753017,3.246708,99847.91,-203,+139,+13
91754,7.152,-6.860,6.384,0.499465,-0.203348,2.881681,99847.91,-203,+139,+13
91763,8.176,-10.496,13.693,1.122566,-0.199091,2.851351,99847.91,-207,+130,+11
91773,10.232,-10.366,10.748,1.707886,-0.898283,2.849222,99848.69,-211,+119,+7
91784,7.216,-7.392,3.593,1.341263,-1.425071,2.471956,99847.44,-212,+110,+1
91794,6.331,-9.288,5.176,0.355263,-1.209567,2.096819,99848.28,-212,+110,+1
91804,7.908,-11.444,5.370,-0.727580,-1.091971,1.604618,99847.66,-214,+103,+0
91814,8.378,-6.787,1.153,-1.344827,-0.988209,0.865517,99847.66,-214,+100,-2
91824,8.447,-1.958,-3.592,-1.607690,-0.469934,0.470160,99850.49,-214,+100,-2
91834,9.982,-0.762,-2.204,-1.350681,-0.198026,0.570196,99848.20,-214,+100,-2
91844,10.058,-0.604,-0.588,-0.597745,-0.181531,0.810178,99847.37,-215,+97,-1
91854,9.910,-1.581,1.048,-0.017746,-0.148540,1.013976,99847.37,-216,+94,-2
91864,8.992,-2.510,1.256,0.296731,-0.203348,1.133168,99849.46,-216,+89,-3
91874,8.726,-3.859,3.462,0.359520,-0.211861,1.112948,99849.46,-216,+89,-3
91884,8.588,-5.893,5.194,0.183392,-0.193237,0.937352,99851.49,-217,+85,-4
91894,8.579,-6.166,4.593,-0.107672,-0.156522,0.604783,99847.07,-217,+83,-4
91904,8.045,-4.387,3.444,-0.567415,-0.024559,0.325426,99847.70,-217,+83,-3
91914,8.564,-2.422,3.317,-0.781323,0.041955,0.244013,99847.70,-217,+83,-3
91924,8.706,-1.845,2.969,-0.646167,-0.009660,0.289774,99849.98,-218,+82,-4
91934,8.798,-2.710,2.568,-0.423745,-0.049036,0.328618,99848.58,-218,+80,-4
91944,8.944,-3.402,2.322,-0.309342,-0.058614,0.354692,99850.39,-217,+79,-3
91954,8.840,-3.282,2.907,-0.335947,-0.031476,0.361077,99848.36,-217,+79,-3
91964,9.223,-2.392,3.132,-0.422681,-0.002742,0.358416,99848.94,-218,+78,-3
91974,9.147,-2.866,3.025,-0.547727,0.028120,0.373316,99852.00,-218,+78,-3
91984,8.895,-3.309,3.287,-0.542406,0.022799,0.397793,99848.41,-218,+76,-3
91994,8.732,-2.967,3.298,-0.522718,0.016414,0.424930,99848.41,-218,+76,-3
92004,8.445,-2.679,3.378,-0.528571,-0.004338,0.445150,99846.48,-218,+74,-2
92014,8.500,-2.569,3.138,-0.456204,-0.046907,0.464306,99846.48,-219,+72,-3
92024,8.809,-2.748,2.992,-0.349250,-0.103311,0.485059,99850.23,-219,+71,-3
92034,8.920,-3.194,2.744,-0.271030,-0.139494,0.496233,99848.20,-220,+71,-3
92044,8.724,-3.590,2.342,-0.238039,-0.155990,0.507939,99847.26,-220,+70,-2
92054,8.539,-3.728,2.215,-0.249213,-0.150137,0.511664,99847.32,-220,+68,-3
92064,8.533,-3.620,2.431,-0.288590,-0.133641,0.506343,99847.32,-220,+66,-3
92075,8.953,-3.181,2.913,-0.346589,-0.118742,0.522838,99848.69,-220,+65,-3
92084,9.292,-3.263,2.765,-0.376388,-0.125127,0.540930,99848.77,-220,+65,-3
92094,9.314,-3.358,3.038,-0.363617,-0.150137,0.577114,99847.84,-220,+62,-4
92104,9.147,-3.670,2.936,-0.339672,-0.171953,0.602655,99847.84,-220,+60,-4
92113,8.840,-4.058,2.671,-0.350314,-0.202283,0.617022,99847.84,-220,+58,-6
92124,8.758,-4.156,2.641,-0.402461,-0.208669,0.617022,99851.87,-220,+58,-6
92134,8.999,-4.111,2.487,-0.488131,-0.192705,0.618618,99849.32,-220,+57,-5
92144,9.138,-3.912,2.600,-0.556773,-0.196430,0.642031,99846.95,-220,+54,-5
92153,9.081,-3.713,2.761,-0.575397,-0.209201,0.682471,99846.95,-221,+51,-6
92164,8.949,-3.699,2.658,-0.574865,-0.225696,0.736214,99846.95,-221,+51,-6
92174,8.786,-3.895,2.565,-0.561562,-0.258155,0.785701,99849.80,-219,+49,-7
92184,8.733,-4.014,2.865,-0.559965,-0.291678,0.830930,99853.20,-220,+46,-7
92194,8.702,-3.925,2.979,-0.571672,-0.329990,0.875627,99848.54,-220,+44,-9
92205,8.679,-3.908,3.313,-0.588167,-0.376815,0.925113,99848.54,-220,+44,-9
92214,8.533,-3.839,3.416,-0.565819,-0.441733,0.977260,99850.49,-220,+40,-10
92224,8.334,-4.198,3.114,-0.526443,-0.481109,1.038985,99850.49,-220,+37,-11
92234,8.248,-4.685,2.636,-0.490259,-0.502393,1.092196,99847.68,-219,+33,-13
92243,8.385,-4.848,2.428,-0.486534,-0.507182,1.132104,99850.49,-219,+33,-13
92254,8.509,-4.903,2.130,-0.526443,-0.496540,1.158177,99847.48,-218,+29,-13
92265,8.732,-5.122,1.315,-0.553935,-0.505408,1.197199,99851.85,-218,+26,-15
92274,8.818,-5.336,0.957,-0.574332,-0.518357,1.205535,99851.85,-216,+21,-17
92284,8.962,-5.500,0.708,-0.607323,-0.521017,1.201278,99847.37,-216,+21,-17
92295,9.303,-5.672,0.304,-0.663727,-0.518357,1.176801,99848.26,-217,+18,-19
92304,9.657,-5.612,0.337,-0.700975,-0.528467,1.147535,99846.12,-216,+14,-20
92314,9.714,-5.540,0.447,-0.733965,-0.536448,1.116673,99852.09,-215,+11,-23
92324,9.894,-5.904,0.130,-0.773874,-0.560393,1.128911,99849.39,-215,+11,-23
92335,10.007,-5.569,0.687,-0.774938,-0.589127,1.136361,99849.08,-214,+7,-25
92344,9.682,-5.437,1.124,-0.766956,-0.635421,1.147535,99849.08,-213,+3,-27
92354,9.395,-5.524,1.053,-0.733965,-0.705659,1.198086,99847.25,-212,+1,-30
92364,9.412,-5.648,1.134,-0.706296,-0.760999,1.247572,99847.25,-212,+1,-30
92375,9.092,-5.316,1.388,-0.678626,-0.809421,1.273645,99852.31,-210,-2,-33
92384,9.139,-5.655,1.485,-0.684479,-0.857310,1.318343,99848.94,-208,-6,-35
92394,9.376,-5.744,1.787,-0.675965,-0.914246,1.361443,99849.41,-207,-9,-39
92404,9.664,-6.046,2.070,-0.711085,-0.955219,1.382196,99848.67,-207,-9,-39
92414,10.294,-6.279,1.867,-0.723855,-1.053127,1.426361,99848.67,-204,-13,-43
92425,11.008,-6.261,2.172,-0.821231,-1.060576,1.419443,99848.64,-202,-17,-46
92434,12.420,-6.033,2.768,-0.910094,-1.073879,1.449774,99847.91,-200,-21,-50
92444,13.690,-5.562,3.687,-0.955323,-1.164870,1.573755,99845.88,-200,-21,-50
92454,14.845,-5.303,3.718,-0.990974,-1.212228,1.729131,99845.88,-196,-25,-54
92464,16.075,-4.944,3.417,-1.085158,-1.193604,1.915902,99845.88,-193,-29,-59
92474,16.551,-4.262,3.981,-1.217121,-1.178705,2.121296,99848.78,-190,-33,-63
92484,16.620,-3.860,4.618,-1.278846,-1.137200,2.312324,99849.92,-190,-33,-63
92494,16.848,-3.550,5.187,-1.225103,-1.160613,2.546452,99847.06,-184,-39,-66
92499,17.168,-4.318,5.131,-1.166571,-1.197861,2.711938,99848.63,-180,-45,-72
92509,16.949,-5.393,5.469,-1.060149,-1.308007,2.981718,99848.63,-180,-45,-72
92519,15.393,-7.746,3.991,-0.851030,-1.646961,3.278635,99847.57,-173,-52,-77
92529,13.247,-9.706,3.189,-0.647764,-1.864062,3.293534,99849.40,-166,-61,-83
92539,12.832,-10.507,5.152,-0.606791,-1.685273,3.025351,99847.73,-158,-68,-87
92549,12.928,-9.261,4.903,-0.784516,-1.609181,2.874763,99846.79,-158,-68,-87
92559,10.572,-7.435,4.224,-0.891470,-1.542668,2.774195,99846.79,-151,-72,-92
92569,8.702,-5.210,3.977,-0.713745,-1.339934,2.545920,99846.63,-145,-78,-96
92579,8.560,-3.117,3.008,-0.606791,-1.160613,1.973902,99846.90,-140,-80,-99
92590,10.387,-0.565,2.816,-0.864332,-0.895090,1.362508,99849.76,-140,-80,-99
92599,0.492,-5.346,-0.169,-0.704699,-1.144650,1.459884,99847.73,-135,-81,-103
92609,2.718,-4.780,3.592,-0.145452,-0.897751,1.314086,99847.73,-130,-84,-104
92619,6.510,-1.542,3.084,0.282896,-0.770577,0.367462,99845.74,-128,-84,-106
92630,5.466,2.095,1.498,-0.126828,-0.526338,-0.401968,99847.40,-128,-84,-106
92639,3.965,1.862,0.506,-0.540810,-0.219843,-0.309913,99846.15,-128,-82,-107
92649,2.616,-0.345,0.053,-0.357764,-0.096393,-0.337583,99845.43,-128,-81,-108
92659,1.615,-0.865,-0.139,-0.020406,0.008964,-0.687179,99845.43,-129,-78,-107
92669,1.327,-1.142,-0.166,0.097190,0.220212,-1.095839,99846.93,-129,-78,-107
92679,1.410,-1.217,0.062,0.030676,0.483074,-1.486408,99845.57,-132,-75,-107
92689,1.990,-0.896,-0.057,-0.060847,0.712413,-1.807802,99846.66,-136,-70,-106
92699,2.895,-0.432,-0.253,-0.051801,0.872046,-2.095674,99845.05,-140,-65,-104
92709,3.619,-0.256,-0.253,0.115814,0.968358,-2.369178,99845.05,-140,-65,-104
92720,4.300,-0.419,-0.221,0.416456,1.019973,-2.590536,99847.59,-146,-59,-103
92729,4.960,-0.724,-0.136,0.788401,1.042321,-2.777838,99844.66,-153,-53,-99
92739,5.467,-1.162,-0.083,1.154492,1.058817,-2.956627,99845.98,-158,-47,-95
92749,5.908,-1.806,-0.036,1.453006,1.101386,-3.155636,99842.07,-158,-47,-95
92760,6.187,-2.644,-0.018,1.671703,1.164175,-3.358370,99842.07,-164,-41,-92
92769,6.570,-3.376,0.196,1.826547,1.221110,-3.529177,99846.05,-170,-33,-88
92779,6.971,-3.797,0.318,1.935629,1.279642,-3.679232,99843.55,-175,-24,-84
92789,7.433,-4.339,0.678,2.005868,1.350945,-3.830352,99841.83,-175,-24,-84
92800,8.186,-5.050,1.005,2.052693,1.390853,-3.982535,99842.70,-181,-15,-79
92809,8.949,-5.795,1.369,2.058014,1.408945,-4.116627,99842.70,-185,-5,-75
92819,9.630,-6.536,1.704,2.019702,1.416927,-4.219324,99846.59,-190,+4,-71
92829,10.112,-7.264,1.934,1.956382,1.430762,-4.300736,99844.14,-192,+4,-71
92839,10.550,-7.888,2.061,1.881354,1.447789,-4.358204,99845.61,-192,+17,-68
92850,10.724,-8.423,2.154,1.775464,1.476523,-4.391727,99847.47,-195,+29,-65
92855,10.565,-8.733,2.139,1.675960,1.506321,-4.404498,99847.47,-195,+29,-65
92864,10.291,-8.928,2.134,1.567941,1.560596,-4.406094,99847.47,-197,+41,-63
92874,10.195,-9.021,2.127,1.445024,1.682450,-4.384810,99846.77,-197,+54,-60
92884,10.374,-8.840,2.132,1.379043,1.817605,-4.366186,99845.99,-198,+67,-57
92895,10.913,-8.716,1.906,1.364143,1.959146,-4.340645,99846.09,-198,+67,-57
92904,11.577,-8.959,1.790,1.367868,2.070890,-4.300736,99845.49,-198,+78,-54
92914,11.825,-9.329,1.371,1.346052,2.132082,-4.223580,99849.60,-199,+91,-50
92924,11.753,-9.514,1.152,1.249208,2.183165,-4.121948,99846.63,-199,+102,-45
92935,12.010,-9.604,1.101,1.080529,2.216688,-4.026168,99846.63,-199,+102,-45
92944,12.091,-9.550,0.945,0.841612,2.207110,-3.903783,99846.21,-199,+114,-41
92954,12.485,-9.698,1.007,0.593648,2.193275,-3.740425,99848.98,-200,+126,-36
92964,12.545,-9.879,1.198,0.480309,2.102816,-3.591434,99848.98,-197,+138,-30
92975,12.288,-9.061,1.124,0.484566,1.951697,-3.477031,99849.73,-197,+138,-30
92984,11.959,-7.984,0.979,0.466474,1.825587,-3.337086,99848.95,-196,+149,-26
92994,11.553,-7.719,1.039,0.420713,1.733000,-3.109343,99849.63,-193,+160,-22
93004,11.058,-8.268,0.715,0.373355,1.651587,-2.793802,99848.80,-190,+171,-17
93015,10.365,-9.188,0.056,0.282896,1.565917,-2.428774,99851.13,-190,+171,-17
93025,9.667,-9.900,-0.946,0.119007,1.464284,-2.058958,99849.98,-187,+179,-13
93034,8.981,-10.196,-1.761,-0.084259,1.329129,-1.684885,99849.30,-184,+186,-9
93044,8.325,-10.324,-2.030,-0.267305,1.146615,-1.264518,99850.08,-183,+192,-4
93054,7.771,-10.650,-2.133,-0.369470,0.882689,-0.769656,99850.08,-183,+192,-4
93065,7.488,-11.001,-2.123,-0.376920,0.553313,-0.234354,99850.08,-182,+195,-1
93074,7.494,-11.089,-1.856,-0.308278,0.216487,0.330747,99851.67,-183,+196,-1
93084,7.554,-11.209,-1.292,-0.235379,-0.110760,0.934691,99851.47,-185,+194,+0
93089,8.489,-11.211,-0.701,-0.150241,-0.363513,1.398691,99850.17,-185,+194,+0
93100,9.965,-9.488,1.124,0.009392,-0.543898,1.730728,99851.00,-188,+189,-1
93109,13.012,-3.826,0.711,0.198291,-0.775365,1.966984,99851.00,-193,+184,-4
93119,22.202,4.553,7.313,0.058346,-0.179935,1.338031,99850.95,-193,+184,-4
93129,30.210,20.637,5.693,-0.002847,-0.424173,0.820288,99847.78,-195,+181,-4
93139,16.909,14.735,-1.375,-1.416662,-0.604026,2.105865,99847.98,-198,+177,-4
93150,-0.374,-0.457,-6.637,-1.203818,-0.566246,2.503883,99849.19,-201,+169,-4
93159,10.308,-9.634,-2.377,0.429227,-1.004705,2.888066,99849.19,-201,+169,-4
93169,14.205,-5.012,-0.244,1.215685,-1.134007,3.108892,99850.30,-205,+160,-9
93179,9.261,-5.229,3.315,0.579282,-0.573164,2.841773,99847.58,-209,+149,-13
93190,7.688,-7.024,8.367,0.378144,-0.237935,2.846562,99849.36,-212,+140,-13
93200,8.605,-9.273,12.538,0.918235,-0.316155,2.874231,99846.86,-212,+140,-13
93209,9.184,-8.578,9.360,1.381703,-0.986613,2.710342,99846.86,-216,+130,-15
93219,6.310,-6.655,4.232,1.021465,-1.342594,2.269755,99846.91,-218,+121,-22
93230,6.669,-9.441,5.464,0.320676,-1.160081,2.030305,99848.98,-218,+114,-25
93240,8.609,-9.993,4.055,-0.325837,-1.111127,1.671663,99848.31,-218,+114,-25
93249,8.181,-6.528,-0.057,-0.987250,-1.036631,1.195957,99845.19,-219,+109,-28
93259,8.077,-3.905,-1.618,-1.545433,-0.670540,0.958104,99845.19,-220,+106,-29
93270,9.308,-2.769,-0.311,-1.506589,-0.391714,0.839976,99851.16,-220,+104,-30
93280,9.322,-1.908,-0.357,-1.008534,-0.295935,0.848490,99848.35,-220,+104,-30
93289,9.350,-1.748,0.401,-0.438644,-0.230485,0.954912,99846.52,-220,+102,-30
93299,9.369,-1.679,1.134,0.097722,-0.245384,1.076765,99850.59,-221,+98,-30
93309,9.285,-2.019,1.831,0.501593,-0.294870,1.162434,99850.59,-221,+93,-31
93320,8.712,-3.562,3.201,0.578217,-0.310834,1.151792,99852.28,-222,+93,-31
93329,8.398,-5.072,4.019,0.434016,-0.292742,0.983113,99845.88,-222,+89,-31
93339,8.243,-6.439,4.381,0.053557,-0.227825,0.696838,99847.84,-222,+86,-33
93349,7.967,-6.203,3.724,-0.462589,-0.116614,0.312123,99846.23,-222,+85,-33
93360,8.442,-4.422,3.494,-0.869653,0.003643,0.019463,99846.23,-222,+87,-32
93370,8.883,-2.708,2.889,-0.939360,0.029717,-0.033748,99849.23,-222,+87,-32
93379,9.190,-2.112,2.171,-0.783452,0.014285,0.098747,99847.25,-222,+87,-33
93389,9.198,-2.441,1.817,-0.560498,-0.000082,0.247738,99847.36,-222,+86,-32
93400,9.189,-2.812,1.653,-0.379580,-0.013384,0.382894,99847.56,-223,+85,-31
93410,8.957,-3.030,2.264,-0.281672,-0.047439,0.481334,99847.56,-223,+85,-31
93419,8.649,-3.634,2.962,-0.235911,-0.073513,0.479738,99850.23,-222,+84,-32
93429,8.600,-4.349,3.138,-0.273158,-0.076173,0.427591,99851.05,-222,+82,-32
93440,8.531,-4.516,3.253,-0.427470,-0.055421,0.393536,99849.13,-223,+81,-31
93445,8.580,-4.126,3.456,-0.583378,-0.016577,0.365334,99849.71,-223,+81,-31
93455,8.496,-3.562,3.484,-0.695121,0.008964,0.348839,99849.71,-223,+80,-31
93464,8.466,-3.048,3.236,-0.733433,0.009496,0.369591,99849.71,-223,+80,-31
93474,8.611,-2.930,2.949,-0.683415,-0.014981,0.432380,99849.10,-223,+79,-31
93485,8.740,-2.763,3.070,-0.620094,-0.046375,0.457389,99850.46,-223,+78,-30
93495,8.755,-2.851,3.143,-0.536021,-0.067127,0.477609,99847.10,-223,+77,-31
93505,8.798,-3.285,3.094,-0.473764,-0.099586,0.532416,99847.10,-223,+77,-31
93514,8.843,-3.628,3.056,-0.459929,-0.131513,0.582967,99850.91,-224,+75,-31
93524,8.968,-3.623,3.049,-0.495048,-0.149604,0.629260,99850.91,-224,+73,-30
93535,9.105,-3.601,3.039,-0.552516,-0.163439,0.679811,99847.16,-225,+72,-31
93545,9.170,-3.565,2.910,-0.580186,-0.184192,0.734086,99848.92,-225,+72,-31
93554,9.137,-3.567,2.742,-0.579121,-0.210797,0.788361,99848.25,-224,+69,-31
93564,9.007,-3.714,2.580,-0.553048,-0.244320,0.855407,99848.25,-224,+67,-32
93575,8.826,-3.799,2.513,-0.530699,-0.274650,0.915535,99848.48,-225,+63,-33
93585,8.671,-3.922,2.402,-0.522186,-0.294870,0.957572,99850.82,-225,+60,-33
93595,8.611,-3.908,2.649,-0.498773,-0.332118,1.009187,99848.21,-225,+60,-33
93604,8.611,-4.007,2.624,-0.479085,-0.364045,1.065058,99848.83,-225,+57,-35
93615,8.601,-4.210,2.580,-0.447690,-0.405549,1.126251,99851.38,-224,+54,-36
93625,8.624,-4.339,2.934,-0.415764,-0.461421,1.183719,99848.92,-224,+49,-37
93635,8.424,-4.198,2.930,-0.389158,-0.531659,1.226287,99847.05,-224,+49,-37
93644,8.241,-4.431,2.481,-0.347122,-0.562522,1.298122,99847.05,-223,+46,-38
93655,8.281,-4.985,1.954,-0.286993,-0.604558,1.347076,99846.89,-223,+41,-40
93665,8.357,-5.538,1.569,-0.280608,-0.638613,1.353462,99846.89,-222,+37,-42
93675,8.586,-6.034,1.052,-0.372663,-0.618925,1.336966,99850.48,-222,+37,-42
93680,8.822,-6.085,0.877,-0.469507,-0.583806,1.314618,99853.09,-221,+32,-44
93689,9.098,-5.942,1.047,-0.555176,-0.555072,1.286948,99848.45,-221,+32,-44
93700,9.347,-5.593,1.023,-0.635525,-0.533788,1.260875,99847.67,-220,+28,-46
93710,9.512,-5.459,0.493,-0.646167,-0.546026,1.261939,99847.67,-220,+24,-48
93720,9.311,-5.575,0.548,-0.604131,-0.589659,1.275774,99851.55,-218,+21,-49
93729,9.138,-5.874,0.642,-0.548259,-0.622650,1.292269,99849.00,-218,+21,-49
93740,8.958,-6.161,0.797,-0.523250,-0.644467,1.288544,99848.95,-216,+17,-51
93750,8.800,-6.407,1.124,-0.533892,-0.660430,1.270453,99846.30,-215,+13,-53
93760,8.806,-6.525,1.517,-0.563690,-0.680118,1.242783,99846.30,-214,+9,-55
93769,8.920,-6.496,1.625,-0.604131,-0.698742,1.212453,99849.35,-214,+9,-55
93779,9.198,-6.662,1.529,-0.647764,-0.718962,1.194893,99850.55,-212,+6,-58
93790,9.591,-6.586,1.659,-0.699378,-0.738118,1.187976,99847.59,-209,+2,-60
93800,10.032,-6.552,1.728,-0.752589,-0.763659,1.181590,99847.43,-207,+1,-63
93809,10.372,-6.481,1.673,-0.776002,-0.814210,1.203407,99847.43,-207,+1,-63
93819,10.842,-6.310,1.679,-0.799947,-0.870081,1.241719,99848.83,-206,-1,-65
93830,11.447,-6.036,2.025,-0.856351,-0.917971,1.291737,99847.47,-203,-5,-69
93840,12.521,-5.643,2.474,-0.927121,-0.974375,1.361976,99848.25,-199,-7,-72
93850,13.897,-5.335,3.435,-0.982461,-1.031310,1.466269,99843.63,-196,-11,-77
93859,15.268,-4.939,4.066,-1.011727,-1.057916,1.663150,99843.63,-196,-11,-77
93870,16.276,-4.344,3.921,-1.126662,-1.091971,1.896214,99850.84,-192,-14,-79
93880,16.703,-3.747,4.369,-1.284167,-1.084521,2.088305,99848.54,-188,-19,-83
93890,17.212,-3.392,5.094,-1.452846,-1.032375,2.295828,99847.51,-183,-22,-87
93899,17.094,-3.566,5.598,-1.617800,-0.953622,2.506011,99844.43,-183,-22,-87
93910,16.147,-4.290,5.491,-1.702405,-0.947237,2.736947,99844.43,-177,-27,-89
93916,14.965,-5.829,4.794,-1.721029,-1.061641,2.970543,99847.39,-177,-27,-89
93925,13.612,-7.978,3.989,-1.609818,-1.281402,3.240855,99847.39,-172,-32,-95
93935,12.862,-10.392,2.908,-1.280974,-1.538943,3.370690,99845.73,-163,-39,-100
93944,13.198,-10.348,5.154,-1.111763,-1.478815,3.087607,99847.30,-156,-44,-103
93955,12.478,-8.873,5.419,-1.219249,-1.382503,2.854543,99846.30,-156,-44,-103
93965,10.516,-6.257,4.637,-1.253304,-1.299494,2.766213,99848.80,-148,-48,-109
93975,8.400,-4.963,3.989,-1.105910,-1.100485,2.567204,99844.89,-142,-52,-112
93985,7.664,-3.487,3.855,-0.880828,-0.921164,2.172911,99849.27,-135,-55,-114
93995,19.223,0.297,3.847,-1.105378,-0.736521,1.365700,99849.27,-135,-55,-114
94005,-4.773,-4.057,-1.259,-0.824424,-0.764723,0.695242,99847.28,-132,-54,-118
94015,-4.291,-6.342,1.011,-0.280076,-0.806228,1.161902,99847.28,-127,-56,-120
94025,4.468,-4.078,3.687,0.235539,-0.674797,0.962361,99849.25,-124,-58,-121
94034,7.896,-0.141,1.741,0.086548,-0.497072,-0.375895,99849.16,-124,-58,-121
94045,5.783,2.448,0.846,-0.463122,-0.241659,-0.942060,99845.61,-124,-56,-122
94055,4.220,0.947,0.185,-0.478021,-0.055421,-0.780830,99844.16,-123,-52,-123
94065,2.593,0.024,-0.026,-0.124168,0.019074,-0.978775,99844.16,-124,-50,-123
94075,1.545,-0.378,-0.176,0.237667,0.130817,-1.371472,99847.15,-125,-46,-123
94085,1.179,-0.632,-0.196,0.452107,0.313863,-1.775876,99844.82,-125,-46,-123
94095,1.419,-0.540,-0.111,0.534584,0.534689,-2.111637,99844.27,-128,-43,-121
94105,2.021,-0.279,-0.103,0.571832,0.747533,-2.398444,99844.27,-133,-38,-120
94114,2.646,-0.067,-0.221,0.650052,0.938560,-2.675673,99844.27,-138,-32,-117
94125,3.339,-0.275,-0.258,0.797446,1.115221,-2.915655,99846.40,-138,-32,-117
94135,4.076,-0.825,-0.044,0.994859,1.260486,-3.099765,99845.51,-142,-26,-114
94145,4.762,-1.264,0.090,1.236969,1.388193,-3.271104,99847.34,-149,-20,-109
94154,5.319,-1.714,0.134,1.446620,1.506321,-3.439783,99842.70,-154,-13,-106
94164,5.979,-2.276,0.028,1.606785,1.615404,-3.616976,99842.70,-154,-13,-106
94175,6.809,-3.117,-0.129,1.686602,1.732468,-3.809067,99847.87,-159,-5,-103
94185,7.747,-3.888,-0.151,1.729171,1.840486,-3.976150,99844.38,-164,+4,-96
94195,8.828,-4.678,-0.087,1.761097,1.914981,-4.094810,99845.01,-169,+14,-93
94204,9.851,-5.485,0.179,1.815905,1.935734,-4.179416,99845.01,-169,+14,-93
94215,10.622,-6.000,0.436,1.870712,1.884651,-4.261360,99846.36,-173,+23,-89
94225,11.285,-6.367,0.717,1.891996,1.826119,-4.319360,99847.50,-176,+35,-85
94235,11.676,-6.988,1.125,1.873372,1.776633,-4.333195,99847.50,-178,+44,-83
94244,11.575,-7.878,1.765,1.819097,1.719165,-4.310847,99843.55,-178,+44,-83
94255,11.413,-8.703,2.018,1.748859,1.679257,-4.291691,99846.16,-179,+54,-79
94265,11.314,-9.323,2.121,1.675960,1.682450,-4.300736,99846.16,-181,+63,-78
94270,11.369,-9.614,2.134,1.605721,1.715972,-4.302333,99849.64,-181,+63,-78
94280,11.398,-9.573,2.145,1.529097,1.772908,-4.299140,99849.13,-182,+74,-75
94289,11.417,-9.300,1.997,1.422675,1.877734,-4.267745,99848.81,-184,+83,-72
94300,11.457,-8.983,1.794,1.338070,1.985220,-4.201764,99846.98,-184,+83,-72
94310,11.604,-8.851,1.563,1.267299,2.077275,-4.126204,99846.98,-185,+92,-65
94320,11.993,-9.043,1.395,1.167795,2.129422,-4.065012,99852.38,-186,+102,-61
94329,12.121,-9.093,1.173,0.989006,2.151770,-3.972957,99847.95,-188,+113,-55
94340,12.662,-9.366,1.265,0.726144,2.182101,-3.848975,99847.70,-186,+124,-47
94350,12.941,-9.595,1.188,0.507447,2.145917,-3.757452,99846.45,-186,+124,-47
94360,12.620,-9.149,0.831,0.339300,2.071954,-3.662737,99846.45,-185,+136,-42
94370,12.230,-8.125,0.665,0.249906,2.006504,-3.546205,99850.54,-183,+147,-36
94380,12.090,-6.919,0.606,0.263740,1.922431,-3.356242,99850.23,-181,+159,-30
94390,12.055,-6.285,0.369,0.376548,1.785147,-3.100829,99847.73,-181,+159,-30
94400,11.814,-6.192,0.010,0.545759,1.632963,-2.818811,99847.93,-177,+169,-25
94410,11.387,-6.804,-0.495,0.696878,1.485569,-2.514444,99847.93,-174,+177,-22
94419,10.696,-7.539,-1.208,0.777758,1.292945,-2.169105,99853.63,-170,+184,-19
94430,9.866,-8.131,-1.814,0.790529,1.077441,-1.812591,99848.72,-170,+184,-19
94440,8.794,-8.821,-1.976,0.785740,0.857147,-1.432665,99847.84,-166,+191,-17
94450,7.772,-9.767,-1.955,0.781483,0.594285,-0.978775,99847.27,-163,+194,-17
94459,6.848,-10.792,-1.723,0.747428,0.283001,-0.444537,99847.27,-163,+195,-17
94470,6.243,-11.791,-1.489,0.635153,-0.033072,0.142380,99850.72,-163,+195,-17
94480,6.155,-12.489,-0.877,0.418052,-0.284228,0.739939,99850.45,-163,+194,-19
94490,6.463,-12.526,0.023,0.147208,-0.463017,1.310893,99848.44,-165,+190,-20
94500,7.927,-11.947,0.861,-0.062975,-0.630100,1.846195,99849.16,-167,+186,-22
94510,10.543,-7.522,2.955,-0.000718,-0.771109,2.090966,99849.16,-167,+186,-22
94520,15.885,0.350,4.607,-0.061911,-0.528467,1.688691,99850.61,-171,+181,-23
94530,28.362,14.158,10.054,-0.036902,-0.223036,0.742068,99846.97,-172,+178,-22
94540,27.320,24.372,3.184,-0.811653,-0.652980,1.364636,99847.13,-174,+175,-23
94550,7.604,6.812,-3.607,-1.916313,-0.584870,2.531021,99847.44,-174,+175,-23
94560,-1.092,-8.675,-4.449,-0.608387,-0.512503,2.645424,99847.44,-178,+169,-22
94570,14.726,-8.226,1.363,1.303483,-1.127622,3.311094,99851.66,-181,+157,-26
94580,12.157,-5.001,1.543,1.339666,-0.930209,3.256818,99850.16,-185,+146,-30
94589,8.085,-6.099,4.013,0.585135,-0.468870,2.947130,99848.96,-185,+146,-30
94600,8.382,-7.573,7.832,0.537245,-0.328393,2.965222,99848.80,-188,+138,-31
94610,9.279,-8.347,10.936,0.845336,-0.474723,2.918929,99848.80,-190,+128,-33
94620,8.593,-6.920,6.974,0.869813,-1.030246,2.725773,99849.12,-194,+119,-36
94625,6.849,-5.836,3.882,0.470199,-1.234044,2.504415,99850.95,-194,+119,-36
94635,6.151,-8.558,3.956,-0.021470,-1.132943,2.326690,99850.95,-194,+110,-40
94645,7.966,-10.205,3.944,-0.566351,-1.000980,2.072342,99848.96,-195,+105,-42
94655,8.315,-7.630,0.944,-1.026094,-0.976503,1.609939,99847.87,-195,+105,-42
94665,7.656,-5.483,-2.124,-1.569910,-0.602962,1.269388,99847.87,-195,+102,-43
94675,8.982,-3.931,-1.540,-1.650258,-0.243256,1.024618,99849.73,-196,+100,-42
94685,9.289,-2.550,-1.207,-1.185727,-0.106504,0.933095,99845.78,-197,+98,-42
94695,9.354,-2.068,0.265,-0.652020,-0.043715,0.990563,99850.98,-197,+98,-42
94705,9.326,-2.212,1.332,-0.128957,-0.050100,1.074104,99850.98,-197,+95,-42
94715,9.322,-2.691,2.580,0.238731,-0.087880,1.129444,99850.98,-198,+91,-42
94725,8.884,-3.882,3.417,0.315355,-0.151201,1.107095,99850.52,-198,+87,-42
94735,8.192,-5.369,3.233,0.213722,-0.165036,0.982049,99850.25,-198,+87,-42
94745,8.081,-6.030,3.610,-0.023599,-0.111825,0.723976,99847.97,-198,+84,-42
94755,8.229,-5.806,4.092,-0.412039,-0.028816,0.459517,99848.44,-199,+82,-42
94766,8.513,-4.606,4.092,-0.770149,0.021735,0.287646,99848.44,-199,+82,-42
94775,8.501,-3.227,3.548,-0.921268,0.049937,0.223793,99849.95,-199,+82,-42
94785,8.829,-2.648,2.942,-0.834002,0.022267,0.257316,99848.43,-200,+83,-42
94795,8.950,-2.819,2.670,-0.634461,-0.024559,0.306270,99848.12,-200,+82,-42
94806,9.000,-3.197,2.567,-0.440773,-0.073513,0.413756,99848.12,-200,+81,-41
94815,8.885,-3.626,2.732,-0.326369,-0.110760,0.498893,99849.70,-200,+81,-41
94825,8.718,-3.640,2.796,-0.323709,-0.103843,0.514857,99849.70,-199,+80,-41
94835,8.622,-4.097,2.413,-0.435452,-0.060742,0.471756,99847.09,-200,+79,-42
94845,8.665,-4.190,2.724,-0.573268,-0.018173,0.452600,99850.32,-200,+77,-41
94855,8.807,-3.718,3.177,-0.703103,0.026524,0.458453,99848.18,-200,+77,-41
94861,8.788,-3.525,3.286,-0.750461,0.031313,0.478141,99848.18,-200,+78,-41
94870,8.747,-3.212,3.271,-0.731837,0.002579,0.519646,99850.27,-201,+76,-41
94880,8.665,-3.134,3.211,-0.654681,-0.028283,0.526563,99847.73,-201,+76,-41
94891,8.543,-3.256,3.047,-0.542938,-0.084687,0.537205,99847.98,-201,+74,-41
94900,8.550,-3.480,2.962,-0.454076,-0.121935,0.559022,99845.07,-201,+72,-41
94910,8.557,-3.895,2.584,-0.405122,-0.145880,0.585095,99845.07,-200,+71,-41
94920,8.598,-4.235,2.559,-0.372663,-0.174081,0.604783,99849.59,-200,+71,-41
94930,8.603,-4.367,2.703,-0.371599,-0.186852,0.608508,99849.43,-201,+70,-41
94940,8.659,-4.593,2.562,-0.417892,-0.187384,0.610637,99850.88,-201,+68,-41
94950,8.664,-4.588,2.296,-0.466314,-0.183127,0.609572,99845.48,-201,+67,-42
94960,8.643,-4.515,2.121,-0.498241,-0.169825,0.605315,99845.48,-201,+67,-42
94970,8.582,-4.454,1.993,-0.517397,-0.158650,0.604251,99850.93,-201,+65,-42
94980,8.582,-4.338,1.984,-0.510479,-0.159182,0.618086,99849.10,-201,+63,-43
94990,8.615,-4.294,2.072,-0.489195,-0.163439,0.639371,99848.12,-202,+61,-42
95000,8.654,-4.366,1.957,-0.471103,-0.177274,0.665444,99845.73,-202,+61,-42
95010,8.703,-4.391,2.063,-0.481213,-0.187384,0.702692,99845.73,-202,+60,-43
95021,8.740,-4.476,2.177,-0.500369,-0.203880,0.744728,99852.09,-201,+58,-44
95030,8.805,-4.368,2.120,-0.522186,-0.240063,0.798471,99849.79,-200,+56,-44
95040,8.639,-4.191,2.442,-0.547727,-0.278907,0.872435,99849.59,-200,+56,-44
95050,8.618,-4.125,2.467,-0.516333,-0.340100,0.961829,99848.85,-200,+54,-46
95060,8.692,-4.367,2.345,-0.460993,-0.400228,1.032067,99848.85,-200,+50,-46
95070,8.685,-4.728,2.503,-0.447690,-0.465678,1.086875,99849.94,-200,+46,-48
95080,8.771,-4.765,2.597,-0.406186,-0.542301,1.149132,99850.47,-200,+46,-48
95090,8.733,-5.129,2.260,-0.385966,-0.574760,1.206067,99849.53,-199,+44,-50
95095,8.805,-5.421,2.048,-0.380112,-0.602962,1.250765,99846.72,-199,+39,-51
95106,8.816,-5.479,1.965,-0.388094,-0.627971,1.278966,99846.72,-199,+39,-51
95115,9.004,-5.508,1.677,-0.425874,-0.650852,1.319939,99846.72,-198,+36,-53
95125,9.521,-5.643,1.449,-0.480681,-0.663090,1.344948,99850.93,-197,+32,-54
95135,9.833,-5.872,0.943,-0.506222,-0.667347,1.364104,99850.52,-196,+29,-56
95145,9.903,-6.258,0.439,-0.559965,-0.692356,1.402416,99848.62,-196,+29,-56
95156,9.764,-6.307,0.548,-0.629140,-0.718430,1.421040,99848.62,-194,+24,-59
95165,9.688,-6.355,0.806,-0.705231,-0.716301,1.425297,99852.09,-192,+20,-61
95175,9.913,-6.395,0.993,-0.775470,-0.735989,1.435407,99852.09,-191,+17,-63
95185,10.182,-6.317,1.022,-0.841452,-0.764723,1.439131,99846.95,-191,+17,-63
95196,10.553,-6.720,0.786,-0.921268,-0.793457,1.418911,99850.23,-190,+14,-65
95205,11.198,-6.158,0.972,-0.975543,-0.859439,1.413590,99846.95,-188,+11,-68
95216,12.313,-5.660,1.775,-1.026448,-0.933579,1.388049,99850.54,-185,+9,-71
95225,13.207,-5.554,2.628,-0.990974,-1.002576,1.396563,99850.54,-185,+9,-71
95236,14.399,-5.607,2.831,-0.963305,-1.037163,1.496599,99851.16,-183,+5,-75
95246,15.589,-5.394,3.129,-1.045782,-1.086650,1.685498,99847.21,-179,+2,-78
95255,16.118,-4.804,4.128,-1.204350,-1.113787,1.931333,99844.87,-177,-1,-82
95265,16.435,-4.065,4.513,-1.370901,-1.109530,2.199516,99851.38,-177,-1,-82
95276,16.681,-4.027,4.485,-1.535323,-1.069090,2.399057,99849.66,-174,-5,-86
95286,16.973,-3.992,4.267,-1.658772,-1.068026,2.669369,99846.94,-168,-9,-89
95295,16.650,-4.572,4.003,-1.736460,-1.115916,2.982782,99846.94,-165,-14,-93
95305,15.923,-6.853,3.487,-1.611946,-1.290448,3.335038,99846.31,-165,-14,-93
95315,15.428,-8.011,3.066,-1.241066,-1.409640,3.381332,99846.31,-158,-21,-98
95326,14.482,-7.696,5.567,-1.075048,-1.259585,3.006727,99852.26,-152,-27,-101
95335,13.488,-7.410,7.320,-1.169763,-1.207439,2.928507,99846.01,-147,-31,-105
95345,12.494,-6.151,5.663,-1.179341,-1.343127,2.991828,99847.20,-147,-31,-105
95355,10.425,-4.306,4.586,-0.978736,-1.209035,2.784305,99846.63,-140,-36,-110
95366,8.975,-2.855,5.160,-0.749397,-0.894558,2.440030,99846.63,-135,-39,-112
95376,14.237,-0.525,4.533,-0.598809,-0.734393,1.989865,99847.36,-131,-42,-114
95385,6.990,-1.860,1.883,-0.853690,-0.712044,1.375278,99848.14,-131,-42,-114
95395,-0.412,-5.299,-0.622,-0.600938,-0.885512,1.496067,99849.08,-127,-41,-117
95406,2.461,-4.458,5.291,-0.034773,-0.638613,1.303443,99849.08,-123,-43,-118
95415,6.905,-0.975,4.315,0.413795,-0.452907,0.087041,99849.08,-122,-44,-119
95425,6.231,2.296,3.017,-0.017746,-0.253366,-0.971858,99849.78,-122,-44,-119
95435,4.822,3.445,1.794,-0.358296,-0.007531,-0.951106,99849.06,-121,-40,-120
95446,3.407,1.061,1.307,-0.159819,0.123900,-0.873418,99845.63,-122,-37,-120
95451,2.324,0.128,1.227,0.205208,0.135606,-1.121381,99847.08,-122,-37,-120
95460,1.643,-0.006,0.915,0.538309,0.172854,-1.490665,99847.08,-123,-33,-120
95470,1.243,-0.211,0.772,0.771373,0.336212,-1.962646,99848.55,-124,-29,-119
95480,1.471,-0.300,1.070,0.776694,0.599074,-2.398976,99845.48,-127,-24,-117
95491,2.129,-0.178,1.187,0.678254,0.861936,-2.810829,99847.61,-127,-24,-117
95501,2.913,0.068,1.274,0.606419,1.099789,-3.211508,99845.84,-131,-18,-114
95510,3.759,0.147,1.325,0.642070,1.312101,-3.572278,99845.84,-135,-9,-112
95520,4.572,-0.014,1.531,0.773502,1.483973,-3.869195,99845.60,-139,+0,-109
95531,5.272,-0.402,1.544,0.979960,1.610083,-4.098535,99843.73,-139,+0,-109
95541,5.953,-0.958,1.448,1.208767,1.725550,-4.303397,99845.54,-144,+9,-104
95550,6.563,-1.710,1.222,1.381703,1.875605,-4.518901,99844.45,-147,+18,-101
95560,7.253,-2.513,1.077,1.477483,2.051202,-4.714718,99844.45,-152,+29,-95
95570,8.172,-3.238,1.001,1.526437,2.242761,-4.866901,99844.22,-152,+29,-95
95581,9.208,-3.571,1.322,1.585501,2.417293,-4.988222,99844.22,-155,+41,-90
95590,10.267,-3.491,1.661,1.698308,2.543403,-5.073892,99844.16,-157,+52,-84
95600,11.741,-3.548,1.903,1.851024,2.629605,-5.149452,99846.14,-158,+65,-77
95610,13.211,-4.503,2.243,1.973941,2.671642,-5.221286,99846.14,-158,+65,-77
95621,13.787,-6.726,2.444,2.013849,2.655146,-5.270772,99848.20,-158,+78,-73
95630,14.066,-8.934,2.817,1.965960,2.655146,-5.325580,99843.09,-156,+90,-66
95640,14.491,-9.763,3.045,1.804198,2.698247,-5.446901,99844.76,-153,+103,-61
95650,14.761,-9.324,2.719,1.533886,2.820100,-5.599084,99844.07,-153,+103,-61
95661,15.502,-8.530,2.500,1.267299,2.988247,-5.657084,99844.07,-149,+117,-57
95671,16.629,-8.461,2.243,1.138529,3.080834,-5.554919,99848.90,-145,+130,-50
95680,17.739,-9.472,1.367,1.065098,3.043054,-5.357506,99846.98,-140,+141,-46
95690,18.742,-10.448,0.609,0.930474,2.899384,-5.134020,99845.57,-140,+141,-46
95700,19.070,-11.676,-0.932,0.837355,2.685476,-4.939800,99845.21,-135,+151,-41
95711,17.015,-13.626,-3.154,0.568107,2.311403,-4.173562,99845.21,-131,+161,-38
95720,14.373,-14.320,-3.309,0.584603,1.944780,-3.341343,99851.09,-127,+169,-35
95730,11.550,-15.798,-4.281,0.770841,1.665422,-2.771453,99850.20,-127,+169,-35
95740,8.776,-16.370,-4.874,1.006034,1.186523,-2.090885,99849.57,-124,+172,-33
95751,7.174,-17.094,-5.583,1.071483,0.746468,-1.325179,99848.95,-123,+175,-33
95760,6.878,-18.087,-5.499,0.943777,0.286726,-0.400904,99848.95,-124,+175,-34
95770,6.293,-18.967,-5.156,0.816602,-0.245916,0.589884,99852.53,-124,+175,-34
95780,7.359,-18.414,-3.961,0.675593,-0.639678,1.476379,99852.69,-124,+172,-37
95791,17.104,-16.902,-1.757,0.122731,-0.421513,2.062764,99849.88,-126,+167,-40
95801,26.064,-6.164,4.356,-0.158755,-0.865292,2.417149,99849.83,-131,+161,-42
95810,20.996,15.305,2.376,0.316419,-1.372393,2.036691,99849.83,-133,+161,-45
95820,16.490,9.840,-5.456,-1.073984,-0.958411,3.418048,99852.45,-133,+155,-45
95831,3.047,-8.712,-6.445,-1.622057,-0.822191,3.946965,99849.22,-138,+147,-44
95841,11.206,-14.539,2.671,-0.145452,-1.060576,4.232175,99850.31,-142,+136,-46
95850,11.434,-9.209,8.276,0.960272,-1.022264,3.960268,99847.14,-145,+125,-50
95860,5.574,-9.143,9.600,1.021997,-0.785476,3.522341,99847.14,-145,+125,-50
95870,6.511,-8.943,6.506,0.954951,-1.024393,3.394635,99849.84,-148,+115,-52
95881,5.913,-7.961,4.546,0.927281,-1.319714,3.017369,99849.58,-149,+106,-56
95891,5.855,-10.666,6.834,0.560126,-1.337273,2.720984,99846.25,-151,+98,-59
95900,7.686,-12.573,4.914,-0.183232,-1.380906,2.267626,99847.70,-151,+98,-59
95910,7.638,-9.014,-1.031,-1.160185,-1.233512,1.564709,99847.70,-150,+93,-62
95921,7.945,-5.356,-2.809,-2.052533,-0.690760,1.114545,99851.91,-150,+93,-64
95931,9.308,-2.965,-2.116,-1.942387,-0.335311,0.938416,99849.41,-151,+93,-63
95940,9.880,-1.384,-1.673,-1.171892,-0.330522,1.033132,99848.63,-151,+93,-63
95950,9.752,-2.031,0.661,-0.359892,-0.386925,1.249700,99847.95,-151,+91,-63
95961,9.314,-3.131,1.977,0.196162,-0.437476,1.366232,99847.95,-151,+86,-65
95971,8.305,-4.242,0.946,0.363777,-0.476320,1.305572,99850.18,-152,+83,-66
95980,8.141,-4.803,0.304,0.428694,-0.385329,1.170416,99850.70,-152,+83,-66
95990,8.443,-5.984,2.522,0.356328,-0.251237,0.949590,99851.88,-151,+78,-66
96001,8.415,-7.079,3.721,0.115814,-0.183659,0.655866,99849.49,-152,+77,-68
96011,7.920,-6.883,3.014,-0.275287,-0.075641,0.347774,99849.49,-153,+76,-67
96021,8.017,-5.508,2.497,-0.660534,0.031313,0.216343,99848.54,-153,+76,-67
96030,8.375,-3.568,2.537,-0.820167,0.049405,0.180692,99851.09,-151,+77,-66
96040,9.182,-2.714,2.507,-0.668871,-0.005225,0.172710,99848.54,-152,+78,-66
96051,9.698,-3.061,2.470,-0.438112,-0.087348,0.217940,99847.85,-151,+76,-66
96060,9.527,-3.492,2.450,-0.233782,-0.165036,0.299884,99847.85,-151,+76,-66
96070,8.806,-3.939,2.207,-0.161947,-0.189513,0.351499,99851.50,-152,+77,-66
96080,8.302,-4.519,2.173,-0.184296,-0.163971,0.341921,99848.31,-153,+76,-66
96091,8.024,-5.103,2.050,-0.272094,-0.094797,0.274875,99848.53,-152,+74,-67
96101,7.924,-5.261,1.837,-0.455672,0.007368,0.190802,99847.59,-152,+74,-67
96110,8.017,-4.642,2.133,-0.659470,0.095698,0.139187,99847.59,-153,+75,-67
96120,8.312,-3.890,2.667,-0.758975,0.121772,0.125885,99849.57,-153,+76,-66
96131,8.486,-3.447,2.847,-0.727580,0.097295,0.123224,99849.99,-152,+77,-66
96141,8.673,-3.370,2.839,-0.615305,0.046212,0.145573,99847.18,-152,+77,-66
96151,8.685,-3.389,2.788,-0.501966,-0.017109,0.196655,99848.85,-153,+78,-65
96160,8.555,-3.614,2.460,-0.408314,-0.078302,0.257316,99848.85,-154,+77,-65
96171,8.437,-3.853,2.445,-0.341800,-0.118742,0.305206,99848.59,-154,+76,-66
96181,8.504,-4.095,2.369,-0.352975,-0.110228,0.335536,99852.18,-154,+76,-66
96191,8.685,-4.276,2.011,-0.430663,-0.082026,0.374380,99848.68,-153,+76,-65
96200,8.917,-4.022,1.745,-0.510479,-0.052228,0.435040,99847.18,-153,+74,-66
96210,9.025,-3.730,2.025,-0.544002,-0.052760,0.504215,99847.18,-154,+74,-66
96221,9.018,-3.322,2.717,-0.487066,-0.105439,0.568600,99850.59,-154,+74,-66
96231,8.891,-3.271,2.576,-0.375323,-0.175678,0.656930,99849.50,-154,+73,-65
96240,8.646,-3.718,2.584,-0.238571,-0.264008,0.741003,99848.45,-154,+72,-66
96250,8.332,-4.124,2.873,-0.133213,-0.335843,0.808049,99848.25,-153,+70,-67
96261,8.343,-4.531,2.517,-0.119379,-0.376815,0.867646,99848.25,-153,+70,-67
96271,8.433,-4.949,1.965,-0.168865,-0.408742,0.902765,99851.12,-153,+67,-67
96281,8.550,-5.105,1.587,-0.237507,-0.436944,0.916600,99851.74,-154,+66,-69
96290,8.768,-5.325,1.309,-0.318388,-0.459824,0.909150,99847.52,-154,+63,-71
96301,8.943,-5.399,1.265,-0.420021,-0.448650,0.899040,99846.85,-153,+63,-71
96311,9.131,-5.296,1.258,-0.515268,-0.420980,0.901168,99846.85,-153,+61,-71
96321,9.219,-5.026,1.310,-0.566351,-0.428962,0.926710,99849.34,-153,+60,-72
96330,8.962,-4.780,1.566,-0.545066,-0.477384,0.973003,99850.12,-153,+58,-73
96340,8.610,-4.685,1.508,-0.483874,-0.537512,1.031003,99849.13,-152,+56,-74
96351,8.233,-4.922,1.411,-0.426406,-0.591788,1.074104,99847.52,-152,+56,-74
96361,8.287,-5.122,1.606,-0.372131,-0.632228,1.111884,99847.52,-151,+53,-76
96370,8.566,-5.225,1.777,-0.364149,-0.671604,1.140618,99852.09,-151,+51,-77
96380,8.901,-5.580,1.388,-0.364681,-0.721090,1.186911,99849.80,-149,+48,-79
96391,9.375,-6.270,1.054,-0.405122,-0.755145,1.222563,99853.54,-149,+48,-79
96401,9.706,-6.560,1.041,-0.522718,-0.768448,1.274710,99845.12,-149,+45,-82
96410,9.839,-6.198,0.611,-0.642442,-0.756742,1.329517,99845.12,-147,+42,-82
96420,9.910,-5.966,0.299,-0.705764,-0.756742,1.371021,99851.91,-146,+39,-84
96431,9.862,-5.606,0.385,-0.694589,-0.798246,1.397627,99851.33,-146,+39,-84
96441,10.070,-6.183,0.238,-0.670112,-0.844008,1.409333,99847.33,-145,+37,-87
96451,10.299,-6.298,0.222,-0.641378,-0.893494,1.422636,99849.16,-144,+34,-88
96460,10.607,-6.346,0.529,-0.653085,-0.940320,1.436471,99849.16,-142,+31,-91
96471,11.167,-6.415,0.888,-0.689268,-1.009494,1.464673,99849.63,-142,+31,-91
96481,12.029,-6.313,1.717,-0.737690,-1.091439,1.496067,99850.30,-141,+28,-92
96491,12.877,-6.392,3.272,-0.786644,-1.156888,1.523205,99848.54,-139,+25,-95
96500,13.747,-6.534,3.931,-0.823892,-1.198393,1.617920,99847.80,-136,+22,-99
96510,15.037,-6.361,3.902,-0.958516,-1.239897,1.752012,99847.80,-136,+22,-99
96521,16.429,-5.860,4.793,-1.112295,-1.226595,1.867480,99849.00,-133,+19,-101
96531,17.679,-5.286,6.198,-1.230956,-1.155292,2.014874,99849.16,-131,+16,-104
96541,18.645,-5.077,6.394,-1.388460,-1.087714,2.252195,99847.44,-129,+12,-107
96550,17.610,-4.839,6.228,-1.599708,-1.004705,2.472489,99847.53,-129,+12,-107
96561,15.756,-4.640,5.708,-1.782222,-0.942448,2.516122,99847.53,-126,+9,-111
96571,13.302,-6.306,3.745,-1.940258,-0.987145,2.583699,99850.12,-123,+5,-114
96581,10.166,-9.370,1.746,-1.935469,-1.146778,2.930103,99848.40,-118,+2,-118
96590,10.385,-10.284,2.136,-1.459763,-1.326099,3.077497,99848.62,-118,+2,-118
96601,11.383,-8.740,4.133,-1.205415,-1.234576,2.747589,99848.77,-114,-2,-121
96611,10.957,-6.370,4.532,-1.139433,-1.150503,2.590617,99848.77,-110,-7,-125
96621,9.248,-4.434,3.784,-1.055360,-1.027053,2.467167,99850.28,-107,-11,-128
96631,6.876,-2.974,3.739,-0.896614,-0.783879,2.136550,99847.53,-107,-11,-128
96641,8.873,-0.214,2.070,-0.833470,-0.673200,1.640269,99846.48,-103,-14,-130
96651,3.569,-2.121,0.391,-1.064406,-0.236338,1.016104,99847.16,-103,-14,-133
96661,-0.227,-4.086,-0.014,-0.724387,-0.519421,1.360911,99847.16,-100,-16,-135
96671,3.763,-2.041,1.594,-0.180571,-0.331586,1.073572,99850.30,-100,-16,-135
96680,5.455,1.027,1.402,0.103575,-0.171953,0.076930,99849.57,-98,-19,-136
96691,5.078,2.376,0.784,-0.058186,0.113790,-0.482317,99847.85,-99,-20,-136
96701,4.645,1.249,0.126,0.024823,0.228194,-0.546170,99847.23,-100,-19,-136
96711,3.554,0.621,-0.167,0.440933,0.210102,-0.720170,99847.23,-100,-19,-136
96720,2.780,-0.139,-0.344,0.882584,0.246817,-1.004849,99847.54,-102,-20,-136
96731,2.359,-0.929,-0.318,1.185354,0.332487,-1.320390,99847.23,-103,-20,-135
96741,2.378,-1.281,-0.212,1.320510,0.457001,-1.600812,99845.04,-106,-22,-133
96751,2.776,-1.393,-0.218,1.328492,0.605991,-1.868463,99847.23,-106,-22,-133
96760,3.144,-1.603,-0.416,1.310400,0.748597,-2.149417,99847.23,-109,-21,-131
96771,3.517,-1.848,-0.574,1.325299,0.885881,-2.419196,99846.59,-112,-20,-130
96781,3.863,-2.089,-0.724,1.343391,1.022101,-2.676205,99844.98,-117,-18,-128
96791,4.304,-2.371,-0.825,1.327960,1.160982,-2.948646,99844.09,-122,-18,-124
96801,4.926,-2.734,-0.892,1.302419,1.290285,-3.215233,99844.36,-122,-14,-124
96811,5.737,-3.054,-0.886,1.277942,1.410541,-3.467453,99844.36,-128,-9,-121
96821,6.544,-3.377,-0.947,1.251336,1.516963,-3.707966,99845.98,-134,-4,-118
96831,7.259,-3.784,-0.914,1.247079,1.602101,-3.914425,99847.55,-140,+1,-115
96841,8.006,-4.309,-0.783,1.279006,1.653716,-4.076718,99845.94,-140,+1,-115
96850,8.894,-4.789,-0.530,1.349776,1.662761,-4.212406,99843.55,-146,+9,-111
96861,9.743,-5.370,-0.211,1.438639,1.636688,-4.332131,99843.55,-150,+17,-107
96871,10.349,-5.834,0.102,1.559960,1.559532,-4.429507,99847.62,-155,+25,-104
96881,11.138,-6.220,0.336,1.706822,1.491422,-4.464094,99844.91,-155,+25,-104
96890,11.823,-6.711,0.767,1.896785,1.419587,-4.439085,99845.85,-158,+33,-100
96901,12.430,-7.115,1.082,2.136767,1.282303,-4.401305,99845.07,-163,+42,-97
96911,12.776,-7.463,1.286,2.441666,1.148743,-4.326810,99845.07,-165,+49,-96
96921,12.800,-7.677,1.328,2.727408,1.009863,-4.242736,99849.45,-165,+49,-96
96931,12.730,-7.952,1.286,2.970051,0.877367,-4.148021,99848.46,-167,+56,-94
96941,12.693,-8.362,1.298,3.142454,0.770413,-4.060755,99844.91,-168,+62,-93
96951,12.826,-8.803,1.576,3.264307,0.696982,-3.972425,99846.27,-168,+68,-93
96961,12.877,-9.154,1.966,3.302619,0.639514,-3.883030,99846.27,-168,+68,-93
96971,13.112,-9.500,2.373,3.230784,0.576193,-3.771287,99849.46,-170,+74,-93
96980,13.337,-9.950,2.797,3.063170,0.511276,-3.579728,99846.43,-170,+80,-94
96987,13.205,-10.389,3.020,2.904069,0.474028,-3.427544,99847.68,-170,+80,-94
96996,12.705,-10.759,3.199,2.767849,0.392083,-3.227471,99847.68,-169,+85,-94
97006,12.044,-10.974,3.008,2.644399,0.268102,-3.008242,99846.96,-168,+89,-95
97016,11.318,-10.885,2.791,2.616198,0.208505,-2.842224,99846.96,-166,+89,-95
97027,10.010,-10.545,2.983,2.643867,0.236707,-2.617141,99849.11,-166,+93,-96
97036,9.059,-10.497,2.901,2.661959,0.236175,-2.300536,99848.16,-167,+96,-96
97046,8.282,-11.074,2.304,2.602363,0.179772,-1.934977,99848.72,-165,+97,-98
97056,7.523,-12.019,1.719,2.417188,0.116983,-1.495454,99848.72,-165,+97,-99
97065,6.880,-12.917,1.210,2.117079,0.069093,-1.046885,99848.72,-165,+97,-99
97076,6.302,-13.732,0.809,1.739813,0.032377,-0.678665,99851.29,-165,+95,-101
97086,5.738,-13.766,0.870,1.382235,0.051533,-0.389198,99847.85,-165,+95,-101
97096,6.126,-12.809,1.533,1.061905,0.058983,-0.088556,99848.01,-165,+93,-101
97106,5.265,-12.314,0.754,0.835758,-0.064467,0.283389,99847.16,-165,+93,-101
97116,4.966,-11.687,0.169,0.650052,-0.203880,0.842104,99847.16,-165,+90,-103
97126,10.364,-9.972,-0.045,0.428162,-0.060210,1.139022,99851.77,-166,+85,-103
97136,14.556,-4.979,-1.339,0.556401,-0.527402,1.244379,99850.99,-166,+80,-106
97146,18.858,8.972,-1.293,0.940052,-0.759934,1.058141,99848.65,-166,+80,-106
97156,16.667,14.456,-2.359,0.328658,-0.243788,1.434875,99848.65,-165,+76,-106
97166,7.747,0.443,-4.344,-0.638186,0.053662,1.954214,99850.78,-167,+70,-106
97176,6.455,-11.372,-3.391,-0.199195,-0.038393,2.440562,99850.00,-167,+65,-107
97186,14.308,-8.844,4.447,0.716566,0.153698,2.663516,99850.00,-167,+65,-107
97196,12.152,-6.022,7.436,0.962401,0.346322,2.407571,99845.20,-168,+54,-105
97206,9.655,-8.180,8.529,0.866089,0.348982,2.303278,99845.05,-170,+46,-104
97216,11.665,-7.980,5.813,1.296565,-0.158118,2.409700,99845.05,-169,+36,-105
97221,10.534,-6.743,2.740,1.523776,-0.466742,2.157480,99850.59,-169,+36,-105
97231,8.756,-6.083,3.270,1.269960,-0.405549,1.756801,99847.31,-169,+29,-105
97241,7.221,-5.898,5.222,0.870346,-0.317751,1.400287,99845.48,-169,+29,-105
97251,7.288,-6.543,4.560,0.320144,-0.381072,1.209792,99848.09,-168,+24,-106
97261,8.633,-7.108,2.274,-0.316259,-0.408210,0.942673,99848.09,-166,+21,-107
97271,9.487,-5.044,-0.038,-0.692993,-0.308705,0.506343,99849.51,-166,+20,-107
97281,9.274,-2.976,-0.973,-0.840919,-0.049568,0.245077,99847.68,-166,+20,-107
97291,10.010,-1.828,0.168,-0.702039,0.186689,0.184949,99843.93,-166,+22,-108
97301,9.751,-1.196,0.435,-0.335415,0.220744,0.221132,99845.85,-166,+22,-107
97311,9.394,-0.995,1.053,-0.002847,0.220744,0.327554,99845.85,-167,+20,-107
97321,9.374,-1.084,1.391,0.243520,0.213294,0.405242,99849.34,-167,+19,-106
97331,9.353,-1.627,1.849,0.379740,0.216487,0.444618,99848.66,-167,+19,-106
97341,9.512,-2.113,3.319,0.438805,0.231918,0.444618,99850.01,-168,+18,-105
97351,9.644,-2.284,4.120,0.361116,0.200524,0.389279,99848.76,-168,+15,-104
97361,9.206,-2.134,4.035,0.075906,0.126561,0.345114,99848.76,-168,+14,-104
97371,8.958,-2.041,3.626,-0.190149,0.081863,0.310527,99848.28,-168,+14,-104
97381,9.255,-1.818,3.128,-0.338608,0.054726,0.275407,99848.48,-168,+14,-104
97391,9.321,-1.524,2.632,-0.384369,0.053662,0.301481,99848.59,-168,+13,-104
97401,9.517,-1.198,1.941,-0.340736,0.067496,0.360545,99846.88,-168,+14,-104
97411,9.441,-1.054,1.175,-0.260920,0.077074,0.449407,99846.88,-168,+14,-104
97421,9.287,-1.478,1.143,-0.117782,0.081863,0.541994,99850.73,-168,+13,-105
97431,9.178,-2.259,1.651,0.040786,0.080267,0.608508,99849.48,-168,+10,-104
97441,9.239,-2.635,1.736,0.106768,0.064304,0.607976,99848.43,-168,+9,-104
97452,9.140,-2.985,2.057,0.039722,0.079203,0.570728,99849.52,-168,+9,-104
97461,9.073,-3.200,2.316,-0.083727,0.093570,0.516985,99849.52,-167,+7,-103
97471,9.126,-3.104,2.200,-0.205048,0.099423,0.453132,99852.49,-168,+6,-103
97481,9.078,-2.991,1.929,-0.345525,0.118047,0.422802,99851.04,-168,+5,-103
97491,9.247,-2.715,1.944,-0.456204,0.149973,0.424930,99848.02,-168,+5,-103
97501,9.516,-2.163,1.993,-0.510479,0.164872,0.443554,99847.20,-168,+5,-102
97511,9.363,-2.272,2.151,-0.482277,0.156359,0.488783,99847.20,-168,+5,-102
97521,9.255,-2.612,2.134,-0.388626,0.129753,0.569664,99849.20,-168,+4,-101
97531,9.314,-2.841,1.818,-0.336479,0.081331,0.604251,99847.80,-168,+4,-101
97541,9.275,-2.939,2.466,-0.314131,0.066964,0.601059,99849.20,-168,+2,-103
97551,9.140,-3.356,2.717,-0.324241,0.052065,0.589352,99848.89,-167,+1,-102
97561,9.005,-3.613,2.722,-0.339140,0.022799,0.568600,99848.89,-167,+0,-102
97571,8.967,-3.615,2.315,-0.385966,0.007368,0.530820,99848.07,-167,+0,-102
97576,8.987,-3.532,1.983,-0.428002,-0.003806,0.491976,99851.62,-167,+0,-102
97586,9.040,-3.342,2.231,-0.413635,-0.018173,0.464306,99851.62,-167,+0,-103
97596,9.107,-3.295,2.213,-0.353507,-0.045311,0.448875,99848.96,-167,+0,-103
97606,8.989,-3.386,1.997,-0.286461,-0.078302,0.444618,99849.32,-166,-1,-103
97616,9.029,-3.270,1.958,-0.202388,-0.105439,0.419609,99852.20,-165,-3,-104
97627,9.125,-3.106,2.359,-0.130553,-0.120338,0.384490,99851.69,-166,-2,-104
97636,9.206,-3.294,2.438,-0.052865,-0.160779,0.363205,99845.03,-166,-2,-104
97646,8.953,-3.710,2.512,0.017906,-0.203348,0.347242,99846.64,-164,-3,-104
97656,8.704,-3.917,2.354,0.045575,-0.227292,0.295628,99846.64,-163,-5,-104
97667,8.640,-3.791,2.371,0.015777,-0.227292,0.238692,99846.64,-163,-5,-105
97676,8.765,-3.641,2.141,-0.015617,-0.224632,0.214747,99850.59,-163,-5,-105
97686,8.937,-3.497,2.187,-0.036369,-0.227825,0.196123,99849.30,-163,-5,-106
97696,9.040,-3.267,2.358,-0.011892,-0.236338,0.191334,99847.95,-163,-7,-106
97707,8.980,-3.188,1.963,0.016841,-0.253366,0.205701,99846.59,-162,-7,-107
97717,8.902,-3.301,1.970,0.049300,-0.268797,0.217407,99846.59,-162,-7,-107
97726,8.950,-3.316,2.094,0.082291,-0.278375,0.223793,99851.36,-161,-8,-107
97736,9.043,-3.117,2.254,0.096658,-0.274650,0.234967,99847.83,-161,-7,-109
97746,8.943,-3.133,2.454,0.098786,-0.271458,0.254123,99849.06,-159,-9,-109
97757,8.871,-3.149,2.498,0.136034,-0.285825,0.279132,99849.06,-159,-9,-109
97767,8.935,-3.337,2.431,0.164236,-0.300191,0.299352,99851.28,-159,-10,-109
97776,9.073,-3.716,2.306,0.157318,-0.319347,0.308398,99851.28,-158,-12,-110
97786,9.139,-3.845,2.280,0.113153,-0.329458,0.308930,99847.38,-157,-13,-111
97797,9.238,-3.473,2.476,0.048236,-0.322540,0.313187,99848.25,-157,-13,-111
97806,9.286,-3.436,2.643,-0.017214,-0.319880,0.335004,99849.25,-156,-13,-112
97812,9.317,-3.310,2.586,-0.031048,-0.345421,0.363205,99849.25,-156,-14,-112
97821,9.312,-3.112,2.810,-0.022003,-0.359788,0.390875,99851.19,-156,-14,-112
97831,9.188,-3.203,2.713,-0.000186,-0.387457,0.453132,99849.42,-154,-16,-112
97842,8.896,-3.251,2.524,0.062603,-0.439604,0.524435,99849.31,-153,-18,-114
97851,8.662,-3.178,2.475,0.136034,-0.482173,0.590416,99851.19,-153,-20,-115
97861,8.585,-3.146,2.585,0.217979,-0.523678,0.643095,99851.19,-153,-20,-115
97871,8.552,-3.443,2.239,0.272786,-0.580081,0.688857,99850.97,-151,-22,-116
97882,8.688,-3.844,2.041,0.332383,-0.629035,0.718123,99848.47,-148,-24,-118
97891,8.623,-4.361,1.476,0.364309,-0.674265,0.732490,99850.88,-147,-27,-119
97901,8.550,-4.929,0.894,0.353667,-0.703531,0.719719,99849.52,-147,-27,-119
97911,8.481,-5.255,0.688,0.307906,-0.717366,0.672361,99849.52,-145,-29,-120
97922,8.321,-5.053,0.721,0.242456,-0.704063,0.623939,99851.62,-142,-33,-120
97932,8.236,-4.945,0.706,0.187117,-0.690760,0.582435,99850.37,-140,-34,-123
97941,8.281,-4.780,0.939,0.158915,-0.696613,0.533481,99847.82,-140,-34,-123
97951,8.396,-4.658,1.036,0.130713,-0.698210,0.502618,99848.45,-139,-35,-124
97961,8.543,-4.759,1.007,0.114218,-0.699274,0.490912,99848.45,-137,-37,-125
97972,8.597,-4.752,1.006,0.071117,-0.717898,0.470160,99853.02,-135,-38,-127
97981,8.629,-4.671,0.787,0.029080,-0.725879,0.476545,99849.63,-135,-38,-127
97991,8.692,-4.552,0.660,-0.005507,-0.742375,0.477609,99849.63,-132,-39,-128
98001,8.567,-4.557,0.656,-0.003379,-0.774301,0.483994,99846.86,-130,-40,-130
98012,8.515,-4.780,0.478,0.006199,-0.784411,0.482930,99846.86,-129,-41,-131
98021,8.439,-4.979,0.422,0.004071,-0.788136,0.472288,99850.80,-129,-41,-131
98031,8.551,-5.043,0.471,-0.019342,-0.787072,0.452600,99851.47,-126,-42,-133
98041,8.728,-5.108,0.408,-0.050204,-0.791329,0.434508,99847.14,-123,-43,-135
98052,8.745,-5.066,0.446,-0.073085,-0.799843,0.418545,99848.45,-121,-44,-136
98061,8.824,-5.138,0.335,-0.093837,-0.812613,0.413224,99848.45,-121,-44,-136
98071,8.747,-5.083,0.445,-0.112993,-0.837622,0.419077,99853.98,-119,-44,-138
98081,8.534,-4.995,0.587,-0.136406,-0.858375,0.430251,99850.75,-116,-45,-140
98092,8.429,-5.038,0.193,-0.171525,-0.874338,0.449939,99847.63,-114,-46,-142
98102,8.454,-5.408,-0.218,-0.216755,-0.888705,0.443554,99850.08,-114,-46,-142
98111,8.744,-5.328,0.045,-0.268901,-0.898283,0.398325,99850.08,-110,-46,-144
98121,9.154,-5.344,0.056,-0.300296,-0.908393,0.361609,99851.87,-108,-46,-146
98131,9.366,-5.459,-0.058,-0.319452,-0.930209,0.339261,99849.62,-105,-46,-148
98142,9.451,-5.416,-0.263,-0.346057,-0.949365,0.320637,99847.90,-105,-46,-148
98151,9.485,-5.433,-0.542,-0.359360,-0.970650,0.302013,99849.26,-103,-46,-149
98161,9.366,-5.462,-0.804,-0.371599,-0.994063,0.300417,99849.26,-99,-46,-152
98167,9.360,-5.467,-1.048,-0.388626,-1.005237,0.296160,99848.65,-99,-46,-152
98177,9.359,-5.376,-1.207,-0.408314,-1.022797,0.287114,99848.65,-96,-44,-154
98187,9.479,-4.988,-1.065,-0.433855,-1.039824,0.275407,99848.71,-93,-44,-157
98197,9.787,-4.852,-0.913,-0.431727,-1.074943,0.276472,99847.62,-89,-44,-158
98206,10.171,-4.956,-0.946,-0.396076,-1.138797,0.281793,99845.90,-89,-44,-158
98216,10.513,-5.149,-0.630,-0.355103,-1.201585,0.271683,99850.03,-87,-44,-161
98227,10.858,-5.263,-0.161,-0.298700,-1.262778,0.265297,99848.98,-82,-42,-163
98237,10.844,-5.263,0.288,-0.256663,-1.315989,0.275939,99848.52,-79,-42,-165
98246,10.704,-5.433,0.174,-0.259323,-1.360154,0.299352,99848.52,-79,-42,-165
98256,10.911,-5.760,0.258,-0.307213,-1.389952,0.325426,99847.22,-74,-42,-166
98267,11.755,-5.848,0.470,-0.378516,-1.449016,0.348306,99847.22,-70,-41,-170
98277,12.377,-6.136,1.148,-0.562626,-1.455402,0.350435,99851.24,-66,-41,-172
98286,12.585,-6.033,2.112,-0.779195,-1.465512,0.386618,99849.01,-66,-41,-172
98296,12.638,-5.272,3.305,-1.002681,-1.435714,0.447811,99846.20,-61,-39,-175
98307,13.068,-4.392,3.721,-1.179341,-1.421347,0.577646,99847.54,-57,-36,-178
98317,13.053,-3.129,3.833,-1.191580,-1.509145,0.730893,99847.54,-51,-33,-181
98327,12.973,-2.621,3.689,-1.042057,-1.612906,0.907554,99849.70,-51,-33,-181
98336,12.961,-2.902,3.594,-0.798351,-1.717732,1.088471,99847.29,-45,-31,-184
98347,12.595,-3.607,3.775,-0.495580,-1.836392,1.255021,99848.07,-38,-31,-185
98357,12.069,-4.308,3.967,-0.199727,-1.960906,1.423700,99848.07,-31,-32,-187
98366,12.499,-4.771,3.731,0.017906,-2.083823,1.522673,99848.07,-31,-32,-187
98376,12.583,-5.250,3.165,0.119539,-2.183328,1.591847,99850.63,-22,-35,-188
98386,12.715,-4.998,2.236,0.232878,-2.307309,1.642929,99849.47,-14,-37,-190
98397,11.828,-4.111,1.450,0.438805,-2.428630,1.456691,99849.06,-4,-40,-191
98407,11.145,-3.627,-0.912,0.681979,-2.558465,1.281095,99846.97,-4,-40,-191
98416,10.235,-3.368,-3.283,1.496639,-3.052263,1.326856,99846.97,+4,-44,-190
98426,9.694,-1.986,-1.571,3.275481,-3.737620,1.540232,99852.20,+17,-53,-188
98437,9.565,0.414,3.721,5.019206,-4.003143,1.390709,99850.22,+32,-70,-181
98447,8.648,0.887,6.907,5.749260,-3.706226,1.082086,99845.53,+32,-70,-181
98457,7.045,0.016,8.197,5.658802,-3.282667,1.037921,99845.53,+44,-87,-170
98466,5.117,-2.775,7.475,5.123499,-2.986814,1.091132,99846.56,+54,-103,-160
98477,3.394,-5.966,5.416,4.361518,-2.674997,0.873499,99847.30,+62,-115,-150
98487,2.293,-8.437,2.815,3.469702,-2.247181,0.336600,99847.30,+62,-115,-150
98497,2.020,-9.617,1.856,2.464014,-1.617695,-0.212537,99846.98,+66,-123,-142
98506,3.863,-9.282,1.653,1.348712,-1.062705,-0.569583,99843.75,+68,-128,-136
98516,5.007,-6.206,1.145,0.270126,-0.723219,-0.933014,99843.75,+67,-129,-134
98527,5.098,-2.879,0.184,-0.350314,-0.558797,-1.236316,99847.12,+65,-127,-134
98537,5.102,-2.035,-0.093,-0.568479,-0.461421,-1.445968,99847.12,+65,-127,-134
98547,4.851,-1.889,-0.053,-0.440773,-0.418320,-1.709894,99847.49,+62,-126,-134
98556,4.917,-1.776,0.020,-0.143324,-0.372558,-1.958389,99844.99,+59,-126,-133
98567,5.254,-1.813,0.446,0.258419,-0.316687,-2.182940,99846.61,+54,-126,-130
98577,5.611,-1.867,0.737,0.733593,-0.284228,-2.363857,99845.94,+54,-126,-130
98587,5.896,-1.970,0.957,1.249208,-0.260283,-2.498481,99845.56,+49,-128,-127
98596,6.046,-2.315,1.284,1.766418,-0.231549,-2.612352,99845.56,+43,-131,-122
98607,6.190,-2.894,1.544,2.243721,-0.207072,-2.703875,99843.53,+36,-136,-115
98617,6.431,-3.558,1.702,2.635354,-0.182595,-2.806040,99843.53,+36,-136,-115
98627,6.840,-4.263,1.753,2.934931,-0.139494,-2.922572,99844.92,+30,-141,-107
98637,7.300,-4.821,1.964,3.161255,-0.062338,-3.076707,99844.20,+22,-146,-99
98647,7.900,-4.994,2.223,3.303683,0.005240,-3.184902,99844.20,+14,-151,-90
98657,8.491,-5.311,2.521,3.394674,0.063772,-3.271636,99842.33,+14,-151,-90
98667,8.753,-5.717,2.938,3.418619,0.110065,-3.338150,99842.33,+4,-154,-80
98677,8.873,-6.356,3.348,3.373922,0.165937,-3.403067,99846.46,-6,-158,-71
98686,8.999,-7.143,3.792,3.261115,0.250542,-3.510554,99845.02,-15,-160,-61
98697,9.334,-7.853,4.359,3.075408,0.369203,-3.629746,99845.30,-15,-160,-61
98707,9.608,-8.210,5.055,2.833298,0.504358,-3.711691,99845.30,-27,-159,-53
98716,9.743,-8.448,5.591,2.559262,0.644835,-3.725526,99845.30,-40,-158,-46
98726,9.584,-8.742,5.756,2.280968,0.787973,-3.712223,99847.27,-51,-155,-38
98737,9.297,-8.924,5.447,2.020235,0.935367,-3.721269,99847.48,-51,-155,-38
98747,9.095,-8.927,4.839,1.731299,1.126927,-3.751599,99848.11,-63,-149,-31
98757,9.043,-8.595,4.469,1.407244,1.367973,-3.766498,99845.50,-74,-143,-25
98766,9.347,-8.183,4.274,1.086914,1.633495,-3.766498,99845.50,-84,-136,-20
98777,9.887,-7.680,4.156,0.819795,1.876137,-3.765966,99848.95,-84,-136,-20
98787,10.471,-7.215,3.879,0.611208,2.066101,-3.745746,99847.07,-93,-128,-15
98797,10.950,-6.877,3.394,0.438805,2.224669,-3.679232,99845.09,-102,-119,-11
98806,11.224,-6.657,2.790,0.292474,2.353440,-3.593563,99845.09,-109,-112,-7
98817,11.423,-6.371,2.138,0.161043,2.442302,-3.512150,99849.66,-109,-112,-7
98827,11.719,-6.038,1.303,0.055153,2.473165,-3.430737,99849.50,-115,-104,-3
98837,12.001,-5.678,0.454,-0.026792,2.450816,-3.336554,99849.50,-121,-96,+1
98846,12.227,-5.188,0.099,-0.029984,2.366210,-3.224278,99848.47,-128,-89,+5
98856,12.747,-5.237,-0.476,0.032273,2.224137,-3.076884,99848.16,-128,-89,+5
98867,12.977,-5.574,-0.603,0.151465,2.054926,-2.889049,99848.16,-133,-82,+9
98877,12.563,-6.012,-0.753,0.320144,1.835165,-2.685783,99851.48,-138,-76,+12
98886,11.692,-6.554,-0.979,0.522878,1.603697,-2.462297,99851.74,-142,-72,+16
98896,11.002,-7.132,-1.285,0.717098,1.387661,-2.159527,99850.07,-142,-72,+16
98907,10.365,-8.225,-1.884,0.840547,1.169496,-1.791839,99846.23,-146,-67,+20
98917,9.441,-9.372,-2.520,0.937391,0.928982,-1.350720,99847.73,-149,-63,+23
98927,8.252,-10.589,-3.231,0.962933,0.639514,-0.857454,99851.84,-150,-61,+25
98937,7.104,-11.551,-3.349,0.914511,0.346322,-0.341840,99849.34,-150,-61,+25
98947,6.532,-12.456,-2.797,0.766052,0.076542,0.195591,99846.44,-151,-60,+27
98957,6.509,-13.689,-2.143,0.493612,-0.163439,0.762820,99846.44,-151,-61,+27
98967,6.420,-14.830,-1.791,0.145612,-0.365641,1.316214,99846.44,-149,-65,+28
98976,7.471,-15.074,-0.538,-0.231654,-0.475788,1.788728,99852.17,-149,-65,+28
98987,9.933,-11.582,0.424,-0.450351,-0.584338,2.001039,99850.14,-146,-71,+26
98993,10.747,-5.838,1.258,-0.646167,-0.734925,2.048929,99850.56,-144,-75,+23
99002,10.795,3.020,6.569,-0.426406,-0.777494,1.705718,99846.34,-144,-75,+23
99012,32.220,24.320,6.822,-0.290186,-0.379476,0.634582,99846.34,-142,-79,+22
99021,31.252,20.072,3.135,-2.178111,-0.355531,1.473186,99851.51,-140,-82,+18
99032,5.405,2.836,-4.861,-2.638918,-0.208136,2.670965,99850.73,-136,-88,+14
99042,0.211,-10.750,-2.882,-0.387030,-0.659898,3.123259,99850.52,-136,-88,+14
99052,13.573,-8.322,1.810,1.906895,-1.346851,3.211057,99849.54,-130,-95,+14
99061,11.374,-5.608,1.021,1.964895,-1.333549,3.092929,99849.54,-124,-103,+15
99072,8.194,-6.725,5.414,1.289116,-0.836558,2.857204,99849.91,-119,-110,+16
99082,9.618,-9.822,8.957,1.539740,-0.683843,2.812507,99848.77,-119,-110,+16
99092,11.124,-9.547,6.653,1.628602,-1.055255,2.612433,99848.45,-114,-115,+17
99102,6.919,-5.741,3.384,0.710181,-1.127090,1.960067,99846.58,-109,-121,+17
99111,4.702,-5.643,4.097,-0.271030,-0.762595,1.797773,99846.58,-105,-123,+15
99122,7.828,-7.162,5.704,-0.786644,-0.637549,1.760526,99849.30,-105,-123,+15
99132,9.208,-5.861,0.392,-0.969690,-0.846136,1.442856,99850.59,-102,-126,+12
99142,8.673,-4.885,-2.467,-1.224038,-0.636485,1.310361,99848.41,-98,-128,+8
99151,10.227,-4.825,-0.985,-1.100589,-0.344357,1.248104,99852.94,-95,-130,+6
99162,9.436,-3.394,-0.750,-0.779195,-0.219311,1.177333,99852.94,-95,-130,+6
99172,9.261,-2.574,0.284,-0.514204,-0.126192,1.233205,99849.81,-92,-132,+4
99182,9.121,-2.613,0.438,-0.212498,-0.099054,1.235865,99850.19,-89,-134,+3
99191,9.228,-3.337,0.968,0.090805,-0.067127,1.152856,99848.09,-86,-137,+3
99202,9.006,-3.561,2.038,0.291410,-0.029348,1.044306,99849.50,-86,-137,+3
99212,9.272,-3.787,3.295,0.250438,-0.018705,0.940013,99849.50,-84,-139,+4
99222,8.927,-4.149,4.341,-0.026259,-0.069256,0.864453,99850.54,-82,-140,+4
99232,7.581,-4.528,4.351,-0.354039,-0.077237,0.772930,99849.76,-79,-141,+3
99241,7.322,-3.971,3.612,-0.603598,-0.004338,0.605848,99848.77,-79,-141,+3
99252,8.307,-3.577,2.732,-0.793030,0.068028,0.488783,99848.62,-79,-141,+3
99262,9.326,-3.510,2.029,-0.847837,0.066964,0.488783,99848.62,-77,-142,+0
99272,9.639,-3.172,1.869,-0.740351,0.048340,0.504215,99848.84,-76,-142,-1
99281,9.650,-3.274,1.947,-0.636589,0.071753,0.531884,99851.03,-75,-142,-1
99292,9.460,-3.106,1.854,-0.590296,0.065368,0.576582,99851.61,-75,-143,-3
99302,9.192,-3.396,2.308,-0.524846,0.039295,0.602655,99849.94,-73,-143,-3
99312,8.886,-4.062,2.385,-0.464718,0.001515,0.619682,99849.94,-72,-144,-4
99322,8.470,-4.551,2.261,-0.464718,-0.002210,0.590948,99848.51,-70,-145,-6
99332,8.265,-4.655,2.439,-0.518993,0.008964,0.556893,99851.32,-70,-145,-6
99342,8.528,-4.241,2.731,-0.561562,-0.001146,0.524967,99849.18,-69,-145,-7
99347,8.793,-3.947,2.632,-0.559965,-0.025091,0.515389,99846.48,-69,-145,-7
99357,8.874,-3.971,2.509,-0.556773,-0.046375,0.523371,99846.48,-67,-146,-8
99367,8.718,-4.099,2.258,-0.551984,-0.076173,0.544123,99846.48,-65,-146,-10
99377,8.639,-4.136,2.053,-0.552516,-0.080430,0.561682,99853.05,-64,-146,-11
99387,8.811,-4.147,1.926,-0.571140,-0.068192,0.569132,99849.41,-64,-146,-11
99397,9.058,-4.064,1.995,-0.564754,-0.078302,0.574453,99846.64,-63,-147,-12
99407,9.138,-4.233,2.099,-0.544534,-0.103843,0.594141,99846.64,-62,-148,-14
99418,9.028,-4.455,2.035,-0.547727,-0.127256,0.611169,99849.38,-60,-148,-15
99427,8.899,-4.665,2.154,-0.573800,-0.127256,0.622875,99849.38,-60,-148,-15
99437,8.794,-4.823,2.308,-0.615837,-0.125659,0.623939,99849.70,-57,-149,-17
99447,8.710,-4.885,2.268,-0.678626,-0.133641,0.626600,99848.13,-56,-149,-19
99457,8.576,-4.792,2.159,-0.747800,-0.144283,0.639903,99851.26,-54,-149,-22
99467,8.682,-4.513,2.273,-0.800479,-0.167696,0.657462,99851.26,-54,-149,-22
99477,8.791,-4.204,2.372,-0.820167,-0.219311,0.689921,99853.91,-52,-149,-22
99487,8.712,-4.192,2.025,-0.820167,-0.266669,0.743132,99850.01,-50,-149,-26
99497,8.604,-4.186,1.923,-0.783984,-0.303916,0.814967,99849.65,-47,-149,-28
99507,8.722,-4.090,1.830,-0.748332,-0.356063,0.876159,99850.70,-44,-149,-28
99517,8.935,-4.062,1.604,-0.721727,-0.413531,0.954912,99849.55,-44,-150,-29
99527,9.127,-4.153,1.374,-0.680222,-0.491219,1.042710,99851.69,-42,-151,-32
99537,9.232,-4.325,1.331,-0.619030,-0.561989,1.128911,99849.50,-38,-152,-34
99547,9.499,-4.722,1.122,-0.573268,-0.631696,1.197021,99849.50,-34,-152,-34
99557,9.603,-5.401,0.928,-0.570076,-0.683843,1.234801,99848.83,-34,-151,-35
99567,9.565,-5.666,0.960,-0.602002,-0.714705,1.259278,99848.83,-30,-152,-38
99577,9.656,-5.753,0.841,-0.644571,-0.722687,1.283223,99851.52,-26,-152,-41
99582,9.624,-5.663,0.848,-0.689800,-0.737054,1.298654,99850.43,-26,-152,-41
99592,9.552,-5.546,0.764,-0.695121,-0.765788,1.320471,99848.60,-22,-153,-43
99602,9.533,-5.542,0.737,-0.665855,-0.811017,1.341223,99848.09,-17,-153,-46
99612,9.725,-5.660,0.566,-0.611048,-0.865824,1.349205,99848.09,-17,-153,-46
99622,9.855,-5.805,0.717,-0.558369,-0.911586,1.363572,99848.64,-12,-153,-47
99632,9.897,-6.051,0.767,-0.528571,-0.935531,1.386453,99850.25,-7,-153,-50
99642,9.911,-6.356,0.711,-0.546663,-0.950430,1.409865,99849.89,-3,-154,-51
99652,9.982,-6.506,0.882,-0.633929,-0.950962,1.436471,99848.53,-3,-154,-51
99662,10.064,-6.397,1.398,-0.763763,-0.952026,1.466801,99848.53,+2,-154,-54
99672,10.435,-6.137,1.787,-0.918607,-0.945641,1.523205,99851.28,+7,-153,-56
99682,11.254,-5.741,2.376,-1.094204,-0.934998,1.621113,99852.58,+12,-153,-60
99692,12.357,-5.347,2.600,-1.238937,-0.988742,1.752012,99848.98,+12,-153,-60
99702,13.957,-4.561,2.651,-1.309176,-1.065365,1.880250,99846.91,+19,-151,-63
99712,15.903,-4.138,3.392,-1.302259,-1.138264,2.018599,99846.91,+26,-149,-68
99722,17.309,-3.985,4.298,-1.237341,-1.161145,2.204305,99850.23,+34,-147,-71
99732,17.885,-3.783,3.542,-1.229360,-1.201053,2.407039,99847.41,+34,-147,-71
99742,17.527,-3.315,3.089,-1.292681,-1.229255,2.554965,99846.49,+42,-145,-76
99752,17.539,-3.172,3.356,-1.261286,-1.283530,2.769406,99844.20,+51,-143,-79
99762,17.358,-4.554,2.972,-1.187855,-1.449016,3.132305,99844.20,+61,-139,-81
99772,16.684,-6.356,3.561,-0.923929,-1.732631,3.543626,99849.18,+61,-139,-81
99782,16.888,-8.103,4.356,-0.588699,-1.870447,3.552671,99846.59,+73,-137,-82
99792,15.342,-9.258,6.016,-0.467378,-1.895457,3.275974,99846.48,+84,-133,-84
99802,12.514,-8.362,5.615,-0.520057,-2.003475,2.976929,99845.34,+96,-130,-85
99812,9.231,-6.356,3.822,-0.523250,-1.910888,2.678415,99845.34,+105,-130,-85
99818,7.328,-5.048,4.416,-0.478021,-1.620356,2.467167,99847.49,+105,-126,-85
99827,7.626,-3.546,5.159,-0.289122,-1.423475,2.219204,99847.49,+112,-123,-85
99837,20.308,0.540,4.262,-0.267837,-1.469237,1.628563,99845.30,+112,-123,-85
99848,0.657,-2.917,0.038,-0.236443,-1.155824,0.896912,99847.74,+118,-121,-87
99857,-6.377,-6.665,0.049,0.176474,-1.223402,1.220966,99846.02,+123,-119,-85
99867,2.726,-5.499,4.462,0.695281,-1.006833,1.067187,99848.06,+128,-119,-84
99877,8.060,-3.483,2.652,0.683043,-0.736521,-0.515308,99849.47,+128,-119,-84
99888,5.791,-0.412,3.283,0.174878,-0.640210,-1.070298,99843.91,+128,-120,-84
99897,3.899,1.195,1.234,-0.202388,-0.464081,-0.824463,99843.91,+127,-121,-84
99907,2.129,-1.264,0.899,-0.126296,-0.196962,-0.855326,99843.95,+126,-121,-85
99917,0.798,-2.426,0.784,0.207337,-0.071384,-1.220353,99843.95,+126,-121,-85
99928,0.381,-2.457,0.363,0.418584,0.101019,-1.600812,99847.41,+124,-123,-84
99937,0.836,-2.376,0.348,0.398364,0.390487,-1.950940,99847.21,+120,-126,-84
99947,1.541,-2.226,0.107,0.269062,0.666652,-2.285637,99841.49,+115,-128,-85
99957,2.288,-2.049,-0.191,0.213722,0.891202,-2.579361,99848.62,+115,-128,-85
99968,2.938,-1.740,-0.457,0.279704,1.082230,-2.838499,99848.62,+107,-132,-87
99978,3.372,-1.558,-0.773,0.407410,1.255697,-3.096572,99847.36,+99,-136,-87
99987,3.669,-1.655,-0.910,0.553208,1.425441,-3.323251,99843.03,+89,-140,-87
99997,4.019,-2.013,-0.836,0.725612,1.574963,-3.511086,99842.67,+89,-140,-87
100007,4.468,-2.284,-0.868,0.913446,1.702670,-3.704774,99842.67,+79,-144,-86
100017,5.145,-2.604,-0.850,1.058712,1.831440,-3.906975,99842.67,+66,-150,-86
100027,5.877,-2.906,-0.812,1.169923,1.947440,-4.105984,99845.94,+52,-154,-84
100037,6.785,-3.195,-0.721,1.259850,2.035238,-4.258700,99845.88,+36,-154,-84
100047,7.826,-3.594,-0.526,1.362547,2.102284,-4.392260,99843.02,+36,-159,-82
100058,8.994,-4.074,-0.264,1.497703,2.137403,-4.523691,99847.03,+21,-162,-79
100067,10.300,-4.836,0.003,1.633923,2.135807,-4.632773,99847.03,+3,-167,-75
100077,11.462,-5.744,0.294,1.728639,2.096963,-4.713654,99844.70,-14,-169,-70
100087,12.456,-6.820,0.648,1.779721,2.052266,-4.751433,99845.74,-14,-169,-70
100098,13.304,-7.868,1.066,1.780253,2.017147,-4.712057,99845.37,-33,-171,-65
100108,13.543,-8.770,1.629,1.701501,1.969257,-4.624259,99845.37,-52,-172,-58
100117,13.097,-9.451,1.969,1.551978,1.898486,-4.524755,99846.79,-70,-170,-52
100127,12.616,-9.629,1.918,1.389685,1.839422,-4.448663,99846.01,-70,-170,-52
100137,12.675,-9.633,1.736,1.251336,1.894761,-4.393856,99846.01,-89,-167,-46
100147,12.839,-9.386,2.044,1.128419,2.019275,-4.305525,99847.57,-107,-162,-39
100157,12.620,-9.063,2.209,1.030511,2.090046,-4.173562,99844.38,-124,-155,-32
100167,12.322,-8.806,1.787,0.967190,2.111330,-4.025104,99844.38,-124,-155,-32
100172,12.286,-8.788,1.282,0.913979,2.134211,-3.917085,99850.21,-140,-146,-25
100183,12.423,-8.933,0.846,0.834694,2.164009,-3.811728,99846.46,-140,-146,-25
100192,12.663,-9.143,0.524,0.691025,2.189550,-3.680829,99847.04,-155,-137,-16
100202,12.652,-9.292,0.512,0.511704,2.162413,-3.541948,99847.77,-167,-126,-8
100212,12.249,-9.450,0.628,0.343025,2.066633,-3.400407,99847.77,-177,-114,+0
100222,11.980,-9.064,0.578,0.262676,1.938926,-3.291324,99851.15,-177,-114,+0
100233,11.652,-8.131,0.551,0.221172,1.817073,-3.133288,99848.43,-186,-102,+6
100242,11.296,-7.265,0.416,0.197759,1.709587,-2.878407,99849.12,-192,-89,+13
100252,11.035,-6.695,0.128,0.212658,1.604229,-2.580958,99849.63,-197,-78,+19
100262,10.742,-6.514,-0.260,0.240328,1.489826,-2.277123,99849.63,-197,-78,+19
100273,10.206,-6.741,-0.862,0.229153,1.353606,-1.971692,99851.77,-200,-67,+25
100282,9.408,-7.022,-1.255,0.173282,1.193973,-1.654555,99851.77,-202,-59,+30
100292,8.648,-7.066,-1.297,0.128052,1.021037,-1.329968,99850.41,-202,-51,+32
100302,8.109,-7.032,-1.301,0.109429,0.827881,-1.008041,99848.33,-201,-51,+36
100313,7.652,-7.063,-1.463,0.129649,0.596413,-0.654720,99848.33,-201,-44,+36
100322,7.306,-7.198,-1.548,0.173282,0.359625,-0.276923,99850.80,-200,-41,+39
100332,7.227,-7.184,-1.268,0.209465,0.150505,0.089701,99850.49,-199,-39,+39
100342,7.534,-7.221,-1.096,0.209997,-0.044247,0.454728,99845.91,-198,-39,+41
100353,7.790,-7.612,-1.016,0.169025,-0.216650,0.857535,99847.79,-198,-39,+41
100362,8.112,-8.666,-0.973,0.154126,-0.406081,1.298654,99847.79,-196,-41,+41
100372,8.308,-9.744,-0.901,0.202016,-0.658833,1.702526,99850.06,-194,-43,+39
100382,8.925,-9.300,-0.101,0.290878,-0.915310,2.015406,99852.88,-192,-48,+38
100392,13.307,-5.314,3.453,0.479777,-0.728008,1.885039,99848.70,-192,-48,+38
100403,23.441,5.824,10.443,0.132309,-0.283164,1.087407,99845.53,-191,-50,+39
100408,31.370,21.810,12.103,-0.153434,-0.166632,0.820820,99845.53,-191,-50,+39
100417,27.688,22.522,5.954,-1.484240,-0.259751,1.411994,99845.53,-190,-52,+39
100427,7.153,6.137,-3.677,-2.801744,0.057918,1.862691,99846.83,-185,-57,+36
100438,-1.600,-6.170,-2.274,-1.601836,-0.198026,1.940379,99849.22,-182,-61,+33
100448,15.349,-7.995,1.441,0.419116,-1.128686,2.749718,99850.53,-182,-61,+33
100458,12.813,-4.607,1.034,0.901208,-1.098888,3.176470,99846.93,-176,-69,+31
100467,7.754,-5.915,1.480,0.520217,-0.790265,2.996617,99849.43,-170,-77,+30
100477,7.646,-8.757,3.447,0.405814,-0.615200,2.930635,99847.71,-165,-84,+30
100488,9.348,-9.504,6.912,0.658566,-0.585402,2.897644,99847.71,-165,-84,+30
100497,9.119,-7.665,4.928,0.851190,-0.882852,2.622011,99846.46,-160,-89,+29
100507,7.336,-4.631,1.890,0.493612,-0.966393,2.295828,99848.45,-154,-96,+28
100517,7.299,-5.872,4.173,-0.090113,-0.740246,2.027113,99848.45,-150,-100,+26
100528,7.587,-8.126,4.874,-0.486002,-0.745035,1.740306,99848.65,-146,-104,+23
100537,8.305,-6.757,1.347,-0.903708,-0.737054,1.332709,99846.98,-146,-104,+23
100547,8.587,-4.363,-1.022,-1.287359,-0.544962,0.995352,99847.96,-144,-106,+19
100557,9.041,-3.303,-0.042,-1.253837,-0.286357,0.842636,99849.59,-142,-108,+17
100568,9.468,-2.260,1.051,-0.838791,-0.170889,0.811774,99849.06,-140,-110,+15
100578,9.663,-1.776,1.640,-0.371599,-0.142687,0.868178,99850.67,-140,-110,+15
100588,9.536,-1.892,2.045,0.048768,-0.143219,0.971939,99847.45,-138,-112,+15
100597,8.870,-2.422,2.839,0.386658,-0.188981,1.019297,99846.67,-135,-113,+15
100608,8.896,-3.299,3.471,0.466474,-0.188981,1.015572,99846.67,-134,-116,+15
100618,8.612,-4.522,4.292,0.261080,-0.206540,0.884141,99846.67,-134,-116,+15
100627,8.255,-5.297,4.254,-0.054461,-0.207604,0.679279,99849.70,-132,-118,+16
100637,7.805,-5.174,3.634,-0.357764,-0.170357,0.460049,99848.09,-131,-119,+14
100643,8.144,-4.545,3.307,-0.576993,-0.115549,0.298288,99848.51,-131,-119,+14
100653,8.631,-3.944,2.926,-0.726516,-0.093201,0.191334,99847.10,-130,-119,+12
100663,8.877,-3.330,2.834,-0.819635,-0.044247,0.150894,99847.10,-129,-119,+11
100672,9.102,-2.958,2.273,-0.791965,-0.006467,0.187609,99850.76,-129,-119,+11
100682,9.086,-2.734,1.874,-0.690865,0.026524,0.258380,99848.68,-129,-120,+9
100692,9.114,-2.485,1.851,-0.569011,0.052065,0.331279,99848.77,-128,-120,+9
100703,9.171,-2.718,2.530,-0.424810,0.036102,0.415884,99848.41,-128,-121,+8
100712,9.097,-3.104,3.090,-0.306149,-0.020834,0.488783,99848.41,-128,-121,+8
100722,8.709,-3.777,3.489,-0.292314,-0.059678,0.508471,99851.27,-127,-121,+7
100732,8.313,-4.490,3.475,-0.395011,-0.062338,0.493040,99850.13,-125,-123,+6
100743,8.266,-4.627,3.235,-0.556773,-0.048504,0.463242,99850.06,-124,-124,+4
100753,8.430,-4.236,2.938,-0.740351,0.013221,0.429719,99848.30,-124,-124,+4
100763,8.931,-3.648,2.829,-0.895904,0.046567,0.446215,99848.30,-122,-124,+4
100772,9.034,-3.161,2.796,-0.950002,0.047808,0.477609,99849.77,-122,-125,+2
100783,9.412,-2.836,2.832,-0.893598,0.015350,0.539334,99849.83,-120,-126,+0
100793,9.302,-2.985,2.898,-0.749397,-0.064999,0.599994,99848.73,-119,-126,+155
100802,9.216,-3.183,2.894,-0.600938,-0.145348,0.645224,99849.41,-119,-126,-1
100812,8.782,-3.650,2.785,-0.499837,-0.211861,0.685664,99849.41,-117,-127,-3
100823,8.648,-4.046,2.795,-0.480149,-0.254430,0.729829,99850.88,-115,-129,-4
100833,8.563,-4.178,2.795,-0.527507,-0.266136,0.744196,99848.13,-112,-130,-6
100842,8.666,-4.063,2.749,-0.604131,-0.264008,0.767609,99847.59,-112,-130,-6
100852,8.848,-4.066,2.316,-0.696718,-0.258155,0.804857,99847.28,-110,-131,-7
100862,8.892,-3.942,2.205,-0.738222,-0.276247,0.851682,99847.28,-109,-132,-9
100873,9.042,-3.829,2.272,-0.731837,-0.306045,0.905425,99850.69,-105,-132,-12
100883,8.989,-3.827,2.074,-0.699910,-0.342760,0.968214,99847.66,-105,-132,-12
100892,8.674,-3.959,2.300,-0.657342,-0.407146,1.046434,99847.56,-102,-134,-14
100902,8.695,-3.987,2.401,-0.592956,-0.475788,1.115077,99848.34,-100,-137,-16
100913,8.718,-4.165,2.485,-0.558901,-0.550815,1.153921,99848.34,-96,-138,-19
100923,8.587,-4.404,2.450,-0.517929,-0.627971,1.219902,99851.13,-96,-138,-19
100932,8.460,-4.532,2.633,-0.469507,-0.701934,1.273645,99849.25,-91,-140,-21
100942,8.410,-4.721,2.448,-0.449287,-0.755677,1.332709,99850.30,-88,-141,-23
100953,8.548,-5.232,2.039,-0.456736,-0.785476,1.372618,99847.33,-83,-143,-25
100963,8.919,-5.475,1.964,-0.506755,-0.804632,1.407737,99847.33,-83,-143,-25
100973,9.461,-5.791,1.720,-0.594020,-0.805164,1.429554,99847.27,-79,-144,-28
100982,10.250,-6.445,0.825,-0.702571,-0.814210,1.448709,99850.66,-73,-145,-30
100993,10.555,-6.279,0.519,-0.805800,-0.817934,1.468930,99850.62,-68,-146,-33
100999,10.541,-6.185,0.101,-0.845176,-0.813677,1.465737,99846.91,-68,-146,-33
101008,10.568,-6.079,-0.039,-0.855286,-0.813145,1.450838,99846.91,-63,-147,-36
101017,10.502,-6.164,0.077,-0.820699,-0.817934,1.431682,99846.91,-58,-147,-39
101027,10.605,-5.674,0.299,-0.748332,-0.852521,1.426361,99848.77,-58,-147,-39
101038,10.631,-6.010,0.486,-0.720663,-0.900943,1.424765,99848.61,-51,-148,-43
101048,10.820,-6.488,1.054,-0.743011,-0.974375,1.476379,99846.63,-45,-148,-46
101058,10.864,-6.461,1.581,-0.862736,-1.024393,1.522141,99846.63,-38,-148,-50
101067,11.196,-6.411,2.024,-1.022901,-1.049402,1.545021,99847.12,-38,-148,-50
101078,11.885,-5.982,2.595,-1.169231,-1.074943,1.571095,99847.12,-32,-146,-53
101088,13.268,-5.636,3.015,-1.270332,-1.123897,1.620581,99849.21,-24,-145,-58
101098,14.819,-5.502,4.122,-1.327800,-1.176044,1.705718,99849.26,-15,-144,-63
101107,16.147,-5.180,4.758,-1.382607,-1.190943,1.857902,99847.12,-15,-144,-63
101117,17.241,-4.318,4.280,-1.520424,-1.165402,2.046801,99847.12,-7,-142,-67
101128,17.816,-3.182,4.410,-1.709323,-1.153696,2.213351,99848.88,+1,-138,-71
101138,18.644,-2.639,4.674,-1.878533,-1.029182,2.310195,99850.02,+12,-134,-77
101148,17.553,-2.774,4.425,-1.975377,-1.060576,2.615094,99845.65,+12,-134,-77
101157,15.578,-4.548,2.287,-1.900350,-1.326631,3.016837,99843.10,+25,-129,-82
101168,13.799,-7.775,1.613,-1.549690,-1.652282,3.394103,99846.84,+38,-125,-87
101178,14.527,-8.918,2.734,-1.004809,-1.726246,3.310561,99849.71,+54,-120,-88
101188,14.023,-8.259,6.332,-0.747800,-1.543732,2.877956,99847.41,+54,-120,-88
101197,12.460,-6.370,6.690,-0.682883,-1.626741,2.692250,99847.41,+65,-114,-89
101208,9.188,-4.528,4.784,-0.680222,-1.624613,2.510268,99844.91,+78,-110,-92
101218,6.529,-3.657,4.487,-0.550920,-1.346851,2.263370,99844.91,+89,-105,-93
101228,8.413,-1.700,3.641,-0.243892,-1.156356,1.870140,99850.12,+89,-105,-93
101233,19.004,1.282,2.539,-0.429066,-1.141457,1.288012,99846.77,+98,-101,-93
101242,-0.542,-2.693,-0.767,-0.303489,-0.962668,0.850618,99847.55,+98,-101,-93
101253,-4.202,-6.695,0.632,0.172218,-1.119108,1.167223,99847.40,+105,-98,-93
101263,2.618,-4.952,3.484,0.745832,-0.934466,1.015572,99847.40,+114,-96,-92
101273,5.963,-1.095,2.310,0.666015,-0.709916,-0.230097,99848.37,+118,-95,-90
101282,4.262,1.376,1.674,-0.105012,-0.332650,-1.024005,99845.55,+119,-95,-91
101293,3.250,0.752,0.695,-0.413103,-0.097990,-0.936207,99846.55,+119,-94,-91
101303,2.214,-0.273,0.383,-0.227929,-0.018173,-1.025601,99845.46,+123,-93,-92
101313,1.061,-0.734,-0.016,0.093465,0.058450,-1.365087,99845.46,+123,-95,-93
101322,0.727,-1.236,0.065,0.324401,0.215955,-1.723729,99847.69,+123,-95,-93
101332,1.070,-1.471,0.375,0.419649,0.443698,-2.037142,99845.39,+123,-95,-93
101343,1.898,-1.330,0.508,0.428694,0.672505,-2.317031,99843.47,+121,-98,-94
101353,2.625,-1.267,0.468,0.438627,0.895459,-2.598517,99845.77,+117,-101,-94
101362,3.282,-1.378,0.320,0.519685,1.073184,-2.815086,99845.77,+112,-105,-95
101372,3.794,-1.784,0.227,0.672933,1.243991,-3.024205,99846.03,+112,-105,-95
101383,4.032,-2.343,0.228,0.867685,1.379679,-3.178517,99846.97,+106,-110,-96
101393,4.765,-2.702,0.226,1.065630,1.515367,-3.320058,99845.41,+99,-115,-95
101403,5.404,-3.146,0.067,1.199721,1.655312,-3.485544,99845.14,+91,-121,-95
101412,6.109,-3.726,-0.090,1.268896,1.805899,-3.666994,99845.14,+91,-121,-95
101423,6.919,-4.202,-0.126,1.297098,1.937862,-3.825030,99845.55,+81,-128,-93
101433,7.926,-4.704,-0.044,1.346052,2.011826,-3.922406,99843.88,+70,-134,-94
101443,8.767,-5.085,0.320,1.414694,2.052798,-4.014462,99844.88,+58,-141,-92
101452,9.546,-5.390,0.711,1.535483,2.035770,-4.074590,99846.54,+58,-141,-92
101463,10.170,-5.778,0.922,1.678088,1.992670,-4.121948,99846.54,+44,-147,-90
101473,10.803,-6.535,1.265,1.780785,1.983624,-4.179947,99847.30,+29,-153,-87
101483,11.361,-7.155,1.707,1.827611,1.956486,-4.233691,99846.30,+13,-158,-82
101492,11.921,-7.534,2.038,1.806327,1.936798,-4.256571,99846.77,+13,-158,-82
101502,12.503,-7.765,2.294,1.733960,1.946376,-4.223049,99847.34,-2,-164,-79
101513,12.608,-8.038,2.426,1.636052,1.949569,-4.146957,99847.34,-20,-166,-74
101523,12.224,-8.249,2.130,1.531758,1.961807,-4.083104,99851.70,-36,-167,-69
101533,11.998,-8.326,1.957,1.405648,2.023532,-4.057030,99848.27,-36,-167,-69
101542,12.001,-8.037,1.790,1.247079,2.115055,-4.050113,99848.38,-54,-167,-65
101553,12.144,-7.580,1.679,1.062969,2.206578,-4.043195,99847.80,-71,-164,-58
101563,12.381,-7.197,1.642,0.884713,2.259257,-3.996370,99847.80,-89,-160,-53
101573,12.994,-7.227,1.450,0.716566,2.272559,-3.904315,99850.73,-89,-160,-53
101582,13.415,-7.467,1.339,0.557997,2.266174,-3.817581,99849.48,-104,-154,-47
101588,13.445,-7.598,1.229,0.456364,2.231055,-3.741489,99848.74,-119,-147,-41
101598,13.292,-7.601,0.803,0.359520,2.191146,-3.665397,99848.74,-119,-147,-41
101608,12.760,-7.585,0.520,0.207337,2.170394,-3.525985,99847.24,-132,-140,-36
101618,12.346,-7.373,0.491,0.105704,2.133679,-3.339746,99847.24,-145,-131,-31
101628,12.097,-7.064,0.411,0.054089,2.059715,-3.126902,99848.72,-156,-123,-25
101638,11.844,-6.647,0.177,0.047704,1.947440,-2.911930,99848.72,-156,-123,-25
101648,11.413,-6.262,-0.172,0.098786,1.797917,-2.671948,99848.45,-164,-114,-19
101658,10.988,-6.152,-0.550,0.180199,1.618596,-2.385141,99848.45,-172,-107,-14
101667,10.337,-6.263,-0.902,0.258419,1.395642,-2.060555,99848.45,-176,-100,-9
101678,9.545,-6.681,-1.107,0.324401,1.154064,-1.688078,99849.90,-176,-100,-9
101688,8.621,-7.603,-1.613,0.376548,0.900780,-1.254408,99851.41,-181,-95,-4
101698,7.784,-8.875,-2.155,0.401025,0.612909,-0.746243,99850.32,-183,-92,-3
101708,7.408,-10.132,-3.015,0.440401,0.287790,-0.144427,99848.91,-183,-91,+0
101718,7.335,-10.692,-3.625,0.463814,-0.067127,0.477609,99848.91,-183,-91,+0
101728,7.362,-10.283,-3.291,0.461153,-0.383201,1.046967,99852.95,-182,-93,+0
101738,8.270,-10.064,-2.471,0.546291,-0.735457,1.650379,99848.57,-180,-98,+0
101748,9.342,-9.124,0.478,0.830969,-1.041952,2.147370,99848.96,-176,-103,+0
101758,12.916,-6.623,2.513,0.985813,-0.979164,2.516654,99848.96,-176,-103,+0
101768,24.402,1.091,11.288,0.835758,-0.413531,2.087773,99849.28,-170,-110,-1
101778,29.579,18.121,10.402,0.743171,-0.573164,1.411462,99848.77,-168,-115,+0
101788,15.739,14.564,0.774,-1.302259,-0.897751,2.749718,99848.77,-161,-121,-5
101797,0.323,-0.728,-8.493,-1.629506,-0.896686,3.300451,99850.80,-161,-121,-5
101808,7.265,-10.152,-1.131,0.264805,-1.300558,3.456360,99851.06,-153,-128,-9
101818,11.828,-7.636,-0.478,1.757905,-1.682081,3.570231,99851.06,-144,-138,-8
101828,9.160,-6.379,2.753,1.245483,-1.124429,3.394103,99850.45,-135,-147,-7
101838,6.738,-8.797,7.858,0.776162,-0.604558,3.232873,99848.46,-135,-147,-7
101848,8.708,-11.751,8.584,0.967722,-0.720026,3.278103,99849.35,-127,-154,-6
101858,8.494,-10.066,3.512,1.060309,-1.198393,3.004598,99844.87,-117,-161,-6
101868,6.496,-8.682,2.134,0.556401,-1.132943,2.452268,99851.13,-109,-167,-7
101878,7.159,-10.213,4.593,-0.232718,-0.818999,2.028177,99848.27,-109,-167,-7
101889,8.097,-8.618,3.020,-0.940956,-0.772173,1.576948,99849.41,-105,-170,-9
101898,8.003,-5.377,-0.024,-1.472002,-0.692356,1.091664,99848.06,-100,-171,-14
101908,8.477,-3.856,-1.711,-1.744442,-0.415127,0.829334,99848.06,-97,-172,-20
101918,9.329,-2.672,-0.804,-1.532662,-0.155990,0.741536,99848.06,-97,-172,-20
101927,9.614,-1.964,0.830,-1.001084,-0.051696,0.789425,99852.72,-96,-172,-23
101938,9.636,-1.592,1.738,-0.394479,-0.052760,0.922453,99850.95,-93,-173,-23
101948,9.506,-1.512,1.811,0.116346,-0.100118,1.080490,99849.23,-89,-175,-23
101958,9.305,-2.338,2.664,0.399428,-0.174081,1.215645,99846.78,-89,-175,-23
101968,8.528,-4.266,3.447,0.469667,-0.244320,1.207664,99846.78,-86,-177,-23
101979,8.210,-5.839,3.423,0.343557,-0.223568,1.035260,99851.20,-83,-180,-22
101988,7.980,-6.722,3.880,-0.024131,-0.136302,0.703224,99846.78,-81,-181,-22
101998,8.100,-6.134,3.743,-0.549855,-0.017641,0.366930,99844.64,-79,-181,-24
102008,8.542,-4.495,3.037,-0.950534,0.092506,0.195059,99844.64,-79,-181,-24
102018,8.848,-3.451,2.618,-1.056424,0.120707,0.207297,99844.64,-79,-180,-28
102028,9.370,-3.063,2.049,-0.894662,0.110597,0.290306,99851.10,-78,-181,-30
102038,9.759,-3.110,1.634,-0.786112,0.128157,0.399921,99851.73,-77,-180,-31
102048,9.928,-3.031,1.695,-0.702039,0.081863,0.532949,99847.98,-77,-180,-31
102059,9.839,-3.111,2.570,-0.572736,0.005240,0.620747,99848.87,-75,-179,-33
102068,9.342,-3.914,2.778,-0.510479,-0.058614,0.620747,99848.87,-73,-180,-34
102078,8.753,-4.685,2.529,-0.550388,-0.044779,0.519114,99850.43,-72,-181,-36
102088,8.588,-4.817,2.618,-0.691397,0.003643,0.445150,99848.71,-72,-181,-36
102098,8.718,-4.457,2.762,-0.861140,0.051533,0.410031,99848.45,-70,-180,-38
102109,8.783,-4.047,3.031,-0.963305,0.071221,0.391939,99848.22,-68,-181,-41
102118,8.664,-3.801,3.211,-0.944681,0.058450,0.389811,99849.88,-67,-181,-43
102128,8.360,-3.963,3.010,-0.894662,0.031845,0.394600,99851.08,-67,-181,-43
102138,8.318,-4.131,2.707,-0.860608,-0.001146,0.394600,99851.08,-66,-179,-46
102148,8.284,-3.912,2.737,-0.834534,-0.034137,0.394068,99847.69,-64,-179,-48
102158,8.291,-3.871,2.686,-0.777066,-0.055421,0.412692,99849.36,-62,-179,-50
102168,8.275,-3.998,2.807,-0.694589,-0.092137,0.435040,99849.36,-62,-179,-50
102178,8.034,-4.051,2.603,-0.608565,-0.129384,0.461114,99848.70,-61,-178,-51
102188,7.985,-4.279,2.622,-0.575397,-0.150137,0.482930,99848.70,-59,-179,-54
102198,8.121,-4.105,2.926,-0.540277,-0.171953,0.498361,99850.05,-58,-179,-55
102208,8.273,-4.149,2.844,-0.509947,-0.187384,0.524435,99848.18,-58,-179,-55
102218,8.267,-4.483,2.311,-0.479617,-0.218247,0.563279,99848.18,-56,-177,-57
102228,8.449,-4.603,1.709,-0.474828,-0.252834,0.583499,99850.70,-54,-179,-58
102239,8.730,-4.373,1.456,-0.498773,-0.280503,0.592545,99847.20,-51,-179,-60
102248,9.029,-4.214,1.209,-0.487066,-0.312430,0.620215,99847.05,-51,-179,-60
102258,9.132,-4.272,1.122,-0.440241,-0.356063,0.663315,99847.05,-49,-178,-62
102268,9.062,-4.271,1.233,-0.403525,-0.395439,0.729297,99847.05,-47,-179,-63
102278,9.087,-4.223,1.456,-0.385966,-0.440136,0.794747,99850.29,-43,-179,-64
102288,9.055,-4.184,2.020,-0.363617,-0.487494,0.860728,99852.23,-43,-179,-64
102298,8.904,-4.326,2.379,-0.324241,-0.544430,0.943205,99849.62,-40,-180,-66
102308,8.692,-4.600,2.363,-0.300296,-0.597641,1.029939,99848.63,-36,-181,-68
102319,8.640,-4.751,2.396,-0.288590,-0.639678,1.103370,99848.63,-31,-181,-69
102328,8.658,-5.007,2.236,-0.283801,-0.669476,1.166159,99850.34,-31,-181,-69
102338,8.684,-5.370,1.863,-0.280076,-0.698210,1.206599,99848.82,-26,-181,-70
102348,8.741,-5.766,1.454,-0.286993,-0.719494,1.221499,99847.52,-22,-182,-71
102359,8.792,-6.085,1.083,-0.320516,-0.721090,1.215113,99847.52,-16,-181,-73
102369,9.025,-6.372,0.542,-0.384901,-0.708852,1.189040,99851.22,-16,-181,-73
102378,9.315,-6.255,0.062,-0.477488,-0.699274,1.157113,99851.22,-12,-181,-74
102388,9.461,-6.123,0.294,-0.566351,-0.695017,1.127847,99849.88,-8,-182,-76
102398,9.532,-5.821,0.447,-0.609452,-0.707255,1.126783,99850.13,-3,-181,-79
102408,9.534,-5.609,0.775,-0.649892,-0.720558,1.148067,99846.69,-3,-181,-79
102418,9.426,-5.564,1.247,-0.653617,-0.757274,1.192232,99846.69,+1,-180,-80
102428,9.284,-5.322,1.551,-0.628076,-0.798246,1.255554,99853.02,+7,-180,-83
102438,9.312,-5.675,1.750,-0.604663,-0.844008,1.302379,99847.55,+12,-180,-84
102449,9.284,-6.002,1.995,-0.594553,-0.899879,1.365700,99850.88,+12,-180,-84
102458,9.236,-6.275,2.078,-0.654681,-0.908925,1.409333,99848.03,+19,-179,-87
102468,9.589,-6.435,1.771,-0.754186,-0.915310,1.438067,99851.31,+25,-178,-88
102478,10.377,-6.249,1.722,-0.881360,-0.932338,1.429021,99847.72,+31,-177,-91
102489,11.884,-5.571,2.002,-0.978204,-0.952558,1.453498,99847.77,+38,-177,-94
102498,14.201,-5.082,2.631,-1.045782,-0.989806,1.502985,99847.77,+38,-174,-94
102508,16.055,-4.698,3.515,-1.071323,-1.011090,1.601425,99847.56,+44,-171,-98
102518,17.286,-4.180,3.453,-1.191048,-0.964264,1.762122,99847.56,+52,-169,-100
102529,17.587,-3.170,3.369,-1.340038,-0.991402,1.958471,99851.13,+60,-166,-103
102538,17.966,-2.399,4.289,-1.396974,-1.013219,2.175039,99848.90,+60,-166,-103
102548,18.038,-2.156,5.855,-1.127195,-1.166998,2.422470,99847.29,+69,-161,-106
102558,16.575,-3.601,4.553,-0.906901,-1.482539,2.782176,99845.77,+80,-158,-107
102568,13.865,-7.746,3.217,-0.623287,-1.851824,3.394103,99845.77,+95,-154,-107
102579,13.034,-11.587,1.720,-0.283801,-2.032209,3.677185,99849.81,+95,-154,-107
102588,13.223,-12.707,4.185,-0.410443,-1.696980,3.206800,99844.67,+107,-151,-106
102598,12.565,-11.032,6.379,-0.908497,-1.471897,2.885938,99845.19,+118,-146,-107
102608,10.538,-7.921,4.662,-1.159121,-1.491585,2.697039,99845.19,+128,-140,-108
102619,8.544,-5.287,4.094,-1.067598,-1.315457,2.463975,99845.19,+128,-140,-108
102628,8.630,-2.654,3.145,-0.778663,-1.122301,1.981883,99851.41,+137,-135,-109
102638,18.189,1.208,3.940,-0.936699,-0.820595,1.340159,99851.56,+142,-131,-110
102648,-3.871,-5.120,-0.987,-0.574332,-1.052595,0.905425,99849.84,+147,-129,-109
102659,-4.050,-6.951,1.572,0.028016,-1.153163,1.061334,99846.25,+147,-129,-109
102668,3.639,-4.040,3.116,0.441997,-0.884980,0.721315,99846.25,+152,-128,-107
102678,7.519,-0.560,1.375,0.048236,-0.589127,-0.333326,99849.13,+152,-128,-105
102688,5.338,1.795,1.109,-0.623819,-0.397035,-0.721234,99846.59,+153,-128,-107
102699,3.301,0.390,0.271,-0.600406,-0.283696,-0.449326,99845.18,+153,-128,-107
102709,1.968,-0.527,0.215,-0.188553,-0.225696,-0.601509,99845.18,+152,-128,-107
102718,1.033,-0.893,-0.204,0.183392,-0.134173,-1.011234,99850.99,+150,-128,-107
102728,0.635,-1.376,-0.343,0.316951,0.034506,-1.371472,99850.99,+146,-131,-105
102738,0.856,-1.603,-0.174,0.280236,0.263845,-1.683821,99846.37,+146,-131,-105
102749,1.552,-1.660,-0.306,0.221172,0.482542,-1.988188,99847.24,+140,-134,-106
102758,2.416,-1.408,-0.749,0.253098,0.653881,-2.288297,99845.43,+134,-138,-106
102769,2.991,-1.098,-1.121,0.398187,0.807484,-2.587520,99845.29,+125,-141,-106
102778,3.376,-1.005,-1.272,0.592052,0.907166,-2.801251,99845.29,+125,-141,-106
102789,3.766,-1.275,-1.301,0.874602,0.980597,-2.998132,99847.74,+116,-146,-105
102799,4.204,-1.775,-1.150,1.166199,1.040725,-3.172664,99844.09,+105,-150,-103
102808,4.928,-2.399,-0.976,1.415226,1.107239,-3.362095,99845.65,+93,-156,-100
102818,5.556,-2.951,-0.513,1.571666,1.189716,-3.593563,99844.62,+93,-156,-100
102829,6.194,-3.422,-0.276,1.684474,1.254633,-3.779801,99845.62,+80,-162,-97
102839,6.850,-3.790,-0.018,1.788767,1.314762,-3.920810,99843.48,+66,-166,-93
102848,7.675,-4.426,0.482,1.895189,1.362652,-4.055434,99843.48,+51,-170,-87
102858,8.645,-5.382,0.908,1.982987,1.398835,-4.193782,99845.30,+51,-170,-87
102868,9.559,-6.407,1.259,1.994693,1.429165,-4.313507,99845.30,+36,-174,-82
102879,10.129,-7.063,1.527,1.915409,1.443532,-4.407691,99845.97,+20,-176,-77
102888,10.578,-7.453,1.667,1.786106,1.499404,-4.460902,99845.45,+3,-177,-71
102898,10.961,-7.889,2.019,1.641905,1.589330,-4.487507,99846.23,+3,-177,-71
102908,11.155,-8.425,2.406,1.512602,1.664358,-4.486975,99845.19,-12,-176,-67
102919,10.941,-8.891,2.670,1.383832,1.739385,-4.460370,99845.19,-29,-174,-61
102929,10.885,-9.036,2.808,1.279006,1.847404,-4.441214,99846.01,-44,-171,-56
102938,11.075,-8.882,2.917,1.206639,1.978302,-4.449195,99848.27,-44,-171,-56
102948,11.447,-8.881,2.908,1.147575,2.111330,-4.453984,99845.35,-59,-166,-50
102959,11.741,-8.728,2.943,1.077336,2.245422,-4.411947,99845.35,-73,-161,-45
102968,12.458,-8.945,2.964,0.952290,2.341733,-4.286901,99845.35,-88,-155,-39
102978,13.405,-9.617,2.966,0.784676,2.418890,-4.173030,99849.50,-101,-155,-39
102988,14.011,-10.430,2.870,0.561190,2.413036,-4.039471,99850.80,-101,-148,-34
102999,13.753,-11.156,2.589,0.248841,2.348119,-3.911232,99850.33,-112,-140,-29
103004,13.160,-11.450,2.249,-0.004443,2.305550,-3.817049,99848.25,-112,-140,-29
103013,12.447,-11.213,1.890,-0.237507,2.312999,-3.753728,99848.25,-123,-132,-26
103023,11.586,-10.277,1.929,-0.503030,2.365679,-3.641453,99849.45,-134,-123,-23
103033,11.059,-8.953,2.031,-0.679158,2.405587,-3.455214,99849.82,-143,-115,-19
103044,11.015,-7.957,1.720,-0.740351,2.376321,-3.208315,99849.13,-143,-115,-19
103054,10.970,-7.324,0.881,-0.750461,2.255000,-2.922040,99849.04,-151,-106,-15
103063,10.654,-6.931,-0.071,-0.762167,2.064504,-2.599582,99849.04,-158,-98,-12
103073,10.002,-6.860,-0.951,-0.774938,1.863367,-2.211142,99851.34,-163,-91,-9
103084,9.273,-7.108,-1.506,-0.740351,1.670211,-1.761509,99847.08,-163,-91,-9
103094,8.646,-7.324,-1.880,-0.645103,1.447257,-1.301234,99849.94,-166,-87,-7
103103,8.212,-7.235,-2.609,-0.478553,1.137569,-0.812757,99848.64,-168,-84,-5
103113,7.915,-6.991,-3.460,-0.265709,0.775734,-0.279583,99848.64,-169,-84,-4
103123,7.881,-6.967,-3.941,-0.002314,0.377184,0.322765,99852.05,-169,-84,-4
103134,7.920,-7.185,-4.068,0.262144,-0.005935,0.832526,99852.52,-169,-84,-3
103143,7.731,-7.741,-3.733,0.547355,-0.403953,1.374746,99851.54,-167,-88,-3
103153,7.838,-8.564,-2.919,0.778823,-0.741843,1.868544,99848.62,-163,-94,-4
103163,9.314,-8.412,-0.794,0.940584,-0.991402,2.238360,99848.62,-163,-94,-4
103174,11.368,-4.144,2.766,1.216749,-1.099420,2.218140,99849.70,-159,-100,-4
103184,17.739,2.487,7.594,0.860235,-0.303384,1.550342,99848.45,-155,-106,-4
103193,32.943,16.655,13.004,0.589392,0.232450,1.034728,99846.41,-154,-108,-3
103203,25.762,20.465,5.722,-1.035672,-0.478448,1.881315,99846.35,-154,-108,-3
103214,4.912,4.374,-9.187,-2.322313,-0.710980,2.793883,99846.35,-148,-114,-8
103224,0.404,-8.235,-6.182,-1.015451,-0.803035,2.619351,99848.59,-142,-120,-12
103233,14.263,-8.274,-1.799,0.878859,-1.512870,3.230213,99848.55,-134,-128,-14
103243,12.072,-5.880,2.099,0.865024,-1.215420,3.166892,99847.50,-134,-128,-14
103254,7.755,-8.272,8.884,0.605355,-0.707255,3.033864,99846.25,-126,-136,-14
103264,8.795,-10.460,7.301,0.785740,-0.857310,3.342488,99846.25,-119,-142,-14
103274,9.131,-7.199,2.294,0.841612,-1.321842,3.128580,99851.32,-110,-150,-14
103283,5.774,-5.074,2.695,0.583538,-1.287255,2.491112,99849.45,-103,-155,-16
103293,4.074,-8.169,8.512,-0.044883,-0.955219,2.310727,99846.21,-103,-155,-16
103304,5.914,-11.509,6.652,-0.402993,-0.913182,2.076067,99848.29,-97,-158,-18
103314,7.051,-7.856,0.445,-0.797286,-0.904136,1.369425,99848.29,-93,-162,-21
103323,8.370,-5.351,-1.929,-1.599708,-0.495476,0.960233,99852.41,-89,-161,-26
103333,10.040,-3.548,-2.231,-1.735396,-0.227292,0.769205,99851.27,-89,-161,-26
103344,10.015,-2.129,-0.135,-1.201158,-0.127788,0.780380,99848.61,-86,-162,-30
103354,9.439,-2.079,2.565,-0.526443,-0.186320,0.946930,99847.83,-84,-163,-31
103359,9.202,-2.371,2.244,-0.087452,-0.267733,1.042178,99847.83,-84,-163,-31
103368,9.000,-2.899,1.302,0.138163,-0.310834,1.093260,99847.83,-80,-164,-32
103378,8.573,-3.790,1.663,0.285557,-0.340100,1.093260,99850.50,-78,-166,-33
103389,8.576,-4.665,2.572,0.397300,-0.298063,1.001205,99849.66,-78,-166,-33
103399,8.564,-5.698,3.288,0.343025,-0.235806,0.826673,99848.41,-76,-169,-31
103409,7.942,-6.633,3.930,0.055686,-0.138962,0.555297,99846.23,-73,-169,-31
103418,7.480,-6.176,3.570,-0.403525,0.010561,0.224857,99850.13,-72,-169,-33
103429,7.740,-4.455,3.192,-0.770149,0.121239,0.004031,99849.10,-72,-169,-33
103439,8.713,-3.154,3.270,-0.821231,0.095698,-0.022042,99849.10,-73,-169,-34
103448,9.284,-2.898,3.147,-0.665323,0.022267,0.044472,99850.35,-73,-168,-36
103458,9.172,-3.215,2.735,-0.443966,-0.044779,0.156747,99845.51,-72,-168,-37
103469,8.794,-3.370,2.566,-0.245489,-0.112357,0.273279,99845.51,-72,-168,-37
103479,8.315,-3.586,2.722,-0.101819,-0.182595,0.333939,99850.64,-72,-168,-38
103488,8.229,-3.953,2.835,-0.030516,-0.207604,0.300949,99850.17,-69,-168,-38
103498,8.206,-4.543,2.819,-0.052865,-0.168228,0.221664,99849.34,-69,-168,-39
103508,8.162,-4.715,2.944,-0.198131,-0.083623,0.159407,99849.39,-69,-169,-39
103519,8.102,-4.467,2.861,-0.401929,0.007368,0.150894,99849.16,-69,-169,-39
103529,8.182,-3.726,2.942,-0.503562,0.057918,0.170582,99848.38,-68,-168,-41
103539,8.556,-3.136,2.911,-0.479085,0.064304,0.185481,99847.34,-68,-168,-41
103548,8.543,-3.051,3.037,-0.367342,0.015882,0.228582,99848.12,-67,-167,-42
103559,8.546,-3.240,2.715,-0.242296,-0.052228,0.291371,99848.12,-67,-167,-42
103569,8.580,-3.645,2.333,-0.127360,-0.125659,0.319572,99848.12,-65,-168,-44
103578,8.539,-4.044,2.585,-0.081067,-0.169825,0.294031,99849.87,-65,-168,-43
103588,8.557,-4.305,2.606,-0.102351,-0.159715,0.260508,99851.07,-64,-169,-44
103595,8.558,-4.440,2.364,-0.156626,-0.130448,0.241884,99848.51,-64,-169,-44
103604,8.691,-4.311,2.403,-0.196002,-0.119806,0.239756,99845.70,-63,-169,-44
103614,8.849,-4.041,2.691,-0.239103,-0.117146,0.241352,99845.70,-63,-169,-44
103623,8.892,-3.892,2.588,-0.261984,-0.120870,0.259444,99852.42,-62,-169,-46
103633,8.885,-3.857,2.475,-0.244957,-0.143751,0.303609,99848.11,-61,-169,-46
103644,8.806,-3.864,2.485,-0.210901,-0.161311,0.341921,99848.98,-61,-170,-47
103654,8.615,-4.047,2.215,-0.171525,-0.179935,0.385022,99849.41,-61,-170,-47
103663,8.519,-4.048,2.170,-0.140663,-0.198026,0.416416,99849.41,-59,-170,-47
103673,8.589,-4.171,2.348,-0.127892,-0.206008,0.431848,99850.98,-58,-170,-48
103684,8.625,-4.482,2.075,-0.121507,-0.200687,0.451004,99850.36,-56,-171,-49
103694,8.543,-4.703,1.681,-0.146516,-0.181531,0.463774,99847.39,-56,-171,-49
103704,8.475,-4.714,1.769,-0.196002,-0.151733,0.458453,99848.64,-54,-171,-49
103713,8.556,-4.500,2.060,-0.240168,-0.132045,0.462178,99848.64,-54,-171,-50
103724,8.662,-4.360,2.166,-0.255067,-0.138430,0.496233,99852.67,-52,-172,-51
103734,8.637,-4.209,2.351,-0.252938,-0.159182,0.540930,99849.61,-52,-172,-51
103744,8.634,-4.053,2.582,-0.252406,-0.191109,0.597866,99850.64,-50,-171,-52
103753,8.599,-3.979,2.657,-0.247085,-0.240063,0.671297,99848.88,-48,-172,-52
103763,8.630,-4.162,2.458,-0.235911,-0.287953,0.747921,99848.88,-45,-173,-54
103774,8.753,-4.375,2.425,-0.242828,-0.330522,0.822416,99850.42,-42,-174,-55
103784,8.888,-4.763,2.353,-0.257727,-0.361916,0.903829,99851.41,-42,-174,-55
103794,8.950,-5.226,2.179,-0.313599,-0.378412,0.972471,99848.02,-39,-174,-55
103803,8.791,-5.353,2.218,-0.403525,-0.383201,1.025682,99848.86,-36,-175,-57
103814,8.582,-5.020,2.801,-0.492920,-0.408210,1.074104,99848.86,-31,-176,-58
103824,8.619,-4.951,2.726,-0.560498,-0.450779,1.141682,99852.04,-31,-176,-58
103829,8.771,-5.345,2.304,-0.576993,-0.483769,1.163499,99850.43,-28,-175,-61
103838,8.724,-5.617,2.246,-0.566883,-0.523145,1.188508,99850.43,-28,-175,-61
103848,8.492,-5.752,2.094,-0.616369,-0.555072,1.187976,99849.85,-23,-176,-63
103859,8.322,-5.960,1.685,-0.664259,-0.542301,1.164563,99847.98,-19,-177,-65
103869,8.405,-5.983,1.513,-0.694589,-0.536448,1.115609,99847.98,-14,-176,-68
103879,8.828,-6.201,1.339,-0.737690,-0.519953,1.052820,99849.66,-14,-176,-68
103889,9.239,-6.294,0.754,-0.801543,-0.519953,1.006526,99848.65,-11,-176,-70
103899,9.541,-6.022,1.328,-0.850497,-0.561457,0.978857,99846.30,-7,-175,-73
103909,10.014,-5.770,1.546,-0.872314,-0.623182,0.988967,99846.30,-3,-174,-76
103919,10.775,-5.887,1.934,-0.874442,-0.714173,1.037921,99846.30,-3,-174,-76
103928,11.403,-5.916,2.986,-0.820699,-0.837622,1.110820,99850.22,+1,-173,-78
103939,11.654,-6.337,2.779,-0.831341,-0.904668,1.205535,99846.89,+5,-172,-80
103949,11.829,-6.555,2.221,-0.953195,-0.952026,1.323132,99850.17,+11,-171,-84
103959,11.987,-6.069,2.548,-1.138901,-1.002576,1.390177,99849.03,+11,-171,-84
103969,12.903,-5.755,2.284,-1.308112,-1.026521,1.399755,99849.03,+17,-170,-87
103979,14.201,-5.686,2.416,-1.481048,-1.028650,1.414654,99847.74,+24,-168,-92
103989,15.602,-5.357,3.114,-1.639616,-1.029714,1.517352,99847.59,+30,-165,-96
103999,16.879,-4.998,3.558,-1.738056,-0.988742,1.614728,99849.74,+36,-162,-100
104009,17.436,-4.449,4.904,-1.836497,-0.805164,1.808948,99849.74,+36,-162,-100
104019,15.833,-3.492,5.437,-1.871084,-0.782815,2.176103,99846.66,+44,-158,-106
104029,12.816,-3.455,3.945,-1.855121,-0.971714,2.535278,99846.66,+53,-153,-110
104039,10.644,-5.726,2.451,-1.651323,-1.098888,2.708213,99846.81,+63,-149,-114
104049,9.363,-8.557,2.268,-1.275653,-1.166466,2.814635,99844.83,+63,-149,-114
104058,10.334,-8.892,2.610,-0.845708,-1.091971,2.714067,99849.31,+73,-145,-115
104069,10.809,-7.021,3.329,-0.835598,-0.969586,2.490048,99849.31,+81,-143,-117
104079,10.079,-6.524,2.867,-1.018644,-0.902008,2.422470,99849.49,+89,-140,-119
104089,8.509,-5.917,2.268,-1.093139,-0.867953,2.356489,99847.87,+89,-140,-119
104099,7.045,-5.085,2.199,-1.065470,-0.714173,2.150030,99848.55,+97,-135,-121
104109,6.097,-4.319,3.011,-0.993103,-0.522081,1.884507,99845.59,+102,-131,-123
104119,5.716,-2.917,2.178,-0.952130,-0.430026,1.557792,99848.16,+107,-127,-125
104129,4.957,-1.579,1.246,-1.026094,-0.365641,1.201810,99847.22,+107,-127,-125
104139,3.337,-3.340,0.918,-1.217653,-0.119274,1.011847,99849.50,+110,-124,-128
104148,3.570,-2.781,1.938,-0.936699,-0.063935,0.837315,99849.50,+112,-120,-130
104159,4.694,0.772,1.487,-0.541874,-0.029880,0.120563,99846.06,+113,-119,-131
104169,4.404,3.896,0.412,-0.662663,0.216487,-0.557344,99846.06,+113,-119,-131
104179,3.965,3.254,-0.204,-0.657874,0.374524,-0.737730,99847.03,+109,-117,-133
104184,3.466,2.235,-0.619,-0.290718,0.356964,-0.860647,99844.27,+106,-117,-133
104194,3.240,1.966,-0.586,0.224896,0.301093,-1.069766,99847.92,+106,-117,-133
104204,3.198,1.182,-0.560,0.816070,0.265441,-1.383179,99845.00,+103,-119,-133
104214,3.163,0.273,-0.066,1.213024,0.280872,-1.696059,99845.00,+99,-123,-129
104224,3.437,-0.206,0.369,1.472162,0.336212,-2.000958,99847.92,+99,-123,-129
104233,3.879,-0.564,0.618,1.629134,0.403258,-2.319160,99845.98,+92,-127,-125
104244,4.419,-0.829,0.708,1.774400,0.449551,-2.616609,99844.27,+84,-132,-123
104254,5.032,-1.165,0.610,1.909024,0.488395,-2.872022,99843.86,+77,-138,-117
104264,5.642,-1.754,0.476,2.022895,0.532028,-3.101361,99843.86,+68,-138,-112
104273,6.232,-2.709,0.329,2.094198,0.594285,-3.314205,99844.61,+68,-143,-112
104284,6.672,-3.825,0.278,2.096326,0.682615,-3.532902,99844.30,+56,-148,-108
104294,7.238,-4.727,0.210,2.046840,0.782652,-3.722333,99844.09,+46,-152,-103
104304,8.109,-5.135,0.253,1.995226,0.877367,-3.883030,99841.39,+33,-156,-98
104313,9.195,-5.286,0.584,2.004803,0.949734,-3.999562,99841.39,+33,-156,-98
104324,10.164,-5.753,0.805,2.085684,0.953459,-4.090553,99848.56,+21,-159,-93
104334,10.939,-6.413,1.236,2.188381,0.935367,-4.174094,99849.14,+8,-162,-87
104344,11.589,-6.974,1.752,2.280436,0.918872,-4.225177,99844.97,-5,-163,-80
104354,12.084,-7.465,2.336,2.360785,0.889606,-4.244865,99846.91,-5,-163,-80
104364,12.494,-8.010,2.574,2.450179,0.849698,-4.233159,99846.91,-18,-164,-74
104374,12.603,-8.578,2.552,2.562987,0.793294,-4.168241,99847.42,-31,-164,-66
104384,12.642,-9.009,2.389,2.729005,0.717202,-4.057562,99848.05,-44,-164,-58
104394,12.848,-9.437,2.398,2.922693,0.620358,-3.917618,99845.64,-44,-164,-58
104403,13.064,-10.146,2.420,3.091372,0.493716,-3.744150,99846.42,-56,-163,-50
104414,13.191,-10.904,2.454,3.177573,0.367074,-3.529710,99846.42,-66,-163,-42
104420,13.182,-11.347,2.498,3.162674,0.284597,-3.345599,99848.23,-66,-163,-42
104429,12.922,-11.597,2.238,3.030711,0.215955,-3.155636,99848.23,-75,-161,-33
104439,12.290,-11.970,2.167,2.725280,0.157955,-2.916187,99847.04,-84,-160,-26
104450,11.382,-12.183,2.190,2.470932,0.096230,-2.699086,99847.98,-84,-160,-26
104459,10.348,-11.855,2.360,2.329922,0.057918,-2.494224,99846.88,-91,-156,-20
104469,9.486,-11.141,2.515,2.243721,0.071221,-2.268077,99850.87,-98,-154,-15
104479,8.846,-10.552,2.486,2.180400,0.073882,-1.940830,99849.04,-103,-152,-9
104489,8.427,-9.985,2.105,2.147409,0.025460,-1.586977,99847.43,-107,-152,-4
104499,8.430,-9.517,1.363,2.139427,-0.061274,-1.285270,99847.43,-107,-150,-4
104509,8.210,-9.152,0.992,2.128253,-0.143219,-1.040500,99848.99,-110,-149,+0
104519,7.917,-8.928,1.024,2.153262,-0.223568,-0.768592,99848.99,-112,-149,+5
104529,7.361,-8.826,1.095,2.153794,-0.314026,-0.489766,99849.66,-114,-148,+9
104539,6.897,-8.626,0.594,2.092602,-0.378412,-0.240739,99849.59,-114,-148,+9
104549,6.761,-8.143,0.083,1.970216,-0.408742,-0.023106,99850.48,-114,-148,+14
104559,6.814,-7.387,-0.178,1.824950,-0.419384,0.155151,99846.06,-113,-148,+17
104569,7.038,-6.735,0.061,1.670639,-0.409806,0.321701,99846.06,-112,-150,+19
104580,7.383,-6.111,0.735,1.638180,-0.409806,0.471756,99850.98,-112,-150,+19
104589,6.845,-6.415,1.098,1.668510,-0.426834,0.664380,99848.05,-111,-151,+23
104599,6.605,-6.269,1.889,1.812180,-0.474191,0.899572,99846.33,-109,-153,+28
104609,8.108,-5.595,2.572,1.853152,-0.346485,0.948526,99846.33,-106,-155,+31
104619,7.704,-5.291,3.537,1.842510,-0.236338,0.889462,99846.33,-106,-155,+31
104629,11.319,-2.141,4.416,1.831868,-0.273586,0.897444,99850.38,-105,-156,+36
104639,15.954,2.106,0.245,1.382767,-0.420448,0.906490,99849.18,-102,-158,+38
104649,10.872,-0.230,-3.728,-0.042755,-0.226760,1.084214,99847.41,-100,-160,+37
104659,8.982,-8.129,-1.917,-0.596681,0.194138,1.295462,99851.52,-100,-160,+37
104669,12.595,-11.029,6.655,-0.223672,0.575129,1.500856,99851.52,-95,-163,+38
104679,13.416,-11.235,5.698,0.289814,0.363349,1.513627,99849.30,-91,-166,+38
104689,10.792,-7.054,0.216,0.231282,0.028652,1.380067,99847.58,-86,-168,+39
104699,9.409,-2.541,-1.929,0.041851,0.102616,1.101242,99849.25,-86,-168,+39
104710,8.676,-0.881,0.507,0.109429,0.414964,1.027279,99849.25,-84,-170,+41
104719,8.604,-1.569,3.003,0.340896,0.408047,1.074636,99849.49,-80,-170,+41
104729,8.920,-2.365,3.973,0.518089,0.199460,1.119334,99849.49,-77,-173,+43
104739,8.846,-3.450,2.930,0.569704,0.071221,1.056545,99849.49,-77,-173,+43
104750,9.176,-4.856,2.428,0.334511,0.096762,0.899572,99848.35,-74,-174,+46
104759,9.506,-4.949,2.870,0.073777,0.148377,0.647884,99847.68,-72,-175,+45
104769,9.426,-3.942,2.537,-0.134810,0.170726,0.362141,99847.68,-72,-176,+46
104779,9.196,-2.633,1.389,-0.292314,0.195203,0.199848,99849.08,-72,-176,+46
104790,9.321,-2.003,1.641,-0.362553,0.268102,0.164729,99849.61,-71,-177,+44
104800,9.603,-1.664,2.618,-0.354039,0.332487,0.177499,99845.13,-70,-177,+43
104809,9.729,-1.439,2.428,-0.343397,0.344193,0.219004,99847.73,-70,-177,+43
104819,9.389,-1.386,2.000,-0.332755,0.361221,0.301481,99850.55,-70,-177,+43
104829,9.680,-1.190,2.800,-0.232718,0.342065,0.361077,99848.52,-68,-179,+43
104840,9.473,-1.229,3.017,-0.111397,0.289386,0.445682,99848.31,-67,-179,+43
104849,9.299,-1.789,3.776,-0.053929,0.248414,0.535077,99848.31,-65,-179,+43
104859,9.198,-2.132,3.712,-0.074681,0.178175,0.585095,99846.17,-65,-179,+43
104869,8.977,-2.665,2.630,-0.167268,0.136671,0.606380,99846.17,-63,-180,+42
104880,8.834,-3.149,1.341,-0.293911,0.123368,0.612765,99849.76,-62,-181,+42
104889,9.198,-2.777,1.083,-0.344461,0.140395,0.569664,99851.26,-59,-183,+42
104899,9.451,-2.197,0.817,-0.325305,0.162744,0.566471,99850.16,-59,-183,+42
104909,9.590,-1.748,1.672,-0.315727,0.164340,0.625004,99848.09,-58,-182,+41
104920,9.438,-1.703,1.804,-0.167268,0.112726,0.728233,99848.09,-56,-183,+41
104930,9.236,-2.254,2.272,0.009392,0.044616,0.825077,99851.26,-53,-184,+41
104939,9.113,-2.790,2.665,0.136034,-0.014981,0.872435,99847.90,-53,-184,+41
104949,9.096,-3.403,2.246,0.153594,-0.049036,0.864985,99845.79,-51,-186,+41
104960,8.862,-3.900,2.190,0.072713,-0.050100,0.798471,99845.79,-48,-187,+42
104969,8.811,-3.978,2.225,-0.033177,-0.018173,0.700031,99845.79,-46,-187,+41
104979,8.934,-3.480,1.951,-0.131617,0.004707,0.618618,99852.67,-46,-187,+41
104989,9.109,-3.032,1.792,-0.179507,0.014285,0.594141,99847.83,-44,-188,+42
104999,9.102,-2.893,2.067,-0.127360,-0.005935,0.619150,99848.41,-42,-188,+41
105010,9.199,-2.894,2.266,-0.003379,-0.044247,0.661719,99847.94,-40,-190,+41
105019,9.059,-3.286,2.543,0.096126,-0.076705,0.691517,99847.94,-38,-190,+41
105029,8.974,-3.552,2.564,0.148273,-0.104907,0.690985,99852.39,-38,-190,+41
105039,8.843,-4.011,2.242,0.131245,-0.116082,0.657462,99848.64,-36,-190,+41
105050,8.798,-4.228,1.736,0.078566,-0.109696,0.589352,99849.22,-34,-192,+41
105060,8.847,-4.181,1.610,-0.011892,-0.071384,0.498361,99848.25,-32,-192,+41
105069,8.904,-3.759,1.720,-0.054461,-0.043715,0.440361,99849.61,-32,-192,+41
105079,8.830,-3.516,1.851,-0.011360,-0.053293,0.436637,99851.17,-31,-192,+41
105090,8.769,-3.553,1.839,0.079630,-0.084687,0.451536,99851.17,-29,-193,+42
105099,8.792,-3.693,1.908,0.125924,-0.097990,0.456857,99848.92,-28,-194,+41
105109,8.835,-3.929,2.169,0.150401,-0.120870,0.447811,99847.73,-28,-194,+41
105119,8.967,-3.895,2.329,0.186052,-0.147476,0.421205,99847.73,-27,-194,+41
105129,9.166,-3.792,2.274,0.218688,-0.186497,0.400098,99849.00,-25,-194,+42
105139,9.220,-3.723,2.176,0.282364,-0.228357,0.383426,99849.00,-24,-194,+42
105149,8.961,-3.850,2.074,0.293539,-0.258687,0.398325,99848.61,-24,-194,+42
105159,8.809,-3.998,2.308,0.281832,-0.276779,0.413224,99848.97,-23,-194,+44
105169,8.791,-4.023,2.601,0.266401,-0.295935,0.411095,99848.69,-22,-195,+44
105180,8.765,-4.059,2.493,0.209997,-0.308705,0.414288,99849.63,-20,-195,+44
105190,8.709,-4.113,2.353,0.148273,-0.318283,0.419609,99847.23,-20,-195,+44
105199,8.782,-4.022,2.431,0.108896,-0.332650,0.419077,99845.72,-19,-196,+46
105209,8.876,-3.904,2.464,0.096658,-0.359256,0.429187,99845.72,-17,-196,+45
105220,8.678,-4.008,2.127,0.095062,-0.384797,0.449939,99845.72,-16,-197,+44
105229,8.449,-4.155,2.026,0.106768,-0.397035,0.461646,99851.20,-16,-197,+44
105239,8.255,-4.309,2.003,0.103575,-0.403953,0.454728,99848.80,-15,-197,+44
105245,8.135,-4.325,1.928,0.094530,-0.410338,0.452600,99848.34,-14,-197,+45
105254,8.170,-4.317,2.069,0.091337,-0.416191,0.442490,99847.49,-14,-197,+45
105265,8.216,-4.366,2.231,0.092933,-0.433219,0.427059,99847.49,-12,-197,+46
105274,8.161,-4.439,2.208,0.104640,-0.452907,0.417481,99849.39,-11,-198,+44
105284,8.024,-4.669,2.318,0.120071,-0.455035,0.395664,99847.41,-10,-197,+46
105294,7.902,-4.890,2.067,0.113153,-0.445990,0.362673,99845.75,-10,-197,+46
105305,7.941,-5.030,1.637,0.061007,-0.420980,0.321169,99849.44,-9,-198,+45
105314,8.212,-4.928,1.495,0.012585,-0.394375,0.268490,99849.44,-8,-198,+44
105324,8.451,-4.622,1.343,-0.014553,-0.376283,0.228582,99848.56,-7,-198,+44
105334,8.503,-4.464,1.447,-0.009232,-0.368834,0.216343,99850.84,-7,-198,+44
105345,8.338,-4.423,1.662,0.037594,-0.372026,0.208894,99851.06,-7,-199,+44
105355,8.106,-4.548,1.671,0.090273,-0.378412,0.203040,99848.25,-6,-199,+44
105365,8.010,-4.798,1.824,0.106945,-0.370962,0.181579,99848.25,-6,-199,+44
105374,8.164,-4.775,1.782,0.106768,-0.371494,0.149297,99847.48,-6,-199,+44
105384,8.340,-4.697,1.703,0.103575,-0.373623,0.139719,99848.52,-5,-199,+44
105395,8.506,-4.685,1.689,0.102511,-0.382668,0.149829,99849.73,-5,-199,+44
105404,8.497,-4.752,1.517,0.093997,-0.405549,0.153022,99846.91,-4,-198,+44
105414,8.447,-4.800,1.171,0.080163,-0.418320,0.155683,99846.91,-4,-198,+44
105424,8.466,-4.809,1.104,0.075906,-0.423641,0.144508,99851.59,-5,-198,+44
105435,8.410,-4.842,0.937,0.073777,-0.439072,0.133866,99850.12,-4,-199,+45
105445,8.477,-4.921,0.869,0.059410,-0.443329,0.130141,99847.93,-3,-199,+44
105454,8.458,-4.791,0.973,0.024291,-0.442265,0.126949,99846.59,-3,-199,+44
105464,8.806,-4.127,1.571,0.026952,-0.439604,0.132802,99846.59,-3,-199,+44
105475,9.236,-4.414,1.288,-0.026792,-0.407146,0.157279,99848.78,-3,-199,+43
105485,9.202,-4.836,0.652,-0.043819,-0.430026,0.177499,99851.39,-2,-199,+43
105494,8.811,-4.757,1.016,-0.029984,-0.440668,0.191334,99849.14,-2,-199,+43
