160032,9.273,-1.266,3.055,-0.081589,0.040955,-0.024332,100273.52,-64,+207,-30
160043,9.236,-1.200,3.061,-0.035296,0.028184,-0.009433,100276.13,-65,+209,-29
160052,9.202,-1.183,2.993,0.003016,0.027652,-0.001984,100274.83,-66,+209,-29
160062,9.275,-1.317,2.971,0.019512,0.026056,0.000677,100274.83,-66,+209,-29
160072,9.248,-1.391,2.973,0.013126,0.027120,-0.002516,100277.17,-65,+207,-29
160081,9.318,-1.450,2.948,-0.004433,0.029780,-0.001984,100272.25,-66,+208,-29
160092,9.245,-1.390,2.991,-0.019864,0.030845,-0.005176,100272.25,-66,+208,-28
160102,9.260,-1.364,3.046,-0.023589,0.030313,-0.006773,100275.58,-66,+208,-28
160112,9.267,-1.279,3.070,-0.024653,0.029780,-0.008369,100272.81,-66,+207,-29
160122,9.217,-1.242,3.118,-0.029442,0.031377,-0.008901,100273.06,-65,+207,-29
160132,9.205,-1.335,3.084,-0.039552,0.035102,-0.012626,100271.61,-65,+207,-28
160142,9.248,-1.396,3.108,-0.057644,0.037230,-0.018479,100271.61,-65,+207,-28
160152,9.227,-1.342,3.191,-0.070947,0.037762,-0.018479,100276.40,-65,+207,-28
160162,9.244,-1.258,3.147,-0.069883,0.036698,-0.021140,100273.68,-65,+207,-28
160173,9.220,-1.278,3.058,-0.052855,0.031909,-0.019011,100272.48,-65,+207,-28
160182,9.278,-1.295,3.073,-0.044873,0.032973,-0.017947,100272.48,-65,+207,-28
160192,9.263,-1.274,3.110,-0.048066,0.037230,-0.017947,100272.48,-65,+208,-27
160202,9.223,-1.286,3.092,-0.047534,0.038294,-0.017415,100274.79,-65,+208,-28
160211,9.215,-1.300,3.130,-0.041149,0.038826,-0.019543,100274.32,-64,+207,-28
160218,9.230,-1.284,3.104,-0.037424,0.035634,-0.018479,100269.02,-64,+207,-28
160227,9.209,-1.289,3.121,-0.034231,0.035102,-0.020075,100275.15,-65,+207,-26
160237,9.255,-1.324,3.112,-0.032635,0.034037,-0.020608,100275.15,-66,+207,-26
160247,9.229,-1.347,3.073,-0.030507,0.032441,-0.020608,100273.78,-66,+207,-26
160257,9.200,-1.319,3.087,-0.039020,0.033505,-0.020075,100276.25,-64,+207,-26
160267,9.234,-1.372,3.109,-0.052323,0.035634,-0.021140,100273.73,-63,+207,-26
160277,9.268,-1.336,3.093,-0.067754,0.036698,-0.023268,100272.63,-64,+208,-26
160287,9.255,-1.313,3.093,-0.075204,0.037762,-0.024332,100272.63,-64,+208,-26
160297,9.220,-1.188,3.103,-0.064562,0.033505,-0.017947,100278.07,-64,+207,-26
160307,9.208,-1.159,3.086,-0.033699,0.026056,-0.006773,100276.38,-64,+207,-25
160317,9.279,-1.234,3.096,-0.007094,0.024459,-0.001984,100278.32,-64,+208,-26
160327,9.260,-1.260,3.080,0.004081,0.023927,0.003337,100273.51,-64,+208,-26
160337,9.234,-1.262,3.069,0.011530,0.023927,0.007062,100273.51,-64,+207,-25
160347,9.248,-1.281,3.073,0.012062,0.022863,0.008659,100276.32,-64,+207,-26
160357,9.223,-1.310,3.135,0.013659,0.022331,0.012915,100275.85,-64,+207,-26
160367,9.211,-1.319,3.124,0.013126,0.023395,0.011851,100272.87,-64,+207,-26
160377,9.240,-1.384,3.103,0.005145,0.022863,0.009191,100274.70,-64,+208,-26
160387,9.231,-1.383,3.145,-0.003901,0.025524,0.008126,100274.70,-63,+206,-26
160397,9.207,-1.339,3.114,-0.008690,0.026056,0.005466,100274.73,-64,+207,-26
160407,9.230,-1.262,3.122,-0.003369,0.027652,0.004402,100274.62,-64,+207,-26
160417,9.230,-1.261,3.108,0.006209,0.027652,0.003870,100276.40,-64,+207,-25
160428,9.220,-1.347,3.104,0.010466,0.024991,0.006530,100270.90,-64,+207,-25
160437,9.223,-1.347,3.169,0.014191,0.023927,0.005466,100270.90,-64,+207,-26
160447,9.171,-1.303,3.159,0.021640,0.021267,0.005998,100276.20,-64,+207,-26
160453,9.177,-1.288,3.123,0.032815,0.019670,0.005998,100275.09,-64,+207,-26
160462,9.220,-1.321,3.122,0.038136,0.020735,0.007594,100275.09,-64,+207,-25
160473,9.233,-1.382,3.154,0.042925,0.018606,0.004934,100274.88,-64,+207,-25
160482,9.227,-1.380,3.062,0.034411,0.018606,0.002273,100270.43,-64,+208,-24
160492,9.255,-1.444,3.100,0.020576,0.019670,0.001209,100270.43,-64,+207,-25
160502,9.245,-1.412,3.136,0.009402,0.021799,-0.001984,100271.14,-64,+207,-25
160513,9.248,-1.291,3.181,0.006209,0.019670,-0.001452,100275.48,-64,+207,-25
160523,9.211,-1.334,3.114,0.004081,0.020735,0.000145,100274.22,-64,+207,-25
160532,9.195,-1.407,3.143,-0.000176,0.019138,-0.003048,100274.22,-64,+207,-25
160542,9.300,-1.358,3.130,-0.002305,0.019138,-0.001984,100274.22,-64,+207,-25
160552,9.203,-1.274,3.136,0.002484,0.020202,-0.001984,100272.80,-64,+207,-25
160562,9.123,-1.267,3.184,0.007273,0.020202,0.002805,100271.60,-64,+207,-25
160572,9.219,-1.319,3.208,0.010998,0.020202,0.001209,100270.93,-63,+207,-25
160582,9.226,-1.358,3.200,0.009934,0.020735,0.001209,100273.59,-63,+207,-25
160592,9.244,-1.280,3.240,0.004081,0.020202,0.000677,100273.59,-63,+207,-25
160603,9.195,-1.236,3.270,0.003016,0.020735,0.001741,100273.34,-64,+208,-25
160612,9.196,-1.188,3.279,0.005145,0.019138,0.002805,100274.50,-64,+207,-25
160622,9.236,-1.207,3.178,0.007805,0.013817,0.007594,100271.25,-63,+207,-25
160632,9.172,-1.279,3.218,0.009402,0.009560,0.010255,100271.25,-63,+207,-25
160643,9.240,-1.348,3.143,0.008870,0.008496,0.016108,100279.15,-63,+207,-25
160652,9.208,-1.430,3.124,-0.002305,0.013817,0.016108,100279.15,-63,+207,-25
160662,9.220,-1.418,3.120,-0.011883,0.012753,0.017704,100274.12,-63,+207,-25
160672,9.260,-1.300,3.179,-0.016140,0.013285,0.024090,100276.16,-63,+207,-25
160683,9.243,-1.176,3.226,-0.012415,0.013817,0.025686,100274.34,-63,+207,-25
160692,9.163,-1.106,3.246,0.007805,0.012753,0.033668,100274.34,-63,+207,-25
160702,9.175,-1.118,3.305,0.028026,0.007964,0.039521,100276.63,-64,+207,-25
160712,9.230,-1.189,3.272,0.037071,0.006900,0.044310,100275.90,-64,+207,-25
160722,9.215,-1.351,3.139,0.033347,0.003175,0.049099,100274.12,-63,+207,-25
160733,9.164,-1.383,3.017,0.022172,0.005303,0.050695,100272.24,-63,+207,-25
160742,9.043,-1.392,3.041,0.012062,0.013285,0.056548,100273.13,-64,+207,-25
160752,9.015,-1.540,2.833,-0.006029,0.024991,0.053888,100271.04,-64,+207,-25
160762,9.189,-1.711,2.678,-0.018800,0.031909,0.052292,100273.65,-64,+206,-25
160773,9.260,-1.633,2.811,-0.021993,0.038294,0.058677,100273.65,-64,+207,-25
160782,9.226,-1.448,2.905,-0.027314,0.048936,0.053356,100271.35,-65,+207,-24
160792,8.950,-1.086,3.221,-0.024653,0.035634,0.053356,100271.35,-64,+207,-24
160802,8.672,-1.021,3.363,-0.000708,0.013285,0.057081,100276.16,-64,+207,-24
160813,8.789,-1.595,3.425,0.060484,0.037762,0.039521,100272.44,-63,+207,-25
160823,9.134,-2.005,3.347,0.054099,0.063303,0.008659,100273.33,-65,+206,-24
160832,9.079,-1.810,3.206,-0.028910,0.088845,-0.024864,100272.59,-64,+206,-24
160842,8.754,-1.333,3.133,-0.084250,0.119175,-0.052002,100272.59,-64,+206,-24
160852,8.778,-0.747,3.273,-0.015607,0.136734,-0.058387,100273.48,-64,+205,-23
160863,8.936,-0.898,3.159,0.133383,0.146312,-0.075415,100274.20,-64,+205,-24
160872,9.294,-2.057,3.104,0.307383,0.139927,-0.113195,100272.33,-63,+207,-24
160882,9.823,-3.042,3.464,0.385603,0.107468,-0.169066,100272.33,-63,+207,-24
160892,10.032,-3.283,3.926,0.294613,0.079799,-0.261653,100272.33,-63,+207,-25
160903,9.637,-2.859,4.200,0.130723,0.044679,-0.359561,100273.24,-62,+209,-25
160912,9.190,-2.281,4.287,-0.019332,0.005303,-0.434057,100274.34,-60,+209,-25
160922,9.199,-1.898,4.087,-0.137461,-0.020238,-0.489396,100272.04,-60,+209,-25
160932,9.385,-1.388,3.881,-0.263038,-0.039926,-0.508020,100272.15,-59,+211,-24
160943,9.351,-0.571,3.837,-0.402451,-0.053761,-0.483543,100272.15,-57,+213,-23
160953,9.154,0.522,3.760,-0.508873,-0.066531,-0.415965,100272.94,-57,+212,-21
160962,8.971,1.332,3.486,-0.531222,-0.064403,-0.307947,100274.56,-57,+212,-21
160972,9.066,1.411,3.384,-0.442359,-0.058018,-0.173323,100270.88,-56,+211,-21
160983,9.328,1.072,3.301,-0.305607,-0.061210,-0.025396,100270.88,-56,+211,-20
160993,9.402,0.396,3.190,-0.186947,-0.059082,0.100181,100275.25,-57,+211,-20
161002,9.321,-0.107,3.185,-0.120965,-0.059082,0.202879,100275.25,-57,+211,-20
161012,9.202,-0.407,3.272,-0.090103,-0.054293,0.276310,100275.05,-57,+210,-20
161022,9.153,-0.503,3.297,-0.058176,-0.054293,0.336438,100273.73,-58,+211,-20
161033,9.177,-0.702,3.230,-0.003901,-0.061742,0.389117,100274.36,-59,+209,-20
161043,9.215,-0.971,3.207,0.075738,-0.076464,0.426010,100274.64,-59,+209,-20
161052,9.245,-1.330,3.033,0.114227,-0.084623,0.444989,100274.64,-61,+208,-20
161062,9.311,-1.888,2.951,0.097200,-0.087284,0.448713,100276.89,-62,+207,-21
161073,9.327,-1.953,2.930,0.040796,-0.080366,0.442860,100274.06,-63,+206,-21
161083,9.345,-1.688,2.997,-0.032635,-0.071853,0.432218,100274.27,-63,+206,-21
161092,9.140,-1.185,3.031,-0.076800,-0.061210,0.448713,100276.37,-64,+205,-21
161102,9.005,-0.793,3.122,-0.060305,-0.052697,0.475851,100276.74,-65,+203,-21
161113,8.941,-0.921,3.286,0.018980,-0.051100,0.501924,100276.16,-67,+203,-21
161122,9.158,-1.448,3.084,0.085493,-0.048972,0.522144,100276.16,-67,+203,-21
161132,9.171,-1.922,3.165,0.092411,-0.044183,0.525869,100271.18,-69,+201,-21
161142,9.045,-1.930,3.190,0.049842,-0.038330,0.521612,100271.18,-70,+200,-21
161153,9.001,-1.913,3.021,-0.001240,-0.021302,0.508842,100275.96,-71,+199,-22
161163,8.970,-2.307,3.078,-0.019864,-0.009064,0.489154,100277.63,-71,+199,-22
161172,9.068,-2.288,3.120,-0.016140,-0.011724,0.458291,100269.82,-72,+198,-22
161182,9.202,-2.318,3.090,-0.034231,-0.006935,0.426897,100271.98,-73,+197,-21
161192,9.240,-2.400,3.209,-0.052855,0.001046,0.413062,100271.98,-75,+195,-21
161203,9.069,-2.203,3.093,-0.111919,-0.005871,0.395502,100271.63,-75,+195,-21
161213,9.100,-1.884,3.025,-0.178433,0.014349,0.404016,100273.61,-75,+195,-19
161222,9.516,-1.383,3.197,-0.233772,0.026056,0.429557,100274.39,-77,+193,-21
161232,9.800,-1.014,3.334,-0.241222,0.029780,0.500860,100274.39,-78,+191,-19
161243,9.756,-1.082,3.382,-0.239626,0.029248,0.597704,100274.39,-78,+191,-19
161253,9.822,-1.130,3.313,-0.272616,0.039890,0.709979,100274.16,-79,+189,-18
161262,9.802,-1.040,3.506,-0.335938,0.052129,0.825979,100276.04,-81,+187,-18
161272,9.668,-1.030,3.556,-0.425864,0.055322,0.948364,100274.74,-83,+183,-17
161277,9.802,-0.996,3.645,-0.529093,0.065432,1.056383,100269.29,-83,+183,-17
161288,10.377,-1.299,3.639,-0.675424,0.084056,1.172915,100269.29,-86,+180,-15
161298,11.628,-1.406,3.412,-0.888800,0.110661,1.334676,100273.52,-89,+175,-13
161307,12.633,-0.638,4.374,-1.068653,0.101083,1.508676,100274.62,-89,+175,-13
161317,13.554,0.564,5.605,-1.202212,0.026056,1.714070,100275.30,-92,+169,-10
161328,14.648,1.593,6.450,-1.312891,-0.060678,1.988639,100272.59,-97,+162,-8
161338,16.356,0.207,5.751,-1.374616,-0.110697,2.225960,100272.59,-103,+154,-5
161347,21.006,-1.973,3.829,-1.470396,-0.135706,2.320143,100274.72,-103,+154,-5
161357,26.603,-4.123,2.671,-1.842340,-0.176678,2.344620,100271.09,-105,+143,-3
161368,27.614,-3.331,2.189,-2.303679,-0.310770,2.321208,100275.39,-110,+134,+0
161378,23.961,-0.264,3.007,-2.402120,-0.504458,2.172749,100273.56,-115,+124,+3
161387,18.856,1.489,3.233,-1.741771,-0.718898,1.935960,100273.56,-115,+124,+3
161397,12.841,-0.535,4.506,-0.431717,-0.913118,1.660327,100271.94,-118,+117,+2
161408,8.362,-3.173,5.754,1.015621,-1.007301,1.433116,100275.13,-122,+113,-1
161418,6.006,-7.409,5.961,1.868061,-0.989742,1.354364,100275.19,-125,+113,-6
161428,5.077,-12.553,6.294,2.015988,-0.870549,1.292107,100269.80,-125,+113,-6
161437,5.884,-15.237,4.625,1.529107,-0.750293,1.240493,100269.80,-127,+111,-11
161447,5.813,-16.936,3.473,0.694759,-0.689100,1.192603,100272.89,-130,+109,-13
161458,5.766,-15.536,4.509,0.069530,-0.580549,1.229850,100272.73,-132,+105,-15
161468,6.803,-12.486,3.929,-0.208763,-0.509779,1.337337,100273.20,-132,+105,-15
161477,6.973,-10.921,2.882,-0.215149,-0.469339,1.341061,100269.06,-133,+101,-15
161487,5.579,-10.326,2.021,-0.137993,-0.473063,1.348511,100269.06,-136,+96,-16
161498,3.608,-9.582,1.383,-0.036360,-0.465614,1.472492,100271.38,-139,+91,-16
161508,2.319,-8.970,0.959,0.066337,-0.431027,1.603924,100269.23,-140,+86,-18
161517,1.604,-8.052,0.794,0.187658,-0.388990,1.660859,100272.79,-140,+86,-18
161527,1.237,-6.963,0.807,0.330264,-0.336843,1.670437,100270.96,-142,+81,-20
161538,1.116,-5.927,0.715,0.468080,-0.294807,1.680547,100270.96,-144,+76,-20
161548,0.969,-4.956,0.662,0.575566,-0.284696,1.688529,100272.99,-145,+70,-22
161558,0.673,-4.061,0.491,0.674007,-0.286293,1.680015,100273.73,-145,+70,-22
161567,0.229,-3.301,0.285,0.763401,-0.277247,1.638511,100272.37,-146,+66,-23
161577,-0.037,-3.005,0.145,0.819273,-0.247981,1.564015,100270.01,-149,+62,-23
161588,-0.102,-2.922,0.112,0.825126,-0.208073,1.458658,100270.01,-149,+58,-25
161598,-0.159,-2.854,-0.020,0.742649,-0.168164,1.350107,100272.55,-149,+58,-25
161607,-0.288,-2.591,-0.169,0.595255,-0.131449,1.249539,100274.71,-150,+56,-26
161617,-0.491,-2.300,-0.256,0.426576,-0.092073,1.146841,100271.77,-152,+51,-26
161628,-0.730,-2.004,-0.280,0.248851,-0.057486,1.022860,100271.30,-152,+48,-26
161633,-0.816,-1.782,-0.308,0.122209,-0.032476,0.928676,100271.30,-152,+48,-26
161642,-0.830,-1.640,-0.368,0.003549,-0.016513,0.824383,100271.30,-152,+45,-26
161653,-0.838,-1.404,-0.402,-0.158745,-0.003210,0.667942,100271.16,-152,+45,-26
161662,-0.837,-0.990,-0.490,-0.334873,-0.005871,0.490218,100274.36,-153,+42,-26
161673,-0.816,-0.484,-0.569,-0.466837,-0.027687,0.318346,100271.84,-154,+40,-26
161683,-0.790,-0.104,-0.448,-0.514194,-0.063339,0.162438,100271.84,-154,+39,-25
161693,-0.792,-0.119,-0.353,-0.503020,-0.095797,-0.012094,100274.12,-154,+39,-25
161702,-0.637,-0.256,-0.304,-0.476947,-0.129853,-0.224938,100271.96,-154,+39,-26
161713,-0.336,-0.557,-0.198,-0.455130,-0.166568,-0.450552,100271.96,-153,+39,-26
161723,0.089,-0.904,-0.073,-0.402983,-0.205412,-0.675635,100271.49,-155,+41,-26
161732,0.572,-1.322,0.226,-0.314121,-0.243724,-0.888479,100273.27,-153,+41,-27
161742,1.106,-1.895,0.639,-0.204506,-0.286293,-1.071524,100273.27,-153,+45,-27
161753,1.536,-2.357,0.981,-0.065626,-0.320880,-1.227432,100276.71,-153,+48,-29
161763,1.968,-2.675,1.321,0.100392,-0.331522,-1.384937,100273.52,-154,+53,-30
161773,2.454,-3.060,1.696,0.294613,-0.341100,-1.524882,100272.63,-152,+58,-31
161782,3.084,-4.028,1.921,0.467548,-0.354935,-1.685579,100273.04,-152,+58,-31
161793,3.848,-5.117,2.006,0.583016,-0.332586,-1.939927,100273.70,-152,+66,-33
161803,4.700,-5.800,1.772,0.481915,-0.303320,-2.211835,100270.35,-151,+74,-35
161813,5.492,-5.946,1.700,0.326539,-0.295339,-2.445964,100275.95,-149,+83,-36
161823,6.606,-5.388,1.895,0.298337,-0.247981,-2.629542,100272.02,-149,+83,-36
161832,8.168,-4.841,2.361,0.372833,-0.236807,-2.691798,100272.02,-146,+93,-38
161843,10.125,-5.431,2.618,0.664961,-0.280972,-2.625285,100272.02,-143,+101,-39
161853,11.699,-7.101,2.849,1.089052,-0.322476,-2.586973,100275.94,-140,+112,-43
161862,12.516,-9.602,3.097,1.269438,-0.362384,-2.543340,100272.11,-140,+112,-43
161872,12.967,-11.374,3.327,1.161419,-0.349614,-2.500771,100272.53,-138,+121,-45
161883,13.448,-11.333,4.142,0.925163,-0.267137,-2.476294,100272.22,-133,+131,-48
161893,13.215,-10.008,4.479,0.717108,-0.163908,-2.432129,100272.22,-129,+139,-50
161903,12.662,-9.400,4.861,0.679328,-0.003210,-2.302294,100278.29,-129,+139,-50
161913,11.168,-13.336,7.788,0.927823,0.266037,-1.992606,100272.79,-126,+146,-51
161923,12.422,-15.345,9.121,1.137474,0.904569,-1.437084,100271.05,-122,+152,-51
161933,19.352,-6.585,3.343,-0.031571,1.008862,-1.385469,100271.05,-119,+156,-48
161943,20.885,6.645,4.497,-1.271387,1.142422,-1.913854,100277.47,-119,+156,-48
161952,24.349,12.444,2.553,-1.408139,1.054624,-2.237377,100277.47,-113,+160,-41
161963,37.680,-0.677,-0.930,-0.649350,0.631597,-1.430698,100272.77,-109,+166,-40
161973,34.586,-0.387,-0.114,0.703273,0.006368,-0.228130,100272.28,-109,+167,-41
161983,10.791,1.410,2.299,1.044355,-0.131449,-0.813451,100271.08,-109,+167,-41
161992,-1.328,-1.901,3.322,1.186428,0.028716,-0.545800,100271.08,-106,+170,-43
162002,0.527,-5.926,3.396,0.990080,0.161212,0.112952,100274.38,-107,+172,-45
162013,6.365,-6.778,4.211,0.309512,0.333615,-0.127562,100275.00,-106,+172,-44
162023,8.167,-5.793,4.305,-0.342323,0.370863,-0.381910,100270.81,-106,+172,-44
162033,8.118,-4.528,3.868,-0.664781,0.317120,-0.418094,100269.74,-105,+173,-42
162043,8.237,-2.816,3.307,-0.636047,0.253799,-0.471837,100277.34,-104,+174,-40
162053,8.865,-1.601,2.878,-0.333809,0.186221,-0.524515,100275.40,-101,+174,-40
162063,9.699,-1.418,2.455,0.137640,0.100019,-0.504295,100275.40,-101,+174,-40
162073,9.871,-2.193,2.230,0.593126,0.028716,-0.477158,100271.20,-102,+176,-40
162082,9.408,-3.283,2.103,0.802777,0.012753,-0.466515,100271.35,-100,+179,-41
162093,9.194,-4.016,1.948,0.762337,0.059046,-0.475561,100271.35,-99,+180,-43
162103,9.333,-3.981,2.084,0.572374,0.138863,-0.502167,100275.09,-99,+180,-43
162113,9.329,-2.943,2.759,0.379750,0.175578,-0.507488,100276.50,-98,+182,-44
162123,9.063,-1.431,3.726,0.306319,0.175046,-0.470772,100275.36,-96,+183,-43
162132,8.847,-0.604,4.236,0.352612,0.159083,-0.411708,100273.98,-95,+185,-45
162143,8.544,-0.768,3.998,0.446264,0.133010,-0.336681,100273.98,-95,+185,-45
162153,8.419,-1.366,3.456,0.483511,0.127689,-0.269103,100275.05,-94,+187,-45
162163,8.720,-2.003,2.991,0.407952,0.137799,-0.204717,100271.56,-93,+188,-46
162173,9.176,-2.459,2.736,0.265346,0.195267,-0.146718,100272.41,-92,+188,-46
162183,9.561,-2.277,2.908,0.107842,0.234643,-0.085525,100272.41,-92,+188,-46
162193,9.448,-1.363,3.470,-0.002305,0.239964,-0.008901,100272.41,-94,+189,-45
162203,9.376,-0.503,3.929,0.006741,0.229322,0.078365,100275.80,-92,+189,-43
162212,9.361,-0.474,3.999,0.132319,0.191542,0.172016,100277.21,-92,+187,-45
162223,9.580,-0.977,3.984,0.262686,0.139395,0.281099,100274.12,-93,+187,-44
162233,9.437,-1.615,4.274,0.279181,0.082991,0.361447,100273.91,-93,+187,-44
162243,9.572,-2.370,3.737,0.224374,0.049468,0.392842,100273.91,-94,+186,-45
162253,9.539,-2.989,3.486,0.147218,0.024459,0.418383,100274.60,-94,+186,-45
162263,9.172,-2.932,3.529,0.024301,0.004239,0.417851,100273.05,-96,+184,-45
162273,8.844,-2.722,3.550,-0.099149,0.004771,0.406677,100271.62,-96,+184,-45
162283,9.059,-2.697,3.357,-0.201314,0.006368,0.423172,100271.62,-98,+183,-45
162293,9.297,-2.756,3.418,-0.288580,0.003707,0.438603,100274.99,-98,+182,-44
162302,9.134,-2.566,3.515,-0.352965,-0.012256,0.459888,100274.99,-99,+180,-43
162313,9.051,-2.089,3.455,-0.367864,-0.028220,0.503521,100271.59,-99,+180,-43
162323,8.983,-2.294,3.481,-0.338066,-0.039926,0.558328,100274.26,-101,+178,-42
162333,8.841,-2.478,3.284,-0.304543,-0.065467,0.583337,100271.38,-102,+176,-41
162342,8.741,-2.440,3.120,-0.293901,-0.067064,0.592915,100271.38,-103,+174,-42
162353,8.810,-2.712,3.188,-0.279534,-0.061742,0.616328,100273.18,-103,+174,-42
162363,8.790,-2.781,3.232,-0.259314,-0.072385,0.631759,100276.23,-104,+172,-41
162373,8.611,-2.696,3.312,-0.239094,-0.088348,0.651979,100271.93,-106,+171,-41
162383,8.535,-2.894,3.249,-0.201846,-0.091541,0.672199,100272.54,-108,+168,-41
162393,8.634,-3.168,3.191,-0.181626,-0.095797,0.684970,100276.30,-108,+168,-41
162403,8.596,-3.052,3.187,-0.196525,-0.097926,0.698273,100274.52,-110,+166,-40
162413,8.713,-2.786,3.285,-0.189607,-0.098990,0.727007,100275.37,-112,+163,-40
162423,8.746,-2.839,3.334,-0.141185,-0.111229,0.757869,100275.37,-113,+160,-41
162433,8.686,-2.810,3.151,-0.079461,-0.132513,0.791924,100271.85,-113,+160,-41
162443,8.672,-3.301,3.121,-0.011883,-0.137302,0.817997,100271.85,-115,+159,-40
162453,8.738,-3.563,3.019,0.013126,-0.149008,0.841410,100273.16,-117,+155,-41
162463,8.695,-3.497,2.996,0.000888,-0.147412,0.865355,100274.47,-119,+154,-41
162473,8.758,-3.971,2.835,-0.006562,-0.141559,0.886108,100273.16,-119,+154,-41
162483,8.895,-4.394,2.577,-0.053387,-0.134109,0.894089,100274.20,-120,+151,-41
162493,8.865,-4.406,2.667,-0.140121,-0.115486,0.887704,100274.20,-123,+147,-41
162503,8.994,-4.395,2.620,-0.234837,-0.103247,0.890364,100275.44,-124,+145,-41
162513,8.995,-4.038,2.797,-0.287516,-0.103779,0.895685,100275.86,-124,+145,-41
162523,8.938,-3.902,3.017,-0.313057,-0.118678,0.909520,100272.92,-126,+141,-41
162533,8.780,-3.817,3.064,-0.321038,-0.137302,0.937190,100272.92,-128,+139,-40
162543,8.647,-3.912,3.226,-0.309864,-0.147944,0.968584,100272.92,-130,+135,-40
162553,8.669,-4.234,3.210,-0.323167,-0.158586,1.002108,100275.63,-130,+135,-40
162563,8.482,-4.491,3.018,-0.370525,-0.166036,1.031374,100274.58,-131,+131,-40
162573,8.535,-4.566,2.994,-0.440231,-0.154862,1.053722,100273.28,-133,+128,-40
162583,8.526,-4.519,2.912,-0.505148,-0.140495,1.073942,100268.61,-136,+124,-40
162593,8.890,-4.487,3.021,-0.549314,-0.131981,1.102676,100268.61,-136,+124,-40
162604,9.627,-5.029,2.866,-0.566341,-0.145284,1.129282,100276.55,-138,+119,-39
162613,10.193,-5.047,2.604,-0.594011,-0.168697,1.159080,100275.87,-139,+115,-38
162623,10.383,-5.636,1.896,-0.631258,-0.170293,1.158548,100272.88,-141,+111,-38
162633,10.977,-5.556,1.458,-0.667974,-0.210733,1.179832,100272.88,-141,+111,-38
162643,10.863,-5.057,1.439,-0.666378,-0.254366,1.212823,100274.21,-142,+107,-38
162653,10.894,-4.740,1.500,-0.599332,-0.313962,1.273484,100274.21,-145,+101,-38
162663,11.005,-4.573,1.912,-0.503552,-0.393247,1.344254,100271.43,-147,+96,-38
162673,11.404,-4.571,2.475,-0.413626,-0.472531,1.421942,100274.99,-150,+96,-38
162683,11.994,-4.578,3.110,-0.356158,-0.548091,1.495373,100274.57,-150,+91,-38
162694,12.846,-4.671,3.652,-0.347467,-0.625601,1.568982,100274.87,-150,+86,-40
162703,13.227,-4.706,3.746,-0.397662,-0.652916,1.622015,100274.87,-154,+80,-41
162713,13.013,-4.479,3.483,-0.528029,-0.639614,1.674694,100274.65,-156,+73,-43
162723,13.153,-4.129,3.158,-0.687130,-0.649724,1.723116,100274.38,-156,+73,-43
162734,13.895,-3.479,3.043,-0.842506,-0.647063,1.774731,100275.07,-157,+66,-43
162743,14.286,-3.055,3.097,-1.039919,-0.615137,1.814639,100277.67,-160,+59,-45
162753,14.606,-2.467,2.803,-1.257020,-0.572036,1.831134,100272.80,-162,+51,-46
162763,15.062,-1.243,2.730,-1.494873,-0.513504,1.824749,100267.83,-162,+51,-46
162772,14.735,-0.183,2.917,-1.668872,-0.464017,1.828474,100267.83,-163,+43,-46
162783,13.876,-0.200,3.325,-1.725276,-0.398036,1.869446,100270.81,-164,+35,-46
162793,13.095,-0.994,4.092,-1.659827,-0.330990,1.978529,100270.81,-166,+26,-46
162803,12.673,-3.577,4.772,-1.429955,-0.365045,2.211061,100276.62,-166,+26,-46
162813,13.481,-5.543,4.859,-1.031937,-0.431027,2.603226,100276.88,-166,+17,-47
162823,14.690,-5.174,5.313,-0.804726,-0.429430,2.901739,100269.91,-168,+6,-49
162833,14.356,-4.403,5.993,-0.781313,-0.452843,2.870877,100272.95,-168,-4,-50
162843,12.334,-3.928,5.812,-0.852616,-0.561394,2.701666,100272.95,-168,-4,-50
162853,10.772,-3.411,5.422,-0.714268,-0.652916,2.598969,100272.98,-166,-13,-51
162864,10.305,-2.688,5.285,-0.367864,-0.709320,2.477648,100272.33,-167,-23,-54
162873,9.750,-2.250,5.028,0.079640,-0.748696,2.354730,100267.66,-166,-31,-55
162883,8.286,-3.052,3.920,0.463823,-0.774770,2.181263,100267.66,-166,-31,-55
162893,8.594,-3.067,3.264,0.672943,-0.805100,1.981722,100267.66,-166,-37,-56
162904,7.204,-6.992,4.343,0.825126,-0.827448,1.741208,100273.85,-166,-43,-59
162913,5.191,-7.501,5.222,1.101823,-0.626311,1.444823,100276.10,-164,-47,-60
162923,6.359,-3.491,3.949,1.037970,-0.499669,1.194731,100272.49,-164,-47,-60
162933,6.102,-1.698,2.805,0.684117,-0.503926,0.705722,100266.84,-165,-49,-60
162944,5.059,-0.582,2.346,0.556943,-0.551816,0.253961,100266.84,-165,-50,-61
162954,4.069,-0.157,1.980,0.651658,-0.616733,-0.041360,100272.08,-166,-49,-63
162963,3.159,-0.748,1.614,0.852796,-0.668348,-0.335616,100268.78,-166,-49,-63
162973,2.501,-1.616,1.420,0.998062,-0.653981,-0.766093,100266.19,-166,-47,-65
162983,2.412,-2.202,1.078,0.946979,-0.605559,-1.296075,100266.19,-168,-41,-66
162994,2.642,-2.066,0.962,0.777236,-0.562990,-1.786148,100267.57,-169,-35,-68
163003,2.887,-1.578,0.971,0.640484,-0.541705,-2.219285,100267.57,-169,-35,-68
163013,3.165,-1.202,1.028,0.603236,-0.522550,-2.621560,100271.24,-171,-26,-69
163023,3.577,-1.236,0.922,0.650062,-0.499669,-2.980202,100266.73,-171,-13,-71
163034,4.081,-1.413,0.911,0.767658,-0.484770,-3.293615,100263.48,-173,-1,-73
163043,4.773,-1.615,1.087,0.957089,-0.477320,-3.562330,100263.48,-173,-1,-73
163053,5.506,-1.947,1.311,1.179511,-0.477320,-3.807101,100269.66,-173,+13,-75
163063,6.057,-2.464,1.421,1.368410,-0.481577,-4.043357,100269.13,-172,+28,-77
163074,6.505,-2.860,1.664,1.503034,-0.470403,-4.291320,100264.85,-170,+45,-80
163084,7.044,-2.980,1.960,1.624887,-0.445926,-4.517467,100267.88,-170,+45,-80
163093,7.669,-3.015,2.381,1.778135,-0.429430,-4.696788,100266.99,-167,+62,-83
163103,8.386,-3.243,2.844,1.990978,-0.414531,-4.847375,100269.40,-163,+82,-87
163113,9.206,-3.722,3.373,2.217125,-0.405485,-4.961779,100267.26,-157,+101,-91
163123,10.221,-4.324,3.805,2.391125,-0.408146,-5.036806,100267.26,-157,+101,-91
163133,11.144,-4.769,4.123,2.459235,-0.425173,-5.089485,100265.90,-150,+119,-95
163143,12.060,-5.220,4.388,2.427840,-0.437412,-5.140568,100265.90,-141,+138,-102
163153,12.880,-5.914,4.763,2.323547,-0.455504,-5.195907,100271.75,-132,+154,-108
163164,13.147,-6.724,5.182,2.134648,-0.484238,-5.237411,100267.66,-120,+173,-114
163173,13.075,-7.431,5.508,1.834538,-0.471467,-5.285301,100265.36,-120,+173,-114
163183,13.014,-7.931,5.505,1.448759,-0.423045,-5.367246,100267.41,-108,+189,-118
163193,12.917,-7.809,5.334,1.099162,-0.350146,-5.442806,100267.41,-92,+205,-123
163204,12.797,-7.578,5.350,0.864502,-0.245852,-5.466751,100271.35,-78,+219,-127
163214,12.862,-7.653,5.507,0.774043,-0.133577,-5.440145,100268.77,-78,+219,-127
163223,13.347,-8.158,5.753,0.750631,-0.005871,-5.374696,100268.41,-61,+232,-129
163233,13.774,-8.449,5.645,0.659108,0.103744,-5.275191,100268.41,-45,+244,-131
163244,14.158,-7.976,5.329,0.468612,0.220808,-5.153870,100268.41,-29,+254,-132
163254,14.578,-6.881,4.785,0.286631,0.327762,-5.026696,100270.16,-29,+254,-132
163263,14.928,-6.018,4.069,0.183402,0.398000,-4.852696,100271.11,-10,+263,-133
163273,15.086,-5.598,3.288,0.195640,0.402257,-4.617504,100269.42,+3,+271,-134
163283,14.583,-5.769,2.790,0.352080,0.361994,-4.292739,100272.30,+19,+277,-133
163293,13.822,-6.553,2.604,0.542044,0.335211,-3.963009,100272.30,+19,+277,-133
163304,12.219,-8.109,2.587,0.708062,0.285725,-3.550092,100271.66,+33,+281,-137
163313,9.754,-10.281,2.661,0.747970,0.268698,-3.062679,100271.35,+45,+283,-139
163323,7.014,-12.759,1.989,0.546833,0.302753,-2.407652,100272.54,+52,+285,-140
163334,4.799,-12.705,1.626,0.166906,0.352239,-1.527542,100272.54,+52,+285,-140
163344,4.725,-9.939,2.253,-0.132672,0.337340,-0.459066,100275.81,+56,+287,-140
163353,6.510,-7.261,3.559,-0.132672,0.270826,0.581209,100273.41,+54,+285,-140
163363,7.944,-6.524,4.593,0.115292,0.186753,1.407043,100273.41,+49,+285,-140
163374,7.900,-7.190,4.722,0.424447,0.161744,2.010988,100275.14,+49,+285,-140
163383,7.514,-8.095,4.597,0.654851,0.237303,2.548419,100272.98,+40,+283,-142
163393,7.654,-8.874,4.258,0.793731,0.360221,3.047005,100272.98,+29,+279,-144
163399,8.191,-8.959,3.619,0.818209,0.447487,3.372124,100274.53,+29,+279,-144
163408,10.847,-5.434,3.182,0.764998,0.554441,3.645629,100273.95,+16,+275,-146
163419,17.295,9.724,-1.036,0.122741,0.425138,3.434381,100272.84,+4,+271,-145
163428,20.755,26.322,-1.732,-0.464176,0.263909,2.275446,100270.28,-2,+268,-144
163438,18.540,26.000,-5.723,-0.351901,0.042019,1.238364,100270.28,-2,+268,-144
163448,14.159,7.867,-1.918,1.635529,-0.235210,1.634254,100276.55,-7,+266,-146
163459,12.481,-8.410,2.663,4.167840,-0.358128,2.911317,100274.99,-15,+259,-159
163469,13.772,-10.414,-1.106,4.613215,-0.453375,3.940950,100275.04,-29,+248,-172
163478,13.141,-10.131,-3.534,3.179179,-0.262348,3.538675,100275.77,-29,+248,-172
163488,11.355,-7.994,0.066,2.029290,0.155890,2.898547,100275.77,-38,+240,-179
163499,8.787,-4.215,5.092,1.504630,0.384698,2.894822,100277.58,-48,+234,-182
163509,5.626,-2.416,10.109,1.438648,0.496973,2.755409,100274.34,-56,+225,-184
163519,6.939,-2.546,9.394,1.394306,0.789810,2.288749,100275.97,-56,+225,-184
163528,10.312,-5.988,7.003,0.975181,0.844973,2.245648,100272.56,-63,+220,-185
163538,10.691,-7.947,6.878,0.622924,0.663523,2.389850,100272.56,-71,+213,-186
163549,8.519,-7.501,6.256,-0.109259,0.599138,2.111556,100271.95,-77,+208,-183
163558,8.122,-6.997,3.492,-0.963295,0.652349,1.794419,100276.88,-77,+208,-183
163568,8.489,-6.149,1.471,-1.555001,0.648624,1.551777,100275.47,-83,+206,-177
163578,9.013,-4.471,1.484,-1.702395,0.619890,1.333612,100272.64,-86,+203,-172
163589,10.100,-2.592,1.275,-1.551808,0.572000,1.200052,100272.64,-90,+201,-167
163599,11.084,-1.711,1.173,-1.135166,0.558165,1.144713,100273.67,-90,+201,-167
163608,11.146,-1.685,1.258,-0.666910,0.561890,1.101612,100271.05,-94,+199,-164
163618,10.309,-1.822,1.647,-0.310928,0.531028,1.046805,100276.86,-96,+196,-162
163629,9.389,-2.854,2.472,-0.087974,0.491120,0.932401,100275.92,-99,+194,-160
163639,9.158,-3.711,2.990,-0.006562,0.427266,0.846199,100275.92,-99,+194,-160
163648,9.157,-4.179,3.193,-0.118837,0.370331,0.731264,100278.11,-102,+192,-159
163658,8.912,-4.050,3.620,-0.372653,0.312331,0.596640,100274.17,-103,+190,-157
163668,8.777,-3.200,3.894,-0.625405,0.251670,0.509374,100274.02,-105,+189,-155
163679,8.924,-2.113,3.876,-0.743002,0.186753,0.439667,100275.69,-105,+189,-155
163688,9.111,-1.370,3.343,-0.715332,0.118643,0.398163,100275.69,-106,+189,-154
163698,9.251,-1.184,2.853,-0.559956,0.085120,0.401888,100273.96,-106,+187,-152
163708,9.336,-1.493,2.505,-0.386488,0.078202,0.423704,100277.68,-107,+186,-150
163719,9.223,-1.826,2.116,-0.260378,0.075010,0.423172,100274.07,-107,+186,-150
163729,8.952,-2.129,2.161,-0.193864,0.094166,0.435411,100271.09,-109,+187,-150
163738,9.098,-2.074,2.575,-0.223130,0.112257,0.440200,100271.09,-110,+184,-149
163748,9.177,-1.457,3.129,-0.286983,0.089377,0.463612,100275.88,-112,+183,-147
163759,8.780,-0.776,3.712,-0.280066,0.076074,0.505117,100271.22,-112,+183,-147
163769,8.757,-0.622,3.867,-0.245479,0.085120,0.563649,100270.33,-112,+182,-147
163778,8.929,-0.426,3.783,-0.181094,0.088312,0.631759,100272.42,-113,+180,-147
163788,8.978,-0.268,4.063,-0.119901,0.117046,0.699869,100272.42,-116,+177,-145
163799,8.932,-0.122,3.859,-0.031571,0.140991,0.761594,100273.52,-116,+177,-145
163809,8.744,-0.100,3.971,0.107842,0.158019,0.838750,100273.95,-117,+176,-145
163818,8.503,-0.211,4.072,0.249915,0.118111,0.917502,100269.71,-120,+173,-145
163828,8.248,-1.346,3.664,0.436686,0.097890,0.980291,100270.38,-122,+170,-145
163838,8.388,-3.474,3.054,0.583016,0.119175,1.024988,100270.38,-122,+170,-145
163849,9.175,-5.619,2.149,0.495750,0.121835,1.053722,100275.33,-124,+166,-146
163859,9.949,-6.054,1.459,0.147750,0.134606,1.053190,100271.14,-127,+162,-146
163868,9.906,-5.605,1.505,-0.286983,0.202716,0.996254,100270.88,-130,+160,-145
163878,9.662,-4.056,1.713,-0.642965,0.223468,0.965392,100270.09,-131,+160,-145
163889,9.279,-2.578,1.973,-0.765882,0.228257,0.992529,100270.09,-131,+157,-142
163899,9.042,-1.971,2.458,-0.633387,0.237303,1.027117,100275.41,-134,+154,-141
163908,8.941,-2.118,2.639,-0.421075,0.207505,1.076071,100272.37,-135,+150,-140
163918,8.863,-2.793,2.819,-0.257185,0.188349,1.139924,100267.35,-138,+146,-138
163929,8.875,-3.726,2.765,-0.219405,0.177175,1.186750,100270.96,-138,+146,-138
163939,9.018,-4.269,2.886,-0.339662,0.168661,1.224529,100270.96,-140,+144,-137
163949,9.196,-4.331,2.983,-0.525369,0.170257,1.253263,100274.42,-143,+138,-135
163958,9.290,-4.116,3.129,-0.705754,0.156423,1.292639,100273.95,-145,+134,-134
163969,9.455,-3.843,3.147,-0.828671,0.126092,1.357557,100271.70,-145,+134,-134
163979,9.709,-3.524,3.268,-0.807919,0.087780,1.430988,100269.77,-148,+130,-132
163989,10.163,-3.693,3.501,-0.729699,0.061175,1.506548,100269.77,-150,+125,-130
163998,10.670,-3.902,3.596,-0.750983,-0.006403,1.590621,100273.07,-152,+120,-130
164008,11.198,-3.759,3.400,-0.829735,-0.118146,1.655538,100273.65,-152,+120,-130
164019,11.632,-3.533,3.098,-0.845699,-0.211265,1.740144,100274.85,-154,+114,-128
164029,12.055,-3.847,2.752,-0.824946,-0.299063,1.812511,100271.51,-157,+108,-128
164038,11.922,-4.157,2.635,-0.722781,-0.374091,1.906162,100271.51,-161,+101,-128
164048,11.863,-5.083,2.383,-0.605717,-0.411871,1.975868,100272.30,-161,+101,-128
164059,12.232,-5.639,2.422,-0.645093,-0.399632,2.009391,100278.48,-162,+95,-129
164069,12.503,-5.647,2.639,-0.826011,-0.407614,2.018437,100273.56,-165,+88,-129
164078,13.370,-5.427,2.879,-1.045240,-0.409742,2.041850,100269.63,-167,+81,-129
164088,15.021,-4.730,3.257,-1.293203,-0.408678,2.071116,100269.63,-167,+81,-129
164099,16.916,-3.267,3.900,-1.631093,-0.380476,2.130180,100274.48,-169,+73,-128
164109,18.467,-0.999,4.596,-2.073276,-0.340391,2.239085,100272.34,-171,+66,-129
164119,18.863,1.143,4.068,-2.331349,-0.302256,2.394639,100270.30,-172,+57,-127
164128,19.378,3.294,3.837,-2.476083,-0.203284,2.559061,100270.61,-172,+57,-127
164139,19.759,5.026,4.903,-2.484597,-0.070788,2.662290,100270.61,-175,+48,-127
164149,19.018,4.370,5.522,-2.293569,0.008496,2.794253,100269.87,-177,+39,-125
164159,17.342,-0.254,5.611,-1.845001,0.014349,3.014547,100273.16,-177,+29,-125
164168,16.548,-6.463,5.878,-1.225093,-0.075577,3.349776,100268.77,-177,+29,-125
164178,18.016,-7.555,6.236,-0.851552,-0.051632,3.600399,100267.88,-178,+15,-124
164189,18.676,-5.210,7.639,-1.082487,-0.062807,3.373721,100267.88,-178,+2,-123
164199,16.465,-1.912,8.674,-1.353331,-0.200623,3.060308,100273.45,-177,-7,-125
164208,13.931,-0.515,7.355,-1.262873,-0.529999,2.945372,100271.68,-177,-7,-125
164218,10.737,-1.094,7.006,-0.650946,-0.813614,2.791060,100273.82,-177,-17,-126
164229,6.919,-1.819,5.226,0.181273,-0.967393,2.562253,100269.99,-175,-27,-130
164239,6.633,-2.044,2.559,0.749034,-1.000384,2.248308,100269.99,-174,-35,-132
164249,6.209,-8.314,3.133,1.082135,-0.937595,1.824749,100280.05,-174,-35,-132
164258,2.981,-14.393,6.052,1.154502,-0.681650,1.321905,100272.20,-173,-41,-134
164269,5.472,-7.077,2.938,0.932080,-0.639082,1.160676,100271.10,-172,-46,-135
164279,5.211,-2.998,1.979,0.162117,-0.666219,0.409869,100269.16,-170,-46,-137
164289,3.456,-0.690,1.829,-0.131075,-0.697614,-0.306350,100269.16,-170,-46,-137
164298,2.744,1.088,1.630,0.014723,-0.840751,-0.528772,100273.11,-171,-45,-140
164308,1.638,0.762,1.442,0.380814,-1.028054,-0.666057,100274.94,-171,-43,-142
164319,0.641,-0.618,1.160,0.792135,-1.148311,-0.952864,100275.05,-170,-40,-146
164329,0.323,-1.722,1.120,0.985823,-1.178641,-1.470074,100269.28,-170,-40,-146
164338,0.577,-2.172,1.063,1.046484,-1.168531,-1.998459,100269.28,-170,-34,-149
164348,1.081,-1.940,1.214,1.082135,-1.161613,-2.427340,100270.77,-171,-26,-153
164359,1.531,-1.694,1.365,1.120447,-1.156824,-2.801413,100275.38,-171,-17,-156
164369,2.114,-1.639,1.462,1.190685,-1.152567,-3.155798,100270.98,-170,-5,-161
164379,2.628,-1.584,1.617,1.334887,-1.150971,-3.470807,100268.73,-170,-5,-161
164388,3.026,-1.507,1.983,1.530171,-1.136072,-3.734734,100268.73,-170,+7,-164
164399,3.439,-1.785,2.335,1.718538,-1.110531,-3.946513,100271.64,-168,+20,-169
164409,4.012,-2.433,2.520,1.874979,-1.072751,-4.127963,100269.95,-166,+33,-173
164419,4.771,-2.998,2.607,1.956391,-1.026457,-4.317394,100271.89,-166,+33,-173
164428,5.442,-3.286,2.950,1.973419,-0.999852,-4.473302,100268.59,-163,+48,-177
164439,6.008,-3.447,3.464,2.011731,-0.990274,-4.555779,100268.59,-157,+62,-182
164449,6.602,-3.783,4.009,2.121345,-0.972714,-4.603137,100266.09,-152,+76,-188
164459,7.314,-4.349,4.573,2.265547,-0.934402,-4.646770,100269.14,-152,+76,-188
164468,8.119,-4.992,5.040,2.299602,-0.877999,-4.736696,100271.75,-146,+91,-193
164478,8.835,-5.525,5.609,2.201162,-0.857247,-4.818641,100267.98,-138,+104,-198
164489,9.154,-5.860,5.989,2.061749,-0.863100,-4.830880,100267.98,-131,+117,-204
164499,9.045,-6.139,6.221,1.942557,-0.843944,-4.826623,100273.50,-131,+117,-204
164509,9.118,-6.538,6.525,1.857951,-0.736990,-4.867063,100269.94,-122,+130,-210
164518,9.807,-7.435,6.840,1.708960,-0.575761,-4.934641,100267.58,-112,+142,-214
164529,10.143,-8.129,6.704,1.453015,-0.458696,-5.025100,100271.56,-102,+155,-218
164539,10.003,-8.133,6.431,1.146520,-0.319816,-5.136311,100271.56,-102,+155,-218
164549,10.284,-7.480,6.343,0.930484,-0.100054,-5.215063,100274.01,-90,+168,-221
164558,11.628,-7.140,6.609,0.863970,0.184092,-5.179411,100274.70,-78,+180,-223
164569,13.294,-7.737,7.006,0.953364,0.417156,-5.107045,100270.45,-67,+191,-224
164579,13.667,-8.804,6.904,1.032826,0.529431,-5.056494,100273.54,-67,+191,-224
164589,13.221,-9.545,6.282,0.989548,0.599670,-4.977210,100273.54,-55,+201,-226
164599,13.137,-10.499,5.274,0.811291,0.696514,-4.831944,100274.52,-43,+210,-227
164609,13.449,-10.765,3.725,0.468080,0.696514,-4.602072,100272.48,-31,+219,-227
164619,13.716,-9.224,2.835,0.150411,0.651285,-4.263651,100272.85,-31,+219,-227
164629,13.502,-6.929,3.207,0.149347,0.567743,-3.812954,100274.21,-20,+227,-227
164639,12.676,-5.187,4.471,0.553218,0.466110,-3.313835,100274.21,-10,+231,-227
164648,11.616,-5.521,5.560,1.142795,0.403321,-2.808863,100274.63,-3,+234,-231
164659,10.532,-8.130,5.244,1.633401,0.392679,-2.317193,100273.59,-3,+234,-231
164669,9.244,-11.338,3.779,1.727052,0.425670,-1.796258,100274.57,+2,+234,-235
164679,7.574,-12.965,2.598,1.449291,0.487395,-1.177946,100276.26,+5,+233,-239
164688,6.553,-12.812,2.090,0.974117,0.586367,-0.460662,100276.26,+5,+232,-241
164699,6.579,-11.345,2.033,0.510117,0.641174,0.317282,100276.77,+5,+232,-241
164709,6.965,-9.734,2.369,0.281310,0.623615,1.085117,100272.63,+1,+230,-241
164719,7.519,-9.013,2.818,0.391457,0.556569,1.863061,100274.09,-3,+227,-241
164729,8.278,-8.874,2.936,0.700080,0.506551,2.629299,100274.98,-12,+222,-241
164739,12.714,-2.100,1.432,0.922502,0.468239,3.279537,100274.98,-12,+222,-241
164749,19.364,16.649,-2.239,0.380282,0.210698,3.031574,100281.02,-22,+215,-244
164759,24.687,36.120,-5.995,-0.258250,0.137799,1.672566,100276.46,-29,+211,-243
164769,19.332,23.311,-8.248,0.001952,-0.111761,0.850456,100278.93,-31,+209,-242
164779,13.434,-2.283,-0.431,3.091913,-0.252238,1.785373,100274.48,-31,+209,-242
164789,13.579,-15.029,-0.359,5.156499,-0.436880,3.585500,100274.48,-36,+198,-252
164799,14.783,-11.617,-3.623,4.069931,-0.407614,4.272986,100280.62,-45,+179,-264
164809,12.734,-8.776,-0.360,2.259162,0.086184,3.266234,100275.95,-53,+167,-267
164818,11.140,-4.391,7.244,1.683419,0.470367,2.971978,100276.95,-53,+167,-267
164829,6.937,-0.424,13.409,1.806336,0.535817,3.236436,100270.29,-61,+156,-268
164839,5.977,0.870,11.976,2.080905,0.843376,2.984216,100270.29,-68,+144,-271
164849,8.832,-3.333,8.638,1.804208,0.992367,2.761794,100275.73,-76,+133,-271
164859,7.817,-6.864,8.728,1.315199,0.672569,2.882051,100274.30,-82,+124,-271
164869,5.686,-7.346,8.214,0.305255,0.574129,2.579281,100274.48,-82,+124,-271
164879,7.037,-7.091,3.786,-0.848891,0.602331,2.216382,100273.32,-85,+119,-267
164889,8.871,-7.167,0.134,-1.516157,0.597009,1.926914,100273.32,-91,+116,-265
164899,10.143,-6.096,-0.505,-1.613001,0.562422,1.772602,100278.07,-94,+116,-261
164909,11.068,-3.747,0.037,-1.406542,0.489523,1.677887,100276.29,-94,+116,-261
164919,11.091,-2.490,0.161,-0.963295,0.485266,1.506015,100276.29,-98,+114,-258
164929,10.890,-2.726,-0.383,-0.406708,0.503890,1.384694,100275.91,-101,+112,-256
164939,9.931,-3.151,0.598,0.049310,0.503358,1.378841,100275.91,-105,+107,-255
164948,8.788,-3.650,2.137,0.202025,0.548587,1.278805,100278.55,-105,+107,-255
164959,8.537,-4.748,3.109,0.114759,0.619890,1.081924,100272.89,-108,+103,-253
164969,8.893,-5.909,3.731,-0.275277,0.629468,0.904199,100274.09,-110,+101,-252
164979,9.082,-6.048,4.230,-0.883478,0.598606,0.693484,100273.69,-112,+101,-249
164988,8.775,-4.402,4.562,-1.502322,0.551248,0.492878,100273.69,-112,+101,-249
164999,8.889,-2.063,3.825,-1.757203,0.485266,0.399227,100278.12,-113,+103,-246
165009,9.557,-0.560,2.845,-1.569900,0.425138,0.380071,100276.98,-115,+105,-243
165019,9.974,-0.382,2.282,-1.137827,0.377248,0.407209,100278.12,-116,+106,-241
165029,10.160,-1.110,1.999,-0.695112,0.355964,0.481172,100274.71,-116,+106,-241
165039,9.900,-2.021,2.280,-0.418415,0.349578,0.557264,100274.71,-117,+106,-238
165049,9.175,-2.769,2.553,-0.341259,0.357560,0.564181,100275.21,-119,+104,-237
165059,8.701,-3.279,3.033,-0.477479,0.370331,0.527998,100277.10,-120,+103,-236
165069,8.685,-2.906,3.534,-0.715864,0.351175,0.499796,100275.48,-120,+103,-236
165079,8.904,-2.047,3.815,-0.858469,0.325101,0.502988,100271.87,-121,+103,-233
165089,8.878,-1.461,3.884,-0.784506,0.267101,0.542897,100271.87,-124,+103,-232
165099,8.804,-1.461,3.714,-0.571662,0.208569,0.591851,100274.33,-124,+103,-231
165109,8.618,-2.065,3.394,-0.365204,0.168129,0.644530,100276.22,-124,+103,-231
165120,8.650,-2.653,3.111,-0.275809,0.145248,0.694016,100270.92,-125,+101,-230
165129,8.839,-2.964,3.031,-0.272084,0.129817,0.736053,100273.91,-127,+99,-229
165139,8.932,-3.067,3.013,-0.293369,0.124496,0.772236,100273.91,-127,+97,-228
165149,8.999,-3.214,2.904,-0.297094,0.130349,0.805759,100278.97,-127,+97,-228
165159,9.201,-3.405,2.765,-0.330084,0.135138,0.826511,100274.05,-128,+95,-228
165169,9.304,-3.489,2.648,-0.380635,0.119707,0.846199,100271.38,-129,+93,-227
165179,9.176,-3.514,2.580,-0.423204,0.102679,0.864823,100271.11,-131,+91,-226
165189,9.041,-3.418,2.477,-0.483864,0.102147,0.898346,100271.11,-131,+91,-226
165199,9.075,-3.068,2.377,-0.544525,0.115982,0.947832,100275.91,-133,+89,-226
165209,9.139,-2.720,2.286,-0.539203,0.103212,1.020199,100273.73,-134,+88,-224
165219,8.962,-2.586,2.071,-0.467901,0.082459,1.111190,100271.62,-135,+84,-224
165229,8.950,-2.580,1.944,-0.359882,0.048936,1.212823,100274.35,-135,+84,-224
165239,9.177,-3.042,2.101,-0.232708,0.008496,1.311795,100274.35,-136,+80,-223
165250,9.662,-3.542,2.557,-0.160341,-0.011192,1.387887,100275.18,-138,+77,-222
165259,10.020,-3.951,2.844,-0.180029,-0.018642,1.449080,100279.77,-140,+72,-222
165269,10.306,-4.022,2.922,-0.281662,-0.023431,1.509740,100271.82,-140,+72,-222
165279,10.488,-3.800,2.812,-0.384360,-0.036201,1.586364,100273.71,-140,+68,-221
165289,10.576,-3.430,2.572,-0.426396,-0.054293,1.694382,100273.71,-141,+62,-222
165299,10.654,-3.183,2.610,-0.373185,-0.117082,1.811979,100277.34,-143,+57,-222
165309,10.873,-3.439,2.541,-0.247607,-0.198495,1.932767,100274.41,-143,+57,-221
165319,11.110,-4.119,2.681,-0.141185,-0.259687,2.029079,100275.40,-143,+52,-221
165329,11.358,-4.759,2.675,-0.107662,-0.316091,2.093997,100276.13,-145,+45,-223
165339,11.449,-5.214,2.977,-0.195993,-0.351210,2.144015,100276.13,-145,+38,-223
165349,11.529,-5.569,3.084,-0.337002,-0.364513,2.166364,100275.30,-145,+31,-224
165359,11.800,-5.738,3.190,-0.550910,-0.329926,2.174345,100273.41,-145,+31,-224
165369,12.220,-5.327,3.412,-0.838781,-0.281504,2.176474,100275.20,-145,+25,-225
165380,13.138,-4.755,3.649,-1.161772,-0.235210,2.189244,100277.98,-145,+20,-225
165389,15.036,-4.157,4.044,-1.470396,-0.175082,2.179666,100277.98,-146,+16,-224
165399,17.803,-2.671,4.592,-1.849790,-0.088880,2.162639,100275.91,-146,+16,-224
165405,19.570,-0.932,5.072,-2.180762,-0.034605,2.180198,100274.24,-147,+11,-225
165414,20.465,1.082,4.658,-2.461184,0.007432,2.265336,100274.24,-147,+11,-225
165425,20.396,3.361,3.677,-2.725110,0.068092,2.394107,100274.82,-145,+9,-224
165434,19.097,3.714,3.061,-2.774596,0.131413,2.498932,100274.91,-146,+5,-224
165444,17.758,2.125,3.380,-2.585166,0.186753,2.639941,100274.91,-147,+1,-223
165454,16.550,-2.274,3.755,-2.136065,0.142056,2.873005,100272.58,-147,+1,-223
165465,17.061,-5.475,4.916,-1.542230,0.123964,3.167262,100271.09,-146,-4,-223
165475,18.445,-4.711,6.880,-1.174010,0.146845,3.192803,100272.23,-145,-13,-222
165484,17.751,-3.454,8.644,-1.095258,0.094166,2.915574,100272.23,-145,-21,-222
165494,15.203,-2.685,9.149,-1.205937,-0.230421,2.740510,100272.23,-145,-21,-222
165505,13.051,-1.995,7.343,-1.058010,-0.654513,2.742639,100272.13,-142,-27,-223
165514,10.518,-1.948,6.260,-0.597736,-0.860971,2.575556,100273.29,-140,-34,-225
165524,9.076,-1.875,4.075,-0.100213,-0.918439,2.269061,100276.65,-137,-41,-228
165534,8.611,-1.511,2.179,0.220117,-0.963669,2.007795,100273.76,-134,-41,-229
165544,4.730,-9.195,3.706,0.506392,-0.991338,1.462382,100273.76,-134,-48,-229
165555,1.930,-11.020,5.518,0.745309,-0.793926,0.871208,100275.53,-132,-52,-231
165564,4.715,-3.678,3.476,0.693163,-0.696017,0.627502,100273.47,-130,-55,-232
165574,4.401,-0.607,2.191,0.336649,-0.852990,-0.046681,100271.61,-127,-55,-234
165584,2.488,0.869,2.024,0.343567,-0.841283,-0.866662,100271.61,-127,-55,-234
165595,1.844,1.913,1.847,0.512778,-0.881191,-1.190185,100275.61,-127,-51,-236
165604,1.359,0.996,1.591,0.774576,-1.037100,-1.336515,100275.61,-127,-49,-238
165614,0.694,-0.432,1.573,1.068300,-1.118512,-1.610019,100271.95,-125,-45,-241
165624,0.453,-1.284,1.497,1.215162,-1.127558,-2.003248,100272.73,-125,-45,-241
165635,0.827,-1.585,1.506,1.174722,-1.117448,-2.473634,100271.42,-124,-42,-243
165644,1.420,-1.205,1.682,1.094373,-1.109467,-2.918477,100271.42,-124,-35,-246
165654,2.063,-0.677,1.788,1.075750,-1.102017,-3.324477,100273.69,-123,-26,-248
165664,2.691,-0.672,1.757,1.148649,-1.090843,-3.678862,100271.28,-123,-26,-248
165675,3.230,-1.070,2.021,1.317327,-1.065301,-3.968862,100271.86,-122,-17,-251
165685,3.803,-1.787,2.362,1.512080,-1.016347,-4.216825,100272.66,-121,-8,-253
165694,4.353,-2.499,2.624,1.653089,-0.953558,-4.457871,100273.81,-119,+1,-256
165704,4.962,-3.201,2.729,1.736630,-0.862036,-4.660604,100270.52,-119,+1,-256
165714,5.909,-3.735,3.023,1.787180,-0.775834,-4.842054,100271.25,-117,+11,-257
165725,6.982,-3.920,3.346,1.884557,-0.732733,-4.964972,100271.25,-115,+22,-261
165734,7.976,-4.213,3.845,2.043125,-0.686439,-5.022971,100271.19,-112,+32,-263
165744,8.978,-4.753,4.262,2.222446,-0.640146,-5.071925,100271.19,-112,+32,-263
165754,9.967,-5.155,4.645,2.343235,-0.608751,-5.127797,100275.35,-108,+42,-266
165765,11.216,-5.673,5.077,2.403363,-0.561394,-5.156531,100269.01,-102,+51,-269
165775,12.454,-6.102,5.872,2.427308,-0.516696,-5.138971,100272.88,-98,+58,-272
165784,13.092,-6.418,6.728,2.393785,-0.502329,-5.100127,100267.87,-98,+58,-272
165794,13.068,-6.778,7.318,2.317694,-0.473595,-5.089485,100267.87,-94,+68,-276
165805,12.758,-7.317,7.648,2.208079,-0.406550,-5.120880,100273.57,-87,+76,-279
165815,12.803,-7.899,7.589,1.997364,-0.261284,-5.140568,100270.43,-82,+83,-281
165824,13.011,-8.405,7.255,1.677034,-0.085687,-5.110237,100269.01,-82,+83,-281
165834,13.136,-8.518,6.759,1.325841,0.114918,-5.068733,100269.01,-77,+92,-282
165844,13.161,-8.615,6.097,0.931548,0.309138,-5.033082,100269.01,-71,+102,-282
165855,13.910,-9.230,4.813,0.422851,0.491652,-4.980935,100274.69,-65,+114,-282
165864,13.629,-8.084,4.617,-0.078396,0.540606,-4.936769,100272.48,-65,+114,-282
165874,13.320,-6.109,3.465,-0.350837,0.561358,-4.902714,100275.73,-59,+125,-281
165884,14.456,-5.168,3.607,-0.300286,0.554973,-4.583448,100274.17,-53,+136,-281
165895,14.429,-4.802,4.305,0.012594,0.509743,-4.274825,100274.17,-47,+144,-279
165905,13.465,-4.744,4.599,0.458502,0.467175,-3.902348,100277.90,-47,+144,-279
165914,12.477,-5.495,4.546,0.921970,0.456000,-3.470807,100276.95,-40,+151,-279
165924,11.531,-6.994,3.997,1.355107,0.448019,-2.995633,100275.43,-35,+154,-281
165935,10.282,-8.676,3.133,1.658942,0.409707,-2.450221,100275.43,-33,+155,-283
165945,8.637,-10.208,2.220,1.744079,0.363413,-1.834570,100278.11,-33,+155,-283
165954,7.052,-11.782,1.472,1.570612,0.340533,-1.166772,100278.11,-29,+154,-286
165964,6.078,-12.540,1.369,1.163548,0.367138,-0.436185,100274.08,-30,+152,-286
165975,6.005,-11.883,1.952,0.724557,0.384166,0.321007,100275.02,-31,+149,-287
165985,6.572,-10.678,2.763,0.539383,0.370331,1.060640,100275.34,-31,+149,-287
165994,7.317,-10.136,3.258,0.676135,0.324037,1.794419,100275.34,-35,+146,-286
166004,7.349,-10.334,3.442,0.970924,0.314459,2.484565,100277.20,-39,+138,-288
166014,7.600,-10.423,3.304,1.284337,0.333083,3.124161,100276.46,-46,+130,-289
166025,11.153,-4.918,2.838,1.445566,0.391615,3.684473,100272.32,-53,+119,-290
166035,16.666,11.479,-0.700,0.867163,0.227725,3.449812,100275.41,-53,+119,-290
166044,21.681,28.365,-4.342,0.137640,0.112790,2.218510,100276.91,-57,+111,-289
166054,19.587,21.166,-6.700,0.087090,-0.078770,1.307539,100278.47,-59,+108,-291
166065,15.556,0.556,0.317,2.380483,-0.212330,2.015777,100275.86,-61,+95,-294
166074,15.707,-12.772,1.839,4.249252,-0.244256,3.467904,100275.86,-61,+95,-294
166084,15.763,-13.311,-2.495,3.846977,-0.313430,4.157518,100268.58,-65,+74,-298
166094,11.364,-9.585,-0.698,2.357602,0.101615,3.350308,100268.58,-68,+59,-298
166105,8.739,-4.018,3.267,1.434392,0.476220,3.015079,100279.05,-72,+49,-298
166115,5.872,-2.110,7.871,1.296043,0.601266,3.067758,100274.24,-72,+49,-298
166125,4.851,-2.737,10.502,1.706300,0.867321,2.734657,100270.74,-75,+37,-296
166134,8.790,-5.393,8.454,1.594557,1.191908,2.440400,100274.40,-80,+27,-293
166145,12.118,-9.424,6.577,0.915053,1.021101,2.581941,100274.40,-83,+19,-291
166155,9.977,-9.298,6.402,0.048778,0.814642,2.410602,100276.16,-83,+19,-291
166165,7.456,-6.697,5.243,-0.955845,0.815706,2.051428,100271.33,-85,+14,-288
166174,7.067,-5.212,2.876,-1.799239,0.782184,1.781648,100272.13,-87,+13,-287
166184,7.927,-4.506,2.023,-1.996120,0.742275,1.585300,100272.13,-91,+15,-286
166195,9.445,-2.873,1.494,-1.664083,0.730037,1.360217,100272.13,-91,+15,-286
166205,10.936,-1.759,1.092,-1.168689,0.685340,1.245814,100276.55,-92,+15,-284
166214,11.209,-1.846,1.465,-0.542928,0.628936,1.151630,100275.13,-95,+14,-282
166224,10.563,-2.584,1.847,-0.088506,0.540606,1.115979,100276.09,-96,+11,-281
166235,9.545,-4.057,2.007,0.091879,0.481542,1.055318,100276.34,-96,+11,-281
166245,9.148,-4.977,2.238,0.020044,0.473028,0.906860,100276.34,-96,+9,-279
166255,9.264,-5.114,3.031,-0.285387,0.481009,0.719557,100278.61,-98,+7,-278
166264,9.406,-4.461,3.434,-0.686066,0.444294,0.559924,100275.52,-99,+7,-277
166275,9.239,-3.237,3.989,-0.986708,0.389487,0.474255,100277.14,-99,+7,-277
166285,8.957,-2.165,3.795,-1.079295,0.332019,0.410401,100277.14,-101,+8,-276
166295,9.069,-1.728,3.197,-1.006928,0.291578,0.363576,100275.84,-101,+11,-276
166304,9.486,-1.564,2.716,-0.831864,0.267633,0.347612,100275.84,-102,+12,-275
166315,9.639,-1.650,2.625,-0.668506,0.242092,0.359851,100273.57,-102,+12,-275
166325,9.692,-1.960,2.558,-0.531222,0.222936,0.415190,100273.21,-101,+13,-274
166335,9.389,-2.338,2.784,-0.474286,0.202716,0.446585,100274.99,-103,+12,-274
166344,9.060,-2.643,3.133,-0.526965,0.193138,0.450310,100274.99,-103,+12,-273
166354,9.055,-2.439,3.335,-0.657864,0.186753,0.437539,100275.38,-103,+12,-273
166365,9.009,-2.095,3.560,-0.748855,0.170789,0.440732,100274.53,-103,+12,-273
166375,8.884,-1.760,3.662,-0.744598,0.156955,0.474787,100275.31,-103,+13,-272
166385,8.862,-1.737,3.622,-0.685534,0.137799,0.513099,100278.25,-103,+13,-271
166394,8.768,-1.971,3.482,-0.645625,0.099487,0.557264,100276.44,-103,+13,-271
166405,8.525,-2.193,3.383,-0.575387,0.079799,0.582273,100273.28,-103,+14,-271
166415,8.482,-2.719,3.221,-0.520047,0.072881,0.611007,100276.06,-105,+13,-272
166424,8.644,-2.897,3.128,-0.529093,0.060643,0.654640,100276.06,-105,+12,-271
166434,8.625,-2.883,2.912,-0.577515,0.080863,0.690291,100270.94,-105,+12,-271
166445,8.740,-2.745,2.978,-0.601460,0.103744,0.731264,100270.94,-105,+12,-272
166455,8.789,-2.449,2.921,-0.589222,0.091505,0.788731,100277.36,-106,+11,-271
166465,8.888,-2.071,2.956,-0.468433,0.102679,0.883979,100273.50,-106,+10,-271
166474,8.758,-1.997,2.803,-0.344451,0.090973,0.974438,100273.50,-106,+10,-271
166484,8.748,-2.366,2.266,-0.239626,0.072881,1.059043,100277.94,-106,+8,-269
166495,9.045,-2.883,1.812,-0.174176,0.046276,1.146309,100277.94,-107,+5,-269
166505,9.288,-2.864,1.649,-0.184818,-0.006403,1.234639,100275.90,-106,+2,-270
166515,9.189,-2.782,1.767,-0.183222,-0.043119,1.318181,100277.74,-106,+0,-269
166524,9.104,-2.847,1.821,-0.135332,-0.073449,1.399061,100273.55,-106,+0,-269
166535,9.361,-3.368,2.168,-0.058708,-0.077174,1.461318,100273.55,-106,-4,-269
166545,9.695,-3.615,2.750,-0.036892,-0.102183,1.527300,100273.55,-106,-8,-270
166555,9.746,-3.655,3.066,-0.141717,-0.151137,1.592749,100274.36,-105,-12,-270
166564,9.839,-3.434,3.238,-0.230580,-0.176678,1.667245,100276.72,-105,-12,-270
166575,10.063,-3.586,3.295,-0.264103,-0.202219,1.746529,100276.98,-104,-16,-270
166585,10.392,-3.631,3.019,-0.321038,-0.247449,1.846034,100273.16,-103,-20,-272
166594,10.513,-3.603,2.897,-0.333809,-0.303320,1.948731,100273.16,-102,-25,-272
166605,10.670,-4.122,2.244,-0.235369,-0.348550,2.039721,100277.20,-102,-25,-272
166615,11.056,-5.315,1.884,-0.094360,-0.337375,2.092400,100277.68,-100,-30,-272
166625,11.543,-6.210,1.945,-0.077332,-0.356531,2.086547,100273.93,-98,-35,-273
166635,11.898,-6.503,2.343,-0.223130,-0.364513,2.073244,100273.93,-96,-40,-274
166645,12.210,-6.201,2.894,-0.422139,-0.350146,2.063666,100274.94,-96,-40,-274
166654,12.777,-5.736,2.984,-0.616359,-0.353339,2.070052,100273.20,-94,-45,-274
166665,13.780,-4.963,3.524,-0.812708,-0.368238,2.079630,100273.20,-92,-48,-277
166675,15.037,-4.160,4.090,-0.998946,-0.398568,2.099318,100270.69,-89,-51,-277
166684,16.787,-3.295,4.740,-1.200616,-0.385265,2.130712,100273.83,-89,-51,-277
166694,18.817,-2.342,4.596,-1.526267,-0.278843,2.188712,100273.83,-86,-52,-279
166701,20.341,-0.740,4.505,-1.920028,-0.185724,2.240859,100275.59,-84,-53,-281
166710,21.125,1.847,4.590,-2.304212,-0.158586,2.304180,100275.43,-84,-53,-281
166720,21.150,5.166,4.634,-2.569734,-0.106440,2.433483,100276.05,-82,-52,-283
166729,19.769,5.448,5.485,-2.510670,0.011689,2.525006,100271.24,-80,-51,-284
166739,17.180,2.013,5.443,-2.151496,0.069157,2.728271,100271.24,-80,-51,-284
166750,15.225,-5.026,4.767,-1.590120,0.022331,3.081060,100274.23,-78,-52,-284
166760,16.235,-9.049,5.246,-1.133570,0.053193,3.368400,100270.56,-75,-58,-286
166770,17.757,-7.320,6.991,-1.245845,0.072349,3.153959,100273.23,-73,-62,-286
166779,16.361,-3.562,8.477,-1.637478,-0.197430,2.691556,100272.92,-70,-62,-288
166790,14.053,-0.163,7.873,-1.618854,-0.606091,2.668675,100272.92,-70,-62,-288
166800,11.159,0.388,6.757,-0.997350,-0.908329,2.687299,100274.01,-64,-65,-290
166810,7.896,-0.279,4.897,-0.087974,-0.999320,2.504253,100273.80,-60,-70,-291
166819,7.567,-0.296,2.610,0.421255,-0.980696,2.154657,100271.91,-56,-76,-292
166830,5.494,-6.905,2.995,0.801181,-0.940788,1.705024,100274.27,-56,-76,-292
166840,1.966,-11.869,3.926,0.920906,-0.747100,1.109062,100274.27,-52,-81,-292
166850,4.784,-5.320,2.333,0.645273,-0.705063,0.895153,100277.09,-50,-86,-293
166859,4.708,-1.339,1.651,0.078044,-0.867357,0.260346,100277.36,-49,-85,-294
166870,3.045,1.235,1.615,-0.070947,-0.890237,-0.463323,100272.53,-49,-85,-294
166880,2.312,2.672,1.590,0.180741,-0.957815,-0.760240,100272.91,-46,-84,-296
166890,1.650,1.792,1.469,0.643677,-1.096164,-0.913488,100272.91,-46,-84,-297
166900,0.893,0.093,1.264,1.114594,-1.199393,-1.170497,100276.97,-45,-85,-298
166909,0.672,-1.413,1.082,1.338612,-1.223870,-1.592460,100277.59,-45,-85,-298
166920,1.220,-2.125,1.021,1.333823,-1.216953,-2.097964,100275.61,-43,-84,-298
166930,1.917,-1.965,1.137,1.250814,-1.231852,-2.569945,100272.63,-43,-84,-299
166935,2.368,-1.571,1.239,1.217291,-1.253136,-2.876973,100272.63,-43,-84,-299
166944,2.796,-1.428,1.458,1.265713,-1.270696,-3.147285,100272.63,-43,-80,-301
166955,3.267,-1.637,1.706,1.414704,-1.287723,-3.469743,100271.97,-45,-78,-302
166965,3.772,-2.125,1.787,1.589236,-1.288787,-3.753357,100271.45,-46,-78,-302
166975,4.257,-2.695,2.189,1.767492,-1.261118,-3.998660,100267.52,-46,-75,-303
166985,4.771,-3.248,2.550,1.888281,-1.205246,-4.229064,100267.85,-47,-73,-304
166994,5.356,-3.672,2.768,1.931382,-1.137136,-4.458403,100266.18,-49,-70,-303
167005,6.102,-3.821,3.041,1.956923,-1.083925,-4.657944,100269.70,-50,-66,-304
167015,6.856,-3.763,3.442,2.035144,-1.045613,-4.796824,100269.70,-50,-66,-304
167025,7.791,-3.930,4.155,2.202758,-0.988678,-4.883027,100270.05,-53,-62,-304
167034,8.782,-4.432,4.870,2.395382,-0.933870,-4.947944,100268.07,-55,-58,-305
167045,9.925,-5.119,5.198,2.494886,-0.871614,-5.013393,100268.07,-57,-56,-304
167056,11.180,-5.731,5.829,2.470942,-0.793393,-5.076715,100273.79,-57,-56,-304
167065,11.871,-5.883,6.468,2.402831,-0.757210,-5.078843,100273.79,-57,-52,-305
167075,12.102,-6.158,7.023,2.282043,-0.711448,-5.066072,100271.10,-61,-48,-304
167085,12.392,-6.936,7.721,2.134116,-0.625779,-5.049045,100268.12,-63,-43,-306
167095,12.348,-7.614,8.336,1.879235,-0.534788,-5.046384,100268.12,-63,-43,-306
167105,11.862,-7.783,8.538,1.493988,-0.392715,-5.057026,100272.98,-64,-37,-306
167115,11.698,-7.562,8.667,1.124172,-0.158586,-5.034678,100271.81,-66,-29,-305
167126,11.910,-7.270,8.716,0.824062,0.130881,-4.993705,100272.48,-70,-19,-306
167135,12.205,-7.182,8.494,0.581952,0.396936,-4.959118,100272.48,-70,-19,-306
167145,12.176,-7.052,8.247,0.396245,0.633725,-4.935173,100272.48,-71,-9,-304
167155,11.978,-6.666,7.544,0.263750,0.877431,-4.925595,100274.34,-76,+0,-303
167164,12.629,-6.460,7.091,0.165842,1.150936,-4.806403,100268.31,-78,+12,-301
167175,13.121,-6.090,6.878,0.094007,1.374422,-4.652623,100271.67,-78,+12,-301
167185,13.520,-5.458,4.293,0.020576,1.517559,-4.472770,100271.05,-81,+22,-298
167195,14.046,-7.626,1.077,-0.146506,1.440935,-4.220017,100271.05,-84,+34,-296
167205,14.474,-7.461,-0.034,-0.077332,0.957780,-3.785816,100276.89,-84,+43,-294
167215,13.227,-4.540,1.360,0.350484,0.677358,-3.342569,100272.91,-84,+43,-294
167225,12.153,-5.385,2.935,1.018282,0.617762,-2.872716,100272.75,-85,+50,-293
167235,9.855,-8.563,3.282,1.526447,0.575193,-2.354973,100272.75,-85,+52,-292
167245,6.947,-11.340,1.885,1.612648,0.566679,-1.835102,100275.47,-86,+51,-292
167255,5.946,-12.565,0.460,1.435456,0.611908,-1.077377,100275.47,-86,+51,-292
167265,5.889,-12.117,0.063,1.170997,0.627340,-0.145121,100278.25,-87,+50,-292
167275,6.359,-11.404,0.832,0.999126,0.603927,0.777557,100274.11,-89,+46,-290
167285,6.814,-11.676,1.903,0.923566,0.528899,1.599667,100272.39,-91,+39,-290
167290,6.852,-11.543,2.601,0.863970,0.452808,2.113153,100272.39,-91,+39,-290
167300,7.058,-10.887,2.717,0.878869,0.390551,2.575024,100275.46,-94,+30,-289
167310,8.388,-9.664,2.985,1.116722,0.349578,3.227391,100275.24,-95,+19,-288
167320,14.067,1.107,0.687,1.167273,0.314459,3.730766,100271.63,-95,+19,-288
167330,20.226,20.163,-1.899,0.391457,0.167597,3.074143,100273.30,-96,+7,-288
167340,24.592,30.959,-9.578,-0.689258,0.111193,1.474621,100273.30,-96,+4,-286
167350,18.198,12.080,-4.951,0.341970,-0.052697,1.266034,100278.51,-97,-1,-287
167360,15.091,-9.895,2.614,3.243033,-0.150605,2.489354,100278.93,-97,-1,-287
167370,18.185,-13.444,0.182,4.520628,-0.367706,4.295335,100275.05,-96,-22,-287
167379,13.472,-10.202,-0.466,3.194079,-0.232018,4.038858,100279.04,-93,-43,-284
167390,9.396,-7.519,3.492,2.151144,0.283597,3.104473,100279.04,-92,-56,-282
167400,7.903,-4.954,7.533,1.885089,0.582110,3.310932,100273.48,-92,-56,-282
167410,5.057,-4.213,10.722,1.918079,0.799211,3.254528,100272.75,-91,-68,-278
167420,6.084,-5.109,9.799,1.662135,1.191376,2.597905,100270.55,-91,-81,-273
167430,9.479,-8.225,7.350,0.832043,1.119541,2.481905,100274.33,-91,-88,-269
167440,9.482,-9.521,6.180,-0.035296,0.819431,2.516492,100274.33,-91,-88,-269
167450,8.075,-8.606,5.102,-1.067056,0.767817,2.156786,100275.46,-89,-93,-269
167460,8.186,-6.988,2.947,-2.029643,0.729505,1.833795,100272.37,-89,-93,-269
167470,8.788,-5.443,1.511,-2.575588,0.652349,1.647557,100279.85,-89,-91,-272
167480,9.822,-3.563,1.390,-2.354762,0.713009,1.526236,100274.57,-89,-91,-272
167490,10.787,-1.957,0.845,-1.694414,0.667248,1.324034,100274.57,-88,-90,-272
167500,11.279,-1.487,0.844,-0.898378,0.641174,1.184621,100277.84,-88,-90,-272
167510,10.720,-1.741,1.792,-0.184818,0.592753,1.153227,100275.80,-87,-93,-271
167520,9.243,-3.194,2.763,0.162117,0.566147,1.089906,100274.60,-87,-93,-271
167526,8.677,-4.461,2.994,0.180741,0.534753,0.998915,100276.70,-88,-96,-270
167535,8.771,-5.290,3.112,0.036539,0.511872,0.880254,100276.70,-87,-98,-267
167545,9.114,-5.494,3.973,-0.366800,0.501230,0.696144,100276.70,-87,-98,-267
167556,9.049,-4.556,4.676,-0.888267,0.445890,0.559392,100274.01,-89,-98,-268
167565,8.759,-2.805,4.864,-1.262873,0.357028,0.460952,100278.21,-89,-96,-269
167575,8.614,-1.318,4.606,-1.326194,0.286789,0.370493,100271.90,-89,-93,-270
167585,8.922,-0.667,4.031,-1.151130,0.211230,0.338567,100271.90,-89,-93,-270
167596,9.292,-0.556,3.454,-0.834524,0.153762,0.356658,100277.32,-89,-92,-271
167605,9.318,-0.926,3.172,-0.528561,0.112790,0.415190,100277.32,-88,-92,-271
167615,9.237,-1.524,2.979,-0.308800,0.105872,0.481172,100272.66,-89,-93,-271
167625,8.995,-2.234,2.892,-0.237497,0.129285,0.500860,100275.49,-89,-93,-271
167635,8.771,-3.098,2.837,-0.335938,0.168129,0.480640,100275.34,-88,-93,-270
167646,8.894,-3.055,3.208,-0.562084,0.201652,0.450132,100277.95,-87,-93,-271
167655,9.009,-2.264,3.632,-0.717992,0.214422,0.442328,100277.95,-87,-92,-271
167665,8.956,-1.614,3.956,-0.743534,0.192074,0.469466,100275.45,-87,-92,-271
167675,8.810,-1.390,4.129,-0.661589,0.125028,0.509906,100274.56,-88,-93,-272
167686,8.602,-1.726,3.752,-0.548781,0.078735,0.543961,100275.05,-86,-91,-273
167695,8.478,-2.259,3.328,-0.449277,0.104808,0.568970,100277.77,-87,-91,-273
167705,8.486,-2.731,3.129,-0.384360,0.136202,0.583337,100275.52,-87,-91,-273
167715,8.620,-3.623,2.786,-0.387552,0.140991,0.594511,100273.95,-86,-92,-272
167725,9.130,-4.036,2.189,-0.489185,0.163872,0.598236,100273.95,-85,-92,-274
167735,9.525,-3.814,1.994,-0.653075,0.213890,0.594511,100270.76,-85,-92,-274
167745,9.507,-2.841,2.210,-0.809515,0.219744,0.631759,100270.76,-85,-92,-274
167755,8.983,-1.573,2.453,-0.828139,0.187817,0.747227,100276.16,-85,-91,-274
167766,8.417,-0.819,2.650,-0.666910,0.151101,0.895685,100276.32,-84,-93,-275
167776,8.406,-0.973,2.802,-0.417350,0.078735,1.077667,100276.01,-82,-95,-274
167785,8.978,-1.724,2.930,-0.186947,0.035102,1.246346,100272.98,-82,-95,-274
167795,9.691,-2.846,3.076,-0.048598,0.036698,1.359685,100272.98,-81,-97,-274
167805,10.065,-3.999,3.129,-0.053387,0.036698,1.429392,100276.25,-80,-99,-275
167816,10.013,-4.635,3.159,-0.202910,0.043615,1.465043,100275.02,-78,-103,-274
167825,9.810,-4.802,3.343,-0.422671,0.060643,1.465043,100275.38,-78,-103,-274
167835,9.887,-4.082,3.685,-0.663717,0.031909,1.489520,100275.38,-75,-105,-276
167845,9.995,-3.231,3.853,-0.812708,-0.052164,1.548584,100275.38,-73,-107,-277
167856,10.268,-2.557,3.676,-0.809515,-0.126660,1.649153,100273.11,-70,-108,-277
167865,10.647,-2.517,3.333,-0.720653,-0.209669,1.747061,100275.11,-70,-108,-277
167875,10.736,-3.070,2.850,-0.510470,-0.280440,1.876896,100276.58,-66,-111,-279
167880,10.810,-3.795,2.651,-0.359882,-0.317687,1.972676,100269.45,-63,-113,-281
167890,10.891,-4.578,2.441,-0.319442,-0.341632,2.033868,100269.45,-63,-113,-281
167901,11.010,-5.283,2.484,-0.355626,-0.342164,2.081226,100273.90,-59,-117,-282
167910,11.113,-5.690,2.623,-0.479607,-0.332586,2.109960,100275.41,-56,-120,-284
167920,11.401,-5.906,2.930,-0.672763,-0.316091,2.121134,100273.43,-50,-122,-284
167930,11.622,-5.858,3.321,-0.911680,-0.288421,2.125391,100277.20,-50,-122,-284
167941,12.236,-5.819,3.155,-1.195295,-0.233614,2.114749,100277.20,-45,-124,-286
167950,13.489,-5.103,3.037,-1.578414,-0.158054,2.112621,100281.16,-41,-124,-289
167960,15.385,-3.238,3.147,-2.009955,-0.133577,2.138162,100276.64,-38,-122,-292
167970,17.362,-0.973,3.351,-2.281331,-0.173486,2.236070,100273.77,-38,-122,-292
167981,18.847,0.398,3.145,-2.293569,-0.207008,2.362712,100275.66,-32,-119,-298
167990,19.346,0.752,2.223,-2.229716,-0.148476,2.454235,100275.66,-28,-117,-301
168000,18.501,0.911,1.465,-2.313790,-0.030880,2.458492,100274.58,-23,-114,-304
168010,17.468,1.216,2.259,-2.479808,0.038826,2.428162,100272.95,-23,-114,-304
168020,16.646,-0.177,3.847,-2.390413,-0.031944,2.504786,100275.67,-19,-110,-308
168031,16.532,-3.507,5.117,-1.867882,-0.161247,2.794785,100271.02,-14,-108,-311
168040,18.153,-4.769,6.376,-1.219240,-0.181467,3.114051,100271.02,-7,-107,-314
168050,18.895,-3.651,8.666,-0.834524,-0.172953,3.127886,100276.72,-7,-107,-314
168060,16.696,-2.520,9.665,-0.699901,-0.313962,2.982620,100267.34,-2,-109,-314
168071,13.615,-3.313,8.372,-0.601460,-0.598109,2.850125,100270.95,+3,-111,-316
168080,10.914,-3.805,7.988,-0.406176,-0.804036,2.655372,100270.22,+10,-112,-317
168090,8.452,-2.570,7.091,-0.097552,-0.953558,2.325464,100270.22,+10,-112,-317
168100,8.011,-0.714,3.313,0.071659,-1.031246,1.947667,100275.79,+17,-115,-318
168111,7.691,-2.110,1.872,0.324411,-1.137668,1.680015,100275.16,+23,-117,-319
168116,4.446,-8.952,3.966,0.634099,-1.130751,1.401190,100273.65,+23,-117,-319
168125,2.558,-12.772,4.047,0.793731,-1.009962,1.069153,100273.65,+29,-120,-319
168135,4.527,-6.896,3.556,0.697952,-0.865760,0.816933,100271.60,+33,-123,-318
168145,4.547,-1.786,2.443,0.184466,-0.906733,0.123062,100271.60,+36,-123,-319
168156,2.536,0.870,1.919,-0.129479,-0.904072,-0.792699,100272.99,+36,-123,-319
168166,1.748,2.163,1.508,-0.034763,-0.962072,-1.105579,100271.87,+38,-121,-320
168175,1.094,1.667,1.248,0.391457,-1.128623,-1.176882,100272.59,+39,-121,-320
168185,0.259,0.260,1.223,0.854392,-1.211632,-1.343432,100272.59,+41,-123,-320
168196,0.049,-0.995,1.189,1.118318,-1.237705,-1.682386,100272.59,+41,-123,-320
168206,0.540,-1.524,1.288,1.142795,-1.221742,-2.180973,100272.49,+43,-125,-319
168215,1.364,-1.207,1.620,1.067768,-1.190347,-2.673707,100270.76,+42,-125,-317
168225,2.209,-0.565,1.822,1.029456,-1.162678,-3.080771,100272.34,+40,-125,-318
168236,2.959,-0.531,2.064,1.114594,-1.124366,-3.411743,100273.43,+40,-125,-318
168245,3.409,-1.068,2.438,1.304025,-1.083393,-3.682587,100273.43,+40,-126,-316
168256,3.729,-1.944,2.697,1.508355,-1.019008,-3.911926,100270.23,+35,-128,-315
168265,3.995,-2.587,2.926,1.641382,-0.941320,-4.151375,100267.60,+30,-130,-313
168275,4.487,-3.068,3.188,1.716410,-0.840219,-4.379651,100269.96,+30,-130,-313
168286,5.425,-3.333,3.300,1.763235,-0.734861,-4.582385,100269.96,+26,-129,-311
168296,6.656,-3.372,3.586,1.846777,-0.660366,-4.740421,100271.34,+19,-132,-309
168305,7.798,-3.483,4.010,2.017584,-0.618861,-4.832476,100271.72,+13,-132,-306
168315,8.865,-3.929,4.478,2.209676,-0.585871,-4.894201,100271.72,+13,-132,-306
168326,9.938,-4.664,4.864,2.363455,-0.559265,-4.949008,100270.45,+6,-133,-302
168336,11.191,-5.533,5.183,2.420923,-0.535320,-4.973485,100268.20,+0,-135,-299
168345,12.076,-6.034,5.794,2.375694,-0.515632,-4.983063,100268.20,-6,-135,-295
168351,12.273,-6.141,6.319,2.281510,-0.510311,-5.009668,100270.94,-6,-135,-295
168360,12.231,-6.132,6.778,2.113896,-0.510311,-5.057559,100271.94,-14,-135,-292
168371,12.134,-6.200,7.199,1.848373,-0.454439,-5.136311,100270.16,-22,-133,-288
168380,12.310,-6.447,7.451,1.584979,-0.321944,-5.224109,100266.33,-22,-133,-288
168390,12.877,-6.765,7.684,1.312539,-0.119742,-5.299136,100266.33,-31,-129,-286
168400,13.300,-7.151,7.647,1.004447,0.099487,-5.356072,100272.40,-39,-123,-284
168411,13.517,-7.088,7.561,0.679328,0.315523,-5.387999,100269.73,-49,-116,-282
168421,13.490,-6.609,7.346,0.434025,0.536349,-5.401301,100270.30,-49,-116,-282
168430,14.195,-6.563,7.145,0.255236,0.795486,-5.329998,100268.95,-60,-107,-279
168440,14.775,-6.919,6.933,0.087622,1.007266,-5.227834,100268.95,-69,-97,-277
168451,14.778,-7.392,6.579,-0.136928,1.179670,-5.083632,100274.00,-78,-86,-274
168461,14.228,-7.445,6.038,-0.337002,1.356330,-4.876109,100274.83,-78,-86,-274
168470,14.025,-7.034,2.350,-0.664781,1.443064,-4.685614,100273.16,-87,-74,-270
168480,14.169,-8.066,0.073,-1.037258,1.233413,-4.380715,100272.22,-95,-61,-268
168491,13.666,-4.941,0.886,-0.749919,0.853486,-3.876807,100272.22,-100,-48,-266
168501,12.881,-3.369,2.332,-0.165130,0.662991,-3.431431,100272.58,-100,-48,-266
168510,11.049,-5.777,3.815,0.543640,0.597009,-2.867395,100275.34,-103,-42,-264
168520,7.853,-9.747,3.353,0.974649,0.598606,-2.321982,100272.27,-107,-37,-262
168530,5.336,-11.795,1.707,0.986887,0.622551,-1.540313,100274.98,-110,-36,-259
168541,5.113,-10.729,0.347,0.888447,0.605523,-0.483543,100274.98,-110,-36,-259
168551,6.432,-8.871,0.378,0.922502,0.564551,0.581741,100275.20,-112,-37,-257
168560,7.742,-8.901,1.321,1.082135,0.477817,1.477281,100274.63,-112,-43,-254
168570,8.013,-10.115,2.229,1.189621,0.371395,2.154657,100275.98,-112,-52,-252
168581,7.684,-10.852,2.033,1.272098,0.313927,2.681978,100274.42,-112,-52,-252
168586,7.788,-10.844,1.859,1.428006,0.301688,3.090106,100274.42,-110,-63,-249
168595,8.327,-10.419,1.877,1.681291,0.274551,3.529629,100274.42,-106,-78,-246
168605,11.768,-3.833,1.615,1.940428,0.272422,4.080362,100275.74,-106,-78,-246
168615,17.456,14.256,-0.993,1.528575,0.085652,3.769610,100274.63,-103,-93,-243
168626,22.348,32.128,-3.159,0.995933,-0.013853,2.330253,100272.38,-99,-103,-241
168636,18.457,24.102,-6.425,1.031585,-0.268733,1.280933,100272.52,-96,-109,-241
168645,14.398,1.591,0.395,3.557510,-0.454439,1.963098,100276.55,-96,-109,-241
168655,15.475,-14.391,1.333,5.624756,-0.494880,3.566876,100278.07,-93,-125,-232
168666,15.726,-16.065,-2.311,4.926628,-0.549155,4.378344,100278.07,-84,-146,-222
168676,10.755,-12.464,-0.462,2.709859,-0.067596,3.366803,100274.98,-77,-158,-218
168685,8.889,-6.229,6.285,1.438648,0.521982,2.966657,100272.10,-77,-158,-218
168695,6.564,-2.834,12.301,1.407254,0.834330,3.108198,100272.10,-72,-166,-214
168707,7.717,-2.464,10.116,1.696899,1.247780,2.850302,100274.05,-67,-177,-206
168716,10.144,-6.660,7.210,1.216759,1.142422,2.742639,100274.05,-62,-185,-201
168726,8.488,-8.471,7.780,0.768190,0.794422,2.743703,100273.43,-62,-185,-201
168735,6.208,-6.729,7.980,-0.083185,0.769945,2.449978,100270.87,-57,-190,-199
168745,6.853,-6.597,4.114,-1.315019,0.753982,2.147740,100272.82,-52,-194,-199
168756,7.837,-7.744,1.047,-2.188744,0.631064,1.857740,100274.02,-48,-194,-204
168766,9.382,-6.472,0.340,-2.454267,0.644899,1.670437,100277.43,-48,-194,-204
168776,10.780,-3.839,0.885,-2.172248,0.657138,1.532089,100272.24,-45,-193,-210
168785,11.570,-2.062,0.846,-1.558726,0.629468,1.355960,100272.24,-42,-193,-212
168796,11.594,-1.713,0.773,-0.799405,0.569340,1.267098,100272.24,-39,-193,-213
168806,9.962,-2.945,1.687,-0.158745,0.513468,1.213355,100275.84,-39,-193,-213
168815,8.921,-4.137,2.400,0.065273,0.485798,1.125557,100275.21,-37,-196,-212
168825,8.833,-5.366,2.398,-0.019864,0.487395,0.953685,100273.90,-35,-198,-211
168836,9.159,-5.818,3.099,-0.286983,0.512404,0.723814,100269.98,-33,-199,-211
168846,9.100,-5.233,4.014,-0.699368,0.503358,0.551943,100269.98,-33,-199,-211
168856,8.613,-3.958,4.202,-1.083020,0.465046,0.456695,100274.16,-33,-199,-212
168865,8.562,-2.521,4.020,-1.278836,0.430459,0.364108,100273.62,-32,-197,-215
168876,9.007,-1.413,3.625,-1.216047,0.382037,0.302383,100273.70,-33,-195,-218
168886,9.515,-1.092,3.316,-1.026084,0.328826,0.310365,100273.70,-33,-195,-218
168896,9.695,-1.289,3.044,-0.773864,0.275083,0.367833,100275.60,-33,-195,-219
168905,9.421,-1.637,2.963,-0.566873,0.224000,0.423704,100275.60,-31,-194,-220
168915,8.940,-2.094,3.188,-0.435974,0.197395,0.449778,100272.52,-31,-193,-221
168926,8.630,-2.727,3.276,-0.478543,0.183028,0.434878,100276.87,-30,-193,-223
168936,8.826,-3.091,3.317,-0.659460,0.205909,0.404016,100273.04,-30,-194,-223
168941,9.093,-3.072,3.434,-0.820689,0.227193,0.386989,100273.04,-28,-193,-224
168950,9.237,-2.682,3.462,-0.936689,0.221340,0.400823,100277.50,-28,-193,-224
168961,9.187,-2.120,3.455,-0.949992,0.185156,0.445521,100275.25,-28,-192,-226
168971,8.910,-2.015,3.486,-0.840378,0.146845,0.483833,100275.45,-26,-191,-227
168981,8.683,-2.382,3.257,-0.706818,0.117579,0.506181,100274.05,-26,-191,-229
168990,8.659,-2.780,3.123,-0.631258,0.096294,0.538108,100274.05,-26,-191,-229
169000,8.721,-3.137,2.906,-0.626469,0.083523,0.574823,100280.08,-24,-191,-231
169011,8.854,-3.308,2.902,-0.642433,0.079799,0.600365,100273.86,-24,-191,-233
169021,8.862,-3.105,3.081,-0.688726,0.048404,0.629098,100272.91,-21,-190,-234
169030,8.837,-2.998,3.061,-0.691919,0.026056,0.663686,100275.73,-21,-190,-234
169040,9.024,-2.798,3.341,-0.700433,-0.033541,0.697209,100275.73,-20,-189,-235
169051,8.969,-2.852,3.129,-0.677552,-0.089944,0.744566,100277.15,-17,-189,-237
169061,9.021,-2.880,2.704,-0.584433,-0.075045,0.788731,100272.96,-15,-189,-239
169071,9.031,-2.406,2.625,-0.553570,-0.065999,0.856841,100275.21,-15,-189,-239
169080,8.739,-1.580,2.380,-0.488653,-0.074513,0.984016,100274.48,-14,-189,-241
169091,8.466,-0.947,2.345,-0.300818,-0.085155,1.156951,100274.48,-10,-191,-241
169101,8.424,-1.200,2.358,-0.028378,-0.126128,1.348511,100272.93,-5,-193,-241
169111,8.972,-2.341,2.486,0.216392,-0.161247,1.499630,100269.68,-5,-193,-241
169120,9.557,-3.978,2.611,0.291420,-0.195834,1.594346,100275.13,-1,-194,-239
169131,9.991,-5.246,2.632,0.184466,-0.181999,1.624676,100272.88,+2,-197,-241
169141,10.221,-5.964,2.361,-0.073607,-0.149008,1.614566,100272.88,+7,-199,-240
169151,10.458,-5.607,2.199,-0.352433,-0.119742,1.609245,100276.07,+12,-199,-242
169160,10.653,-4.706,2.341,-0.548249,-0.132513,1.649153,100275.60,+12,-201,-242
169170,10.676,-3.985,2.440,-0.550910,-0.192109,1.720456,100274.34,+17,-201,-244
169177,10.705,-3.855,2.493,-0.469497,-0.246385,1.766217,100276.59,+17,-201,-244
169186,10.799,-4.036,2.709,-0.376378,-0.306513,1.818364,100276.59,+22,-201,-245
169196,11.039,-4.556,2.825,-0.327424,-0.372495,1.874767,100276.59,+28,-203,-246
169206,11.491,-5.216,2.993,-0.396066,-0.398568,1.910419,100271.23,+34,-204,-247
169216,12.061,-5.230,3.521,-0.637644,-0.434751,1.954052,100274.53,+34,-204,-247
169226,12.245,-4.540,3.767,-0.922855,-0.472531,2.001942,100272.73,+41,-203,-249
169236,12.742,-4.343,3.445,-1.064396,-0.474660,2.053024,100272.73,+47,-202,-253
169246,13.876,-4.650,3.108,-1.158579,-0.458164,2.076969,100274.34,+55,-201,-256
169255,15.306,-4.313,3.281,-1.352799,-0.454439,2.065263,100274.34,+55,-201,-256
169266,16.989,-3.381,3.278,-1.632689,-0.439540,2.071116,100270.16,+61,-198,-259
169276,18.690,-1.632,3.554,-2.002505,-0.353339,2.110492,100273.19,+68,-197,-264
169286,19.544,1.063,4.432,-2.391478,-0.258623,2.176474,100270.58,+75,-191,-271
169295,19.296,4.291,5.434,-2.574523,-0.228825,2.298327,100270.58,+75,-191,-271
169306,18.390,5.163,6.119,-2.396266,-0.242660,2.538308,100276.09,+81,-185,-277
169316,17.623,1.653,5.764,-1.866817,-0.259155,2.848528,100274.47,+88,-181,-281
169326,17.552,-4.584,5.439,-1.257552,-0.263944,3.229519,100268.03,+97,-178,-284
169336,19.064,-6.879,6.433,-0.913809,-0.192109,3.477482,100270.91,+97,-178,-284
169346,19.294,-5.062,8.419,-1.011185,-0.109100,3.309335,100272.91,+106,-175,-286
169356,17.035,-2.151,9.631,-1.244249,-0.241596,3.016675,100269.28,+113,-173,-288
169366,14.328,-1.236,9.006,-1.275643,-0.623650,2.876730,100269.08,+121,-169,-291
169376,11.892,-1.615,7.440,-0.923919,-0.942916,2.787868,100269.08,+121,-169,-291
169385,9.410,-1.231,5.843,-0.369993,-1.079136,2.498400,100272.59,+131,-166,-291
169396,8.429,-0.802,2.419,0.104117,-1.215356,2.165832,100272.59,+138,-166,-291
169406,7.310,-2.930,1.331,0.525016,-1.323907,1.843905,100276.51,+145,-166,-289
169411,3.946,-11.109,3.444,0.824594,-1.329760,1.490584,100274.84,+145,-166,-289
169420,2.368,-12.565,3.932,1.073089,-1.215356,1.203777,100274.10,+152,-169,-286
169431,4.858,-5.026,3.357,1.200795,-1.064769,1.061172,100270.27,+156,-172,-282
169441,4.219,-1.055,2.401,0.978374,-1.183430,0.416255,100270.27,+156,-172,-282
169451,2.231,1.300,2.037,0.949108,-1.219081,-0.442038,100276.38,+159,-175,-279
169461,1.638,2.454,2.003,1.170465,-1.291980,-0.732570,100272.81,+160,-179,-273
169470,1.016,1.497,1.915,1.591896,-1.518659,-0.787910,100270.30,+160,-185,-269
169481,0.103,-0.134,1.894,1.959052,-1.627209,-1.038533,100273.02,+160,-185,-269
169491,-0.176,-1.430,2.017,2.054832,-1.609650,-1.503065,100273.02,+159,-191,-261
169501,0.303,-2.180,2.040,1.917015,-1.554310,-2.014423,100274.99,+158,-198,-254
169510,0.959,-1.922,2.231,1.710557,-1.537283,-2.460331,100274.10,+153,-205,-248
169521,1.475,-1.279,2.363,1.572740,-1.530897,-2.848239,100271.07,+153,-205,-248
169531,2.001,-1.241,2.371,1.534428,-1.519191,-3.226391,100270.49,+147,-210,-242
169541,2.453,-1.719,2.429,1.597217,-1.501099,-3.496348,100270.49,+140,-217,-236
169551,2.964,-2.372,2.479,1.670648,-1.474494,-3.761339,100270.62,+131,-222,-230
169561,3.472,-2.879,2.601,1.710557,-1.434054,-4.008770,100271.55,+131,-222,-230
169571,4.148,-3.128,2.824,1.667456,-1.379778,-4.298770,100271.09,+119,-227,-224
169581,4.931,-3.156,2.982,1.586043,-1.318586,-4.563229,100270.20,+107,-230,-219
169591,5.942,-3.018,3.316,1.570612,-1.255797,-4.744146,100270.20,+93,-235,-213
169601,7.129,-3.135,3.986,1.691933,-1.186090,-4.853760,100268.00,+93,-235,-213
169611,8.335,-3.548,4.606,1.896263,-1.117980,-4.916549,100267.00,+78,-236,-206
169621,9.560,-4.159,5.031,2.036740,-1.058384,-4.979338,100268.31,+64,-238,-200
169631,10.665,-4.694,5.401,2.066006,-0.998256,-5.051705,100268.52,+48,-239,-194
169640,11.532,-5.062,5.836,2.038868,-0.932806,-5.101724,100268.52,+31,-238,-187
169651,12.013,-5.337,6.346,1.999492,-0.847669,-5.149613,100271.06,+31,-238,-187
169661,12.573,-5.560,6.902,1.947878,-0.732201,-5.216659,100268.55,+16,-234,-181
169671,12.902,-6.102,7.624,1.887217,-0.602366,-5.319356,100268.55,+0,-232,-177
169681,13.023,-6.957,8.129,1.748336,-0.458696,-5.425778,100268.34,-17,-225,-172
169691,13.281,-7.613,8.311,1.490263,-0.256495,-5.515173,100268.34,-17,-225,-172
169701,13.939,-7.979,8.207,1.170997,-0.007999,-5.573705,100272.86,-35,-218,-169
169711,14.438,-7.906,8.044,0.819273,0.246349,-5.637558,100267.05,-51,-209,-165
169721,14.978,-7.827,7.891,0.442007,0.506019,-5.663099,100267.05,-66,-198,-163
169731,15.339,-7.627,7.736,0.099860,0.743872,-5.651925,100269.98,-66,-198,-163
169741,15.553,-7.185,7.625,-0.165662,0.974807,-5.593393,100269.98,-82,-185,-161
169751,15.656,-6.621,7.302,-0.314121,1.226495,-5.439081,100272.76,-96,-172,-160
169761,15.937,-6.860,2.848,-0.508341,1.387192,-5.221981,100274.12,-108,-157,-158
169766,16.137,-9.208,-0.617,-0.890928,1.260550,-5.044788,100274.45,-108,-157,-158
169776,15.710,-7.865,-0.204,-0.743534,0.851358,-4.593027,100274.45,-118,-143,-157
169786,14.588,-4.152,1.524,-0.133204,0.510808,-4.055064,100273.80,-118,-143,-157
169796,12.191,-5.834,3.869,0.569713,0.410239,-3.469743,100273.80,-125,-133,-155
169806,7.882,-11.221,4.130,1.028392,0.428331,-2.903578,100271.69,-130,-124,-153
169817,3.927,-15.677,2.246,0.892704,0.533156,-2.083065,100273.59,-134,-117,-150
169826,3.910,-13.794,0.992,0.348356,0.602331,-0.910827,100277.50,-134,-117,-150
169836,6.502,-8.842,0.940,0.092943,0.569872,0.249172,100277.50,-136,-117,-147
169846,8.283,-6.667,1.734,0.455310,0.420881,1.202181,100277.50,-134,-120,-145
169857,8.297,-8.662,2.521,0.983695,0.258056,1.966290,100275.23,-131,-126,-142
169866,7.654,-11.617,2.426,1.299768,0.210698,2.567042,100274.50,-127,-126,-139
169876,7.530,-12.455,2.191,1.348190,0.271358,3.056051,100272.61,-127,-136,-139
169886,8.367,-11.045,1.933,1.318392,0.340000,3.517922,100273.34,-120,-144,-135
169895,11.703,-5.387,2.387,1.398208,0.377780,3.974473,100273.34,-113,-157,-131
169907,17.180,12.056,-0.858,1.022539,0.162808,3.745133,100274.29,-105,-169,-128
169916,21.153,29.215,-2.038,0.405291,0.040955,2.303116,100273.23,-105,-169,-128
169926,18.738,24.801,-6.141,0.222246,-0.142091,1.049997,100273.37,-102,-172,-128
169936,15.228,4.475,-1.429,2.236813,-0.359192,1.548584,100273.37,-99,-176,-123
169947,15.312,-11.859,2.724,4.450390,-0.397504,3.059244,100272.23,-91,-185,-113
169956,15.596,-12.255,-1.098,4.522757,-0.539577,4.068656,100276.57,-91,-185,-113
169966,11.193,-9.356,-1.348,2.979638,-0.237871,3.318381,100276.57,-80,-195,-105
169976,9.342,-5.903,2.865,1.990446,0.255395,2.843739,100278.09,-73,-202,-100
169987,8.145,-3.332,7.267,1.772281,0.492716,3.020932,100273.85,-64,-208,-95
169996,6.595,-3.405,8.939,2.049510,0.699707,2.861299,100273.85,-64,-208,-95
170002,7.800,-4.674,7.615,2.022905,0.931706,2.506914,100272.28,-57,-213,-86
170011,9.631,-7.320,7.354,1.602538,0.967358,2.437207,100273.75,-57,-213,-86
170021,9.397,-7.812,7.807,1.019878,0.780587,2.470730,100274.00,-49,-217,-81
170031,7.533,-5.860,7.594,0.244062,0.710881,2.169556,100271.17,-43,-222,-78
170041,7.293,-6.026,4.538,-0.687130,0.630000,1.874235,100271.17,-36,-225,-79
170051,8.242,-6.565,1.894,-1.415056,0.483138,1.649685,100272.47,-36,-225,-79
170061,9.255,-5.469,1.332,-1.667276,0.469303,1.472492,100273.89,-31,-228,-83
170072,10.153,-3.243,1.828,-1.617258,0.478349,1.321373,100274.94,-27,-232,-87
170081,10.501,-1.567,1.938,-1.315019,0.436844,1.184089,100271.69,-22,-233,-90
170091,10.634,-0.897,1.796,-0.763222,0.430991,1.083520,100271.69,-22,-233,-90
170101,10.149,-1.579,1.964,-0.172580,0.402257,1.049465,100275.94,-19,-236,-90
170112,9.308,-3.252,1.997,0.142961,0.367670,1.013814,100274.20,-15,-236,-90
170121,9.309,-4.421,2.072,0.146154,0.329890,0.928144,100275.56,-13,-238,-88
170131,9.515,-5.176,2.606,-0.061369,0.289450,0.781282,100274.27,-10,-239,-89
170141,9.280,-5.018,3.109,-0.428525,0.252734,0.638676,100274.27,-10,-239,-89
170151,8.665,-4.438,3.035,-0.859001,0.236771,0.499796,100275.99,-8,-240,-92
170161,8.511,-3.103,3.027,-1.189442,0.234643,0.404548,100269.71,-7,-240,-94
170171,8.959,-1.768,2.850,-1.332047,0.250074,0.362512,100276.21,-6,-240,-97
170181,9.755,-0.829,2.350,-1.227221,0.269230,0.371025,100274.32,-6,-240,-97
170191,9.954,-0.341,1.758,-0.953717,0.269230,0.428493,100274.32,-5,-242,-101
170202,9.722,-0.449,1.687,-0.612103,0.255927,0.538108,100276.34,-3,-242,-103
170211,9.555,-1.051,2.078,-0.253993,0.237835,0.612071,100276.91,-1,-244,-102
170221,9.138,-1.929,2.644,-0.064029,0.233578,0.660493,100273.82,-1,-244,-102
170231,8.832,-2.971,3.167,-0.133204,0.245285,0.675924,100273.98,+1,-244,-103
170236,8.768,-3.477,3.370,-0.286451,0.255927,0.674328,100273.98,+1,-244,-103
170246,8.741,-3.441,3.419,-0.486525,0.266569,0.668475,100273.98,+4,-244,-103
170256,8.886,-2.712,3.360,-0.682873,0.260184,0.673264,100276.06,+6,-246,-106
170266,9.002,-2.050,3.023,-0.711075,0.226661,0.706787,100271.09,+8,-247,-107
170276,9.099,-1.918,2.683,-0.584965,0.181964,0.753612,100274.13,+8,-247,-107
170287,9.177,-2.156,2.417,-0.420543,0.143652,0.809484,100272.12,+10,-248,-108
170297,9.140,-2.433,2.277,-0.317846,0.123432,0.866952,100275.20,+13,-248,-110
170306,9.051,-2.801,2.402,-0.281662,0.115450,0.911117,100274.88,+17,-249,-110
170316,9.185,-3.247,2.703,-0.280066,0.102679,0.956878,100274.88,+17,-249,-110
170327,9.266,-3.560,2.821,-0.327424,0.110129,0.986676,100275.62,+19,-249,-110
170336,9.252,-3.619,2.707,-0.430653,0.129285,1.001043,100272.63,+24,-250,-112
170346,9.213,-3.419,2.466,-0.541864,0.133542,1.030841,100272.63,+28,-252,-114
170357,9.233,-2.753,2.402,-0.629130,0.134251,1.100370,100273.80,+31,-251,-115
170366,9.303,-2.029,2.424,-0.634451,0.111725,1.188878,100273.80,+31,-251,-115
170377,9.246,-1.549,2.633,-0.518451,0.069157,1.322438,100274.46,+36,-253,-117
170386,9.230,-1.890,2.633,-0.312525,0.031909,1.464511,100270.79,+42,-254,-119
170396,9.597,-2.768,2.684,-0.151295,0.006368,1.584768,100273.16,+47,-255,-119
170406,9.873,-3.535,3.073,-0.101277,-0.027687,1.683740,100277.20,+47,-255,-119
170417,9.857,-4.271,3.073,-0.140653,-0.053761,1.755043,100274.00,+53,-256,-120
170427,9.923,-4.408,3.123,-0.269956,-0.055357,1.781116,100273.80,+58,-258,-120
170436,10.379,-4.409,2.829,-0.394470,-0.083027,1.826345,100273.80,+65,-257,-121
170446,11.304,-4.605,2.149,-0.445020,-0.119742,1.887538,100273.80,+65,-257,-121
170457,12.021,-4.501,1.922,-0.478011,-0.169761,1.969483,100274.66,+72,-258,-123
170466,12.178,-4.404,1.989,-0.462580,-0.239999,2.071116,100274.15,+79,-258,-125
170476,12.118,-4.480,2.344,-0.445020,-0.319816,2.173281,100272.57,+89,-258,-125
170486,12.096,-4.809,2.538,-0.457259,-0.374623,2.255226,100273.82,+89,-258,-125
170497,12.382,-5.348,2.888,-0.596139,-0.381540,2.311097,100273.82,+96,-258,-128
170507,13.051,-5.416,3.498,-0.899442,-0.370898,2.346749,100273.05,+105,-258,-131
170516,14.313,-4.707,4.031,-1.299588,-0.367173,2.388786,100271.44,+113,-256,-136
170526,16.448,-3.176,4.889,-1.680047,-0.387926,2.440400,100271.58,+113,-256,-136
170536,18.858,-1.195,6.171,-1.941845,-0.375155,2.547886,100271.58,+122,-254,-142
170547,20.769,0.718,6.635,-2.075936,-0.263412,2.710712,100275.78,+133,-251,-149
170556,20.828,1.768,5.726,-2.241423,-0.104843,2.895354,100275.78,+143,-248,-155
170566,20.127,2.212,5.374,-2.475551,0.076606,2.951758,100272.27,+143,-248,-155
170576,19.316,1.989,6.637,-2.627734,0.253799,2.912914,100271.59,+154,-244,-165
170587,18.180,-0.775,7.375,-2.576120,0.272955,3.002840,100268.08,+163,-238,-174
170596,17.101,-5.514,7.376,-2.198854,0.102679,3.303482,100268.08,+174,-232,-180
170606,17.729,-5.645,7.649,-1.569368,0.019138,3.513134,100275.47,+174,-232,-180
170616,17.524,-3.234,7.429,-1.256487,-0.032476,3.253464,100269.81,+185,-227,-185
170627,14.586,-1.683,7.015,-1.160708,-0.124531,2.873005,100272.06,+195,-221,-189
170637,12.142,-1.025,5.800,-1.183056,-0.346953,2.516492,100272.76,+203,-216,-191
170646,9.916,-1.339,4.956,-1.083020,-0.692293,2.268529,100272.29,+203,-216,-191
170656,6.612,-2.447,3.974,-0.685534,-0.901412,2.050896,100273.70,+210,-212,-194
170667,5.953,-1.517,1.359,-0.322635,-0.921632,1.760896,100275.63,+217,-210,-194
170677,3.954,-7.838,1.872,-0.015075,-0.949834,1.251667,100275.63,+222,-207,-192
170686,0.296,-11.190,4.799,0.422319,-0.602898,0.622181,100269.35,+222,-207,-192
170696,3.882,-3.068,1.980,0.554814,-0.623118,0.564713,100269.35,+224,-207,-190
170706,4.058,-0.065,1.102,0.305255,-0.750825,-0.094039,100271.83,+226,-206,-187
170717,2.611,2.007,0.512,0.375493,-0.794458,-0.915084,100272.25,+224,-209,-185
170727,2.041,3.602,0.363,0.653787,-0.876403,-1.270001,100272.25,+224,-209,-185
170736,1.371,2.665,0.440,1.156630,-1.033375,-1.422185,100268.38,+221,-213,-182
170746,0.505,0.914,0.712,1.699382,-1.123834,-1.695157,100268.38,+217,-217,-175
170757,0.218,-0.503,0.990,2.016520,-1.129687,-2.107010,100272.89,+211,-222,-168
170767,0.783,-1.264,1.325,2.119217,-1.094567,-2.525780,100268.41,+211,-222,-168
170776,1.659,-1.471,1.694,2.131988,-1.085522,-2.914220,100268.67,+203,-229,-159
170786,2.364,-1.534,1.843,2.134116,-1.072751,-3.325541,100268.67,+193,-236,-151
170797,3.062,-1.850,1.866,2.143162,-1.042953,-3.716110,100268.67,+182,-242,-143
170807,3.794,-2.257,1.876,2.149015,-1.014219,-4.042825,100268.72,+167,-242,-143
170816,4.459,-2.560,2.003,2.143694,-0.980164,-4.316862,100268.97,+167,-248,-136
170827,5.242,-3.026,2.093,2.146709,-0.924292,-4.557730,100268.80,+152,-253,-128
170836,6.105,-3.439,2.052,2.148483,-0.864696,-4.739889,100268.80,+134,-258,-120
170847,7.124,-4.005,2.534,2.184134,-0.819467,-4.896329,100268.80,+117,-261,-112
170857,7.980,-4.428,3.171,2.300134,-0.804036,-4.983595,100272.25,+117,-261,-112
170866,8.800,-4.890,3.815,2.408684,-0.785412,-5.027761,100270.05,+98,-262,-104
170876,9.692,-5.408,4.356,2.451786,-0.778494,-5.083100,100269.42,+78,-262,-95
170887,10.702,-5.824,4.804,2.393785,-0.746036,-5.163980,100269.42,+59,-262,-88
170897,11.845,-6.058,5.618,2.253841,-0.666219,-5.221981,100270.05,+59,-262,-88
170906,12.564,-6.040,6.673,2.080373,-0.622054,-5.245393,100270.05,+40,-258,-82
170916,12.475,-5.971,7.308,1.919676,-0.624183,-5.274659,100272.93,+21,-252,-75
170927,12.342,-6.195,7.637,1.780263,-0.564586,-5.335852,100269.37,+1,-246,-71
170937,12.480,-6.699,7.877,1.594025,-0.431559,-5.391723,100268.43,+1,-246,-71
170946,12.859,-7.310,7.743,1.266777,-0.257559,-5.392787,100268.43,-15,-238,-67
170956,13.045,-7.441,7.721,0.825126,-0.041522,-5.373099,100271.24,-33,-230,-65
170967,12.597,-6.945,7.677,0.421255,0.229854,-5.400769,100269.93,-51,-220,-64
170977,12.633,-6.663,7.628,0.075383,0.555505,-5.370439,100273.23,-51,-220,-64
170987,13.205,-6.890,7.499,-0.239626,0.885413,-5.317228,100267.29,-64,-209,-63
170996,13.919,-7.292,7.121,-0.571662,1.175945,-5.231558,100273.63,-80,-198,-63
171006,14.290,-7.125,6.546,-0.845167,1.446789,-5.086824,100271.12,-92,-185,-63
171017,14.688,-6.104,2.686,-1.079295,1.642605,-4.896861,100272.79,-92,-185,-63
171026,14.943,-7.580,-1.225,-1.425698,1.468073,-4.627614,100272.79,-102,-174,-63
171036,15.069,-5.005,-0.271,-0.954781,0.963101,-4.008770,100269.13,-112,-162,-62
171046,14.590,-2.426,1.052,-0.152892,0.618294,-3.485174,100269.13,-119,-154,-61
171057,12.297,-5.035,2.977,0.797456,0.508679,-2.868459,100276.80,-119,-154,-61
171062,9.268,-8.732,3.284,1.332227,0.504954,-2.440643,100273.97,-124,-144,-58
171071,6.308,-12.311,2.283,1.505162,0.543798,-1.891505,100272.34,-126,-139,-54
171081,4.865,-13.840,0.217,1.387566,0.520386,-0.863469,100273.13,-126,-139,-54
171091,6.001,-11.453,-0.720,1.174722,0.447487,0.266200,100273.13,-126,-137,-51
171102,7.855,-8.910,-0.176,1.268373,0.323505,1.276676,100275.64,-122,-139,-48
171112,8.770,-8.992,1.177,1.617970,0.160679,2.134969,100271.66,-118,-145,-45
171121,8.139,-11.032,1.954,1.902648,0.021267,2.815537,100274.06,-118,-145,-45
171131,7.982,-12.530,2.101,2.064409,0.005835,3.355097,100271.97,-112,-152,-40
171142,8.945,-12.639,2.430,2.067602,0.067560,3.884014,100271.97,-103,-160,-35
171152,13.347,-3.290,2.387,1.749933,0.177175,4.224032,100274.45,-94,-170,-31
171161,18.863,15.767,1.821,0.692098,0.138863,3.453005,100272.20,-94,-170,-31
171171,21.092,32.604,0.378,-0.280598,0.206973,1.741208,100272.55,-89,-176,-31
171182,15.094,19.252,-2.944,-0.109259,-0.034073,1.009025,100269.10,-85,-178,-31
171192,12.281,-1.889,2.884,2.534262,-0.210733,2.010455,100269.10,-80,-180,-25
171202,15.161,-11.932,1.748,4.469014,-0.388990,3.677555,100274.86,-80,-180,-25
171211,14.663,-11.987,-3.353,3.675106,-0.656109,4.044179,100276.44,-71,-184,-15
171222,9.639,-10.087,1.281,2.185199,-0.205944,2.944840,100274.86,-62,-188,-11
171232,9.291,-5.835,9.936,1.731309,0.441633,2.566510,100271.63,-56,-190,-5
171242,10.974,-4.390,9.500,1.901584,0.917339,2.888437,100271.63,-56,-190,-5
171251,12.170,-7.249,4.071,1.697254,1.062073,2.952290,100277.68,-47,-193,+2
171261,9.892,-11.344,2.460,1.040098,0.825817,2.680914,100270.71,-38,-197,+6
171272,6.522,-9.007,4.041,0.296741,0.817835,2.351538,100273.34,-31,-201,+6
171282,6.499,-4.753,5.217,-0.604653,0.960972,2.188180,100271.04,-31,-201,+6
171291,7.193,-4.385,6.222,-1.377808,1.034404,1.966290,100271.04,-22,-205,+5
171301,7.440,-5.724,3.789,-2.058909,0.798679,1.650749,100272.03,-15,-211,+1
171312,8.517,-5.488,0.659,-2.422340,0.735890,1.380437,100272.61,-11,-216,-3
171322,10.667,-2.324,0.330,-2.263239,0.807193,1.211759,100269.16,-11,-216,-3
171332,11.914,0.151,1.762,-1.666744,0.761431,1.123428,100273.08,-7,-221,-8
171341,11.642,0.428,3.085,-0.866451,0.639046,1.131942,100273.08,-2,-224,-10
171352,10.396,-1.455,2.733,-0.206635,0.491120,1.154823,100271.91,+1,-226,-10
171362,9.098,-3.569,2.528,0.128062,0.438441,1.080328,100274.74,+1,-226,-10
171372,8.875,-4.680,2.625,0.050906,0.423010,0.912181,100274.38,+5,-227,-9
171381,9.418,-4.979,3.073,-0.221534,0.412367,0.773832,100268.68,+8,-228,-9
171392,9.475,-4.470,3.753,-0.556763,0.370331,0.651447,100268.68,+10,-230,-10
171402,8.793,-3.726,4.289,-0.851552,0.329358,0.542365,100272.68,+10,-230,-10
171412,8.363,-2.658,4.017,-1.053754,0.281468,0.448713,100274.10,+12,-231,-12
171417,8.502,-1.908,3.861,-1.091001,0.254863,0.397631,100273.62,+15,-233,-16
171426,8.861,-1.513,3.582,-1.012249,0.223468,0.371557,100273.62,+15,-233,-16
171437,9.239,-1.353,3.416,-0.814304,0.179303,0.380603,100271.05,+15,-234,-17
171447,9.270,-1.561,3.244,-0.595607,0.142588,0.425300,100271.05,+17,-235,-20
171457,9.170,-1.965,3.284,-0.453534,0.121835,0.466805,100273.60,+19,-236,-21
171467,9.100,-2.472,3.331,-0.450873,0.110661,0.466273,100274.54,+19,-236,-21
171476,9.065,-2.701,3.479,-0.542396,0.111193,0.452438,100267.99,+21,-238,-21
171487,8.999,-2.424,3.544,-0.661057,0.109065,0.452970,100267.99,+23,-239,-24
171497,8.857,-1.992,3.689,-0.708414,0.097890,0.473190,100267.99,+25,-240,-26
171507,8.788,-1.761,3.863,-0.663717,0.075542,0.508842,100272.95,+25,-240,-26
171516,8.626,-1.902,3.743,-0.586029,0.039358,0.543961,100273.64,+26,-242,-28
171527,8.595,-2.038,3.714,-0.514194,0.022863,0.583337,100269.19,+29,-242,-29
171537,8.538,-1.911,3.688,-0.470029,0.024459,0.624842,100271.91,+30,-242,-31
171546,8.413,-1.874,3.712,-0.414690,0.020735,0.672731,100271.91,+30,-242,-31
171557,8.371,-2.307,3.546,-0.350837,0.007964,0.717961,100271.95,+33,-244,-31
171567,8.619,-2.846,3.244,-0.314121,0.007964,0.763722,100273.48,+35,-245,-33
171577,8.866,-2.918,3.137,-0.333277,0.012753,0.790860,100272.48,+38,-246,-35
171587,8.832,-2.807,2.994,-0.342323,0.018074,0.821722,100272.48,+38,-246,-35
171597,8.875,-3.031,2.894,-0.308268,0.013817,0.870676,100272.65,+40,-246,-35
171607,9.007,-3.175,2.595,-0.281130,-0.008531,0.908456,100275.74,+44,-248,-35
171617,9.163,-2.669,2.495,-0.251864,-0.013853,0.957942,100275.74,+47,-248,-36
171627,8.996,-1.904,2.759,-0.184286,-0.017045,1.030841,100274.79,+47,-248,-36
171637,8.595,-1.876,2.888,-0.034763,-0.023963,1.131410,100272.91,+50,-250,-36
171646,8.307,-2.712,2.311,0.113163,-0.026091,1.239961,100272.91,+56,-248,-37
171653,8.488,-3.548,2.043,0.148814,0.003707,1.292639,100277.41,+56,-248,-37
171662,8.843,-4.166,1.919,0.069530,0.008496,1.329887,100271.02,+59,-250,-36
171672,9.406,-4.955,1.744,-0.089571,-0.005871,1.371392,100272.16,+64,-251,-36
171681,9.972,-5.258,1.590,-0.288580,-0.011724,1.393208,100270.55,+70,-251,-38
171692,10.410,-4.586,1.991,-0.477479,-0.039926,1.415557,100270.55,+70,-251,-38
171702,10.572,-3.617,2.440,-0.602525,-0.118146,1.467171,100276.23,+74,-252,-40
171712,10.533,-2.737,3.104,-0.648818,-0.241596,1.559226,100272.20,+80,-253,-41
171722,10.051,-2.499,3.430,-0.590818,-0.353339,1.666180,100275.28,+85,-254,-45
171731,9.597,-3.489,3.404,-0.327956,-0.375155,1.750786,100273.14,+85,-254,-45
171742,9.498,-5.100,3.534,-0.148103,-0.400164,1.792823,100273.14,+91,-254,-44
171752,9.577,-6.022,3.809,-0.222598,-0.429430,1.784309,100275.16,+97,-254,-45
171762,9.946,-6.156,3.819,-0.476947,-0.437412,1.771006,100273.27,+103,-254,-47
171771,10.570,-6.107,3.679,-0.702029,-0.403889,1.755575,100276.21,+103,-254,-47
171782,11.376,-5.867,3.218,-0.890396,-0.372495,1.757171,100272.76,+108,-254,-49
171792,11.970,-5.375,2.910,-1.108561,-0.368770,1.760364,100272.76,+114,-255,-53
171802,12.610,-4.663,2.539,-1.307038,-0.386862,1.807722,100270.23,+121,-254,-57
171811,14.096,-3.833,2.487,-1.468799,-0.415595,1.883281,100273.73,+121,-254,-57
171822,15.890,-2.637,2.790,-1.619386,-0.461889,1.987575,100270.12,+128,-255,-63
171832,17.644,-1.216,3.503,-1.737515,-0.490091,2.127520,100271.43,+134,-255,-68
171842,18.929,0.199,3.989,-1.828505,-0.467742,2.301519,100271.43,+142,-253,-73
171852,19.197,1.069,3.992,-1.934395,-0.403357,2.476052,100273.86,+142,-253,-73
171862,19.404,1.767,4.093,-2.063698,-0.278843,2.598437,100274.50,+152,-252,-80
171872,19.459,2.067,5.157,-2.130212,-0.167632,2.684106,100274.08,+161,-251,-87
171882,18.221,0.056,5.823,-1.955680,-0.189449,2.838950,100269.27,+171,-248,-95
171887,17.111,-3.802,6.370,-1.610340,-0.268733,3.053923,100269.27,+171,-248,-95
171896,17.359,-6.573,6.917,-1.110157,-0.307577,3.308803,100269.27,+183,-244,-98
171907,18.874,-6.206,7.748,-0.624873,-0.259155,3.447684,100274.47,+194,-240,-99
171917,18.106,-4.075,8.844,-0.507277,-0.218183,3.203978,100273.84,+194,-240,-99
171927,15.576,-2.540,8.293,-0.508873,-0.338440,3.040620,100270.91,+205,-235,-100
171937,13.039,-2.545,7.495,-0.565809,-0.611944,2.894290,100270.11,+213,-230,-102
171948,10.096,-2.835,6.456,-0.213020,-0.833302,2.802235,100271.94,+222,-226,-102
171957,7.620,-2.283,4.434,0.167438,-0.899283,2.488822,100273.52,+222,-226,-102
171967,7.676,-1.531,1.345,0.274924,-0.934935,2.028015,100273.52,+229,-220,-100
171977,5.859,-6.886,1.198,0.426044,-1.087650,1.515061,100273.94,+234,-218,-98
171986,0.511,-13.557,5.285,0.706465,-0.814146,0.889832,100272.25,+236,-216,-96
171997,3.055,-5.680,3.269,0.584612,-0.689632,0.686034,100272.25,+236,-216,-96
172007,4.232,-0.431,1.738,0.003016,-0.787008,0.182126,100271.15,+238,-213,-93
172017,2.768,1.084,1.317,-0.273681,-0.811485,-0.658075,100273.13,+236,-216,-93
172027,1.974,2.812,1.058,-0.118305,-0.845540,-1.068864,100270.51,+233,-217,-92
172037,1.507,2.357,0.783,0.293548,-0.980696,-1.202423,100269.95,+233,-217,-92
172047,0.565,0.373,0.682,0.909199,-1.117980,-1.390258,100272.33,+228,-219,-88
172057,0.129,-1.250,0.898,1.331162,-1.155760,-1.777102,100272.48,+222,-221,-83
172067,0.516,-1.995,1.053,1.430667,-1.138733,-2.276221,100267.88,+215,-225,-78
172078,1.295,-1.646,1.144,1.373731,-1.139265,-2.714679,100270.70,+215,-225,-78
172087,2.070,-0.946,1.378,1.338080,-1.139797,-3.089284,100270.70,+205,-228,-73
172097,2.515,-0.657,1.594,1.422153,-1.124366,-3.421853,100270.70,+194,-232,-66
172107,2.822,-0.896,1.896,1.621162,-1.094035,-3.703871,100269.73,+181,-237,-60
172116,3.056,-1.452,2.066,1.856355,-1.065834,-3.943321,100267.79,+181,-237,-60
172127,3.502,-1.991,2.292,2.053767,-1.029650,-4.155632,100267.37,+168,-238,-53
172137,4.227,-2.485,2.460,2.139437,-0.975907,-4.380183,100269.73,+151,-241,-46
172147,5.149,-2.587,2.608,2.159657,-0.925357,-4.595155,100269.73,+136,-242,-39
172157,6.229,-2.714,2.845,2.183602,-0.875870,-4.760109,100270.76,+136,-242,-39
172167,7.326,-3.046,3.289,2.260758,-0.833834,-4.897393,100268.49,+120,-242,-31
172177,8.221,-3.469,3.628,2.315565,-0.785412,-5.030421,100267.55,+103,-240,-25
172187,8.872,-3.807,3.805,2.261822,-0.733265,-5.165577,100267.55,+84,-239,-18
172197,9.503,-3.989,3.992,2.144758,-0.674201,-5.311375,100272.13,+67,-239,-18
172207,10.213,-4.252,4.503,2.010134,-0.605027,-5.462494,100272.13,+67,-234,-12
172217,10.859,-4.702,5.243,1.829749,-0.548091,-5.617338,100272.60,+50,-229,-6
172227,11.803,-5.228,6.062,1.598814,-0.511907,-5.764200,100271.20,+31,-224,-5
172237,13.161,-5.733,6.767,1.341272,-0.403889,-5.948310,100270.66,+12,-216,-1
172247,14.905,-6.224,7.303,1.028924,-0.231485,-6.170200,100270.66,+12,-216,-1
172257,16.214,-6.381,7.677,0.775108,-0.046311,-6.346860,100269.83,-5,-209,+0
172267,17.152,-6.578,8.144,0.672410,0.171322,-6.402200,100268.20,-22,-199,+1
172277,17.621,-7.422,8.845,0.697420,0.421945,-6.336218,100271.03,-38,-188,+3
172288,17.188,-8.641,9.184,0.696355,0.712477,-6.238842,100267.69,-38,-188,+3
172297,16.946,-9.898,8.499,0.515970,1.124862,-6.088787,100273.19,-52,-178,+6
172307,18.066,-12.072,2.030,-0.175240,1.515963,-5.893503,100273.19,-64,-166,+8
172317,17.770,-13.854,-2.427,-1.273515,1.196697,-5.488035,100273.19,-73,-157,+6
172327,16.974,-7.110,-0.827,-0.758965,0.680551,-4.665393,100272.19,-73,-157,+6
172337,16.782,-5.725,3.469,0.066337,0.312863,-3.918311,100272.98,-81,-148,+7
172347,10.089,-10.932,7.064,0.980502,0.239432,-3.132917,100272.98,-87,-140,+9
172357,2.111,-17.705,3.543,1.100759,0.388422,-2.448092,100272.23,-91,-133,+11
172367,0.966,-17.549,0.880,0.579823,0.476220,-0.925194,100271.29,-91,-133,+11
172378,5.512,-10.220,0.701,0.203090,0.419285,0.763722,100269.66,-91,-134,+14
172387,9.379,-6.601,2.375,0.592062,0.288386,1.941813,100271.34,-86,-138,+15
172397,9.790,-8.087,3.444,1.312006,0.087248,2.651116,100271.34,-80,-142,+18
172407,8.283,-11.020,3.019,1.736098,0.002643,3.091702,100274.16,-80,-142,+18
172418,8.158,-12.648,2.361,1.685547,0.145780,3.495042,100272.71,-73,-146,+21
172427,12.550,-5.159,0.571,1.176851,0.309670,3.797280,100271.57,-63,-153,+25
172437,17.902,9.924,-1.918,0.184998,0.194734,3.337005,100271.57,-56,-160,+25
172447,20.573,23.603,-2.793,-0.223662,0.093634,2.139226,100271.57,-56,-160,+25
172457,18.063,18.853,-6.257,-0.057644,-0.147412,1.328291,100273.57,-53,-164,+25
172467,14.107,1.271,-1.313,2.107511,-0.375155,1.960969,100277.02,-49,-166,+28
172478,13.851,-9.683,0.778,4.204200,-0.458519,3.303659,100273.04,-42,-164,+36
172487,13.913,-10.261,-1.063,4.051839,-0.503926,3.852619,100273.04,-42,-164,+36
172497,10.807,-9.267,0.800,2.782226,-0.214458,3.265170,100273.04,-35,-162,+43
172508,8.286,-5.742,9.663,2.033015,0.252202,2.752217,100272.89,-28,-164,+48
172517,8.399,-2.483,12.666,2.335786,0.752385,2.745299,100271.36,-19,-162,+53
172527,11.388,-3.030,8.115,2.501804,1.217982,2.848528,100271.13,-19,-162,+53
172537,11.946,-9.340,3.935,1.786116,0.943945,2.917171,100271.13,-10,-162,+60
172548,7.076,-9.796,4.363,1.085860,0.582110,2.656437,100272.19,-1,-162,+63
172557,4.657,-5.484,6.640,0.319090,0.747064,2.274914,100272.19,+4,-164,+65
172567,6.351,-4.297,6.339,-0.730763,0.809853,2.025887,100270.36,+4,-164,+65
172577,8.126,-4.921,4.245,-1.466671,0.662991,1.780052,100271.41,+10,-170,+63
172588,8.726,-5.053,2.226,-1.807753,0.551248,1.610841,100271.67,+16,-176,+60
172597,9.706,-3.684,1.113,-1.834359,0.526771,1.452804,100271.67,+21,-183,+57
172607,10.682,-1.395,1.166,-1.581607,0.486863,1.318713,100275.20,+21,-183,+57
172617,11.054,-0.346,2.277,-1.038322,0.442698,1.225061,100272.64,+26,-188,+54
172627,10.655,-0.352,2.589,-0.397130,0.345854,1.176107,100271.28,+29,-189,+53
172638,9.986,-1.519,2.625,0.064209,0.228257,1.182493,100274.11,+33,-190,+53
172647,9.366,-3.226,2.277,0.326007,0.108001,1.113850,100273.22,+33,-190,+53
172657,9.045,-4.159,2.139,0.418594,0.063303,1.001043,100274.11,+36,-190,+55
172667,9.146,-4.825,2.167,0.299402,0.061707,0.898346,100271.28,+38,-190,+55
172677,9.117,-5.135,2.209,0.010998,0.077138,0.791392,100271.28,+40,-190,+56
172687,8.886,-4.838,2.326,-0.381167,0.089377,0.673796,100270.48,+40,-190,+56
172697,8.830,-3.723,2.484,-0.760029,0.069689,0.579080,100270.48,+42,-192,+54
172707,8.874,-2.524,2.255,-0.922323,0.064900,0.539704,100272.70,+44,-195,+52
172712,9.091,-1.899,2.046,-0.861130,0.096294,0.532787,100271.80,+44,-195,+52
172722,9.335,-1.692,1.986,-0.689258,0.115450,0.546621,100271.91,+46,-197,+48
172732,9.563,-1.655,1.908,-0.432782,0.117046,0.580144,100271.65,+48,-198,+48
172742,9.450,-1.855,1.994,-0.202378,0.122368,0.616860,100271.65,+49,-199,+48
172752,9.166,-2.443,2.124,-0.060837,0.135138,0.640273,100271.61,+49,-199,+48
172763,9.037,-3.006,2.485,-0.062433,0.143652,0.643998,100272.08,+52,-199,+48
172772,9.001,-3.278,2.953,-0.185350,0.150569,0.639741,100273.08,+54,-200,+48
172782,8.912,-3.258,3.203,-0.353497,0.159615,0.639741,100271.97,+55,-201,+48
172792,8.944,-3.012,3.227,-0.498231,0.155358,0.654108,100271.97,+55,-201,+48
172803,8.964,-2.598,2.906,-0.566873,0.128221,0.686034,100276.09,+58,-203,+46
172812,8.897,-2.268,2.583,-0.556231,0.094698,0.729135,100276.67,+59,-205,+45
172822,8.989,-2.155,2.596,-0.481736,0.063303,0.791924,100273.95,+63,-205,+43
172832,9.045,-2.198,2.622,-0.340194,0.025524,0.857906,100269.75,+63,-205,+43
172843,8.965,-2.635,2.689,-0.203442,-0.003210,0.924951,100269.75,+66,-207,+43
172853,8.924,-3.175,2.702,-0.097020,-0.021302,0.977630,100275.60,+68,-207,+43
172862,8.892,-3.784,2.599,-0.093295,-0.014917,1.006364,100272.66,+71,-207,+42
172872,9.167,-4.353,2.514,-0.178433,0.014881,1.008493,100271.41,+71,-207,+42
172882,9.266,-4.415,2.398,-0.309864,0.037230,1.005832,100274.65,+74,-208,+41
172893,9.292,-4.072,2.284,-0.439699,0.064368,1.016474,100274.65,+77,-210,+41
172902,9.339,-3.424,2.401,-0.522176,0.078735,1.047869,100273.50,+80,-212,+39
172912,9.373,-2.773,2.556,-0.522708,0.062239,1.114383,100275.38,+80,-212,+39
172922,9.512,-2.491,2.624,-0.460451,0.035102,1.218676,100271.97,+84,-212,+38
172933,9.541,-2.745,2.618,-0.363075,-0.001082,1.334676,100272.28,+88,-213,+38
172942,9.703,-3.475,2.620,-0.302947,-0.043119,1.447483,100272.28,+92,-215,+36
172948,10.068,-3.941,2.639,-0.311993,-0.070788,1.512933,100275.41,+92,-215,+36
172957,10.512,-4.160,2.600,-0.349772,-0.089412,1.574125,100275.41,+98,-215,+35
172967,10.937,-4.180,2.417,-0.400855,-0.126660,1.663520,100272.12,+102,-215,+35
172978,11.443,-4.146,1.909,-0.420011,-0.192641,1.751850,100273.16,+102,-215,+35
172988,11.730,-4.152,1.744,-0.423204,-0.241596,1.864657,100270.91,+106,-216,+33
172997,11.917,-4.257,1.963,-0.417882,-0.295871,1.990767,100273.31,+113,-217,+32
173007,12.051,-4.522,2.453,-0.447681,-0.359192,2.115813,100271.28,+117,-217,+31
173018,12.373,-4.939,2.928,-0.544525,-0.413999,2.214253,100270.08,+117,-217,+31
173027,13.209,-5.294,3.470,-0.750983,-0.442201,2.277575,100270.08,+123,-217,+30
173037,14.614,-4.828,4.042,-1.101643,-0.477852,2.326529,100268.97,+130,-219,+26
173047,16.563,-3.498,4.748,-1.464010,-0.537981,2.390382,100268.97,+136,-221,+23
173058,18.408,-1.679,5.502,-1.712505,-0.572036,2.510639,100271.39,+136,-221,+23
173068,19.557,0.453,5.632,-1.844469,-0.512972,2.695281,100272.69,+142,-222,+18
173077,19.825,2.242,5.254,-1.851386,-0.398568,2.918767,100270.86,+151,-224,+14
173087,20.243,3.060,4.710,-1.839680,-0.241063,3.075739,100267.50,+161,-225,+9
173097,20.626,2.867,5.690,-1.870542,-0.019706,3.077868,100267.50,+161,-225,+9
173108,19.597,1.305,7.135,-1.967918,0.168661,3.033703,100273.45,+170,-226,+3
173118,17.261,-2.991,7.611,-1.957808,0.150569,3.137464,100270.67,+179,-226,-2
173127,16.109,-7.838,7.075,-1.553937,-0.059614,3.441298,100271.78,+189,-225,-6
173137,17.102,-6.625,7.034,-1.040451,-0.128788,3.574858,100271.78,+189,-225,-6
173148,16.686,-3.168,6.344,-0.862726,-0.202752,3.234840,100271.78,+201,-222,-7
173158,13.834,-0.841,5.785,-0.857937,-0.368238,2.859703,100269.23,+209,-220,-10
173167,11.186,-0.001,4.381,-0.726506,-0.664623,2.583006,100270.33,+215,-217,-10
173177,8.459,-1.433,3.820,-0.357222,-0.884916,2.409538,100271.33,+220,-215,-8
173188,5.308,-3.187,2.930,0.121677,-0.910990,2.129648,100271.80,+220,-215,-8
173197,5.828,-3.800,1.010,0.333989,-0.924825,1.788566,100271.80,+224,-211,-6
173208,2.210,-11.513,3.537,0.493622,-0.847669,1.034566,100271.88,+224,-210,-3
173217,1.795,-8.761,3.827,0.846942,-0.510843,0.609410,100270.99,+224,-208,+0
173228,4.622,-2.222,1.278,0.654319,-0.668348,0.443924,100270.52,+224,-208,+0
173238,3.612,-0.562,0.871,0.420723,-0.683247,-0.293580,100270.52,+220,-208,+3
173248,2.421,1.344,0.738,0.540447,-0.731669,-0.894864,100271.56,+215,-209,+4
173257,1.701,1.963,0.843,0.795860,-0.824788,-1.152405,100271.30,+209,-210,+8
173267,0.933,0.738,0.847,1.161951,-0.943448,-1.378019,100271.30,+209,-210,+8
173278,0.157,-0.533,0.990,1.500905,-1.008366,-1.759010,100271.77,+200,-209,+12
173288,0.102,-1.209,1.333,1.623291,-0.992935,-2.200129,100267.58,+191,-209,+17
173297,0.663,-1.208,1.495,1.614245,-0.961008,-2.576863,100267.58,+178,-209,+21
173307,1.164,-1.141,1.713,1.588704,-0.926953,-2.924330,100264.97,+178,-209,+21
173318,1.546,-1.289,1.665,1.582850,-0.892898,-3.274459,100268.52,+166,-211,+26
173328,2.012,-1.554,1.626,1.595089,-0.844476,-3.592660,100270.14,+154,-211,+30
173337,2.713,-1.793,1.696,1.627548,-0.794458,-3.882660,100265.91,+138,-211,+32
173347,3.490,-2.053,1.569,1.684483,-0.750825,-4.138073,100269.12,+138,-211,+32
173358,4.109,-2.508,1.436,1.721199,-0.709852,-4.359430,100268.29,+124,-209,+35
173368,4.885,-3.015,1.463,1.712685,-0.663027,-4.560036,100269.07,+109,-207,+38
173378,5.920,-3.235,1.658,1.723327,-0.627375,-4.703705,100267.49,+93,-205,+40
173387,7.021,-3.566,2.077,1.798355,-0.593852,-4.795761,100267.49,+93,-205,+40
173398,8.001,-4.052,2.596,1.930318,-0.571504,-4.872916,100267.49,+78,-202,+43
173408,8.794,-4.616,2.981,2.000556,-0.565650,-4.955925,100274.45,+63,-197,+46
173418,9.557,-5.202,3.331,1.959584,-0.537981,-5.043191,100267.44,+48,-191,+48
173427,10.404,-5.542,3.839,1.818043,-0.483173,-5.132586,100268.91,+48,-191,+48
173437,10.875,-5.331,4.445,1.646171,-0.444329,-5.206017,100271.89,+33,-185,+51
173448,11.189,-4.992,5.091,1.521126,-0.439008,-5.253907,100271.89,+17,-178,+53
173458,11.705,-5.155,5.660,1.540281,-0.378880,-5.304457,100271.02,+5,-170,+55
173468,12.646,-5.876,6.131,1.588171,-0.264476,-5.370971,100271.78,+5,-170,+55
173477,13.490,-6.921,6.267,1.524850,-0.147944,-5.447595,100269.41,-8,-160,+56
173488,14.012,-7.516,6.157,1.324245,-0.034605,-5.510916,100269.41,-21,-151,+58
173498,14.333,-7.432,5.947,1.093309,0.099487,-5.506127,100269.41,-33,-141,+60
173507,14.823,-7.283,6.333,0.927291,0.288918,-5.458769,100272.79,-33,-141,+60
173517,15.483,-7.484,6.893,0.790539,0.499633,-5.397045,100270.95,-42,-131,+61
173528,16.072,-7.814,6.491,0.585677,0.689596,-5.294879,100269.12,-50,-120,+64
173538,16.439,-9.486,4.376,0.198833,0.841957,-5.135601,100270.16,-57,-109,+65
173547,16.445,-10.623,1.927,-0.298690,0.754514,-4.923999,100270.16,-57,-109,+65
173557,15.653,-7.789,1.597,-0.496635,0.618294,-4.529706,100273.05,-64,-102,+66
173568,14.977,-6.114,2.546,-0.011351,0.519853,-3.940660,100271.48,-69,-93,+66
173578,12.955,-8.443,4.317,0.711787,0.417156,-3.241468,100273.32,-72,-86,+68
173588,8.626,-12.978,4.445,1.052869,0.351707,-2.550257,100269.49,-72,-86,+68
173598,4.240,-15.829,2.255,0.916117,0.396404,-1.749432,100275.35,-75,-77,+70
173607,3.285,-14.054,1.027,0.524484,0.441101,-0.532497,100275.52,-74,-73,+71
173618,5.641,-10.288,1.315,0.394117,0.362349,0.824383,100275.52,-73,-75,+73
173628,8.156,-9.193,2.630,0.697952,0.242624,1.950859,100271.96,-73,-75,+73
173637,8.964,-10.873,3.949,1.045951,0.137799,2.762859,100271.90,-71,-77,+75
173647,11.108,-7.142,2.325,1.060318,0.103744,3.271024,100271.90,-66,-82,+77
173658,14.247,4.554,0.425,0.555346,0.045744,3.215152,100274.72,-62,-88,+78
173668,18.850,21.411,-1.203,0.087622,0.069157,2.481905,100272.09,-59,-93,+78
173678,19.379,22.217,-5.548,-0.293369,0.067560,1.454933,100272.41,-59,-93,+78
173687,14.902,4.786,-1.358,1.512080,-0.201155,1.883813,100271.58,-59,-94,+79
173698,13.703,-8.661,1.596,3.735766,-0.293742,3.166198,100272.85,-54,-91,+83
173708,15.614,-9.353,-1.749,3.991711,-0.428898,4.095794,100274.21,-52,-89,+87
173718,13.483,-9.293,-0.821,2.859914,-0.137834,3.648821,100271.90,-52,-89,+87
173728,10.302,-6.279,6.088,2.114428,0.233578,3.082124,100271.59,-47,-90,+90
173737,6.691,-1.811,12.761,2.171364,0.516129,3.067225,100271.59,-41,-88,+94
173748,6.163,0.419,9.865,2.388997,0.890734,2.928345,100271.59,-36,-87,+98
173758,8.936,-4.996,6.328,2.059088,1.060477,2.716033,100274.80,-36,-87,+98
173767,9.240,-9.339,5.661,1.574337,0.709817,2.742106,100275.80,-29,-86,+103
173773,7.484,-8.720,7.227,1.016153,0.619890,2.595244,100273.76,-29,-86,+103
173783,6.924,-7.498,6.595,0.041328,0.681615,2.351006,100270.41,-24,-88,+105
173793,7.785,-7.263,3.664,-1.274047,0.637450,1.984382,100270.41,-19,-95,+105
173803,8.589,-6.261,1.302,-1.997716,0.541670,1.715135,100276.73,-15,-103,+102
173812,9.369,-4.865,0.068,-2.138193,0.518789,1.572529,100271.70,-15,-103,+102
173822,10.539,-3.672,0.110,-1.783808,0.562954,1.456529,100272.90,-11,-111,+100
173833,11.422,-2.221,0.284,-1.197955,0.560294,1.327759,100273.84,-7,-118,+99
173843,11.211,-1.799,0.568,-0.599864,0.550184,1.226658,100273.84,-4,-122,+99
173853,10.106,-2.428,1.359,-0.123094,0.509211,1.141520,100273.63,-4,-122,+99
173862,9.080,-3.143,2.632,0.114759,0.506019,1.003704,100271.18,+0,-123,+101
173873,8.898,-3.891,3.124,0.028558,0.487395,0.837686,100272.01,+2,-124,+101
173883,8.946,-4.500,3.445,-0.230580,0.464514,0.679117,100270.45,+5,-126,+101
173893,8.994,-4.480,3.898,-0.609974,0.451211,0.524273,100270.45,+7,-126,+100
173902,8.945,-3.684,4.126,-1.002139,0.418753,0.423704,100275.20,+7,-128,+100
173913,9.003,-2.302,3.847,-1.228286,0.358624,0.355062,100273.58,+8,-133,+99
173923,9.170,-1.431,3.210,-1.188377,0.329358,0.321539,100272.17,+10,-137,+97
173933,9.582,-1.039,2.572,-0.989368,0.284129,0.317814,100269.86,+11,-140,+96
173942,9.727,-1.039,2.132,-0.698304,0.241560,0.370493,100269.86,+11,-140,+96
173953,9.783,-1.317,2.216,-0.439167,0.223468,0.457227,100274.63,+13,-142,+95
173963,9.515,-1.688,2.595,-0.301350,0.201652,0.504053,100273.67,+15,-142,+95
173973,9.053,-2.319,3.146,-0.306139,0.211230,0.518952,100273.20,+16,-145,+95
173982,8.795,-2.694,3.232,-0.479075,0.213890,0.512034,100274.25,+16,-145,+95
173992,8.836,-2.487,3.352,-0.678616,0.224533,0.509906,100274.25,+18,-147,+94
174003,8.965,-2.010,3.555,-0.801534,0.216019,0.527466,100277.13,+19,-150,+92
174013,9.018,-1.631,3.489,-0.795148,0.189413,0.571631,100273.31,+21,-152,+91
174023,8.923,-1.707,3.394,-0.721185,0.169725,0.618456,100272.98,+21,-152,+91
174032,8.807,-1.919,3.182,-0.640836,0.153762,0.670603,100269.91,+23,-155,+90
174043,8.874,-2.294,2.958,-0.603057,0.143652,0.728603,100269.91,+25,-157,+88
174053,9.076,-2.424,2.999,-0.597203,0.131413,0.785007,100274.57,+28,-159,+88
174063,9.240,-2.234,3.031,-0.628598,0.075542,0.849924,100270.07,+28,-159,+88
174072,9.141,-2.427,2.916,-0.624341,0.047872,0.910052,100272.59,+29,-163,+88
174083,9.043,-2.637,2.956,-0.573791,0.034569,0.966456,100270.91,+31,-166,+85
174093,8.977,-2.347,3.292,-0.596671,-0.026623,1.034566,100270.91,+35,-167,+84
174103,8.801,-2.382,3.081,-0.566873,-0.066531,1.098419,100272.59,+35,-167,+84
174113,8.735,-2.635,3.171,-0.426928,-0.077174,1.147373,100274.63,+36,-171,+83
174123,8.630,-2.843,3.245,-0.281662,-0.091541,1.192071,100277.15,+39,-173,+83
174133,8.495,-3.149,2.950,-0.149699,-0.087284,1.227722,100272.54,+42,-173,+82
174143,8.489,-3.551,2.707,-0.059773,-0.082495,1.247942,100272.54,+42,-173,+82
174153,8.709,-3.771,2.353,-0.065626,-0.091541,1.265502,100273.17,+45,-174,+83
174162,8.879,-3.598,2.235,-0.093828,-0.087284,1.300621,100272.19,+49,-176,+82
174173,9.197,-3.557,2.157,-0.083717,-0.081431,1.353832,100271.23,+50,-177,+82
174183,9.622,-3.740,2.147,-0.072543,-0.089944,1.427795,100273.08,+50,-177,+82
174193,9.985,-3.876,2.152,-0.110323,-0.097394,1.516126,100273.08,+54,-177,+82
174202,10.359,-3.779,2.001,-0.197057,-0.100586,1.621483,100275.08,+57,-179,+82
174213,10.946,-3.714,1.907,-0.227919,-0.102183,1.739079,100272.52,+62,-181,+80
174223,11.431,-3.987,1.756,-0.170451,-0.128256,1.851355,100270.11,+62,-181,+80
174233,11.548,-4.341,1.879,-0.086910,-0.175082,1.971612,100274.03,+67,-182,+80
174242,11.612,-4.722,2.241,-0.040084,-0.212330,2.065795,100274.03,+71,-183,+81
174253,11.853,-5.021,2.750,-0.071479,-0.252770,2.135501,100274.13,+75,-183,+80
174263,12.060,-5.272,3.064,-0.180029,-0.290018,2.199887,100270.26,+75,-183,+80
174273,12.589,-5.489,3.288,-0.358286,-0.307577,2.247244,100272.82,+82,-185,+79
174283,13.603,-5.352,3.717,-0.616359,-0.328862,2.279703,100272.09,+86,-185,+78
174292,15.414,-4.657,4.453,-0.980322,-0.327265,2.319079,100272.09,+91,-189,+76
174303,17.787,-3.298,5.356,-1.443258,-0.307045,2.373354,100271.41,+91,-189,+76
174313,19.601,-1.202,4.908,-1.887038,-0.251706,2.502125,100268.16,+97,-193,+72
174323,20.212,0.792,3.682,-2.211092,-0.187320,2.675593,100271.72,+103,-199,+66
174332,20.687,2.176,2.405,-2.386688,-0.095797,2.791593,100271.52,+111,-205,+60
174343,21.111,3.453,2.720,-2.514927,0.091505,2.765519,100271.52,+111,-205,+60
174353,19.978,2.976,4.336,-2.685734,0.230386,2.651116,100269.17,+119,-209,+54
174363,16.973,-0.050,6.354,-2.563172,0.164759,2.742461,100272.22,+127,-215,+47
174372,14.394,-5.738,7.058,-1.941313,-0.076109,3.038491,100267.30,+136,-219,+41
174383,14.750,-8.531,7.070,-1.028744,-0.181467,3.431189,100270.95,+147,-217,+40
174393,16.112,-6.359,7.736,-0.697240,-0.183596,3.343390,100270.95,+147,-217,+40
174403,15.298,-3.982,7.884,-0.708946,-0.300660,2.956547,100266.76,+156,-217,+38
174413,13.156,-1.744,7.151,-0.798341,-0.593320,2.711244,100268.32,+162,-217,+36
174423,10.331,-1.054,6.886,-0.521644,-0.912054,2.641006,100270.05,+168,-215,+36
174433,7.253,-1.554,5.630,0.042925,-1.000384,2.392510,100269.90,+168,-215,+36
174443,6.681,-0.677,2.544,0.339842,-1.099356,1.999813,100269.90,+173,-213,+38
174453,4.352,-7.490,3.509,0.706465,-1.062641,1.442162,100275.38,+175,-211,+41
174462,0.911,-12.302,5.680,1.003915,-0.769448,0.843539,100273.13,+175,-207,+45
174473,4.025,-5.135,2.972,0.738924,-0.779026,0.594511,100271.93,+175,-207,+45
174483,4.504,-1.202,2.084,0.052503,-0.800311,-0.150442,100270.35,+174,-207,+46
174493,3.171,1.114,1.720,-0.181094,-0.810953,-0.916148,100270.35,+170,-209,+47
174503,2.497,2.688,1.511,0.026429,-0.883852,-1.173689,100274.21,+163,-209,+49
174513,1.602,1.794,1.110,0.510649,-1.037100,-1.334919,100271.49,+163,-209,+49
174523,0.576,-0.217,1.058,1.033713,-1.128090,-1.608423,100269.60,+156,-209,+53
174533,0.218,-1.681,1.320,1.330098,-1.157356,-2.017083,100270.18,+148,-208,+58
174543,0.816,-2.204,1.371,1.327438,-1.162678,-2.506092,100270.18,+137,-207,+61
174553,1.541,-1.941,1.529,1.242832,-1.159485,-2.931780,100272.08,+137,-207,+61
174563,2.054,-1.319,1.640,1.186961,-1.146182,-3.297339,100270.94,+124,-206,+66
174573,2.478,-1.044,1.846,1.209841,-1.117448,-3.611816,100269.31,+110,-204,+70
174583,2.934,-1.160,1.992,1.318392,-1.073815,-3.875743,100266.38,+96,-202,+73
174593,3.432,-1.420,2.147,1.507291,-1.016347,-4.096568,100266.38,+96,-202,+73
174599,3.754,-1.746,2.426,1.677034,-0.983889,-4.259394,100268.02,+82,-197,+78
174608,4.203,-2.220,2.680,1.844648,-0.943980,-4.416898,100268.02,+67,-191,+83
174618,4.990,-2.845,2.777,1.977144,-0.855650,-4.618036,100266.02,+67,-191,+83
174628,6.039,-3.204,2.911,2.039400,-0.793393,-4.753191,100266.81,+53,-183,+87
174639,7.102,-3.375,3.169,2.135712,-0.750825,-4.828751,100269.64,+38,-174,+92
174648,8.250,-3.615,3.645,2.306520,-0.695485,-4.880366,100270.40,+24,-163,+97
174658,9.285,-3.997,4.057,2.464024,-0.655045,-4.927723,100266.74,+24,-163,+97
174668,10.258,-4.647,4.332,2.551290,-0.626843,-4.981467,100270.24,+12,-150,+102
174678,11.247,-5.239,4.775,2.574703,-0.582678,-5.036806,100270.24,+0,-135,+105
174688,11.924,-5.649,5.392,2.519896,-0.547559,-5.094806,100272.07,-12,-121,+109
174698,12.094,-5.943,5.971,2.350685,-0.570972,-5.138971,100272.07,-12,-121,+109
174708,12.014,-6.321,6.250,2.160722,-0.549687,-5.209210,100273.44,-22,-105,+111
174718,12.199,-6.959,6.421,1.947878,-0.469871,-5.314568,100268.20,-31,-90,+113
174728,12.538,-7.787,6.623,1.693529,-0.358128,-5.418861,100269.67,-39,-74,+115
174738,12.943,-8.334,6.762,1.402997,-0.220311,-5.472072,100269.41,-39,-74,+115
174748,13.282,-8.392,6.899,1.088520,-0.038862,-5.464090,100269.41,-44,-60,+115
174758,13.600,-8.236,7.084,0.837364,0.178771,-5.412476,100268.02,-48,-46,+115
174769,14.061,-8.258,6.868,0.581952,0.401193,-5.360861,100269.64,-50,-34,+117
174778,14.852,-8.690,5.892,0.213200,0.546991,-5.259228,100270.63,-50,-34,+117
174788,15.297,-8.753,4.479,-0.237497,0.592220,-5.075118,100270.63,-50,-23,+118
174798,14.923,-7.543,3.938,-0.506745,0.582110,-4.757981,100270.63,-50,-13,+118
174809,14.049,-6.311,4.325,-0.316249,0.560294,-4.281743,100270.65,-50,-7,+119
174818,12.598,-6.353,4.779,0.210007,0.539009,-3.676202,100272.59,-50,-7,+119
174828,10.758,-8.403,4.643,0.803842,0.521450,-3.016385,100269.85,-49,+1,+119
174838,8.623,-11.533,3.878,1.145456,0.490055,-2.352312,100270.90,-47,+10,+120
174848,6.089,-13.233,2.459,1.158759,0.456532,-1.575964,100270.90,-47,+17,+120
174859,4.923,-12.980,1.269,1.025731,0.457597,-0.634130,100271.04,-47,+17,+120
174868,5.648,-11.805,1.177,0.920374,0.433120,0.454034,100267.63,-44,+20,+122
174878,7.058,-10.608,2.072,0.945915,0.364477,1.485263,100272.74,-43,+21,+122
174888,7.972,-10.340,3.146,1.103951,0.272955,2.290877,100272.74,-43,+20,+123
174899,8.125,-10.246,3.281,1.327970,0.233578,2.917171,100273.25,-43,+20,+123
174908,9.005,-9.716,3.572,1.584447,0.275083,3.513665,100268.28,-42,+19,+122
174918,14.582,2.323,0.647,1.442905,0.291578,3.856876,100268.28,-42,+17,+125
174928,21.580,23.013,-2.306,0.519695,0.142588,3.001244,100272.67,-42,+13,+125
174939,24.223,34.066,-7.754,-0.284323,0.050001,1.277208,100273.67,-42,+13,+125
174948,16.903,12.501,-6.109,0.765530,-0.266073,1.086181,100273.67,-43,+9,+123
174958,13.485,-10.045,1.405,3.809197,-0.280972,2.353134,100274.12,-45,+17,+123
174968,15.250,-15.150,0.243,5.038903,-0.444329,4.089408,100271.13,-46,+27,+122
174979,12.345,-11.437,-1.640,3.428207,-0.315027,3.945207,100271.87,-46,+27,+122
174989,9.335,-6.587,1.706,1.940960,0.214422,2.785739,100273.91,-47,+29,+121
174998,8.472,-1.894,6.971,1.531236,0.516661,2.701134,100268.91,-46,+30,+121
175008,5.735,-0.880,11.107,1.895199,0.608716,2.836290,100267.24,-46,+30,+122
175019,7.344,-1.667,8.929,2.271932,0.941817,2.433483,100265.35,-46,+30,+122
175028,11.626,-7.074,6.799,1.922336,1.099853,2.361648,100265.35,-43,+33,+123
175038,11.315,-9.680,6.226,1.285933,0.774202,2.537244,100269.24,-40,+33,+125
175048,7.889,-6.998,7.105,0.240869,0.649688,2.265336,100269.24,-38,+30,+126
175058,6.704,-5.236,4.806,-0.939350,0.640642,1.965758,100273.08,-37,+30,+128
175069,7.128,-6.114,1.592,-1.688028,0.598074,1.686933,100274.19,-37,+23,+128
175078,8.905,-5.617,0.533,-1.884909,0.592753,1.482603,100274.86,-36,+12,+128
175088,10.485,-3.617,0.996,-1.797111,0.557633,1.346382,100271.41,-35,+4,+130
175098,11.294,-1.971,1.290,-1.508707,0.508147,1.223997,100271.41,-33,-2,+130
175109,11.313,-1.140,1.286,-0.940414,0.474092,1.123961,100272.09,-33,-2,+130
175119,10.478,-0.871,1.451,-0.317846,0.398000,1.129814,100273.29,-32,-5,+131
175128,9.123,-1.700,2.141,0.122741,0.345322,1.125025,100272.24,-29,-8,+132
175138,8.620,-3.007,2.528,0.272796,0.321909,1.035098,100272.24,-28,-8,+132
175149,8.930,-3.821,2.738,0.199897,0.314991,0.937190,100272.24,-28,-8,+132
175158,9.059,-4.415,3.115,-0.054451,0.300624,0.826511,100274.74,-28,-11,+135
175168,8.952,-4.376,3.396,-0.446616,0.292111,0.714768,100272.54,-26,-12,+133
175178,8.921,-3.699,3.286,-0.848891,0.283065,0.627502,100270.70,-24,-16,+134
175188,8.966,-2.276,3.034,-1.076812,0.276147,0.572517,100270.21,-24,-16,+134
175198,9.250,-1.485,2.523,-1.056414,0.266569,0.566842,100270.21,-24,-22,+135
175208,9.604,-1.315,1.755,-0.880286,0.264441,0.588126,100273.26,-22,-26,+135
