79650,7.883,-5.048,2.483,-0.000609,-0.000921,0.000276,99758.73,-145,+91,-139
79661,7.893,-5.032,2.502,0.001519,-0.001453,0.000276,99761.48,-145,+91,-139
79671,7.914,-5.033,2.468,0.000987,-0.000921,0.000809,99759.12,-146,+91,-139
79681,7.931,-5.048,2.489,0.003115,-0.001985,0.001341,99759.23,-146,+91,-138
79691,7.905,-5.067,2.471,0.005776,-0.001985,0.000809,99756.20,-146,+91,-138
79700,7.913,-5.051,2.491,0.006840,0.000144,0.000276,99756.20,-146,+91,-137
79711,7.908,-5.034,2.455,0.005776,0.001208,-0.000788,99761.52,-145,+91,-139
79721,7.930,-5.019,2.496,0.006840,-0.000921,0.000276,99758.55,-146,+91,-139
79731,7.911,-5.021,2.501,0.012161,-0.002517,0.001873,99759.64,-146,+91,-139
79740,7.932,-5.020,2.517,0.012693,-0.004645,0.006662,99757.50,-146,+91,-139
79751,7.910,-5.026,2.533,0.013226,-0.009966,0.007726,99757.50,-145,+91,-139
79761,7.923,-5.025,2.513,0.015354,-0.012627,0.008790,99763.30,-146,+91,-139
79771,7.907,-5.036,2.448,0.016418,-0.013691,0.006662,99758.19,-146,+91,-139
79781,7.896,-5.036,2.472,0.019079,-0.012627,0.009854,99757.81,-146,+91,-139
79791,7.932,-4.990,2.480,0.018547,-0.010499,0.013047,99759.75,-146,+91,-139
79801,7.973,-4.948,2.538,0.023868,-0.014755,0.017836,99759.75,-146,+91,-139
79811,7.964,-4.947,2.524,0.038767,-0.025398,0.026350,99760.27,-146,+91,-139
79821,7.955,-4.963,2.553,0.055794,-0.034443,0.034331,99758.08,-146,+91,-138
79831,7.875,-5.046,2.545,0.060583,-0.040297,0.039120,99760.11,-146,+91,-139
79841,7.895,-5.052,2.477,0.062180,-0.038700,0.034331,99759.86,-145,+90,-139
79851,7.885,-5.151,2.461,0.055794,-0.032847,0.031671,99759.86,-145,+90,-139
79861,7.906,-5.167,2.375,0.054198,-0.026994,0.022625,99761.98,-146,+90,-139
79866,7.893,-5.129,2.389,0.052602,-0.019544,0.014111,99760.98,-145,+89,-139
79876,7.900,-5.123,2.357,0.049409,-0.014755,0.008258,99760.98,-145,+89,-139
79886,7.918,-5.080,2.375,0.049941,-0.008370,0.002405,99761.88,-145,+89,-139
79896,7.917,-5.008,2.510,0.057923,-0.006242,0.001341,99757.39,-145,+89,-139
79906,7.926,-4.988,2.520,0.067501,-0.011563,0.001341,99757.39,-145,+89,-139
79917,7.947,-4.952,2.746,0.079207,-0.032847,0.002405,99760.47,-145,+89,-139
79926,7.823,-5.022,2.724,0.103684,-0.052535,0.001341,99760.16,-145,+89,-138
79936,7.788,-5.195,2.514,0.105281,-0.050939,0.003469,99761.03,-145,+89,-139
79946,7.808,-5.249,2.428,0.065904,-0.024865,-0.006641,99761.03,-145,+89,-140
79955,7.898,-5.238,2.260,0.023336,0.008125,-0.020476,99761.03,-145,+89,-140
79966,7.925,-5.081,2.280,0.000455,0.033134,-0.031650,99759.40,-145,+88,-139
79976,7.934,-4.967,2.315,0.000987,0.044309,-0.031118,99760.45,-145,+89,-139
79986,7.953,-4.888,2.327,0.024932,0.036859,-0.020476,99759.60,-145,+88,-139
79996,7.970,-4.927,2.453,0.048877,0.029942,-0.009302,99757.21,-145,+88,-139
80006,7.946,-5.004,2.502,0.064308,0.024089,-0.007173,99757.21,-145,+89,-139
80016,7.911,-5.055,2.552,0.071226,0.024089,-0.005577,99758.32,-145,+89,-139
80026,7.876,-5.089,2.613,0.062712,0.028878,-0.010366,99758.13,-145,+87,-139
80036,7.898,-5.091,2.735,0.051005,0.029410,-0.013558,99755.96,-145,+87,-139
80047,7.895,-5.014,2.855,0.044620,0.022492,-0.017815,99755.96,-146,+88,-139
80056,7.938,-4.896,3.012,0.037171,0.008125,-0.019944,99761.68,-145,+88,-139
80066,7.896,-4.931,2.872,0.040363,-0.001985,-0.011962,99761.68,-145,+89,-139
80076,7.858,-5.020,2.462,0.041427,-0.003581,-0.002384,99761.88,-145,+89,-139
80086,7.877,-5.045,2.309,0.042492,0.008657,-0.000788,99759.01,-145,+87,-139
80096,7.904,-5.073,2.210,0.024932,0.027281,-0.003980,99758.80,-146,+88,-139
80106,7.984,-4.971,2.337,0.021207,0.037391,-0.003448,99758.80,-146,+88,-139
80116,8.037,-4.876,2.461,0.035042,0.038456,0.000276,99759.11,-146,+88,-139
80126,7.981,-4.931,2.558,0.058455,0.025153,0.006662,99757.61,-146,+88,-139
80137,7.898,-5.015,2.539,0.075482,0.014511,0.014111,99758.86,-146,+87,-139
80146,7.840,-5.109,2.445,0.064840,0.019300,0.011451,99758.88,-146,+88,-139
80156,7.901,-5.159,2.655,0.046748,0.034731,0.000809,99760.33,-146,+88,-139
80166,7.949,-5.074,2.879,0.024932,0.044309,-0.009302,99761.58,-146,+87,-139
80177,7.907,-5.013,2.684,0.015886,0.041648,-0.009302,99761.38,-147,+87,-138
80186,7.856,-4.996,2.562,0.017482,0.041648,-0.005045,99761.38,-146,+87,-139
80196,7.822,-4.984,2.565,0.023868,0.044841,-0.005577,99757.72,-146,+87,-139
80206,7.832,-4.916,2.311,0.028125,0.053355,-0.001320,99757.72,-147,+87,-137
80217,7.916,-4.904,2.272,0.040363,0.056015,-0.001852,99761.39,-146,+87,-138
80226,8.034,-4.835,2.613,0.085593,0.042180,0.001341,99762.75,-147,+87,-139
80236,8.077,-4.757,2.715,0.135611,0.015043,0.014643,99756.23,-147,+86,-139
80246,7.904,-5.068,2.673,0.162748,-0.012095,0.020497,99757.80,-147,+86,-139
80257,7.797,-5.350,2.736,0.143060,-0.011031,0.015708,99757.80,-147,+86,-139
80267,7.770,-5.485,2.714,0.070161,0.026749,-0.009834,99760.76,-147,+86,-139
80276,7.800,-5.292,2.735,-0.021362,0.077300,-0.044421,99758.98,-147,+87,-138
80286,7.928,-4.934,2.861,-0.068719,0.102309,-0.065173,99757.57,-147,+87,-138
80296,7.952,-4.708,2.734,-0.065527,0.096988,-0.051338,99757.57,-147,+87,-138
80306,7.959,-4.711,3.008,-0.026151,0.067722,-0.021540,99757.57,-147,+87,-138
80316,8.023,-4.765,3.135,0.015886,0.026749,0.008258,99759.75,-147,+86,-138
80326,8.016,-4.659,3.469,0.037703,-0.015820,0.031671,99760.02,-147,+86,-138
80336,7.832,-4.885,3.082,0.063776,-0.045618,0.032735,99758.72,-148,+87,-138
80346,7.810,-5.333,2.779,0.090381,-0.070095,0.037524,99759.97,-147,+85,-138
80356,7.636,-5.607,2.311,0.037703,-0.031783,0.022625,99759.97,-147,+86,-138
80366,7.722,-5.433,2.228,-0.044774,0.046969,-0.039100,99761.49,-147,+86,-138
80376,7.896,-4.978,2.254,-0.095325,0.096456,-0.076879,99760.09,-147,+87,-137
80387,7.967,-4.732,2.313,-0.075105,0.099648,-0.069962,99758.02,-147,+86,-137
80396,8.053,-4.642,2.472,-0.009655,0.081556,-0.039100,99758.02,-148,+86,-138
80406,7.985,-4.835,2.578,0.044620,0.051758,-0.003448,99761.07,-148,+86,-138
80416,7.846,-5.066,2.492,0.054730,0.048034,0.005598,99761.07,-147,+86,-137
80427,7.803,-5.151,2.521,0.025996,0.071446,-0.008237,99761.49,-147,+87,-137
80436,7.817,-5.044,2.742,-0.010719,0.100180,-0.027393,99758.62,-149,+86,-137
80446,7.876,-4.892,2.812,-0.028811,0.114015,-0.031118,99759.40,-149,+86,-137
80457,7.871,-4.866,2.704,-0.016573,0.109226,-0.017461,99759.51,-149,+86,-136
80466,7.859,-4.856,2.647,0.000987,0.101245,-0.004513,99759.51,-148,+87,-136
80477,7.887,-4.843,2.582,0.011097,0.095391,0.013579,99762.54,-148,+87,-136
80486,7.885,-4.914,2.533,0.020675,0.089538,0.027946,99761.49,-148,+87,-136
80496,7.936,-4.851,2.562,0.040363,0.084217,0.037524,99759.88,-149,+87,-136
80506,7.934,-4.928,2.557,0.059519,0.072511,0.052955,99761.79,-149,+86,-136
80517,7.906,-5.133,2.526,0.071758,0.048566,0.053487,99761.32,-149,+85,-136
80527,7.989,-5.081,2.733,0.063776,0.050694,0.039653,99757.68,-149,+85,-136
80536,7.920,-5.042,2.873,0.052070,0.049630,0.031671,99757.68,-149,+85,-136
80546,7.792,-5.076,2.908,0.037703,0.050694,0.035396,99755.63,-149,+85,-135
80557,7.783,-4.977,3.151,0.026528,0.051758,0.032735,99755.63,-149,+85,-136
80567,7.788,-4.746,3.552,0.033978,0.036327,0.029010,99757.98,-149,+85,-136
80576,7.771,-4.864,3.141,0.045152,0.016639,0.039653,99756.73,-149,+85,-136
80586,7.764,-4.771,3.605,0.082400,-0.019544,0.041781,99759.27,-150,+85,-136
80596,7.700,-4.591,3.766,0.106345,-0.049343,0.040717,99757.98,-149,+85,-135
80607,7.668,-4.824,3.054,0.132418,-0.073287,0.047634,99757.98,-149,+85,-135
80617,7.811,-5.191,2.694,0.179776,-0.081269,0.056148,99759.61,-150,+84,-135
80626,7.934,-5.335,2.308,0.180840,-0.069031,0.049763,99756.89,-149,+84,-136
80636,7.974,-5.316,2.350,0.161684,-0.033911,0.030607,99758.98,-149,+84,-136
80647,7.895,-5.106,2.545,0.140932,0.006529,0.007194,99758.98,-149,+84,-136
80656,7.791,-4.917,2.733,0.140932,0.030474,-0.001852,99758.98,-149,+83,-136
80666,7.752,-4.873,2.949,0.163813,0.035795,0.002937,99759.52,-149,+82,-136
80676,7.748,-5.068,3.002,0.185629,0.026217,0.010919,99762.28,-149,+82,-136
80687,7.707,-5.203,3.012,0.181372,0.026217,0.002405,99760.45,-150,+82,-136
80696,7.665,-5.333,2.880,0.151042,0.048566,-0.018879,99759.47,-150,+82,-136
80706,7.693,-5.280,2.948,0.118583,0.076235,-0.049742,99759.47,-150,+82,-136
80716,7.801,-4.990,3.100,0.103684,0.086345,-0.074751,99761.22,-150,+82,-136
80727,7.902,-4.866,2.972,0.105281,0.079428,-0.072623,99760.86,-150,+82,-136
80737,7.959,-4.821,2.942,0.125501,0.061336,-0.055595,99757.17,-150,+82,-136
80746,7.937,-4.868,2.882,0.139868,0.040584,-0.038035,99757.17,-150,+81,-136
80756,7.947,-4.966,2.911,0.121776,0.026217,-0.028990,99759.76,-151,+81,-135
80766,7.950,-4.903,3.185,0.083464,0.026217,-0.026861,99758.15,-150,+80,-136
80777,7.968,-4.803,3.443,0.035042,0.024621,-0.018347,99758.15,-150,+80,-136
80786,7.913,-4.748,3.421,-0.004866,0.013979,-0.002384,99757.15,-149,+81,-136
80796,7.849,-4.755,3.347,-0.027747,-0.001453,0.019965,99759.13,-150,+80,-136
80806,7.883,-4.761,3.216,-0.035196,-0.020609,0.040717,99759.13,-150,+80,-135
80817,7.867,-4.846,3.097,-0.037857,-0.032315,0.062001,99759.02,-150,+80,-135
80827,7.877,-4.878,2.994,-0.044774,-0.037104,0.074240,99759.48,-150,+80,-136
80836,7.886,-4.936,2.940,-0.051160,-0.036572,0.080093,99759.64,-150,+81,-136
80846,7.847,-4.943,3.007,-0.047967,-0.040829,0.084350,99758.61,-150,+80,-135
80857,7.820,-4.975,3.051,-0.041582,-0.047214,0.087542,99761.19,-150,+80,-135
80867,7.841,-5.062,2.954,-0.049563,-0.047214,0.084882,99757.73,-150,+80,-135
80876,7.798,-5.098,2.927,-0.062334,-0.041361,0.071579,99759.25,-149,+80,-135
80886,7.816,-5.032,2.826,-0.076701,-0.034443,0.060937,99759.25,-149,+80,-136
80897,7.863,-5.037,2.671,-0.092664,-0.024333,0.052955,99756.86,-149,+80,-136
80907,7.834,-5.095,2.744,-0.101178,-0.012095,0.049231,99756.86,-150,+80,-135
80916,7.851,-5.022,2.886,-0.100114,-0.006242,0.047634,99759.16,-149,+80,-136
80927,7.812,-5.024,2.981,-0.109869,-0.006419,0.053842,99759.50,-149,+80,-136
80936,7.747,-5.104,3.026,-0.118206,-0.007306,0.060937,99759.50,-149,+80,-136
80947,7.759,-5.127,2.951,-0.126187,-0.014755,0.062001,99760.41,-150,+80,-135
80957,7.813,-5.092,2.954,-0.139490,-0.015820,0.065194,99760.41,-150,+81,-135
80966,7.843,-5.104,3.001,-0.148536,-0.020077,0.068387,99756.93,-150,+80,-136
80976,7.863,-5.045,3.038,-0.153857,-0.028590,0.075836,99759.02,-150,+80,-136
80987,7.885,-4.965,3.143,-0.154921,-0.040829,0.085414,99756.88,-149,+81,-136
80997,7.856,-5.049,3.149,-0.167160,-0.048810,0.094460,99756.88,-150,+81,-135
81006,7.846,-5.204,2.994,-0.178866,-0.059453,0.100313,99756.88,-149,+82,-136
81016,7.813,-5.286,2.835,-0.199086,-0.061049,0.099249,99761.04,-149,+82,-136
81027,7.765,-5.237,2.799,-0.210261,-0.056260,0.097120,99761.37,-150,+82,-136
81037,7.747,-5.097,2.847,-0.222499,-0.055196,0.093928,99758.02,-149,+82,-136
81046,7.772,-5.078,2.753,-0.230481,-0.063177,0.101377,99757.09,-149,+82,-136
81056,7.782,-5.228,2.732,-0.236334,-0.068498,0.107231,99757.09,-149,+82,-136
81067,7.785,-5.306,2.817,-0.248040,-0.071159,0.114148,99760.33,-150,+82,-136
81077,7.779,-5.294,2.914,-0.287416,-0.067966,0.115744,99760.75,-150,+82,-136
81087,7.771,-5.210,2.983,-0.321471,-0.070627,0.118937,99759.00,-149,+84,-136
81096,7.749,-5.046,2.890,-0.333710,-0.080205,0.132240,99759.00,-149,+84,-136
81106,7.748,-5.037,2.734,-0.327857,-0.095636,0.149267,99759.29,-149,+84,-136
81117,7.771,-5.051,2.800,-0.307104,-0.116388,0.162038,99759.54,-149,+84,-136
81127,7.858,-5.048,2.708,-0.297527,-0.136609,0.180130,99759.54,-149,+84,-137
81136,7.832,-5.164,2.643,-0.284756,-0.153104,0.198221,99757.20,-149,+84,-137
81146,7.789,-5.022,2.880,-0.266132,-0.176517,0.211524,99759.23,-148,+84,-136
81157,7.730,-5.010,2.811,-0.262407,-0.198865,0.233873,99759.23,-149,+84,-137
81162,7.642,-5.091,2.715,-0.237930,-0.222810,0.256753,99759.39,-149,+84,-137
81172,7.606,-5.131,2.750,-0.203875,-0.252076,0.274313,99760.44,-148,+84,-137
81181,7.613,-5.267,2.666,-0.184719,-0.284003,0.290276,99762.31,-147,+84,-138
81191,7.795,-5.514,2.568,-0.196958,-0.303691,0.304111,99757.88,-147,+84,-139
81202,7.935,-5.780,2.395,-0.227820,-0.316462,0.307304,99757.88,-147,+84,-139
81212,8.089,-5.754,2.419,-0.254958,-0.325508,0.314221,99761.31,-146,+84,-139
81221,8.138,-5.790,2.490,-0.299123,-0.332425,0.323267,99761.78,-147,+82,-140
81231,8.090,-5.674,2.369,-0.324132,-0.348920,0.338698,99759.59,-145,+83,-140
81242,7.947,-5.470,2.541,-0.345416,-0.370205,0.363175,99759.53,-145,+83,-140
81252,7.823,-5.394,2.540,-0.363508,-0.402663,0.395102,99759.53,-145,+83,-140
81262,7.827,-5.377,2.474,-0.375747,-0.437783,0.431818,99760.81,-143,+82,-142
81271,7.865,-5.560,2.511,-0.388517,-0.475030,0.465340,99758.36,-143,+82,-143
81282,7.928,-5.783,2.516,-0.409270,-0.512278,0.498331,99758.73,-143,+82,-143
81292,7.838,-5.854,2.589,-0.455563,-0.536223,0.524937,99757.53,-141,+83,-144
81301,7.814,-5.880,2.372,-0.509838,-0.555379,0.558992,99757.53,-141,+82,-145
81311,7.905,-6.009,2.274,-0.574756,-0.570810,0.584533,99760.59,-140,+82,-146
81321,8.192,-6.004,2.515,-0.632756,-0.600608,0.606882,99757.78,-140,+82,-146
81332,8.544,-5.811,2.858,-0.656168,-0.646902,0.638276,99757.63,-138,+83,-148
81342,8.682,-6.326,2.291,-0.691820,-0.669783,0.663817,99757.98,-137,+82,-148
81351,8.623,-6.813,1.952,-0.702462,-0.685214,0.680845,99757.98,-136,+82,-150
81361,8.459,-6.922,1.758,-0.750352,-0.674039,0.689359,99758.89,-136,+82,-150
81372,8.270,-7.071,1.388,-0.852517,-0.624553,0.680313,99762.95,-135,+82,-150
81382,8.505,-6.938,1.203,-0.939251,-0.579324,0.669671,99758.53,-134,+84,-152
81391,9.089,-6.532,1.110,-1.013214,-0.528773,0.655836,99759.88,-132,+83,-152
81401,9.256,-6.394,0.868,-1.034499,-0.517599,0.632955,99759.88,-131,+83,-152
81412,9.249,-6.488,0.683,-0.979691,-0.540480,0.668074,99762.77,-131,+84,-152
81422,9.370,-6.437,0.680,-0.949893,-0.542076,0.709579,99758.02,-131,+85,-153
81432,9.054,-6.390,0.889,-0.952554,-0.537819,0.724478,99759.23,-131,+85,-154
81441,8.976,-6.141,0.829,-0.934994,-0.542608,0.775560,99760.21,-128,+85,-155
81452,8.937,-5.915,0.864,-0.903067,-0.560168,0.844735,99760.21,-128,+85,-155
81462,8.737,-5.899,0.929,-0.847728,-0.591562,0.916037,99761.39,-129,+85,-156
81472,8.505,-5.870,1.180,-0.748756,-0.642113,1.002771,99759.83,-127,+84,-156
81481,8.386,-5.930,1.604,-0.658829,-0.661801,1.086312,99758.11,-126,+84,-158
81491,8.254,-6.236,2.006,-0.586462,-0.668718,1.164001,99756.59,-126,+84,-158
81502,8.001,-6.662,1.859,-0.528994,-0.680957,1.236899,99756.59,-125,+82,-157
81512,7.875,-7.284,1.768,-0.511967,-0.667122,1.318844,99760.90,-124,+80,-160
81517,8.075,-7.739,1.764,-0.513563,-0.648498,1.378441,99758.60,-124,+80,-160
81526,8.252,-7.943,1.624,-0.537508,-0.631471,1.417285,99758.60,-124,+78,-161
81537,8.321,-7.737,1.497,-0.573691,-0.606461,1.434844,99759.12,-123,+76,-161
81547,7.967,-7.765,0.947,-0.622113,-0.585709,1.444422,99759.27,-123,+76,-161
81557,7.613,-7.633,0.708,-0.648187,-0.572939,1.453468,99759.91,-123,+74,-162
81567,7.342,-7.338,1.014,-0.668407,-0.529838,1.440698,99760.18,-122,+71,-163
81576,7.491,-6.645,1.251,-0.688095,-0.483012,1.383762,99757.04,-121,+70,-164
81587,7.427,-5.797,1.445,-0.746627,-0.409049,1.261909,99761.21,-121,+70,-164
81597,7.269,-4.948,1.523,-0.789196,-0.324975,1.100679,99761.21,-121,+68,-164
81606,7.014,-3.991,1.380,-0.824847,-0.241434,0.905395,99761.21,-121,+68,-164
81616,6.678,-2.995,1.296,-0.849324,-0.143526,0.677120,99759.64,-120,+68,-164
81627,6.517,-2.062,1.044,-0.835489,-0.038168,0.428625,99758.23,-121,+70,-164
81637,6.132,-1.982,0.134,-0.783875,0.037391,0.197157,99759.27,-121,+70,-164
81647,5.899,-2.125,0.329,-0.569967,0.052823,0.025818,99756.50,-121,+71,-164
81656,6.652,-1.423,0.492,-0.236866,0.024089,-0.160421,99756.50,-121,+71,-164
81667,6.786,-1.011,0.504,-0.033068,0.029942,-0.381246,99761.71,-121,+72,-164
81677,6.424,-1.082,0.400,0.215427,0.012914,-0.558439,99757.66,-121,+72,-164
81687,6.128,-1.432,0.312,0.510216,-0.020609,-0.705833,99754.15,-120,+72,-165
81697,5.823,-2.026,0.238,0.776271,-0.036040,-0.855888,99754.15,-119,+70,-165
81707,5.696,-2.550,0.221,0.958252,-0.016884,-1.017117,99758.34,-119,+72,-166
81717,5.786,-2.967,0.337,1.066271,0.040584,-1.198035,99758.34,-119,+72,-166
81727,6.071,-3.358,0.364,1.128528,0.103905,-1.384805,99759.81,-119,+70,-166
81737,6.391,-3.727,0.298,1.167904,0.160309,-1.555080,99759.19,-117,+70,-166
81746,6.716,-4.144,0.266,1.192381,0.213520,-1.705135,99757.36,-118,+71,-167
81753,6.909,-4.475,0.220,1.198766,0.249703,-1.811025,99757.36,-118,+71,-167
81762,7.075,-4.800,0.140,1.194509,0.285887,-1.915851,99757.54,-117,+70,-166
81772,7.310,-5.230,0.140,1.169500,0.338033,-2.043557,99758.52,-117,+70,-166
81781,7.638,-5.670,0.254,1.138638,0.399226,-2.158493,99757.96,-117,+72,-166
81792,8.060,-6.074,0.504,1.121610,0.457226,-2.256933,99755.71,-117,+74,-166
81802,8.542,-6.403,0.816,1.139170,0.497134,-2.330896,99755.71,-117,+74,-166
81812,8.981,-6.736,1.064,1.197170,0.502987,-2.377190,99756.09,-117,+74,-166
81822,9.083,-7.097,1.174,1.281243,0.476382,-2.404327,99757.03,-117,+75,-166
81831,8.992,-7.587,1.278,1.375427,0.440198,-2.409117,99758.44,-117,+76,-165
81842,8.919,-8.204,1.266,1.445665,0.411464,-2.397942,99756.14,-117,+76,-166
81852,8.846,-8.720,1.224,1.447793,0.415721,-2.389961,99756.14,-117,+76,-166
81862,8.750,-8.820,1.205,1.363720,0.468400,-2.382511,99761.23,-118,+76,-165
81871,8.667,-8.597,1.232,1.231225,0.555666,-2.380383,99759.45,-118,+76,-165
81882,8.746,-8.289,1.343,1.089684,0.651446,-2.372933,99755.95,-119,+76,-164
81892,8.975,-8.100,1.422,0.958252,0.736584,-2.356970,99757.73,-121,+76,-163
81902,9.132,-7.961,1.426,0.854491,0.807886,-2.327172,99757.73,-121,+78,-163
81912,9.180,-7.764,1.376,0.772014,0.863758,-2.280878,99760.11,-123,+80,-162
81922,9.213,-7.565,1.280,0.711886,0.896749,-2.216493,99759.73,-124,+81,-160
81932,9.188,-7.372,1.195,0.673574,0.909519,-2.141997,99757.81,-128,+83,-160
81942,9.161,-7.266,1.289,0.653886,0.906859,-2.059520,99758.48,-128,+83,-160
81952,9.261,-7.392,1.235,0.679959,0.845134,-1.970126,99758.48,-130,+85,-158
81961,9.217,-7.475,0.895,0.728381,0.752547,-1.886053,99759.54,-133,+85,-157
81972,8.960,-7.522,0.814,0.762968,0.688694,-1.779631,99758.70,-135,+87,-155
81982,8.822,-7.455,0.944,0.794363,0.640272,-1.661502,99759.16,-135,+87,-155
81987,8.800,-7.317,0.917,0.809262,0.606217,-1.573704,99757.02,-137,+89,-155
81996,8.804,-7.084,0.875,0.809262,0.580143,-1.508255,99757.02,-137,+89,-155
82007,8.784,-6.570,0.765,0.798620,0.537575,-1.427906,99757.02,-140,+89,-154
82017,8.691,-6.027,0.665,0.798620,0.484364,-1.337448,99763.19,-141,+90,-153
82027,8.621,-5.686,0.546,0.815115,0.431153,-1.246457,99760.63,-143,+90,-153
82037,8.465,-5.634,0.530,0.836931,0.380602,-1.153870,99758.05,-143,+90,-153
82048,8.304,-5.796,0.596,0.839060,0.345483,-1.065539,99758.05,-144,+90,-152
82057,8.089,-6.057,0.705,0.811922,0.326327,-0.977741,99762.73,-146,+90,-151
82067,7.955,-6.224,0.846,0.767757,0.302382,-0.888879,99762.73,-148,+91,-151
82077,7.858,-6.340,0.826,0.715078,0.252364,-0.797356,99762.30,-148,+91,-151
82086,7.461,-6.351,0.602,0.646968,0.209795,-0.692530,99761.68,-150,+91,-150
82097,7.365,-6.325,0.744,0.593225,0.179465,-0.554714,99760.27,-150,+91,-150
82107,7.552,-6.212,0.851,0.511812,0.163501,-0.438714,99760.27,-151,+91,-151
82117,7.594,-5.997,0.934,0.371868,0.177336,-0.356237,99760.86,-152,+91,-150
82127,7.703,-5.775,0.914,0.203721,0.210327,-0.283870,99758.41,-152,+91,-150
82137,7.917,-5.536,0.932,0.041960,0.234804,-0.218421,99760.13,-154,+91,-149
82147,7.966,-5.163,0.935,-0.095325,0.233208,-0.137008,99758.00,-155,+91,-148
82157,7.938,-4.591,1.107,-0.168224,0.217244,-0.073687,99761.81,-156,+91,-147
82167,7.973,-4.060,1.302,-0.185783,0.190639,-0.025265,99763.69,-156,+91,-147
82178,8.015,-3.550,1.635,-0.155985,0.151263,0.013047,99759.72,-156,+93,-147
82187,8.008,-3.278,1.930,-0.102242,0.116676,0.039653,99759.72,-157,+92,-148
82197,8.193,-3.070,2.485,-0.049563,0.092199,0.065194,99758.27,-158,+92,-146
82207,8.505,-2.899,2.936,-0.011784,0.087942,0.079029,99758.27,-158,+92,-146
82217,8.746,-2.807,3.009,-0.034132,0.127318,0.076900,99762.12,-159,+92,-145
82223,8.781,-2.747,2.849,-0.087875,0.182657,0.054552,99761.85,-159,+92,-145
82232,8.793,-2.621,2.736,-0.174077,0.243318,0.026882,99761.23,-159,+92,-147
82242,8.665,-2.458,2.659,-0.301251,0.320474,-0.012494,99760.91,-161,+91,-144
82252,8.671,-2.176,2.851,-0.407141,0.391776,-0.084861,99760.91,-161,+93,-144
82262,8.809,-1.704,3.127,-0.469930,0.445520,-0.162017,99764.06,-161,+93,-144
82272,9.109,-1.244,3.078,-0.491747,0.488088,-0.237044,99760.41,-163,+95,-142
82282,9.644,-0.957,3.550,-0.477912,0.520015,-0.311008,99760.30,-165,+96,-140
82292,10.216,-0.752,3.348,-0.385325,0.509905,-0.401998,99757.80,-166,+99,-138
82301,9.758,-1.496,2.709,-0.429490,0.475850,-0.373797,99757.80,-166,+99,-138
82312,9.438,-1.936,2.648,-0.354994,0.411464,-0.262586,99763.34,-167,+99,-137
82322,9.396,-2.267,2.249,-0.352334,0.404015,-0.192879,99760.31,-168,+101,-136
82332,9.377,-2.440,2.213,-0.392774,0.382731,-0.109338,99760.73,-170,+102,-135
82342,10.649,-2.377,2.249,-0.350737,0.310896,-0.014623,99762.50,-170,+102,-135
82352,10.064,-2.301,1.942,-0.243783,0.167758,0.139689,99762.50,-170,+104,-134
82362,9.125,-1.942,1.234,-0.031472,0.001740,0.297726,99757.55,-171,+102,-134
82372,8.872,-1.918,1.227,0.207446,-0.140333,0.406276,99761.57,-171,+101,-135
82382,9.321,-2.008,1.254,0.308014,-0.147783,0.522276,99760.37,-171,+101,-135
82392,9.480,-1.347,1.800,0.309611,-0.142462,0.537707,99759.90,-171,+97,-135
82402,9.636,-1.187,2.553,0.251079,-0.051471,0.537175,99759.90,-173,+95,-136
82412,10.206,-1.197,3.172,0.215959,0.003868,0.560056,99763.13,-172,+93,-134
82422,10.249,-1.185,3.209,0.203721,-0.005710,0.590918,99760.16,-173,+91,-135
82433,9.729,-1.552,2.915,0.212767,-0.036572,0.643065,99758.48,-173,+91,-135
82442,9.169,-1.771,3.113,0.285666,-0.062113,0.671799,99758.70,-174,+88,-135
82452,8.640,-2.949,4.167,0.394748,-0.062645,0.760661,99758.70,-175,+85,-136
82462,8.810,-3.257,5.305,0.518730,-0.088187,0.813872,99760.79,-175,+81,-137
82472,8.829,-4.165,5.362,0.635794,-0.183434,0.880918,99760.48,-175,+81,-137
82482,8.995,-4.114,4.350,0.633133,-0.285067,0.916569,99760.07,-175,+76,-137
82492,8.766,-4.004,3.524,0.496381,-0.274957,0.869744,99759.18,-175,+73,-137
82502,8.806,-4.049,2.700,0.377189,-0.250480,0.868147,99759.18,-176,+69,-139
82512,8.817,-3.640,2.194,0.214363,-0.218021,0.823982,99761.45,-176,+69,-139
82522,8.717,-3.472,2.540,0.053134,-0.136076,0.755872,99761.97,-176,+66,-137
82532,8.816,-3.022,2.615,-0.081490,-0.061049,0.738313,99759.25,-175,+64,-139
82542,8.811,-2.106,2.483,-0.158646,0.001208,0.725542,99760.52,-176,+62,-139
82552,8.779,-1.584,2.969,-0.112884,0.027281,0.755340,99760.52,-176,+62,-139
82563,8.767,-1.669,3.267,0.061115,-0.026462,0.802698,99758.22,-176,+61,-137
82572,8.781,-2.400,2.410,0.228198,-0.128095,0.840478,99759.38,-177,+57,-138
82582,8.281,-3.641,2.313,0.279280,-0.146719,0.819193,99759.33,-176,+54,-139
82592,8.459,-4.551,2.449,0.230858,-0.095636,0.811212,99759.02,-176,+54,-139
82603,8.348,-5.074,2.727,0.101556,-0.023269,0.751083,99759.02,-177,+51,-139
82612,8.369,-4.620,3.051,-0.020829,0.055483,0.667010,99762.09,-177,+49,-139
82622,8.289,-4.248,3.310,-0.084683,0.113483,0.602625,99759.37,-178,+47,-139
82632,8.447,-3.991,3.418,-0.061270,0.115079,0.572294,99758.85,-178,+47,-139
82642,8.525,-3.922,3.416,-0.005930,0.088474,0.533450,99757.85,-178,+45,-138
82652,8.448,-4.028,3.400,0.029721,0.068254,0.486625,99757.85,-180,+43,-137
82662,8.400,-4.137,3.358,0.041960,0.073575,0.445120,99763.16,-180,+42,-138
82672,8.360,-4.217,3.224,0.035042,0.097520,0.390313,99759.77,-180,+42,-138
82682,8.410,-4.202,3.046,0.015886,0.120400,0.349873,99759.88,-180,+42,-137
82693,8.450,-4.040,3.175,0.014290,0.136364,0.310496,99758.47,-179,+40,-137
82702,8.575,-3.922,3.270,0.027593,0.131575,0.284423,99758.47,-180,+39,-136
82712,8.585,-4.028,3.333,0.022804,0.118272,0.266863,99763.11,-180,+39,-136
82722,8.549,-3.935,3.617,0.019079,0.104969,0.246111,99756.44,-181,+38,-136
82733,8.508,-3.702,3.686,0.000987,0.091667,0.238662,99758.31,-181,+37,-136
82742,8.450,-3.873,3.135,-0.021894,0.059740,0.242386,99756.33,-182,+37,-136
82752,8.367,-4.557,2.495,-0.090004,0.031006,0.231212,99756.33,-182,+37,-136
82762,8.494,-4.467,2.649,-0.193765,0.049098,0.187579,99761.33,-182,+36,-134
82772,8.421,-3.992,3.128,-0.299655,0.109226,0.143414,99761.55,-182,+37,-135
82782,8.306,-3.861,2.979,-0.410334,0.156052,0.132772,99760.19,-182,+37,-135
82792,8.410,-3.824,3.079,-0.496536,0.158712,0.140753,99759.92,-182,+37,-135
82802,8.585,-3.694,3.353,-0.517288,0.160841,0.171084,99759.92,-182,+38,-135
82812,8.423,-3.746,3.538,-0.547618,0.157648,0.231744,99760.45,-183,+38,-134
82823,8.344,-3.587,3.554,-0.550279,0.128914,0.298790,99761.07,-182,+39,-134
82832,8.354,-3.537,3.420,-0.516756,0.093795,0.352001,99759.93,-182,+39,-134
82842,8.191,-3.965,3.039,-0.468334,0.066125,0.387652,99757.84,-183,+38,-132
82852,8.221,-4.550,2.504,-0.441196,0.020364,0.400955,99757.84,-183,+38,-134
82863,8.311,-4.838,2.388,-0.470462,0.023024,0.376478,99761.82,-183,+38,-133
82872,8.453,-4.990,2.442,-0.540169,0.077832,0.353065,99761.45,-183,+38,-133
82882,8.403,-4.854,2.768,-0.595508,0.122529,0.342423,99761.40,-183,+39,-133
82892,8.288,-4.502,3.030,-0.583802,0.134235,0.319010,99759.99,-182,+40,-133
82903,8.084,-4.234,3.081,-0.530059,0.129446,0.303047,99759.99,-184,+40,-132
82913,7.970,-4.271,3.122,-0.499728,0.101245,0.289744,99761.71,-184,+40,-132
82922,7.926,-4.480,3.421,-0.471526,0.068254,0.270056,99759.30,-184,+40,-132
82932,8.013,-4.536,3.407,-0.496536,0.075171,0.266331,99761.09,-183,+40,-132
82942,8.141,-4.111,3.553,-0.523141,0.102841,0.266331,99758.52,-184,+40,-132
82953,8.211,-3.738,3.710,-0.509838,0.109758,0.276974,99758.52,-185,+40,-131
82962,8.155,-3.709,3.532,-0.412994,0.045373,0.314753,99763.00,-185,+40,-131
82972,8.110,-3.950,3.282,-0.265600,-0.044021,0.360515,99758.98,-184,+40,-132
82982,7.972,-4.511,3.048,-0.187380,-0.103618,0.384460,99758.78,-184,+40,-132
82993,8.033,-4.747,2.852,-0.172481,-0.124370,0.398295,99757.53,-184,+38,-132
83002,8.119,-4.750,2.947,-0.198022,-0.107875,0.400955,99757.53,-184,+38,-132
83012,8.090,-4.775,2.910,-0.208664,-0.100957,0.413726,99762.08,-183,+38,-132
83022,7.959,-4.712,2.934,-0.180462,-0.119049,0.426496,99760.41,-183,+38,-134
83033,7.773,-4.716,3.018,-0.146939,-0.135544,0.432882,99760.31,-183,+36,-132
83042,7.645,-4.778,2.923,-0.116609,-0.145654,0.436606,99761.05,-183,+36,-132
83048,7.627,-4.837,2.847,-0.096389,-0.152572,0.433414,99761.05,-183,+34,-133
83057,7.676,-4.966,2.778,-0.079362,-0.163214,0.428093,99761.05,-183,+34,-133
83067,7.809,-5.057,2.569,-0.058609,-0.180242,0.421707,99761.52,-182,+34,-133
83078,7.916,-5.255,2.256,-0.055949,-0.188223,0.406808,99759.95,-183,+32,-134
83088,8.010,-5.368,2.291,-0.059673,-0.173324,0.388184,99757.56,-182,+32,-136
83097,8.002,-5.417,2.283,-0.057545,-0.160553,0.376478,99760.96,-182,+32,-135
83107,7.735,-5.591,2.229,-0.065527,-0.150975,0.356258,99760.38,-182,+30,-135
83118,7.725,-5.705,2.192,-0.088407,-0.133416,0.331249,99760.34,-181,+30,-136
83127,7.873,-5.900,2.122,-0.158646,-0.108939,0.301451,99760.34,-182,+29,-136
83137,7.880,-5.723,2.428,-0.214517,-0.074884,0.271120,99759.13,-181,+29,-136
83147,7.783,-5.368,2.660,-0.267728,-0.032847,0.251432,99759.45,-181,+29,-136
83158,7.736,-5.074,2.746,-0.295930,-0.023801,0.262607,99759.45,-181,+30,-136
83168,7.814,-4.848,2.914,-0.283160,-0.036572,0.286552,99761.23,-180,+29,-137
83178,7.811,-4.803,2.960,-0.256554,-0.059985,0.320074,99757.95,-180,+28,-137
83187,7.833,-5.007,2.762,-0.232609,-0.095104,0.357322,99758.27,-180,+28,-137
83197,7.868,-5.190,2.785,-0.223031,-0.119581,0.389249,99758.22,-180,+28,-137
83208,7.895,-5.293,2.802,-0.240059,-0.119049,0.409469,99760.77,-180,+26,-136
83218,7.706,-5.419,2.638,-0.256554,-0.115856,0.425964,99761.62,-180,+25,-137
83227,7.467,-5.497,2.609,-0.254426,-0.112131,0.447781,99760.99,-180,+25,-137
83237,7.348,-5.601,2.507,-0.252829,-0.111599,0.456827,99760.21,-180,+26,-138
83248,7.329,-5.520,2.492,-0.258682,-0.105746,0.460019,99760.21,-179,+24,-138
83258,7.409,-5.462,2.667,-0.281563,-0.104682,0.463744,99760.21,-179,+24,-139
83267,7.752,-5.233,2.738,-0.273049,-0.122774,0.477047,99760.13,-179,+24,-139
83277,7.908,-5.408,2.615,-0.260279,-0.138737,0.498331,99762.48,-178,+22,-138
83282,7.881,-5.531,2.519,-0.229416,-0.160021,0.521744,99760.02,-178,+22,-138
83293,7.767,-5.702,2.292,-0.208132,-0.172792,0.543561,99760.18,-178,+22,-139
83302,7.512,-6.169,1.861,-0.224095,-0.183966,0.551010,99760.18,-178,+21,-140
83312,7.467,-6.313,1.833,-0.256554,-0.173856,0.539304,99760.46,-177,+20,-140
83322,7.501,-6.287,1.992,-0.309765,-0.136609,0.527065,99759.21,-177,+20,-140
83333,7.427,-6.273,1.950,-0.352866,-0.112664,0.516423,99757.95,-176,+20,-140
83343,7.424,-6.199,2.102,-0.367233,-0.105746,0.507377,99758.79,-176,+19,-141
83352,7.412,-6.138,2.243,-0.376279,-0.105746,0.504184,99758.79,-175,+19,-141
83362,7.385,-6.118,2.296,-0.389582,-0.107875,0.503120,99759.40,-176,+19,-142
83373,7.375,-6.150,2.396,-0.413526,-0.108939,0.505781,99761.91,-176,+17,-142
83383,7.288,-6.101,2.575,-0.421508,-0.119581,0.507377,99757.16,-175,+17,-142
83392,7.085,-6.113,2.601,-0.420444,-0.123838,0.518019,99758.26,-175,+17,-143
83402,6.960,-6.164,2.422,-0.424169,-0.127563,0.537175,99758.26,-174,+16,-144
83412,7.124,-6.457,2.322,-0.444389,-0.125966,0.545157,99760.30,-174,+16,-144
83423,7.141,-6.825,1.977,-0.476847,-0.121709,0.547817,99758.74,-174,+16,-144
83433,7.357,-6.992,1.779,-0.521013,-0.105746,0.539836,99757.70,-172,+16,-144
83442,7.549,-7.000,1.764,-0.599233,-0.090315,0.520680,99758.27,-173,+16,-145
83452,8.004,-7.001,1.775,-0.663086,-0.083930,0.512698,99758.27,-173,+16,-145
83463,8.505,-7.038,1.816,-0.715233,-0.092976,0.522808,99759.80,-173,+16,-144
83473,8.778,-6.900,1.754,-0.775893,-0.110535,0.541432,99756.52,-172,+17,-145
83482,9.049,-6.734,1.414,-0.804627,-0.141930,0.589854,99759.13,-172,+17,-147
83492,9.308,-6.476,1.472,-0.803031,-0.197269,0.646258,99756.30,-172,+17,-147
83503,9.642,-6.202,1.769,-0.796113,-0.261654,0.699469,99756.30,-171,+18,-146
83513,9.812,-6.512,1.913,-0.799306,-0.334021,0.767047,99761.03,-170,+17,-147
83518,9.806,-6.786,2.059,-0.783875,-0.401599,0.846331,99760.72,-170,+17,-147
83527,9.879,-6.856,1.959,-0.787067,-0.464920,0.924019,99760.72,-168,+17,-149
83537,9.908,-7.055,2.061,-0.838150,-0.536223,1.004900,99759.56,-168,+17,-150
83548,9.951,-7.129,2.126,-0.900407,-0.608058,1.074074,99758.53,-168,+17,-150
83558,10.099,-7.081,2.110,-1.007361,-0.633599,1.146441,99758.53,-165,+17,-152
83568,10.251,-7.035,2.314,-1.131343,-0.642113,1.238496,99760.09,-164,+17,-154
83577,10.632,-6.621,2.453,-1.235104,-0.653819,1.338000,99759.08,-162,+16,-155
83588,10.929,-6.355,2.304,-1.326095,-0.668718,1.455065,99756.47,-161,+16,-156
83598,10.947,-6.058,2.123,-1.360150,-0.685214,1.577982,99756.47,-161,+16,-156
83607,11.035,-5.850,1.518,-1.362278,-0.700645,1.703028,99756.47,-158,+17,-159
83617,10.723,-6.003,1.155,-1.356425,-0.713948,1.817431,99760.64,-157,+15,-161
83628,10.041,-6.560,1.211,-1.296297,-0.737893,1.963761,99760.38,-155,+14,-162
83638,9.996,-6.976,1.390,-1.221269,-0.742682,2.101578,99760.53,-155,+14,-162
83648,10.097,-7.551,1.965,-1.235636,-0.724058,2.205872,99757.30,-152,+13,-164
83657,10.560,-8.319,2.529,-1.228719,-0.758645,2.284624,99757.30,-150,+10,-166
83667,10.985,-8.620,2.807,-1.206370,-0.829415,2.304844,99758.08,-147,+9,-168
83678,10.782,-8.580,2.973,-1.171783,-0.912957,2.281963,99755.86,-147,+9,-168
83688,10.194,-8.538,2.874,-1.077600,-1.005012,2.280367,99755.38,-144,+7,-169
83698,9.304,-8.293,2.734,-0.904664,-1.101856,2.299523,99755.38,-140,+4,-172
83707,8.391,-7.785,2.715,-0.698205,-1.165177,2.287284,99755.62,-137,+1,-174
83718,7.760,-6.841,2.730,-0.486958,-1.184865,2.208532,99755.62,-137,+1,-174
83728,6.497,-6.155,2.571,-0.343820,-1.163580,2.032404,99757.02,-133,-1,-176
83737,4.873,-5.650,2.392,-0.211325,-1.145489,1.840312,99754.99,-130,-4,-177
83747,4.620,-4.478,2.400,-0.003270,-1.167837,1.596606,99756.40,-126,-7,-179
83758,4.756,-3.506,0.995,0.043556,-1.162516,1.212422,99756.40,-126,-7,-179
83768,3.441,-4.599,0.272,-0.130976,-1.001819,0.803230,99758.61,-123,-9,-180
83778,2.264,-5.483,1.120,-0.119270,-0.808131,0.547285,99759.75,-121,-9,-182
83787,4.713,-2.731,2.083,0.222877,-0.764498,0.205139,99759.59,-119,-9,-182
83798,5.785,-0.294,1.269,0.178712,-0.678296,-0.342402,99755.48,-119,-9,-182
83808,4.431,0.272,1.166,0.063776,-0.562828,-0.711686,99758.35,-118,-7,-182
83818,3.808,0.023,1.264,0.248418,-0.502700,-0.923998,99755.84,-118,-6,-183
83828,3.427,-0.616,1.094,0.505959,-0.479819,-1.163448,99755.79,-118,-4,-183
83837,2.854,-1.548,0.984,0.732638,-0.434058,-1.405558,99755.79,-118,-4,-183
83848,2.747,-2.380,0.968,0.872583,-0.343599,-1.667888,99753.60,-118,-3,-184
83858,3.034,-2.688,0.872,0.888014,-0.195141,-1.963741,99753.60,-119,-1,-182
83868,3.453,-2.855,0.956,0.823629,-0.006774,-2.269171,99757.48,-121,+2,-182
83877,4.043,-2.925,1.154,0.785849,0.160841,-2.552254,99754.20,-121,+2,-182
83888,4.533,-2.954,1.221,0.812454,0.298657,-2.790107,99755.81,-124,+5,-180
83898,4.812,-3.196,1.209,0.926858,0.417318,-2.984327,99754.20,-127,+11,-179
83908,4.853,-3.708,1.285,1.089152,0.524272,-3.151942,99754.20,-130,+17,-177
83918,5.040,-4.368,1.239,1.248252,0.632290,-3.296143,99755.51,-130,+17,-177
83928,5.490,-5.051,1.075,1.350417,0.763189,-3.453116,99754.93,-133,+20,-174
83938,6.126,-5.756,0.995,1.356803,0.926547,-3.618070,99755.82,-137,+26,-171
83948,7.011,-6.412,1.072,1.342968,1.081923,-3.737794,99755.82,-140,+32,-168
83957,7.886,-6.913,1.263,1.356803,1.202712,-3.817079,99755.82,-140,+32,-168
83968,8.524,-7.083,1.578,1.413738,1.277207,-3.859116,99756.61,-143,+38,-167
83978,8.854,-7.461,1.775,1.496747,1.319776,-3.881996,99757.80,-147,+43,-163
83988,9.173,-8.251,1.951,1.557408,1.351702,-3.913923,99754.20,-149,+49,-159
83997,9.447,-9.119,2.061,1.546766,1.387354,-3.935207,99754.72,-149,+49,-159
84007,9.412,-9.714,2.167,1.446197,1.464510,-3.938932,99754.72,-152,+55,-156
84018,9.176,-9.910,2.248,1.293482,1.583170,-3.945317,99757.29,-155,+61,-153
84028,9.193,-9.713,2.092,1.137041,1.702895,-3.947446,99758.65,-158,+68,-150
84038,9.560,-9.301,1.769,0.989115,1.813574,-3.922969,99754.71,-158,+68,-150
84047,9.939,-9.012,1.497,0.867262,1.897647,-3.871886,99754.71,-162,+76,-144
84058,10.134,-8.830,1.160,0.792234,1.953519,-3.798455,99757.91,-165,+84,-140
84068,10.406,-8.721,1.069,0.757115,1.984381,-3.724492,99757.91,-169,+93,-134
84078,10.922,-8.683,1.009,0.718803,1.977996,-3.677666,99756.09,-169,+93,-134
84087,11.399,-8.666,1.038,0.633666,1.946601,-3.651593,99759.95,-172,+103,-129
84098,11.521,-8.487,1.107,0.536822,1.904565,-3.599446,99756.76,-173,+114,-125
84108,11.215,-8.517,1.167,0.449556,1.861996,-3.490363,99756.76,-176,+124,-120
84118,10.667,-8.766,1.329,0.415501,1.800271,-3.322217,99759.07,-176,+133,-116
84128,10.483,-8.923,1.155,0.463390,1.675757,-3.108309,99759.02,-176,+133,-116
84137,10.133,-8.821,0.861,0.502234,1.544858,-2.874180,99758.76,-176,+143,-112
84148,9.741,-8.532,0.741,0.520326,1.452803,-2.621428,99758.29,-175,+152,-108
84158,9.715,-8.264,0.683,0.524583,1.361280,-2.362823,99760.79,-173,+158,-106
84168,9.685,-7.934,0.270,0.499574,1.209097,-2.084529,99758.91,-173,+158,-106
84178,8.981,-7.378,-0.144,0.434124,1.018602,-1.772713,99757.34,-171,+166,-103
84188,8.004,-7.135,-0.068,0.390491,0.816400,-1.411943,99757.34,-170,+171,-102
84198,6.960,-7.436,-0.293,0.368143,0.577483,-1.021374,99758.29,-170,+174,-101
84208,6.109,-7.991,-0.526,0.295244,0.356125,-0.596219,99758.29,-170,+174,-101
84217,6.174,-7.978,-0.132,0.187758,0.166694,-0.155100,99760.27,-168,+176,-100
84228,7.086,-7.175,1.094,0.138803,-0.001453,0.241854,99762.41,-169,+177,-102
84238,7.511,-7.182,0.884,0.110070,-0.229728,0.689891,99759.65,-170,+175,-102
84248,7.467,-7.467,1.313,0.251079,-0.544205,1.236899,99757.98,-170,+175,-102
84258,10.669,-7.338,2.450,0.615574,-0.948608,1.802532,99757.98,-170,+171,-104
84268,11.062,-3.563,5.207,1.090748,-1.311507,2.147871,99758.95,-171,+164,-110
84278,20.143,1.229,6.496,1.330729,-1.056094,1.976532,99758.95,-172,+156,-113
84288,15.764,4.772,3.309,0.686877,-0.906571,2.063798,99756.96,-172,+156,-113
84298,9.102,0.810,-1.734,0.214363,-0.722461,2.504917,99756.96,-173,+149,-115
84307,8.228,-4.348,-2.924,0.552785,-0.887947,2.586862,99756.96,-175,+141,-118
84318,8.564,-5.874,-1.977,0.837464,-1.120479,2.504385,99762.81,-175,+132,-122
84328,8.532,-6.695,2.202,0.873647,-0.998094,2.343156,99762.81,-175,+132,-122
84338,8.180,-7.984,5.984,0.770950,-0.605397,2.296330,99759.27,-175,+124,-124
84343,8.357,-9.211,7.441,0.770950,-0.445232,2.312825,99755.25,-177,+116,-126
84353,8.994,-8.371,6.495,0.897060,-0.533030,2.318147,99755.25,-177,+116,-126
84363,8.651,-5.707,3.155,0.808730,-0.660737,2.087211,99762.34,-177,+108,-128
84373,6.901,-5.078,2.097,0.533097,-0.615507,1.794551,99757.85,-176,+102,-131
84383,6.996,-5.607,3.906,0.301629,-0.512810,1.697174,99758.84,-177,+97,-132
84392,6.934,-7.591,4.109,-0.111820,-0.408517,1.551908,99758.88,-177,+97,-132
84403,7.375,-8.502,2.062,-0.543361,-0.268040,1.310331,99758.88,-177,+93,-132
84413,8.064,-6.246,0.462,-0.886572,-0.033911,0.966056,99760.90,-177,+92,-132
84423,8.691,-4.190,0.965,-0.978627,0.172015,0.760661,99760.63,-178,+93,-131
84432,9.133,-3.222,1.934,-0.786535,0.177336,0.762790,99758.23,-178,+93,-131
84443,8.922,-3.394,2.003,-0.508774,0.082089,0.831964,99758.96,-179,+92,-130
84453,8.952,-3.712,2.523,-0.310297,0.021960,0.872404,99758.96,-180,+89,-130
84463,8.670,-4.101,3.389,-0.284224,-0.002517,0.876129,99761.38,-180,+89,-130
84473,8.331,-4.481,3.395,-0.373086,-0.019544,0.843138,99759.55,-180,+89,-130
84483,7.891,-4.755,3.409,-0.475783,-0.006774,0.770239,99757.14,-180,+86,-129
84493,8.045,-4.586,3.165,-0.581673,0.051226,0.695744,99758.81,-181,+86,-129
84503,8.148,-4.489,3.192,-0.635416,0.075703,0.661689,99758.81,-182,+85,-129
84513,8.523,-3.927,3.305,-0.556664,0.015575,0.663285,99760.37,-182,+85,-129
84523,8.512,-3.653,3.300,-0.414059,-0.065838,0.681377,99761.26,-182,+84,-129
84533,8.317,-4.236,3.058,-0.284224,-0.150975,0.706918,99756.73,-182,+84,-129
84543,8.008,-4.776,3.119,-0.197490,-0.210040,0.701597,99758.18,-182,+80,-129
84553,7.573,-5.074,2.958,-0.232077,-0.149911,0.664882,99758.18,-182,+80,-129
84563,7.634,-4.963,2.800,-0.323600,-0.078076,0.616992,99763.65,-182,+79,-128
84573,7.832,-4.793,2.918,-0.409802,-0.023801,0.577083,99760.66,-182,+78,-129
84583,8.025,-4.582,3.012,-0.428958,-0.021673,0.563781,99760.82,-182,+78,-129
84593,8.119,-4.492,3.121,-0.369893,-0.043489,0.566441,99756.91,-182,+78,-129
84603,8.021,-4.368,3.040,-0.281563,-0.087122,0.585065,99756.91,-182,+77,-129
84613,7.834,-4.253,3.398,-0.175673,-0.120113,0.620184,99758.89,-182,+76,-129
84623,7.791,-4.237,3.544,-0.081490,-0.141398,0.660093,99762.75,-182,+74,-129
84633,7.609,-4.637,3.098,-0.020829,-0.180242,0.680845,99760.23,-182,+74,-129
84643,7.691,-5.089,2.505,0.022804,-0.224939,0.684570,99758.16,-182,+71,-130
84653,7.880,-5.535,1.933,-0.006462,-0.244627,0.669671,99758.16,-182,+70,-131
84663,8.217,-6.070,1.208,-0.098517,-0.222810,0.643065,99760.83,-182,+68,-132
84673,8.466,-6.442,1.008,-0.206004,-0.182902,0.623377,99760.77,-182,+68,-132
84683,8.397,-5.730,1.537,-0.299123,-0.104150,0.610606,99760.25,-182,+66,-132
84694,8.015,-5.170,1.827,-0.316150,-0.067434,0.606349,99756.28,-181,+66,-132
84703,7.689,-5.200,2.181,-0.264536,-0.077012,0.616460,99756.28,-181,+64,-132
84713,7.582,-5.518,2.601,-0.244316,-0.078609,0.616460,99763.29,-181,+64,-132
84723,7.505,-5.749,2.643,-0.277306,-0.073820,0.602093,99761.15,-181,+63,-131
84733,7.433,-5.846,2.419,-0.317747,-0.057856,0.585597,99758.65,-182,+63,-132
84743,7.426,-5.631,2.596,-0.342224,-0.045618,0.561652,99759.85,-182,+61,-132
84753,7.460,-5.573,2.606,-0.344352,-0.048278,0.551010,99759.85,-182,+61,-132
84763,7.564,-5.653,2.501,-0.337435,-0.061581,0.549414,99761.88,-182,+60,-132
84773,7.590,-5.609,2.600,-0.318279,-0.080205,0.557395,99760.47,-181,+59,-132
84783,7.518,-5.722,2.449,-0.304444,-0.100425,0.573359,99758.80,-182,+59,-132
84793,7.630,-5.834,2.395,-0.293802,-0.118517,0.578680,99757.48,-182,+59,-132
84803,7.619,-6.000,2.333,-0.307637,-0.123838,0.578148,99757.48,-181,+57,-132
84813,7.653,-6.060,2.055,-0.329808,-0.107520,0.576019,99760.48,-180,+57,-133
84823,7.693,-6.056,1.885,-0.353930,-0.091379,0.569634,99758.45,-181,+56,-134
84833,7.712,-6.042,1.661,-0.367233,-0.073820,0.565909,99760.70,-181,+56,-134
84843,7.737,-6.032,1.616,-0.359251,-0.062113,0.573891,99759.03,-181,+55,-132
84853,7.640,-6.184,1.575,-0.351270,-0.063710,0.581872,99759.03,-180,+54,-134
84864,7.607,-6.233,1.816,-0.354462,-0.056260,0.584533,99759.38,-180,+53,-134
84873,7.558,-6.215,2.241,-0.357655,-0.061049,0.590386,99761.83,-180,+52,-134
84883,7.323,-6.334,2.181,-0.351270,-0.081269,0.606349,99761.16,-180,+52,-134
84893,7.221,-6.569,1.949,-0.360315,-0.073287,0.606349,99760.73,-180,+51,-133
84903,7.388,-6.629,1.901,-0.376811,-0.061049,0.590918,99760.73,-178,+50,-134
84913,7.470,-6.691,1.959,-0.392774,-0.049343,0.582405,99760.32,-180,+49,-134
84923,7.685,-6.551,2.131,-0.398627,-0.055196,0.587726,99762.62,-180,+49,-134
84933,7.670,-6.574,1.949,-0.412462,-0.080205,0.604221,99760.48,-179,+49,-134
84943,7.683,-6.743,1.807,-0.430554,-0.108407,0.635616,99760.01,-178,+47,-134
84953,7.919,-6.752,1.971,-0.459820,-0.128095,0.680845,99760.01,-177,+47,-135
84963,7.976,-6.679,2.265,-0.510903,-0.143526,0.723946,99761.66,-177,+47,-135
84973,8.032,-6.481,2.490,-0.532187,-0.180242,0.780349,99760.94,-178,+45,-136
84983,7.901,-6.397,2.469,-0.540701,-0.230260,0.842074,99760.94,-176,+44,-136
84994,7.934,-6.540,2.235,-0.532187,-0.281875,0.915505,99758.48,-176,+42,-136
85003,7.991,-6.660,2.176,-0.545490,-0.316462,0.959670,99758.48,-176,+42,-136
85013,8.062,-6.842,2.153,-0.578480,-0.349452,1.020863,99760.69,-174,+41,-137
85023,8.165,-6.993,2.068,-0.609343,-0.376058,1.072478,99760.84,-174,+40,-138
85033,8.254,-7.211,1.854,-0.641802,-0.390957,1.118239,99760.06,-172,+38,-139
85043,8.611,-7.500,1.564,-0.693948,-0.399471,1.156551,99754.91,-172,+38,-139
85053,9.151,-7.615,1.542,-0.780150,-0.394682,1.190074,99754.91,-170,+37,-140
85063,9.727,-7.678,1.937,-0.891893,-0.400535,1.231578,99759.97,-169,+35,-141
85073,10.222,-7.717,2.096,-1.015875,-0.389361,1.303945,99759.34,-167,+34,-142
85084,10.689,-7.700,1.587,-1.159544,-0.372333,1.413028,99757.16,-167,+34,-142
85093,11.242,-7.660,1.362,-1.324498,-0.358498,1.501358,99758.16,-165,+34,-144
85103,12.071,-7.384,2.123,-1.488920,-0.315397,1.563083,99758.16,-163,+32,-144
85113,12.967,-7.491,2.378,-1.656003,-0.254205,1.641835,99761.42,-163,+33,-145
85124,13.464,-7.646,1.811,-1.836920,-0.191416,1.743468,99759.19,-163,+33,-145
85133,13.441,-7.402,1.708,-2.039654,-0.047214,1.819560,99757.72,-159,+33,-147
85143,12.693,-6.917,2.738,-2.271122,0.158712,1.882881,99759.81,-159,+33,-145
85153,11.988,-6.599,3.286,-2.335507,0.228419,2.007927,99759.81,-157,+34,-145
85164,11.272,-6.642,3.294,-2.063067,0.033667,2.185119,99758.91,-157,+34,-145
85173,10.449,-7.146,3.327,-1.513397,-0.362755,2.364440,99758.06,-156,+34,-145
85183,10.127,-7.907,3.336,-0.931801,-0.767691,2.486293,99756.45,-152,+30,-147
85193,9.407,-8.344,2.195,-0.699802,-1.005544,2.429358,99757.44,-148,+26,-148
85203,7.340,-8.753,2.407,-0.768976,-0.960314,2.312294,99757.44,-148,+26,-148
85214,6.270,-8.452,2.406,-0.906260,-0.815048,2.202679,99757.53,-143,+23,-151
85223,6.155,-6.759,2.448,-0.986077,-0.682021,2.053156,99758.73,-141,+20,-153
85233,5.708,-5.214,2.406,-0.956278,-0.591562,1.879156,99757.02,-137,+18,-154
85243,4.274,-4.518,2.392,-0.817398,-0.551654,1.706220,99756.39,-137,+18,-154
85254,5.240,-3.603,2.372,-0.632756,-0.549526,1.487523,99756.39,-134,+17,-156
85263,8.354,-4.028,1.629,-0.793985,-0.254205,0.912313,99758.22,-132,+17,-156
85273,-2.624,-4.954,-0.187,-0.710976,-0.522388,0.678184,99759.58,-129,+18,-156
85283,-1.793,-5.990,0.815,-0.442260,-0.499507,0.732459,99756.81,-129,+18,-156
85294,3.837,-4.412,1.353,-0.437471,-0.458003,0.674992,99757.22,-126,+18,-158
85303,6.186,-2.080,0.922,-0.682242,-0.269104,-0.015687,99757.22,-124,+19,-159
85313,4.936,-1.416,0.556,-0.898811,-0.065838,-0.621760,99760.19,-123,+23,-160
85323,3.986,-1.173,0.597,-0.736517,-0.042957,-0.845246,99754.56,-122,+23,-159
85334,3.687,-0.821,0.275,-0.422572,-0.095636,-1.003283,99757.42,-122,+28,-159
85344,3.201,-1.158,0.237,-0.066591,-0.136076,-1.199631,99756.59,-121,+32,-159
85353,2.958,-2.131,0.139,0.314400,-0.177049,-1.397044,99756.59,-119,+34,-159
85363,2.980,-2.975,0.020,0.637390,-0.178645,-1.590732,99756.65,-118,+37,-160
85373,3.325,-3.502,0.099,0.839060,-0.116920,-1.794530,99755.35,-118,+37,-160
85384,3.691,-3.815,0.254,0.924197,0.000144,-2.025997,99757.32,-118,+38,-159
85393,4.015,-3.974,0.395,0.985390,0.147538,-2.240970,99756.18,-116,+42,-159
85403,4.311,-4.210,0.580,1.090216,0.292981,-2.430401,99756.18,-117,+44,-158
85413,4.588,-4.559,0.720,1.206748,0.388052,-2.553318,99756.87,-117,+44,-158
85424,4.947,-5.009,0.729,1.355206,0.454565,-2.661336,99755.46,-116,+47,-156
85433,5.229,-5.499,0.594,1.518564,0.506712,-2.759777,99754.57,-116,+49,-155
85443,5.659,-6.198,0.562,1.661702,0.566841,-2.859281,99754.21,-116,+51,-155
85453,6.146,-7.030,0.717,1.722362,0.637611,-2.969428,99754.21,-116,+51,-155
85464,6.701,-7.813,0.750,1.700546,0.697740,-3.075850,99759.24,-116,+54,-153
85474,7.195,-8.372,0.841,1.609023,0.765317,-3.177483,99756.16,-116,+57,-151
85483,7.590,-8.780,1.054,1.463757,0.846730,-3.261556,99756.38,-116,+60,-150
85493,7.806,-8.901,1.330,1.296142,0.920694,-3.321152,99755.07,-116,+60,-150
85504,7.811,-8.704,1.467,1.143959,0.985611,-3.358400,99755.07,-116,+64,-148
85514,7.778,-8.542,1.479,1.038069,1.067024,-3.373299,99759.03,-116,+68,-147
85523,8.028,-8.614,1.526,0.998161,1.160675,-3.382345,99757.36,-117,+74,-145
85533,8.384,-8.596,1.380,1.004014,1.242088,-3.375960,99754.50,-117,+74,-145
85543,8.584,-8.415,1.357,1.018913,1.315519,-3.334987,99755.28,-117,+78,-142
85554,8.807,-8.209,1.349,1.070528,1.365005,-3.276988,99755.28,-117,+82,-140
85564,8.966,-8.219,1.265,1.163647,1.382033,-3.212602,99759.02,-118,+86,-139
85573,9.080,-8.472,1.086,1.257830,1.377244,-3.147153,99756.68,-118,+86,-139
85583,9.175,-8.653,0.832,1.316362,1.372455,-3.098199,99758.18,-119,+88,-136
85594,9.151,-8.698,0.602,1.307849,1.387354,-3.066272,99758.34,-119,+91,-134
85603,9.052,-8.614,0.511,1.236546,1.414491,-3.047116,99758.34,-120,+95,-132
85613,8.940,-8.484,0.553,1.125867,1.449611,-3.025832,99758.15,-120,+95,-132
85623,9.052,-8.347,0.540,1.000821,1.484198,-2.996033,99759.15,-119,+98,-129
85634,9.308,-8.177,0.457,0.864069,1.511867,-2.980602,99756.70,-120,+101,-128
85644,9.386,-7.842,0.451,0.718803,1.532620,-2.971556,99755.49,-120,+106,-126
85653,9.449,-7.514,0.400,0.595354,1.540069,-2.946015,99755.49,-120,+106,-126
85663,9.362,-7.368,0.448,0.494785,1.535280,-2.892272,99757.93,-121,+110,-122
85673,9.441,-7.290,0.552,0.448491,1.490583,-2.807135,99757.51,-120,+114,-121
85684,9.479,-7.134,0.691,0.432528,1.428858,-2.714015,99757.20,-119,+118,-118
85694,9.692,-7.036,0.957,0.462326,1.355959,-2.580456,99755.79,-119,+118,-118
85703,9.906,-6.920,1.062,0.519794,1.269758,-2.414438,99755.79,-120,+122,-115
85713,9.753,-6.680,1.032,0.588436,1.186216,-2.254272,99760.34,-119,+124,-113
85724,9.534,-6.726,0.819,0.653886,1.089372,-2.052071,99760.23,-120,+126,-113
85734,9.138,-7.153,0.364,0.709225,0.944106,-1.793998,99760.49,-120,+126,-113
85743,8.566,-7.584,-0.084,0.735299,0.781813,-1.516236,99757.20,-120,+127,-110
85753,8.077,-7.770,-0.298,0.747537,0.626437,-1.237943,99757.20,-120,+127,-110
85764,8.063,-7.913,-0.437,0.726253,0.478510,-0.960182,99761.49,-121,+127,-110
85774,7.922,-8.109,-0.641,0.678363,0.320474,-0.674971,99761.07,-121,+127,-110
85783,8.208,-7.960,0.058,0.635262,0.175740,-0.395613,99761.76,-122,+125,-108
85793,7.942,-8.365,-0.627,0.583115,0.022492,-0.103485,99760.71,-122,+124,-110
85804,7.019,-9.539,-0.979,0.472436,-0.185031,0.352001,99760.71,-122,+122,-110
85814,10.556,-10.613,0.160,0.474033,-0.372333,0.855909,99762.32,-122,+122,-111
85823,6.991,-11.009,0.967,0.352179,-0.627214,1.443890,99760.59,-122,+116,-111
85833,6.832,-6.878,4.015,0.479354,-0.654351,1.639174,99758.82,-121,+112,-113
85843,18.378,0.934,6.534,0.434124,-0.497379,1.169854,99757.82,-122,+108,-114
85854,15.693,5.677,2.787,-0.828572,-0.219086,1.092698,99757.82,-123,+107,-112
85864,9.760,-0.308,0.030,-1.588425,0.162437,1.548184,99761.38,-123,+107,-112
85874,9.080,-5.203,2.024,-0.958762,-0.057856,1.773621,99760.48,-124,+106,-111
85883,9.517,-4.879,3.227,-0.455031,-0.425012,1.840312,99755.84,-125,+102,-111
85894,9.932,-3.278,3.513,-0.168756,-0.544737,1.928642,99756.78,-125,+97,-112
85904,9.112,-2.893,5.262,0.038235,-0.452150,2.015376,99756.78,-125,+97,-112
85913,8.332,-3.432,6.147,0.491592,-0.513874,2.056881,99760.20,-126,+91,-113
85923,8.198,-4.545,4.745,1.054032,-0.808663,2.122330,99759.95,-126,+83,-115
85934,8.102,-4.848,2.791,1.209408,-0.950204,2.072312,99757.80,-126,+76,-116
85944,7.510,-5.690,2.185,0.950803,-0.813452,1.891394,99757.49,-126,+76,-116
85953,7.161,-6.983,2.900,0.559170,-0.626149,1.745596,99757.49,-124,+70,-118
85963,6.983,-7.939,3.022,0.081336,-0.434058,1.527431,99759.20,-125,+66,-119
85974,7.189,-7.884,2.129,-0.433214,-0.233985,1.235303,99760.45,-125,+64,-118
85984,7.749,-6.303,0.969,-0.855178,-0.011563,0.947432,99757.59,-125,+64,-118
85994,8.399,-4.937,0.758,-1.037691,0.149134,0.730331,99757.05,-125,+65,-118
86003,8.885,-4.387,0.797,-0.947765,0.177868,0.619652,99757.05,-126,+64,-118
86013,8.995,-4.139,1.285,-0.741838,0.174676,0.578680,99759.86,-126,+65,-116
86024,9.176,-3.780,2.028,-0.533783,0.161373,0.567505,99758.92,-126,+65,-116
86034,8.851,-3.651,2.638,-0.372022,0.121997,0.576551,99762.05,-126,+65,-116
86043,8.331,-4.017,3.594,-0.264536,0.083685,0.589322,99757.41,-127,+64,-116
86053,8.175,-4.356,4.314,-0.221967,0.029410,0.566441,99757.41,-127,+63,-115
86064,8.122,-4.460,4.648,-0.265068,0.000676,0.504717,99759.41,-127,+63,-115
86074,8.019,-4.665,4.572,-0.381600,0.003336,0.444056,99759.41,-127,+63,-116
86083,7.952,-4.429,3.969,-0.480572,0.016107,0.389249,99759.14,-128,+63,-116
86093,8.154,-4.037,3.011,-0.524205,0.046969,0.346148,99757.73,-128,+63,-115
86104,8.525,-3.822,2.903,-0.484297,0.054951,0.356258,99757.73,-128,+63,-115
86110,8.750,-3.874,2.892,-0.432682,0.044309,0.383395,99759.16,-128,+63,-116
86119,8.670,-4.192,2.637,-0.410334,0.033667,0.419047,99759.16,-128,+63,-115
86129,8.447,-4.412,2.884,-0.394370,0.015575,0.483964,99760.52,-128,+63,-115
86138,8.336,-4.298,3.300,-0.419912,0.017171,0.504717,99761.26,-128,+62,-115
86149,8.156,-4.352,3.301,-0.488022,0.033667,0.494074,99759.23,-128,+63,-115
86159,8.074,-4.335,3.239,-0.518352,0.037391,0.477047,99759.79,-129,+63,-115
86169,8.081,-4.273,3.200,-0.536976,0.040052,0.470661,99758.74,-129,+63,-115
86178,8.191,-4.182,3.157,-0.564646,0.048566,0.479707,99759.26,-130,+62,-114
86189,8.287,-4.223,3.116,-0.573691,0.046437,0.489817,99759.26,-128,+63,-115
86199,8.343,-4.225,3.220,-0.538572,0.020896,0.513762,99757.49,-130,+62,-115
86209,8.281,-4.381,2.924,-0.513563,0.000676,0.536643,99757.49,-130,+62,-115
86218,8.056,-4.588,2.836,-0.478976,-0.015820,0.555799,99760.95,-130,+62,-113
86228,7.950,-4.666,2.842,-0.451306,-0.030187,0.577083,99760.99,-128,+62,-114
86239,7.940,-4.718,2.738,-0.452370,-0.032847,0.585597,99761.93,-130,+60,-113
86249,7.966,-4.778,2.772,-0.464609,-0.036572,0.594643,99758.70,-130,+60,-113
86259,8.090,-4.742,2.894,-0.459288,-0.049875,0.611671,99758.70,-129,+60,-113
86268,8.163,-4.712,3.039,-0.451838,-0.069563,0.637212,99759.15,-130,+60,-115
86279,8.131,-4.735,2.975,-0.448114,-0.086590,0.669671,99758.38,-130,+59,-114
86289,8.040,-4.741,2.893,-0.428958,-0.106278,0.704790,99758.49,-130,+59,-114
86299,7.983,-4.873,2.747,-0.410334,-0.126498,0.736716,99758.49,-130,+58,-114
86308,7.950,-5.166,2.481,-0.410866,-0.147251,0.761726,99758.49,-129,+57,-115
86319,8.039,-5.258,2.515,-0.410866,-0.161086,0.784606,99761.99,-129,+55,-115
86329,8.080,-5.540,2.281,-0.436407,-0.165342,0.808551,99761.57,-129,+55,-115
86339,8.041,-5.878,2.016,-0.456095,-0.185031,0.825047,99759.95,-128,+55,-115
86348,8.001,-5.688,2.356,-0.464609,-0.181838,0.831432,99756.20,-129,+53,-115
86359,7.857,-5.723,2.459,-0.516756,-0.162682,0.832496,99756.20,-129,+52,-115
86369,7.705,-5.766,2.424,-0.538572,-0.165342,0.838881,99762.93,-129,+52,-115
86379,7.692,-5.912,2.457,-0.550811,-0.174388,0.847927,99761.52,-128,+51,-116
86389,7.782,-5.997,2.563,-0.572627,-0.183966,0.859102,99758.07,-128,+51,-115
86398,7.917,-5.852,3.028,-0.594976,-0.216425,0.866551,99758.07,-128,+50,-116
86409,7.730,-5.491,3.079,-0.610407,-0.266443,0.885707,99760.30,-128,+50,-116
86419,7.421,-5.518,2.917,-0.584334,-0.300498,0.944771,99758.22,-128,+49,-116
86429,7.430,-5.461,2.949,-0.500260,-0.344663,1.021395,99758.22,-127,+47,-117
86438,7.494,-5.423,2.979,-0.445985,-0.384572,1.089505,99760.56,-127,+45,-118
86449,7.622,-5.790,2.665,-0.367233,-0.452682,1.158147,99758.33,-127,+45,-118
86459,7.730,-6.696,1.883,-0.323068,-0.539948,1.201248,99758.33,-125,+43,-118
86469,7.760,-7.389,1.123,-0.346481,-0.563893,1.189542,99759.57,-124,+42,-120
86479,8.077,-7.783,0.583,-0.480572,-0.486737,1.131010,99757.90,-124,+40,-120
86489,8.520,-7.802,0.012,-0.631691,-0.424480,1.091634,99760.04,-124,+40,-120
86499,8.653,-7.081,0.187,-0.734389,-0.379783,1.072478,99760.41,-123,+38,-120
86509,8.612,-6.587,0.513,-0.753545,-0.392553,1.093230,99760.46,-122,+38,-123
86519,8.628,-6.484,1.046,-0.710444,-0.446829,1.143248,99759.79,-121,+36,-123
86529,8.679,-6.392,1.696,-0.658297,-0.521324,1.215083,99757.13,-120,+36,-124
86539,8.853,-6.678,2.346,-0.648187,-0.596883,1.283193,99757.13,-120,+36,-124
86549,9.159,-6.941,2.659,-0.643930,-0.677232,1.380037,99756.13,-119,+34,-126
86559,9.693,-7.508,3.177,-0.701398,-0.725654,1.467835,99756.13,-117,+30,-126
86568,10.521,-8.168,3.689,-0.813141,-0.744810,1.533285,99761.23,-115,+29,-128
86579,11.514,-8.495,3.919,-0.969581,-0.737360,1.607780,99758.04,-115,+29,-128
86589,12.399,-8.263,3.383,-1.162737,-0.712883,1.708881,99759.87,-114,+28,-130
86599,13.163,-7.557,2.943,-1.342058,-0.703838,1.824881,99758.77,-113,+26,-131
86609,13.935,-6.820,3.233,-1.464443,-0.695856,1.947266,99758.77,-111,+26,-133
86619,14.782,-6.299,3.808,-1.491049,-0.681489,2.080294,99758.44,-111,+26,-133
86629,15.144,-6.099,3.961,-1.514994,-0.674039,2.216514,99757.56,-109,+24,-134
86639,14.578,-6.308,4.008,-1.552773,-0.639452,2.338899,99758.08,-107,+21,-135
86649,13.633,-6.843,3.919,-1.582572,-0.612315,2.432018,99758.08,-106,+17,-137
86659,12.109,-8.498,2.843,-1.653874,-0.651691,2.500128,99758.08,-106,+17,-137
86669,10.044,-10.511,2.833,-1.567673,-0.730975,2.636880,99761.76,-104,+15,-139
86679,10.148,-9.743,3.840,-1.238297,-0.820370,2.708183,99759.04,-102,+12,-140
86689,10.366,-8.540,4.496,-1.181361,-0.775140,2.544825,99755.65,-100,+9,-141
86700,8.991,-8.239,4.292,-1.433403,-0.690712,2.318501,99757.29,-100,+9,-141
86709,7.128,-8.018,3.755,-1.615030,-0.642113,2.166495,99757.29,-97,+7,-144
86719,5.788,-6.513,3.036,-1.569801,-0.564425,2.018037,99759.79,-95,+4,-145
86729,4.766,-5.020,3.328,-1.353232,-0.448957,1.860000,99755.93,-93,+3,-147
86739,7.955,-2.783,3.820,-0.975434,-0.436186,1.612037,99759.52,-93,+3,-147
86749,8.077,-3.017,1.139,-1.102609,-0.213764,0.938918,99759.52,-93,+2,-148
86759,-4.691,-3.727,-1.219,-0.745031,-0.698516,0.865487,99756.96,-91,+1,-149
86769,-1.045,-3.801,1.435,-0.274646,-0.636260,1.080991,99756.38,-90,-1,-150
86778,5.851,-0.666,1.491,-0.088939,-0.537819,0.573891,99756.38,-90,-1,-150
86789,6.819,1.709,1.485,-0.336371,-0.286131,-0.439246,99757.84,-88,-3,-152
86799,5.547,1.582,0.835,-0.279435,-0.216425,-0.852163,99757.21,-88,-3,-152
86809,4.692,1.400,0.442,0.196271,-0.304755,-0.943686,99757.21,-89,-3,-152
86819,3.629,0.761,0.412,0.711354,-0.371269,-1.113961,99759.31,-89,-3,-152
86830,2.836,-0.588,0.376,1.176417,-0.426608,-1.340108,99758.69,-89,-5,-152
86839,2.686,-1.430,0.291,1.473335,-0.413838,-1.613612,99758.06,-89,-9,-150
86849,2.850,-1.966,0.164,1.512711,-0.271232,-1.944053,99753.58,-90,-9,-149
86859,3.166,-2.552,0.397,1.396179,-0.053067,-2.285667,99756.25,-90,-9,-149
86870,3.691,-2.838,0.669,1.314234,0.146474,-2.592694,99753.95,-93,-11,-148
86879,4.323,-3.066,0.760,1.298271,0.311960,-2.867263,99754.78,-97,-13,-145
86889,4.804,-3.290,0.793,1.340307,0.440198,-3.104052,99753.95,-101,-11,-144
86899,5.131,-3.789,0.614,1.423316,0.540767,-3.295079,99753.95,-101,-11,-144
86908,5.496,-4.526,0.445,1.514839,0.631758,-3.474400,99753.95,-105,-11,-140
86919,6.171,-5.379,0.345,1.573371,0.719024,-3.663299,99758.57,-112,-10,-137
86929,6.966,-6.306,0.413,1.583481,0.815336,-3.844216,99753.51,-118,-7,-132
86934,7.639,-7.020,0.608,1.565922,0.886106,-3.959684,99756.05,-118,-7,-132
86944,8.362,-7.648,0.849,1.561133,0.939849,-4.046950,99755.12,-124,-3,-129
86953,9.125,-8.212,1.149,1.579757,0.983483,-4.117189,99755.12,-132,+0,-124
86964,9.423,-8.325,1.454,1.626050,0.994657,-4.124106,99756.39,-132,+0,-124
86974,9.395,-8.388,1.828,1.676601,0.995721,-4.106546,99755.70,-138,+6,-120
86984,9.369,-8.659,2.078,1.692032,0.998914,-4.083134,99754.72,-143,+12,-115
86994,9.525,-8.981,2.364,1.685647,1.023391,-4.066638,99756.59,-151,+19,-110
87004,9.656,-9.424,2.649,1.668087,1.078198,-4.045354,99756.59,-151,+19,-110
87014,9.820,-10.034,2.882,1.677133,1.146840,-3.996400,99756.29,-156,+27,-106
87024,10.048,-10.311,2.790,1.730344,1.189409,-3.924565,99755.76,-161,+36,-101
87034,10.079,-10.372,2.459,1.784087,1.217611,-3.853794,99758.73,-166,+44,-96
87044,10.003,-10.312,2.094,1.795261,1.254858,-3.779299,99754.82,-166,+44,-96
87054,9.902,-10.385,2.037,1.734069,1.313923,-3.700547,99754.82,-170,+54,-92
87064,9.981,-10.587,2.010,1.613280,1.360216,-3.632969,99758.82,-174,+64,-88
87074,10.007,-10.547,2.082,1.432362,1.396932,-3.584015,99759.65,-176,+75,-82
87084,9.972,-10.255,2.134,1.220050,1.432583,-3.518565,99760.38,-176,+75,-82
87094,9.845,-9.846,2.277,1.008803,1.461317,-3.425978,99756.15,-178,+88,-79
87104,9.715,-9.397,2.370,0.818840,1.478345,-3.311575,99756.15,-177,+100,-75
87114,9.532,-8.874,2.350,0.654418,1.489519,-3.174822,99758.17,-177,+112,-71
87124,9.334,-8.511,2.618,0.522987,1.513996,-3.006144,99760.78,-177,+112,-71
87134,9.331,-8.447,2.715,0.436785,1.516124,-2.795960,99760.88,-175,+124,-68
87144,9.107,-8.586,2.234,0.352179,1.497501,-2.571942,99757.95,-173,+133,-64
87154,8.603,-8.828,1.226,0.231923,1.467702,-2.330896,99757.95,-171,+142,-60
87164,7.929,-8.956,0.258,0.052602,1.447482,-2.079208,99759.85,-171,+142,-60
87170,7.486,-8.821,-0.218,-0.105967,1.432051,-1.885521,99760.38,-169,+150,-58
87179,7.136,-8.459,-0.279,-0.253361,1.403849,-1.680126,99760.38,-168,+157,-54
87189,7.048,-8.194,0.230,-0.373618,1.321372,-1.378952,99760.23,-168,+157,-54
87199,7.244,-7.898,0.325,-0.357123,1.115978,-1.063411,99757.82,-166,+164,-51
87209,7.485,-7.731,0.149,-0.230481,0.824382,-0.702641,99757.82,-164,+166,-50
87220,7.414,-8.158,-0.325,-0.042114,0.489153,-0.289723,99760.55,-165,+168,-49
87229,6.932,-8.609,-1.058,0.128693,0.170951,0.178533,99762.08,-165,+168,-49
87239,6.497,-9.190,-1.378,0.225005,-0.087122,0.684038,99760.20,-165,+168,-49
87249,7.239,-9.674,-1.152,0.243097,-0.291985,1.151230,99760.20,-166,+165,-52
87259,8.621,-8.810,0.240,0.267042,-0.452682,1.437505,99760.20,-168,+162,-53
87269,8.016,-7.597,-0.896,0.165409,-0.730443,1.747725,99764.00,-168,+162,-53
87279,9.260,-2.036,4.649,0.436253,-0.908168,2.045174,99763.73,-170,+156,-56
87289,26.802,4.018,8.062,0.626748,-0.658076,1.621615,99758.52,-171,+151,-59
87300,20.775,8.656,3.471,-0.525270,-0.635195,1.541266,99758.94,-173,+147,-60
87309,7.185,3.244,-3.455,-1.052058,-0.483544,2.358055,99758.94,-173,+147,-60
87319,7.717,-4.693,-3.442,-0.118738,-0.827819,2.565046,99760.29,-175,+141,-60
87329,9.856,-5.127,-2.102,0.344198,-1.185397,2.496936,99760.57,-177,+134,-65
87340,10.323,-4.736,1.797,0.460198,-1.003947,2.292605,99758.51,-179,+127,-67
87349,8.347,-6.607,8.077,0.535225,-0.625617,2.316018,99758.51,-179,+127,-67
87359,8.175,-9.714,9.506,0.937500,-0.561764,2.491082,99763.23,-180,+120,-69
87369,9.601,-9.168,6.394,1.189188,-0.869856,2.483101,99763.23,-182,+110,-73
87379,7.981,-5.641,2.255,0.845445,-0.939030,2.129780,99761.02,-182,+104,-76
87389,5.565,-6.095,3.826,0.305354,-0.646902,1.936624,99759.73,-182,+104,-76
87399,6.230,-8.064,6.218,-0.007527,-0.539948,1.919596,99760.40,-182,+98,-77
87405,6.507,-9.120,5.279,-0.370958,-0.569746,1.763688,99760.40,-182,+92,-79
87414,6.806,-8.417,2.855,-0.804095,-0.492058,1.495505,99760.84,-182,+92,-79
87425,7.419,-5.765,0.940,-1.254260,-0.243030,1.142716,99761.71,-184,+90,-79
87434,8.657,-4.145,0.719,-1.251599,-0.110535,0.984680,99757.49,-183,+89,-79
87444,9.124,-3.430,1.053,-0.845600,-0.191416,0.988404,99757.12,-183,+87,-80
87454,8.884,-3.607,1.587,-0.374682,-0.281875,1.061303,99757.12,-183,+87,-80
87464,8.517,-3.935,1.848,-0.013380,-0.350517,1.093230,99760.80,-184,+85,-80
87475,8.445,-3.818,1.946,0.186161,-0.361691,1.013945,99761.02,-184,+81,-81
87484,7.800,-4.290,2.408,0.306418,-0.349985,0.861762,99757.99,-184,+79,-83
87494,8.025,-5.130,2.910,0.377721,-0.361691,0.837285,99759.40,-184,+79,-83
87504,7.873,-5.243,3.391,0.268638,-0.314333,0.717560,99759.40,-184,+75,-84
87515,7.756,-5.962,3.634,0.101024,-0.259526,0.636148,99760.06,-183,+72,-84
87524,7.637,-5.502,3.577,-0.128848,-0.206847,0.574423,99758.23,-183,+72,-85
87534,7.513,-5.219,2.978,-0.341160,-0.132352,0.498331,99760.48,-183,+72,-85
87544,7.926,-5.027,2.264,-0.408737,-0.135544,0.477047,99756.94,-183,+70,-85
87555,8.224,-4.647,1.683,-0.395967,-0.124902,0.461616,99756.94,-183,+70,-86
87564,8.242,-4.599,1.367,-0.381600,-0.073820,0.443524,99761.59,-183,+70,-86
87574,8.175,-4.704,1.509,-0.335838,-0.012095,0.422240,99760.74,-183,+70,-86
87584,8.156,-4.583,1.831,-0.289013,0.036327,0.417451,99759.54,-183,+69,-85
87595,7.952,-4.763,2.107,-0.300719,0.091667,0.413194,99758.09,-184,+67,-85
87604,7.853,-5.051,2.594,-0.309765,0.112951,0.397230,99758.09,-183,+67,-85
87614,7.827,-4.991,3.226,-0.311361,0.102309,0.370625,99761.69,-183,+67,-85
87624,7.669,-5.009,3.488,-0.331582,0.086345,0.343487,99760.80,-185,+66,-84
87634,7.649,-5.079,3.188,-0.345948,0.054951,0.339763,99761.00,-185,+66,-84
87645,7.755,-4.917,2.990,-0.362444,0.034199,0.347744,99760.06,-185,+65,-85
87654,7.874,-4.965,2.592,-0.375215,0.051758,0.356258,99760.06,-185,+65,-85
87664,8.268,-4.945,2.044,-0.401820,0.070382,0.388184,99761.79,-186,+64,-83
87674,8.142,-4.917,2.265,-0.409802,0.095923,0.428625,99758.98,-185,+64,-83
87685,8.266,-4.888,2.623,-0.423637,0.117740,0.474918,99757.41,-187,+63,-83
87694,8.300,-4.878,2.838,-0.443325,0.105501,0.526533,99758.66,-187,+63,-83
87704,8.167,-5.050,3.090,-0.451306,0.068786,0.577616,99758.66,-187,+63,-82
87714,8.029,-5.146,3.176,-0.440664,0.013979,0.619652,99762.61,-187,+61,-83
87725,7.962,-5.224,3.216,-0.431086,-0.028058,0.654772,99758.44,-186,+59,-83
87735,7.926,-5.427,3.092,-0.439600,-0.068498,0.707450,99758.91,-186,+59,-83
87744,7.867,-5.251,2.835,-0.441728,-0.106810,0.754808,99758.53,-187,+58,-81
87754,7.798,-5.143,2.562,-0.433214,-0.131287,0.809083,99758.53,-186,+57,-83
87764,7.825,-5.281,2.411,-0.410334,-0.167471,0.862826,99758.84,-186,+55,-84
87775,7.843,-5.477,2.429,-0.388517,-0.194076,0.895817,99760.05,-187,+51,-84
87784,7.744,-5.847,2.286,-0.402352,-0.205251,0.917102,99759.27,-187,+51,-84
87794,7.688,-6.085,2.144,-0.441196,-0.188223,0.925083,99760.56,-187,+51,-84
87804,7.642,-6.162,2.241,-0.495471,-0.163214,0.922423,99760.56,-186,+48,-85
87815,7.645,-6.218,2.253,-0.551875,-0.145122,0.919762,99760.86,-185,+45,-85
87824,7.734,-6.114,2.412,-0.589655,-0.141930,0.925615,99758.98,-185,+45,-85
87834,7.771,-6.142,2.339,-0.612003,-0.163214,0.955413,99758.47,-185,+43,-86
87844,7.780,-6.229,2.371,-0.627435,-0.190884,1.003835,99757.63,-185,+42,-86
87855,7.879,-6.334,2.431,-0.643398,-0.216425,1.057046,99757.63,-185,+40,-87
87865,7.950,-6.485,2.483,-0.677453,-0.239306,1.116643,99759.09,-185,+40,-87
87874,8.191,-6.538,2.513,-0.715765,-0.265379,1.182092,99761.85,-184,+37,-88
87884,8.545,-6.538,2.575,-0.739710,-0.301563,1.245413,99759.87,-183,+34,-89
87895,8.712,-6.728,2.523,-0.750884,-0.344663,1.318844,99758.35,-183,+30,-89
87905,8.982,-6.905,2.086,-0.763123,-0.382975,1.382698,99758.35,-183,+30,-89
87914,9.119,-6.971,1.684,-0.795049,-0.412774,1.432184,99761.63,-182,+28,-91
87924,9.359,-6.832,1.675,-0.792389,-0.464388,1.481138,99762.68,-181,+26,-93
87934,9.914,-7.650,1.701,-0.791324,-0.510150,1.547652,99756.68,-179,+22,-94
87945,10.170,-7.299,1.916,-0.805159,-0.548461,1.587560,99759.38,-179,+22,-94
87954,10.658,-8.243,1.581,-0.892957,-0.580920,1.625340,99759.38,-177,+20,-96
87964,11.360,-8.543,1.426,-1.021196,-0.610186,1.687064,99759.73,-176,+17,-98
87974,12.114,-8.399,1.481,-1.227122,-0.584113,1.750918,99758.95,-174,+13,-100
87985,13.185,-8.131,1.408,-1.420278,-0.550058,1.823284,99758.75,-174,+13,-100
87995,13.971,-7.794,1.189,-1.593746,-0.491526,1.944073,99757.81,-172,+11,-103
88004,14.558,-7.448,0.811,-1.750718,-0.437783,2.054752,99757.81,-170,+9,-105
88014,15.370,-6.941,1.068,-1.899177,-0.367012,2.128183,99761.03,-168,+5,-106
88025,16.016,-6.750,1.718,-2.082223,-0.268572,2.161174,99758.06,-168,+5,-106
88035,16.069,-7.091,1.323,-2.362644,-0.169067,2.217046,99757.44,-166,+5,-108
88044,15.591,-7.486,0.826,-2.673397,-0.090315,2.361780,99756.23,-164,+3,-110
88054,14.678,-7.918,2.238,-2.754809,-0.111599,2.570899,99756.23,-163,+2,-110
88065,15.023,-7.407,5.072,-2.287085,-0.379783,2.786403,99760.03,-163,+2,-110
88075,15.304,-5.417,7.168,-1.611306,-0.751727,2.676789,99759.88,-159,+0,-114
88084,12.449,-5.747,7.293,-1.196792,-1.112498,2.506514,99757.44,-156,-3,-118
88094,7.998,-6.665,6.668,-0.745563,-1.479121,2.486825,99758.31,-150,-8,-122
88104,5.300,-5.529,5.910,-0.120866,-1.663231,2.395835,99758.31,-150,-8,-122
88111,4.407,-3.716,5.633,0.252675,-1.661635,2.228752,99758.38,-144,-14,-126
88120,3.144,-2.705,5.333,0.430400,-1.556810,2.029743,99758.38,-140,-20,-130
88130,7.279,-1.616,4.767,0.522987,-1.391323,1.676422,99756.97,-140,-20,-130
88139,4.338,-3.755,1.315,0.071226,-1.016186,1.022991,99759.52,-136,-24,-132
88150,-7.358,-5.401,-0.934,0.391556,-1.645140,0.876129,99756.13,-131,-27,-137
88160,-3.853,-6.530,1.307,0.557042,-1.291287,1.019799,99757.80,-127,-31,-140
88170,4.569,-3.991,1.630,0.326106,-0.952865,0.659560,99758.94,-127,-31,-140
88179,5.818,-1.511,2.010,-0.542297,-0.372333,-0.507888,99757.59,-125,-32,-140
88189,3.704,-0.458,2.196,-0.968517,-0.045086,-1.121411,99757.59,-126,-26,-144
88200,3.233,0.524,1.491,-0.829636,0.042180,-1.275723,99755.81,-127,-23,-145
88210,2.556,0.912,1.019,-0.563581,0.100180,-1.507190,99755.81,-127,-23,-145
88219,1.395,-0.159,0.730,-0.223563,0.156052,-1.780163,99758.20,-128,-19,-145
88230,0.958,-1.529,0.857,0.182436,0.218131,-2.028835,99758.73,-131,-15,-147
88240,1.533,-2.111,0.918,0.434657,0.288547,-2.229795,99758.73,-133,-12,-147
88250,2.431,-2.428,0.978,0.551189,0.445520,-2.488401,99755.13,-133,-12,-147
88260,3.351,-2.547,1.256,0.562363,0.669006,-2.751263,99755.13,-137,-9,-146
88269,4.268,-2.600,1.458,0.586308,0.889831,-2.961978,99756.14,-142,-4,-145
88280,4.873,-2.731,1.780,0.681555,1.071281,-3.132254,99757.08,-146,+0,-143
88290,5.175,-3.160,1.846,0.880565,1.202180,-3.275391,99755.52,-146,+0,-143
88300,5.706,-3.704,1.807,1.171096,1.262840,-3.374896,99755.52,-154,+4,-141
88309,6.507,-4.572,1.264,1.470674,1.289978,-3.469611,99755.52,-159,+8,-138
88320,7.249,-5.802,0.902,1.701610,1.343721,-3.578694,99758.01,-167,+10,-135
88330,8.126,-7.169,0.723,1.860711,1.399060,-3.664363,99756.60,-167,+10,-135
88340,8.851,-8.147,0.579,1.934674,1.443757,-3.737262,99758.16,-175,+16,-130
88349,9.171,-8.505,0.566,1.941059,1.492712,-3.800583,99753.62,-183,+22,-127
88359,9.211,-8.805,0.870,1.863903,1.558161,-3.850070,99753.62,-192,+29,-121
88370,9.410,-9.290,1.429,1.707995,1.598601,-3.897959,99760.02,-192,+29,-121
88380,9.717,-9.798,1.833,1.496747,1.616161,-3.947446,99759.13,-199,+38,-115
88390,9.917,-10.356,2.119,1.284436,1.629996,-3.968198,99756.73,-206,+51,-110
88399,9.742,-10.601,2.070,1.136509,1.649152,-3.939996,99756.73,-213,+63,-105
88410,9.684,-10.423,1.768,1.077977,1.681610,-3.878272,99759.42,-213,+63,-105
88420,9.957,-9.765,1.562,1.076913,1.715133,-3.791005,99758.95,-216,+76,-98
88429,10.213,-9.229,1.386,1.093940,1.724179,-3.677134,99758.95,-220,+89,-94
88439,10.143,-8.781,1.071,1.126931,1.712473,-3.594125,99757.17,-223,+103,-89
88450,10.260,-8.415,0.802,1.144491,1.706087,-3.544106,99760.09,-224,+103,-84
88460,10.486,-8.352,0.559,1.110968,1.706620,-3.517501,99760.09,-224,+116,-84
88465,10.670,-8.517,0.467,1.052968,1.707684,-3.503134,99762.34,-223,+131,-80
88474,10.645,-8.780,0.436,0.971023,1.697042,-3.481318,99761.09,-223,+131,-80
88484,10.268,-9.178,0.287,0.859280,1.667243,-3.407354,99760.51,-224,+146,-76
88495,10.189,-9.124,0.199,0.823629,1.598069,-3.275923,99758.27,-222,+161,-72
88505,10.518,-8.835,0.158,0.856620,1.494308,-3.127997,99758.27,-218,+173,-70
88515,10.602,-8.486,0.142,0.901849,1.377776,-2.990180,99761.34,-218,+173,-70
88524,10.321,-8.250,0.179,0.949207,1.259115,-2.797024,99759.20,-216,+187,-67
88535,10.145,-8.196,0.054,1.026895,1.122895,-2.537887,99758.41,-211,+198,-67
88545,9.922,-8.465,-0.255,1.103518,0.975501,-2.251612,99758.68,-206,+207,-68
88555,9.367,-9.035,-0.617,1.136509,0.812675,-1.940328,99758.68,-206,+207,-68
88564,8.568,-9.673,-0.872,1.121078,0.639740,-1.610420,99765.50,-202,+213,-69
88574,7.649,-10.224,-0.960,1.033812,0.477978,-1.261888,99761.58,-199,+219,-71
88585,6.534,-11.000,-1.005,0.876840,0.330052,-0.869191,99760.95,-196,+222,-74
88595,5.381,-11.902,-1.179,0.646968,0.183189,-0.408916,99760.33,-196,+222,-74
88604,4.683,-12.474,-1.027,0.440510,0.027281,0.104038,99760.33,-196,+223,-75
88614,5.410,-11.915,0.193,0.350583,-0.150975,0.562184,99764.10,-197,+222,-77
88625,6.353,-10.824,1.278,0.402198,-0.352113,0.953285,99763.27,-198,+219,-81
88635,7.090,-11.202,0.886,0.370803,-0.629874,1.515725,99760.71,-198,+219,-81
88645,9.273,-8.311,4.578,0.518198,-0.842718,1.993028,99760.15,-202,+213,-84
88654,19.567,0.558,8.080,0.891207,-0.777801,1.643431,99760.15,-204,+206,-90
88665,21.138,9.715,4.257,0.334620,-0.667122,1.224661,99761.00,-205,+202,-93
88675,11.281,4.925,-0.847,-0.958939,-0.311673,2.005266,99761.52,-205,+202,-93
88685,5.621,-5.104,-3.522,-0.521545,-0.402663,2.366036,99761.27,-209,+197,-91
88694,8.308,-8.124,-0.499,0.344730,-0.806003,2.382532,99760.84,-213,+189,-94
88700,10.373,-6.649,0.273,0.662399,-0.972021,2.347945,99760.84,-213,+189,-94
88710,10.418,-5.637,2.457,0.508620,-0.707030,2.272917,99760.84,-214,+180,-99
88720,8.969,-5.801,7.216,0.383574,-0.228131,2.223431,99763.15,-218,+171,-101
88730,8.648,-7.494,8.144,0.809262,-0.279214,2.325064,99759.71,-220,+163,-104
88740,9.140,-7.016,4.651,1.240271,-0.693195,2.307504,99759.24,-220,+163,-104
88750,7.146,-6.265,2.231,1.005078,-0.790039,2.004734,99760.07,-223,+153,-109
88760,6.149,-7.694,3.724,0.529372,-0.543140,1.870110,99761.10,-224,+143,-111
88770,6.866,-8.853,4.551,-0.009123,-0.362223,1.698771,99761.52,-225,+137,-112
88779,7.238,-8.829,3.169,-0.662022,-0.223342,1.341193,99761.52,-225,+137,-112
88790,7.692,-6.618,1.558,-1.200517,-0.041893,0.915505,99759.45,-227,+136,-112
88800,8.092,-4.696,1.165,-1.411764,0.156052,0.627634,99762.68,-228,+135,-109
88810,8.878,-3.710,1.857,-1.281397,0.226822,0.536111,99762.68,-228,+135,-107
88820,9.170,-2.874,1.712,-0.862095,0.170419,0.554735,99763.59,-228,+135,-107
88829,9.071,-2.974,1.404,-0.560389,0.121465,0.639340,99763.81,-230,+135,-107
88840,8.914,-3.584,1.845,-0.349141,0.084217,0.704790,99759.95,-231,+133,-105
88850,8.539,-4.529,2.900,-0.284756,0.061336,0.710643,99759.38,-232,+131,-105
88860,8.112,-5.233,3.919,-0.312426,0.048566,0.648918,99762.36,-232,+131,-105
88870,7.811,-5.403,4.034,-0.427361,0.066125,0.542496,99760.13,-232,+129,-104
88880,7.572,-5.489,3.993,-0.583802,0.120400,0.424368,99760.95,-233,+128,-103
88890,7.892,-4.746,3.686,-0.709912,0.159244,0.311561,99759.86,-233,+129,-102
88900,8.348,-3.879,3.370,-0.739710,0.177336,0.262074,99759.86,-233,+129,-102
88909,8.542,-3.592,3.073,-0.654040,0.146474,0.276441,99759.86,-234,+129,-100
88920,8.599,-3.725,2.824,-0.541765,0.070382,0.363175,99760.99,-235,+129,-100
88930,8.483,-4.042,2.899,-0.469930,0.023024,0.431818,99763.60,-235,+128,-100
88935,8.434,-4.178,2.957,-0.460352,0.018768,0.460019,99760.48,-235,+128,-100
88945,8.299,-4.277,2.947,-0.477380,0.029410,0.466405,99759.27,-235,+126,-99
88954,8.128,-4.320,2.985,-0.489618,0.034731,0.479707,99759.27,-237,+126,-97
88965,8.259,-4.061,3.234,-0.494407,0.024089,0.504717,99763.84,-237,+126,-97
88975,8.134,-4.025,3.500,-0.485893,0.010254,0.514827,99762.85,-237,+126,-98
88985,8.051,-4.064,3.461,-0.443857,-0.022737,0.538772,99761.07,-237,+124,-97
88995,7.976,-4.279,3.183,-0.419380,-0.050939,0.560056,99758.57,-238,+122,-97
89005,7.964,-4.404,3.101,-0.389049,-0.072223,0.582937,99758.57,-238,+122,-97
89015,7.918,-4.662,2.821,-0.383196,-0.074352,0.601028,99761.38,-238,+121,-97
89025,7.962,-4.721,2.586,-0.391710,-0.071159,0.620716,99760.07,-240,+119,-97
89035,8.143,-4.536,2.875,-0.392774,-0.069563,0.634551,99762.79,-240,+116,-96
89044,8.359,-4.310,3.294,-0.368829,-0.082865,0.662753,99758.73,-240,+116,-96
89055,8.304,-4.419,3.464,-0.340095,-0.114260,0.707450,99758.73,-240,+115,-97
89065,8.068,-4.502,3.323,-0.302848,-0.161618,0.760129,99760.09,-241,+112,-97
89075,7.783,-4.791,3.142,-0.295930,-0.183434,0.806423,99759.98,-242,+109,-96
89084,7.859,-4.951,2.987,-0.310829,-0.194608,0.847927,99757.80,-242,+109,-96
89095,7.971,-5.163,2.752,-0.359783,-0.189287,0.878258,99760.25,-242,+107,-97
89105,8.160,-5.300,2.563,-0.408737,-0.181306,0.912313,99760.25,-242,+104,-98
89115,8.351,-5.319,2.533,-0.439600,-0.174920,0.950092,99762.63,-244,+101,-97
89125,8.320,-5.243,2.606,-0.457692,-0.176517,0.981487,99758.92,-244,+101,-97
89135,8.025,-5.398,2.613,-0.438536,-0.190884,1.016606,99761.53,-243,+99,-97
89145,7.711,-5.664,2.536,-0.412462,-0.213764,1.045340,99761.11,-244,+94,-99
89155,7.486,-6.027,2.551,-0.396499,-0.230792,1.061303,99761.11,-244,+91,-99
89165,7.401,-6.057,2.742,-0.411930,-0.233985,1.057046,99760.83,-244,+91,-99
89170,7.263,-6.053,2.655,-0.435875,-0.219618,1.047468,99760.94,-244,+87,-99
89180,7.144,-6.081,2.473,-0.442792,-0.203654,1.045340,99760.94,-244,+84,-100
89190,7.189,-6.166,2.355,-0.419912,-0.207379,1.054918,99757.97,-244,+84,-100
89200,7.349,-6.373,2.194,-0.410866,-0.232920,1.055982,99757.70,-245,+80,-100
89210,7.476,-6.829,1.824,-0.440132,-0.252608,1.027248,99757.70,-245,+77,-100
89221,7.657,-7.153,1.592,-0.516224,-0.233453,0.992661,99761.77,-246,+73,-100
89230,8.029,-6.874,1.658,-0.604022,-0.194608,0.972441,99762.44,-246,+73,-100
89240,8.374,-6.243,1.591,-0.663086,-0.177049,0.974037,99760.77,-245,+70,-101
89250,8.488,-6.078,1.440,-0.650315,-0.219086,1.018734,99760.77,-244,+69,-101
89260,8.564,-6.032,1.446,-0.579545,-0.292517,1.092166,99760.77,-244,+65,-103
89270,8.371,-6.251,1.700,-0.522077,-0.372865,1.165065,99763.05,-244,+65,-103
89280,8.250,-6.655,2.010,-0.477912,-0.445764,1.229450,99762.12,-244,+61,-103
89290,8.349,-6.836,2.104,-0.462126,-0.505893,1.293658,99758.66,-243,+57,-105
89299,8.515,-7.065,2.080,-0.483233,-0.547929,1.342789,99758.66,-241,+52,-106
89310,8.952,-7.432,1.704,-0.511435,-0.591562,1.382698,99758.66,-241,+52,-106
89320,9.351,-7.752,1.575,-0.586994,-0.606994,1.398129,99759.80,-240,+48,-108
89330,9.727,-7.800,1.930,-0.690224,-0.593691,1.438037,99760.28,-239,+45,-110
89340,10.242,-7.656,2.224,-0.831765,-0.584645,1.496569,99758.08,-237,+40,-111
89350,10.787,-7.588,2.618,-0.966388,-0.595819,1.574789,99758.08,-237,+40,-111
89360,11.391,-7.437,3.123,-1.079728,-0.601140,1.656202,99759.23,-235,+35,-112
89370,12.161,-7.251,3.433,-1.192535,-0.591562,1.758367,99759.23,-232,+32,-114
89380,13.026,-6.927,3.269,-1.329287,-0.579856,1.900972,99758.80,-231,+26,-115
89390,13.712,-6.459,3.574,-1.460186,-0.561232,2.049431,99762.46,-229,+26,-115
89400,14.422,-6.216,4.232,-1.563416,-0.526113,2.186183,99759.27,-229,+21,-116
89410,14.648,-6.342,4.204,-1.690590,-0.476095,2.315486,99759.27,-226,+17,-118
89420,14.218,-6.842,3.579,-1.869911,-0.371269,2.428825,99759.67,-223,+11,-119
89431,13.151,-8.043,2.815,-2.097654,-0.237709,2.511302,99760.45,-220,+7,-119
89440,11.707,-10.271,2.999,-2.245580,-0.181306,2.690091,99758.95,-220,+7,-119
89450,12.080,-11.146,4.263,-2.025819,-0.273893,2.955082,99756.93,-218,+2,-120
89460,13.960,-9.789,6.062,-1.779452,-0.380315,2.928477,99757.34,-215,-4,-121
89470,13.238,-8.872,8.014,-1.923654,-0.378186,2.652844,99758.34,-211,-10,-121
89481,10.910,-8.510,6.548,-2.036461,-0.545269,2.496403,99757.45,-211,-10,-121
89490,8.618,-6.488,4.186,-1.646957,-0.720333,2.415523,99757.45,-207,-14,-125
89500,6.675,-4.248,3.230,-1.101544,-0.712351,2.306440,99758.91,-203,-21,-126
89510,5.640,-3.009,3.786,-0.647123,-0.655948,2.068587,99758.91,-199,-25,-128
89520,14.354,-2.032,3.191,-0.640205,-0.426076,1.461450,99758.25,-199,-25,-128
89526,0.188,-3.525,-0.630,-0.780682,-0.511214,1.074074,99756.73,-196,-27,-129
89535,-6.770,-4.018,-1.503,-0.073508,-1.152938,1.095890,99758.83,-196,-27,-129
89545,-2.511,-4.759,1.366,0.351115,-0.877837,1.289046,99758.09,-193,-32,-131
89555,6.586,-2.001,1.216,0.588436,-0.844315,0.888900,99758.09,-189,-37,-132
89565,8.298,1.314,0.966,0.083996,-0.640516,-0.288659,99756.29,-188,-35,-134
89575,4.923,1.855,0.438,-0.194297,-0.442040,-0.814384,99758.02,-188,-35,-134
89585,3.538,0.852,0.388,0.170198,-0.363287,-0.827154,99758.34,-188,-32,-135
89595,2.924,0.185,0.439,0.572473,-0.390425,-1.043191,99756.82,-187,-30,-136
89605,1.758,-1.185,0.033,0.839060,-0.398939,-1.365117,99756.82,-188,-26,-136
89615,1.370,-2.183,-0.133,0.993904,-0.320719,-1.703007,99760.00,-188,-26,-136
89625,1.892,-2.485,-0.212,0.959317,-0.163746,-2.048346,99757.70,-189,-22,-134
89635,2.538,-2.708,-0.253,0.789042,0.048034,-2.408052,99757.44,-190,-16,-136
89646,3.278,-2.658,-0.084,0.673042,0.250235,-2.733703,99756.61,-192,-9,-134
89655,4.248,-2.401,0.155,0.659739,0.416253,-3.002419,99756.61,-194,-9,-134
89665,4.959,-2.215,0.284,0.741684,0.541299,-3.239740,99756.89,-194,+0,-133
89675,5.383,-2.447,0.337,0.916748,0.608877,-3.447263,99758.78,-197,+12,-132
89686,5.681,-3.058,0.345,1.137573,0.637611,-3.604767,99753.81,-199,+22,-129
89695,6.035,-3.975,0.407,1.381812,0.648785,-3.725024,99753.25,-200,+33,-129
89705,6.428,-5.110,0.639,1.605830,0.658363,-3.827189,99753.25,-200,+33,-129
89715,6.991,-6.246,1.041,1.800050,0.667941,-3.924033,99755.84,-200,+44,-128
89725,7.662,-7.208,1.392,1.954894,0.666877,-4.004914,99754.95,-200,+55,-127
89735,8.196,-7.903,1.731,2.042160,0.671134,-4.053336,99754.52,-199,+65,-127
89745,8.462,-8.391,1.918,2.052270,0.687097,-4.075152,99755.10,-199,+65,-127
89755,8.623,-9.040,2.043,1.990013,0.731263,-4.101758,99755.10,-196,+76,-127
89765,8.896,-9.818,2.328,1.871353,0.804162,-4.136345,99758.61,-193,+87,-127
89776,8.975,-10.521,2.671,1.710656,0.886639,-4.156033,99756.73,-190,+97,-126
89785,8.848,-11.057,2.773,1.567518,0.967519,-4.149647,99758.56,-190,+97,-126
89795,8.798,-11.114,2.590,1.486105,1.059574,-4.134748,99758.30,-186,+108,-126
89805,8.859,-10.729,2.441,1.425445,1.179831,-4.115060,99758.30,-182,+116,-126
89816,8.954,-10.362,2.270,1.379683,1.305409,-4.074088,99758.28,-179,+126,-124
89825,9.156,-10.051,2.113,1.354142,1.403317,-4.004914,99754.06,-179,+126,-124
89835,9.367,-9.932,1.924,1.325940,1.473556,-3.938400,99756.98,-175,+133,-123
89845,9.492,-10.036,1.683,1.265280,1.529427,-3.880932,99756.25,-171,+141,-121
89856,9.648,-10.202,1.439,1.160454,1.581042,-3.827721,99756.25,-168,+148,-119
89866,9.848,-10.117,1.229,1.019445,1.633721,-3.771317,99758.52,-168,+148,-119
89875,10.127,-9.952,1.172,0.847042,1.684803,-3.702143,99759.56,-165,+155,-116
89885,10.494,-9.674,1.297,0.699115,1.706087,-3.590932,99758.94,-163,+162,-114
89895,10.872,-9.577,1.386,0.626748,1.662987,-3.431299,99758.58,-159,+168,-111
89906,10.819,-9.691,1.373,0.598014,1.573060,-3.226969,99758.58,-159,+168,-111
89915,10.130,-10.084,1.156,0.585244,1.462913,-2.963043,99759.58,-156,+175,-107
89925,9.004,-10.867,0.797,0.541078,1.372455,-2.613446,99759.48,-155,+179,-104
89935,7.958,-11.967,-0.039,0.471904,1.263372,-2.195208,99759.53,-153,+182,-102
89946,6.959,-12.831,-0.662,0.353776,1.117042,-1.735466,99760.67,-153,+182,-102
89955,6.398,-13.218,-1.076,0.254803,0.940382,-1.269337,99760.67,-152,+185,-100
89965,6.517,-12.835,-1.307,0.174987,0.736584,-0.830879,99762.63,-151,+185,-98
89975,6.036,-13.019,-1.992,0.087189,0.490217,-0.361558,99762.31,-151,+185,-96
89986,5.034,-13.497,-2.277,0.038767,0.140621,0.293469,99761.44,-151,+185,-96
89996,7.968,-13.582,-1.851,0.223586,-0.294113,1.081169,99759.50,-151,+183,-97
90005,11.811,-12.276,0.092,0.269702,-0.597416,1.698771,99759.50,-153,+179,-99
90015,15.427,-0.813,3.939,0.732638,-0.980002,1.582771,99761.27,-154,+172,-102
90025,22.719,11.697,1.197,0.907702,-0.959250,1.178900,99758.30,-154,+172,-102
90036,14.779,5.335,-1.232,-0.594444,-0.528241,2.061138,99759.20,-154,+166,-105
90045,3.875,-7.153,-5.051,-0.784939,-0.397342,2.522477,99758.62,-157,+161,-104
90055,8.086,-10.509,1.009,0.270235,-0.714480,2.578348,99758.62,-159,+152,-105
90065,10.901,-6.455,4.528,0.764032,-0.795360,2.503853,99761.16,-159,+152,-105
90076,8.925,-5.675,10.087,0.710821,-0.292517,2.332514,99758.70,-161,+143,-107
90085,8.432,-8.119,10.634,1.034344,-0.249416,2.424037,99757.88,-163,+135,-108
90095,9.764,-7.295,6.459,1.448858,-0.849104,2.433614,99755.42,-164,+124,-111
90105,7.201,-5.438,3.761,1.187060,-1.089617,2.043046,99755.42,-164,+124,-111
90116,5.395,-6.695,4.293,0.527776,-0.789507,1.795083,99761.30,-164,+118,-114
90125,6.076,-9.012,4.441,-0.162371,-0.473434,1.690789,99757.13,-164,+111,-116
90135,7.668,-8.484,1.780,-0.874334,-0.326572,1.364074,99757.13,-165,+108,-115
90145,8.120,-5.353,-0.617,-1.337269,-0.070627,1.015542,99755.35,-166,+108,-115
90156,8.799,-4.065,-0.284,-1.367599,0.185318,0.858570,99755.35,-166,+110,-115
90166,9.131,-3.590,0.515,-1.013214,0.158180,0.844203,99761.49,-168,+109,-113
90175,9.018,-3.301,0.817,-0.568902,0.050162,0.897946,99758.88,-168,+107,-112
90185,9.098,-3.058,1.519,-0.202811,-0.005710,0.946900,99758.10,-169,+106,-113
90195,8.835,-3.491,2.570,-0.039453,-0.031783,0.992661,99757.07,-169,+106,-113
90206,8.221,-4.651,3.797,-0.058077,-0.050407,0.968716,99757.07,-170,+102,-113
90215,7.710,-5.877,4.278,-0.245380,-0.016352,0.818129,99761.09,-170,+100,-112
90225,7.294,-6.317,4.245,-0.525802,0.074107,0.570166,99759.89,-170,+100,-112
90235,7.722,-5.651,4.071,-0.822187,0.192767,0.325396,99757.50,-170,+100,-112
90246,8.280,-4.099,3.620,-0.931269,0.217244,0.199286,99755.52,-171,+101,-110
90255,8.629,-2.959,3.201,-0.775893,0.177868,0.236533,99755.52,-173,+101,-109
90265,8.762,-3.035,2.272,-0.556664,0.084749,0.383928,99759.01,-171,+102,-110
90275,8.761,-3.386,2.411,-0.351802,-0.004645,0.540368,99760.41,-171,+102,-110
90286,8.708,-3.879,3.139,-0.270921,-0.043489,0.645194,99755.82,-173,+100,-109
90296,8.373,-4.586,3.492,-0.319343,-0.052003,0.705322,99759.01,-173,+98,-108
90305,8.074,-4.971,3.692,-0.449178,-0.012627,0.744166,99759.01,-173,+97,-108
90315,7.964,-4.712,3.529,-0.627435,0.050694,0.751083,99761.91,-173,+97,-108
90326,8.104,-4.284,3.414,-0.720554,0.079960,0.745230,99761.65,-175,+96,-108
90336,8.270,-4.196,3.203,-0.715233,0.058144,0.759065,99760.98,-175,+95,-107
90345,8.490,-4.238,2.736,-0.671068,-0.000388,0.808019,99756.34,-175,+93,-107
90355,8.484,-4.400,2.632,-0.616260,-0.048810,0.854845,99756.34,-175,+93,-107
90365,8.441,-4.529,2.617,-0.574756,-0.083930,0.903799,99760.92,-176,+92,-106
90376,8.290,-4.770,2.521,-0.583269,-0.087654,0.947964,99759.11,-176,+90,-107
90386,8.256,-4.959,2.605,-0.591783,-0.094572,0.977230,99757.95,-176,+89,-107
90395,8.190,-5.085,2.857,-0.605618,-0.100957,0.993725,99758.58,-176,+89,-107
90405,8.203,-5.328,2.751,-0.614664,-0.113728,1.011817,99758.58,-177,+87,-107
90416,8.124,-5.451,2.690,-0.623710,-0.124902,1.028312,99760.36,-178,+85,-107
90426,8.045,-5.554,2.598,-0.629563,-0.132352,1.045872,99757.48,-179,+82,-107
90435,8.059,-5.530,2.564,-0.648719,-0.143526,1.059707,99757.95,-179,+82,-107
90445,7.901,-5.560,2.633,-0.641802,-0.193544,1.060771,99758.95,-179,+80,-107
90456,7.710,-5.621,2.438,-0.606682,-0.235049,1.067156,99758.95,-179,+78,-107
90466,7.546,-5.603,2.720,-0.547618,-0.287728,1.064496,99760.65,-179,+75,-108
90475,7.342,-5.694,2.641,-0.485893,-0.322847,1.063964,99758.98,-179,+75,-108
90485,7.155,-6.068,2.271,-0.426829,-0.342003,1.074606,99758.88,-179,+73,-108
90496,7.317,-6.321,2.225,-0.383728,-0.339874,1.061835,99756.79,-179,+70,-109
90506,7.631,-6.637,1.772,-0.402884,-0.312205,1.028845,99756.79,-178,+68,-109
90516,7.807,-7.172,1.254,-0.466737,-0.285067,0.986276,99760.93,-178,+68,-109
90525,7.967,-7.036,1.120,-0.523141,-0.238241,0.946900,99760.93,-179,+64,-110
90535,7.942,-6.550,0.979,-0.575288,-0.189820,0.918698,99758.21,-178,+64,-110
90546,7.929,-6.192,0.940,-0.559325,-0.202058,0.925615,99756.76,-178,+63,-110
90556,7.976,-5.918,1.507,-0.477380,-0.249948,0.940514,99756.76,-178,+63,-110
90565,7.914,-6.088,2.006,-0.408205,-0.317526,0.991065,99763.21,-178,+59,-112
90575,7.768,-6.272,2.380,-0.368829,-0.386700,1.052257,99761.49,-178,+57,-112
90586,7.644,-6.345,2.700,-0.342756,-0.439379,1.115578,99759.30,-178,+54,-112
90596,7.597,-6.610,2.492,-0.348077,-0.497911,1.166129,99757.26,-178,+54,-112
90605,7.723,-6.836,2.242,-0.345416,-0.543673,1.218276,99757.26,-177,+50,-114
90615,8.096,-7.037,2.133,-0.387453,-0.546333,1.252331,99760.59,-176,+47,-115
90626,8.241,-7.188,1.900,-0.449178,-0.557507,1.295432,99759.07,-176,+43,-117
90636,8.409,-7.156,1.794,-0.497600,-0.562296,1.351835,99757.45,-174,+43,-117
90646,8.543,-7.243,1.652,-0.548150,-0.575067,1.399725,99756.30,-174,+39,-118
90655,8.767,-7.244,1.756,-0.597636,-0.585709,1.451340,99756.30,-173,+37,-120
90665,8.858,-7.330,2.265,-0.659893,-0.605929,1.518918,99760.09,-171,+34,-121
90676,8.960,-7.627,2.331,-0.720022,-0.629342,1.563083,99758.11,-171,+29,-123
90686,9.432,-7.959,2.519,-0.814737,-0.622957,1.609376,99759.88,-171,+29,-123
90695,10.504,-8.003,2.827,-0.964792,-0.584645,1.648220,99758.98,-169,+26,-124
90701,11.398,-8.040,2.983,-1.115911,-0.550590,1.689193,99758.98,-169,+26,-124
90711,12.346,-8.070,3.099,-1.268095,-0.497911,1.748789,99758.98,-169,+22,-126
90721,13.829,-7.867,3.380,-1.459654,-0.399471,1.848826,99758.16,-168,+17,-127
90731,15.432,-7.192,4.035,-1.681012,-0.298902,1.978660,99756.69,-166,+16,-129
90741,16.376,-6.472,4.600,-1.939085,-0.219086,2.076037,99758.31,-166,+16,-129
90750,15.749,-6.491,3.959,-2.206736,-0.164810,2.195229,99757.98,-166,+13,-131
90761,13.801,-7.742,2.632,-2.330718,-0.129691,2.389449,99760.95,-165,+9,-132
90771,12.054,-9.279,3.159,-2.205140,-0.145122,2.660825,99756.25,-165,+5,-133
90780,12.603,-10.013,4.732,-1.848094,-0.278150,2.878990,99756.25,-165,+5,-133
90790,13.522,-9.588,5.609,-1.633122,-0.405856,2.831100,99756.05,-163,+0,-136
90801,12.438,-8.766,6.271,-1.728370,-0.454278,2.627302,99755.31,-162,-7,-137
90811,10.250,-8.277,5.387,-1.924718,-0.485673,2.449046,99755.31,-159,-9,-140
90821,8.308,-6.008,4.405,-1.717905,-0.508731,2.251101,99759.38,-157,-15,-144
90830,6.987,-3.920,3.696,-1.273416,-0.537287,2.068587,99759.38,-157,-15,-144
90841,9.662,-2.029,3.388,-0.841343,-0.502168,1.764752,99756.66,-156,-19,-145
90851,15.662,-3.817,3.348,-0.987141,0.028878,0.904863,99756.45,-156,-22,-148
90861,-10.377,-3.162,-3.599,-0.303912,-0.960847,0.737781,99756.45,-153,-22,-148
90871,-8.983,-5.025,-0.766,0.255336,-0.925195,1.045340,99757.64,-153,-24,-151
90881,2.425,-3.740,1.653,0.355372,-0.665526,1.248074,99760.69,-150,-31,-153
90891,9.875,-0.818,1.167,0.014290,-0.399471,0.064130,99754.73,-149,-33,-154
90901,6.388,0.244,0.582,-0.449178,-0.273361,-0.816512,99754.73,-151,-30,-156
90910,4.369,0.397,-0.310,-0.285288,-0.123838,-0.862806,99754.73,-151,-30,-156
90920,3.726,0.763,0.121,0.095703,-0.057856,-1.047980,99759.42,-153,-29,-156
90931,2.589,0.327,-0.098,0.439978,-0.078609,-1.369906,99759.36,-154,-27,-157
90941,1.968,-0.536,-0.399,0.775739,-0.102554,-1.664163,99756.44,-156,-26,-157
90950,2.281,-0.974,-0.434,0.997096,-0.053599,-1.965869,99756.70,-156,-26,-157
90960,2.994,-1.629,-0.393,1.076913,0.042180,-2.288327,99756.70,-158,-24,-157
90971,3.644,-2.187,-0.568,1.135445,0.111355,-2.601740,99759.13,-161,-20,-157
90981,4.305,-2.531,-0.529,1.239206,0.189043,-2.868327,99756.55,-166,-15,-156
90991,4.899,-2.872,-0.308,1.363188,0.269391,-3.104584,99753.60,-166,-15,-156
91000,5.269,-3.221,0.031,1.479720,0.338565,-3.320621,99753.60,-170,-11,-155
91011,5.585,-3.743,0.208,1.597316,0.399226,-3.519629,99756.91,-173,-4,-154
91021,5.785,-4.602,0.400,1.694160,0.463611,-3.701079,99756.91,-178,+2,-153
91031,6.272,-5.784,0.689,1.787279,0.516822,-3.847409,99755.04,-178,+2,-153
91040,7.018,-7.087,0.985,1.866032,0.542364,-3.960748,99755.51,-183,+8,-150
91051,7.816,-8.474,1.034,1.900619,0.557263,-4.044290,99754.77,-185,+15,-150
91056,8.389,-9.345,1.125,1.897958,0.567905,-4.078877,99754.77,-185,+15,-150
91066,8.756,-9.870,1.216,1.860178,0.587593,-4.087390,99757.13,-189,+25,-148
91076,8.829,-10.280,1.501,1.741518,0.646657,-4.067171,99756.46,-191,+32,-147
91085,8.612,-10.447,1.950,1.591995,0.717428,-4.016088,99756.04,-191,+32,-147
91096,8.272,-10.432,2.291,1.457904,0.779684,-3.955960,99755.77,-194,+42,-145
91106,7.954,-10.472,2.370,1.359463,0.835556,-3.895299,99755.77,-196,+51,-144
91116,7.663,-10.421,2.114,1.333390,0.898345,-3.837831,99756.93,-198,+59,-142
91125,7.656,-10.133,1.866,1.383940,0.974969,-3.769721,99757.02,-200,+59,-140
91136,7.965,-9.910,1.774,1.470674,1.054253,-3.685648,99755.68,-200,+69,-140
91146,8.314,-9.848,1.698,1.549426,1.105336,-3.595189,99757.45,-202,+76,-137
91156,8.464,-9.775,1.411,1.591995,1.148969,-3.548363,99757.45,-204,+82,-134
91166,8.828,-9.884,1.348,1.539848,1.224528,-3.511648,99760.66,-206,+91,-132
91175,9.173,-10.205,1.411,1.396711,1.279335,-3.465354,99756.64,-206,+91,-132
91186,8.944,-10.400,1.426,1.182271,1.310198,-3.415336,99759.50,-208,+99,-129
91196,8.532,-10.163,1.211,0.948142,1.341060,-3.348290,99758.78,-209,+108,-126
91206,8.566,-9.636,1.168,0.734766,1.405445,-3.257832,99758.78,-209,+118,-124
91215,8.810,-9.186,1.300,0.558638,1.476216,-3.166309,99760.02,-209,+118,-124
91226,9.185,-8.757,1.333,0.420290,1.520381,-3.072125,99758.15,-211,+127,-118
91236,9.574,-8.383,1.306,0.328767,1.539005,-2.968896,99758.30,-210,+137,-116
91246,9.869,-8.433,1.101,0.276620,1.534748,-2.847043,99759.20,-211,+147,-112
91255,9.833,-9.187,0.668,0.245225,1.504950,-2.661336,99759.20,-211,+147,-112
91266,9.529,-10.115,0.061,0.244161,1.433115,-2.418162,99761.60,-211,+155,-107
91276,9.101,-10.778,-0.399,0.238308,1.334143,-2.162218,99761.60,-211,+161,-105
91286,8.409,-11.563,-0.930,0.180308,1.203244,-1.864236,99760.45,-210,+168,-102
91291,7.637,-12.187,-1.054,0.101556,1.101079,-1.582218,99760.13,-210,+168,-102
91300,6.940,-12.648,-0.994,0.017482,0.977097,-1.245925,99760.13,-211,+172,-99
91311,6.224,-12.802,-0.862,-0.098517,0.785538,-0.762769,99760.13,-211,+172,-99
91321,6.379,-12.300,-0.061,-0.204407,0.591850,-0.272696,99760.48,-211,+173,-96
91331,6.762,-11.747,0.601,-0.196958,0.367831,0.156717,99761.73,-212,+174,-96
91341,6.455,-11.645,-0.171,-0.083086,-0.054664,0.737248,99760.08,-214,+171,-95
91351,12.106,-9.877,0.359,0.252675,-0.481948,1.334276,99760.08,-216,+171,-95
91361,11.488,-2.113,3.176,0.799684,-0.973617,1.540202,99761.09,-216,+164,-98
91371,20.061,9.728,4.017,1.670747,-1.136443,1.161872,99761.09,-216,+158,-105
91381,19.080,11.020,2.788,1.102454,-1.073122,1.564147,99759.38,-217,+150,-108
91390,10.185,2.054,-0.783,0.406455,-0.987452,2.553871,99760.47,-220,+139,-112
91401,5.169,-5.275,-1.878,1.042858,-1.077379,2.716165,99763.14,-220,+139,-112
91411,7.461,-7.991,-1.992,1.669151,-1.333323,2.694348,99763.14,-220,+126,-118
91421,8.647,-6.393,-0.346,1.466417,-1.150278,2.559192,99761.87,-222,+113,-123
91431,8.037,-5.915,6.845,0.937500,-0.453214,2.235137,99761.13,-223,+103,-123
91441,7.510,-8.878,10.862,0.995500,-0.073287,2.151064,99762.34,-223,+103,-123
91451,9.918,-9.428,8.619,1.232821,-0.495783,2.407009,99757.82,-224,+93,-126
91461,8.440,-5.707,3.635,0.856087,-0.791636,2.142018,99759.09,-225,+82,-128
91471,6.086,-6.261,4.449,0.073886,-0.493654,1.882349,99758.40,-225,+74,-129
91481,6.423,-7.894,5.669,-0.449710,-0.308480,1.811046,99759.09,-225,+74,-129
91491,7.563,-7.433,2.091,-0.845067,-0.272297,1.641303,99759.09,-224,+70,-130
91501,7.876,-5.825,-0.405,-1.132939,-0.074884,1.366734,99760.02,-225,+67,-129
91511,8.702,-5.058,-0.683,-1.113783,0.109758,1.203909,99760.02,-226,+64,-129
91521,9.355,-4.009,0.011,-0.822187,0.074639,1.156019,99760.63,-226,+64,-129
91531,9.377,-3.336,0.576,-0.428426,-0.019544,1.156019,99761.73,-225,+62,-128
91541,8.993,-3.596,1.306,-0.120866,-0.063710,1.199652,99759.95,-227,+57,-129
91551,8.470,-4.085,2.247,0.090914,-0.115856,1.212422,99760.11,-227,+53,-129
91561,7.973,-5.012,3.260,0.106345,-0.124902,1.149101,99760.11,-227,+53,-129
91571,7.577,-5.730,3.647,-0.064462,-0.087122,0.985212,99760.84,-226,+49,-129
91581,7.305,-6.021,3.599,-0.284756,-0.014223,0.785670,99760.69,-227,+46,-129
91591,7.676,-5.500,3.522,-0.470462,0.060804,0.604753,99760.47,-228,+45,-129
91601,8.245,-4.615,3.012,-0.536976,0.096988,0.491946,99760.47,-228,+45,-129
91611,8.517,-4.273,2.195,-0.485893,0.090602,0.477579,99760.47,-227,+46,-129
91621,8.558,-4.226,2.092,-0.381600,0.081556,0.495671,99760.17,-228,+43,-128
91631,8.458,-4.291,2.414,-0.317747,0.082621,0.523340,99763.09,-228,+42,-128
91641,8.123,-4.540,2.712,-0.296994,0.085813,0.545157,99759.70,-228,+42,-128
91651,7.992,-4.755,2.933,-0.315086,0.090070,0.547817,99759.44,-227,+42,-128
91661,7.923,-4.866,2.982,-0.367765,0.097520,0.530258,99759.44,-228,+39,-128
91671,7.670,-5.038,3.057,-0.437471,0.120933,0.521744,99761.13,-229,+39,-127
91681,7.624,-5.031,3.183,-0.505049,0.173611,0.527065,99761.55,-229,+39,-127
91692,7.965,-4.794,3.200,-0.561985,0.179997,0.525469,99758.00,-229,+38,-128
91701,8.232,-4.671,2.732,-0.565178,0.144878,0.565377,99758.00,-229,+36,-126
91711,8.292,-4.708,2.489,-0.522609,0.096988,0.600496,99762.71,-230,+36,-126
91721,8.529,-4.808,2.240,-0.480040,0.068254,0.635083,99762.71,-230,+36,-126
91731,8.500,-4.866,2.183,-0.439068,0.041116,0.659560,99760.37,-229,+35,-126
91741,8.343,-4.925,2.236,-0.385857,0.016639,0.695212,99761.77,-230,+33,-125
91751,8.147,-5.027,2.353,-0.355526,0.000676,0.722349,99759.16,-229,+31,-125
91761,7.950,-5.317,2.248,-0.369361,0.005997,0.745762,99759.16,-229,+31,-125
91771,7.822,-5.465,2.149,-0.419912,0.029410,0.775028,99762.30,-229,+30,-125
91782,8.116,-5.461,2.231,-0.480572,0.057612,0.802166,99762.92,-229,+27,-125
91791,8.027,-5.501,1.959,-0.558792,0.089538,0.818661,99758.81,-229,+25,-124
91801,8.107,-5.213,2.838,-0.601893,0.085813,0.858570,99759.17,-229,+25,-124
91811,8.594,-4.411,4.320,-0.551343,-0.008370,0.932533,99762.15,-229,+24,-125
91822,8.288,-4.923,3.518,-0.497600,-0.142462,1.026716,99760.27,-229,+21,-125
91831,7.693,-5.495,3.388,-0.368829,-0.266443,1.123028,99758.87,-228,+17,-126
91841,7.391,-5.905,3.216,-0.341692,-0.297838,1.149101,99758.87,-228,+17,-126
91851,7.293,-6.605,2.453,-0.382132,-0.291985,1.160808,99759.96,-228,+13,-126
91862,7.200,-6.867,2.298,-0.415123,-0.244095,1.142716,99759.96,-227,+10,-128
91871,7.261,-6.872,1.895,-0.478444,-0.181838,1.106533,99758.08,-226,+7,-128
91882,7.419,-6.905,1.775,-0.533428,-0.127385,1.057401,99761.23,-225,+5,-129
91891,7.616,-6.733,1.994,-0.563581,-0.097232,1.019267,99761.23,-225,+5,-129
91901,7.762,-6.570,1.822,-0.577416,-0.099361,1.008624,99757.45,-225,+3,-130
91912,7.976,-6.356,1.691,-0.569435,-0.125434,1.018202,99757.45,-223,+0,-131
91921,7.991,-6.155,2.034,-0.530591,-0.179709,1.048001,99761.66,-223,-1,-131
91931,7.889,-6.114,2.243,-0.468866,-0.246755,1.106533,99761.30,-223,-1,-131
91941,7.827,-6.588,2.153,-0.386389,-0.324443,1.217211,99759.56,-222,-6,-132
91952,8.319,-6.911,2.321,-0.374682,-0.330297,1.232643,99759.56,-221,-9,-134
91961,8.101,-7.248,1.873,-0.436407,-0.339874,1.265101,99759.56,-218,-13,-135
91971,8.379,-7.074,1.997,-0.470994,-0.340407,1.313523,99764.27,-218,-13,-135
91981,8.740,-7.152,1.864,-0.526334,-0.341471,1.348643,99759.21,-216,-17,-136
91992,8.890,-7.310,1.757,-0.577416,-0.362755,1.390679,99760.52,-215,-19,-137
92001,9.258,-7.453,1.685,-0.629563,-0.385636,1.432184,99760.37,-213,-22,-139
92011,9.599,-7.805,1.549,-0.715233,-0.392021,1.471560,99760.37,-213,-22,-139
92021,9.896,-7.943,1.636,-0.818994,-0.373397,1.498698,99761.09,-211,-26,-140
92032,10.469,-7.925,1.763,-0.954682,-0.348920,1.522642,99761.72,-208,-29,-142
92042,11.220,-7.714,2.375,-1.094095,-0.335085,1.555633,99757.08,-206,-32,-144
92051,12.169,-7.396,3.505,-1.201581,-0.313269,1.621083,99757.08,-206,-32,-144
92061,13.056,-7.529,3.537,-1.316517,-0.299966,1.726440,99759.96,-204,-35,-145
92071,13.586,-7.260,3.286,-1.440498,-0.242498,1.839780,99757.93,-201,-36,-148
92081,13.831,-6.504,3.720,-1.588957,-0.122774,1.953651,99757.93,-199,-39,-150
92091,13.810,-6.153,4.047,-1.729434,-0.031783,2.061670,99756.26,-199,-39,-150
92101,13.628,-6.714,4.117,-1.819893,0.034731,2.237798,99758.96,-197,-42,-151
92111,13.159,-7.921,4.033,-1.862993,0.014511,2.463945,99758.96,-194,-45,-152
92122,12.946,-8.903,4.364,-1.797012,-0.076480,2.692220,99761.34,-192,-49,-155
92132,13.437,-8.848,5.321,-1.644828,-0.169067,2.847064,99756.64,-192,-49,-155
92141,13.160,-8.721,6.225,-1.593746,-0.181838,2.854513,99758.83,-187,-54,-156
92151,12.005,-8.885,5.868,-1.667177,-0.187159,2.772036,99757.89,-182,-58,-158
92162,10.473,-8.751,4.556,-1.806590,-0.199397,2.613467,99757.98,-178,-61,-161
92172,9.056,-6.874,4.361,-1.863526,-0.124370,2.405945,99756.00,-178,-61,-161
92181,7.349,-4.897,4.066,-1.893324,0.018235,2.064330,99756.72,-175,-63,-164
92191,11.193,-3.211,4.400,-1.656003,0.101777,1.742404,99756.72,-172,-64,-165
92201,12.305,-4.135,2.778,-1.721984,0.347611,0.981487,99756.78,-171,-63,-166
92211,-8.412,-3.736,-2.410,-0.923820,-0.492590,0.889964,99756.78,-171,-63,-166
92221,-5.190,-5.052,0.495,-0.409270,-0.333489,1.253927,99759.88,-169,-64,-169
92231,5.592,-2.671,1.695,-0.209196,-0.360095,1.142184,99757.52,-165,-67,-169
92241,9.845,1.205,0.798,-0.448114,-0.204186,-0.111467,99756.58,-165,-66,-170
92252,6.446,2.383,0.521,-0.658829,0.021428,-0.869723,99756.84,-165,-66,-170
92261,4.434,1.181,-0.108,-0.245380,0.063465,-0.876640,99756.84,-166,-63,-171
92271,3.486,0.816,-0.582,0.293115,-0.071691,-1.010200,99759.31,-167,-60,-171
92281,2.059,0.040,-1.082,0.643776,-0.132884,-1.286365,99756.75,-169,-58,-171
92292,1.101,-0.983,-1.034,0.833739,-0.047746,-1.602438,99754.03,-169,-58,-171
92302,1.120,-1.559,-0.611,0.893335,0.106566,-1.903612,99754.03,-170,-57,-169
92311,1.843,-1.809,-0.061,0.861941,0.282694,-2.215961,99754.03,-175,-52,-169
92321,2.878,-1.870,0.384,0.845445,0.430088,-2.542676,99756.01,-178,-47,-167
92332,3.930,-1.873,0.518,0.916216,0.525868,-2.834272,99756.74,-183,-47,-167
92341,4.850,-2.032,0.549,1.068399,0.565244,-3.079043,99755.70,-183,-42,-164
92352,5.403,-2.541,0.475,1.280711,0.574645,-3.300932,99753.28,-189,-35,-162
92361,5.574,-3.264,0.553,1.469610,0.579079,-3.461097,99753.28,-194,-28,-159
92371,5.693,-4.314,0.621,1.653188,0.603024,-3.617538,99756.52,-197,-21,-156
92382,5.927,-5.471,0.742,1.772380,0.651978,-3.771850,99755.53,-197,-21,-156
92392,6.420,-6.497,1.046,1.867628,0.698804,-3.899024,99753.75,-202,-13,-153
92401,7.249,-7.302,1.235,1.937334,0.735519,-4.007574,99751.65,-206,-4,-151
92411,8.086,-7.905,1.317,1.959151,0.761061,-4.104950,99752.18,-210,+3,-147
92422,8.508,-8.294,1.185,1.953298,0.792455,-4.182638,99758.18,-210,+3,-147
92431,8.796,-8.670,1.353,1.900619,0.854712,-4.230528,99758.18,-213,+15,-144
92441,8.954,-9.167,1.824,1.797922,0.934528,-4.249684,99755.15,-216,+24,-141
92451,9.022,-9.667,2.252,1.684582,0.997850,-4.273097,99754.41,-218,+34,-137
92462,9.034,-9.982,2.522,1.570179,1.051060,-4.282675,99754.41,-218,+34,-137
92472,9.041,-10.092,2.657,1.481848,1.111721,-4.272033,99758.45,-220,+47,-134
92481,9.191,-9.871,2.809,1.453647,1.171317,-4.266180,99757.88,-222,+59,-131
92491,9.410,-9.727,2.715,1.491426,1.214418,-4.244363,99757.51,-222,+70,-127
92502,9.566,-9.829,2.377,1.533463,1.256987,-4.183702,99755.84,-222,+70,-127
92512,10.069,-10.212,2.017,1.493555,1.336803,-4.101758,99760.66,-223,+82,-123
92522,10.674,-10.861,1.915,1.359463,1.446418,-4.062913,99756.22,-222,+93,-120
92531,10.808,-11.080,1.895,1.133849,1.522510,-4.053868,99756.13,-222,+105,-116
92541,10.840,-10.672,1.901,0.860876,1.576253,-4.024069,99756.75,-222,+105,-116
92552,10.998,-10.050,1.933,0.603335,1.635317,-3.943721,99756.75,-220,+118,-112
92561,11.075,-9.562,1.995,0.416033,1.690656,-3.798455,99756.75,-218,+130,-105
92571,11.172,-9.439,1.873,0.321317,1.707684,-3.567519,99761.11,-216,+142,-102
92581,11.062,-9.569,1.523,0.296840,1.690124,-3.303061,99757.50,-216,+142,-102
92592,9.638,-10.912,0.238,0.268106,1.611904,-2.910364,99756.52,-214,+152,-97
92602,8.790,-11.754,-0.897,0.257996,1.425666,-2.387300,99756.05,-213,+160,-94
92611,8.529,-12.169,-1.671,0.272363,1.260180,-1.999392,99756.05,-211,+166,-90
92621,7.351,-12.498,-1.704,0.259060,1.070216,-1.597117,99759.01,-211,+166,-90
92632,6.588,-12.404,-1.787,0.285666,0.761061,-1.041062,99760.07,-210,+170,-88
92642,6.237,-12.278,-2.120,0.351647,0.384327,-0.461063,99760.30,-211,+170,-86
92651,5.620,-12.489,-2.356,0.463390,-0.016352,0.152992,99760.30,-211,+168,-88
92661,8.283,-12.806,-1.825,0.544271,-0.309544,0.827175,99762.22,-211,+168,-88
92672,9.969,-14.096,0.003,0.393152,-0.494186,1.618954,99762.22,-211,+164,-90
92682,9.288,-8.520,3.078,0.421354,-0.741617,2.108495,99761.91,-214,+154,-91
92691,20.212,4.659,3.402,0.841188,-0.950736,1.480606,99758.41,-214,+147,-96
92701,18.576,8.457,-0.584,-0.356591,-0.606994,1.613101,99758.92,-214,+147,-96
92711,6.507,-3.576,-3.553,-1.500095,-0.032847,2.159046,99758.92,-216,+143,-96
92722,6.563,-10.713,2.090,-0.727471,-0.155232,2.204807,99764.38,-219,+135,-94
92732,10.470,-6.880,4.466,-0.034132,-0.650094,2.279835,99761.50,-221,+127,-96
92741,9.528,-3.696,8.436,0.174987,-0.475562,2.227156,99758.94,-221,+127,-96
92751,8.043,-6.285,9.020,0.538950,-0.380847,2.288348,99756.88,-222,+119,-98
92762,9.147,-6.880,5.546,1.105115,-0.871984,2.531523,99763.09,-223,+106,-100
92772,8.252,-5.724,1.246,1.203555,-1.136975,2.402220,99759.76,-224,+96,-105
92781,6.498,-7.010,2.000,0.755519,-0.877837,2.093596,99759.76,-224,+96,-105
92791,6.655,-8.425,3.260,0.210638,-0.564957,1.855743,99759.49,-223,+89,-107
92802,7.055,-8.617,2.447,-0.392242,-0.359563,1.558294,99759.60,-224,+81,-107
92812,7.731,-7.605,0.997,-0.946168,-0.168535,1.214551,99759.60,-224,+78,-108
92822,8.404,-5.239,0.236,-1.229783,0.044664,0.900606,99762.45,-224,+78,-108
92831,8.712,-4.298,0.998,-1.165930,0.160841,0.743102,99762.45,-224,+78,-108
92841,9.034,-3.606,1.877,-0.895618,0.127318,0.707450,99761.48,-225,+76,-106
92852,9.144,-3.083,2.030,-0.522609,0.028345,0.741505,99760.90,-226,+75,-106
92862,8.971,-3.118,2.503,-0.221967,-0.045086,0.810680,99760.90,-226,+73,-107
92872,8.444,-3.906,2.932,-0.035196,-0.133416,0.868147,99760.27,-226,+73,-107
92881,8.224,-4.599,3.214,0.041427,-0.183966,0.828239,99759.93,-227,+69,-107
92892,8.040,-5.080,3.548,-0.076169,-0.150443,0.721817,99757.07,-225,+66,-107
92902,7.752,-5.597,3.713,-0.304444,-0.074352,0.590918,99757.07,-226,+65,-108
92911,7.630,-5.474,3.633,-0.528994,0.008125,0.417983,99757.07,-226,+65,-108
92921,7.977,-4.673,3.064,-0.688095,0.083685,0.282827,99760.92,-226,+65,-107
92932,8.354,-3.967,2.714,-0.706719,0.124125,0.232276,99762.39,-226,+66,-107
92942,8.639,-3.548,2.900,-0.570499,0.098052,0.268460,99758.00,-227,+66,-105
92951,8.781,-3.416,2.748,-0.427361,0.044841,0.376478,99756.95,-227,+66,-105
92961,8.526,-3.771,2.581,-0.335838,0.015575,0.480239,99756.95,-227,+64,-105
92972,8.238,-3.969,2.887,-0.306572,0.009190,0.527597,99762.23,-227,+63,-105
92982,8.126,-4.150,3.286,-0.336903,0.026217,0.544625,99761.54,-228,+63,-105
92992,7.910,-4.368,3.433,-0.422572,0.058676,0.571762,99759.15,-228,+63,-105
93001,7.967,-4.359,3.384,-0.499728,0.081556,0.572827,99759.15,-228,+60,-104
93011,8.076,-4.369,3.254,-0.535380,0.082089,0.579212,99762.32,-228,+59,-104
93022,8.307,-4.381,3.022,-0.540169,0.062933,0.607414,99762.32,-228,+58,-104
93032,8.466,-4.346,2.959,-0.532719,0.037391,0.643065,99761.43,-228,+58,-104
93041,8.500,-4.246,2.893,-0.502389,0.004933,0.671799,99759.18,-228,+56,-103
93051,8.317,-4.350,2.771,-0.449178,-0.037104,0.697340,99758.09,-228,+55,-104
93057,8.254,-4.554,2.892,-0.403948,-0.084462,0.726074,99758.09,-228,+55,-104
93067,8.227,-4.505,3.121,-0.367765,-0.132884,0.750019,99763.74,-229,+53,-105
93077,8.078,-4.665,3.096,-0.365637,-0.162682,0.777157,99760.51,-229,+50,-105
93086,7.971,-4.967,2.891,-0.381600,-0.192480,0.811212,99759.77,-228,+49,-105
93096,7.920,-5.008,2.864,-0.395967,-0.214297,0.838349,99760.04,-228,+49,-105
93107,7.984,-5.006,2.588,-0.430554,-0.215893,0.863358,99760.04,-228,+45,-105
93117,8.089,-4.989,2.641,-0.434811,-0.222810,0.899010,99762.02,-228,+42,-106
93126,8.163,-4.991,2.753,-0.425233,-0.244627,0.938386,99761.17,-227,+40,-107
93136,8.138,-5.233,2.466,-0.424169,-0.271764,0.985212,99760.14,-227,+40,-107
93147,7.940,-5.520,2.333,-0.417251,-0.301563,1.024588,99758.88,-227,+38,-108
93157,7.964,-5.711,2.423,-0.432150,-0.307948,1.046936,99758.88,-227,+34,-108
93167,7.974,-5.871,2.460,-0.468866,-0.304755,1.057578,99761.70,-225,+31,-110
93176,7.910,-5.963,2.404,-0.503985,-0.301563,1.074074,99760.14,-225,+31,-110
93187,7.859,-6.005,2.383,-0.527398,-0.298370,1.090569,99758.20,-225,+28,-110
93197,7.837,-6.182,2.188,-0.548682,-0.298370,1.104936,99760.45,-223,+24,-112
93207,7.816,-6.536,1.904,-0.576352,-0.293049,1.114514,99760.45,-223,+22,-113
93216,7.877,-6.600,1.831,-0.614664,-0.283471,1.132074,99761.38,-223,+22,-113
93227,7.871,-6.390,2.077,-0.653508,-0.280278,1.140056,99760.76,-222,+20,-113
93237,7.941,-6.338,2.222,-0.648719,-0.307416,1.156551,99761.07,-222,+16,-115
93247,8.100,-6.415,2.285,-0.617324,-0.352113,1.178367,99757.73,-220,+13,-116
93256,8.271,-6.678,2.174,-0.610407,-0.399471,1.209230,99757.73,-220,+13,-116
93266,8.558,-6.551,1.788,-0.626370,-0.453214,1.247542,99762.14,-220,+10,-117
93277,8.514,-6.218,1.962,-0.614664,-0.504296,1.302881,99760.78,-217,+6,-119
93287,9.635,-6.698,1.313,-0.577416,-0.580920,1.386954,99760.98,-215,+3,-121
93292,9.547,-7.147,1.338,-0.605086,-0.591030,1.393340,99761.09,-215,+3,-121
93301,9.462,-7.475,1.529,-0.631691,-0.611250,1.441762,99761.09,-215,-1,-123
93312,9.712,-7.087,2.006,-0.662022,-0.635727,1.513597,99761.09,-211,-5,-125
93322,9.847,-7.468,2.183,-0.757269,-0.658076,1.551376,99761.52,-211,-5,-125
93332,10.219,-7.702,2.113,-0.833893,-0.691067,1.596606,99759.95,-209,-8,-128
93342,11.070,-7.755,2.546,-0.958939,-0.698516,1.657266,99760.47,-207,-11,-130
93351,12.028,-7.502,3.192,-1.081324,-0.717140,1.731762,99760.47,-203,-15,-133
93362,12.885,-7.328,3.577,-1.181361,-0.733636,1.844037,99761.86,-203,-15,-133
93372,13.572,-7.277,3.578,-1.263838,-0.737360,1.998349,99761.86,-201,-18,-136
93382,14.350,-7.115,3.570,-1.355893,-0.705966,2.132440,99758.31,-197,-24,-138
93391,15.314,-6.795,4.045,-1.483599,-0.608590,2.246844,99757.94,-194,-28,-142
93402,15.690,-6.409,4.792,-1.673562,-0.462792,2.353798,99755.39,-194,-28,-142
93412,15.550,-6.142,5.285,-1.889067,-0.305287,2.465009,99755.39,-191,-31,-144
93422,15.093,-6.510,5.047,-2.150865,-0.151508,2.530458,99759.19,-188,-35,-146
93432,13.450,-9.178,3.883,-2.431287,-0.119049,2.680513,99759.55,-186,-38,-148
93442,11.859,-11.269,3.904,-2.291342,-0.266443,2.973174,99759.03,-186,-38,-148
93452,12.673,-9.858,5.231,-1.808186,-0.421819,3.040752,99759.06,-182,-42,-151
93462,12.636,-8.141,5.843,-1.636315,-0.431929,2.745963,99758.17,-177,-49,-153
93472,10.125,-7.453,5.181,-1.809250,-0.395746,2.500660,99756.25,-173,-52,-157
93481,7.668,-6.305,3.742,-1.825746,-0.351049,2.337303,99757.34,-173,-52,-157
93492,5.875,-4.726,2.906,-1.563416,-0.243030,2.119670,99757.34,-170,-53,-159
93502,12.915,-2.530,3.746,-1.271820,-0.049343,1.705688,99756.25,-168,-57,-160
93512,7.114,-3.884,1.096,-1.581507,0.509373,0.713304,99756.25,-169,-56,-161
93521,-8.698,-2.917,-2.265,-0.884444,-0.445764,0.980423,99759.73,-169,-56,-161
93528,-4.847,-4.423,-0.261,-0.512499,-0.363287,1.315652,99758.28,-167,-57,-162
93537,2.954,-2.515,0.969,-0.371490,-0.297306,1.138991,99756.66,-165,-57,-162
93547,7.256,0.827,0.935,-0.282627,-0.196205,0.084882,99756.81,-165,-61,-164
93556,6.161,1.747,0.798,-0.442260,-0.001985,-0.602072,99756.81,-166,-60,-165
93566,5.021,1.631,0.280,-0.189508,0.062933,-0.807466,99757.99,-168,-57,-164
93577,3.860,2.088,0.096,0.330363,-0.022205,-1.049576,99756.99,-170,-58,-164
93587,2.624,1.542,-0.139,0.848106,-0.108407,-1.337448,99756.01,-170,-58,-164
93597,1.807,0.418,-0.173,1.306784,-0.163746,-1.601906,99756.32,-173,-57,-163
93606,1.660,-0.191,-0.112,1.604766,-0.145654,-1.862108,99756.32,-175,-56,-161
93617,1.941,-0.819,0.293,1.696821,-0.026462,-2.162218,99758.49,-179,-55,-160
93627,2.352,-1.618,0.850,1.710124,0.119336,-2.456474,99756.30,-179,-55,-160
93637,3.223,-2.131,1.212,1.771848,0.226290,-2.712951,99756.62,-184,-53,-157
93646,4.053,-2.325,1.384,1.840490,0.310896,-2.948144,99758.65,-190,-49,-155
93657,4.560,-2.641,1.514,1.928821,0.366767,-3.158327,99758.65,-196,-46,-152
93667,4.962,-3.296,1.453,2.036839,0.412529,-3.362657,99755.27,-196,-46,-152
93677,5.392,-4.224,1.408,2.104949,0.474253,-3.568583,99757.16,-202,-41,-148
93687,5.897,-5.341,1.262,2.116655,0.552474,-3.745244,99757.37,-209,-34,-145
93697,6.462,-6.597,1.281,2.075151,0.662620,-3.906473,99758.66,-216,-27,-142
93707,7.341,-7.790,1.344,2.027261,0.784473,-4.042161,99758.66,-216,-27,-142
93717,8.254,-8.607,1.479,1.933610,0.908455,-4.150179,99758.18,-223,-17,-137
93727,8.882,-8.816,1.484,1.808032,1.012216,-4.241170,99757.35,-230,-6,-134
93736,9.106,-8.589,1.616,1.671812,1.115446,-4.306087,99757.82,-237,+5,-128
93747,9.179,-8.616,1.971,1.505793,1.226125,-4.355574,99759.38,-237,+5,-128
93757,9.400,-9.235,2.504,1.346693,1.321372,-4.401867,99759.38,-242,+17,-123
93767,9.624,-10.067,2.943,1.218454,1.385225,-4.414638,99762.81,-249,+34,-118
93776,9.526,-10.638,3.115,1.132784,1.431519,-4.370473,99757.86,-254,+49,-112
93787,9.352,-10.536,2.978,1.125335,1.472491,-4.333225,99759.73,-254,+49,-112
93797,9.541,-9.950,2.756,1.192913,1.543262,-4.277354,99756.50,-256,+64,-107
93807,9.808,-9.445,2.779,1.256234,1.634785,-4.182106,99756.50,-259,+82,-100
93817,10.347,-9.660,2.833,1.269537,1.720987,-4.052804,99762.24,-262,+97,-93
93827,10.579,-10.138,2.574,1.268472,1.751849,-3.959152,99760.10,-262,+97,-93
93837,10.797,-10.382,1.907,1.223243,1.751317,-3.893171,99757.76,-262,+112,-87
93847,10.948,-10.490,1.363,1.061482,1.782711,-3.838363,99758.07,-261,+129,-80
93857,11.100,-10.617,1.127,0.832142,1.832198,-3.753226,99758.07,-260,+146,-73
93867,11.325,-10.857,0.980,0.620363,1.836454,-3.576033,99761.13,-260,+146,-73
93877,11.106,-11.038,0.809,0.504895,1.747592,-3.329666,99759.88,-256,+161,-66
93887,10.236,-11.164,0.576,0.516601,1.597005,-3.018914,99761.17,-252,+177,-59
93897,9.188,-11.824,0.152,0.615042,1.392143,-2.580456,99757.16,-248,+187,-56
93906,8.366,-12.587,-0.641,0.764032,1.115978,-2.054199,99757.16,-248,+187,-56
93917,7.337,-12.913,-1.474,0.864069,0.823850,-1.517833,99762.63,-244,+196,-52
93927,6.248,-13.098,-2.278,0.855555,0.548217,-0.952732,99764.35,-242,+202,-52
93937,6.115,-12.936,-2.121,0.760840,0.314621,-0.388696,99760.90,-241,+203,-51
93947,5.779,-13.175,-2.105,0.632069,0.074639,0.164698,99759.38,-241,+203,-51
93957,5.669,-13.498,-2.398,0.493189,-0.260590,0.823450,99759.38,-241,+202,-52
93967,13.549,-13.323,-1.151,0.448491,-0.544737,1.487523,99763.28,-242,+199,-55
93977,14.023,-6.449,2.271,0.528308,-1.031085,1.854679,99761.61,-246,+191,-59
93987,19.021,8.501,2.259,1.416399,-1.492956,1.441762,99760.52,-246,+191,-59
93997,20.395,10.891,-0.402,0.900253,-1.266810,2.103706,99762.70,-246,+185,-65
94007,8.509,-1.848,-5.546,-0.113417,-0.879434,2.980623,99762.70,-249,+174,-68
94017,4.936,-12.312,-5.279,0.480418,-0.992241,2.942311,99766.96,-253,+162,-72
94027,9.748,-9.149,1.432,1.025830,-1.180608,2.962532,99762.43,-255,+149,-78
94036,9.072,-5.592,9.130,1.012528,-0.695324,2.733192,99764.04,-255,+149,-78
94047,6.957,-7.772,12.872,1.142895,-0.287728,2.549082,99758.04,-258,+139,-80
94057,8.910,-8.526,8.219,1.569114,-0.832076,2.679981,99758.04,-260,+125,-83
94067,8.095,-5.458,3.328,1.496215,-1.272131,2.471394,99764.30,-261,+114,-89
94077,5.549,-5.826,3.020,0.877372,-1.067801,2.126055,99761.49,-261,+114,-89
94087,5.305,-9.855,5.457,0.141464,-0.722993,1.968018,99759.60,-261,+106,-92
94097,6.772,-10.826,2.514,-0.687563,-0.578260,1.715798,99758.73,-261,+99,-93
94107,7.747,-7.696,-1.355,-1.508076,-0.280278,1.289046,99758.73,-261,+97,-94
94117,8.602,-4.939,-2.205,-1.769342,0.143281,0.922245,99764.52,-261,+97,-94
94127,9.308,-3.950,-0.781,-1.406975,0.248107,0.811744,99764.45,-263,+97,-91
94137,9.645,-2.602,0.658,-0.770572,0.147538,0.848992,99763.16,-264,+94,-89
94147,9.186,-2.544,1.452,-0.196958,0.027281,0.992129,99757.98,-264,+90,-90
94157,8.842,-2.852,1.821,0.250547,-0.096700,1.123028,99757.98,-264,+90,-90
94168,8.422,-3.994,2.594,0.428271,-0.182370,1.201248,99762.44,-265,+85,-91
94177,7.912,-5.220,3.707,0.297372,-0.170131,1.110790,99761.08,-265,+80,-91
94187,7.238,-6.308,4.120,-0.045839,-0.059985,0.875065,99761.28,-265,+77,-91
94197,6.825,-6.820,3.667,-0.448646,0.079428,0.667010,99761.28,-265,+77,-91
94208,7.329,-5.895,3.318,-0.864756,0.259813,0.405212,99761.28,-266,+76,-90
94217,8.056,-4.614,3.178,-1.020664,0.350272,0.265267,99763.52,-267,+75,-88
94227,8.579,-3.758,2.625,-0.933930,0.341758,0.308368,99764.34,-268,+76,-86
94237,9.180,-3.367,2.205,-0.721618,0.240125,0.417451,99761.73,-268,+76,-86
94247,8.942,-3.464,2.360,-0.463013,0.104437,0.566441,99759.44,-268,+75,-85
94257,8.760,-3.795,2.744,-0.266664,-0.000388,0.722882,99759.44,-268,+72,-85
94267,8.086,-4.572,2.886,-0.225160,-0.055196,0.748955,99762.50,-268,+70,-86
94277,7.870,-5.305,2.649,-0.278371,-0.032847,0.740973,99762.25,-268,+70,-86
94287,7.821,-5.403,2.870,-0.407673,0.035795,0.689359,99758.33,-268,+67,-86
94298,7.911,-5.101,2.949,-0.521545,0.087410,0.657432,99760.05,-270,+64,-85
94307,8.049,-4.729,3.118,-0.540701,0.082089,0.657432,99760.05,-270,+63,-84
94317,8.110,-4.653,3.019,-0.493875,0.043245,0.678716,99762.01,-270,+63,-84
94327,8.094,-4.878,2.617,-0.430022,-0.007838,0.710111,99762.43,-270,+61,-84
94338,8.052,-5.103,2.374,-0.382132,-0.033379,0.731395,99760.13,-270,+58,-84
94347,8.047,-5.220,2.244,-0.387985,-0.028590,0.742570,99759.60,-270,+57,-83
94353,8.065,-5.225,2.260,-0.401820,-0.018480,0.747359,99759.60,-270,+57,-83
94362,8.117,-5.258,2.412,-0.409270,-0.015820,0.754276,99759.60,-271,+53,-84
94372,8.108,-5.198,2.736,-0.404481,-0.029122,0.771304,99762.13,-269,+50,-83
94383,8.013,-5.216,2.829,-0.398627,-0.053599,0.804294,99762.59,-269,+50,-83
94392,7.916,-5.378,2.754,-0.402352,-0.081269,0.850056,99762.81,-270,+49,-84
94402,7.871,-5.470,2.601,-0.422572,-0.107342,0.905927,99761.51,-271,+45,-84
94412,7.917,-5.488,2.538,-0.448646,-0.121177,0.961799,99762.38,-270,+41,-84
94423,8.053,-5.514,2.450,-0.473655,-0.137141,1.027248,99760.93,-270,+41,-84
94432,8.126,-5.724,2.431,-0.488554,-0.148847,1.077267,99760.93,-270,+38,-84
94442,7.983,-6.027,2.253,-0.514095,-0.152040,1.114514,99760.73,-270,+35,-85
94452,7.821,-6.200,2.078,-0.543361,-0.144590,1.134202,99760.46,-270,+30,-86
94462,7.688,-6.269,2.115,-0.555068,-0.143526,1.143780,99760.46,-270,+30,-86
94473,7.675,-6.599,1.918,-0.560389,-0.138737,1.134202,99762.98,-268,+27,-86
94482,7.686,-6.679,1.813,-0.574756,-0.128095,1.102808,99762.52,-268,+23,-86
94492,7.792,-6.743,1.744,-0.569435,-0.128627,1.067689,99760.48,-267,+19,-88
94502,7.934,-6.724,1.466,-0.574756,-0.137141,1.050129,99760.84,-267,+19,-88
94513,8.010,-6.276,2.015,-0.554536,-0.179709,1.046936,99760.84,-267,+17,-88
94523,8.378,-6.194,1.906,-0.493875,-0.266975,1.110257,99761.09,-265,+13,-89
94532,9.088,-6.496,1.880,-0.449710,-0.349452,1.135267,99758.25,-265,+8,-90
94542,8.999,-6.652,2.120,-0.441196,-0.422884,1.211890,99758.97,-265,+8,-90
94553,8.903,-6.648,2.044,-0.447581,-0.488865,1.318844,99758.97,-263,+5,-92
94562,8.904,-7.091,2.205,-0.482701,-0.520260,1.397597,99758.97,-262,+0,-94
94572,8.976,-7.095,2.471,-0.538572,-0.536755,1.468899,99761.41,-260,-3,-96
94582,9.171,-7.576,2.188,-0.643398,-0.542076,1.518386,99761.41,-260,-3,-96
94587,9.303,-7.892,2.114,-0.718957,-0.537819,1.555101,99759.01,-256,-9,-98
94598,9.537,-8.014,2.123,-0.812077,-0.513874,1.591817,99758.27,-255,-13,-100
94607,9.934,-8.144,2.247,-0.975434,-0.470241,1.624807,99758.27,-255,-13,-100
94617,10.327,-7.777,2.636,-1.141985,-0.428737,1.681211,99761.76,-252,-17,-102
94627,11.119,-7.387,2.847,-1.285654,-0.403196,1.749321,99758.05,-250,-22,-105
94638,12.349,-6.956,3.232,-1.389416,-0.401599,1.841376,99759.30,-247,-26,-107
94647,13.663,-6.943,4.030,-1.460186,-0.395214,1.941945,99759.82,-247,-26,-107
94657,14.367,-7.615,3.749,-1.544260,-0.373397,2.088807,99759.82,-243,-28,-109
94667,14.221,-7.487,3.336,-1.659195,-0.273361,2.222367,99759.23,-240,-33,-111
94678,13.610,-7.084,3.487,-1.883746,-0.078609,2.276110,99757.71,-237,-38,-113
94688,13.480,-7.322,3.420,-2.142883,0.081024,2.334110,99760.26,-237,-38,-113
94697,13.538,-8.610,3.427,-2.312094,0.148070,2.471926,99754.01,-233,-41,-112
94707,13.637,-9.907,4.709,-2.196094,0.096456,2.743302,99754.01,-230,-44,-115
94717,14.461,-9.065,5.878,-1.793287,-0.080737,2.902935,99758.84,-225,-51,-116
94728,13.741,-7.538,6.441,-1.582039,-0.180774,2.782678,99758.16,-225,-51,-116
94737,11.291,-7.305,6.099,-1.630461,-0.256865,2.587394,99756.91,-219,-55,-118
94747,8.554,-7.204,4.757,-1.739544,-0.290920,2.406477,99755.82,-216,-58,-121
94757,6.535,-5.372,3.803,-1.644296,-0.202590,2.186716,99755.82,-211,-61,-123
94768,4.687,-3.880,3.865,-1.387287,-0.028058,1.946202,99757.48,-211,-61,-123
94777,13.289,-2.263,4.188,-1.132407,0.207666,1.535945,99762.03,-208,-63,-122
94787,0.169,-3.358,-0.590,-1.226058,0.221501,0.936790,99755.25,-206,-61,-123
94797,-6.369,-4.309,-0.747,-0.468334,-0.457471,1.234771,99758.11,-202,-63,-123
94808,1.959,-3.774,0.711,-0.280499,-0.282939,1.335872,99758.11,-202,-63,-123
94818,7.902,-0.295,1.082,-0.458224,-0.139269,0.334974,99756.98,-200,-64,-124
94827,7.658,1.930,0.700,-0.855710,0.117740,-0.626017,99756.40,-202,-59,-124
94837,6.812,1.808,0.006,-0.767379,0.154988,-0.839925,99758.02,-202,-55,-123
94848,6.120,1.854,-0.043,-0.172481,-0.032847,-0.979870,99758.18,-202,-55,-123
94858,5.079,1.211,-0.352,0.490528,-0.269104,-1.197503,99758.18,-203,-49,-122
94867,4.184,-0.363,-0.386,1.110436,-0.472370,-1.419924,99755.73,-203,-44,-121
94877,3.965,-1.297,-0.321,1.542509,-0.571342,-1.676934,99757.16,-203,-40,-120
94887,4.108,-1.939,0.001,1.689903,-0.514406,-1.973851,99757.56,-203,-40,-120
94898,4.292,-2.449,0.454,1.665426,-0.363819,-2.286731,99753.81,-204,-35,-118
94907,4.616,-2.625,0.858,1.613812,-0.199930,-2.588437,99753.81,-206,-28,-118
94917,5.088,-2.579,1.114,1.576564,-0.049875,-2.859281,99758.90,-208,-19,-116
94927,5.295,-2.748,1.372,1.590931,0.076767,-3.091813,99754.15,-208,-19,-116
94938,5.598,-3.141,1.436,1.687243,0.159777,-3.291354,99754.21,-211,-10,-114
94948,5.960,-3.751,1.378,1.784619,0.229483,-3.487703,99753.26,-213,+1,-112
94957,6.339,-4.518,1.251,1.841555,0.310364,-3.685648,99753.26,-215,+11,-110
94967,6.855,-5.258,1.294,1.860178,0.401354,-3.862308,99754.10,-215,+11,-110
94978,7.460,-5.929,1.513,1.864967,0.479042,-4.010767,99756.55,-215,+24,-107
94988,8.068,-6.670,1.854,1.873481,0.538639,-4.139537,99754.73,-216,+38,-106
94997,8.574,-7.488,2.311,1.881995,0.593978,-4.254473,99752.16,-216,+51,-104
95007,9.109,-8.276,2.776,1.859646,0.655703,-4.353978,99752.16,-214,+67,-104
95017,9.683,-8.836,2.908,1.755885,0.746162,-4.435923,99755.87,-214,+67,-104
95028,9.832,-9.237,2.997,1.604234,0.871207,-4.494987,99756.45,-211,+82,-102
95037,9.532,-9.648,2.934,1.454711,1.015941,-4.517868,99756.45,-206,+97,-102
95047,9.218,-9.802,2.848,1.344564,1.175574,-4.521060,99754.84,-201,+112,-100
95057,9.226,-9.407,2.712,1.256234,1.357023,-4.534895,99754.84,-201,+112,-100
95068,9.461,-8.862,2.741,1.208344,1.536877,-4.532234,99759.38,-197,+126,-99
95078,9.990,-8.462,2.581,1.234417,1.676289,-4.513078,99757.13,-191,+137,-98
95087,10.673,-8.787,2.086,1.312105,1.760363,-4.496051,99757.55,-187,+149,-96
95097,10.950,-10.083,1.417,1.402032,1.775794,-4.447629,99756.82,-187,+149,-96
95108,10.742,-11.915,0.676,1.467481,1.732693,-4.308748,99756.82,-181,+160,-96
95118,10.889,-13.269,-0.097,1.419060,1.683739,-4.075152,99759.34,-176,+169,-94
95127,12.100,-15.116,0.064,1.270069,1.638510,-3.822400,99761.53,-170,+177,-94
95137,11.931,-16.359,-0.232,1.114161,1.466638,-3.582418,99755.84,-170,+177,-94
95148,10.517,-16.212,-0.050,0.901317,1.263372,-3.277519,99759.34,-164,+185,-92
95158,8.937,-15.258,0.896,0.777867,1.093629,-2.976877,99759.34,-161,+191,-92
