140040,9.565,-0.843,1.864,0.003383,-0.000425,-0.005808,100138.69,-78,+5,-297
140049,9.574,-0.827,1.889,0.008704,0.000639,-0.004744,100140.36,-77,+5,-298
140059,9.546,-0.897,1.898,0.014026,0.000639,-0.006340,100137.42,-77,+6,-296
140069,9.546,-0.863,1.887,0.009769,0.001703,-0.007404,100137.42,-78,+5,-296
140080,9.556,-0.809,1.889,0.008172,0.000107,-0.008469,100141.77,-78,+5,-296
140089,9.588,-0.866,1.871,0.010301,0.000639,-0.008469,100138.89,-78,+6,-297
140095,9.582,-0.872,1.868,0.011365,0.000107,-0.011129,100137.16,-78,+5,-297
140104,9.596,-0.858,1.843,0.011365,0.000639,-0.011661,100137.16,-78,+5,-297
140114,9.590,-0.833,1.864,0.012961,0.002768,-0.012725,100135.64,-78,+5,-296
140125,9.590,-0.822,1.881,0.013493,0.003300,-0.011129,100135.64,-78,+5,-296
140135,9.589,-0.793,1.899,0.011897,0.003832,-0.010065,100139.48,-78,+5,-296
140144,9.577,-0.805,1.908,0.010301,0.004896,-0.008469,100137.91,-78,+5,-296
140154,9.586,-0.838,1.856,0.012961,0.004896,-0.006872,100136.13,-78,+6,-297
140165,9.577,-0.796,1.868,0.016686,0.004896,-0.004212,100136.13,-78,+5,-296
140174,9.560,-0.832,1.919,0.017750,0.005428,0.000045,100136.13,-78,+5,-297
140184,9.558,-0.834,1.901,0.016154,0.004364,0.000577,100140.15,-78,+5,-297
140194,9.570,-0.849,1.908,0.010833,0.004364,0.001109,100139.37,-79,+5,-296
140205,9.582,-0.840,1.886,0.009769,0.004364,0.000577,100138.37,-78,+5,-296
140215,9.578,-0.856,1.868,0.009237,0.003300,-0.001019,100139.15,-78,+5,-296
140224,9.592,-0.882,1.880,0.006044,0.003832,-0.004744,100139.15,-78,+5,-296
140234,9.548,-0.882,1.874,0.000723,0.004364,-0.007404,100138.32,-78,+5,-296
140244,9.578,-0.858,1.855,0.002319,0.004896,-0.009533,100140.12,-78,+5,-296
140255,9.613,-0.878,1.873,0.006044,0.006492,-0.013258,100137.91,-78,+5,-296
140264,9.614,-0.852,1.860,0.006044,0.006492,-0.016450,100137.91,-78,+5,-296
140274,9.577,-0.851,1.885,0.007108,0.006492,-0.018047,100140.75,-78,+5,-296
140284,9.565,-0.830,1.893,0.006044,0.005428,-0.019643,100139.70,-78,+5,-297
140295,9.578,-0.799,1.923,0.005512,0.005428,-0.019111,100139.70,-79,+5,-296
140304,9.593,-0.791,1.904,0.004448,0.005428,-0.017514,100140.33,-79,+5,-296
140314,9.576,-0.818,1.904,0.002851,0.004896,-0.017514,100138.86,-78,+5,-297
140324,9.578,-0.795,1.892,-0.004598,0.005428,-0.018047,100138.86,-78,+5,-297
140329,9.611,-0.773,1.880,0.001787,0.007557,-0.018579,100139.48,-78,+5,-297
140340,9.568,-0.874,1.872,0.004448,0.008089,-0.019643,100138.17,-78,+5,-296
140349,9.541,-0.817,1.859,-0.000874,0.006492,-0.019643,100137.08,-78,+5,-296
140359,9.611,-0.766,1.884,0.001787,0.008621,-0.019111,100138.06,-78,+5,-296
140369,9.599,-0.803,1.865,0.006576,0.009685,-0.019111,100138.06,-78,+5,-296
140380,9.554,-0.819,1.822,0.008704,0.011281,-0.015918,100139.27,-78,+5,-296
140389,9.570,-0.803,1.879,0.010301,0.011813,-0.014854,100135.66,-78,+5,-296
140399,9.616,-0.771,1.904,0.009769,0.013410,-0.014322,100136.02,-79,+5,-296
140409,9.630,-0.746,1.892,0.013493,0.014474,-0.012725,100136.91,-79,+5,-296
140420,9.622,-0.785,1.919,0.012961,0.015006,-0.010065,100136.91,-78,+6,-296
140430,9.699,-0.770,1.910,0.011365,0.017667,-0.007936,100139.79,-78,+5,-296
140439,9.690,-0.773,1.885,0.007640,0.018731,-0.006340,100137.74,-78,+5,-296
140449,9.632,-0.771,1.866,0.003383,0.018731,-0.003680,100136.48,-78,+5,-296
140460,9.614,-0.761,1.834,0.013493,0.015538,0.000045,100136.48,-78,+5,-295
140470,9.655,-0.722,1.927,0.025200,0.015538,0.000577,100136.48,-79,+5,-296
140479,9.760,-0.688,1.836,0.028925,0.017667,0.004834,100139.09,-78,+5,-296
140489,9.734,-0.657,1.726,0.031053,0.017135,0.011220,100140.23,-78,+5,-296
140499,9.575,-0.596,1.814,0.051805,0.012346,0.023990,100138.24,-79,+5,-295
140510,9.388,-0.596,1.780,0.082136,0.005960,0.034632,100137.09,-78,+5,-295
140519,9.255,-0.687,1.763,0.110337,-0.003618,0.048467,100137.09,-78,+4,-295
140529,9.159,-0.607,1.457,0.128961,-0.023306,0.059109,100139.92,-78,+4,-295
140539,9.515,-0.427,1.531,0.185365,-0.033416,0.080394,100140.02,-79,+4,-296
140550,9.490,-0.262,1.886,0.273695,-0.048847,0.106467,100137.88,-79,+2,-296
140560,9.373,-0.481,2.151,0.312007,-0.052572,0.135201,100139.34,-78,+2,-296
140569,9.477,-0.969,2.290,0.279548,-0.047783,0.151697,100139.34,-78,+2,-296
140579,9.343,-1.326,2.297,0.173126,-0.039269,0.150632,100140.18,-78,+1,-296
140590,9.024,-1.510,2.193,0.053934,-0.027563,0.126687,100139.34,-78,+1,-295
140600,8.897,-1.315,2.201,-0.010984,-0.034480,0.099550,100136.04,-78,+0,-296
140609,9.054,-1.040,2.310,0.023071,-0.048847,0.069752,100137.04,-78,+0,-296
140619,9.335,-1.174,2.181,0.114594,-0.053636,0.041018,100137.04,-78,+0,-296
140630,9.520,-1.487,2.079,0.167273,-0.052572,-0.002083,100139.85,-78,+0,-296
140640,9.514,-1.534,1.761,0.143328,-0.044058,-0.057955,100138.59,-78,-1,-296
140649,9.413,-1.720,1.632,0.090117,-0.029691,-0.108505,100139.74,-78,-1,-296
140659,9.541,-1.765,1.547,0.047548,-0.015324,-0.161716,100137.96,-78,+0,-296
140669,9.673,-1.738,1.579,0.016154,-0.000957,-0.220780,100137.96,-78,+0,-296
140680,9.903,-1.597,1.800,-0.008323,0.005960,-0.279844,100139.56,-78,+0,-295
140690,10.098,-1.362,2.068,-0.038121,-0.001489,-0.332523,100140.09,-78,+0,-295
140699,10.348,-1.079,2.227,-0.066855,-0.017453,-0.376156,100138.31,-78,+1,-296
140709,10.322,-0.959,2.463,-0.105167,-0.040333,-0.411808,100137.83,-78,+3,-296
140720,10.060,-0.583,2.427,-0.158910,-0.069599,-0.425110,100137.83,-77,+4,-296
140730,9.721,-0.413,2.174,-0.169552,-0.086627,-0.424046,100138.66,-77,+4,-296
140739,9.687,-0.518,1.709,-0.152525,-0.087159,-0.416597,100140.82,-77,+5,-296
140749,9.787,-0.753,1.407,-0.135497,-0.074388,-0.417661,100138.66,-78,+7,-296
140760,9.732,-0.722,1.261,-0.136029,-0.054700,-0.419789,100136.68,-77,+8,-297
140770,9.679,-0.562,1.445,-0.139754,-0.036608,-0.419789,100136.68,-77,+8,-297
140780,9.643,-0.280,1.792,-0.141351,-0.026498,-0.411276,100141.62,-77,+9,-296
140789,9.575,-0.054,2.024,-0.146672,-0.024370,-0.396377,100137.01,-76,+11,-297
140800,9.489,0.019,2.093,-0.167956,-0.027031,-0.368175,100140.46,-77,+13,-296
140810,9.447,0.127,2.085,-0.206268,-0.033948,-0.330395,100134.54,-77,+13,-298
140819,9.501,0.347,1.947,-0.237662,-0.042462,-0.284633,100134.54,-77,+13,-298
140829,9.442,0.439,1.680,-0.237130,-0.040333,-0.230358,100139.85,-76,+15,-298
140839,9.486,0.387,1.507,-0.205204,-0.025966,-0.173955,100139.65,-75,+17,-298
140850,9.540,0.229,1.540,-0.163167,-0.011067,-0.126065,100137.60,-76,+17,-298
140860,9.602,0.102,1.621,-0.147736,-0.004150,-0.086689,100139.12,-76,+17,-298
140869,9.575,0.201,1.903,-0.136562,-0.003086,-0.053166,100139.12,-76,+17,-298
140879,9.526,0.421,2.004,-0.138158,-0.013728,-0.022303,100138.97,-76,+18,-297
140890,9.519,0.541,1.881,-0.145607,-0.029691,0.021862,100137.77,-76,+17,-298
140900,9.637,0.589,1.874,-0.120598,-0.045122,0.088375,100136.77,-76,+17,-298
140909,9.692,0.519,1.806,-0.081754,-0.054700,0.160742,100137.59,-76,+19,-298
140920,9.662,0.549,1.916,-0.054262,-0.058780,0.244638,100137.59,-76,+17,-298
140930,9.571,0.573,1.966,-0.037057,-0.062150,0.319843,100138.91,-76,+17,-298
140940,9.486,0.636,1.974,-0.018433,-0.064810,0.402320,100141.05,-76,+17,-298
140950,9.514,0.748,1.989,-0.006727,-0.072792,0.493311,100136.96,-75,+16,-298
140959,9.458,1.134,1.999,0.017218,-0.075985,0.596008,100137.45,-75,+15,-298
140969,9.455,1.602,1.832,0.050209,-0.069599,0.732760,100137.45,-76,+12,-299
140980,9.408,2.083,2.028,0.126833,-0.036608,0.893457,100140.98,-76,+12,-299
140990,9.490,2.504,1.732,0.238044,0.010217,1.061604,100139.05,-76,+10,-298
140999,9.718,1.213,1.692,0.352447,0.044272,1.238265,100139.73,-75,+6,-298
141009,9.726,1.337,1.819,0.355108,0.054914,1.359054,100140.16,-76,+1,-298
141020,9.765,0.718,2.219,0.286998,0.103868,1.512833,100140.16,-76,+1,-298
141030,10.255,-0.223,1.897,0.209842,0.102804,1.630430,100141.73,-76,-2,-298
141040,10.810,0.075,1.685,0.098631,0.113979,1.746429,100139.11,-76,-5,-298
141049,11.900,0.469,1.828,0.047016,0.109190,1.862429,100136.48,-76,-11,-297
141060,12.864,0.521,2.341,0.059787,0.104401,1.985879,100135.39,-76,-11,-297
141070,14.446,0.077,2.280,0.027860,0.074602,2.099218,100135.39,-76,-16,-296
141080,16.852,0.355,1.586,-0.091332,0.076731,2.240227,100138.76,-75,-21,-296
141089,20.761,-0.217,0.428,-0.285020,0.062896,2.390282,100138.13,-75,-25,-296
141100,25.655,0.467,-0.145,-0.526066,0.092694,2.501493,100139.96,-75,-25,-296
141110,29.849,2.327,-0.048,-0.800102,0.146969,2.602594,100139.65,-74,-29,-295
141120,30.495,5.159,-1.205,-1.119900,0.197520,2.631328,100139.65,-73,-33,-296
141129,25.634,6.722,-1.148,-1.365203,0.251263,2.555768,100142.43,-72,-35,-295
141139,20.334,5.955,-0.667,-1.221533,0.272015,2.365273,100138.20,-72,-35,-295
141150,14.369,0.868,0.762,-0.572892,0.279997,2.149236,100140.80,-71,-37,-294
141155,10.159,-5.356,2.666,0.343401,0.334272,2.043879,100137.73,-71,-42,-294
141165,8.670,-11.454,4.743,0.806337,0.297024,1.929475,100137.73,-71,-42,-294
141174,7.375,-14.378,7.502,0.542410,0.199116,1.717163,100137.73,-71,-49,-292
141185,5.498,-12.944,6.897,0.025732,0.141116,1.446852,100139.95,-71,-52,-291
141195,3.964,-10.266,5.169,-0.373350,0.099612,1.298925,100140.10,-70,-54,-291
141205,3.118,-9.334,4.146,-0.445185,0.075667,1.215916,100136.34,-70,-54,-291
141215,2.328,-9.919,4.391,-0.347809,0.084713,1.110026,100136.34,-69,-55,-290
141224,2.146,-9.797,3.636,-0.209461,0.083648,0.967953,100135.62,-69,-55,-290
141235,1.150,-8.762,3.709,-0.124855,0.119832,0.824815,100135.62,-69,-58,-289
141245,0.399,-6.856,3.044,-0.184984,0.131538,0.681146,100136.93,-69,-58,-289
141255,-0.125,-5.550,2.248,-0.207864,0.141116,0.592815,100138.71,-69,-59,-289
141264,-0.601,-4.939,1.501,-0.152525,0.142713,0.563549,100135.77,-69,-59,-289
141276,-1.052,-4.485,1.065,-0.024464,0.139875,0.542975,100138.88,-69,-61,-288
141285,-1.343,-4.123,0.705,0.105548,0.131006,0.505549,100138.88,-69,-61,-288
141295,-1.508,-3.927,0.573,0.248686,0.132070,0.468302,100139.34,-69,-63,-287
141305,-1.685,-3.801,0.586,0.367878,0.125153,0.429990,100135.16,-69,-64,-287
141315,-2.018,-3.729,0.537,0.474833,0.112914,0.376247,100135.47,-69,-67,-287
141325,-2.387,-3.625,0.549,0.573805,0.103868,0.329421,100137.88,-69,-67,-287
141335,-2.699,-3.572,0.607,0.655750,0.111318,0.283128,100137.30,-69,-69,-285
141345,-2.770,-3.566,0.806,0.718539,0.137391,0.218742,100136.16,-69,-70,-284
141355,-2.493,-3.454,0.925,0.743548,0.158676,0.143715,100136.16,-70,-73,-284
141365,-2.136,-3.200,0.886,0.737163,0.172511,0.061770,100138.04,-70,-73,-284
141375,-1.695,-2.957,0.811,0.723328,0.192199,-0.031349,100138.04,-70,-75,-282
141385,-1.318,-2.974,0.881,0.678631,0.210823,-0.142028,100139.46,-71,-77,-281
141394,-0.918,-3.042,1.052,0.591897,0.197520,-0.267606,100136.95,-71,-77,-281
141405,-0.391,-3.168,1.152,0.488667,0.171446,-0.414468,100135.79,-71,-77,-281
141415,0.352,-3.340,1.285,0.352979,0.121428,-0.570909,100133.59,-73,-78,-279
141425,1.333,-3.571,1.076,0.206117,0.044272,-0.722560,100133.59,-74,-77,-279
141435,2.405,-3.918,0.786,0.084264,-0.042462,-0.876872,100140.35,-74,-75,-279
141445,3.294,-4.197,0.388,-0.015241,-0.159526,-1.029587,100136.45,-74,-75,-279
141455,4.020,-4.402,0.012,-0.085479,-0.271269,-1.168468,100137.02,-74,-72,-281
141465,4.856,-4.455,-0.094,-0.134965,-0.389929,-1.306816,100137.02,-76,-69,-282
141474,5.952,-4.113,-0.213,-0.132837,-0.535195,-1.443568,100137.02,-75,-66,-283
141485,6.902,-3.730,-0.338,-0.092396,-0.656516,-1.558504,100136.05,-75,-66,-283
141495,7.706,-3.509,-0.400,0.014026,-0.730480,-1.670247,100139.25,-74,-61,-284
141505,8.502,-3.122,-0.046,0.152906,-0.763470,-1.809660,100140.23,-74,-58,-287
141510,9.120,-2.650,0.276,0.233787,-0.779966,-1.922467,100136.31,-74,-58,-287
141519,9.684,-2.448,0.610,0.314135,-0.779434,-2.026229,100136.31,-73,-55,-288
141530,10.497,-2.937,1.338,0.429603,-0.758681,-2.178944,100137.70,-73,-50,-290
141540,12.156,-3.748,1.952,0.563163,-0.787947,-2.371568,100137.12,-73,-46,-292
141550,14.273,-4.470,2.352,0.705236,-0.823067,-2.542907,100135.80,-73,-46,-292
141560,16.197,-4.864,2.784,0.791970,-0.840626,-2.649329,100137.74,-72,-42,-294
141570,17.503,-4.581,2.767,0.791970,-0.846480,-2.705733,100137.74,-71,-38,-295
141580,18.011,-3.804,3.001,0.749933,-0.774645,-2.699348,100139.67,-71,-35,-297
141590,16.379,-11.346,9.806,0.886153,-0.402700,-2.455109,100139.25,-71,-35,-297
141600,20.340,-12.851,12.673,0.780796,-0.077581,-1.993770,100134.80,-72,-33,-296
141609,17.407,-9.152,5.437,-0.029607,-0.280315,-1.694192,100135.48,-72,-29,-298
141620,17.530,5.966,3.634,-1.352432,-0.062150,-1.731440,100135.48,-73,-21,-299
141630,19.938,17.530,-2.527,-1.213552,-0.219654,-1.954394,100140.78,-73,-21,-299
141640,26.630,10.293,-6.371,-0.221167,-0.400572,-1.608523,100139.31,-73,-14,-299
141649,22.137,-1.198,-0.031,0.671713,0.158144,-0.728945,100140.20,-73,-13,-301
141660,9.487,-3.516,-0.468,0.374796,0.171446,-0.589532,100136.39,-73,-13,-299
141670,2.539,-1.926,-1.340,-0.114745,0.137391,-0.658175,100136.39,-73,-13,-299
141680,5.354,0.361,0.210,-0.043974,0.158676,-0.544835,100140.85,-73,-11,-299
141690,10.100,1.068,2.213,0.379053,0.156015,-0.499606,100138.76,-74,-10,-299
141700,10.505,1.207,4.774,0.665328,0.157079,-0.363918,100137.55,-74,-12,-298
141710,8.526,0.671,5.120,0.537089,0.134199,-0.219716,100135.04,-74,-12,-298
141720,8.818,-0.654,2.913,0.151842,0.083648,-0.126065,100135.04,-74,-11,-298
141730,9.817,-0.794,1.583,-0.132837,0.050658,-0.039863,100137.10,-76,-12,-297
141740,10.299,-0.104,1.694,-0.202011,0.054382,0.036761,100140.46,-76,-12,-297
141750,10.196,0.232,1.812,-0.153589,0.067685,0.098486,100136.95,-76,-12,-297
141760,9.770,0.379,1.753,0.001255,0.077795,0.164467,100137.68,-75,-11,-297
141770,9.547,0.239,1.828,0.220484,0.087373,0.221935,100137.68,-76,-12,-297
141779,9.599,-0.609,1.713,0.335952,0.100676,0.255990,100139.24,-75,-15,-298
141790,9.738,-1.426,1.612,0.281677,0.109190,0.277274,100138.13,-76,-15,-297
141800,9.876,-1.538,1.568,0.119915,0.116107,0.285788,100136.26,-76,-16,-297
141810,9.812,-0.959,1.862,-0.016305,0.117171,0.303880,100136.04,-76,-17,-297
141819,9.689,-0.178,2.115,-0.047167,0.100676,0.333678,100136.04,-76,-17,-296
141830,9.759,0.322,2.109,0.038503,0.073538,0.385293,100138.24,-77,-18,-295
141840,9.696,-0.011,2.281,0.193879,0.053850,0.454467,100141.91,-77,-18,-295
141850,9.547,-0.688,2.256,0.243365,0.032034,0.507146,100139.51,-76,-20,-296
141860,9.521,-0.982,2.287,0.167805,0.004364,0.553971,100139.66,-76,-22,-296
141865,9.599,-0.898,2.129,0.093310,-0.006278,0.586962,100139.66,-76,-22,-296
141875,9.696,-0.989,2.005,0.051273,0.003300,0.616228,100139.66,-77,-23,-295
141885,9.511,-1.151,1.950,0.036374,0.022456,0.647091,100137.63,-76,-25,-296
141895,9.465,-1.190,1.874,0.027860,0.027777,0.651880,100138.45,-76,-25,-296
141905,9.493,-1.086,2.073,0.057126,0.019795,0.652412,100137.98,-75,-27,-295
141916,9.453,-1.195,2.041,0.061383,0.007557,0.657733,100138.54,-76,-27,-296
141925,9.359,-1.428,2.111,0.040631,0.003300,0.674760,100137.65,-75,-30,-296
141935,9.376,-1.638,2.078,0.007640,-0.004682,0.681678,100138.59,-75,-30,-296
141945,9.350,-1.856,1.943,-0.004066,-0.008939,0.680614,100138.59,-75,-31,-294
141955,9.338,-2.112,1.581,-0.006727,-0.011599,0.662522,100139.74,-74,-32,-294
141965,9.461,-2.115,1.490,0.006576,0.011813,0.647623,100135.65,-73,-34,-295
141975,9.446,-2.064,1.586,0.002851,0.030437,0.642302,100135.65,-73,-34,-295
141985,9.376,-1.626,1.707,-0.025351,0.046401,0.648687,100140.27,-74,-36,-294
141995,9.413,-1.504,1.798,0.019879,0.062364,0.658797,100139.59,-74,-37,-294
142005,9.320,-1.789,1.969,0.081071,0.070878,0.683274,100136.07,-73,-39,-294
142015,9.379,-2.125,2.219,0.124704,0.076199,0.694448,100137.91,-73,-41,-294
142025,9.361,-2.387,2.488,0.107145,0.064492,0.700834,100137.91,-73,-41,-294
142035,9.304,-2.343,2.353,0.033181,0.053318,0.708283,100139.33,-74,-43,-294
142046,9.467,-2.234,2.359,-0.022690,0.058107,0.721586,100135.39,-73,-45,-293
142055,9.582,-2.146,2.162,-0.050892,0.058107,0.720522,100140.58,-73,-45,-294
142065,9.440,-2.472,1.710,-0.043974,0.070346,0.722650,100140.58,-73,-45,-294
142075,9.264,-2.340,1.617,-0.054085,0.082584,0.724779,100140.58,-73,-47,-293
142085,9.461,-2.065,1.625,-0.046103,0.095355,0.740210,100140.68,-72,-49,-293
142095,9.577,-2.448,1.819,0.012961,0.107061,0.764687,100139.37,-73,-51,-293
142101,9.628,-2.528,2.017,0.009237,0.108657,0.780650,100139.37,-73,-51,-293
142110,9.888,-2.570,2.169,-0.024818,0.093758,0.804063,100139.74,-72,-53,-293
142120,9.806,-2.514,2.249,-0.084947,0.084713,0.861531,100139.74,-72,-53,-293
142130,9.625,-1.961,2.316,-0.150928,0.081520,0.945604,100141.67,-71,-54,-292
142140,9.817,-0.996,2.389,-0.184984,0.067153,1.083953,100139.22,-70,-57,-293
142150,9.964,-0.492,2.475,-0.113149,0.072474,1.262742,100139.42,-70,-60,-293
142160,10.382,-1.320,2.351,0.002851,0.072474,1.455898,100138.27,-70,-60,-293
142170,10.913,-2.409,2.037,0.061915,0.053318,1.619255,100138.27,-69,-63,-292
142180,11.586,-2.738,1.988,0.061915,0.023520,1.751751,100140.70,-67,-66,-291
142190,13.057,-2.531,2.002,0.062448,-0.021709,1.856044,100140.96,-66,-70,-291
142200,14.509,-2.305,2.237,0.054998,-0.012664,1.954484,100140.85,-66,-70,-291
142211,15.472,-2.370,1.774,-0.048231,0.069281,2.060374,100138.29,-64,-76,-291
142220,16.070,-1.980,0.784,-0.205736,0.127813,2.201915,100138.29,-62,-80,-291
142230,17.103,-1.525,0.464,-0.265332,0.134731,2.377512,100141.05,-59,-84,-291
142240,18.303,-1.024,0.563,-0.282360,0.149630,2.545126,100137.31,-59,-84,-291
142251,19.440,0.118,0.842,-0.379204,0.200180,2.705823,100137.95,-57,-88,-290
142260,20.278,1.555,1.179,-0.527130,0.275208,2.871309,100138.53,-54,-93,-291
142270,20.470,2.709,1.738,-0.735185,0.382694,3.022429,100138.53,-51,-97,-290
142280,20.793,3.780,2.315,-1.092763,0.497098,3.121933,100139.33,-48,-97,-291
142290,20.585,4.502,2.866,-1.522175,0.592877,3.153860,100140.48,-48,-99,-291
142300,19.557,3.522,2.289,-1.870175,0.599263,3.202282,100137.81,-45,-100,-292
142310,17.927,0.415,0.966,-2.147937,0.544987,3.204410,100137.13,-41,-101,-294
142320,16.218,-3.291,1.382,-2.260744,0.479538,3.200153,100137.13,-39,-101,-296
142330,14.706,-5.246,3.727,-2.002138,0.413024,3.173548,100142.15,-39,-101,-296
142341,14.648,-6.209,4.410,-1.317313,0.423666,3.209731,100138.91,-35,-101,-298
142350,14.736,-5.331,4.582,-1.089570,0.402914,3.216116,100139.23,-33,-103,-298
142360,13.198,-4.240,4.363,-0.902800,0.396529,3.059676,100135.40,-29,-107,-298
142370,10.613,-2.671,5.032,-0.744231,0.467299,2.812245,100135.40,-29,-107,-298
142381,7.723,-0.721,4.677,-0.718158,0.493373,2.380172,100139.67,-27,-109,-298
142390,5.875,1.383,2.365,-0.900139,0.382162,1.762393,100138.47,-26,-109,-299
142400,5.389,0.928,1.158,-0.839479,0.349703,1.249439,100135.84,-25,-108,-299
142410,4.966,0.833,1.618,-0.656965,0.409299,0.872173,100137.95,-25,-108,-299
142420,4.739,2.762,1.166,-0.811277,0.262437,0.324632,100137.95,-26,-107,-300
142431,3.303,4.086,1.067,-0.671332,0.156547,-0.272927,100137.94,-27,-105,-301
142440,1.980,4.888,1.102,-0.368561,0.118235,-0.755019,100139.34,-28,-103,-301
142450,1.251,4.742,0.717,0.008172,0.047465,-1.179110,100135.22,-28,-103,-301
142460,0.968,3.504,0.556,0.497181,0.005960,-1.562229,100136.58,-32,-101,-301
142470,0.952,1.696,0.993,0.926594,-0.022774,-1.911293,100136.58,-33,-100,-300
142480,1.196,0.422,1.394,1.212337,-0.079177,-2.295476,100135.64,-37,-100,-298
142490,1.648,0.097,1.641,1.329401,-0.162186,-2.736595,100137.64,-37,-100,-298
142500,2.235,0.464,1.562,1.308649,-0.262755,-3.193678,100135.13,-41,-98,-298
142511,2.812,0.912,1.367,1.235217,-0.368645,-3.600742,100135.22,-46,-96,-297
142520,3.217,1.147,1.489,1.193713,-0.441012,-3.948741,100135.22,-51,-91,-297
142530,3.682,1.003,1.812,1.129328,-0.497416,-4.247787,100136.20,-51,-91,-297
142540,4.162,0.505,2.292,1.030355,-0.551159,-4.519695,100133.91,-54,-85,-297
142551,4.827,-0.044,2.472,0.911163,-0.601177,-4.772447,100134.91,-58,-77,-298
142560,5.925,-0.486,2.436,0.757383,-0.623526,-5.021475,100132.91,-62,-69,-299
142570,7.249,-0.693,2.406,0.588172,-0.629911,-5.267309,100132.91,-62,-69,-299
142580,8.362,-0.679,2.220,0.418429,-0.630443,-5.490263,100136.60,-66,-58,-300
142590,9.120,-0.509,1.946,0.266246,-0.620865,-5.689805,100136.45,-67,-46,-301
142601,10.139,-0.433,1.798,0.138539,-0.594792,-5.870722,100132.99,-70,-33,-304
142610,11.550,-0.494,1.761,0.072025,-0.545305,-6.043125,100134.45,-70,-33,-304
142620,13.042,-0.371,1.717,0.067236,-0.491562,-6.216061,100134.45,-71,-19,-305
142630,14.871,-0.070,1.624,0.170998,-0.441544,-6.377290,100134.13,-71,-4,-307
142641,17.093,-0.002,1.789,0.464722,-0.332462,-6.501804,100133.66,-70,+9,-308
142650,19.258,-0.137,2.357,0.923933,-0.203691,-6.545437,100134.13,-70,+9,-308
142660,20.688,-0.595,3.122,1.559272,-0.127599,-6.471474,100135.18,-70,+20,-309
142670,21.675,-3.752,3.446,2.128098,-0.071196,-6.270336,100135.18,-67,+29,-311
142681,22.863,-7.130,3.443,2.462795,-0.124407,-6.008538,100138.73,-65,+35,-313
142691,23.477,-9.560,3.337,2.519730,-0.264884,-5.703640,100135.32,-65,+35,-313
142700,22.186,-10.822,4.813,2.641583,-0.357471,-5.215163,100134.85,-61,+40,-315
142710,20.470,-11.526,7.625,2.909235,-0.367581,-4.607493,100136.99,-58,+42,-316
142721,18.295,-12.705,9.474,2.890611,-0.331397,-3.935971,100136.99,-55,+41,-318
142731,15.912,-17.977,10.279,2.584116,-0.143563,-3.184100,100139.10,-55,+41,-318
142740,11.849,-22.726,9.924,1.974318,0.066089,-2.498210,100137.05,-53,+40,-319
142750,8.842,-23.162,9.652,1.196906,0.268290,-1.658009,100138.79,-53,+40,-320
142760,9.958,-18.603,8.578,0.544007,0.448676,-0.500670,100137.21,-54,+39,-319
142771,12.671,-12.740,5.808,0.385970,0.599263,0.682742,100137.21,-54,+39,-319
142780,13.620,-9.997,3.518,1.018649,0.689189,1.605420,100138.85,-57,+37,-317
142790,12.692,-12.907,2.293,1.605034,0.826473,2.575456,100139.54,-60,+27,-316
142800,15.770,-2.992,-3.477,1.704006,0.314584,3.034667,100135.55,-62,+15,-316
142811,19.622,24.857,-14.322,0.762704,-0.476131,1.976301,100138.23,-60,+9,-317
142820,12.996,19.738,-6.242,1.434759,0.036291,1.485164,100138.23,-60,+9,-317
142830,12.947,-4.428,-0.257,3.805307,0.659923,2.700502,100141.63,-62,-2,-315
142840,13.837,-16.837,-1.554,3.806372,0.923318,2.890997,100136.23,-65,-22,-311
142851,13.251,-11.744,-1.643,2.225474,0.911079,2.995823,100136.92,-66,-33,-308
142861,11.127,-3.706,-0.058,0.607860,0.685465,2.497236,100138.75,-66,-33,-308
142870,9.009,0.365,5.758,0.719603,0.947262,2.171585,100138.75,-67,-40,-306
142880,8.983,0.230,6.961,1.390061,1.131905,2.044411,100140.50,-69,-49,-303
142891,9.620,-1.755,5.170,1.444869,1.021226,1.960870,100137.25,-71,-57,-299
142901,10.668,-3.691,1.938,0.988851,0.764749,1.857640,100137.41,-71,-57,-299
142910,11.052,-4.280,1.160,0.414704,0.636510,1.790595,100137.77,-71,-63,-297
142920,10.398,-3.488,1.644,0.011365,0.566272,1.781017,100137.77,-71,-68,-296
142930,10.829,-3.072,0.519,-0.345149,0.459850,1.668741,100136.36,-71,-70,-296
142941,10.722,-2.825,0.574,-0.719754,0.402382,1.567641,100135.53,-71,-70,-296
142950,9.911,-1.920,0.956,-0.879387,0.368859,1.460154,100139.25,-69,-71,-296
142960,9.414,-0.530,1.185,-0.826176,0.305006,1.281898,100137.16,-70,-72,-296
142970,9.387,0.822,1.076,-0.529791,0.275208,1.155256,100137.16,-69,-73,-296
142981,9.693,1.466,1.360,-0.041846,0.301813,1.114283,100138.98,-69,-73,-296
142991,9.818,1.039,1.932,0.434924,0.347043,1.130246,100138.67,-69,-75,-294
143000,9.483,0.102,1.628,0.702043,0.370455,1.137696,100138.56,-68,-81,-293
143010,9.497,-1.209,2.067,0.692465,0.376309,1.106301,100137.20,-69,-85,-292
143021,9.704,-3.239,2.202,0.365218,0.284786,0.993494,100137.20,-69,-85,-292
143031,9.790,-3.293,2.054,-0.118470,0.191667,0.822155,100142.16,-68,-88,-290
143040,9.752,-2.188,1.600,-0.545222,0.130474,0.706155,100136.49,-67,-89,-292
143050,9.778,-1.106,1.422,-0.745295,0.097483,0.632724,100138.23,-67,-87,-292
143060,9.738,-0.284,1.352,-0.710708,0.080456,0.590687,100138.70,-67,-87,-292
143071,9.734,0.279,1.196,-0.521809,0.075667,0.560357,100138.70,-67,-86,-292
143081,9.656,0.406,1.039,-0.275442,0.082052,0.558760,100139.98,-66,-87,-293
143090,9.633,-0.425,0.911,-0.045571,0.115043,0.551311,100137.83,-66,-87,-293
143100,9.741,-1.537,0.985,0.047548,0.142713,0.526302,100139.92,-66,-87,-293
143111,9.772,-1.895,1.427,-0.042910,0.152823,0.490118,100138.05,-66,-89,-292
143121,9.582,-1.607,1.753,-0.211057,0.146969,0.462449,100138.05,-66,-90,-292
143130,9.507,-0.913,1.769,-0.345681,0.128346,0.459256,100140.27,-66,-90,-292
143140,9.475,-0.407,1.606,-0.315883,0.128878,0.472027,100141.09,-66,-90,-292
143151,9.478,-0.297,1.319,-0.211057,0.134731,0.506614,100139.47,-65,-90,-292
143161,9.595,-0.577,1.112,-0.100910,0.150162,0.548650,100136.23,-64,-91,-292
143170,9.736,-0.861,1.012,-0.026415,0.170914,0.586962,100136.23,-64,-93,-292
143180,9.863,-1.131,1.510,-0.009387,0.193263,0.627935,100140.16,-64,-93,-292
143191,10.007,-1.214,1.972,-0.132837,0.196456,0.661458,100138.63,-64,-93,-291
143201,9.985,-0.631,2.289,-0.299387,0.191134,0.704026,100137.48,-63,-95,-291
143211,10.011,-0.357,2.485,-0.406873,0.201245,0.770540,100135.91,-63,-95,-291
143220,10.205,-0.194,2.247,-0.489882,0.199116,0.848228,100135.91,-63,-95,-291
143230,10.219,-0.254,2.460,-0.530855,0.186346,0.945604,100141.84,-62,-95,-291
143241,10.109,0.106,2.595,-0.550011,0.152290,1.056283,100138.75,-62,-97,-292
143251,10.190,0.139,2.098,-0.509038,0.113446,1.194100,100137.50,-60,-97,-292
143260,10.127,0.036,1.557,-0.464873,0.090034,1.352136,100137.02,-60,-97,-292
143270,10.242,0.213,0.962,-0.463809,0.096419,1.531457,100137.02,-58,-99,-292
143281,11.034,0.419,0.186,-0.425674,0.110076,1.755830,100141.73,-56,-101,-293
143291,11.616,0.292,-0.172,-0.325460,0.127813,1.961402,100139.59,-54,-105,-293
143300,12.068,0.341,-0.501,-0.197754,0.136327,2.201383,100138.95,-51,-108,-293
143310,12.957,0.214,-0.610,-0.008855,0.120364,2.428594,100138.95,-51,-108,-293
143321,13.968,-0.414,-0.207,0.231658,0.116107,2.632392,100138.95,-47,-114,-293
143331,14.519,-0.736,0.282,0.401934,0.109190,2.803731,100140.84,-43,-121,-292
143341,14.712,-0.909,0.676,0.448227,0.125685,2.952722,100138.63,-38,-127,-291
143350,14.928,-0.910,0.921,0.395016,0.169850,3.086282,100136.96,-38,-127,-291
143361,15.600,-0.526,1.140,0.256135,0.215079,3.216649,100137.59,-32,-132,-289
143371,17.179,0.135,1.431,0.077879,0.251263,3.350208,100137.59,-27,-139,-289
143381,19.963,1.019,3.067,-0.103571,0.224657,3.475786,100143.45,-21,-143,-288
143390,22.645,3.132,4.367,-0.473387,0.275208,3.542300,100139.30,-21,-143,-288
143401,24.563,4.930,4.838,-1.222065,0.441403,3.598349,100138.99,-14,-147,-289
143411,25.421,8.505,4.148,-1.926579,0.541263,3.610410,100137.21,-7,-147,-293
143421,24.561,11.079,2.843,-2.540101,0.545520,3.622648,100137.21,-1,-144,-296
143430,22.192,9.030,0.846,-3.026450,0.438033,3.667878,100141.19,-1,-144,-296
143440,19.160,4.300,-0.502,-3.232376,0.354492,3.654575,100138.63,+5,-139,-303
143451,15.150,-2.846,2.972,-2.446982,0.396529,3.737052,100139.25,+11,-135,-308
143461,13.489,-7.577,5.379,-1.451937,0.122492,3.941382,100138.63,+19,-136,-309
143470,14.637,-7.261,6.530,-0.702726,0.010749,4.163804,100138.63,+19,-136,-309
143480,14.998,-6.801,7.562,-0.023754,0.175703,3.978098,100139.50,+27,-139,-309
143491,12.070,-4.493,5.857,-0.059938,0.112382,3.339034,100138.81,+34,-141,-308
143501,7.937,1.836,0.493,-0.499992,-0.143030,2.323768,100140.77,+39,-141,-310
143511,5.781,4.505,-1.472,-0.515956,-0.152076,1.527200,100137.72,+39,-141,-310
143520,5.094,6.238,-0.206,-0.007259,-0.017453,1.193567,100137.72,+42,-141,-310
143531,3.869,7.598,0.198,0.424814,-0.166975,0.798742,100140.63,+44,-143,-310
143541,2.258,7.675,1.362,1.234153,-0.156865,0.309733,100140.70,+46,-146,-308
143551,1.781,6.814,2.164,1.900355,-0.156865,-0.199496,100138.70,+46,-146,-308
143560,1.293,5.055,2.903,2.453749,-0.197838,-0.668817,100136.98,+45,-152,-303
143570,0.949,3.155,3.313,2.797492,-0.274462,-1.158890,100136.98,+44,-159,-298
143581,0.823,1.383,3.232,2.868794,-0.418663,-1.669715,100138.93,+41,-167,-292
143591,0.983,0.260,3.300,2.697987,-0.570315,-2.184798,100139.45,+41,-167,-292
143601,1.357,-0.012,3.317,2.365418,-0.753360,-2.690834,100137.98,+37,-171,-287
143610,1.863,0.280,3.246,1.996667,-0.925764,-3.140999,100139.40,+33,-174,-284
143621,2.494,0.677,3.050,1.689107,-1.059856,-3.543274,100139.40,+26,-177,-280
143631,3.194,0.693,3.010,1.428905,-1.174259,-3.911494,100138.14,+26,-177,-280
143636,3.822,0.414,2.929,1.241603,-1.263121,-4.169035,100136.78,+19,-175,-279
143645,4.564,-0.037,2.814,1.044190,-1.351452,-4.411677,100136.78,+13,-173,-278
143655,5.799,-0.751,2.770,0.749401,-1.428075,-4.713915,100136.56,+13,-173,-278
143666,7.038,-1.427,2.803,0.410447,-1.473837,-4.998062,100135.73,+6,-170,-279
143676,7.946,-1.864,2.849,0.066172,-1.524919,-5.279016,100135.73,-1,-163,-281
143686,8.593,-1.988,3.028,-0.243516,-1.522791,-5.555713,100138.42,-9,-155,-284
143695,9.308,-1.783,3.128,-0.519681,-1.460002,-5.829749,100134.36,-9,-155,-284
143706,10.408,-1.287,3.189,-0.776690,-1.337617,-6.071327,100135.56,-16,-145,-287
143716,11.414,-0.518,3.211,-0.926212,-1.157232,-6.274593,100135.56,-23,-133,-291
143726,12.253,0.164,3.365,-0.802763,-0.905544,-6.487969,100135.56,-32,-121,-293
143735,13.784,0.752,3.541,-0.526598,-0.649599,-6.715180,100134.48,-32,-121,-293
143746,16.237,0.931,3.645,-0.065791,-0.411214,-6.912593,100137.20,-41,-109,-294
143756,19.626,0.430,3.762,0.694594,-0.166975,-7.029657,100134.48,-49,-98,-294
143766,22.338,-1.218,3.810,1.437419,0.063428,-7.063712,100133.79,-58,-89,-292
143776,23.532,-4.852,3.688,1.907804,0.151758,-6.959418,100133.79,-58,-89,-292
143785,23.832,-8.817,2.828,1.970061,0.020327,-6.738060,100136.94,-66,-81,-289
143796,23.983,-9.455,2.368,1.795529,-0.150480,-6.408153,100134.78,-73,-71,-286
143806,23.866,-9.656,3.411,1.858318,-0.234021,-5.830813,100134.31,-78,-65,-283
143816,21.299,-10.509,6.344,2.384574,-0.261691,-5.089053,100134.31,-78,-65,-283
143826,18.953,-13.398,9.598,2.749070,-0.192517,-4.382943,100137.44,-82,-61,-282
143836,15.266,-20.052,11.240,2.621363,0.004896,-3.676833,100137.44,-87,-59,-277
143846,10.798,-25.782,10.735,2.019547,0.295428,-3.003714,100135.81,-91,-57,-275
143856,8.318,-26.658,8.716,1.139438,0.400786,-2.038999,100139.02,-91,-57,-275
143865,9.224,-19.957,6.365,0.799952,0.524235,-0.581551,100136.50,-93,-55,-272
143872,11.028,-14.181,3.372,1.064942,0.621611,0.509274,100136.50,-94,-60,-270
143881,12.084,-12.570,3.506,2.040832,0.901501,1.571365,100136.43,-94,-60,-270
143891,12.740,-13.313,4.403,2.971492,1.003134,2.678154,100139.43,-94,-72,-264
143901,14.004,-13.172,3.450,3.217858,0.849886,3.226227,100139.05,-94,-89,-257
143910,14.734,-5.853,-2.709,2.394152,0.423666,3.163970,100134.07,-90,-101,-254
143921,17.343,13.649,-6.868,1.200098,0.223061,2.825016,100134.07,-90,-101,-254
143931,17.559,32.645,-12.548,0.051273,-0.305324,1.210595,100141.05,-86,-108,-254
143941,11.557,6.554,-2.535,1.994538,0.437501,1.921494,100142.95,-85,-115,-249
143950,17.587,-15.766,-0.263,3.655252,1.031868,3.118208,100138.07,-83,-131,-240
143961,16.541,-15.094,2.371,3.307785,1.073905,3.341162,100137.02,-83,-131,-240
143971,12.954,-6.856,1.927,1.769456,0.870639,2.747860,100137.02,-79,-144,-232
143981,10.524,-3.298,4.828,1.287364,1.019629,2.304612,100139.96,-76,-151,-228
143991,9.205,-3.372,5.102,1.546502,1.149464,2.141787,100137.96,-74,-159,-222
144001,9.916,-3.164,3.484,1.532135,1.140950,1.838485,100136.02,-74,-159,-222
144011,10.729,-4.016,1.920,0.934575,0.996749,1.708118,100135.09,-73,-165,-216
144021,10.892,-4.466,1.174,0.354576,0.886602,1.568173,100135.09,-71,-170,-213
144031,10.558,-4.366,1.889,-0.222763,0.763685,1.493145,100137.03,-68,-173,-213
144040,10.275,-2.674,1.752,-0.777754,0.600859,1.430356,100137.72,-68,-173,-213
144051,10.410,-0.797,1.776,-1.119900,0.512529,1.347879,100136.94,-66,-174,-213
144061,10.021,-0.837,1.577,-1.145974,0.445483,1.266466,100135.05,-64,-175,-215
144071,9.790,-0.888,0.687,-0.950689,0.393868,1.113219,100135.05,-61,-176,-217
144081,9.754,0.378,0.180,-0.622910,0.418345,0.978595,100140.09,-61,-176,-217
144091,9.922,1.333,0.657,-0.212653,0.476345,0.962100,100134.38,-60,-177,-216
144101,9.860,0.876,1.472,0.116191,0.488052,0.997219,100137.53,-58,-179,-216
144111,9.491,0.281,1.678,0.234851,0.454529,0.985512,100136.80,-57,-182,-214
144120,9.390,-0.474,2.200,0.195475,0.424731,0.934962,100136.80,-57,-182,-214
144131,9.728,-1.139,2.458,-0.010984,0.356089,0.838118,100139.53,-54,-184,-213
144141,9.630,-0.872,2.370,-0.286084,0.286914,0.733292,100138.11,-54,-185,-213
144151,9.432,-0.078,2.055,-0.414323,0.249134,0.681678,100137.53,-52,-186,-213
144161,9.462,0.136,1.586,-0.381864,0.234235,0.654008,100135.91,-52,-186,-213
144171,9.672,0.150,1.126,-0.298323,0.231043,0.642302,100135.91,-51,-187,-213
144181,9.746,0.172,0.824,-0.230745,0.252327,0.651348,100139.34,-49,-187,-214
144191,9.734,-0.291,0.744,-0.244048,0.272547,0.656669,100138.82,-48,-188,-214
144201,9.732,-0.769,0.920,-0.299387,0.286382,0.648155,100138.51,-48,-188,-214
144210,9.827,-0.729,1.309,-0.376011,0.289575,0.647091,100138.55,-48,-189,-214
144221,9.970,-0.800,1.623,-0.439332,0.268290,0.659861,100138.55,-46,-190,-215
144227,9.903,-1.152,1.672,-0.484561,0.249134,0.665715,100142.56,-46,-190,-215
144236,9.781,-1.202,1.725,-0.531919,0.237428,0.665182,100142.56,-44,-190,-215
144246,9.510,-0.911,1.553,-0.588855,0.220401,0.671036,100137.69,-44,-190,-216
144257,9.346,-0.319,1.682,-0.576616,0.210290,0.708283,100137.42,-42,-191,-217
144266,9.483,0.126,1.862,-0.486690,0.199116,0.755641,100138.64,-42,-191,-217
144276,9.740,-0.055,1.853,-0.351002,0.195391,0.806192,100140.75,-39,-192,-218
144286,9.696,-0.637,1.769,-0.240323,0.194327,0.845035,100136.88,-37,-193,-218
144296,9.698,-1.360,1.587,-0.215314,0.204437,0.859935,100137.77,-35,-193,-218
144306,9.842,-1.886,1.472,-0.286617,0.215079,0.858338,100137.77,-35,-193,-218
144316,9.872,-1.692,1.739,-0.410066,0.227850,0.858870,100138.86,-33,-195,-219
144326,9.738,-1.250,2.219,-0.530855,0.224125,0.880155,100138.86,-32,-195,-220
144336,9.624,-0.516,2.396,-0.608543,0.216676,0.931237,100138.78,-30,-197,-221
144346,9.859,0.104,2.084,-0.598433,0.193795,1.023824,100137.47,-30,-197,-221
144356,9.991,0.566,1.915,-0.460616,0.179428,1.154723,100136.95,-28,-197,-221
144366,10.078,0.349,1.587,-0.305772,0.173575,1.305310,100136.16,-24,-198,-222
144376,10.207,0.157,1.015,-0.173809,0.178364,1.472393,100136.16,-21,-200,-222
144387,10.328,0.024,0.803,-0.073773,0.186878,1.648521,100137.56,-21,-200,-222
144396,10.798,0.093,0.810,0.008704,0.198584,1.840613,100139.16,-16,-203,-223
144406,11.455,0.285,0.888,0.110337,0.206566,2.044943,100140.16,-10,-206,-221
144416,12.048,-0.145,0.719,0.239640,0.196988,2.251401,100140.16,-5,-209,-220
144425,12.886,-0.502,0.670,0.391291,0.162933,2.433383,100140.16,-5,-209,-220
144436,13.870,-1.031,0.778,0.548796,0.119832,2.587695,100138.96,+2,-213,-218
144446,14.536,-1.678,1.212,0.632869,0.129942,2.715401,100139.80,+9,-216,-216
144456,14.642,-1.963,1.597,0.554117,0.160804,2.817566,100139.65,+17,-221,-215
144466,14.726,-1.844,1.701,0.357768,0.201777,2.913346,100139.38,+17,-221,-215
144476,15.387,-1.524,1.518,0.138539,0.224125,3.003805,100139.38,+26,-224,-214
144486,17.002,-1.196,1.589,-0.087607,0.204437,3.091603,100139.41,+35,-227,-213
144496,19.784,0.506,2.740,-0.360580,0.130474,3.157584,100139.52,+44,-230,-215
144506,21.757,2.165,3.284,-0.727203,0.137391,3.237933,100138.63,+44,-230,-215
144517,23.434,3.266,2.555,-1.276873,0.209226,3.293805,100138.63,+55,-229,-216
144526,24.585,7.117,1.728,-1.904762,0.252327,3.307107,100142.39,+64,-228,-221
144536,23.417,12.021,1.361,-2.423037,0.283189,3.316153,100138.41,+74,-224,-228
144546,20.879,12.590,0.653,-2.786468,0.233171,3.360850,100138.41,+84,-224,-228
144556,18.741,9.948,-0.984,-2.859899,0.141648,3.279438,100138.47,+84,-220,-236
144566,14.270,6.134,-0.261,-2.418780,0.121960,3.113951,100138.52,+93,-216,-243
144576,9.655,-2.042,3.100,-1.252396,0.077263,3.264539,100138.52,+103,-213,-246
144586,8.822,-9.630,5.201,0.196539,0.062896,3.601896,100141.44,+112,-215,-244
144596,12.529,-9.528,9.950,0.708961,0.261905,3.738116,100139.08,+112,-215,-244
144607,14.968,-9.474,8.522,0.824961,0.125153,3.421511,100134.98,+123,-216,-242
144616,11.867,-5.455,5.821,0.429071,0.024584,2.567475,100135.09,+130,-216,-240
144626,8.514,0.521,1.934,-0.536176,-0.197838,1.698007,100137.84,+134,-215,-241
144636,6.491,3.385,0.416,-0.786268,-0.219654,1.087145,100138.42,+134,-215,-241
144647,5.569,5.189,1.702,-0.506910,-0.153141,0.738614,100135.48,+137,-213,-242
144656,5.353,6.061,1.575,-0.423901,-0.361728,0.416155,100137.73,+138,-213,-244
144666,4.320,5.314,1.067,-0.166892,-0.541581,0.006431,100137.73,+137,-214,-242
144676,2.828,3.869,1.545,0.239640,-0.543177,-0.425643,100137.73,+137,-214,-242
144687,1.685,2.070,2.304,0.604667,-0.559140,-0.828450,100138.75,+137,-215,-241
144696,1.166,0.706,2.646,0.961713,-0.642149,-1.239238,100138.64,+133,-218,-236
144706,1.391,0.140,2.511,1.230961,-0.762406,-1.719201,100137.59,+128,-222,-232
144716,2.021,0.391,2.221,1.378355,-0.877342,-2.240669,100135.61,+128,-222,-232
144727,2.499,1.084,1.962,1.437419,-0.966204,-2.703072,100135.61,+121,-226,-226
144737,2.939,1.560,1.960,1.503933,-1.024736,-3.086191,100136.02,+112,-230,-221
144746,3.324,1.556,2.171,1.598116,-1.082736,-3.416100,100135.27,+102,-234,-215
144756,3.399,0.980,2.886,1.714116,-1.109874,-3.707696,100134.73,+102,-234,-215
144766,3.761,0.547,3.547,1.788612,-1.134883,-4.006209,100134.73,+91,-236,-210
144776,4.614,0.223,3.911,1.736465,-1.171599,-4.347291,100134.73,+78,-240,-203
144786,5.642,-0.171,4.088,1.564593,-1.213103,-4.694227,100134.52,+62,-240,-199
144796,6.417,-0.532,4.043,1.316098,-1.254608,-5.018814,100138.09,+62,-240,-199
144806,7.225,-0.589,3.941,1.067071,-1.258865,-5.317327,100133.16,+46,-240,-195
144817,8.526,-0.406,3.899,0.859903,-1.213103,-5.608214,100135.23,+29,-236,-192
144826,9.935,-0.267,3.636,0.774942,-1.146589,-5.815382,100135.23,+11,-230,-191
144836,11.403,-0.268,3.183,0.783456,-1.060920,-6.011199,100134.44,+11,-230,-191
144846,12.790,-0.389,3.003,0.870190,-0.952901,-6.191584,100135.97,-6,-224,-188
144857,14.264,-0.504,2.692,0.994172,-0.868828,-6.360795,100134.13,-25,-216,-186
144867,16.061,-0.565,2.816,1.181474,-0.751232,-6.506061,100131.98,-42,-207,-183
144876,18.476,-0.931,3.419,1.461896,-0.628314,-6.600776,100136.27,-42,-207,-183
144886,21.539,-1.568,4.058,1.894501,-0.497948,-6.663565,100135.60,-60,-195,-180
144897,24.098,-3.324,4.910,2.158960,-0.317562,-6.683253,100135.60,-76,-183,-174
144906,24.209,-7.459,5.208,2.088189,-0.246792,-6.567254,100132.76,-92,-169,-170
144916,22.931,-11.059,4.901,1.936538,-0.351617,-6.304924,100137.12,-92,-169,-170
144926,22.609,-12.748,6.124,1.887584,-0.413342,-5.869125,100137.12,-105,-155,-167
144936,20.773,-13.784,8.789,2.164281,-0.385495,-5.141731,100138.54,-116,-141,-165
144946,17.958,-14.017,10.587,2.238244,-0.331929,-4.438815,100138.54,-124,-131,-161
144956,16.179,-18.417,11.765,1.848208,-0.138774,-3.557641,100137.10,-124,-131,-161
144966,12.605,-24.476,11.281,1.457639,0.094291,-2.734467,100134.01,-129,-122,-158
144976,9.483,-27.141,10.790,0.719603,0.232107,-2.070926,100134.01,-133,-116,-156
144987,8.075,-23.220,9.495,-0.006195,0.346511,-0.963073,100137.27,-135,-113,-155
144997,9.982,-15.790,7.156,-0.176470,0.495501,0.383696,100136.85,-135,-113,-155
145006,11.555,-12.655,5.548,0.678098,0.756235,1.678852,100137.07,-133,-115,-152
145016,13.876,-11.285,4.114,1.427309,0.888730,2.684539,100137.07,-130,-124,-147
145027,14.497,-8.195,-1.897,1.572043,0.496565,3.041052,100137.07,-125,-135,-143
145036,15.715,0.914,-7.330,1.192649,0.251263,3.119272,100138.62,-119,-135,-143
145046,21.642,32.053,-19.713,-0.170084,-0.428773,1.747494,100139.93,-119,-143,-140
145056,11.590,20.850,-4.801,0.693530,0.126217,1.161109,100141.49,-117,-145,-141
145067,12.842,-6.812,-0.974,3.348225,0.717391,2.561090,100136.84,-112,-155,-132
145077,15.026,-16.824,0.970,3.371638,1.029739,2.917603,100136.84,-107,-164,-122
145086,13.523,-9.990,0.891,2.313272,0.895116,2.906429,100137.16,-107,-164,-122
145096,12.182,-4.622,5.023,1.359199,0.885006,2.323768,100136.84,-101,-172,-116
145106,11.523,-2.922,7.397,1.472006,1.230877,2.023659,100136.53,-97,-177,-111
145117,11.382,-2.683,5.084,1.235750,1.169684,1.904998,100136.53,-93,-182,-106
145127,9.954,-2.625,2.342,0.564759,0.903629,1.744301,100140.11,-93,-182,-106
145136,8.543,-2.631,1.963,0.031585,0.780712,1.621384,100140.11,-89,-187,-103
145146,9.426,-3.304,2.534,-0.479772,0.673226,1.575622,100138.91,-85,-190,-103
145157,10.697,-2.996,1.632,-1.070946,0.497630,1.562320,100137.06,-80,-194,-105
145166,11.077,-1.675,1.010,-1.454065,0.397061,1.480375,100134.59,-80,-194,-105
145172,10.686,-1.599,0.949,-1.553038,0.355556,1.403219,100134.59,-76,-197,-108
145181,10.108,-1.289,0.361,-1.363074,0.320969,1.275512,100139.30,-76,-197,-108
145191,9.607,0.412,-0.152,-0.822451,0.384290,1.078632,100136.67,-73,-200,-110
145202,9.964,0.737,0.158,-0.310029,0.438566,1.033402,100137.78,-70,-202,-110
145211,10.188,0.033,0.713,0.086392,0.447611,1.049898,100138.30,-67,-205,-109
145221,9.982,-0.056,1.373,0.292851,0.440162,0.988173,100138.30,-67,-205,-109
145231,9.422,-0.509,2.036,0.274759,0.415685,0.922724,100138.95,-65,-207,-107
145242,9.268,-1.754,2.871,0.062980,0.371520,0.856742,100140.05,-62,-208,-106
145252,9.659,-1.666,2.541,-0.349938,0.265630,0.756173,100136.91,-60,-209,-106
145261,9.645,-0.514,2.034,-0.572359,0.208162,0.669439,100136.06,-60,-209,-106
145271,9.572,0.306,1.623,-0.492543,0.193263,0.613568,100136.06,-58,-211,-106
145282,9.582,0.706,1.161,-0.329185,0.185281,0.609843,100137.46,-57,-213,-108
145292,9.595,1.056,1.328,-0.139222,0.198584,0.632724,100134.48,-54,-214,-108
145301,9.332,1.247,1.370,0.123108,0.223061,0.654540,100135.57,-53,-214,-108
145311,9.114,0.956,1.890,0.348723,0.250731,0.677421,100138.45,-53,-215,-107
145321,9.284,-0.478,2.479,0.352447,0.246474,0.706687,100138.45,-51,-216,-105
145332,10.043,-2.739,1.849,-0.016305,0.166125,0.737549,100139.99,-48,-218,-105
145341,10.850,-2.355,0.893,-0.561185,0.124621,0.712008,100138.68,-46,-219,-106
145351,10.485,-0.748,0.699,-0.908121,0.151758,0.689659,100136.79,-46,-219,-106
145361,9.844,0.218,0.921,-0.926212,0.175171,0.725843,100137.37,-44,-220,-109
145372,9.435,0.557,1.105,-0.697405,0.191667,0.784375,100137.37,-42,-221,-111
145382,9.240,0.391,1.156,-0.413259,0.204437,0.848228,100138.77,-39,-223,-111
145391,9.247,-0.218,1.449,-0.209461,0.221997,0.905696,100139.71,-39,-223,-111
145401,9.337,-0.858,1.795,-0.157314,0.221465,0.948265,100136.68,-37,-224,-111
145412,9.501,-0.960,1.981,-0.212653,0.219336,0.968485,100136.93,-33,-226,-111
145421,9.521,-0.799,2.122,-0.229681,0.230511,0.979659,100136.93,-30,-228,-111
145431,9.252,-0.382,2.195,-0.200947,0.245942,0.979659,100140.94,-30,-228,-111
145441,8.908,0.069,2.317,-0.068984,0.263501,1.008393,100139.22,-27,-228,-111
145452,8.902,-0.844,2.215,0.127897,0.249667,1.058944,100137.75,-24,-231,-110
145462,9.441,-1.763,1.678,0.233255,0.237428,1.105769,100136.39,-20,-232,-109
145471,10.305,-3.055,1.180,0.184833,0.209226,1.140889,100136.39,-20,-232,-109
145481,11.016,-3.651,0.467,-0.113681,0.123024,1.165898,100141.59,-16,-234,-109
145491,10.959,-1.524,0.858,-0.355791,0.141648,1.198889,100140.39,-13,-237,-109
145502,10.760,-0.611,0.999,-0.366433,0.136859,1.288283,100137.67,-9,-238,-111
145512,10.552,0.258,1.295,-0.221167,0.140584,1.432485,100137.20,-9,-238,-111
145521,10.741,0.116,1.348,-0.051424,0.148034,1.608081,100137.20,-4,-240,-111
145527,10.882,0.038,0.793,0.036906,0.137391,1.761861,100140.28,+1,-242,-111
145537,11.233,-0.097,0.171,0.126301,0.135795,1.925750,100140.28,+1,-242,-111
145547,12.225,-0.423,-0.308,0.278484,0.131006,2.136998,100140.70,+8,-244,-110
145557,13.465,-1.058,-0.076,0.437585,0.127813,2.330686,100139.61,+17,-247,-108
145566,14.313,-1.311,0.766,0.537621,0.121428,2.495640,100137.83,+26,-249,-106
145576,14.640,-1.297,1.547,0.552521,0.122492,2.637713,100141.96,+26,-249,-106
145587,14.835,-1.332,1.964,0.476961,0.148034,2.764887,100137.51,+35,-252,-104
145597,15.475,-1.238,2.057,0.311475,0.163997,2.879291,100138.51,+46,-254,-104
145606,16.763,-0.699,1.812,0.095438,0.149098,3.003273,100138.51,+56,-256,-103
145616,19.204,-0.327,2.439,-0.151993,0.107061,3.126190,100140.49,+56,-256,-103
145627,22.002,1.614,2.399,-0.542561,0.094291,3.194832,100140.49,+67,-257,-105
145637,23.605,3.958,1.216,-1.053387,0.166657,3.272520,100139.83,+78,-258,-108
145646,24.468,7.470,0.073,-1.505148,0.219868,3.366704,100138.09,+91,-258,-113
145656,24.479,10.721,-0.569,-1.828671,0.268290,3.464612,100139.05,+91,-258,-113
145667,22.794,12.031,-0.150,-2.028744,0.328419,3.489621,100136.94,+103,-257,-120
145677,20.671,9.688,0.027,-2.122395,0.280529,3.515162,100136.94,+116,-256,-127
145687,16.567,6.294,1.780,-1.707882,0.240089,3.452905,100138.40,+128,-253,-132
145696,12.091,0.512,5.478,-0.499992,0.100676,3.577951,100136.82,+128,-253,-132
145707,11.418,-6.384,4.295,0.734502,-0.122278,3.906795,100137.55,+142,-252,-130
145717,12.943,-10.611,7.296,1.422520,0.152290,4.172318,100137.55,+157,-249,-127
145726,13.546,-10.008,8.916,1.293750,0.264566,3.752483,100137.55,+169,-247,-124
145736,10.797,-3.521,7.594,0.366814,0.162933,2.611108,100137.47,+169,-247,-124
145746,6.952,4.629,2.883,-0.706451,-0.029691,1.378742,100137.63,+176,-244,-125
145757,5.428,7.488,1.820,-0.862359,0.061300,0.741274,100138.73,+178,-244,-129
145767,5.424,7.758,2.359,-0.743167,0.010749,0.506082,100135.80,+180,-242,-130
145776,4.229,5.552,1.197,-0.565442,-0.230296,0.166063,100135.80,+180,-242,-130
145786,3.223,3.070,1.532,-0.341956,-0.279783,-0.285166,100136.57,+180,-243,-132
145797,2.730,1.484,2.364,-0.189773,-0.262223,-0.727881,100135.73,+178,-243,-132
145807,2.184,1.204,2.729,-0.096653,-0.310645,-1.254137,100135.52,+172,-245,-132
145817,1.832,1.524,2.084,-0.043974,-0.465489,-1.883091,100135.52,+172,-245,-132
145826,1.854,1.925,1.267,0.056062,-0.604902,-2.469476,100137.16,+166,-248,-131
145837,2.184,2.216,0.914,0.185897,-0.671948,-2.922302,100136.31,+155,-251,-130
145847,2.730,2.198,0.941,0.357236,-0.697489,-3.258063,100136.31,+144,-254,-128
145857,3.369,1.536,1.443,0.622759,-0.684186,-3.540081,100135.89,+144,-254,-128
145866,3.911,0.855,2.244,0.863805,-0.663966,-3.811989,100135.73,+131,-256,-125
145876,4.360,0.393,3.007,0.987786,-0.673012,-4.087090,100135.73,+117,-259,-121
145882,4.789,0.223,3.415,1.060686,-0.700149,-4.327603,100137.81,+117,-259,-121
145892,5.373,0.001,3.735,1.096869,-0.718241,-4.568117,100136.23,+100,-261,-117
145902,5.756,-0.267,4.076,1.119750,-0.726755,-4.872484,100133.20,+83,-262,-113
145911,6.229,-0.280,4.205,1.133052,-0.698553,-5.141731,100133.63,+64,-260,-110
145922,7.090,-0.119,4.397,1.187328,-0.618204,-5.375328,100133.63,+64,-260,-110
145932,8.217,-0.163,4.388,1.302263,-0.519232,-5.589768,100137.30,+42,-258,-106
145942,9.533,-0.496,4.215,1.389529,-0.436223,-5.793566,100135.62,+22,-254,-102
145951,10.907,-1.105,3.990,1.363456,-0.370773,-5.985658,100134.68,+1,-248,-98
145961,12.169,-1.669,3.888,1.230428,-0.316498,-6.169767,100135.88,+1,-248,-98
145972,13.465,-1.943,3.883,1.030355,-0.280847,-6.359199,100135.88,-21,-239,-96
145982,15.504,-2.081,4.083,0.871254,-0.240407,-6.537987,100135.91,-41,-228,-93
145991,18.352,-3.223,4.379,0.851034,-0.123342,-6.666226,100137.23,-62,-215,-91
146001,20.281,-6.630,4.519,0.676502,-0.031820,-6.739657,100135.65,-62,-215,-91
146012,20.980,-8.794,3.335,0.194943,-0.191452,-6.742318,100137.27,-82,-201,-91
146022,22.032,-8.994,2.660,-0.282892,-0.304260,-6.585345,100137.27,-100,-184,-93
146032,21.995,-8.923,3.609,-0.360580,-0.383012,-6.167639,100137.98,-114,-167,-96
146041,21.322,-9.128,6.318,0.238576,-0.408553,-5.532300,100137.24,-114,-167,-96
146052,19.833,-9.464,9.761,1.172961,-0.305324,-4.815016,100137.65,-126,-151,-96
146062,17.082,-11.893,11.340,1.870556,-0.061618,-4.095071,100135.98,-133,-139,-93
146072,13.534,-17.813,10.444,2.207382,0.219868,-3.416632,100135.98,-139,-125,-89
146081,10.626,-23.218,8.112,2.053602,0.477410,-2.831843,100137.72,-139,-125,-89
146092,9.865,-25.307,6.102,1.319823,0.678547,-2.003880,100140.45,-144,-117,-84
146102,10.580,-20.989,3.435,0.543475,0.783905,-0.757679,100140.03,-145,-115,-81
146112,11.797,-14.985,1.406,0.521126,0.827006,0.635916,100138.14,-144,-117,-78
146121,12.961,-12.456,1.950,1.203823,0.895648,1.895420,100138.14,-144,-117,-78
146131,15.273,-8.996,0.925,1.865767,0.746125,2.689328,100137.60,-140,-123,-72
146142,13.981,-5.672,-4.970,2.211639,0.299153,3.114484,100140.07,-134,-131,-67
146152,19.626,21.290,-12.274,2.005180,0.021391,2.710612,100139.23,-129,-139,-64
146162,21.147,34.511,-15.004,1.721034,-0.185067,1.044045,100142.21,-129,-139,-64
146171,15.850,-0.344,0.835,4.668390,0.650345,2.689860,100142.21,-127,-140,-58
146182,15.832,-24.559,2.684,6.003985,1.326125,3.327860,100138.66,-119,-146,-44
146192,15.800,-19.445,1.143,3.494555,1.190969,3.277309,100138.66,-112,-152,-34
146202,13.541,-7.308,-0.371,0.604667,0.777519,2.784575,100138.92,-112,-152,-34
146211,9.537,0.667,1.974,0.266778,0.956840,2.537677,100138.08,-106,-159,-33
146222,6.740,1.250,3.620,0.845713,0.964290,2.342392,100138.08,-99,-164,-28
146232,5.988,-2.178,6.102,1.200630,0.952051,1.953420,100143.67,-94,-167,-23
146242,9.790,-3.498,4.769,0.979805,0.928107,1.743769,100135.44,-94,-167,-23
146251,12.882,-3.553,2.474,0.352979,0.767941,1.607017,100136.13,-89,-171,-20
146262,10.865,-3.255,1.773,-0.040250,0.649281,1.486760,100137.55,-84,-175,-18
146272,10.389,-2.664,1.624,-0.236598,0.571593,1.435145,100137.55,-80,-179,-17
146282,11.060,-2.467,1.654,-0.484561,0.501887,1.363310,100137.52,-80,-179,-17
146292,10.052,-1.717,1.519,-0.801167,0.460914,1.265402,100137.67,-76,-183,-17
146301,9.274,-0.894,1.722,-0.953882,0.438033,1.166962,100137.30,-73,-187,-19
146312,9.666,0.851,1.028,-0.836818,0.415685,1.061604,100138.77,-69,-189,-20
146322,9.906,1.791,1.334,-0.368029,0.475281,1.002540,100138.77,-66,-189,-20
146332,9.871,0.491,1.963,-0.055681,0.481666,1.029678,100138.88,-66,-193,-20
146341,9.881,-0.869,2.266,-0.113149,0.409832,0.971678,100137.46,-63,-195,-20
146352,9.632,-1.790,2.354,-0.374415,0.339061,0.886540,100137.84,-60,-197,-19
146362,9.944,-0.916,2.381,-0.688359,0.282125,0.828540,100139.09,-57,-200,-20
146372,9.747,-0.030,2.517,-0.877258,0.218272,0.820558,100139.09,-57,-200,-20
146381,9.469,0.667,2.219,-0.841607,0.183153,0.810448,100139.07,-55,-202,-22
146392,9.531,0.519,1.629,-0.676121,0.174639,0.801403,100140.07,-53,-205,-24
146402,9.863,0.029,1.162,-0.502653,0.183153,0.788100,100139.38,-50,-207,-24
146412,9.921,-0.528,1.105,-0.368029,0.203373,0.770008,100136.98,-50,-207,-24
146421,9.739,-1.281,1.538,-0.360580,0.216144,0.732228,100136.98,-48,-209,-25
146432,9.588,-1.499,1.910,-0.473387,0.211887,0.673164,100139.02,-46,-211,-26
146442,9.576,-1.318,1.835,-0.609075,0.192199,0.625274,100140.33,-44,-212,-27
146452,9.651,-1.089,1.756,-0.650047,0.175703,0.586962,100138.50,-44,-212,-27
146462,9.696,-0.888,1.417,-0.609607,0.169850,0.573660,100137.61,-42,-214,-28
146471,9.633,-0.670,1.507,-0.506378,0.175703,0.583770,100137.61,-41,-215,-30
146482,9.402,-0.632,1.939,-0.400488,0.179428,0.606118,100141.30,-39,-216,-30
146492,9.434,-1.019,2.095,-0.358451,0.187410,0.618357,100138.94,-39,-216,-30
146502,9.628,-1.185,2.306,-0.386121,0.190602,0.621017,100139.36,-35,-218,-30
146511,9.490,-1.499,2.378,-0.464873,0.186346,0.609311,100138.31,-34,-219,-32
146522,9.386,-1.528,1.795,-0.577148,0.193263,0.604522,100138.31,-32,-221,-33
146532,9.466,-0.975,1.350,-0.656965,0.197520,0.624742,100140.70,-32,-221,-33
146542,9.509,-0.386,1.081,-0.663350,0.216144,0.673696,100138.34,-30,-222,-34
146552,9.581,0.367,1.045,-0.603754,0.233171,0.758302,100139.23,-28,-225,-37
146562,9.605,1.027,1.480,-0.454231,0.247538,0.876430,100139.12,-23,-227,-37
146572,9.572,0.924,2.147,-0.263736,0.267226,1.030742,100139.12,-23,-227,-37
146582,9.792,0.746,2.551,-0.149332,0.273611,1.173347,100141.58,-21,-229,-37
146592,10.203,0.225,2.576,-0.067387,0.278400,1.344687,100136.59,-16,-230,-37
146601,10.436,-0.140,2.126,-0.072708,0.270419,1.518154,100137.86,-10,-232,-37
146612,10.534,-0.108,1.622,-0.101974,0.251795,1.676723,100139.17,-10,-232,-37
146622,10.677,0.038,1.451,-0.014176,0.249134,1.842741,100139.17,-5,-235,-36
146632,11.180,-0.353,1.570,0.097035,0.263501,2.016209,100138.85,+1,-237,-36
146641,11.801,-1.310,0.949,0.123640,0.285850,2.176906,100138.27,+8,-240,-35
146652,12.600,-1.933,-0.071,0.061915,0.297556,2.330686,100139.90,+8,-240,-35
146662,13.406,-1.482,-0.346,0.040099,0.269887,2.483933,100141.32,+17,-242,-35
146672,14.311,-1.060,0.068,0.156631,0.255520,2.652080,100141.32,+26,-244,-35
146682,15.032,-1.160,0.455,0.295512,0.277336,2.803731,100141.44,+36,-247,-33
146692,15.465,-1.340,0.887,0.277420,0.313520,2.924520,100139.23,+36,-247,-33
146702,16.180,-1.164,0.959,0.087457,0.349171,3.024557,100139.66,+47,-249,-32
146708,17.605,-0.728,1.361,-0.135497,0.348107,3.093199,100139.03,+57,-250,-33
146717,19.563,0.357,2.518,-0.343020,0.295960,3.167162,100139.03,+57,-250,-33
146726,21.615,0.923,2.668,-0.639405,0.300217,3.266667,100139.03,+69,-252,-34
146737,23.608,1.984,0.791,-1.151295,0.364602,3.304979,100140.33,+80,-253,-38
146747,25.360,5.053,-0.976,-1.816964,0.352896,3.317217,100138.34,+94,-256,-45
146757,25.381,9.325,-1.946,-2.320872,0.318309,3.345419,100137.80,+94,-256,-45
146767,23.917,11.564,-2.646,-2.543294,0.284254,3.302318,100137.80,+105,-257,-54
146778,20.300,10.557,-2.525,-2.570964,0.202309,3.223566,100140.06,+117,-257,-62
146787,15.360,6.832,-0.740,-2.130909,0.067153,3.208667,100140.06,+129,-257,-69
146797,11.554,-0.129,4.136,-0.811277,-0.065342,3.403419,100139.48,+129,-257,-69
146807,11.586,-5.230,5.712,0.918080,-0.206884,3.642869,100136.34,+141,-254,-68
146817,13.643,-7.515,8.608,1.375694,-0.081838,3.770043,100137.75,+153,-252,-64
146827,13.546,-7.985,8.300,1.366117,-0.178150,3.550282,100137.75,+166,-247,-60
146837,10.342,-1.480,6.695,0.651493,-0.319159,2.576521,100138.45,+166,-247,-60
146847,6.929,3.832,3.197,-0.283424,-0.491030,1.570301,100139.97,+172,-244,-60
146857,5.757,6.352,3.279,-0.470726,-0.407489,0.970613,100139.86,+175,-244,-62
146867,5.982,7.958,3.223,-0.671864,-0.506461,0.516724,100137.53,+176,-244,-63
146877,4.721,7.555,2.111,-0.697937,-0.749636,0.056449,100139.83,+176,-244,-63
146887,3.225,6.424,2.045,-0.593644,-0.875214,-0.416065,100137.89,+174,-244,-65
146897,2.143,4.766,1.890,-0.444121,-0.969397,-0.868358,100139.11,+172,-245,-66
146907,1.494,2.783,2.632,-0.277571,-1.014626,-1.328633,100139.11,+166,-247,-67
146917,1.694,1.444,2.809,-0.124855,-1.108278,-1.798486,100135.48,+166,-247,-67
146927,2.264,0.959,2.599,-0.071644,-1.270571,-2.324210,100135.48,+158,-248,-65
146937,2.909,1.211,2.377,-0.026415,-1.390828,-2.853127,100138.49,+148,-250,-65
146947,3.385,1.859,2.291,0.089585,-1.455213,-3.298503,100136.55,+135,-252,-64
146957,3.733,2.426,2.488,0.332227,-1.475433,-3.640650,100135.98,+135,-252,-64
146967,4.171,2.462,2.933,0.691401,-1.466387,-3.910962,100135.82,+121,-253,-61
146977,4.965,1.982,3.549,1.103254,-1.433397,-4.154668,100135.82,+105,-253,-58
146988,6.036,1.283,4.575,1.410814,-1.395085,-4.391457,100134.77,+89,-252,-53
146997,6.593,0.555,5.305,1.535327,-1.413709,-4.651659,100133.48,+89,-252,-53
147007,7.240,0.111,5.559,1.552887,-1.450424,-4.938998,100133.53,+71,-250,-47
147017,8.524,0.112,5.707,1.549694,-1.436589,-5.208777,100133.53,+51,-247,-45
147027,10.199,0.288,5.813,1.625786,-1.367947,-5.432263,100133.53,+32,-241,-41
147037,11.667,0.382,6.040,1.821070,-1.271103,-5.617437,100135.23,+13,-241,-41
147047,12.978,0.354,6.100,2.137676,-1.171599,-5.793566,100137.68,+13,-234,-35
147057,14.607,-0.041,6.141,2.511749,-1.072626,-5.967034,100134.49,-6,-224,-31
147062,16.142,-0.632,6.154,2.738960,-1.010901,-6.085694,100134.76,-6,-224,-31
147072,17.531,-1.505,6.153,2.801749,-0.976846,-6.171364,100134.76,-26,-213,-25
147082,18.800,-2.722,5.971,2.675106,-0.926828,-6.251712,100137.59,-43,-199,-20
147092,19.688,-3.554,6.090,2.419162,-0.834241,-6.304924,100137.43,-60,-184,-16
147102,20.575,-3.919,7.037,2.204189,-0.696957,-6.323547,100134.45,-60,-184,-16
147112,21.042,-4.375,8.728,2.122777,-0.503801,-6.284171,100136.12,-76,-168,-13
147122,21.626,-6.317,9.462,2.085529,-0.255306,-6.171364,100136.12,-89,-150,-10
147132,21.488,-12.327,9.859,1.692300,-0.174957,-5.907437,100135.98,-101,-134,-8
147142,18.936,-15.165,8.895,1.122410,-0.344168,-5.476961,100138.66,-101,-134,-8
147152,18.226,-14.648,7.980,0.533897,-0.157397,-4.825658,100136.61,-110,-119,-8
147162,18.391,-16.618,9.013,0.409915,0.040015,-4.024833,100136.67,-116,-108,-9
147172,15.070,-20.186,10.416,0.808465,0.219868,-3.198999,100136.67,-121,-98,-7
147182,10.646,-22.400,11.062,0.889878,0.392804,-2.476926,100139.15,-121,-98,-7
147192,8.282,-20.380,7.902,0.761640,0.472621,-1.464853,100136.99,-123,-91,-5
147203,8.865,-17.283,5.521,1.022906,0.674822,-0.084560,100137.77,-123,-89,-2
147212,10.732,-15.052,3.560,1.913657,0.896180,1.317549,100136.57,-119,-91,+1
147222,11.926,-16.611,2.952,2.458538,0.999409,2.400392,100136.57,-119,-91,+1
147232,13.143,-16.783,-0.017,2.288795,0.768474,2.990502,100137.49,-114,-94,+8
147243,16.505,-7.226,-7.934,1.502337,0.403978,3.309768,100140.16,-108,-101,+11
147252,23.132,24.044,-24.078,0.171530,-0.538388,2.270557,100143.57,-105,-107,+10
147262,15.357,24.798,-7.844,0.907970,0.083648,1.429824,100141.95,-105,-107,+10
147272,13.303,-1.523,0.475,3.818078,0.802529,2.740942,100141.95,-102,-109,+15
147282,14.985,-16.551,1.817,4.231528,1.218106,3.032007,100141.17,-95,-109,+24
147292,13.505,-12.820,1.284,3.167840,1.217042,3.208667,100140.75,-87,-111,+32
147298,12.098,-8.243,2.529,2.216428,1.152657,2.844172,100142.28,-87,-111,+32
147307,11.185,-4.838,6.852,1.826923,1.336767,2.387622,100142.28,-81,-113,+37
147317,11.224,-2.743,7.417,1.696025,1.571959,2.175842,100136.98,-74,-115,+43
147328,10.279,-3.265,5.413,1.144759,1.286749,2.033237,100136.98,-74,-115,+43
147338,8.744,-4.765,3.255,0.321585,0.962694,1.824650,100140.51,-68,-118,+46
147347,9.599,-4.055,3.243,-0.453699,0.820088,1.708650,100140.01,-64,-122,+48
147357,9.665,-3.818,2.655,-1.014010,0.607244,1.626705,100137.88,-59,-129,+47
147367,10.288,-2.302,0.433,-1.362010,0.424731,1.440466,100137.88,-59,-129,+47
147377,10.783,-1.373,-0.551,-1.252396,0.446547,1.270191,100137.88,-57,-134,+45
147387,10.584,-0.341,-0.513,-0.854910,0.530088,1.144613,100140.68,-53,-139,+45
147397,9.715,-0.550,-0.113,-0.435075,0.581703,1.082357,100139.52,-49,-142,+45
147407,10.209,-1.006,0.216,-0.165828,0.580639,1.067457,100137.74,-49,-142,+45
147418,10.658,-0.346,0.545,-0.060647,0.529024,0.950216,100138.39,-46,-145,+47
147427,9.687,0.314,2.091,0.125236,0.541795,0.888136,100138.39,-43,-147,+48
147437,9.171,-0.469,3.378,0.096503,0.447611,0.916338,100143.33,-41,-148,+49
147447,9.770,-1.216,3.279,-0.179662,0.331079,0.842375,100140.59,-41,-148,+49
147458,9.405,-0.471,2.403,-0.399424,0.228382,0.740742,100138.08,-38,-149,+49
147468,9.171,0.790,1.306,-0.331846,0.193795,0.705091,100138.94,-35,-153,+49
147477,9.495,0.881,0.741,-0.074305,0.217208,0.735421,100140.45,-33,-154,+48
147487,9.915,-0.018,0.265,0.133750,0.231043,0.802467,100141.19,-33,-154,+48
147497,10.309,-1.156,-0.033,0.224209,0.242749,0.823751,100141.19,-31,-155,+50
147508,10.230,-2.100,0.171,0.125769,0.233703,0.830669,100138.05,-29,-155,+50
147517,10.164,-2.200,0.716,-0.060470,0.215079,0.823751,100138.94,-26,-157,+50
147527,9.851,-2.277,0.895,-0.244048,0.194327,0.793953,100138.94,-26,-157,+50
147537,9.384,-2.162,0.823,-0.376011,0.182089,0.749256,100139.41,-24,-159,+52
147548,9.382,-1.392,0.941,-0.421772,0.175703,0.712540,100140.55,-23,-161,+49
147558,9.574,-0.777,1.039,-0.372818,0.174107,0.701366,100140.20,-21,-163,+49
147567,9.534,-0.918,1.237,-0.273314,0.168786,0.713604,100137.57,-17,-165,+49
147577,9.727,-0.676,1.373,-0.202543,0.165061,0.749256,100142.30,-17,-165,+49
147588,9.892,-0.811,1.214,-0.146140,0.168254,0.792357,100139.78,-16,-167,+49
147598,9.770,-1.232,0.950,-0.095057,0.177832,0.824815,100140.98,-14,-167,+49
147607,9.511,-1.571,0.900,-0.077497,0.186878,0.845035,100140.77,-11,-170,+49
147617,9.632,-2.005,1.105,-0.069516,0.197520,0.841843,100140.77,-11,-170,+49
147628,9.782,-2.357,1.221,-0.092929,0.206566,0.828540,100140.77,-8,-171,+50
147638,9.841,-2.515,1.181,-0.173277,0.214547,0.813109,100141.77,-6,-173,+50
147647,9.803,-2.234,1.321,-0.281828,0.204969,0.808320,100140.45,-5,-175,+49
147657,9.997,-1.408,1.496,-0.352598,0.190602,0.836522,100138.83,-5,-175,+49
147667,10.187,-0.769,1.521,-0.336635,0.176768,0.897714,100140.03,-1,-176,+49
147678,10.112,0.020,1.594,-0.279699,0.150694,1.012118,100140.03,+1,-179,+47
147688,9.899,0.868,1.555,-0.145607,0.129942,1.181861,100142.98,+5,-180,+49
147697,10.086,0.818,1.203,0.064576,0.123024,1.393641,100139.70,+5,-180,+49
147707,10.770,0.227,0.708,0.251879,0.097483,1.599567,100136.64,+8,-182,+49
147718,11.392,-0.289,0.450,0.375328,0.067153,1.794319,100136.64,+12,-183,+50
147728,12.086,-0.745,-0.438,0.458869,0.038951,1.985347,100140.45,+18,-185,+50
147737,13.105,-1.131,-1.259,0.534961,0.036291,2.154026,100140.45,+18,-185,+50
147747,13.919,-1.107,-1.209,0.662667,0.038419,2.333879,100141.07,+25,-185,+52
147758,14.375,-0.812,-0.174,0.814851,0.026713,2.518521,100140.96,+32,-185,+54
147768,14.521,-0.740,1.315,0.895731,0.049061,2.685603,100139.02,+39,-186,+57
147773,14.842,-0.931,2.074,0.844649,0.083116,2.786704,100139.02,+39,-186,+57
147782,15.522,-0.866,2.213,0.701511,0.100676,2.875566,100142.68,+48,-187,+59
147792,16.741,-0.263,2.147,0.481218,0.098015,2.990502,100139.90,+48,-187,+59
147803,18.461,0.771,3.142,0.295512,0.058639,3.097988,100137.65,+55,-187,+59
147812,19.555,1.490,3.452,0.075218,0.088437,3.168759,100135.51,+64,-189,+60
147822,20.959,1.828,2.685,-0.353130,0.174639,3.186851,100135.51,+73,-191,+60
147832,22.909,4.021,1.901,-0.968249,0.179960,3.192704,100139.09,+82,-195,+56
147843,23.292,8.700,2.516,-1.503551,0.196988,3.199089,100138.41,+82,-195,+56
147853,21.146,12.663,2.527,-1.747258,0.235832,3.223566,100137.52,+91,-199,+52
147862,17.798,11.512,1.301,-1.877092,0.203373,3.258153,100137.10,+103,-205,+47
147872,15.054,7.144,0.692,-1.936157,0.158144,3.196960,100137.10,+113,-209,+43
147883,12.557,-0.186,2.869,-1.438102,0.133135,3.269327,100140.98,+113,-209,+43
147893,11.347,-8.772,4.193,-0.242983,-0.057893,3.705125,100135.90,+123,-211,+40
147902,13.676,-11.134,7.982,0.708961,0.143245,4.102612,100138.30,+137,-208,+43
147912,16.486,-10.263,11.603,0.829218,0.176235,3.865823,100131.45,+148,-204,+45
147922,14.506,-6.687,7.813,0.291255,-0.177618,2.894190,100131.45,+148,-204,+45
147933,11.041,2.896,1.963,-0.580341,-0.536792,1.773035,100137.22,+154,-203,+45
147942,7.590,8.040,-0.187,-0.495736,-0.518168,1.282430,100139.58,+157,-205,+45
147952,6.553,8.487,1.026,0.003915,-0.389397,1.159512,100136.59,+160,-205,+46
147962,5.915,7.642,1.180,0.305090,-0.532003,0.856210,100137.02,+160,-205,+46
147973,4.527,6.432,1.336,0.670649,-0.613415,0.400192,100137.02,+160,-204,+49
147983,3.442,4.998,1.937,1.012796,-0.615012,-0.058487,100138.91,+159,-202,+52
147992,2.579,3.021,2.648,1.381548,-0.633103,-0.499606,100138.49,+157,-200,+58
148002,2.051,1.290,3.179,1.708263,-0.682058,-0.955092,100137.07,+157,-200,+58
148008,1.954,0.479,3.228,1.805639,-0.759746,-1.338211,100133.99,+151,-197,+65
148018,2.110,0.275,2.921,1.773180,-0.878938,-1.777201,100133.99,+151,-197,+65
148027,2.425,0.727,2.297,1.641749,-1.031654,-2.348155,100133.99,+142,-194,+71
148037,2.879,1.470,1.814,1.497548,-1.137544,-2.822797,100135.58,+131,-191,+76
148047,3.175,1.809,1.812,1.434759,-1.188094,-3.196870,100138.36,+118,-189,+81
148058,3.388,1.582,2.156,1.426245,-1.201397,-3.512944,100135.92,+104,-185,+85
148068,3.624,1.023,2.786,1.418263,-1.201397,-3.842851,100135.92,+104,-185,+85
148078,4.348,0.354,3.233,1.367181,-1.211507,-4.192448,100135.37,+89,-180,+88
148087,5.450,-0.509,3.499,1.230961,-1.226938,-4.529273,100135.37,+73,-175,+90
148098,5.978,-1.256,3.495,1.004814,-1.241837,-4.865035,100133.43,+56,-169,+91
148108,6.498,-1.525,3.419,0.706832,-1.224277,-5.199731,100135.27,+56,-169,+91
148117,7.482,-1.304,3.270,0.425346,-1.156700,-5.504098,100134.43,+39,-161,+89
148127,8.885,-0.732,3.091,0.291787,-1.031654,-5.768557,100134.43,+20,-155,+88
148137,10.384,-0.216,2.903,0.338080,-0.877874,-5.998428,100138.05,+5,-146,+84
148148,11.908,-0.224,2.904,0.505695,-0.704406,-6.205419,100136.90,+5,-146,+84
148158,13.373,-0.654,3.003,0.725988,-0.531471,-6.394850,100136.54,-10,-137,+82
148168,15.176,-1.185,3.138,0.964906,-0.365984,-6.561400,100135.05,-24,-123,+78
148177,17.741,-2.014,3.696,1.271933,-0.187196,-6.691235,100137.68,-37,-108,+77
148188,20.773,-3.242,4.267,1.599181,-0.029159,-6.763602,100133.74,-37,-108,+77
148198,22.872,-4.723,4.442,1.848208,0.044804,-6.768391,100135.95,-47,-93,+76
148207,22.806,-8.049,4.579,1.941327,0.050658,-6.607162,100135.95,-57,-75,+75
148217,22.914,-11.873,4.272,1.940263,-0.096205,-6.346428,100134.21,-64,-58,+74
148228,23.661,-14.112,4.215,1.685382,-0.312241,-5.967034,100134.21,-64,-58,+74
148238,21.493,-14.872,6.423,1.572575,-0.417599,-5.324245,100141.83,-71,-42,+74
148247,18.308,-14.533,9.145,1.747639,-0.355342,-4.523420,100135.48,-75,-27,+71
148257,16.986,-17.981,11.037,1.721566,-0.181342,-3.636925,100135.64,-78,-15,+70
148268,13.578,-22.656,10.730,1.570447,-0.040333,-2.739256,100135.39,-78,-15,+70
148278,9.801,-26.243,9.991,1.373566,0.154419,-1.977807,100135.39,-80,-7,+69
148288,8.798,-25.012,8.717,0.825493,0.327355,-0.994468,100138.24,-80,-1,+71
148297,9.490,-20.308,6.047,0.645108,0.547116,0.286320,100139.45,-78,-2,+71
148307,12.878,-14.282,3.087,0.918612,0.696107,1.431421,100137.24,-78,-2,+71
148318,12.924,-15.372,0.143,1.402832,0.632786,2.481805,100137.24,-78,-4,+72
148328,15.960,-3.303,-2.829,1.522025,0.249667,3.207071,100137.24,-75,-8,+74
148337,20.877,33.450,-11.973,0.254539,-0.554351,1.580943,100139.09,-77,-12,+74
148347,12.636,21.711,-3.531,0.327438,0.135263,0.787036,100142.23,-77,-12,+74
148358,16.620,-10.356,-0.016,2.873051,0.773263,2.655273,100140.29,-75,-12,+76
148363,18.639,-20.664,2.407,3.443473,1.238859,3.016575,100139.45,-72,-11,+79
148372,16.467,-14.522,1.824,2.495785,1.137226,3.207071,100139.45,-72,-11,+79
148382,11.975,-4.222,1.023,0.619566,0.821152,2.714869,100140.52,-69,-14,+81
148392,9.990,-0.238,5.922,0.700979,1.109024,2.343457,100141.78,-65,-18,+83
148403,8.700,-0.305,5.754,1.202759,1.178730,2.262576,100137.48,-61,-19,+87
148413,7.606,-1.477,4.261,1.121878,1.026547,1.928411,100138.58,-61,-19,+87
148422,8.590,-3.084,2.734,0.774942,0.873831,1.749622,100138.58,-58,-20,+89
148432,10.772,-3.467,1.774,0.256135,0.742400,1.636815,100140.37,-55,-23,+90
148443,10.931,-3.170,1.309,-0.121130,0.625868,1.583072,100141.68,-53,-27,+91
148453,11.017,-2.806,0.659,-0.411662,0.525832,1.505384,100140.63,-53,-27,+91
148463,10.656,-2.373,1.130,-0.686763,0.497630,1.425035,100138.79,-51,-31,+93
148472,10.011,-1.653,1.484,-1.054451,0.465171,1.323934,100138.79,-49,-37,+93
148483,9.370,-1.182,0.670,-1.100212,0.432180,1.223898,100143.22,-46,-43,+93
148493,9.677,-0.019,0.380,-0.777222,0.475813,1.121733,100138.91,-46,-43,+93
148503,10.205,1.271,0.961,-0.294598,0.529556,1.041916,100142.84,-44,-47,+94
148512,10.182,0.403,2.050,0.123640,0.544455,1.015311,100135.30,-42,-49,+94
148523,9.803,-1.088,2.467,0.214099,0.479538,0.965292,100135.30,-41,-49,+96
148533,9.402,-1.552,2.699,0.042227,0.411428,0.881751,100140.59,-41,-49,+96
148543,9.680,-1.640,2.951,-0.273314,0.339061,0.825347,100136.91,-39,-51,+97
148552,9.728,-1.388,2.717,-0.592048,0.245942,0.754577,100140.27,-37,-55,+96
148562,9.724,-0.475,2.184,-0.736249,0.179960,0.686999,100137.76,-36,-59,+97
148573,9.786,0.068,1.534,-0.673992,0.166657,0.634852,100137.76,-36,-59,+97
148583,9.824,-0.141,0.973,-0.523405,0.185813,0.601329,100140.83,-35,-62,+96
148593,9.848,-0.711,0.785,-0.409002,0.222529,0.589091,100139.27,-34,-65,+96
148598,9.896,-1.226,0.757,-0.389846,0.239556,0.572063,100138.16,-34,-65,+96
148608,9.933,-1.654,1.148,-0.438268,0.248070,0.543329,100138.16,-33,-66,+96
148618,9.933,-1.741,1.820,-0.578213,0.241153,0.483201,100138.27,-30,-69,+96
148628,9.813,-1.368,2.336,-0.764983,0.223061,0.406045,100138.27,-30,-72,+95
148638,9.620,-0.854,2.572,-0.909185,0.209758,0.341660,100140.45,-30,-72,+95
148647,9.717,-0.455,2.526,-0.959735,0.203905,0.291109,100138.80,-30,-75,+96
148658,9.661,-0.399,2.469,-0.941644,0.199648,0.260247,100137.41,-28,-79,+94
148668,9.450,-0.279,2.314,-0.905460,0.199116,0.264504,100137.41,-28,-82,+94
148678,9.265,-0.145,2.204,-0.875662,0.197520,0.312926,100137.41,-28,-82,+94
148687,9.191,0.059,1.972,-0.813937,0.194327,0.387421,100139.34,-27,-85,+94
148698,9.186,0.458,1.732,-0.683038,0.195391,0.486394,100141.12,-26,-89,+94
148708,9.120,0.676,1.625,-0.510103,0.187942,0.599733,100136.98,-24,-91,+93
148718,9.113,0.919,1.236,-0.331314,0.212419,0.712540,100137.45,-24,-91,+93
148727,9.244,0.812,1.085,-0.115277,0.251263,0.826944,100137.45,-23,-93,+94
148738,9.659,0.361,1.334,0.088521,0.283722,0.926980,100140.70,-20,-93,+93
148748,9.894,0.045,1.846,0.199732,0.306602,1.007861,100139.81,-19,-95,+94
148758,10.262,-0.588,2.344,0.216227,0.312456,1.098852,100139.66,-19,-95,+94
148768,10.353,-0.729,2.551,0.100759,0.286382,1.202081,100141.62,-16,-97,+96
148777,10.409,-0.534,2.238,-0.081754,0.242217,1.334576,100140.93,-14,-99,+95
148788,9.999,0.302,1.664,-0.190305,0.210290,1.485164,100138.63,-10,-102,+95
148798,9.970,0.719,1.348,-0.116341,0.194327,1.645329,100138.63,-10,-102,+95
148808,10.507,0.438,1.480,0.085328,0.176235,1.821989,100140.66,-7,-103,+96
148817,10.863,-0.357,1.437,0.219952,0.165593,1.977365,100139.10,-3,-107,+96
148828,11.332,-0.509,1.346,0.238576,0.167190,2.118906,100139.10,-1,-109,+97
148838,12.034,-0.678,0.987,0.275291,0.169850,2.290246,100140.06,-1,-109,+97
148848,12.841,-0.724,0.449,0.368411,0.163997,2.476484,100139.64,+3,-111,+97
148858,13.694,-0.905,0.626,0.529640,0.151758,2.643034,100139.80,+8,-113,+99
148868,14.083,-0.929,1.375,0.665860,0.182089,2.793621,100137.17,+13,-114,+100
148878,14.447,-1.336,2.086,0.683420,0.231575,2.911750,100140.94,+13,-114,+100
148888,15.380,-1.465,2.135,0.548264,0.262437,3.003805,100138.78,+19,-115,+101
148898,17.036,-0.722,2.962,0.338612,0.242217,3.070318,100139.47,+26,-118,+102
148908,18.093,0.193,3.612,0.039567,0.253923,3.132043,100137.63,+30,-121,+102
148918,19.749,-0.147,2.633,-0.444653,0.355024,3.179933,100137.63,+30,-121,+102
148928,23.223,2.683,1.750,-1.105533,0.376841,3.207071,100137.63,+38,-126,+101
148938,24.874,7.427,1.826,-1.575918,0.418345,3.312960,100140.16,+46,-133,+99
148947,24.133,9.998,1.342,-1.856872,0.538070,3.423639,100137.48,+53,-141,+96
148954,23.564,10.944,0.267,-2.038322,0.622676,3.392245,100137.38,+53,-141,+96
148963,22.079,10.834,-0.379,-2.297992,0.660455,3.303915,100138.11,+62,-150,+93
148973,18.229,9.251,-0.843,-2.510303,0.572657,3.211860,100138.11,+71,-159,+88
148983,14.452,3.608,-0.108,-2.132505,0.473685,3.250171,100137.03,+71,-159,+88
148993,12.344,-5.158,1.397,-1.144377,0.434841,3.440135,100138.44,+80,-165,+86
149003,12.125,-8.666,2.681,-0.713369,0.298089,3.411401,100136.08,+89,-169,+84
149013,13.437,-5.571,4.435,-1.081588,0.109722,3.122465,100136.23,+97,-173,+82
149023,12.981,-3.295,5.515,-1.233240,0.153355,2.972410,100136.23,+97,-173,+82
149032,11.039,-1.809,5.879,-1.111387,0.193263,2.688264,100141.15,+104,-177,+79
149043,7.385,-1.359,6.952,-0.651644,0.285318,2.259915,100136.85,+111,-179,+77
149053,5.049,0.454,6.257,-0.250965,0.260841,1.711310,100137.38,+116,-180,+78
149063,4.284,2.120,2.490,-0.122727,0.078327,1.068522,100135.07,+116,-180,+78
149072,5.172,0.731,0.919,0.115658,0.038419,0.581641,100135.07,+118,-180,+79
149083,4.930,0.675,0.970,0.313071,-0.039269,0.167660,100138.40,+118,-180,+79
149093,3.591,2.751,1.249,0.211970,-0.267012,-0.363918,100136.57,+116,-180,+81
149103,2.114,4.932,1.624,0.338612,-0.428773,-0.975312,100136.73,+116,-180,+81
149113,0.921,5.468,1.750,0.652025,-0.546370,-1.554247,100139.66,+113,-179,+83
149123,0.585,4.392,2.396,0.933511,-0.538388,-1.955458,100139.66,+105,-179,+85
149133,1.024,3.177,1.952,1.272997,-0.605966,-2.224174,100137.78,+98,-175,+88
149143,1.736,1.883,1.829,1.587474,-0.683654,-2.521623,100134.33,+98,-175,+88
149153,2.463,0.529,2.250,1.519364,-0.839030,-2.930815,100134.53,+90,-171,+93
149163,2.920,0.041,1.903,1.240006,-1.035378,-3.410246,100133.02,+79,-167,+95
149173,3.302,0.224,1.865,0.973419,-1.127433,-3.829549,100133.02,+66,-164,+98
149183,3.709,0.480,2.401,0.822300,-1.135947,-4.206815,100133.15,+66,-164,+98
149188,4.171,0.405,2.927,0.762704,-1.143929,-4.476594,100131.99,+53,-159,+99
149197,4.807,0.224,3.125,0.725456,-1.158828,-4.721364,100131.99,+37,-155,+100
149208,5.687,-0.110,3.276,0.592429,-1.148718,-5.028392,100131.37,+37,-155,+100
149218,6.303,-0.132,3.296,0.346062,-1.139672,-5.340209,100130.21,+23,-148,+101
149228,7.334,0.126,3.147,0.067769,-1.119452,-5.634465,100130.21,+7,-142,+101
149238,8.651,0.560,3.135,-0.149332,-1.058791,-5.907969,100133.64,-8,-135,+99
149249,10.266,0.865,3.330,-0.311626,-0.967801,-6.131988,100130.20,-8,-135,+99
149258,11.506,0.870,3.197,-0.306837,-0.842755,-6.307584,100130.72,-24,-127,+98
149268,12.730,1.149,3.147,-0.119534,-0.646406,-6.498611,100130.72,-37,-117,+96
149278,14.746,0.807,3.034,0.193879,-0.465489,-6.683785,100130.72,-49,-103,+96
149288,17.737,-0.115,3.373,0.629677,-0.256902,-6.832244,100131.33,-49,-103,+96
149298,21.915,-1.191,4.087,1.182539,-0.093012,-6.948244,100135.20,-59,-85,+97
149309,25.589,-2.831,5.033,1.552000,0.071765,-7.037816,100131.98,-67,-65,+99
149318,26.340,-5.567,4.515,1.583749,0.179960,-6.983895,100131.98,-73,-43,+100
149327,24.372,-11.833,5.561,1.123474,0.198584,-6.729547,100131.98,-73,-43,+100
149339,22.305,-15.403,4.037,0.602007,-0.057361,-6.318758,100132.46,-76,-24,+100
149348,22.114,-15.895,4.970,0.220484,-0.133985,-5.642979,100133.66,-78,-9,+101
149358,19.845,-14.100,6.026,0.426411,-0.238278,-4.757548,100134.21,-78,+2,+99
149368,18.436,-17.627,8.618,0.562099,-0.123342,-3.836998,100134.21,-78,+2,+99
149379,14.471,-24.833,10.553,0.513144,0.068217,-3.067035,100138.90,-78,+13,+99
149388,8.113,-25.741,11.722,0.128429,0.258180,-2.275256,100138.90,-77,+21,+99
149398,7.762,-23.510,10.125,-0.028011,0.401850,-1.024266,100135.34,-76,+23,+100
149408,10.148,-18.183,5.385,0.169934,0.577978,0.456595,100137.32,-76,+23,+100
149419,12.019,-14.229,2.037,1.218190,0.963758,1.720356,100137.65,-73,+21,+102
149428,13.225,-14.086,1.281,2.254740,1.196290,2.667511,100137.65,-69,+23,+104
149438,16.134,-9.296,-1.618,2.148318,0.840308,3.080961,100137.69,-68,+22,+106
149448,16.184,-0.861,-9.698,1.260227,0.098015,3.018704,100139.63,-68,+22,+106
149458,21.921,36.804,-19.614,-0.080690,-0.525617,1.981090,100138.89,-67,+18,+106
149469,13.051,29.395,-7.680,0.788245,-0.160058,0.833329,100142.54,-70,+16,+105
149478,14.088,-6.845,-0.875,4.251215,0.492309,2.668043,100141.60,-68,+23,+106
149488,16.385,-20.352,4.294,5.204756,1.173941,3.128850,100136.46,-68,+23,+106
149498,13.412,-12.816,0.477,3.373766,0.837116,3.157052,100138.46,-64,+33,+107
149508,11.616,-7.181,-0.002,1.403896,0.665244,2.323768,100138.46,-63,+32,+108
149518,9.520,-2.874,3.805,1.078245,0.943006,2.034301,100139.93,-60,+31,+110
149528,8.932,-0.729,6.773,1.591199,1.184051,1.961402,100139.93,-60,+31,+110
149538,10.961,-2.478,4.767,1.336850,1.021226,1.685237,100139.09,-57,+32,+112
149548,11.610,-5.283,1.775,0.388099,0.709942,1.562320,100135.05,-55,+32,+113
149558,9.951,-3.295,2.533,-0.229149,0.650877,1.494742,100136.89,-55,+28,+114
149568,9.504,-1.349,2.946,-0.653772,0.512529,1.425035,100137.36,-52,+21,+115
149578,10.328,-0.751,2.133,-0.795846,0.407171,1.334044,100137.36,-52,+21,+115
149588,10.380,-0.751,2.065,-0.923552,0.346511,1.264870,100138.52,-52,+17,+116
149599,9.607,-0.605,1.308,-0.986341,0.273079,1.181861,100138.48,-51,+11,+117
149608,9.478,0.183,0.835,-0.717625,0.289575,1.036063,100135.70,-51,+7,+118
149618,9.896,1.122,0.552,-0.333974,0.338529,0.947201,100135.70,-51,+7,+118
149628,9.922,1.501,0.586,0.028925,0.403978,0.968485,100135.70,-49,+4,+118
149638,9.786,1.260,1.562,0.313071,0.477410,1.045641,100140.94,-47,+3,+120
149648,9.471,0.065,2.109,0.355640,0.459850,1.065861,100139.52,-46,+2,+121
149658,9.535,-0.970,2.706,0.189622,0.408235,0.999879,100139.83,-46,+2,+121
149668,9.602,-1.362,2.961,-0.123791,0.313520,0.916338,100139.58,-44,+0,+121
149678,9.643,-0.940,2.737,-0.453167,0.228382,0.849292,100139.58,-44,-1,+121
149688,9.854,-0.380,2.324,-0.645791,0.173043,0.813641,100140.29,-42,-5,+122
149698,9.762,-0.073,1.732,-0.730928,0.150162,0.791825,100140.29,-42,-5,+122
149708,9.653,0.128,1.168,-0.718690,0.161336,0.770540,100138.82,-42,-9,+122
149719,9.649,0.252,1.118,-0.638341,0.191667,0.772669,100138.82,-41,-13,+122
149729,9.723,-0.232,1.468,-0.535644,0.219336,0.764687,100141.45,-41,-17,+123
149738,9.814,-0.574,1.989,-0.492011,0.236896,0.737017,100139.66,-41,-17,+123
149748,9.667,-0.738,2.567,-0.552139,0.222529,0.721586,100139.66,-41,-19,+123
149758,9.559,-0.489,2.666,-0.655901,0.187410,0.723714,100136.37,-39,-23,+123
149768,9.595,-0.165,2.462,-0.723479,0.161868,0.748724,100138.93,-37,-27,+123
149778,9.635,0.104,2.165,-0.713369,0.145905,0.801403,100138.93,-37,-27,+123
149788,9.570,0.159,1.986,-0.644726,0.130474,0.875366,100139.80,-37,-31,+123
149798,9.429,0.163,1.852,-0.550543,0.120364,0.947733,100139.29,-35,-35,+123
149809,9.399,-0.054,1.813,-0.423901,0.117703,1.012650,100135.88,-36,-38,+123
149818,9.424,-0.600,1.789,-0.303644,0.119300,1.063201,100138.02,-36,-38,+123
149828,9.485,-1.262,1.750,-0.243516,0.132602,1.076503,100139.83,-33,-41,+123
149838,9.704,-1.603,1.868,-0.252561,0.137391,1.080760,100139.20,-33,-44,+124
149849,9.683,-1.590,2.059,-0.290873,0.136859,1.095127,100136.73,-32,-47,+123
149858,9.835,-1.469,2.324,-0.349938,0.139520,1.102045,100136.73,-32,-47,+123
149868,10.021,-1.125,2.591,-0.398892,0.121428,1.144613,100138.52,-30,-50,+123
149878,9.973,-0.487,2.686,-0.379736,0.110786,1.210595,100138.52,-29,-53,+124
149889,9.938,-0.238,2.436,-0.318543,0.104401,1.286155,100140.95,-28,-57,+124
149898,9.878,-0.028,1.854,-0.239259,0.103868,1.398430,100139.12,-28,-57,+124
149908,10.076,-0.084,1.284,-0.104103,0.099079,1.546888,100137.70,-26,-59,+124
149918,10.434,-0.109,1.352,0.037438,0.094823,1.717163,100134.18,-24,-63,+124
149928,11.033,-0.059,1.364,0.101292,0.083648,1.908191,100134.18,-22,-67,+125
149939,11.812,0.169,1.048,0.168337,0.084180,2.122631,100138.19,-22,-67,+125
149948,12.617,-0.376,0.234,0.270502,0.107061,2.329622,100140.17,-19,-68,+125
149958,13.744,-1.508,-0.586,0.371603,0.149630,2.508410,100136.83,-16,-71,+125
149968,14.649,-1.858,-0.738,0.417897,0.187410,2.658998,100136.83,-12,-73,+126
149979,15.046,-1.528,-0.231,0.420557,0.210290,2.806392,100136.83,-12,-73,+126
149988,15.350,-0.979,0.635,0.372667,0.240621,2.955383,100143.17,-8,-76,+128
149998,16.226,-0.638,1.429,0.243365,0.254456,3.092667,100140.13,-4,-80,+128
150008,18.364,-0.208,2.795,0.023603,0.208162,3.223034,100137.61,+0,-84,+128
150019,21.442,1.380,4.547,-0.313754,0.123557,3.319878,100136.89,+5,-91,+127
150028,23.902,2.958,4.284,-0.845864,0.206034,3.393309,100136.89,+5,-91,+127
150038,25.161,5.369,2.524,-1.467900,0.291703,3.450777,100139.52,+10,-99,+127
150048,25.390,8.906,1.219,-2.016505,0.310327,3.497071,100138.98,+17,-111,+124
150059,24.535,11.577,-0.889,-2.448579,0.297556,3.494410,100136.34,+23,-122,+120
150069,21.735,10.992,-0.856,-2.643863,0.260309,3.375749,100136.34,+23,-122,+120
150078,17.697,7.445,0.156,-2.476248,0.149098,3.287419,100137.55,+29,-135,+116
150088,14.174,-0.290,2.922,-1.391808,0.044804,3.460355,100136.29,+37,-142,+114
150098,13.286,-7.982,4.143,0.008172,-0.128663,3.696079,100136.29,+43,-145,+114
150109,13.421,-6.831,6.040,0.226869,-0.293085,3.598703,100137.40,+43,-145,+114
150118,13.555,-3.982,5.784,0.169934,-0.500076,3.367768,100133.62,+48,-147,+115
150128,12.360,-2.276,6.356,0.563163,-0.401636,3.198557,100133.62,+53,-148,+115
150134,10.456,-1.456,6.271,0.812722,-0.373434,2.922924,100138.90,+53,-148,+115
150144,7.013,-0.917,5.687,0.984062,-0.400039,2.537144,100139.16,+57,-145,+116
150154,3.786,1.591,3.926,0.861676,-0.535728,1.811879,100137.12,+58,-144,+117
150163,4.369,2.121,1.090,0.694062,-0.710259,1.085549,100138.01,+58,-144,+117
150173,4.035,0.968,2.213,0.918612,-0.648003,0.722118,100138.01,+57,-143,+119
150183,3.478,2.795,2.795,0.856887,-0.803911,0.225128,100137.14,+56,-139,+120
150194,2.180,4.040,2.294,0.668521,-1.061984,-0.441606,100137.19,+50,-137,+120
150203,0.861,4.269,2.638,0.668521,-1.171066,-1.004578,100137.66,+50,-137,+120
150213,0.600,3.934,3.103,0.705236,-1.233855,-1.368009,100136.50,+43,-134,+120
150223,0.682,3.019,3.184,0.764300,-1.357837,-1.689403,100136.50,+35,-131,+121
150234,0.500,2.082,3.549,0.932979,-1.446699,-2.056559,100136.73,+26,-126,+121
150243,0.629,1.523,3.846,1.024502,-1.511085,-2.497678,100138.20,+26,-126,+121
150254,1.277,1.313,3.733,1.042239,-1.583452,-2.989525,100134.48,+16,-120,+122
150263,1.941,1.163,3.597,1.068135,-1.602607,-3.376723,100136.33,+4,-112,+121
150274,2.664,1.026,3.769,1.119218,-1.589305,-3.758246,100136.33,-7,-103,+121
150284,3.484,0.863,3.954,1.129860,-1.567488,-4.118484,100134.21,-19,-103,+120
150293,4.299,0.707,4.273,1.095273,-1.533433,-4.473934,100131.27,-19,-93,+120
150303,5.055,0.497,4.622,0.964374,-1.482883,-4.800649,100128.76,-30,-81,+118
150313,5.520,0.597,4.637,0.767493,-1.456277,-5.122043,100128.65,-42,-69,+116
150324,6.394,0.700,4.392,0.603071,-1.408920,-5.431731,100128.65,-52,-57,+115
150333,7.671,0.576,4.253,0.546135,-1.307287,-5.699914,100131.96,-52,-57,+115
150343,9.135,0.446,4.358,0.533365,-1.185433,-5.919676,100131.34,-60,-41,+112
150353,10.722,0.490,4.407,0.528576,-1.071562,-6.108575,100133.12,-68,-25,+109
150364,12.174,0.711,4.193,0.649897,-0.938002,-6.280978,100130.96,-74,-8,+108
150373,13.856,0.885,4.091,0.981401,-0.776241,-6.437951,100130.96,-74,-8,+108
150383,16.324,0.529,4.476,1.479988,-0.562333,-6.588006,100133.93,-76,+12,+105
150393,19.478,-0.515,5.083,2.020611,-0.371838,-6.721565,100132.04,-75,+36,+103
150404,23.052,-1.804,5.982,2.537290,-0.231361,-6.789675,100132.73,-72,+60,+101
150414,25.585,-3.399,7.400,3.063014,-0.078113,-6.765730,100132.35,-72,+60,+101
150423,26.092,-6.396,6.939,3.276390,-0.017985,-6.651327,100132.35,-65,+89,+97
150433,25.216,-13.472,6.562,2.616042,-0.126003,-6.345364,100135.85,-57,+112,+93
150444,22.717,-16.381,5.590,1.868960,-0.394718,-5.885621,100136.05,-49,+129,+89
150454,20.460,-14.768,5.900,1.677401,-0.492094,-5.198135,100134.74,-49,+129,+89
150463,19.140,-12.693,8.597,1.729547,-0.414939,-4.387732,100137.26,-40,+145,+84
150473,16.712,-19.153,11.713,1.735933,-0.166443,-3.453347,100137.26,-35,+157,+79
150483,10.448,-26.513,13.418,1.244263,0.091098,-2.654650,100140.32,-28,+165,+77
150489,6.448,-27.435,12.341,0.370007,0.204437,-2.101256,100139.12,-28,+165,+77
150499,7.266,-23.905,10.935,-0.467534,0.283189,-1.163147,100139.12,-25,+166,+79
150509,10.442,-15.791,7.628,-0.538304,0.397593,0.361880,100137.07,-24,+166,+79
150518,13.105,-9.353,4.972,0.987254,0.741336,1.774631,100135.29,-24,+165,+79
150529,14.769,-7.948,1.506,2.199400,0.703024,2.689328,100135.29,-28,+166,+77
150539,13.324,-11.990,-1.583,2.397345,0.595538,3.323603,100141.04,-32,+167,+74
150549,20.453,15.009,-12.765,1.253841,-0.174425,2.747328,100139.54,-38,+165,+72
150558,17.187,27.361,-12.828,-0.361112,-0.298406,0.949329,100140.34,-38,+165,+72
150568,12.899,2.438,-0.209,2.098831,0.614162,2.145512,100140.34,-39,+164,+71
150579,16.111,-13.646,-0.534,3.490299,0.913207,3.079896,100140.34,-44,+167,+66
150589,15.218,-12.760,3.894,3.022042,1.157978,3.337970,100141.96,-48,+167,+63
150598,12.258,-7.510,5.352,2.082336,1.124455,2.946337,100140.80,-48,+167,+63
150608,13.169,-4.978,4.808,1.696025,1.238327,2.412631,100139.02,-49,+167,+62
150619,10.664,-3.530,2.366,1.266080,1.105299,2.293438,100140.96,-51,+165,+62
150629,6.655,-0.918,2.846,1.298539,1.064327,1.970980,100140.96,-52,+164,+62
150639,6.867,-3.362,3.322,0.853163,0.922253,1.715567,100141.61,-52,+164,+62
150648,10.207,-4.693,1.848,0.181640,0.749850,1.632026,100139.89,-53,+162,+62
150659,10.869,-3.674,1.509,-0.361644,0.634382,1.491017,100138.14,-55,+158,+64
150669,11.072,-2.484,0.864,-0.792653,0.466235,1.397898,100138.14,-56,+153,+66
150679,10.998,-0.851,0.906,-0.861295,0.412492,1.330320,100141.60,-56,+153,+66
150688,9.985,-0.072,0.882,-0.721882,0.417813,1.182925,100141.60,-58,+148,+70
150699,9.009,0.215,0.701,-0.460616,0.433244,1.062668,100137.20,-58,+144,+71
150709,8.811,1.232,1.240,-0.029075,0.491776,0.998283,100140.35,-59,+143,+72
150719,9.254,1.815,1.451,0.453016,0.535409,0.932834,100138.98,-59,+143,+72
150728,9.754,1.537,1.358,0.885089,0.572125,0.918999,100138.98,-60,+142,+73
150738,9.637,0.456,1.816,1.121878,0.587556,0.923256,100138.70,-59,+143,+71
150749,9.775,-1.034,2.314,1.008539,0.535409,0.909953,100140.27,-59,+143,+71
150759,9.961,-2.417,2.371,0.663732,0.434309,0.837054,100139.54,-59,+143,+71
150769,9.856,-2.950,1.989,0.122576,0.316180,0.747659,100137.55,-59,+143,+70
150778,9.951,-2.149,1.369,-0.382928,0.231575,0.692852,100140.60,-60,+140,+72
150789,10.116,-0.819,1.077,-0.633020,0.203905,0.669971,100138.49,-61,+137,+74
150799,9.995,-0.153,0.563,-0.622378,0.208162,0.653476,100141.34,-61,+137,+74
150808,9.777,0.413,0.191,-0.422304,0.248602,0.650815,100141.34,-60,+134,+74
150818,9.654,0.158,0.276,-0.193497,0.278400,0.667843,100138.02,-62,+131,+76
150829,9.847,-0.969,0.762,-0.043442,0.295428,0.663586,100138.02,-62,+130,+76
150839,9.951,-1.817,1.413,-0.063130,0.312456,0.614100,100141.84,-62,+130,+76
150844,9.924,-2.112,2.041,-0.228084,0.319373,0.583770,100138.43,-62,+129,+77
150853,9.820,-2.051,2.310,-0.482965,0.309795,0.569935,100137.18,-63,+126,+79
150863,9.747,-1.374,2.496,-0.826708,0.278400,0.555568,100137.38,-63,+126,+79
150874,9.690,-0.341,2.284,-0.974634,0.250731,0.559293,100137.38,-63,+122,+81
150884,9.625,0.558,1.890,-0.895882,0.233703,0.594944,100141.21,-63,+118,+83
150894,9.529,1.073,1.598,-0.632488,0.241153,0.666779,100139.79,-63,+115,+84
150903,9.438,0.360,1.312,-0.311626,0.260309,0.758834,100139.54,-63,+115,+84
150914,9.387,-0.751,1.076,-0.114213,0.278933,0.821091,100138.59,-64,+112,+84
150924,9.558,-1.470,1.225,-0.100910,0.295428,0.857806,100138.59,-64,+111,+85
150934,9.601,-1.732,1.526,-0.214782,0.297024,0.874302,100141.03,-64,+108,+87
150943,9.683,-1.458,1.745,-0.344616,0.295960,0.880687,100141.67,-64,+108,+87
150953,9.808,-1.062,1.855,-0.404213,0.297556,0.899843,100139.36,-65,+105,+88
150964,9.888,-0.730,1.943,-0.382396,0.292235,0.933898,100137.84,-64,+102,+88
150974,9.880,-0.449,1.998,-0.305240,0.278400,0.990301,100137.84,-65,+98,+89
150983,9.941,-0.275,2.002,-0.215314,0.262969,1.072246,100140.72,-65,+98,+89
150993,9.957,-0.157,1.983,-0.147204,0.252859,1.182393,100141.88,-66,+95,+91
151004,10.000,-0.058,1.598,-0.114745,0.232639,1.320210,100142.66,-66,+92,+92
151014,10.050,-0.049,1.254,-0.073773,0.219336,1.480907,100139.16,-69,+88,+92
151023,10.861,0.079,1.261,0.004980,0.209226,1.652246,100139.16,-69,+88,+92
151033,11.546,0.078,1.142,0.083732,0.185281,1.833163,100143.30,-69,+83,+93
151044,11.752,0.063,0.992,0.169402,0.200180,2.070484,100139.85,-71,+80,+93
151054,12.392,-0.619,0.561,0.246557,0.216144,2.298227,100140.37,-72,+74,+93
151064,13.374,-1.394,0.119,0.284337,0.222529,2.452539,100140.05,-72,+74,+93
151073,14.581,-1.745,0.473,0.332227,0.218804,2.584502,100140.05,-73,+70,+93
151084,14.895,-1.434,1.225,0.351915,0.205501,2.705291,100142.24,-74,+64,+93
151094,14.756,-1.328,1.597,0.315200,0.238492,2.830337,100140.20,-76,+59,+93
151104,15.505,-1.520,1.423,0.209310,0.266162,2.929842,100137.95,-76,+59,+93
151113,17.176,-1.188,1.775,0.031053,0.237960,3.022429,100139.20,-76,+52,+94
151123,19.211,0.030,3.302,-0.195094,0.190602,3.107034,100139.20,-78,+43,+95
151134,21.539,1.657,3.457,-0.677185,0.275740,3.155456,100141.60,-79,+34,+96
151144,24.120,3.944,3.211,-1.361478,0.363538,3.206538,100136.57,-79,+34,+96
151154,26.063,6.963,1.908,-1.957973,0.413024,3.261346,100137.73,-78,+21,+97
151163,25.385,10.131,0.907,-2.544890,0.513593,3.248043,100136.99,-77,+7,+100
151174,21.877,11.947,0.170,-3.160009,0.497630,3.179401,100136.99,-75,-10,+99
151184,19.021,10.107,-0.935,-3.595807,0.305006,3.126722,100139.58,-75,-10,+99
151194,15.025,7.278,0.091,-3.164266,0.198052,3.040520,100142.30,-73,-29,+99
151199,11.710,1.843,1.962,-1.959569,0.168254,3.203878,100137.69,-71,-41,+98
151208,9.991,-4.972,1.933,-0.407938,0.054382,3.476318,100137.69,-71,-41,+98
151219,10.839,-8.290,5.792,0.848906,0.138988,3.689694,100136.80,-67,-49,+99
151229,13.959,-11.158,9.187,1.114961,0.148566,3.679584,100136.80,-64,-54,+98
151239,13.424,-10.399,9.372,1.043126,0.195923,3.235805,100140.59,-60,-57,+99
151248,9.337,-3.846,6.536,0.133218,0.022988,2.199255,100137.02,-60,-57,+99
151259,7.014,3.516,2.432,-0.873534,-0.161122,1.152595,100139.59,-59,-61,+99
151269,5.395,7.107,0.654,-0.923552,-0.126535,0.495439,100139.59,-59,-66,+97
151279,4.564,8.461,1.612,-0.656965,-0.095673,0.246412,100139.59,-59,-67,+96
151288,4.673,6.671,0.425,-0.399424,-0.380884,0.036229,100141.21,-59,-67,+96
151299,3.644,3.741,0.079,-0.060470,-0.511250,-0.325606,100138.74,-60,-68,+95
151309,2.300,2.074,1.963,0.198135,-0.444205,-0.734798,100138.59,-62,-67,+93
151319,1.482,1.758,2.719,0.291787,-0.510186,-1.237642,100137.80,-65,-61,+92
151328,0.923,1.855,2.587,0.404594,-0.657048,-1.793697,100137.80,-65,-61,+92
151339,0.932,1.851,2.432,0.630209,-0.751232,-2.273660,100139.67,-68,-55,+91
151349,1.396,1.834,2.352,0.855823,-0.791672,-2.694559,100137.31,-73,-47,+89
151359,1.990,1.878,2.350,1.043126,-0.811360,-3.092577,100134.48,-76,-37,+86
151369,2.484,1.843,2.348,1.207016,-0.831581,-3.415567,100134.48,-76,-37,+86
151379,2.978,1.465,2.505,1.381016,-0.845415,-3.694393,100133.91,-81,-23,+84
151389,3.636,0.940,3.003,1.525217,-0.836902,-3.992907,100132.91,-83,-10,+83
151399,4.524,0.304,3.739,1.520960,-0.820938,-4.298337,100132.91,-86,+4,+80
151409,5.118,-0.342,4.253,1.373034,-0.832645,-4.624521,100134.00,-86,+4,+80
151418,5.269,-0.609,4.464,1.162850,-0.851269,-4.983163,100132.53,-88,+19,+76
151429,6.017,-0.436,4.397,0.938832,-0.829984,-5.315199,100132.53,-88,+35,+74
151439,7.422,-0.031,4.145,0.790374,-0.766131,-5.592960,100134.86,-86,+53,+70
151449,9.007,0.124,3.823,0.801016,-0.667691,-5.832410,100133.17,-86,+53,+70
151459,10.549,0.140,3.411,0.942025,-0.571911,-6.045786,100134.91,-83,+70,+67
151469,12.220,-0.147,3.057,1.178282,-0.488370,-6.222446,100129.34,-78,+88,+64
151479,14.115,-0.539,3.065,1.478392,-0.410150,-6.378355,100134.06,-72,+107,+60
151489,16.506,-1.153,3.543,1.830116,-0.323948,-6.497015,100132.64,-72,+107,+60
151499,19.421,-1.954,3.620,2.165877,-0.268076,-6.591731,100135.58,-62,+127,+57
151508,21.619,-4.613,4.231,2.160024,-0.227636,-6.646006,100134.63,-51,+147,+51
151519,22.775,-8.006,4.440,1.995070,-0.281911,-6.604501,100134.63,-39,+165,+45
151529,23.857,-10.620,4.229,1.618336,-0.368645,-6.526813,100134.63,-39,+165,+45
151539,23.989,-12.870,4.828,1.138373,-0.479324,-6.268740,100137.23,-24,+181,+43
151548,21.948,-13.776,6.515,1.032484,-0.590535,-5.750997,100137.27,-10,+194,+38
151555,19.990,-13.223,9.003,1.142630,-0.583085,-5.265181,100137.76,-10,+194,+38
151564,18.488,-12.013,10.956,1.202227,-0.480388,-4.677732,100136.07,+0,+204,+34
151574,17.261,-14.577,11.871,1.083566,-0.218590,-3.799751,100136.07,+10,+211,+30
151584,14.440,-21.595,11.355,0.943089,0.119300,-2.989347,100139.48,+18,+216,+29
151593,9.885,-26.055,10.321,0.454080,0.311923,-2.393384,100138.52,+18,+216,+29
151604,8.573,-23.831,9.390,-0.266396,0.464107,-1.513807,100137.27,+25,+220,+28
151614,10.585,-16.469,6.113,-0.748488,0.540731,-0.301661,100138.90,+28,+218,+31
151624,12.185,-11.486,3.399,-0.314818,0.675354,0.989769,100138.90,+25,+218,+33
151633,12.936,-11.344,3.354,0.690337,0.879152,2.175310,100143.06,+25,+218,+33
151644,14.941,-9.017,0.189,1.217658,0.748785,2.887805,100137.98,+21,+216,+32
151654,15.098,-2.093,-7.143,0.881364,0.100676,2.959640,100141.34,+12,+215,+29
151664,20.417,24.598,-16.818,0.222613,-0.260627,2.306209,100139.88,+5,+211,+29
151673,16.745,32.658,-13.429,0.150778,-0.234553,0.748192,100139.88,+5,+211,+29
151684,10.607,2.205,-0.751,3.164647,0.361410,2.244484,100141.80,+3,+213,+26
151694,13.395,-14.876,0.641,4.948279,0.863721,2.999548,100140.75,-2,+217,+15
151704,14.234,-13.092,1.859,4.085730,1.024951,3.242722,100137.81,-8,+220,+6
151714,13.664,-8.198,-0.500,2.261125,0.827006,2.746264,100139.75,-8,+220,+6
151724,10.924,-4.906,4.121,1.498080,1.033464,2.227989,100139.75,-14,+219,+3
151734,8.948,-0.791,5.843,1.503933,1.244712,2.119438,100140.55,-17,+217,+1
151744,8.155,0.513,5.493,1.351750,1.139354,1.829439,100138.35,-22,+216,+0
151754,8.586,-1.760,4.325,0.905841,0.918529,1.654374,100138.20,-22,+216,+0
151763,10.702,-3.493,2.181,0.324246,0.705685,1.601696,100140.60,-24,+216,+1
151774,11.493,-3.642,1.480,-0.193497,0.570529,1.620319,100140.60,-28,+213,+1
151784,11.403,-2.998,1.237,-0.606414,0.464107,1.595842,100139.62,-32,+208,+3
151794,10.712,-2.429,1.746,-1.089570,0.400786,1.519751,100142.49,-35,+203,+7
151804,9.843,-1.900,0.978,-1.508340,0.295428,1.434613,100141.87,-35,+203,+7
151814,8.855,-1.350,0.067,-1.296029,0.306070,1.252100,100137.15,-39,+198,+11
151824,9.626,0.711,0.462,-0.667075,0.398125,1.087145,100137.15,-40,+195,+13
151834,10.278,2.437,1.015,-0.065259,0.418877,0.996687,100139.30,-42,+193,+14
151844,10.042,1.666,1.826,0.387567,0.466767,1.057347,100138.94,-42,+193,+14
151854,9.687,-0.322,2.606,0.530704,0.445483,1.085017,100139.30,-44,+192,+13
151864,9.170,-1.585,2.694,0.360429,0.383226,0.998283,100139.03,-45,+190,+13
151874,9.424,-2.409,3.119,-0.093461,0.310859,0.925916,100139.03,-48,+187,+15
151884,9.703,-1.860,3.330,-0.686231,0.190070,0.858870,100140.20,-48,+187,+15
151894,9.630,-0.115,2.521,-1.019864,0.089502,0.808852,100142.14,-49,+185,+17
151904,9.879,0.521,1.569,-0.926745,0.061832,0.801935,100140.94,-51,+180,+19
151914,10.049,0.504,1.109,-0.623442,0.079924,0.798742,100140.73,-53,+178,+21
151924,9.750,-0.147,0.803,-0.327057,0.108125,0.796081,100140.73,-53,+178,+21
151934,9.637,-0.935,0.895,-0.197754,0.141648,0.774797,100139.52,-54,+175,+21
151944,9.447,-1.453,1.404,-0.266396,0.163997,0.724779,100140.83,-55,+173,+23
151954,9.493,-1.270,1.854,-0.424965,0.170382,0.672100,100140.67,-57,+171,+23
151964,9.796,-0.851,2.146,-0.550543,0.176235,0.637513,100143.30,-57,+171,+23
151974,9.800,-0.717,2.326,-0.621846,0.171446,0.625274,100143.30,-58,+167,+27
151984,9.728,-0.498,2.154,-0.636213,0.163997,0.629531,100139.46,-58,+165,+27
151994,9.447,-0.597,1.777,-0.592048,0.171446,0.644962,100142.18,-60,+163,+28
152004,9.452,-0.697,1.644,-0.552139,0.178364,0.672632,100139.20,-60,+163,+28
152014,9.517,-0.518,1.745,-0.504249,0.181557,0.715733,100138.62,-60,+161,+30
152024,9.485,-0.395,1.853,-0.466470,0.185813,0.776393,100138.62,-62,+158,+31
152034,9.407,-0.588,1.838,-0.424965,0.190070,0.841843,100137.01,-64,+154,+33
152044,9.338,-0.728,1.700,-0.370158,0.192731,0.905164,100138.84,-64,+154,+33
152054,9.448,-0.820,1.515,-0.298323,0.206034,0.962632,100140.41,-65,+151,+33
152065,9.729,-1.171,1.430,-0.204139,0.224657,1.008393,100140.04,-66,+149,+35
152074,9.957,-1.477,1.565,-0.141351,0.234767,1.033402,100140.04,-67,+145,+35
152084,10.104,-1.471,2.036,-0.128580,0.234235,1.039256,100139.15,-67,+145,+35
152094,10.045,-1.040,2.597,-0.155717,0.215079,1.092467,100140.82,-69,+143,+37
152104,9.950,-0.303,2.728,-0.188708,0.187942,1.160045,100140.24,-70,+140,+37
152114,9.954,0.268,2.407,-0.141883,0.170914,1.298393,100137.77,-73,+136,+37
152124,10.269,0.492,1.756,-0.034396,0.160804,1.477714,100137.77,-73,+136,+37
152134,10.734,0.406,1.473,0.116723,0.156547,1.677255,100140.64,-74,+133,+38
152144,11.297,-0.238,1.218,0.245493,0.166125,1.854980,100138.64,-77,+129,+38
152154,11.959,-0.648,0.567,0.258264,0.179428,2.029512,100139.58,-80,+125,+39
152164,12.772,-1.172,-0.446,0.276888,0.181024,2.213622,100137.75,-80,+125,+39
152174,13.275,-1.147,-0.702,0.309346,0.175703,2.383365,100137.75,-83,+119,+38
152184,14.056,-0.863,-0.079,0.479089,0.162933,2.552576,100141.82,-86,+114,+38
152195,14.557,-0.998,1.021,0.635530,0.186878,2.716465,100140.41,-89,+108,+38
152204,14.850,-1.484,1.806,0.613713,0.227850,2.846300,100139.63,-89,+108,+38
152214,15.698,-1.370,1.920,0.418429,0.252327,2.961236,100140.68,-92,+103,+38
152224,17.385,-0.693,2.812,0.190686,0.231575,3.065529,100140.68,-96,+94,+39
152235,19.106,0.083,3.659,-0.095589,0.225722,3.142685,100140.22,-99,+85,+40
152244,20.988,1.618,3.211,-0.615992,0.307134,3.154924,100138.22,-99,+85,+40
152254,22.946,3.905,2.758,-1.233772,0.327355,3.209731,100138.80,-102,+75,+43
152264,24.246,7.385,1.685,-1.706285,0.326822,3.293272,100140.73,-104,+61,+45
152274,24.650,9.249,0.681,-2.082487,0.361942,3.332116,100140.73,-104,+47,+47
152285,23.531,8.885,-0.602,-2.594377,0.327355,3.250704,100139.13,-105,+31,+50
152294,19.974,7.439,-1.931,-3.112651,0.203373,3.192704,100139.13,-105,+31,+50
152304,14.879,5.431,0.462,-2.834358,0.119832,3.236869,100138.45,-105,+16,+51
152314,11.493,1.014,3.845,-1.527496,-0.016920,3.426832,100137.60,-106,+3,+51
152324,11.074,-3.840,3.761,0.076282,-0.120150,3.480575,100137.60,-105,-6,+50
152334,11.857,-4.279,7.102,0.445034,-0.123342,3.354997,100141.99,-105,-6,+50
152344,13.051,-4.644,7.590,0.430135,-0.198370,3.200685,100138.59,-105,-14,+50
152354,12.109,-5.029,6.836,0.639255,-0.137177,2.909621,100137.12,-103,-20,+52
152365,8.314,-4.686,6.642,0.772814,-0.086627,2.445621,100136.80,-103,-25,+51
152374,6.035,-1.564,4.789,0.472172,-0.201563,1.819861,100136.80,-103,-25,+51
152384,5.820,1.222,1.348,0.124704,-0.373434,1.126522,100139.09,-103,-29,+50
152394,5.621,1.617,1.173,0.311475,-0.385140,0.676357,100140.83,-103,-29,+50
152404,4.824,2.833,1.983,0.352979,-0.530939,0.216614,100139.52,-103,-28,+49
152414,3.210,3.741,1.915,0.248154,-0.733672,-0.341037,100137.94,-103,-28,+49
152424,1.204,3.841,2.202,0.180044,-0.829452,-0.897624,100137.94,-105,-26,+47
152434,0.999,3.839,2.007,0.074154,-0.916718,-1.337147,100137.13,-107,-22,+45
152444,1.204,3.231,1.023,0.173126,-1.077947,-1.659605,100137.91,-111,-17,+43
152455,1.269,1.879,1.260,0.505695,-1.157764,-1.939495,100136.86,-111,-17,+43
152464,1.163,0.707,1.920,0.797823,-1.234920,-2.300265,100136.59,-114,-9,+40
152474,1.441,0.335,2.379,0.893603,-1.322186,-2.708394,100136.59,-116,+0,+37
152484,1.934,0.625,2.709,0.955328,-1.385507,-3.112797,100137.91,-119,+11,+33
152495,2.498,1.111,3.134,1.102190,-1.404663,-3.544870,100135.19,-119,+11,+33
152504,3.264,1.644,3.387,1.268208,-1.414241,-3.963640,100135.61,-122,+25,+29
152514,4.108,1.592,3.610,1.408685,-1.391892,-4.312172,100138.33,-122,+40,+23
152524,4.858,0.962,4.021,1.433162,-1.341342,-4.603768,100138.33,-121,+57,+20
152535,5.183,0.484,4.219,1.303860,-1.329103,-4.907071,100134.72,-121,+57,+20
152544,5.887,0.258,4.340,1.092080,-1.319525,-5.227933,100132.89,-119,+75,+14
152554,7.049,0.170,4.464,0.934043,-1.258865,-5.511015,100135.72,-116,+94,+10
152564,8.389,0.238,4.631,0.841456,-1.150846,-5.758979,100132.47,-110,+112,+5
152574,9.904,0.324,4.545,0.828153,-1.050810,-5.984593,100132.47,-110,+112,+5
152585,11.412,0.360,4.292,0.910630,-0.929489,-6.201694,100134.27,-102,+131,+1
152594,13.085,0.361,3.939,1.098465,-0.799122,-6.419859,100134.43,-92,+152,-2
152604,15.394,0.163,3.773,1.415071,-0.650663,-6.603969,100136.48,-80,+171,-6
152614,18.521,-0.596,4.103,1.780630,-0.494223,-6.750299,100135.21,-80,+171,-6
152625,22.102,-1.838,4.757,2.080208,-0.380884,-6.855125,100135.21,-64,+192,-11
152634,24.863,-3.217,5.789,2.315932,-0.276590,-6.887052,100140.20,-46,+211,-17
152644,25.623,-4.990,5.976,2.446299,-0.170700,-6.826923,100139.67,-27,+227,-25
152654,25.049,-10.375,6.483,2.014226,-0.145691,-6.583749,100135.17,-27,+227,-25
152665,22.974,-14.650,5.900,1.552887,-0.442076,-6.144226,100134.13,-7,+242,-29
152674,21.655,-14.570,6.749,1.382080,-0.452718,-5.508887,100134.13,+10,+252,-35
152684,20.162,-13.624,8.777,1.623658,-0.353214,-4.680924,100137.15,+25,+260,-40
152694,17.843,-17.891,11.424,1.592263,-0.165379,-3.778998,100139.66,+25,+260,-40
152705,12.389,-25.617,12.512,1.322483,0.102804,-2.885586,100139.51,+37,+266,-44
152715,7.788,-29.147,12.111,0.586044,0.311923,-2.047513,100138.35,+47,+270,-47
152724,7.460,-25.045,9.623,-0.078562,0.416749,-0.685312,100138.35,+49,+270,-46
152734,10.659,-16.555,6.409,0.066704,0.504547,0.891329,100139.44,+49,+270,-46
152744,14.095,-10.428,3.987,1.390594,0.797740,2.257787,100137.81,+44,+270,-46
152755,14.290,-10.167,-1.370,2.271235,0.610437,3.241658,100139.06,+35,+270,-53
152764,19.840,13.562,-11.963,1.842355,-0.253709,3.139493,100136.44,+24,+268,-59
152774,19.623,33.455,-15.700,0.332759,-0.485177,0.961568,100136.44,+24,+268,-59
152784,13.537,3.336,1.284,2.543675,0.641299,2.301952,100141.10,+21,+267,-60
152795,16.361,-17.589,-0.278,4.084665,1.044106,3.225694,100140.30,+11,+266,-72
152804,15.784,-16.744,1.580,3.036941,1.293666,3.528997,100140.04,+0,+262,-79
152814,12.747,-6.857,-0.230,1.085695,0.933428,3.116612,100141.20,-8,+259,-81
152824,9.499,-1.724,5.102,0.818576,1.109024,2.566411,100141.20,-8,+259,-81
152835,8.529,-0.259,5.953,1.435291,1.337299,2.400924,100137.23,-16,+255,-81
152845,7.791,-1.288,5.516,1.526281,1.198418,2.132741,100139.81,-23,+252,-84
152855,8.651,-3.377,3.319,1.079132,0.909305,1.884601,100139.34,-28,+250,-86
152864,10.523,-3.567,2.055,0.579126,0.773795,1.778356,100136.45,-28,+250,-86
152875,10.133,-3.206,1.506,0.085328,0.641299,1.720888,100136.45,-33,+246,-85
152885,10.206,-3.275,0.404,-0.312158,0.514657,1.613934,100138.61,-39,+242,-83
152894,11.266,-2.919,0.792,-0.697937,0.475813,1.543164,100138.39,-43,+240,-79
152904,10.586,-1.847,1.063,-0.875130,0.468896,1.446852,100138.50,-43,+240,-79
152914,9.448,-1.007,0.167,-0.690488,0.450804,1.278173,100136.61,-47,+236,-77
152925,9.258,0.651,0.252,-0.109956,0.550841,1.184522,100136.61,-51,+234,-76
152934,9.964,2.133,1.515,0.443970,0.584364,1.173879,100139.35,-54,+231,-75
152944,10.055,0.094,1.688,0.802612,0.550309,1.176540,100141.13,-54,+231,-75
152954,9.928,-1.722,1.691,0.876575,0.530088,1.118008,100138.77,-56,+229,-76
152965,9.540,-2.148,2.079,0.667988,0.491244,1.029145,100138.04,-60,+228,-77
152974,9.820,-2.605,2.285,0.234319,0.425263,0.969017,100138.04,-62,+225,-77
152984,9.721,-2.503,2.196,-0.288745,0.335336,0.902503,100140.02,-62,+225,-77
152994,9.583,-1.039,1.732,-0.619717,0.257116,0.834925,100142.23,-64,+224,-74
153005,9.808,-0.037,1.306,-0.561717,0.243281,0.812577,100139.98,-67,+220,-72
153015,10.031,-0.241,1.002,-0.358983,0.238492,0.819494,100138.82,-69,+218,-72
153024,9.958,-0.799,0.979,-0.145075,0.246474,0.799806,100138.82,-69,+218,-72
153034,9.802,-1.329,1.270,-0.048763,0.251263,0.748192,100141.68,-71,+217,-71
153044,9.732,-1.869,1.796,-0.115277,0.246474,0.695513,100140.70,-73,+216,-69
153055,9.677,-2.310,1.990,-0.326525,0.222529,0.633256,100137.65,-74,+214,-67
153065,9.616,-2.083,1.914,-0.606414,0.194859,0.565678,100141.10,-74,+214,-67
153074,9.716,-1.111,1.830,-0.770304,0.176768,0.516192,100141.10,-76,+213,-66
153084,9.812,-0.505,1.868,-0.757002,0.167722,0.500228,100144.02,-77,+209,-63
153091,9.802,-0.491,1.847,-0.697405,0.169318,0.498632,100140.46,-77,+209,-63
153100,9.618,-0.709,1.716,-0.630359,0.168254,0.505017,100140.46,-78,+209,-61
153110,9.485,-0.808,1.601,-0.555864,0.171446,0.531623,100141.93,-80,+206,-59
153119,9.379,-0.884,1.485,-0.486690,0.175171,0.573660,100138.48,-82,+205,-57
153129,9.317,-1.154,1.331,-0.416451,0.185281,0.617293,100138.48,-82,+205,-57
153140,9.304,-1.441,1.215,-0.355791,0.196988,0.653476,100140.53,-83,+203,-56
153150,9.468,-1.580,1.296,-0.330782,0.207630,0.672632,100140.17,-85,+201,-55
153159,9.717,-1.561,1.527,-0.346745,0.222529,0.687531,100142.11,-85,+199,-53
153169,9.928,-1.561,1.800,-0.361644,0.227318,0.704559,100142.11,-85,+199,-53
153180,10.045,-1.360,2.154,-0.365901,0.230511,0.726375,100142.11,-87,+196,-52
153190,10.055,-1.202,2.223,-0.378671,0.230511,0.758302,100143.59,-89,+194,-50
153199,10.164,-0.941,2.091,-0.386653,0.219336,0.809384,100140.98,-91,+192,-49
153209,10.218,-0.494,1.939,-0.351534,0.198584,0.890797,100139.61,-91,+192,-49
153220,10.112,-0.344,1.895,-0.289277,0.191134,1.009990,100137.83,-92,+189,-47
153230,9.896,-0.025,1.501,-0.240855,0.191667,1.154723,100137.83,-96,+185,-47
153240,10.043,0.302,1.016,-0.156250,0.167722,1.344154,100142.77,-98,+182,-45
153249,10.584,0.469,1.006,0.006576,0.160804,1.550613,100141.22,-98,+182,-45
153260,11.533,-0.047,0.924,0.154502,0.153355,1.753347,100139.98,-103,+177,-45
153270,12.357,-0.625,0.361,0.225805,0.166125,1.944374,100139.98,-107,+172,-45
153280,13.106,-0.801,-0.267,0.249750,0.156015,2.129016,100140.15,-112,+165,-45
153289,13.440,-0.350,-0.131,0.346062,0.141116,2.338135,100140.15,-112,+165,-45
153299,13.878,-0.303,0.516,0.520062,0.135263,2.541934,100139.52,-116,+159,-45
153310,14.109,-0.637,1.374,0.638190,0.154951,2.726576,100144.09,-121,+153,-45
153320,14.381,-1.030,1.846,0.620099,0.182621,2.875034,100139.57,-126,+143,-46
153329,15.371,-0.891,1.692,0.479622,0.189006,3.004869,100139.57,-126,+143,-46
153339,16.998,0.142,2.784,0.345530,0.157079,3.127254,100140.48,-132,+133,-46
153350,17.689,0.916,3.644,0.183236,0.183153,3.236869,100138.02,-137,+124,-45
153360,19.568,1.161,3.277,-0.201479,0.305538,3.281034,100141.68,-141,+113,-44
153370,22.881,3.794,3.040,-0.757534,0.343850,3.308704,100139.88,-141,+113,-44
153379,24.030,7.315,3.233,-1.236432,0.422602,3.401823,100141.88,-145,+101,-40
153390,23.909,9.853,2.804,-1.613166,0.578510,3.423639,100139.56,-148,+88,-38
153400,23.162,8.963,0.693,-2.123991,0.604052,3.408208,100138.83,-152,+74,-33
153409,20.418,6.755,-1.157,-2.683239,0.523171,3.311896,100138.83,-152,+74,-33
153419,16.074,2.818,-0.331,-2.641734,0.456657,3.262410,100139.98,-154,+60,-30
153430,12.448,-4.150,3.950,-1.946799,0.297024,3.407144,100139.98,-155,+45,-27
153440,11.951,-6.983,5.959,-1.163001,0.136859,3.701933,100141.69,-157,+32,-25
153445,13.518,-5.792,8.709,-0.337699,0.306602,3.800905,100141.16,-157,+32,-25
153454,15.102,-5.682,9.800,0.052870,0.402914,3.567841,100133.92,-158,+19,-23
153464,13.012,-5.045,7.078,-0.050892,0.270419,2.856942,100136.50,-158,+10,-22
153475,9.056,0.300,2.873,-0.754341,0.092694,1.800173,100136.50,-158,+10,-22
153485,6.431,4.172,0.095,-1.266230,-0.010535,0.995090,100140.25,-158,+5,-22
153495,5.391,5.515,0.658,-1.071478,0.092694,0.568338,100138.94,-157,+1,-22
153504,5.154,6.158,1.322,-0.888965,0.022988,0.227256,100139.41,-158,+1,-22
153515,4.375,5.513,0.841,-0.575552,-0.129728,-0.200028,100139.45,-158,+1,-22
153525,3.500,4.392,0.829,-0.229149,-0.162719,-0.639551,100139.45,-158,+3,-22
153535,2.814,3.197,1.227,0.077879,-0.156865,-1.053000,100140.68,-158,+5,-23
153544,2.065,1.946,1.582,0.427475,-0.197306,-1.448890,100140.68,-158,+11,-23
153554,1.679,0.835,1.796,0.764832,-0.280847,-1.848504,100137.65,-158,+11,-23
153565,1.751,0.249,1.631,1.027695,-0.386737,-2.261953,100135.02,-158,+21,-25
153575,2.082,0.108,1.303,1.178814,-0.484645,-2.682320,100135.02,-158,+32,-27
153585,2.639,0.270,1.044,1.266080,-0.572443,-3.070228,100138.46,-158,+44,-29
153594,3.211,0.353,1.014,1.349089,-0.650131,-3.406522,100136.21,-158,+44,-29
153605,3.462,0.178,1.394,1.434759,-0.700149,-3.695989,100135.16,-155,+60,-33
153615,3.752,-0.054,1.977,1.462960,-0.729415,-3.993438,100135.74,-153,+75,-37
153625,4.183,-0.098,2.450,1.421988,-0.766131,-4.343035,100135.74,-149,+92,-41
153634,4.955,-0.171,2.772,1.307584,-0.821470,-4.697420,100139.43,-149,+92,-41
153645,5.802,-0.216,2.868,1.134649,-0.882131,-5.017218,100136.54,-143,+111,-45
153655,6.654,-0.350,2.846,0.956392,-0.915122,-5.302429,100138.48,-136,+130,-50
153665,7.689,-0.443,2.891,0.803144,-0.905012,-5.558373,100135.45,-126,+148,-55
153674,9.011,-0.447,2.875,0.691401,-0.858186,-5.798887,100135.45,-126,+148,-55
153684,10.438,-0.466,2.656,0.633933,-0.800718,-6.027162,100137.34,-114,+167,-59
153695,11.854,-0.444,2.505,0.668521,-0.716113,-6.241070,100134.77,-100,+187,-63
153705,13.486,-0.286,2.426,0.759511,-0.627782,-6.434758,100135.45,-85,+206,-67
153715,15.596,-0.283,2.657,0.957988,-0.518700,-6.614079,100134.82,-85,+206,-67
153724,18.533,-0.915,3.419,1.282043,-0.368645,-6.765730,100134.82,-66,+223,-72
153735,21.906,-2.202,4.573,1.714648,-0.246260,-6.863106,100138.40,-46,+240,-77
153745,24.583,-3.369,4.318,2.011033,-0.152608,-6.933877,100137.51,-23,+255,-83
153755,25.632,-9.184,5.075,1.622061,-0.008407,-6.845015,100136.46,-23,+255,-83
153764,24.104,-13.050,4.006,1.200630,-0.166443,-6.559272,100134.48,+0,+266,-88
153775,22.972,-13.811,4.671,0.759511,-0.315434,-6.128795,100134.48,+23,+276,-92
153785,21.188,-13.139,6.496,0.848906,-0.353746,-5.441841,100140.09,+43,+283,-96
153795,19.117,-13.667,8.993,1.040997,-0.321819,-4.620796,100136.75,+58,+287,-99
153804,17.502,-21.354,11.385,0.824961,-0.103654,-3.758778,100139.84,+58,+287,-99
153815,10.677,-26.467,11.505,-0.146140,0.030969,-3.064375,100135.86,+71,+289,-100
153825,7.005,-26.203,11.732,-1.111919,0.294896,-2.189054,100135.86,+80,+290,-96
153835,8.920,-20.499,9.511,-1.649882,0.384290,-0.799716,100140.03,+81,+289,-91
153844,11.491,-13.171,4.928,-1.205570,0.518382,0.659861,100138.88,+81,+289,-91
153854,12.864,-10.130,3.101,0.333291,0.848290,1.917769,100140.97,+76,+290,-89
153865,14.111,-10.565,2.934,1.537456,1.001538,2.885144,100139.03,+66,+288,-94
153875,15.126,-6.037,-3.490,1.628447,0.502951,3.134172,100139.03,+55,+286,-98
153885,16.663,3.943,-9.131,1.112832,0.085777,3.042649,100143.20,+55,+286,-98
153894,22.527,37.828,-21.407,-0.123791,-0.543709,1.487292,100146.08,+45,+285,-101
153905,11.621,20.334,-7.152,1.246392,-0.005214,1.139824,100145.55,+43,+285,-104
153915,12.264,-10.010,-1.002,4.443307,0.568932,2.910153,100141.83,+32,+282,-119
153925,15.127,-16.153,3.623,5.044059,1.120198,3.280502,100141.83,+32,+282,-119
153934,13.839,-9.865,0.444,3.484445,0.897244,3.246447,100144.43,+19,+277,-131
153945,12.048,-7.170,0.136,1.864171,0.757299,2.465842,100143.32,+10,+272,-137
153955,9.143,-3.189,4.978,1.648135,1.018565,2.140191,100143.38,+2,+269,-140
153965,8.511,-0.031,6.670,2.026464,1.224492,1.953952,100139.82,+2,+269,-140
153974,8.938,-0.560,5.666,1.890777,1.100510,1.609677,100139.82,-3,+266,-144
153985,10.426,-4.768,2.650,1.047915,0.774327,1.471861,100143.01,-9,+263,-147
153995,11.536,-5.604,2.406,0.219420,0.633850,1.448980,100141.70,-14,+260,-146
154005,11.101,-4.289,2.260,-0.679313,0.436969,1.432485,100141.07,-14,+260,-146
154015,10.680,-2.690,1.470,-1.395001,0.273611,1.310632,100138.66,-19,+258,-142
154024,10.700,-1.471,1.666,-1.989900,0.218804,1.250503,100138.66,-24,+258,-136
154036,9.694,-0.726,0.804,-2.183410,0.144841,1.169090,100140.63,-27,+256,-130
154045,9.103,0.024,0.196,-1.747790,0.214547,0.998283,100141.41,-27,+256,-130
154055,9.617,1.836,0.153,-1.064029,0.326290,0.875898,100140.47,-32,+254,-123
154064,10.433,3.880,0.481,-0.258415,0.428988,0.870577,100141.67,-34,+252,-123
154075,9.774,2.908,1.960,0.477493,0.526896,1.008393,100141.67,-39,+251,-123
154085,8.960,-0.000,3.222,0.778667,0.497630,1.085017,100142.48,-39,+251,-123
154095,9.406,-2.392,3.753,0.488135,0.398657,0.999879,100140.96,-41,+249,-125
154105,9.722,-3.029,3.484,-0.158910,0.248070,0.890265,100142.16,-43,+246,-124
154115,9.736,-1.839,2.510,-0.689424,0.120896,0.779054,100138.80,-46,+245,-122
154125,10.000,-0.613,1.861,-0.954414,0.062364,0.702430,100138.80,-46,+245,-122
154135,10.029,0.205,1.279,-0.939515,0.054914,0.655072,100139.50,-48,+244,-118
154145,9.818,0.731,0.797,-0.753809,0.089502,0.658797,100142.44,-49,+243,-116
154155,9.541,0.376,0.681,-0.472323,0.133135,0.659861,100138.72,-53,+240,-115
154165,9.471,-0.722,1.017,-0.222231,0.173043,0.592815,100140.81,-53,+240,-115
154175,9.587,-1.654,1.749,-0.195626,0.198052,0.503421,100140.81,-54,+240,-113
154185,9.736,-1.562,2.353,-0.381864,0.189006,0.436375,100142.68,-57,+239,-113
154194,9.712,-0.845,2.596,-0.589919,0.161868,0.409238,100141.46,-57,+238,-110
154205,9.637,-0.053,2.652,-0.688891,0.133135,0.408173,100139.12,-57,+238,-110
154215,9.655,0.274,2.570,-0.712836,0.115043,0.407109,100139.59,-58,+236,-108
154225,9.740,0.370,2.275,-0.703258,0.110254,0.415091,100139.59,-59,+236,-106
154235,9.705,0.560,2.121,-0.691552,0.111850,0.462449,100141.76,-60,+235,-103
154245,9.643,0.639,1.887,-0.628231,0.115575,0.543329,100140.02,-60,+235,-103
154255,9.535,0.147,1.559,-0.539901,0.124621,0.640173,100139.51,-62,+233,-101
154265,9.478,-0.304,1.358,-0.469130,0.131006,0.724247,100137.93,-64,+231,-100
154275,9.412,-0.107,1.380,-0.426029,0.135795,0.809916,100137.93,-67,+230,-99
154285,9.416,0.136,1.522,-0.364305,0.148566,0.881751,100139.26,-69,+227,-98
154295,9.516,0.238,1.630,-0.275442,0.157612,0.962632,100142.45,-69,+227,-98
154305,9.728,-0.005,1.463,-0.192433,0.170382,1.043512,100138.30,-73,+225,-96
154315,9.946,-0.527,1.603,-0.067387,0.177300,1.130779,100139.57,-76,+222,-96
154324,9.956,-0.854,1.786,-0.055681,0.173575,1.218577,100139.57,-80,+219,-95
154335,9.888,-0.607,2.136,-0.081222,0.158676,1.307971,100142.27,-80,+219,-95
154345,9.622,0.026,2.575,-0.081754,0.136859,1.408540,100141.21,-83,+216,-94
154355,9.371,0.501,2.655,-0.054617,0.116639,1.541567,100138.54,-88,+212,-93
154364,9.750,0.628,2.439,0.024668,0.088969,1.695347,100140.96,-92,+207,-93
154375,10.691,0.042,2.176,0.159824,0.058639,1.854448,100140.96,-92,+207,-93
154385,11.543,-0.796,1.819,0.234319,0.024584,1.989604,100140.36,-97,+201,-94
154391,11.548,-1.056,1.299,0.258264,0.035226,2.067291,100141.31,-97,+201,-94
154400,11.818,-1.287,0.561,0.268374,0.031502,2.159879,100141.31,-102,+196,-94
154411,12.346,-1.206,-0.065,0.354576,0.023520,2.295034,100142.94,-108,+189,-94
154420,12.711,-1.197,0.234,0.498778,0.027777,2.437108,100137.91,-113,+182,-95
154430,13.195,-1.173,1.004,0.617438,0.033098,2.564282,100137.91,-113,+182,-95
154440,13.688,-1.372,1.905,0.637658,0.052254,2.655273,100141.43,-120,+175,-96
154450,14.478,-1.957,2.184,0.504631,0.063960,2.703163,100139.51,-125,+167,-97
154460,16.247,-1.495,3.015,0.274227,0.011813,2.754245,100137.79,-132,+158,-96
154470,17.989,-0.352,4.611,0.048081,-0.049911,2.829273,100137.79,-132,+158,-96
154480,19.464,0.105,4.139,-0.369626,0.003300,2.896851,100137.79,-137,+149,-96
154490,21.338,1.458,2.278,-0.976763,0.038419,2.960172,100142.95,-142,+139,-94
154500,22.666,4.260,0.587,-1.470561,-0.007342,3.072447,100141.05,-148,+127,-92
154510,23.089,7.906,-0.133,-1.680744,0.001171,3.196960,100140.90,-153,+117,-89
154520,22.573,10.315,-0.338,-1.681276,0.048529,3.284227,100140.59,-153,+117,-89
154530,21.176,10.251,-0.704,-1.798340,0.011813,3.291144,100140.59,-157,+105,-86
154541,19.180,8.089,-0.806,-2.101643,-0.125471,3.253364,100142.38,-161,+93,-84
154550,15.533,6.315,1.492,-1.861661,-0.387269,3.239529,100138.80,-166,+81,-84
154560,11.271,0.292,3.560,-0.520213,-0.607030,3.529529,100139.60,-166,+81,-84
154570,11.933,-7.347,6.132,1.117089,-0.230296,4.138795,100139.60,-169,+67,-85
154580,13.544,-9.345,10.199,1.815749,-0.039801,4.217547,100141.48,-171,+52,-86
154590,13.244,-5.078,6.578,1.319823,-0.298939,3.101181,100141.48,-173,+43,-87
154600,10.404,1.076,3.520,0.312007,-0.431434,1.860833,100139.38,-173,+43,-87
154610,6.771,5.441,1.172,-0.327589,-0.563929,1.208999,100138.65,-174,+38,-89
154620,5.764,6.091,1.969,-0.163699,-0.470278,0.950925,100138.29,-175,+35,-90
154630,5.523,6.057,2.624,-0.004598,-0.541049,0.628999,100138.29,-175,+33,-92
154640,4.633,5.665,2.116,0.083200,-0.754425,0.162871,100140.52,-175,+33,-92
154650,3.970,5.364,1.934,0.261457,-0.914057,-0.335716,100135.76,-174,+34,-95
154660,3.581,4.616,1.982,0.556245,-1.049213,-0.797055,100139.95,-175,+36,-99
154671,3.377,3.322,2.113,0.913291,-1.212039,-1.199330,100138.06,-174,+43,-103
154680,3.219,1.808,2.421,1.221383,-1.374332,-1.560633,100141.00,-174,+43,-103
154690,3.119,0.844,2.661,1.407089,-1.522791,-1.939495,100138.91,-173,+50,-110
154700,3.133,0.571,2.786,1.513511,-1.633470,-2.343366,100138.02,-171,+58,-116
154710,3.201,0.664,3.232,1.602373,-1.695195,-2.731274,100138.02,-169,+70,-124
154720,3.367,1.003,3.715,1.666759,-1.740424,-3.086191,100138.22,-169,+70,-124
154730,3.755,1.096,4.142,1.717309,-1.739892,-3.419292,100138.22,-165,+82,-130
154740,4.408,0.828,4.698,1.728483,-1.683488,-3.748136,100138.13,-160,+94,-139
154745,4.873,0.433,5.247,1.680061,-1.630277,-3.993438,100137.13,-160,+94,-139
154755,5.232,-0.083,5.662,1.584281,-1.594094,-4.258429,100134.14,-154,+109,-147
154765,5.816,-0.790,6.019,1.366117,-1.557910,-4.624521,100134.98,-146,+125,-154
154775,6.606,-1.104,6.195,1.051108,-1.495121,-4.973053,100134.98,-135,+125,+0
154785,7.606,-0.781,6.263,0.766429,-1.380718,-5.281144,100135.66,-135,+141,-161
154796,8.758,-0.189,6.160,0.609456,-1.230663,-5.553052,100133.97,-124,+158,-166
154805,9.946,0.400,5.754,0.629677,-1.052406,-5.782392,100131.78,-110,+176,-172
154815,11.317,0.648,5.286,0.810062,-0.852333,-5.976079,100132.61,-95,+193,-177
154825,12.857,0.440,4.926,1.078777,-0.663434,-6.135713,100132.61,-95,+193,-177
154835,14.807,-0.095,4.897,1.374630,-0.495819,-6.270336,100135.11,-78,+208,-182
154845,17.545,-1.172,5.397,1.680061,-0.323416,-6.360263,100137.69,-60,+221,-188
154855,20.684,-2.758,6.045,1.884391,-0.151012,-6.434226,100134.33,-41,+234,-193
154865,22.650,-3.906,6.640,1.876410,-0.025434,-6.506061,100137.69,-41,+234,-193
154875,22.660,-4.463,6.509,1.829052,0.108125,-6.495419,100137.69,-19,+244,-199
154886,22.633,-7.266,4.574,1.569382,0.201245,-6.321951,100137.85,+0,+252,-203
154895,22.264,-13.787,3.802,1.096869,0.018199,-5.928722,100138.54,+19,+260,-206
154905,20.131,-13.418,4.225,1.095805,-0.318627,-5.342337,100139.48,+19,+260,-206
154915,19.195,-10.201,6.653,1.249584,-0.389929,-4.652722,100136.38,+37,+263,-211
154926,18.038,-13.355,11.068,1.599713,-0.221251,-3.819439,100136.38,+51,+264,-216
154935,13.358,-20.170,12.529,1.780630,0.000107,-2.970191,100140.07,+60,+264,-222
154945,9.003,-24.489,11.133,1.278850,0.196988,-2.253440,100142.01,+60,+264,-222
154955,8.002,-22.944,9.655,0.572209,0.364070,-1.280211,100139.91,+67,+264,-224
154966,9.698,-17.414,6.096,0.472704,0.510400,-0.105845,100137.51,+67,+264,-225
154975,11.127,-14.855,4.422,0.991511,0.752510,1.054155,100137.51,+61,+261,-228
154985,11.444,-16.252,4.543,1.245328,0.840840,2.151365,100143.12,+61,+261,-228
154995,13.844,-14.866,4.599,1.059621,0.902033,2.861199,100139.62,+51,+256,-231
155005,14.665,-7.770,-2.229,0.062448,0.386419,2.915474,100139.62,+41,+253,-231
155016,18.384,11.212,-10.884,-0.662286,-0.080774,2.635053,100139.13,+32,+253,-229
155025,18.378,33.240,-17.140,-1.377441,-0.505929,1.032870,100139.13,+32,+253,-229
155035,11.233,15.817,-3.501,1.004282,0.199116,1.491549,100143.95,+30,+254,-227
155045,13.772,-8.035,-0.630,3.724959,0.653538,2.759034,100144.38,+21,+244,-236
155056,14.629,-13.309,3.774,4.319858,1.029207,3.011786,100141.59,+9,+233,-247
155065,13.554,-8.933,3.009,3.391858,0.977061,2.820759,100139.02,+9,+233,-247
155075,11.854,-6.676,5.767,2.392024,1.126051,2.238631,100139.02,+0,+222,-252
155085,10.871,-5.374,4.699,1.685382,1.268657,1.953952,100142.74,-7,+216,-255
155096,10.068,-4.262,2.484,0.900520,1.117538,1.760264,100141.32,-15,+211,-254
155105,9.332,-4.717,1.993,0.136411,0.971740,1.567641,100142.63,-15,+211,-254
155115,10.257,-5.191,1.400,-0.643662,0.830198,1.417586,100138.49,-21,+209,-253
155125,11.404,-3.553,2.077,-1.172579,0.706749,1.339365,100138.49,-26,+209,-249
155136,10.754,-1.324,2.498,-1.392873,0.556162,1.244118,100142.28,-31,+209,-244
155146,10.170,0.055,2.007,-1.452469,0.431648,1.150467,100142.39,-31,+209,-244
155155,9.514,0.608,1.624,-1.249735,0.414088,1.083953,100142.17,-35,+210,-241
155165,9.515,0.511,0.689,-0.925680,0.411960,1.000412,100140.50,-38,+209,-238
155175,9.944,0.006,0.693,-0.602158,0.426327,0.984980,100140.50,-41,+210,-235
155186,10.292,0.323,1.638,-0.346745,0.457189,0.979127,100144.11,-41,+210,-235
155195,9.888,1.594,1.798,-0.100910,0.464107,0.948265,100140.75,-45,+207,-233
155205,9.246,1.781,2.231,0.241236,0.458254,0.939219,100141.17,-49,+206,-233
155215,9.288,-0.477,3.097,0.443970,0.368327,0.905164,100139.81,-52,+203,-233
155226,9.679,-2.415,3.144,0.244961,0.243813,0.796614,100139.81,-52,+203,-233
155235,9.837,-2.447,2.403,-0.171681,0.153887,0.665182,100141.83,-53,+201,-233
155245,9.920,-1.555,1.854,-0.523937,0.091630,0.578449,100141.94,-55,+201,-232
155255,9.932,-0.491,1.513,-0.676121,0.056511,0.535880,100141.20,-57,+200,-230
155266,9.707,0.077,0.901,-0.618653,0.052786,0.508210,100140.16,-58,+201,-229
155275,9.691,0.173,0.607,-0.440396,0.091630,0.502357,100140.16,-58,+201,-229
155285,9.856,0.261,0.678,-0.239259,0.123557,0.524705,100143.30,-60,+200,-227
155295,9.721,-0.190,1.160,-0.047167,0.152290,0.529494,100142.26,-62,+199,-227
155305,9.593,-1.010,1.850,-0.009919,0.153355,0.505017,100143.20,-63,+197,-226
155316,9.727,-1.413,2.488,-0.244580,0.125153,0.473623,100139.54,-63,+197,-226
155325,9.680,-0.949,2.625,-0.606947,0.091098,0.433183,100139.54,-65,+197,-226
155336,9.613,-0.307,2.070,-0.917344,0.058284,0.414559,100142.68,-65,+197,-223
155345,9.741,0.073,1.624,-0.991130,0.059171,0.421476,100143.41,-67,+198,-221
