159975,8.816,-3.172,3.316,-0.079502,0.023730,-0.032544,100262.74,-121,-9,-249
159985,8.782,-2.938,3.413,-0.101319,0.029583,-0.044250,100263.88,-121,-9,-249
159995,8.713,-2.878,3.467,-0.095997,0.033308,-0.050636,100264.62,-122,-8,-249
160006,8.719,-2.894,3.467,-0.085355,0.032243,-0.055957,100263.21,-122,-8,-249
160015,8.742,-2.874,3.413,-0.056089,0.031179,-0.062874,100267.20,-122,-9,-249
160025,8.709,-2.974,3.380,-0.031612,0.030647,-0.068195,100267.20,-122,-8,-249
160035,8.754,-2.864,3.372,-0.021502,0.031711,-0.075113,100264.88,-122,-7,-249
160046,8.725,-2.819,3.456,-0.017245,0.034904,-0.080966,100264.88,-122,-7,-249
160055,8.740,-2.737,3.510,-0.010860,0.034904,-0.082030,100268.42,-122,-7,-249
160065,8.758,-2.726,3.486,0.000314,0.033840,-0.079902,100261.81,-122,-7,-249
160075,8.801,-2.692,3.477,0.007232,0.033308,-0.077773,100266.80,-122,-7,-248
160086,8.781,-2.684,3.481,0.014149,0.036500,-0.074049,100266.64,-122,-8,-249
160096,8.807,-2.681,3.526,0.024259,0.035968,-0.069260,100266.64,-122,-8,-249
160105,8.787,-2.714,3.525,0.030113,0.033308,-0.062874,100266.78,-122,-7,-249
160115,8.758,-2.694,3.498,0.025324,0.034904,-0.057553,100262.92,-123,-7,-248
160125,8.845,-2.628,3.494,0.022131,0.037565,-0.052232,100265.89,-123,-7,-248
160136,8.792,-2.680,3.494,0.029048,0.035968,-0.045847,100265.89,-123,-7,-248
160145,8.732,-2.683,3.481,0.031709,0.035436,-0.036801,100265.89,-122,-6,-248
160155,8.732,-2.632,3.443,0.031709,0.035968,-0.033076,100264.92,-122,-6,-248
160165,8.797,-2.597,3.456,0.043947,0.033840,-0.024030,100265.75,-123,-6,-247
160176,8.785,-2.633,3.498,0.062571,0.032776,-0.015517,100264.97,-123,-6,-247
160181,8.725,-2.671,3.498,0.070021,0.032776,-0.009663,100264.44,-122,-7,-246
160190,8.768,-2.683,3.517,0.062571,0.035436,-0.007535,100264.44,-122,-7,-246
160200,8.768,-2.674,3.543,0.049801,0.038629,-0.002746,100266.61,-123,-7,-247
160210,8.757,-2.681,3.609,0.043947,0.038097,0.003639,100265.34,-123,-6,-248
160221,8.725,-2.673,3.610,0.039691,0.040225,0.006300,100267.92,-123,-7,-247
160230,8.760,-2.670,3.621,0.040755,0.039693,0.007896,100263.36,-123,-7,-247
160240,8.816,-2.705,3.546,0.049268,0.035968,0.010557,100263.36,-123,-7,-247
160250,8.782,-2.771,3.481,0.060443,0.034904,0.012685,100264.69,-123,-7,-247
160261,8.836,-2.767,3.461,0.069489,0.037032,0.014814,100263.33,-123,-7,-247
160270,8.858,-2.853,3.487,0.073746,0.036500,0.015346,100263.91,-123,-7,-247
160280,8.812,-2.858,3.524,0.060975,0.038097,0.017474,100262.80,-123,-7,-246
160290,8.750,-2.718,3.542,0.043415,0.041821,0.012685,100262.80,-123,-7,-246
160301,8.708,-2.611,3.584,0.037562,0.039161,0.015878,100267.05,-123,-8,-246
160310,8.709,-2.608,3.601,0.052993,0.033840,0.020135,100265.63,-123,-7,-245
160320,8.787,-2.759,3.548,0.067360,0.030647,0.027052,100265.63,-123,-7,-245
160330,8.769,-2.843,3.553,0.055122,0.028519,0.027584,100262.38,-123,-8,-246
160340,8.768,-2.749,3.530,0.051397,0.027987,0.028649,100262.38,-124,-8,-246
160351,8.788,-2.767,3.445,0.046076,0.026390,0.030777,100267.16,-123,-8,-246
160360,8.763,-2.863,3.444,0.031709,0.033308,0.030777,100264.49,-123,-8,-246
160370,8.816,-2.756,3.434,0.031709,0.038097,0.031309,100267.16,-123,-8,-245
160380,8.855,-2.540,3.544,0.069489,0.035968,0.035034,100264.71,-124,-9,-245
160391,8.726,-2.639,3.641,0.107801,0.027987,0.044612,100264.71,-125,-10,-245
160400,8.688,-2.748,3.586,0.116314,0.029051,0.045676,100263.92,-125,-10,-245
160410,8.675,-2.796,3.608,0.099287,0.039693,0.045144,100266.66,-124,-10,-245
160416,8.672,-2.647,3.648,0.088112,0.041289,0.046740,100260.20,-124,-10,-245
160425,8.558,-2.392,3.695,0.098223,0.048739,0.050997,100260.20,-123,-11,-244
160436,8.505,-2.471,3.669,0.122700,0.040757,0.061107,100264.97,-125,-11,-245
160446,8.700,-2.325,3.420,0.132278,0.037032,0.073346,100264.97,-124,-11,-245
160455,8.690,-2.151,3.224,0.166865,0.046610,0.097291,100267.12,-124,-11,-245
160465,8.582,-2.421,3.165,0.205177,0.049803,0.123896,100265.88,-123,-11,-244
160476,8.683,-2.578,3.628,0.256259,0.027454,0.144116,100261.98,-123,-12,-244
160486,8.526,-2.634,3.986,0.292975,-0.034802,0.151566,100261.98,-125,-13,-245
160495,8.426,-2.989,3.943,0.313195,-0.043316,0.146777,100261.98,-125,-13,-245
160505,8.325,-3.618,4.148,0.296167,-0.020435,0.119639,100264.10,-123,-15,-244
160516,8.342,-3.908,4.271,0.188149,-0.003408,0.062704,100268.88,-125,-16,-244
160526,8.572,-3.824,4.136,0.025856,0.023198,-0.006471,100266.73,-123,-15,-245
160535,8.829,-3.518,4.085,-0.111961,0.040225,-0.069260,100264.84,-124,-15,-244
160545,9.212,-2.981,4.022,-0.144419,0.023198,-0.113957,100264.84,-124,-15,-244
160556,9.292,-2.580,3.966,-0.068328,-0.010857,-0.128324,100265.30,-124,-15,-244
160566,8.825,-2.917,3.845,0.012553,-0.040656,-0.128324,100264.26,-124,-13,-244
160576,8.623,-3.153,3.762,0.025324,-0.063536,-0.141627,100264.32,-125,-13,-244
160585,8.619,-3.070,4.083,-0.008199,-0.082692,-0.168232,100263.48,-125,-13,-244
160595,8.659,-3.142,4.040,-0.061942,-0.088546,-0.195902,100263.90,-125,-13,-245
160606,8.677,-3.129,3.884,-0.123667,-0.076307,-0.223039,100263.74,-123,-12,-245
160615,8.763,-2.905,3.648,-0.153465,-0.073114,-0.245920,100263.74,-123,-11,-245
160625,8.876,-3.062,3.474,-0.155062,-0.066197,-0.262948,100267.46,-123,-11,-245
160635,8.931,-3.032,3.361,-0.161979,-0.048637,-0.282104,100267.51,-123,-9,-245
160646,8.726,-2.925,3.660,-0.167300,-0.028417,-0.302856,100267.51,-123,-8,-245
160656,8.590,-2.839,3.833,-0.179539,-0.018307,-0.326801,100263.66,-124,-7,-245
160666,8.554,-2.962,3.700,-0.220511,-0.011922,-0.351810,100265.50,-124,-7,-245
160675,8.527,-2.907,3.797,-0.275851,0.006170,-0.380012,100263.61,-124,-5,-246
160686,8.619,-2.623,3.868,-0.312566,0.011491,-0.403425,100261.14,-124,-3,-245
160696,8.730,-2.451,3.518,-0.315227,0.007234,-0.413535,100264.46,-124,-1,-245
160706,8.809,-2.271,3.489,-0.291814,0.014152,-0.407681,100264.30,-124,-1,-245
160715,8.971,-2.118,3.484,-0.260952,0.012555,-0.400232,100259.63,-123,+0,-245
160726,9.044,-2.256,3.380,-0.235942,0.002977,-0.379480,100263.30,-123,+0,-246
160736,8.910,-2.045,3.409,-0.222640,-0.005536,-0.356067,100263.30,-123,+2,-246
160745,8.909,-1.799,3.623,-0.171025,-0.020435,-0.326269,100263.30,-123,+2,-246
160755,8.997,-1.838,3.555,-0.110897,-0.041720,-0.289021,100264.70,-123,+3,-246
160765,8.947,-2.086,3.629,-0.091208,-0.043316,-0.254966,100267.75,-123,+5,-247
160776,8.919,-2.270,3.846,-0.115686,-0.031610,-0.232085,100265.92,-123,+5,-247
160786,8.992,-2.439,3.686,-0.181135,-0.033206,-0.223571,100263.50,-123,+5,-247
160795,8.973,-2.220,3.652,-0.239135,-0.027353,-0.215058,100263.50,-123,+7,-247
160805,8.910,-1.922,3.550,-0.243392,-0.039059,-0.197498,100264.18,-122,+8,-247
160816,8.817,-1.758,3.425,-0.204548,-0.053958,-0.169296,100265.34,-123,+9,-248
160826,8.871,-1.996,3.410,-0.153465,-0.066197,-0.134177,100262.93,-123,+9,-248
160836,9.059,-2.049,3.396,-0.127924,-0.076839,-0.107039,100262.93,-123,+9,-247
160845,9.036,-2.163,3.496,-0.119410,-0.068857,-0.082030,100262.93,-122,+9,-247
160856,8.901,-2.240,3.511,-0.138566,-0.064068,-0.058085,100268.59,-123,+9,-247
160866,8.760,-2.045,3.530,-0.172621,-0.061408,-0.042122,100266.77,-123,+9,-247
160876,8.959,-1.890,3.671,-0.185392,-0.064601,-0.017113,100262.94,-122,+10,-247
160886,9.114,-1.843,3.637,-0.183263,-0.087127,0.019071,100264.72,-122,+11,-248
160896,9.113,-1.881,3.511,-0.191777,-0.098656,0.058979,100264.72,-122,+11,-248
160906,9.213,-1.812,3.477,-0.207208,-0.104509,0.105272,100269.70,-122,+11,-248
160916,9.152,-1.608,3.483,-0.204016,-0.123665,0.157951,100266.30,-123,+11,-249
160926,9.243,-1.504,3.445,-0.193374,-0.142821,0.230318,100264.98,-122,+11,-249
160935,9.413,-1.333,3.548,-0.180071,-0.160380,0.315456,100263.41,-122,+10,-249
160946,9.445,-1.181,3.550,-0.167300,-0.173683,0.413364,100264.35,-122,+10,-249
160956,9.483,-0.693,3.251,-0.164108,-0.161977,0.527768,100266.77,-121,+11,-249
160965,9.516,-0.010,3.761,-0.092273,-0.095995,0.641107,100266.77,-122,+8,-250
160975,10.105,-1.485,4.103,0.027984,-0.131114,0.777859,100266.24,-121,+5,-250
160986,10.379,-2.337,3.725,0.091837,-0.196564,0.886942,100265.40,-121,+5,-250
160996,10.244,-2.480,4.006,0.108333,-0.207206,0.959309,100265.40,-121,+3,-249
161006,10.426,-2.690,4.061,0.125360,-0.233811,1.024226,100264.24,-120,+0,-251
161015,10.775,-3.392,3.693,0.005635,-0.240729,1.069987,100265.65,-119,-3,-252
161026,11.369,-3.615,3.839,-0.223704,-0.194435,1.096593,100264.91,-118,-5,-253
161036,13.212,-3.923,3.920,-0.407282,-0.196032,1.118409,100262.46,-118,-5,-253
161046,16.462,-4.415,3.666,-0.668548,-0.257224,1.181730,100266.33,-118,-7,-253
161056,19.407,-4.017,3.349,-0.942584,-0.326931,1.198226,100267.06,-117,-9,-254
161065,19.794,-2.705,2.947,-1.137336,-0.454637,1.236006,100266.48,-116,-10,-256
161076,18.169,-0.624,2.370,-1.190015,-0.643536,1.311565,100261.03,-116,-10,-256
161086,16.690,0.859,1.507,-1.128290,-0.847866,1.424372,100261.03,-113,-12,-258
161095,14.637,-0.976,0.081,-0.785612,-1.051132,1.529198,100261.03,-111,-14,-262
161105,11.215,-5.988,-0.635,-0.276383,-1.155426,1.598372,100270.16,-109,-19,-264
161116,8.897,-9.940,1.405,0.225929,-1.063371,1.675528,100262.97,-109,-19,-264
161126,8.852,-10.315,6.477,0.591488,-0.926618,1.729803,100263.91,-105,-23,-266
161136,8.860,-6.592,8.530,1.077837,-0.811683,1.623381,100259.08,-103,-33,-267
161145,9.370,-5.982,4.952,1.091139,-0.810618,1.573363,100259.08,-101,-38,-269
161156,7.522,-9.674,3.767,0.878828,-0.773371,1.717033,100264.13,-101,-38,-269
161166,6.617,-10.895,4.866,0.434516,-0.649921,1.733528,100264.28,-97,-44,-269
161176,6.690,-9.151,6.416,-0.068860,-0.421646,1.599969,100260.92,-96,-50,-270
161186,6.854,-7.441,6.198,-0.497208,-0.229022,1.482905,100260.92,-94,-52,-272
161196,6.697,-7.002,4.630,-0.856382,-0.089610,1.461088,100260.92,-94,-52,-272
161206,6.175,-6.650,3.258,-1.177777,0.005106,1.448317,100267.66,-92,-53,-272
161216,5.457,-5.483,2.603,-1.359758,0.049271,1.395106,100265.67,-91,-54,-274
161225,4.291,-4.461,2.138,-1.301226,0.050867,1.329657,100268.81,-90,-55,-275
161235,3.021,-4.104,1.506,-1.093171,0.037032,1.249308,100261.16,-90,-55,-275
161246,2.195,-3.550,0.668,-0.877667,0.006170,1.138097,100261.16,-89,-56,-275
161256,1.587,-3.056,0.049,-0.665887,-0.040656,1.016776,100264.27,-89,-56,-276
161266,0.931,-2.626,-0.240,-0.425906,-0.099188,0.906630,100263.16,-88,-58,-278
161276,0.617,-1.990,-0.290,-0.169429,-0.150802,0.801272,100263.53,-88,-58,-278
161286,0.429,-1.478,-0.254,0.110993,-0.205078,0.710281,100265.77,-87,-60,-277
161296,0.148,-1.352,-0.277,0.369066,-0.248711,0.632593,100263.83,-86,-62,-278
161306,-0.036,-1.173,-0.228,0.569672,-0.263077,0.555969,100265.30,-84,-64,-277
161315,-0.048,-1.226,-0.052,0.730901,-0.256692,0.475089,100265.30,-84,-64,-277
161326,-0.197,-1.377,0.075,0.813910,-0.245518,0.384630,100259.27,-83,-68,-277
161336,-0.027,-1.485,0.002,0.813378,-0.224766,0.276080,100265.25,-83,-71,-277
161346,0.369,-1.392,-0.061,0.769745,-0.207738,0.160080,100265.25,-82,-73,-276
161356,0.929,-1.613,-0.215,0.702699,-0.218380,0.057915,100263.02,-82,-73,-276
161366,1.406,-1.981,-1.025,0.592020,-0.239665,-0.039994,100265.80,-81,-75,-277
161376,1.950,-2.525,-0.711,0.590956,-0.205610,-0.141094,100263.02,-82,-76,-276
161386,2.599,-2.851,0.091,0.662259,-0.221041,-0.282636,100261.03,-81,-76,-277
161396,3.409,-2.866,0.604,0.733030,-0.257756,-0.428434,100261.03,-81,-76,-277
161406,4.042,-2.821,1.127,0.815507,-0.267866,-0.559333,100265.30,-81,-77,-275
161416,4.529,-2.831,1.816,0.903305,-0.243389,-0.675865,100266.03,-81,-78,-275
161426,5.113,-3.537,2.551,0.953323,-0.224233,-0.780158,100263.09,-81,-78,-274
161436,5.737,-4.794,2.890,0.908626,-0.195500,-0.887644,100263.09,-81,-78,-274
161445,6.483,-5.653,3.198,0.752718,-0.134307,-1.027589,100263.09,-82,-78,-273
161456,7.328,-6.331,3.529,0.528167,-0.073114,-1.176048,100266.16,-83,-77,-273
161466,7.930,-6.589,3.686,0.266369,-0.011390,-1.324507,100269.57,-84,-73,-273
161476,8.264,-6.534,3.937,-0.003410,0.065766,-1.457534,100263.45,-84,-73,-273
161485,8.539,-6.372,4.144,-0.252970,0.140794,-1.560231,100259.98,-87,-69,-271
161496,8.878,-5.991,4.307,-0.464217,0.225399,-1.649094,100259.98,-90,-64,-272
161506,9.259,-5.543,4.372,-0.599905,0.287656,-1.710286,100266.15,-91,-58,-272
161516,9.477,-5.332,4.243,-0.602566,0.326500,-1.742745,100263.26,-94,-52,-272
161526,9.807,-4.723,4.167,-0.478584,0.311601,-1.770414,100263.21,-94,-52,-272
161536,10.254,-4.420,3.801,-0.320016,0.310537,-1.759240,100263.21,-95,-46,-272
161546,10.602,-4.594,3.153,-0.229557,0.333950,-1.718800,100267.55,-96,-41,-272
161556,11.119,-4.114,3.064,-0.224236,0.371729,-1.692726,100267.55,-99,-35,-271
161566,11.560,-2.999,2.808,-0.223172,0.411638,-1.675699,100264.62,-99,-35,-271
161575,11.566,-2.790,2.838,-0.106108,0.459528,-1.630470,100265.88,-101,-32,-270
161586,10.983,-3.346,2.939,0.123764,0.470170,-1.609717,100265.57,-102,-27,-269
161591,10.145,-4.201,3.919,0.288186,0.501032,-1.604928,100265.57,-102,-27,-269
161601,5.463,-10.961,6.809,0.700571,0.938426,-1.460727,100265.46,-104,-24,-267
161611,14.114,-16.284,5.866,1.221506,1.181600,-1.058452,100264.04,-106,-24,-264
161620,16.528,-19.518,0.595,0.172718,0.427069,-0.715773,100267.93,-106,-24,-264
161631,15.457,-7.609,-4.112,-1.163410,0.126959,-0.832305,100266.30,-108,-21,-263
161641,14.033,2.840,-1.888,-1.341666,0.269032,-1.045681,100266.30,-108,-15,-263
161651,11.604,3.429,1.475,-1.006969,0.432922,-0.867956,100265.61,-111,-10,-262
161661,13.429,1.959,4.381,-0.489227,0.402060,-0.668947,100267.34,-111,-10,-262
161671,18.020,-0.300,4.271,0.049801,0.263179,-0.298067,100262.16,-111,-7,-261
161681,17.076,-2.475,1.664,0.485066,0.151436,-0.116085,100264.56,-111,-7,-260
161691,11.338,-2.803,0.674,0.689929,0.252005,-0.054893,100264.56,-111,-9,-259
161701,7.512,-2.730,1.636,0.857011,0.355766,0.099951,100266.91,-111,-9,-259
161711,5.337,-3.072,2.918,0.832534,0.264775,0.167529,100263.92,-112,-11,-259
161721,5.470,-3.412,3.572,0.687800,0.176445,0.169126,100266.86,-113,-15,-258
161731,7.033,-3.854,4.720,0.431855,0.233381,0.193070,100263.86,-114,-15,-257
161741,7.664,-3.543,5.546,0.196663,0.253069,0.172318,100263.86,-114,-15,-257
161751,7.500,-2.669,4.677,0.017874,0.203583,0.140924,100269.60,-114,-17,-256
161761,8.248,-3.111,3.419,-0.095997,0.192408,0.160612,100263.99,-115,-17,-256
161771,9.823,-3.586,2.192,-0.146548,0.164739,0.192006,100265.30,-115,-17,-255
161781,10.475,-3.250,1.402,-0.091741,0.158353,0.227658,100265.98,-115,-17,-255
161790,9.858,-3.009,1.968,0.153562,0.206775,0.269162,100265.98,-115,-17,-255
161801,9.265,-2.571,2.291,0.444094,0.191344,0.331951,100270.14,-115,-19,-254
161811,8.986,-2.688,2.523,0.702699,0.197730,0.389419,100270.14,-116,-22,-254
161821,8.947,-3.569,3.366,0.863396,0.225399,0.416024,100262.84,-116,-25,-253
161831,8.726,-4.050,4.191,0.810185,0.216353,0.421878,100265.89,-116,-25,-253
161841,8.226,-4.435,4.971,0.589892,0.222207,0.391015,100265.89,-117,-27,-251
161851,8.211,-4.989,5.163,0.236039,0.226463,0.329823,100265.98,-117,-28,-251
161861,8.739,-5.040,4.599,-0.225300,0.231252,0.254795,100264.52,-117,-29,-250
161871,9.085,-4.320,3.924,-0.590327,0.249344,0.192006,100263.73,-117,-29,-250
161881,9.193,-3.570,3.487,-0.713777,0.256262,0.170722,100262.31,-118,-28,-250
161891,9.244,-2.662,3.229,-0.610548,0.229656,0.199456,100262.31,-118,-27,-249
161901,9.013,-1.838,3.158,-0.342896,0.196133,0.269694,100269.30,-118,-27,-249
161911,8.738,-1.825,3.483,-0.015649,0.174849,0.365474,100264.16,-118,-27,-249
161922,8.550,-2.881,3.733,0.192406,0.138665,0.449547,100263.78,-119,-29,-249
161931,8.512,-4.056,4.136,0.166333,0.101950,0.484667,100265.78,-120,-31,-248
161941,8.163,-4.533,4.132,-0.000218,0.065234,0.459657,100265.78,-119,-31,-249
161951,7.865,-4.182,4.059,-0.185924,0.064702,0.424006,100266.01,-119,-31,-249
161961,7.993,-3.828,4.160,-0.321080,0.030115,0.389419,100267.10,-119,-33,-247
161971,8.178,-3.484,3.544,-0.325337,0.004574,0.377180,100263.32,-118,-33,-249
161981,8.300,-3.616,3.134,-0.219979,0.038629,0.392612,100264.74,-117,-34,-249
161991,8.272,-3.807,3.156,-0.121539,0.068427,0.398465,100264.74,-117,-34,-249
162001,8.482,-3.405,3.548,-0.092273,0.117381,0.413896,100266.35,-119,-35,-248
162011,8.361,-3.967,4.034,-0.094933,0.149840,0.411235,100264.73,-118,-36,-247
162021,8.185,-4.201,3.805,-0.168364,0.143986,0.406979,100264.84,-118,-37,-247
162031,8.379,-4.022,3.908,-0.273190,0.172720,0.402190,100261.84,-118,-37,-247
162041,8.511,-4.103,3.591,-0.356199,0.179638,0.396868,100261.84,-119,-38,-247
162052,8.667,-3.684,3.372,-0.382273,0.187087,0.412832,100264.08,-118,-38,-247
162061,8.944,-3.743,3.432,-0.290750,0.182298,0.455933,100265.91,-119,-38,-246
162071,8.819,-4.363,3.173,-0.205080,0.163142,0.498501,100268.22,-119,-38,-246
162081,8.782,-4.623,3.233,-0.200823,0.170592,0.524575,100263.59,-119,-39,-245
162092,8.770,-4.743,3.562,-0.239667,0.170060,0.535749,100263.59,-118,-40,-245
162101,8.789,-4.933,3.677,-0.290750,0.186023,0.536281,100266.27,-119,-42,-245
162111,8.947,-5.110,3.725,-0.360456,0.207308,0.534685,100266.27,-119,-42,-245
162121,9.163,-5.319,3.535,-0.429098,0.238702,0.535749,100265.38,-120,-42,-245
162131,9.568,-5.708,3.270,-0.527538,0.266904,0.527768,100263.44,-120,-42,-244
162141,9.771,-5.887,2.953,-0.668548,0.302023,0.523511,100263.44,-120,-44,-243
162151,10.036,-5.247,3.137,-0.811153,0.319051,0.532024,100267.41,-120,-44,-243
162161,10.293,-4.576,3.091,-0.850529,0.280207,0.582043,100269.66,-120,-43,-243
162171,10.373,-4.450,3.188,-0.826052,0.220078,0.661327,100264.00,-120,-44,-243
162182,10.528,-4.381,3.374,-0.814346,0.149840,0.751254,100262.69,-120,-43,-244
162191,10.574,-4.232,3.571,-0.820199,0.090775,0.846501,100262.69,-120,-43,-244
162201,10.310,-4.067,3.700,-0.847336,0.040757,0.961437,100270.36,-120,-44,-244
162211,10.358,-3.888,3.883,-0.898419,-0.004472,1.076905,100264.22,-119,-46,-244
162222,10.599,-3.750,3.998,-0.972914,-0.042784,1.204079,100262.38,-117,-47,-245
162231,10.825,-3.566,3.881,-1.033575,-0.074179,1.332850,100263.22,-117,-47,-245
162241,11.191,-3.478,3.556,-1.061777,-0.107701,1.478116,100263.22,-116,-48,-246
162251,11.463,-3.816,2.875,-1.086254,-0.134307,1.622317,100264.79,-115,-51,-247
162262,11.782,-3.993,2.515,-1.154364,-0.144949,1.755877,100267.24,-113,-54,-249
162271,12.037,-4.022,2.456,-1.263978,-0.155059,1.863363,100260.95,-111,-56,-250
162281,12.603,-3.463,2.872,-1.415098,-0.167298,1.941583,100264.95,-111,-56,-250
162291,13.007,-2.740,3.049,-1.528437,-0.199756,2.025124,100264.95,-109,-59,-252
162301,13.749,-2.690,3.446,-1.556639,-0.197096,2.117711,100268.70,-108,-63,-254
162312,15.561,-2.467,3.801,-1.697116,-0.149738,2.173051,100265.08,-104,-65,-255
162321,17.445,-0.572,4.138,-1.832804,-0.089078,2.180500,100268.08,-104,-65,-255
162331,17.614,1.569,4.649,-1.849299,-0.020968,2.211363,100266.34,-102,-66,-257
162341,15.996,2.524,5.016,-1.695519,-0.005536,2.349179,100266.34,-101,-68,-259
162352,14.949,0.931,6.208,-1.473098,-0.037463,2.585436,100263.35,-97,-72,-260
162361,14.470,-4.952,7.816,-0.995795,-0.086417,2.899381,100264.93,-97,-72,-260
162371,15.347,-10.111,7.397,-0.515832,-0.173683,3.172885,100263.46,-94,-78,-261
162381,16.887,-10.083,5.511,-0.784548,-0.237004,3.119674,100264.71,-88,-84,-263
162392,16.148,-6.859,5.559,-1.088382,-0.229022,2.881289,100264.71,-85,-89,-265
162402,14.319,-3.920,5.281,-0.695153,-0.302986,2.691326,100266.00,-85,-89,-265
162411,12.782,-1.241,5.116,-0.215722,-0.444527,2.421014,100266.47,-81,-92,-266
162421,11.106,2.129,4.072,0.291911,-0.708453,1.983620,100267.00,-76,-99,-267
162432,7.473,2.481,2.249,0.607984,-0.832435,1.640409,100262.80,-73,-104,-269
162441,3.030,-0.916,2.813,1.042185,-0.640875,1.476519,100262.80,-73,-104,-269
162451,0.579,-6.612,4.198,1.605690,-0.254564,1.325932,100265.19,-69,-110,-267
162461,2.808,-8.000,6.460,1.580680,-0.135371,0.912483,100263.92,-68,-116,-265
162471,4.977,-6.228,4.607,0.695250,-0.459958,0.248942,100265.30,-66,-117,-266
162482,4.444,-2.761,1.260,-0.486034,-0.686637,-0.443333,100263.19,-66,-117,-266
162491,4.224,0.308,-1.041,-1.433189,-0.523279,-0.856250,100263.19,-64,-112,-269
162501,4.127,1.343,-1.369,-1.790767,-0.411536,-1.130819,100266.77,-65,-105,-273
162511,3.443,1.824,-0.589,-1.617831,-0.376949,-1.425607,100265.57,-67,-97,-277
162522,2.701,1.750,0.158,-1.213428,-0.404619,-1.627277,100262.90,-67,-97,-277
162532,2.290,1.203,0.656,-0.545453,-0.441866,-1.872047,100263.95,-67,-90,-279
162541,2.349,0.387,1.459,-0.005539,-0.339169,-2.166304,100263.95,-69,-86,-280
162551,2.774,-1.401,2.539,0.464846,-0.182197,-2.468010,100263.97,-71,-80,-281
162562,3.409,-3.368,2.590,0.589360,-0.032674,-2.761735,100256.94,-71,-80,-281
162572,3.945,-4.319,2.639,0.281268,0.177509,-3.087386,100260.50,-73,-74,-280
162581,4.055,-2.449,2.152,-0.255630,0.363748,-3.486469,100257.47,-77,-65,-281
162591,4.657,1.162,1.251,-0.548291,0.514867,-3.905239,100257.47,-81,-54,-280
162601,6.126,2.753,0.463,-0.333318,0.569674,-4.178743,100259.39,-81,-54,-280
162612,7.425,1.854,0.022,0.219012,0.568610,-4.327202,100257.61,-85,-43,-280
162621,7.999,0.023,0.139,0.810185,0.588830,-4.482578,100263.48,-89,-35,-279
162631,8.045,-1.813,1.101,1.305580,0.630867,-4.678394,100260.97,-92,-24,-277
162641,8.461,-2.862,1.627,1.625910,0.641509,-4.891238,100260.97,-92,-24,-277
162652,9.341,-3.241,1.700,1.734460,0.642573,-5.095569,100261.75,-94,-15,-275
162661,10.404,-3.344,1.746,1.722754,0.600005,-5.244027,100258.30,-97,-5,-274
162671,11.618,-3.572,1.179,1.707855,0.512206,-5.364816,100260.17,-98,+4,-273
162681,12.729,-3.824,0.759,1.795653,0.431858,-5.498908,100263.95,-98,+4,-273
162692,14.072,-4.462,1.138,2.020735,0.383968,-5.567550,100263.95,-97,+15,-272
162702,15.156,-5.311,1.593,2.197928,0.296170,-5.585109,100266.92,-97,+25,-272
162711,15.737,-6.294,2.963,2.272423,0.205179,-5.595752,100260.89,-95,+35,-272
162721,16.510,-8.680,4.273,2.399065,0.089179,-5.520724,100264.23,-95,+35,-272
162732,17.022,-11.216,5.059,2.353304,-0.041720,-5.441972,100265.14,-92,+44,-274
162742,16.751,-13.408,5.609,2.243157,-0.126857,-5.343532,100265.14,-87,+53,-276
162751,16.153,-15.498,5.776,2.198992,-0.171555,-5.129091,100264.96,-83,+61,-277
162761,15.156,-17.341,5.638,2.216552,-0.203481,-4.762468,100264.65,-78,+67,-280
162771,13.373,-19.039,5.849,2.140460,-0.192307,-4.220248,100264.18,-78,+67,-280
162782,11.010,-19.962,6.004,1.769047,-0.128986,-3.539680,100262.82,-74,+72,-282
162791,8.244,-21.007,6.756,1.179470,0.051931,-2.743643,100262.82,-71,+76,-282
162801,5.842,-23.923,7.382,0.663323,0.259986,-1.891736,100265.07,-69,+78,-282
162811,4.724,-25.535,7.409,-0.083227,0.424940,-1.120708,100265.38,-69,+78,-282
162822,4.291,-24.461,6.204,-0.931410,0.565417,-0.340636,100265.43,-69,+81,-280
162832,5.239,-21.969,4.795,-1.419354,0.605858,0.646428,100263.96,-71,+84,-278
162841,7.215,-19.439,3.139,-1.469905,0.534023,1.613271,100263.96,-73,+83,-276
162851,14.706,-9.767,1.297,-1.537483,0.178041,2.373124,100265.50,-73,+83,-276
162862,25.664,16.492,0.161,-1.904106,-0.579151,1.876666,100266.50,-76,+82,-275
162872,24.313,27.536,-6.611,-1.795024,-0.313096,0.643767,100263.88,-75,+85,-274
162882,16.257,4.138,0.445,-0.030016,0.175736,2.054213,100262.56,-78,+79,-274
162891,11.402,-13.485,10.729,2.750257,-0.083224,3.410738,100262.56,-78,+79,-274
162902,10.901,-21.285,5.660,3.006734,0.110464,3.570371,100268.04,-80,+62,-277
162912,11.718,-7.438,2.341,1.074112,0.680885,3.002078,100263.95,-85,+50,-275
162922,6.784,2.738,3.719,1.344956,0.418023,2.592353,100263.73,-87,+40,-275
162931,-0.653,0.567,10.067,2.700771,0.254665,2.172519,100264.52,-87,+40,-275
162941,2.717,-8.460,8.363,2.324570,-0.064068,2.131014,100264.52,-89,+28,-274
162952,9.756,-15.432,0.216,0.205177,-0.131114,2.061840,100270.09,-88,+21,-275
162962,13.785,-12.772,-1.237,-1.647630,0.360555,1.807492,100267.73,-89,+21,-274
162971,13.069,-5.659,1.378,-2.599574,0.722922,1.561657,100267.00,-89,+21,-274
162981,9.700,-1.647,3.499,-2.584143,0.748995,1.374886,100265.27,-92,+25,-272
162992,7.434,-1.764,2.727,-1.996161,0.516995,1.226960,100265.27,-93,+26,-269
163002,7.096,-0.106,1.741,-1.202254,0.436115,1.134905,100266.22,-94,+26,-269
163011,8.628,0.775,2.201,-0.299796,0.471234,1.124795,100268.06,-94,+26,-269
163021,9.945,-0.355,3.286,0.502626,0.445161,1.214189,100264.70,-95,+23,-267
163032,9.690,-2.063,3.675,0.896919,0.354170,1.259418,100265.44,-97,+17,-266
163042,8.777,-3.495,3.451,0.849562,0.347785,1.222171,100265.44,-97,+11,-265
163052,8.278,-4.214,3.907,0.462718,0.433454,1.132776,100268.87,-97,+11,-265
163061,8.402,-4.459,4.279,-0.058750,0.494647,0.996024,100267.88,-99,+9,-264
163072,8.416,-5.292,4.599,-0.689300,0.585638,0.837455,100267.09,-101,+8,-264
163082,8.400,-5.723,4.709,-1.371997,0.673968,0.643235,100267.24,-102,+9,-262
163092,8.320,-3.871,4.735,-1.792896,0.712280,0.454336,100267.24,-102,+9,-262
163101,8.849,-1.395,4.106,-1.559299,0.599472,0.368667,100267.25,-103,+12,-259
163111,9.524,-0.757,2.448,-1.083061,0.470170,0.418153,100270.08,-105,+13,-259
163118,9.649,-1.524,2.329,-0.730272,0.442500,0.514997,100268.66,-105,+13,-259
163127,9.589,-2.318,2.502,-0.380144,0.375986,0.584171,100268.66,-106,+13,-257
163137,9.161,-2.923,2.656,-0.102383,0.302023,0.645364,100266.45,-106,+11,-256
163146,8.777,-3.610,3.285,-0.052897,0.284463,0.677290,100266.45,-108,+9,-255
163156,8.441,-4.218,3.992,-0.231685,0.322775,0.650685,100267.09,-108,+9,-255
163167,8.426,-4.551,4.591,-0.602566,0.395674,0.563419,100266.03,-108,+9,-254
163177,8.679,-4.189,4.753,-1.002180,0.443032,0.471364,100268.14,-109,+9,-254
163187,8.780,-3.502,4.580,-1.249611,0.464849,0.414428,100268.14,-109,+11,-252
163196,8.772,-3.003,4.327,-1.293777,0.453142,0.403254,100268.14,-109,+11,-252
163207,8.722,-2.911,4.018,-1.208639,0.415895,0.439437,100260.85,-110,+12,-250
163217,8.852,-3.338,3.033,-1.107006,0.353106,0.484667,100267.35,-112,+13,-249
163227,9.129,-3.643,3.110,-1.011226,0.330757,0.546923,100267.62,-112,+14,-249
163236,9.182,-3.719,2.563,-0.986749,0.282867,0.599602,100266.51,-112,+14,-249
163247,9.355,-3.509,3.088,-0.972382,0.291381,0.644832,100266.51,-112,+14,-249
163257,9.285,-3.524,3.361,-0.958547,0.269564,0.696978,100266.59,-113,+14,-247
163267,9.442,-3.783,3.562,-0.925557,0.235509,0.751786,100266.75,-114,+13,-247
163277,9.485,-4.145,3.325,-0.940456,0.186023,0.790098,100266.78,-114,+13,-247
163287,9.448,-4.133,3.253,-0.984621,0.195069,0.825749,100266.78,-114,+14,-246
163297,9.337,-3.854,3.310,-1.045813,0.216353,0.870978,100266.44,-115,+13,-245
163307,9.504,-3.151,3.247,-1.072419,0.215289,0.941749,100267.53,-116,+13,-245
163316,10.030,-2.492,3.043,-1.022401,0.180702,1.056685,100267.53,-116,+13,-245
163326,10.662,-2.234,3.097,-0.872878,0.107803,1.208336,100266.48,-116,+11,-244
163337,10.978,-2.447,3.182,-0.657373,-0.006601,1.379143,100265.28,-116,+8,-244
163347,11.598,-3.123,3.541,-0.518493,-0.124197,1.533987,100265.28,-116,+6,-244
163352,11.880,-3.203,4.058,-0.563190,-0.254564,1.662225,100268.17,-116,+6,-244
163361,12.184,-3.060,4.083,-0.632364,-0.354600,1.764923,100270.69,-115,+1,-245
163372,12.625,-2.953,4.005,-0.680254,-0.400362,1.935198,100264.45,-114,-3,-245
163382,13.061,-3.753,3.537,-0.811153,-0.487096,2.141124,100267.86,-114,-3,-245
163392,13.610,-3.825,3.386,-0.959080,-0.561591,2.331087,100267.86,-113,-7,-248
163401,14.006,-4.049,3.300,-1.075612,-0.577554,2.464115,100266.78,-110,-11,-249
163411,15.154,-4.514,3.162,-1.282602,-0.543499,2.546060,100269.25,-109,-17,-250
163422,16.955,-3.052,3.128,-1.743409,-0.462619,2.550849,100267.20,-109,-17,-250
163432,18.699,-0.151,2.916,-2.244657,-0.385463,2.549252,100265.27,-107,-19,-252
163441,20.314,2.626,2.678,-2.502730,-0.379610,2.650353,100265.27,-106,-21,-253
163451,22.310,5.022,2.572,-2.528271,-0.416325,2.842445,100264.68,-103,-23,-255
163462,22.491,6.595,3.259,-2.288290,-0.404087,3.007931,100267.71,-103,-23,-255
163472,19.258,4.662,4.683,-1.740749,-0.452509,3.173417,100264.77,-99,-27,-257
163482,15.547,-1.668,7.300,-0.929281,-0.580747,3.479380,100265.20,-97,-33,-259
163491,14.625,-9.419,8.972,-0.176878,-0.839884,3.776298,100265.20,-92,-42,-260
163502,17.267,-12.242,9.447,-0.034273,-0.877132,3.900811,100267.52,-92,-42,-260
163512,18.326,-8.887,10.958,0.123232,-0.779224,3.800775,100262.89,-87,-52,-262
163522,16.165,-3.585,9.016,0.322241,-0.755811,3.523545,100262.69,-82,-62,-263
163531,14.035,0.499,7.461,0.585103,-0.839352,3.014316,100260.00,-77,-70,-264
163542,11.963,3.592,5.114,0.874039,-1.141059,2.331087,100260.00,-77,-70,-264
163552,6.904,3.671,4.415,1.088479,-1.094765,1.910189,100264.31,-71,-75,-265
163562,1.303,-1.704,3.769,1.548754,-0.897884,1.672868,100265.36,-67,-82,-265
163572,-1.434,-7.380,6.496,1.813744,-0.408876,1.306244,100262.94,-64,-89,-264
163581,1.227,-8.761,6.665,1.216717,-0.314692,0.484667,100266.88,-64,-89,-264
163588,2.675,-7.479,5.437,0.205177,-0.503591,-0.159718,100266.88,-62,-90,-264
163597,2.489,-4.776,3.270,-0.720162,-0.689297,-0.680122,100266.88,-61,-86,-266
163607,2.005,-1.325,0.439,-1.792896,-0.654178,-1.176580,100269.02,-61,-86,-266
163617,1.722,0.658,-1.117,-2.487831,-0.531261,-1.504892,100267.18,-59,-77,-270
163627,1.274,1.942,-1.817,-2.674601,-0.472729,-1.809258,100263.35,-58,-65,-275
163637,0.846,2.820,-1.261,-2.448455,-0.320545,-2.096598,100261.52,-59,-54,-277
163647,0.923,3.435,0.116,-1.726914,-0.216784,-2.391919,100267.93,-59,-54,-277
163657,1.261,3.715,0.840,-0.750492,-0.225298,-2.755882,100261.16,-57,-45,-278
163666,1.862,2.492,1.445,0.120571,-0.187518,-3.085790,100261.16,-59,-37,-279
163677,2.361,0.053,2.081,0.720259,-0.089078,-3.351845,100260.43,-58,-32,-278
163687,3.058,-2.678,3.086,0.813910,0.114720,-3.564689,100262.48,-58,-32,-278
163697,3.150,-3.350,3.306,0.485066,0.306280,-3.828083,100262.48,-59,-25,-278
163706,2.731,-1.144,3.156,0.105140,0.491986,-4.303257,100260.08,-59,-15,-276
163717,4.006,1.369,3.054,0.091305,0.611711,-4.705000,100261.03,-60,-6,-275
163727,6.709,1.996,2.551,0.522846,0.668647,-4.834302,100259.50,-60,-6,-275
163737,8.636,0.779,2.062,1.292277,0.678757,-4.904009,100260.41,-60,+1,-273
163747,9.753,-0.715,2.409,1.996258,0.726115,-5.049807,100265.95,-59,+8,-271
163757,10.298,-1.611,2.649,2.553377,0.717069,-5.169000,100262.28,-59,+13,-270
163767,10.439,-2.236,2.389,2.992900,0.640445,-5.180174,100261.45,-59,+13,-270
163777,11.008,-3.493,2.236,3.337707,0.547326,-5.156761,100263.13,-57,+16,-269
163787,12.336,-5.167,2.387,3.520752,0.422812,-5.196670,100263.13,-55,+18,-269
163796,14.352,-7.225,3.330,3.372826,0.237106,-5.295642,100263.13,-52,+19,-269
163807,15.994,-8.943,4.054,3.039193,-0.004472,-5.451550,100266.51,-52,+19,-269
163817,16.690,-8.364,4.120,2.651817,-0.135903,-5.616504,100262.68,-50,+21,-270
163822,16.992,-6.832,5.054,2.460258,-0.131114,-5.717072,100268.02,-47,+26,-270
163832,17.319,-6.562,6.804,2.545928,-0.080564,-5.713348,100264.30,-47,+26,-270
163842,17.603,-9.445,8.266,2.829010,-0.101316,-5.599476,100264.30,-46,+27,-271
163852,17.263,-13.304,7.788,2.725780,-0.224766,-5.542008,100266.06,-45,+30,-273
163862,17.021,-16.729,6.607,2.415028,-0.164637,-5.402596,100263.70,-43,+33,-274
163872,16.414,-18.910,4.650,2.061175,0.024794,-5.109935,100265.86,-43,+33,-274
163881,13.789,-19.729,3.803,1.639212,0.240298,-4.723092,100264.64,-42,+37,-276
163892,10.911,-23.083,5.250,1.248112,0.454739,-4.114890,100264.64,-43,+41,-275
163902,6.151,-25.887,7.899,0.462186,0.546261,-3.280010,100262.29,-43,+46,-274
163912,2.549,-27.473,8.005,-0.671208,0.547858,-2.290286,100268.48,-43,+46,-274
163922,2.222,-25.584,5.868,-1.897189,0.647894,-1.124433,100267.32,-44,+50,-272
163932,5.228,-22.795,6.028,-2.521354,0.780390,0.123896,100263.80,-47,+58,-270
163942,8.390,-18.799,6.495,-2.476657,0.672904,1.235474,100263.80,-50,+60,-269
163952,10.639,-13.018,4.732,-1.947207,0.448885,2.041088,100267.16,-50,+60,-269
163962,10.645,-7.454,2.524,-1.327832,0.110996,2.757307,100268.48,-52,+59,-267
163972,15.912,5.062,-0.826,-0.612144,-0.398765,2.937692,100263.80,-52,+53,-267
163982,26.545,29.404,-9.093,-0.812749,-0.931939,1.834629,100264.91,-51,+51,-269
163992,23.765,25.361,-12.625,-0.207741,-0.243389,0.978997,100264.91,-51,+51,-269
164002,20.424,-3.994,-2.029,2.089377,-0.097591,2.881289,100267.95,-53,+46,-269
164012,14.385,-24.922,14.973,4.795688,-0.233811,3.956151,100265.23,-55,+27,-271
164022,9.402,-23.369,3.037,3.469670,-0.060344,3.400628,100266.54,-56,+11,-270
164032,10.649,-3.884,2.960,1.733396,0.952793,2.881821,100265.01,-56,+11,-270
164042,5.270,4.218,9.007,2.424606,0.872445,2.789234,100265.01,-60,+2,-267
164052,-2.444,-1.158,13.730,2.943945,0.324904,2.323106,100262.91,-61,-10,-266
164062,2.501,-9.371,6.668,1.649323,-0.179536,2.245418,100265.63,-59,-19,-266
164072,10.362,-14.278,-0.039,-0.407282,0.045546,2.146445,100264.95,-59,-19,-266
164082,13.225,-13.812,0.118,-1.983391,0.525509,1.804299,100269.45,-60,-21,-266
164092,13.687,-7.448,2.866,-3.019941,0.816041,1.515363,100269.45,-61,-17,-266
164102,9.975,-2.854,3.121,-3.259922,0.670775,1.260483,100266.86,-62,-12,-265
164112,7.705,-1.084,1.032,-2.557005,0.551050,1.142354,100268.53,-62,-12,-265
164122,7.876,1.350,0.838,-1.542272,0.600537,1.119474,100263.23,-63,-11,-265
164132,8.622,1.498,3.121,-0.366841,0.506353,1.142886,100269.27,-65,-11,-264
164142,9.705,-0.363,3.984,0.801140,0.173252,1.215786,100269.27,-64,-16,-263
164152,9.683,-1.973,3.009,1.439671,0.044482,1.241327,100267.64,-64,-16,-263
164162,8.451,-4.795,2.923,1.326332,0.207308,1.199290,100266.48,-63,-22,-262
164172,8.263,-7.004,4.035,0.564351,0.373858,1.084886,100270.00,-64,-26,-260
164182,8.356,-7.269,6.176,-0.522749,0.510610,0.819896,100264.48,-66,-27,-260
164192,7.850,-6.987,6.659,-1.693391,0.654812,0.449547,100264.48,-66,-27,-260
164202,8.220,-4.330,5.310,-2.524014,0.786775,0.140392,100264.06,-66,-23,-260
164212,8.634,-0.871,3.968,-2.630436,0.816573,-0.000085,100269.20,-69,-17,-259
164222,9.662,1.161,2.424,-2.017978,0.662261,0.075474,100265.47,-70,-13,-259
164232,10.772,1.092,1.701,-1.039960,0.393014,0.302685,100265.84,-71,-12,-258
164242,10.146,-1.017,2.365,-0.100786,0.150904,0.521914,100265.84,-71,-12,-258
164252,9.047,-3.934,3.546,0.263177,0.059381,0.628868,100269.46,-71,-14,-259
164262,8.440,-5.450,4.678,-0.103447,0.146115,0.639511,100268.88,-71,-15,-257
164272,8.096,-4.110,5.322,-0.743043,0.271161,0.554905,100267.10,-72,-15,-257
164282,8.165,-2.037,5.394,-1.174584,0.324372,0.513933,100263.95,-72,-15,-257
164292,8.609,-0.974,4.870,-1.295373,0.279142,0.582043,100263.95,-72,-13,-257
164302,8.922,-0.902,3.982,-1.127758,0.220610,0.726777,100271.85,-73,-12,-257
164313,9.135,-1.714,2.560,-0.835630,0.156225,0.885345,100267.76,-73,-13,-257
164322,9.309,-2.926,1.923,-0.620126,0.112060,1.024226,100268.27,-73,-13,-257
164332,9.708,-3.657,1.823,-0.546162,0.097693,1.127987,100267.70,-73,-14,-257
164342,10.159,-3.901,2.268,-0.578621,0.108335,1.195033,100267.70,-72,-15,-257
164353,10.389,-4.035,2.590,-0.606291,0.090243,1.211529,100272.73,-73,-17,-257
164362,10.661,-4.420,2.576,-0.583942,0.068427,1.233877,100268.28,-73,-17,-257
164372,10.658,-5.060,2.753,-0.599373,0.054592,1.254097,100266.97,-73,-18,-257
164382,10.149,-4.943,2.759,-0.726548,0.035436,1.241859,100268.48,-72,-20,-257
164392,9.949,-4.169,2.737,-0.861171,0.050335,1.247180,100268.48,-71,-21,-257
164402,10.085,-3.072,2.888,-0.862235,0.056188,1.328061,100267.64,-71,-21,-257
164412,9.940,-2.572,3.165,-0.838823,-0.026289,1.511106,100271.16,-72,-23,-257
164422,10.209,-1.793,3.827,-0.550951,-0.063004,1.577088,100267.64,-71,-25,-257
164432,11.181,-2.724,4.430,-0.468474,-0.179004,1.844207,100267.38,-71,-29,-258
164443,12.122,-2.904,4.422,-0.537116,-0.275848,2.008097,100267.38,-71,-29,-258
164452,12.649,-2.904,3.817,-0.604162,-0.289151,2.161876,100266.22,-69,-31,-259
164462,13.195,-3.354,2.844,-0.669080,-0.288619,2.307142,100268.48,-66,-35,-259
164472,13.633,-3.884,2.058,-0.748364,-0.300857,2.423675,100266.64,-66,-39,-260
164483,13.947,-4.129,1.964,-0.889373,-0.293940,2.513069,100263.75,-66,-39,-260
164492,14.390,-4.454,2.298,-1.134144,-0.265738,2.607252,100263.75,-63,-43,-262
164502,15.455,-4.554,2.963,-1.496510,-0.183793,2.675362,100269.91,-61,-46,-262
164512,17.502,-2.908,3.828,-2.030216,-0.048105,2.657803,100268.91,-59,-48,-264
164523,19.859,0.866,5.047,-2.695354,0.082262,2.592353,100267.18,-59,-48,-264
164532,20.625,4.729,6.577,-2.958216,0.134941,2.606188,100266.60,-59,-46,-266
164542,19.803,5.944,6.771,-2.819335,0.198794,2.696115,100266.60,-57,-45,-267
164552,18.406,4.044,7.988,-2.574033,0.276482,2.809986,100268.91,-56,-44,-269
164562,15.878,-0.118,8.042,-2.146216,0.273821,2.910555,100264.30,-56,-44,-269
164573,14.417,-8.220,8.369,-1.472033,0.115253,3.207472,100263.15,-56,-47,-269
164582,16.548,-13.655,8.000,-1.096896,-0.089610,3.545362,100262.37,-54,-52,-270
164592,17.956,-10.011,8.971,-1.397006,-0.088546,3.444261,100262.37,-51,-56,-272
164602,16.738,-3.060,8.870,-1.207575,-0.116215,3.150004,100269.31,-51,-56,-272
164613,14.848,1.878,6.702,-0.713777,-0.323206,2.674830,100266.64,-50,-61,-272
164622,12.119,5.338,3.858,-0.316823,-0.542967,1.990005,100267.11,-47,-64,-274
164632,7.030,4.861,2.105,-0.281172,-0.504655,1.531327,100266.38,-45,-66,-275
164642,1.485,-0.700,1.706,0.080131,-0.261481,1.432354,100266.38,-45,-66,-275
164653,-0.950,-6.234,4.443,0.687268,0.331289,1.298262,100267.34,-44,-70,-275
164663,1.778,-7.450,7.684,0.740479,0.637252,0.752318,100265.51,-45,-76,-273
164672,4.644,-5.519,6.443,0.298296,0.151436,-0.043718,100266.76,-47,-77,-273
164682,3.735,-2.984,1.696,-0.464217,-0.399830,-0.828580,100262.51,-47,-77,-273
164692,2.462,-1.594,-0.939,-1.404455,-0.340766,-1.244690,100262.51,-46,-73,-275
164703,1.989,-0.001,-1.973,-2.106308,-0.077903,-1.462323,100269.19,-48,-66,-279
164712,1.832,1.748,-2.852,-2.204748,0.060977,-1.762965,100265.09,-51,-58,-282
164722,2.373,4.168,-1.452,-1.800345,0.183895,-2.176946,100268.39,-53,-58,-282
164732,2.465,5.093,0.730,-0.893098,0.230720,-2.568047,100263.98,-53,-48,-282
164743,2.786,3.811,1.411,0.259452,0.109931,-2.894763,100263.98,-55,-41,-283
164752,3.505,1.874,2.135,1.131580,0.153032,-3.190616,100264.30,-59,-37,-283
164762,3.635,-0.657,2.791,1.409873,0.323307,-3.389092,100259.36,-62,-34,-282
164772,3.443,-2.042,3.036,1.242259,0.525509,-3.653551,100263.50,-62,-34,-282
164783,3.765,-1.874,2.570,0.970351,0.699509,-4.012725,100258.94,-66,-28,-282
164792,5.080,-0.793,2.333,0.884149,0.814977,-4.354340,100258.94,-71,-21,-280
164802,6.957,-0.192,2.059,1.048038,0.857014,-4.599110,100264.10,-74,-13,-280
164812,8.124,-0.603,1.737,1.474790,0.843711,-4.814615,100262.80,-74,-13,-280
164823,8.690,-1.250,1.922,1.837689,0.885747,-5.030651,100262.59,-78,-6,-279
164833,9.286,-1.584,2.218,2.031377,0.908096,-5.205715,100262.59,-81,+0,-278
164842,9.906,-1.655,1.832,2.193671,0.854885,-5.306816,100262.59,-84,+8,-277
164852,10.638,-2.267,1.196,2.479414,0.790500,-5.348320,100264.00,-84,+8,-277
164862,11.609,-3.282,1.320,2.830074,0.780922,-5.368541,100262.28,-85,+14,-276
164873,13.027,-4.869,2.249,2.971615,0.751656,-5.391421,100264.00,-87,+20,-276
164882,14.792,-7.147,3.498,2.750257,0.629271,-5.445165,100262.91,-88,+27,-276
164892,15.962,-8.291,4.300,2.241029,0.447289,-5.596284,100262.91,-88,+27,-276
164902,16.644,-8.340,5.265,1.838754,0.380243,-5.781990,100265.71,-87,+36,-276
164913,17.351,-8.583,6.480,1.755212,0.402592,-5.901715,100261.51,-85,+48,-276
164923,17.920,-10.627,7.076,1.935065,0.439839,-5.875641,100261.46,-83,+58,-277
164932,17.837,-13.519,6.496,2.071285,0.344592,-5.777733,100263.35,-83,+58,-277
164942,17.490,-16.803,5.105,2.179304,0.284996,-5.491458,100263.35,-80,+66,-278
164953,16.233,-19.021,2.994,2.147377,0.296702,-5.016816,100264.94,-76,+74,-279
164963,13.355,-19.825,3.009,1.994130,0.391418,-4.361257,100266.61,-73,+78,-280
164972,10.072,-24.856,5.614,2.061707,0.564353,-3.459863,100268.45,-73,+78,-280
164982,5.912,-29.169,6.920,1.551414,0.473895,-2.533992,100268.50,-72,+79,-280
164993,2.209,-30.707,5.217,0.443562,0.298830,-1.405387,100268.50,-71,+81,-281
164998,1.729,-29.316,3.361,-0.466346,0.322243,-0.354470,100269.40,-71,+81,-281
165007,6.471,-25.990,3.668,-0.951098,0.475491,0.726244,100269.40,-73,+83,-280
165017,9.454,-21.529,3.336,-0.812217,0.248812,1.839418,100267.84,-76,+82,-279
165027,11.107,-14.169,2.348,-0.211465,-0.227426,3.043582,100266.52,-78,+74,-280
165038,20.567,7.484,0.875,0.056718,-0.917040,3.285160,100260.70,-78,+74,-280
165048,29.633,35.654,-12.142,-0.374823,-1.376783,1.589859,100274.64,-76,+68,-283
165058,20.754,15.229,-16.314,-0.486566,-0.083757,1.380207,100270.50,-78,+67,-282
165067,15.962,-16.055,6.466,2.549652,0.026390,3.795453,100266.88,-81,+48,-284
165078,13.300,-26.656,14.272,4.282733,-0.185389,4.240829,100266.88,-81,+48,-284
165088,12.803,-18.395,3.918,2.320845,0.203583,3.541637,100264.25,-81,+29,-284
165097,13.057,-0.344,2.208,1.708387,0.550518,3.537912,100264.25,-85,+16,-283
165107,1.140,4.904,6.347,3.180202,0.484537,3.011656,100267.59,-87,+0,-282
165117,-6.486,-3.566,13.896,3.536184,0.240298,2.626940,100269.27,-87,+0,-282
165128,2.032,-16.784,4.293,1.553011,-0.325866,2.669509,100265.87,-86,-13,-281
165138,12.447,-20.740,-0.467,-1.445960,0.305748,2.300757,100265.02,-86,-17,-280
165147,16.032,-11.642,1.971,-3.074748,0.850096,1.504721,100265.02,-87,-11,-280
165157,13.245,-2.759,4.222,-3.556307,0.837325,1.192905,100267.07,-87,-11,-280
165168,8.459,0.495,3.280,-3.017812,0.632463,1.112556,100266.87,-88,-6,-279
165178,6.917,0.914,1.283,-2.013189,0.584041,1.062006,100268.23,-90,-3,-278
165188,7.867,2.190,2.170,-0.946309,0.634592,1.108831,100268.23,-92,-3,-277
165197,9.126,0.562,3.633,0.300956,0.399399,1.159382,100268.23,-92,-3,-277
165208,10.189,-2.646,2.354,1.146479,0.116849,1.213125,100267.74,-92,-8,-275
165218,9.903,-5.695,1.832,1.145947,0.221142,1.262611,100265.90,-92,-15,-275
165227,8.855,-6.819,3.908,0.503158,0.455803,1.143419,100270.68,-94,-19,-274
165237,7.987,-7.077,7.290,-0.620126,0.552115,0.859804,100261.91,-94,-19,-274
165248,7.729,-6.030,7.369,-1.707758,0.527106,0.528832,100261.91,-95,-18,-272
165258,8.296,-3.418,5.478,-2.393115,0.634060,0.247346,100266.81,-96,-14,-273
165268,8.221,-1.025,4.445,-2.509115,0.723986,0.052061,100268.86,-99,-8,-270
165278,9.144,0.639,2.496,-2.027024,0.574995,0.086116,100268.92,-99,-8,-270
165287,10.495,0.673,0.992,-1.150107,0.362151,0.323437,100268.92,-98,-5,-270
165298,10.643,-2.026,1.641,-0.335979,0.197197,0.537346,100267.07,-99,-3,-269
165308,9.575,-4.795,3.093,-0.093869,0.126959,0.636318,100267.07,-99,-5,-270
165317,8.848,-4.969,4.512,-0.449850,0.172188,0.638446,100270.01,-99,-5,-270
165327,8.494,-3.479,5.125,-0.876602,0.187619,0.589492,100268.59,-99,-6,-269
165338,8.364,-2.537,4.777,-1.080933,0.129619,0.576722,100269.59,-100,-4,-269
165348,8.452,-1.751,4.357,-1.122437,0.076409,0.642171,100269.59,-99,-4,-269
165358,8.639,-1.477,4.120,-1.038364,-0.033738,0.751254,100268.54,-99,-4,-269
165367,8.488,-1.425,3.498,-0.844676,-0.192839,0.878428,100269.32,-99,-3,-270
165378,8.460,-1.891,2.934,-0.565318,-0.251903,1.008795,100266.96,-99,-5,-269
165388,8.809,-3.435,2.517,-0.341832,-0.261481,1.126923,100266.27,-98,-7,-270
165398,9.028,-4.837,2.160,-0.364713,-0.230087,1.162575,100267.43,-98,-7,-270
165408,9.229,-5.018,2.311,-0.526474,-0.150802,1.131180,100269.23,-97,-9,-270
165417,9.583,-4.805,2.138,-0.639282,-0.073646,1.098189,100268.85,-97,-11,-270
165428,9.799,-4.625,2.055,-0.648327,-0.025757,1.093932,100268.85,-97,-11,-270
165438,9.758,-3.999,1.968,-0.662162,-0.017243,1.141822,100267.18,-97,-11,-270
165447,9.680,-3.470,2.143,-0.632896,-0.034270,1.242923,100267.18,-97,-14,-270
165457,9.789,-3.054,2.336,-0.556272,-0.090674,1.354134,100269.98,-96,-16,-271
165469,10.263,-2.622,2.523,-0.447190,-0.165879,1.499400,100267.60,-95,-19,-272
165478,10.554,-2.567,2.802,-0.313630,-0.226362,1.640941,100267.60,-94,-22,-272
165488,10.944,-2.829,3.235,-0.191777,-0.279573,1.785675,100267.57,-94,-22,-272
165497,11.902,-3.336,3.754,-0.148144,-0.298197,1.917638,100267.57,-92,-27,-273
165508,12.760,-3.859,3.547,-0.251906,-0.290747,2.064500,100269.35,-90,-31,-274
165518,13.124,-3.603,2.850,-0.440805,-0.269995,2.218280,100267.77,-89,-36,-274
165528,13.318,-3.039,2.307,-0.596713,-0.285426,2.405583,100266.88,-89,-36,-274
165537,13.844,-3.168,2.256,-0.646199,-0.329591,2.598739,100266.88,-86,-41,-275
165548,14.652,-4.047,2.605,-0.726015,-0.380674,2.762628,100266.88,-83,-45,-276
165558,15.686,-5.262,3.585,-1.034107,-0.353004,2.856280,100272.09,-81,-49,-277
165568,18.193,-4.711,4.346,-1.713611,-0.207738,2.856812,100265.73,-81,-49,-277
165577,21.197,-1.134,5.293,-2.671409,-0.026289,2.782316,100265.64,-79,-50,-279
165583,22.424,2.570,6.658,-3.186491,0.005106,2.741344,100264.69,-79,-50,-279
165593,22.790,5.485,7.188,-3.259390,-0.019371,2.803069,100264.69,-76,-50,-281
165603,22.252,6.798,7.762,-2.942253,0.050335,2.961637,100266.03,-73,-48,-283
165613,20.169,5.354,8.879,-2.674601,0.172720,3.022830,100262.89,-73,-48,-284
165622,16.725,0.063,10.485,-2.197299,0.204115,3.084023,100263.05,-73,-48,-284
165633,14.854,-10.536,8.117,-1.336877,-0.024160,3.384133,100267.77,-70,-50,-284
165643,17.617,-15.607,6.439,-1.161281,-0.201353,3.573032,100267.77,-66,-56,-285
165653,17.586,-9.576,8.791,-1.481611,-0.150270,3.254830,100266.53,-63,-60,-286
165662,16.180,-1.953,8.598,-1.070823,-0.318417,2.955784,100263.64,-63,-60,-286
165672,14.277,3.415,5.885,-0.464217,-0.545628,2.387491,100268.89,-59,-63,-286
165683,9.554,6.319,2.494,-0.230089,-0.649389,1.645198,100266.73,-55,-67,-287
165693,2.505,3.178,2.814,-0.125796,-0.410472,1.294006,100266.73,-53,-70,-287
165703,-2.310,-4.539,3.909,0.525507,-0.091206,1.316886,100266.65,-52,-70,-287
165712,-1.180,-7.314,7.628,0.766020,0.279674,0.879492,100260.20,-52,-74,-285
165723,2.925,-6.320,6.925,0.476020,-0.025224,0.107401,100262.87,-52,-77,-284
165733,3.429,-2.856,2.624,-0.277447,-0.430692,-0.730140,100263.80,-52,-76,-284
165743,2.879,-0.658,-0.207,-1.303355,-0.351408,-1.214360,100263.80,-52,-69,-287
165752,2.344,0.854,-1.433,-2.040859,-0.192839,-1.467112,100269.93,-52,-69,-287
165763,1.591,2.704,-2.659,-2.074382,-0.089610,-1.728910,100269.02,-54,-60,-288
165773,2.003,4.588,-1.881,-1.600804,0.075876,-1.980066,100266.99,-55,-52,-289
165783,2.574,5.001,0.573,-0.591392,0.160482,-2.360524,100262.90,-58,-45,-290
165792,3.077,4.271,1.315,0.581378,0.018941,-2.791533,100262.90,-58,-45,-290
165803,3.250,2.075,1.956,1.442864,0.027454,-3.080469,100265.38,-60,-42,-288
165813,3.405,-0.825,2.947,1.725414,0.232849,-3.241698,100262.55,-62,-40,-287
165819,3.544,-2.599,3.297,1.565249,0.424408,-3.374726,100259.61,-62,-40,-287
165828,3.582,-2.906,3.227,1.288552,0.602665,-3.612046,100259.61,-67,-35,-285
165838,4.183,-1.801,2.960,1.011323,0.774004,-4.048909,100260.86,-71,-29,-284
165848,5.701,-0.191,2.601,0.972479,0.827748,-4.441606,100260.86,-71,-29,-284
165858,7.500,0.536,2.105,1.196497,0.827748,-4.689037,100258.93,-76,-21,-282
165868,8.404,-0.260,1.953,1.665286,0.835197,-4.877935,100258.41,-81,-13,-280
165878,8.795,-1.092,2.541,2.154827,0.883087,-5.076413,100263.02,-85,-7,-278
165888,8.829,-1.419,3.057,2.491120,0.899050,-5.206247,100263.02,-85,-7,-278
165898,9.132,-1.827,2.979,2.741744,0.869784,-5.277550,100263.02,-88,+0,-277
165908,10.169,-2.975,2.453,3.003542,0.838390,-5.331825,100260.49,-92,+5,-275
165918,11.434,-4.157,2.594,3.199890,0.852757,-5.399935,100265.37,-94,+11,-274
165927,13.062,-5.738,3.465,3.155193,0.788903,-5.472302,100263.85,-94,+11,-274
165939,14.752,-7.707,4.675,2.829187,0.608518,-5.573403,100262.58,-96,+17,-271
165948,15.912,-8.664,5.661,2.425138,0.523381,-5.701642,100262.58,-96,+27,-272
165958,16.906,-8.554,7.035,2.046276,0.551583,-5.889476,100262.95,-96,+37,-272
165968,17.532,-8.979,7.819,2.003708,0.639913,-6.000155,100264.36,-95,+47,-272
165978,17.925,-12.517,7.907,2.055854,0.640977,-5.962907,100261.69,-95,+47,-272
165988,18.060,-15.681,6.061,1.786075,0.419619,-5.892669,100260.70,-93,+60,-272
165998,18.047,-17.700,4.208,1.553543,0.358959,-5.572871,100269.89,-90,+71,-272
166008,16.047,-17.391,3.082,1.432754,0.426537,-5.076413,100269.94,-87,+80,-272
166018,12.448,-20.266,5.372,1.595047,0.674500,-4.325606,100269.94,-87,+80,-272
166028,8.033,-24.166,7.179,1.258222,0.775601,-3.444432,100269.16,-85,+86,-272
166038,3.740,-27.472,7.217,0.445690,0.729839,-2.312634,100265.73,-85,+92,-271
166048,2.082,-28.463,2.900,-0.559997,0.608518,-0.967993,100265.73,-86,+95,-268
166053,3.860,-26.719,1.467,-1.044217,0.684078,0.126557,100268.37,-86,+95,-268
166063,8.775,-23.522,3.565,-0.976639,0.665986,1.093400,100271.51,-89,+94,-265
166073,10.420,-18.402,2.074,-0.464750,0.266904,2.094299,100267.57,-89,+94,-265
166083,11.257,-13.103,0.883,-0.037465,-0.142289,3.193637,100269.15,-92,+88,-265
166093,21.023,8.599,-0.450,0.273819,-0.894160,3.284628,100269.15,-95,+79,-267
166103,30.962,36.594,-15.883,-0.081098,-1.395407,1.532923,100269.49,-94,+74,-270
166113,24.965,15.470,-17.256,0.093434,-0.200821,1.668079,100273.05,-94,+74,-270
166123,18.262,-20.086,11.170,3.619725,-0.001280,4.194004,100269.34,-97,+66,-270
166133,9.642,-34.872,11.723,4.780788,-0.265738,4.186554,100264.29,-99,+41,-272
166142,12.851,-19.752,3.117,2.104808,0.518060,3.530995,100264.29,-102,+27,-271
166153,13.890,2.635,0.100,1.458827,0.609582,3.598041,100273.06,-102,+27,-271
166163,-0.419,4.699,11.558,2.647028,0.785179,2.899381,100269.23,-104,+13,-269
166173,-7.715,-5.931,11.693,2.566148,0.010427,2.528500,100266.56,-106,+0,-268
166182,2.901,-17.655,2.809,0.316388,-0.117279,2.661528,100269.66,-105,-9,-268
166193,13.544,-18.993,0.418,-2.036602,0.377051,2.008097,100269.66,-105,-9,-268
166203,16.978,-10.260,2.225,-3.189684,0.733032,1.299859,100271.20,-106,-7,-267
166213,12.483,-2.152,4.486,-3.421151,0.749527,1.030079,100267.30,-107,-1,-266
166223,8.519,0.724,0.993,-2.650124,0.543069,0.880556,100264.54,-108,+1,-265
166233,7.386,1.983,1.916,-1.621024,0.672904,0.959841,100268.62,-109,+1,-263
166243,7.936,3.086,3.356,-0.169961,0.432390,1.035400,100268.62,-109,+1,-263
166253,9.410,-0.179,2.426,1.193304,0.081730,1.076373,100270.10,-110,-2,-262
166263,10.220,-5.518,2.224,1.667946,0.031711,1.199290,100269.10,-108,-10,-262
166273,9.131,-8.510,5.192,1.095928,0.264243,1.127987,100267.48,-110,-16,-260
166283,7.966,-8.037,7.988,-0.333851,0.389289,0.708685,100264.85,-110,-16,-260
166289,7.336,-5.542,8.090,-1.293244,0.371197,0.322373,100264.85,-111,-13,-260
166298,7.954,-3.862,6.681,-1.848235,0.390885,0.110593,100264.85,-111,-13,-260
166308,8.265,-1.991,5.450,-2.197831,0.514867,-0.087883,100267.81,-112,-9,-259
166319,8.392,0.116,3.805,-2.183464,0.527638,-0.146948,100270.80,-113,-4,-259
166328,9.789,1.323,1.801,-1.651354,0.441436,0.025988,100270.02,-115,+0,-258
166338,11.015,-0.177,1.345,-0.841483,0.287656,0.259052,100268.12,-115,+0,-258
166348,10.512,-2.822,2.632,-0.307245,0.167931,0.414960,100271.01,-114,-1,-257
166359,9.492,-4.357,4.066,-0.429098,0.165803,0.483602,100268.60,-115,-1,-257
166368,8.582,-3.425,5.354,-0.863832,0.256262,0.467107,100268.60,-115,+0,-257
166378,8.069,-1.690,5.596,-1.179905,0.277546,0.467107,100267.34,-115,+0,-257
166388,7.809,-0.882,5.093,-1.291116,0.267968,0.536813,100266.91,-116,+0,-256
166398,7.658,-0.687,4.646,-1.294841,0.266372,0.641107,100266.91,-116,+1,-255
166408,7.813,-0.776,4.144,-1.211300,0.258922,0.748061,100268.36,-117,+1,-255
166418,8.323,-1.445,3.492,-1.129887,0.245087,0.862465,100269.30,-117,+1,-255
166428,8.870,-2.389,3.037,-1.029318,0.243491,0.959309,100267.67,-117,+1,-253
166438,9.303,-3.440,2.832,-0.982492,0.220610,0.997620,100266.52,-118,+1,-253
166449,9.571,-4.028,2.675,-0.961208,0.188684,1.016776,100266.52,-118,+0,-252
166458,9.528,-4.086,2.714,-0.959080,0.180170,1.040721,100271.30,-118,-1,-252
166468,9.350,-3.870,2.696,-0.978768,0.188152,1.076373,100270.24,-118,-1,-252
166478,9.283,-3.647,2.788,-1.002712,0.198262,1.122134,100270.02,-119,-1,-252
166488,9.401,-3.788,2.660,-1.004309,0.184959,1.170024,100270.02,-119,-3,-252
166498,9.593,-4.119,2.564,-1.008566,0.153032,1.207804,100270.02,-120,-4,-252
166508,10.028,-4.023,2.767,-1.012290,0.056720,1.241327,100271.56,-120,-4,-252
166518,10.195,-3.800,2.818,-0.969722,-0.107169,1.265804,100267.31,-120,-5,-250
166529,10.228,-3.431,3.079,-0.860639,-0.199756,1.345620,100269.78,-119,-7,-252
166539,10.121,-3.373,3.264,-0.796786,-0.280105,1.470666,100268.47,-117,-11,-253
166548,10.522,-3.254,3.702,-0.786676,-0.339169,1.620721,100268.47,-117,-11,-253
166558,11.550,-2.740,4.076,-0.796254,-0.381206,1.774501,100270.36,-117,-13,-254
166568,12.448,-2.374,4.070,-0.798914,-0.450912,1.910721,100269.20,-116,-18,-255
166579,12.940,-2.087,3.299,-0.763263,-0.540839,2.067693,100262.59,-113,-22,-256
166588,13.259,-2.505,2.445,-0.700474,-0.629169,2.248610,100262.59,-113,-22,-256
166598,14.054,-2.986,2.256,-0.720162,-0.727609,2.411968,100269.30,-111,-27,-257
166608,14.919,-3.522,2.243,-0.855850,-0.805297,2.587032,100269.30,-108,-32,-260
166619,15.456,-4.528,2.965,-1.115520,-0.741444,2.702500,100268.45,-104,-37,-262
166628,17.166,-3.783,3.459,-1.666253,-0.617995,2.716335,100267.03,-104,-37,-262
166638,19.707,-0.417,4.081,-2.397904,-0.431756,2.699307,100264.83,-102,-40,-265
166648,21.306,3.738,5.397,-2.816143,-0.357261,2.740812,100264.83,-99,-40,-267
166659,22.343,6.955,5.971,-2.726748,-0.401426,2.899913,100269.54,-97,-40,-269
166669,21.594,7.125,6.749,-2.305849,-0.362582,3.081894,100266.24,-97,-40,-269
166678,18.700,3.125,8.272,-1.719996,-0.335977,3.276114,100264.13,-94,-44,-270
166688,15.806,-5.008,8.454,-0.956951,-0.452509,3.528334,100264.71,-90,-51,-273
166699,16.393,-13.450,9.119,-0.381208,-0.660563,3.903472,100268.91,-85,-61,-274
166709,18.743,-13.021,10.228,-0.571171,-0.603096,3.854518,100265.18,-85,-61,-274
166718,17.898,-5.799,10.758,-0.579153,-0.509976,3.578353,100265.18,-81,-68,-274
166728,16.028,-0.356,8.736,-0.243924,-0.484967,3.267068,100262.98,-76,-75,-276
166738,14.112,3.335,6.861,0.215819,-0.653114,2.626408,100262.98,-72,-81,-276
166748,10.222,5.677,4.771,0.632461,-0.961738,1.885712,100262.98,-72,-81,-276
166759,3.377,3.857,3.892,0.885922,-0.735591,1.553675,100265.60,-68,-87,-277
166768,-1.206,-3.147,6.205,1.284827,-0.340766,1.607950,100265.60,-65,-94,-275
166778,-0.897,-8.077,8.133,1.485433,0.148243,1.171620,100267.26,-64,-100,-273
166789,2.343,-9.540,7.591,0.838387,-0.073646,0.286722,100263.27,-64,-100,-273
166798,2.711,-7.351,4.319,-0.070988,-0.529664,-0.579021,100263.27,-63,-101,-272
166808,1.959,-3.798,0.628,-1.353905,-0.600967,-1.124433,100268.52,-63,-96,-275
166818,1.584,-0.592,-1.152,-2.396308,-0.478582,-1.435717,100265.00,-63,-87,-279
166829,1.298,1.280,-2.175,-2.775702,-0.408343,-1.720928,100263.95,-63,-87,-279
166838,0.824,2.650,-1.998,-2.628840,-0.247114,-2.031681,100263.95,-64,-76,-282
166848,0.977,3.685,-0.483,-1.963171,-0.063004,-2.350946,100263.95,-67,-64,-284
166858,1.135,4.067,0.865,-0.938327,-0.044380,-2.693625,100269.96,-69,-56,-285
166868,1.770,3.188,1.686,0.129085,-0.057683,-2.969258,100265.34,-69,-56,-285
166879,2.580,1.710,2.506,1.009727,0.001381,-3.192212,100265.07,-71,-50,-284
166888,3.296,-0.398,3.107,1.417855,0.112592,-3.353973,100261.15,-74,-45,-283
166898,3.911,-1.526,2.936,1.398167,0.227528,-3.545001,100261.15,-78,-40,-282
166908,3.728,-0.433,2.645,1.215121,0.369601,-3.896725,100261.96,-81,-40,-280
166919,4.183,1.602,2.747,1.294405,0.468573,-4.271863,100258.96,-81,-35,-280
166929,5.957,2.474,2.770,1.699341,0.513271,-4.504395,100260.18,-85,-26,-279
166938,7.232,1.380,3.218,2.350643,0.561161,-4.696486,100260.18,-89,-19,-277
166948,8.111,-0.384,3.890,2.856679,0.619160,-4.927954,100263.54,-92,-13,-274
166959,9.005,-1.985,3.759,3.069523,0.645234,-5.145587,100263.54,-92,-13,-274
166968,9.704,-3.141,3.279,3.099322,0.670775,-5.358963,100259.04,-95,-7,-273
166978,10.506,-3.759,2.717,3.172753,0.672904,-5.522852,100260.51,-99,+0,-271
166988,11.378,-3.999,2.526,3.422844,0.637784,-5.659605,100260.20,-101,+7,-270
166999,12.983,-4.192,3.396,3.680918,0.562757,-5.776669,100260.20,-101,+7,-270
167009,15.476,-5.854,5.415,3.763927,0.415895,-5.828284,100264.83,-102,+15,-270
167018,18.103,-10.140,8.019,3.575028,0.331821,-5.834137,100264.98,-103,+21,-270
167028,19.097,-13.898,10.389,2.973744,0.380775,-6.045384,100263.67,-102,+32,-270
167038,17.677,-16.949,10.253,2.242093,0.617564,-6.348687,100263.09,-102,+32,-270
167049,18.352,-20.701,7.711,1.081029,0.606390,-6.592926,100263.63,-101,+46,-270
167059,19.068,-22.912,4.534,-0.099722,0.385564,-6.623256,100267.14,-99,+65,-270
167068,17.424,-22.228,2.769,-0.398236,0.427069,-6.177880,100267.14,-94,+82,-269
167078,13.257,-17.916,3.458,-0.271062,0.705894,-5.432926,100264.88,-94,+82,-269
167089,11.300,-19.436,7.798,0.130149,0.993234,-4.287826,100266.67,-90,+96,-267
167098,7.348,-25.705,9.415,0.149837,0.885215,-3.019808,100266.67,-88,+103,-265
167108,2.687,-30.038,5.739,-0.569575,0.598408,-1.716139,100266.00,-88,+111,-264
167118,2.119,-29.381,-1.114,-1.210768,0.510610,-0.176214,100270.34,-88,+111,-264
167129,9.538,-25.330,-0.786,-1.082529,0.566482,1.320079,100268.45,-90,+111,-260
167139,12.741,-19.552,-1.841,-0.312034,0.007766,2.428996,100267.05,-94,+105,-260
167148,15.357,-7.645,0.347,0.603727,-0.581279,3.366573,100267.05,-97,+96,-262
167158,22.165,19.874,1.993,1.210864,-0.993132,2.871179,100265.99,-97,+96,-262
167169,23.443,35.054,-8.805,0.357360,-0.885114,0.897584,100267.88,-97,+87,-266
167179,14.422,8.523,-13.340,0.382369,-0.242325,1.377547,100274.45,-97,+85,-267
167188,18.071,-18.437,4.272,2.508680,-0.083224,3.596444,100274.45,-101,+70,-269
167198,16.592,-27.988,7.455,2.747065,0.230720,3.625710,100274.45,-101,+70,-269
167208,14.801,-14.026,5.269,0.986314,0.897454,2.959509,100270.80,-105,+55,-268
167219,13.971,2.298,7.236,1.417855,0.456335,3.242059,100268.44,-109,+42,-266
167229,1.306,1.353,10.009,2.270827,-0.003940,2.867986,100264.70,-110,+29,-266
167238,-4.228,-4.042,7.793,2.097891,-0.148142,2.440702,100265.97,-110,+29,-266
167248,2.415,-9.058,3.569,0.671837,0.006702,2.444427,100265.97,-110,+20,-266
167259,10.061,-12.476,0.554,-0.785080,0.151968,2.207638,100269.55,-110,+13,-267
167269,15.163,-12.114,1.482,-1.924327,0.388225,1.941583,100266.62,-113,+13,-265
167279,13.702,-5.802,2.958,-2.575097,0.524977,1.493547,100266.54,-113,+13,-265
167288,9.135,-0.894,2.515,-2.356932,0.593619,1.137565,100266.54,-113,+15,-264
167299,7.422,0.934,2.139,-1.560364,0.568610,1.163639,100265.20,-115,+15,-262
167309,7.518,1.286,2.909,-0.555740,0.497839,1.179070,100265.20,-117,+13,-262
167318,8.350,-1.074,3.759,0.379709,0.283931,1.213125,100270.76,-117,+13,-262
167328,9.497,-4.426,2.899,0.820296,0.110996,1.242923,100265.77,-116,+9,-260
167339,9.718,-6.503,3.209,0.547855,0.217418,1.175877,100263.09,-117,+4,-260
167349,8.995,-7.037,5.437,-0.207208,0.366940,0.951327,100263.09,-119,+1,-259
167359,8.118,-5.603,6.858,-1.067630,0.389821,0.631529,100270.34,-119,+1,-259
167368,7.881,-4.000,6.208,-1.671574,0.429729,0.361217,100266.42,-120,+3,-257
167378,7.954,-2.853,4.911,-2.019574,0.518592,0.178704,100268.30,-120,+6,-255
167389,8.621,-1.705,3.619,-2.089813,0.532959,0.135071,100267.31,-122,+10,-255
167399,9.715,-1.046,2.463,-1.762033,0.431858,0.228722,100268.42,-122,+10,-255
167409,10.246,-1.005,2.139,-1.192676,0.302023,0.363346,100265.95,-122,+13,-254
167418,9.724,-2.334,2.767,-0.744639,0.190280,0.468703,100269.78,-123,+13,-252
167429,9.106,-3.758,3.638,-0.661098,0.128023,0.524575,100269.78,-122,+13,-253
167439,8.991,-3.758,4.334,-0.894162,0.146115,0.536281,100264.91,-122,+13,-252
167448,8.545,-2.596,4.905,-1.144786,0.178574,0.524043,100264.91,-122,+13,-252
167458,8.089,-1.526,4.856,-1.255997,0.191876,0.546391,100267.65,-123,+15,-251
167464,7.937,-1.003,4.685,-1.268767,0.196665,0.594813,100267.87,-123,+15,-251
167474,8.167,-0.888,4.662,-1.225667,0.167399,0.671437,100269.02,-124,+15,-251
167484,8.496,-1.066,3.987,-1.102217,0.098225,0.788501,100267.34,-123,+15,-250
167493,8.598,-1.709,3.538,-0.921832,0.072152,0.909822,100267.34,-125,+15,-250
167503,8.675,-2.725,2.731,-0.751025,0.046078,1.005602,100270.98,-125,+15,-250
167514,8.854,-3.759,2.230,-0.682382,0.033840,1.082758,100269.89,-125,+13,-250
167524,9.155,-4.597,2.072,-0.701538,0.022665,1.137565,100269.09,-124,+10,-250
167534,9.423,-4.615,1.864,-0.789869,0.028519,1.156721,100270.63,-126,+9,-249
167543,9.680,-4.260,2.217,-0.857979,0.056188,1.168428,100270.63,-126,+9,-249
167554,9.882,-3.752,2.644,-0.861171,0.030647,1.179602,100269.70,-126,+7,-250
167564,10.175,-3.330,3.237,-0.844144,-0.109830,1.240263,100268.66,-126,+5,-249
167574,10.237,-2.882,2.948,-0.787208,-0.285958,1.386593,100265.67,-125,+2,-250
167583,10.015,-2.851,3.037,-0.660566,-0.355132,1.510574,100267.50,-125,+2,-250
167593,10.275,-3.354,3.300,-0.590327,-0.429096,1.598372,100267.50,-124,+1,-251
167604,10.692,-2.904,3.936,-0.582346,-0.473793,1.754813,100265.63,-123,-3,-252
167614,11.181,-3.119,4.399,-0.510511,-0.455701,1.879326,100267.67,-122,-8,-254
167623,11.849,-3.730,4.099,-0.512107,-0.432288,1.986812,100265.52,-122,-8,-254
167633,12.813,-3.971,3.322,-0.717502,-0.449848,2.174115,100264.31,-120,-13,-254
167644,13.620,-3.757,2.560,-0.925557,-0.490288,2.336941,100264.31,-119,-17,-256
167654,14.625,-3.909,2.267,-1.009098,-0.558398,2.493381,100271.58,-117,-22,-257
167663,15.587,-4.563,2.423,-1.106474,-0.611609,2.594482,100269.06,-115,-22,-257
167673,16.891,-4.846,2.572,-1.391153,-0.571169,2.644500,100266.44,-115,-27,-259
167684,18.980,-2.870,2.693,-2.017446,-0.460490,2.654078,100269.48,-112,-31,-262
167694,20.570,1.253,3.473,-2.592657,-0.395573,2.693454,100269.48,-111,-33,-264
167704,21.876,4.809,4.727,-2.657042,-0.455169,2.850959,100268.25,-108,-35,-265
167713,22.742,6.690,5.810,-2.345226,-0.470068,3.060610,100269.61,-108,-35,-265
167724,21.746,6.308,6.635,-1.924327,-0.437609,3.213325,100268.45,-104,-37,-268
167734,18.680,2.772,8.897,-1.501832,-0.383334,3.318151,100263.31,-101,-43,-270
167744,15.408,-4.775,9.859,-0.895758,-0.453041,3.485765,100263.31,-98,-50,-271
167753,15.572,-13.002,9.794,-0.321080,-0.648857,3.823123,100266.13,-98,-50,-271
167763,17.814,-11.820,9.984,-0.529667,-0.625444,3.759802,100264.23,-93,-60,-272
167774,17.040,-4.809,10.647,-0.521153,-0.563720,3.474059,100261.72,-88,-68,-275
167784,15.249,0.678,9.203,-0.051832,-0.639811,3.124995,100266.95,-83,-74,-275
167793,13.287,5.309,7.126,0.498901,-0.842013,2.448684,100266.95,-83,-74,-275
167803,9.274,8.055,4.351,0.847965,-1.092637,1.667547,100265.73,-78,-80,-277
167814,2.896,5.209,3.135,0.893727,-1.041022,1.263143,100265.37,-74,-85,-277
167824,-1.532,-2.877,3.566,1.181598,-0.822857,1.296134,100261.95,-71,-91,-278
167834,-0.747,-7.940,6.158,1.109231,-0.314160,0.985914,100263.68,-71,-91,-278
167843,3.116,-8.695,8.027,0.698442,-0.386527,0.280336,100263.68,-69,-95,-277
167854,4.176,-5.560,5.960,0.309470,-0.911719,-0.656177,100268.38,-68,-94,-279
167864,3.297,-2.328,2.905,-0.042254,-1.219811,-1.249479,100266.43,-66,-90,-282
167874,1.762,-0.488,0.975,-0.280107,-1.281536,-1.519791,100267.74,-66,-90,-282
167883,0.474,-0.118,0.173,-0.455704,-1.108600,-1.743809,100267.43,-64,-85,-284
167894,0.138,0.185,-0.254,-0.674933,-0.788802,-2.047644,100267.43,-64,-79,-287
167904,0.344,0.721,-0.523,-0.786676,-0.560527,-2.350414,100266.14,-64,-70,-288
167914,0.622,1.211,0.050,-0.741979,-0.400894,-2.636689,100266.19,-64,-70,-288
167924,1.352,1.413,1.534,-0.570639,-0.187518,-2.920304,100265.25,-66,-62,-289
167933,2.395,0.879,2.824,-0.240199,-0.057683,-3.285863,100260.47,-68,-54,-290
167944,3.491,0.145,3.000,0.110461,0.000849,-3.731239,100260.47,-71,-44,-290
167954,5.008,0.388,3.095,0.483470,0.166335,-4.104780,100263.49,-71,-44,-290
167964,5.156,0.901,3.269,0.708552,0.380243,-4.310174,100259.13,-73,-35,-289
167973,4.501,0.791,3.226,0.809653,0.572335,-4.508651,100261.65,-75,-27,-288
167984,5.266,0.252,2.846,1.056552,0.698445,-4.828449,100259.98,-79,-17,-287
167994,7.628,-0.327,2.460,1.350277,0.805399,-5.106211,100259.98,-79,-17,-287
168004,9.723,-1.157,2.298,1.671139,0.885747,-5.260522,100262.81,-82,-7,-284
168013,10.736,-1.240,2.332,2.091506,0.934169,-5.433458,100264.55,-85,+1,-283
168024,11.074,-1.987,2.469,2.484203,0.921399,-5.524981,100261.30,-86,+10,-280
168034,11.457,-3.330,2.217,2.869450,0.879362,-5.551054,100261.14,-86,+10,-280
168044,12.430,-4.196,2.146,3.153065,0.844775,-5.609055,100261.14,-86,+16,-279
168054,14.864,-4.733,2.830,3.231817,0.752720,-5.685146,100262.78,-86,+25,-278
168064,18.109,-6.710,4.191,3.228092,0.569674,-5.700045,100261.09,-84,+33,-278
168074,19.984,-9.810,5.424,3.166899,0.301491,-5.755384,100263.14,-84,+33,-278
168084,19.586,-11.800,6.450,2.962037,0.141858,-5.876706,100262.47,-81,+40,-280
168094,18.298,-13.264,7.257,2.701303,0.177509,-5.900118,100262.47,-77,+48,-281
168103,18.097,-14.474,7.259,2.372460,0.141858,-5.870320,100264.37,-73,+55,-283
168114,18.248,-17.142,6.702,2.119175,0.091840,-5.665458,100265.10,-73,+55,-283
168124,17.058,-20.019,5.504,1.924955,0.121638,-5.274889,100267.30,-68,+63,-284
168134,12.849,-20.842,5.066,1.652515,0.267436,-4.742248,100268.82,-63,+69,-285
168143,9.247,-24.820,7.219,1.699873,0.629803,-3.983991,100268.82,-59,+72,-286
168154,5.271,-27.500,8.154,0.907562,0.759105,-3.075680,100267.43,-59,+76,-285
168164,2.463,-28.966,7.468,-0.604694,0.704298,-1.946011,100268.95,-59,+76,-285
168174,2.447,-27.030,4.342,-2.131317,0.697913,-0.619993,100266.59,-59,+82,-283
168184,7.029,-22.481,5.541,-2.753886,0.905968,0.690061,100266.27,-61,+87,-279
168194,10.038,-17.081,4.076,-2.590528,0.636188,1.656904,100266.27,-63,+89,-276
168204,10.801,-11.720,0.961,-2.157923,0.174849,2.705161,100271.07,-63,+89,-276
168214,18.363,5.000,-0.641,-1.547061,-0.490820,3.113289,100266.98,-67,+86,-275
168224,27.756,32.209,-8.388,-1.100089,-1.086783,1.887840,100266.51,-64,+83,-277
168233,25.657,26.577,-15.158,-0.403557,-0.303518,1.279639,100270.60,-66,+79,-276
168244,18.998,-7.122,3.221,2.628937,-0.123665,3.607087,100270.60,-66,+79,-276
168254,13.344,-28.239,15.311,5.673136,-0.472729,4.698976,100266.13,-69,+57,-280
168264,12.663,-29.316,2.552,4.036367,-0.251371,4.201985,100270.38,-71,+35,-283
168273,13.198,-4.475,0.857,1.945176,0.494115,3.470866,100264.20,-73,+21,-281
168284,0.867,7.235,6.283,2.918404,0.677160,2.863729,100265.98,-73,+21,-281
168294,-9.160,2.109,16.756,3.666018,0.384500,2.499234,100265.98,-74,+7,-280
168304,-0.030,-12.423,6.647,2.456533,-0.574362,2.671638,100263.29,-73,-7,-280
168314,13.153,-22.745,-1.319,-0.443465,-0.216784,2.591821,100267.96,-73,-10,-280
168324,17.078,-17.732,0.704,-2.646932,0.609050,1.761730,100264.02,-73,-10,-280
168334,14.866,-5.799,3.596,-3.704766,0.816041,1.102978,100263.40,-74,-6,-279
168344,8.364,-0.338,3.683,-3.760105,0.630867,1.059877,100263.40,-75,+1,-279
168354,6.672,-0.309,1.556,-2.817739,0.533491,1.048703,100268.39,-77,+6,-278
168364,6.971,1.356,1.551,-1.805666,0.564353,1.008795,100270.28,-77,+6,-278
168374,8.485,2.413,3.601,-0.547227,0.520188,1.025290,100269.39,-78,+6,-276
168384,10.342,-0.587,4.367,0.673433,0.222739,1.104575,100267.13,-78,+2,-275
168394,10.204,-3.234,3.258,1.234277,0.025858,1.105107,100267.13,-79,-3,-275
168404,8.257,-5.015,2.493,0.990571,0.131216,1.043382,100267.41,-79,-3,-275
168414,7.855,-5.666,3.253,0.161544,0.352041,0.941217,100270.03,-78,-7,-274
168424,8.657,-4.887,6.080,-0.824456,0.544133,0.719859,100265.78,-80,-7,-273
168434,8.341,-5.292,7.786,-1.756180,0.647362,0.434648,100265.78,-83,-4,-272
168444,8.172,-3.873,6.555,-2.454840,0.707491,0.179236,100265.78,-83,-4,-272
168454,8.032,-0.463,4.970,-2.628840,0.763894,0.035566,100265.40,-83,+1,-271
168464,8.339,1.918,3.122,-2.175483,0.661729,0.146777,100269.23,-85,+6,-270
168474,9.726,1.882,1.224,-1.157024,0.411638,0.445291,100267.38,-85,+8,-269
168484,10.274,-0.597,1.083,-0.084823,0.198794,0.727841,100262.66,-85,+8,-269
168494,9.762,-4.070,2.444,0.446222,0.093968,0.901309,100262.66,-86,+5,-269
168504,8.993,-5.789,3.860,0.256259,0.115253,0.938024,100269.31,-85,+1,-268
168514,8.044,-4.874,4.759,-0.353007,0.201454,0.881088,100268.16,-87,+0,-268
168519,7.535,-3.425,5.217,-0.777098,0.271161,0.827877,100267.22,-87,+0,-268
168529,7.808,-2.397,5.330,-0.987813,0.307344,0.814043,100267.22,-87,+1,-268
168540,8.491,-2.088,4.721,-1.025593,0.301491,0.851290,100263.59,-88,+1,-267
168549,9.133,-2.932,3.484,-0.896291,0.256794,0.914611,100263.59,-88,+1,-267
168559,9.309,-3.689,2.769,-0.766988,0.252005,0.973675,100268.87,-88,+0,-265
168569,9.501,-4.547,1.674,-0.730272,0.238170,1.011987,100267.26,-88,+0,-265
168580,10.072,-4.837,1.691,-0.775502,0.253069,1.031143,100268.38,-90,-1,-265
168589,10.424,-4.614,2.229,-0.861171,0.227528,1.027419,100268.38,-90,-1,-265
168599,10.403,-4.210,2.759,-0.900547,0.208904,1.058281,100268.38,-90,-1,-265
168609,10.048,-4.147,2.946,-0.831905,0.200390,1.071584,100271.93,-90,-2,-264
168620,9.946,-4.052,3.135,-0.826584,0.184427,1.077437,100268.77,-89,-3,-264
168629,10.255,-3.655,3.422,-0.786144,0.141858,1.134905,100269.20,-89,-3,-264
168640,10.775,-3.587,3.722,-0.788450,0.080665,1.279106,100265.87,-90,-5,-264
168649,10.805,-3.360,3.731,-0.846272,-0.010857,1.400960,100265.87,-90,-6,-264
168659,11.471,-3.126,3.853,-0.809025,-0.102380,1.520684,100268.70,-89,-9,-264
168670,12.005,-3.531,3.919,-0.849465,-0.193903,1.708519,100268.60,-89,-9,-264
168679,12.317,-3.014,4.235,-1.067630,-0.309903,1.929345,100271.27,-89,-11,-265
168689,12.539,-1.343,3.886,-1.080933,-0.404619,2.060244,100267.86,-87,-14,-265
168699,13.304,-1.691,3.051,-0.840419,-0.482307,2.208702,100267.86,-85,-19,-267
168710,13.561,-3.035,2.160,-0.693025,-0.582343,2.412500,100270.64,-85,-19,-267
168719,13.747,-3.619,2.129,-0.832437,-0.619059,2.558830,100270.64,-82,-23,-269
168729,14.439,-4.401,3.038,-1.118712,-0.597242,2.683344,100269.80,-79,-27,-270
168739,15.798,-4.326,3.637,-1.545465,-0.489224,2.761564,100266.23,-76,-31,-272
168749,17.777,-2.461,4.243,-2.190382,-0.277977,2.766885,100266.23,-76,-31,-272
168759,19.519,1.331,5.017,-2.799115,-0.084289,2.713674,100271.44,-75,-33,-275
168769,21.018,4.687,5.789,-3.021537,-0.026821,2.734959,100266.23,-72,-32,-277
168779,21.700,6.759,5.814,-2.907665,0.034904,2.820096,100264.72,-70,-31,-279
168790,20.112,5.469,6.981,-2.604363,0.096097,2.947803,100263.30,-70,-31,-279
168800,17.225,0.701,7.938,-2.061611,0.078005,3.115949,100265.64,-68,-33,-280
168809,15.462,-8.888,8.424,-1.279410,-0.146545,3.481509,100265.80,-66,-37,-281
168819,18.010,-14.519,7.813,-0.818603,-0.362582,3.831105,100264.08,-61,-44,-283
168829,18.948,-9.726,9.239,-1.088382,-0.329591,3.617729,100263.92,-61,-44,-283
168839,16.669,-2.565,9.459,-0.910657,-0.302986,3.311766,100263.92,-57,-50,-284
168849,14.798,2.560,7.162,-0.478584,-0.434417,2.770610,100263.92,-52,-57,-287
168859,12.332,6.210,4.325,0.030113,-0.669609,2.035234,100266.18,-48,-62,-288
168869,6.969,5.796,2.591,0.102479,-0.645132,1.522813,100265.76,-43,-67,-289
168880,1.130,-0.076,2.091,0.350975,-0.394509,1.440868,100266.09,-43,-67,-289
168889,-1.558,-6.704,4.654,0.818699,0.125363,1.375418,100264.71,-41,-74,-289
168899,1.172,-9.331,7.121,0.864993,0.304152,0.841180,100264.71,-40,-79,-288
168909,3.564,-8.320,6.980,0.657470,-0.247114,-0.010195,100267.05,-38,-82,-289
168920,2.803,-5.287,2.894,0.095562,-0.824985,-0.843479,100264.98,-38,-82,-289
168930,1.208,-2.704,0.231,-0.855850,-0.773371,-1.339938,100269.16,-36,-80,-292
168939,0.787,-0.047,-0.848,-1.783318,-0.375353,-1.661864,100269.16,-36,-75,-293
168949,0.983,2.667,-2.236,-2.275519,-0.170490,-2.054561,100269.16,-38,-66,-297
168960,1.111,5.425,-0.839,-2.092473,0.017344,-2.454708,100269.38,-38,-66,-297
168969,1.547,6.296,1.079,-0.991538,0.086519,-2.733001,100266.91,-40,-58,-298
168979,2.409,5.068,1.755,0.432388,-0.020435,-3.043753,100267.60,-41,-55,-297
168989,2.768,2.607,2.638,1.382203,0.063106,-3.378450,100262.46,-46,-55,-297
168999,2.851,-0.466,3.444,1.628038,0.287656,-3.619496,100262.46,-46,-55,-297
169010,3.200,-3.256,3.595,1.283763,0.524977,-3.871184,100262.69,-49,-54,-295
169020,3.865,-3.214,3.068,0.696314,0.744206,-4.281441,100260.64,-55,-50,-294
169029,4.828,-1.052,2.496,0.246681,0.913417,-4.741715,100259.58,-61,-42,-292
169039,6.466,0.630,2.211,0.220076,1.033142,-5.028522,100262.34,-61,-42,-292
169050,7.931,0.438,1.919,0.681947,1.093270,-5.204651,100265.59,-67,-33,-290
169060,8.858,-0.665,2.238,1.215121,1.181068,-5.418027,100261.66,-74,-25,-287
169069,9.744,-1.574,2.371,1.516295,1.233747,-5.604797,100261.66,-80,-17,-284
169079,10.501,-1.674,2.011,1.699873,1.219380,-5.719733,100264.33,-80,-17,-284
169090,11.176,-2.055,1.466,1.977102,1.188518,-5.738357,100262.23,-85,-9,-280
169099,12.070,-2.957,1.463,2.401194,1.179472,-5.716009,100262.23,-90,-1,-279
169109,13.921,-4.370,2.101,2.744936,1.133178,-5.707495,100263.52,-95,+5,-275
169119,16.153,-7.004,3.830,2.924790,1.040591,-5.698449,100265.45,-95,+5,-275
169129,17.848,-9.682,5.425,2.828478,0.892665,-5.734100,100264.72,-98,+13,-274
169140,18.676,-11.129,6.976,2.528368,0.786243,-5.859678,100263.30,-100,+21,-270
169149,18.452,-12.169,7.974,2.427267,0.734628,-5.948009,100263.30,-101,+31,-269
169159,17.818,-14.396,7.398,2.567212,0.688867,-5.903843,100263.63,-101,+31,-269
169169,18.206,-17.691,5.490,2.484203,0.598408,-5.736228,100261.97,-101,+42,-270
169180,17.901,-20.963,3.365,2.290515,0.497839,-5.365348,100265.97,-99,+52,-269
169189,15.253,-21.062,1.753,1.847267,0.383968,-4.781624,100265.97,-97,+60,-269
169199,10.966,-22.779,4.828,1.641873,0.501564,-3.917477,100265.97,-97,+60,-269
169209,6.770,-27.820,7.454,1.410405,0.516995,-2.952763,100266.52,-97,+66,-270
169220,2.930,-30.397,6.073,0.381305,0.435051,-1.884286,100265.09,-95,+71,-268
169225,1.844,-29.936,2.887,-0.525942,0.440372,-0.919571,100266.94,-95,+71,-268
169234,3.215,-27.293,1.800,-1.128823,0.578188,0.196795,100267.67,-97,+74,-265
169244,8.119,-23.599,3.500,-1.194272,0.596812,1.507382,100267.67,-100,+74,-264
169254,10.602,-17.567,1.062,-0.805300,0.276482,2.375252,100271.85,-102,+68,-263
169265,11.912,-7.727,1.048,-0.503594,-0.116215,3.156922,100268.65,-102,+68,-263
169274,20.830,16.828,0.750,-0.184328,-0.697279,2.881821,100264.93,-104,+60,-264
169284,28.447,40.750,-10.680,-0.586603,-0.938857,0.994428,100263.15,-102,+56,-265
169294,21.001,16.224,-14.377,0.043415,-0.215188,1.390317,100263.15,-104,+51,-266
169305,19.499,-15.832,10.502,3.671872,-0.135371,4.048738,100269.67,-104,+51,-266
169315,11.981,-32.124,11.097,5.216054,-0.380142,4.293508,100263.80,-106,+27,-267
169324,10.667,-20.307,3.196,3.127523,0.330757,3.410206,100267.31,-108,+7,-267
169334,11.100,-1.079,1.120,2.262845,0.418555,3.382536,100269.52,-108,-6,-265
169345,0.151,-1.445,10.272,2.467175,0.676096,2.919601,100269.52,-108,-6,-265
169355,-2.004,-10.455,8.132,1.822790,0.013620,2.502959,100268.17,-110,-19,-262
169364,6.873,-17.890,2.733,-0.432823,0.076409,2.367803,100262.61,-109,-26,-264
169374,12.851,-15.085,0.775,-2.354271,0.512739,1.602629,100265.66,-110,-24,-262
169384,13.295,-7.196,3.064,-3.302491,0.884683,1.115217,100268.44,-110,-24,-262
169395,10.730,-1.009,5.061,-3.499904,0.866592,0.977932,100268.44,-111,-19,-262
169405,8.318,2.294,1.755,-2.695354,0.663858,0.853951,100262.50,-112,-15,-260
169414,8.490,2.110,2.645,-1.529501,0.630335,0.997620,100265.22,-113,-15,-259
169424,9.345,2.810,2.530,0.018406,0.350977,1.014648,100266.27,-113,-15,-259
169435,9.928,-1.079,1.485,1.273121,0.074812,1.079565,100267.73,-114,-19,-259
169444,10.127,-5.437,2.200,1.682845,0.062042,1.258354,100267.73,-113,-26,-258
169454,8.633,-9.231,6.996,0.971947,0.267436,1.154061,100268.61,-114,-31,-257
169460,7.315,-10.618,8.320,-0.249245,0.321179,0.784244,100264.05,-114,-31,-257
169469,6.886,-7.115,7.253,-1.419354,0.394610,0.339401,100264.05,-114,-31,-255
169480,8.166,-2.699,6.336,-2.218583,0.546794,0.040887,100264.56,-115,-25,-256
169490,8.543,-1.344,4.707,-2.247849,0.539876,-0.132049,100264.98,-115,-25,-256
169499,9.246,-0.307,2.426,-1.924327,0.444096,-0.195902,100264.98,-116,-20,-255
169509,10.835,-0.149,1.664,-1.269832,0.296702,-0.029351,100266.86,-116,-17,-255
169520,10.936,-2.118,2.107,-0.589795,0.166867,0.131346,100265.72,-116,-16,-255
169530,9.797,-4.074,3.166,-0.440805,0.153564,0.207437,100264.34,-116,-16,-255
169539,9.104,-3.858,4.409,-0.793061,0.229124,0.244685,100264.34,-117,-15,-254
169549,8.335,-2.103,5.293,-1.155428,0.278078,0.248410,100264.34,-118,-13,-254
169560,7.497,-0.700,5.433,-1.286859,0.267436,0.322373,100266.01,-119,-13,-255
169570,6.947,0.046,4.937,-1.339538,0.244555,0.461786,100264.85,-119,-13,-255
169579,7.049,0.080,4.448,-1.291116,0.239766,0.623547,100274.60,-119,-11,-253
169589,7.825,-0.487,3.850,-1.137336,0.212097,0.792226,100267.37,-119,-10,-253
169600,8.815,-1.693,3.109,-0.956419,0.175913,0.934299,100267.37,-118,-11,-254
169610,9.550,-3.091,2.644,-0.859575,0.159950,1.033272,100269.30,-118,-11,-254
169620,9.823,-3.561,2.353,-0.847869,0.146647,1.085419,100269.53,-120,-13,-253
169629,9.797,-3.569,2.366,-0.864364,0.125895,1.143419,100269.19,-121,-13,-252
169639,9.583,-3.665,2.263,-0.884052,0.100353,1.192373,100269.19,-119,-16,-252
169650,9.398,-3.531,1.909,-0.932474,0.089711,1.240795,100265.93,-119,-16,-252
169660,9.236,-3.654,2.199,-0.913318,0.087051,1.290281,100265.93,-120,-18,-252
169669,9.115,-3.968,2.583,-0.870217,0.063638,1.284960,100268.66,-119,-19,-252
169679,8.992,-4.067,3.156,-0.865960,0.044482,1.271657,100268.24,-118,-21,-252
169690,9.247,-3.981,3.955,-0.894694,0.021601,1.300923,100267.51,-118,-21,-252
169695,8.473,-3.545,3.890,-0.902676,-0.059812,1.477051,100267.51,-118,-24,-253
169705,8.688,-2.090,4.907,-0.778694,-0.016711,1.334446,100271.83,-118,-26,-253
169714,9.973,-2.957,4.673,-0.711648,-0.111426,1.485033,100267.53,-118,-26,-253
169724,11.312,-3.458,4.158,-0.787740,-0.298197,1.684574,100266.44,-116,-29,-254
169735,12.753,-3.700,3.814,-0.766988,-0.461022,1.805363,100264.81,-115,-32,-255
169745,11.858,-2.831,3.251,-0.591392,-0.513701,1.870813,100264.81,-114,-37,-257
169754,11.546,-3.411,2.797,-0.533392,-0.528600,2.025124,100269.83,-114,-37,-257
169764,12.553,-4.087,2.430,-0.616933,-0.604160,2.159216,100269.45,-110,-41,-258
169775,13.014,-3.062,2.523,-0.791997,-0.712178,2.239564,100264.58,-108,-46,-260
169785,13.197,-2.686,2.704,-0.818070,-0.827114,2.422610,100268.94,-105,-50,-263
169794,13.890,-3.889,3.220,-0.806896,-0.830839,2.596610,100268.94,-105,-50,-263
169804,15.320,-5.365,3.269,-1.061777,-0.747829,2.657803,100267.09,-101,-55,-265
169815,17.430,-4.474,3.446,-1.752987,-0.556802,2.605124,100263.99,-97,-59,-267
169825,19.980,-0.770,3.520,-2.564455,-0.371628,2.540206,100265.93,-94,-59,-271
169835,22.396,3.440,4.440,-3.014620,-0.316288,2.546592,100267.51,-94,-59,-271
169844,23.875,7.066,4.636,-2.922565,-0.333848,2.671638,100267.51,-91,-57,-274
169854,22.549,7.514,5.506,-2.484638,-0.320545,2.857344,100268.84,-88,-58,-277
169865,18.806,4.261,7.549,-1.775868,-0.380142,3.089344,100263.97,-85,-63,-279
169875,15.308,-3.994,8.976,-0.714309,-0.586600,3.430958,100264.44,-85,-63,-279
169884,15.005,-13.031,9.071,0.080663,-0.838288,3.831637,100263.55,-80,-70,-280
169894,16.996,-13.500,10.247,-0.034273,-0.697279,3.826848,100263.55,-73,-80,-282
169905,16.919,-7.017,10.023,-0.209337,-0.539775,3.528867,100264.24,-69,-87,-283
169915,14.932,-1.417,7.761,-0.106640,-0.602564,3.149472,100268.12,-69,-87,-283
169925,13.237,2.845,6.553,0.243489,-0.729738,2.522647,100265.71,-64,-94,-284
169934,9.668,5.486,4.575,0.510608,-1.025591,1.848464,100266.76,-59,-100,-285
169945,4.081,3.530,4.225,0.683011,-1.005371,1.595712,100266.76,-54,-105,-286
169955,-0.938,-3.803,3.787,1.065598,-0.889371,1.589327,100265.18,-54,-105,-286
169965,-1.373,-8.464,6.083,1.285892,-0.273720,1.203015,100263.45,-50,-111,-285
169974,2.081,-8.821,6.921,0.758039,-0.254564,0.377713,100266.54,-49,-116,-284
169985,2.932,-5.672,4.949,-0.141227,-0.665352,-0.466746,100267.27,-48,-115,-285
169995,2.453,-2.042,1.642,-1.176712,-0.804765,-1.034507,100267.27,-48,-115,-285
170005,1.948,0.429,-0.324,-2.032345,-0.700472,-1.380378,100268.26,-47,-109,-290
170014,1.486,2.547,-2.064,-2.396308,-0.573298,-1.710286,100264.63,-49,-99,-294
170024,1.382,3.708,-1.669,-2.204748,-0.357793,-2.002414,100267.30,-51,-89,-297
170035,1.729,3.929,0.163,-1.278877,-0.251903,-2.271662,100263.21,-51,-89,-297
170045,2.302,4.116,1.181,-0.117282,-0.312032,-2.603698,100263.21,-52,-82,-299
170055,2.495,3.101,2.254,0.827213,-0.310435,-2.915515,100263.98,-55,-79,-299
170064,2.578,0.945,3.093,1.323139,-0.195500,-3.197001,100263.29,-57,-76,-297
170075,3.272,-1.681,3.553,1.297598,0.015216,-3.447093,100262.13,-57,-76,-297
170085,3.631,-2.732,3.563,0.897451,0.220078,-3.737624,100262.30,-61,-72,-295
170095,3.501,-1.070,3.465,0.542534,0.391950,-4.181404,100262.30,-66,-66,-294
170104,4.255,0.615,3.417,0.650553,0.476555,-4.570376,100264.02,-71,-57,-292
170115,6.131,0.857,3.499,1.128919,0.523381,-4.776835,100261.13,-78,-57,-290
170125,7.883,-0.572,3.550,1.682845,0.550518,-4.966266,100259.35,-78,-50,-290
170135,9.201,-2.044,3.682,1.994130,0.603197,-5.234449,100257.04,-82,-42,-287
170144,9.870,-2.341,3.399,2.059047,0.639381,-5.438247,100257.04,-87,-34,-284
170155,10.115,-2.342,2.682,2.203249,0.666518,-5.502100,100263.45,-91,-27,-281
170165,10.384,-3.352,2.491,2.750790,0.698622,-5.509550,100261.98,-91,-27,-281
170175,11.654,-4.340,2.726,3.171156,0.703766,-5.519660,100263.20,-95,-19,-278
170185,14.154,-6.190,4.461,3.445725,0.704830,-5.491458,100262.82,-99,-12,-276
170194,16.870,-10.026,6.215,3.471798,0.639913,-5.452614,100262.82,-102,-6,-274
170205,18.132,-12.643,7.623,3.004606,0.523381,-5.647367,100265.07,-102,-6,-274
170215,17.344,-13.552,7.945,2.389487,0.448885,-5.908100,100261.51,-103,+5,-273
170225,15.936,-14.237,7.324,2.076075,0.538812,-6.026761,100263.66,-104,+15,-272
170234,15.898,-16.309,6.500,1.870148,0.655876,-5.967164,100261.88,-104,+28,-272
170245,16.168,-19.584,4.664,1.644534,0.688335,-5.709623,100261.88,-104,+28,-272
170255,16.100,-21.715,3.128,1.472130,0.689931,-5.229660,100266.86,-104,+40,-270
170265,14.410,-20.293,2.139,1.206075,0.649491,-4.595386,100265.59,-102,+50,-270
170274,10.864,-20.883,5.406,1.169359,0.723454,-3.733367,100266.02,-102,+58,-270
170285,7.068,-26.094,7.145,1.152332,0.668115,-2.688304,100264.23,-102,+58,-270
170295,3.394,-29.157,5.108,0.311599,0.509014,-1.697515,100264.23,-102,+62,-270
170305,2.384,-27.458,2.054,-0.690896,0.529234,-0.507186,100271.92,-102,+66,-269
170315,6.814,-23.129,2.271,-1.080933,0.667050,0.765621,100268.05,-103,+66,-267
170324,8.847,-18.753,0.804,-0.913318,0.384500,1.764923,100269.36,-103,+66,-267
170335,12.751,-11.500,-0.393,-0.545098,-0.126325,2.749858,100266.00,-106,+61,-265
170345,20.778,10.711,0.003,-0.530199,-0.687701,2.601399,100266.00,-107,+55,-267
170355,26.091,34.017,-9.710,-0.979300,-0.875536,0.980061,100267.41,-106,+54,-269
170364,19.577,17.234,-12.071,-0.931410,0.042353,0.999217,100270.30,-106,+54,-269
170375,16.930,-10.510,7.370,1.992001,0.158353,3.354334,100267.56,-108,+49,-268
170385,14.102,-27.824,11.133,4.193871,-0.059279,4.085453,100268.14,-109,+28,-269
170395,15.309,-21.065,3.212,2.683744,0.412702,3.603894,100268.14,-111,+12,-268
170400,15.788,-2.037,-0.596,1.658900,0.315858,3.305380,100265.50,-111,+12,-268
170409,6.344,5.253,2.407,2.045744,0.379179,3.089344,100265.50,-113,-1,-266
170420,-4.820,1.776,14.980,2.767285,0.667050,2.581179,100266.39,-113,-16,-264
170430,-3.569,-8.059,8.078,2.243689,-0.199756,2.528500,100264.97,-113,-16,-264
170440,8.171,-16.416,1.326,0.006700,-0.192307,2.423675,100264.03,-111,-25,-264
170450,15.755,-15.921,0.098,-1.677960,0.236574,1.908060,100265.24,-111,-27,-264
170460,16.264,-8.381,3.275,-2.604895,0.619693,1.444593,100265.55,-112,-25,-264
170470,10.968,-0.435,4.045,-2.771445,0.548922,1.094464,100265.02,-112,-25,-264
170480,7.262,1.888,1.622,-2.043519,0.480812,1.075841,100265.02,-113,-21,-264
170490,7.307,0.914,2.680,-1.092639,0.462188,1.214721,100266.45,-114,-23,-263
170500,7.464,0.610,2.311,0.008828,0.237638,1.164171,100266.45,-114,-26,-262
170510,9.064,-1.627,1.604,0.987378,0.052996,1.193969,100269.66,-114,-26,-262
170520,10.602,-4.529,1.805,1.386460,0.029583,1.304648,100267.34,-113,-33,-260
170530,9.357,-6.692,4.783,1.225763,0.153564,1.231749,100267.66,-114,-39,-260
170541,7.181,-8.774,7.084,0.223800,0.194005,0.915143,100265.25,-113,-41,-259
170550,6.612,-5.811,5.846,-1.059648,0.305748,0.508079,100265.25,-113,-41,-259
170560,7.737,-2.914,4.451,-1.632198,0.437711,0.295768,100268.35,-113,-40,-260
170570,8.584,-1.716,3.486,-1.630602,0.454206,0.205841,100265.07,-115,-37,-259
170580,8.931,-0.530,2.482,-1.398070,0.413766,0.184025,100264.29,-115,-35,-259
170590,9.669,-0.564,2.029,-0.880859,0.330757,0.308006,100264.29,-115,-35,-259
170600,9.759,-2.297,2.480,-0.361520,0.245087,0.458061,100264.29,-115,-33,-259
170610,8.872,-3.637,3.117,-0.180071,0.201986,0.522979,100267.16,-116,-35,-258
170620,7.928,-3.898,3.961,-0.350878,0.236041,0.525107,100268.16,-115,-35,-258
170630,7.595,-3.588,4.551,-0.661630,0.280739,0.488924,100264.27,-115,-35,-258
170636,7.516,-3.198,4.716,-0.877135,0.300959,0.452208,100262.76,-117,-35,-257
170645,7.793,-2.926,4.585,-1.037832,0.287124,0.425602,100262.76,-118,-34,-257
170655,8.347,-2.291,4.229,-1.159685,0.252537,0.428795,100268.83,-118,-34,-257
170664,8.910,-1.949,3.816,-1.166602,0.224335,0.486795,100268.72,-116,-33,-257
170675,9.101,-1.738,3.409,-1.086254,0.156225,0.569804,100266.47,-118,-32,-257
170685,9.210,-1.013,3.083,-0.950034,0.078005,0.677290,100266.36,-116,-31,-258
170695,8.861,-0.950,3.111,-0.708988,0.036500,0.789566,100266.36,-116,-31,-258
170705,8.761,-1.784,3.314,-0.416860,0.038629,0.892263,100270.22,-116,-33,-257
170715,8.806,-3.537,3.310,-0.249245,0.032243,0.943345,100266.81,-115,-36,-257
170725,8.868,-4.881,3.144,-0.244988,0.039161,0.943877,100269.75,-117,-37,-257
170735,8.912,-5.453,3.237,-0.430695,0.083858,0.906098,100264.70,-117,-37,-257
170745,8.879,-5.499,3.793,-0.716437,0.166867,0.849162,100264.70,-116,-39,-258
170755,8.995,-4.976,4.036,-1.009630,0.244555,0.800208,100267.75,-116,-39,-257
170765,9.165,-3.697,3.797,-1.210768,0.290849,0.809254,100270.73,-116,-38,-257
170775,9.363,-2.795,3.550,-1.232052,0.321179,0.894923,100267.33,-116,-38,-257
170785,9.776,-2.401,3.117,-1.130951,0.316390,1.036464,100265.39,-115,-39,-257
170795,10.514,-2.373,2.658,-1.034107,0.199326,1.195033,100265.39,-116,-40,-257
170805,12.463,-3.030,2.497,-0.883520,0.051931,1.372758,100267.20,-115,-42,-257
170815,12.915,-3.421,2.736,-0.680254,-0.034802,1.557932,100267.09,-115,-42,-257
170825,11.745,-3.653,2.796,-0.634493,-0.078968,1.728739,100268.29,-113,-44,-258
170835,12.250,-4.007,2.655,-0.765924,-0.106105,1.916042,100264.41,-112,-48,-258
170845,13.133,-4.278,2.765,-0.888309,-0.124729,2.091638,100264.41,-111,-52,-260
170855,13.030,-4.180,2.970,-1.014419,-0.187518,2.251803,100267.69,-111,-52,-260
170865,12.868,-4.193,3.285,-1.128823,-0.264674,2.426335,100269.89,-108,-56,-261
170870,13.279,-5.147,3.833,-1.167667,-0.299261,2.540206,100269.42,-106,-62,-263
170880,14.552,-6.192,4.267,-1.365611,-0.327463,2.598739,100269.42,-106,-62,-263
170890,17.051,-5.216,4.464,-1.928051,-0.303518,2.632794,100266.27,-102,-64,-265
170900,19.507,-2.224,4.952,-2.500069,-0.265206,2.712078,100266.27,-99,-64,-268
170910,21.759,0.837,5.484,-2.716106,-0.313628,2.839784,100266.65,-96,-66,-271
170920,23.448,2.179,5.419,-2.678858,-0.321077,3.027087,100266.49,-96,-66,-271
170931,24.826,2.938,5.587,-2.706528,-0.327995,3.151068,100263.09,-91,-68,-274
170940,24.191,5.007,7.272,-2.668216,-0.383866,3.173949,100263.09,-87,-68,-278
170950,20.312,4.676,9.064,-1.926455,-0.428032,3.241527,100263.09,-83,-72,-280
170960,13.985,-2.786,10.411,-0.946841,-0.406215,3.297931,100267.06,-83,-72,-280
170970,11.329,-11.580,7.574,-0.637153,-0.384931,3.319747,100265.11,-79,-78,-282
170980,13.074,-13.806,6.803,-0.881924,-0.201353,3.201619,100269.42,-74,-83,-284
170990,13.953,-8.001,7.749,-0.997391,-0.166234,2.973876,100267.58,-71,-86,-285
171000,12.516,-2.155,7.838,-0.654181,-0.259885,2.675894,100267.58,-71,-86,-285
171011,9.801,2.427,6.854,-0.109300,-0.471665,2.103877,100267.89,-66,-90,-286
171020,5.142,4.307,3.271,0.288186,-0.823921,1.467473,100266.06,-62,-93,-287
171030,-1.616,2.389,3.530,0.475488,-0.603096,1.223767,100265.19,-59,-97,-288
171040,-5.030,-3.870,4.701,1.050167,-0.190178,1.380739,100265.19,-59,-97,-288
171051,-1.852,-6.418,5.670,1.257690,-0.123133,0.984318,100266.78,-57,-103,-286
171061,2.344,-6.210,3.657,0.820828,-0.597775,0.210630,100264.89,-55,-105,-287
171070,3.780,-4.122,0.234,0.082791,-0.997921,-0.480048,100264.89,-54,-104,-289
171080,4.596,-0.289,-1.166,-0.876070,-0.981426,-1.063773,100263.53,-54,-104,-289
171090,3.458,2.949,-1.764,-1.241098,-1.072949,-1.501167,100264.58,-52,-97,-293
171100,2.087,4.570,-1.838,-0.467942,-1.135738,-1.711350,100264.58,-51,-91,-297
171106,2.100,5.182,-1.422,0.481874,-1.157022,-1.860341,100268.59,-51,-91,-297
171115,2.038,4.530,-0.037,1.365708,-1.186820,-2.067864,100264.87,-50,-89,-297
171125,1.699,1.683,1.212,2.260717,-1.330490,-2.358928,100263.98,-50,-91,-298
171136,1.609,-1.456,1.803,2.627340,-1.422013,-2.637221,100260.82,-48,-91,-297
171145,2.203,-3.362,2.488,2.367671,-1.338471,-2.903276,100260.82,-48,-91,-297
171155,3.040,-3.601,2.211,1.804699,-1.244288,-3.293313,100263.95,-51,-92,-297
171165,4.286,-3.202,1.506,1.266736,-1.166600,-3.775936,100265.06,-52,-88,-298
171175,5.834,-2.838,1.429,0.863396,-1.152765,-4.131918,100263.95,-53,-82,-300
171186,6.899,-2.673,1.595,0.853818,-1.225132,-4.297936,100261.39,-53,-82,-300
171195,7.048,-2.722,2.084,1.277378,-1.248013,-4.495348,100261.39,-55,-76,-302
171205,7.365,-3.677,2.119,1.585469,-1.252802,-4.685844,100265.40,-55,-72,-303
171215,7.912,-5.358,1.249,1.588130,-1.277811,-4.776303,100262.73,-56,-66,-304
171226,8.815,-5.869,0.060,1.588662,-1.363480,-4.726285,100264.93,-56,-66,-304
171235,10.105,-6.010,0.237,2.030845,-1.447554,-4.527275,100263.62,-57,-61,-305
171245,11.014,-7.157,1.238,2.724184,-1.552912,-4.196835,100263.62,-56,-60,-306
171255,11.030,-8.441,2.681,3.129120,-1.706691,-4.008468,100263.93,-54,-62,-306
171266,11.279,-8.756,4.468,3.304184,-1.900379,-3.964303,100264.93,-54,-62,-306
171275,12.085,-8.808,5.939,3.682514,-2.140361,-3.936633,100266.71,-53,-63,-305
171285,12.369,-9.570,6.688,4.311468,-2.396306,-3.938762,100264.93,-48,-68,-307
171295,12.131,-10.032,6.888,4.923394,-2.558067,-3.815312,100264.93,-47,-76,-305
171305,11.433,-9.394,6.579,5.411338,-2.628305,-3.578524,100265.95,-47,-76,-305
171316,11.753,-8.490,6.954,5.700274,-2.597975,-3.173588,100265.69,-44,-85,-305
171325,13.210,-7.928,7.550,6.030182,-2.604893,-2.630836,100266.31,-40,-97,-301
171335,13.207,-9.053,11.616,6.692127,-2.564984,-2.067864,100264.84,-37,-113,-295
171341,12.122,-11.453,14.786,7.307777,-2.642673,-1.598543,100264.84,-37,-113,-295
171351,10.498,-13.911,16.563,7.698346,-2.752819,-1.214892,100264.84,-33,-131,-286
171361,9.040,-13.535,15.555,7.560530,-2.698012,-0.825388,100265.73,-27,-150,-275
171370,6.402,-11.636,12.827,7.074182,-2.345755,-0.435351,100264.21,-27,-150,-275
171380,3.669,-15.471,13.242,6.787906,-1.919003,0.217015,100262.59,-24,-166,-264
171390,2.183,-18.973,16.084,5.926421,-1.631664,0.725180,100263.84,-19,-181,-253
171401,0.737,-18.152,15.417,4.614770,-1.284728,0.913015,100267.20,-14,-193,-244
171411,-0.026,-15.757,11.637,3.610147,-0.793591,1.173749,100267.45,-14,-193,-244
171420,0.440,-18.143,15.800,3.038129,-0.136435,1.595180,100267.45,-10,-200,-236
171430,3.085,-17.013,14.852,2.904037,0.429729,1.891565,100265.94,-5,-209,-228
171441,10.354,-10.919,7.969,1.912717,0.596812,1.995326,100267.09,+0,-215,-223
171450,14.413,-2.841,8.713,0.892662,1.006004,1.976170,100267.09,+0,-215,-223
171460,12.787,0.517,3.748,0.192406,1.301325,1.386593,100264.28,+1,-218,-220
171470,9.754,-5.137,-0.770,-0.330126,1.525343,1.352006,100264.70,+1,-219,-219
171481,12.226,-7.690,-3.672,-0.694621,1.458298,1.524941,100269.64,+4,-220,-220
171491,15.742,-3.223,-9.540,-0.865428,1.000151,1.067859,100262.23,+4,-220,-220
171500,18.367,-2.191,-7.379,0.189745,0.875105,1.118941,100268.96,+6,-219,-220
171510,15.640,-3.515,-0.792,1.660497,0.795821,1.280171,100268.02,+8,-224,-215
171521,9.978,-5.990,2.272,2.166001,0.738885,1.175877,100268.02,+11,-229,-208
171531,7.351,-9.629,4.565,1.616864,0.797417,1.106703,100264.15,+11,-229,-208
171540,7.386,-8.603,5.205,0.519121,0.754316,0.813510,100264.15,+12,-231,-203
171550,7.104,-4.509,4.707,-0.274786,0.709087,0.451676,100264.15,+13,-232,-204
171560,7.336,-3.692,3.244,-0.397704,0.595216,0.288850,100265.77,+13,-232,-204
171571,8.698,-4.619,1.319,-0.258291,0.411638,0.223933,100268.40,+13,-232,-204
171576,9.570,-4.297,0.684,-0.117282,0.328629,0.162740,100267.88,+12,-231,-204
171585,10.367,-3.527,1.081,0.000846,0.280739,0.120704,100267.30,+13,-232,-205
171595,11.354,-2.880,0.960,0.099819,0.247216,0.079731,100267.30,+13,-232,-205
171606,11.044,-3.022,1.551,0.232314,0.265840,0.035034,100268.75,+13,-232,-203
171616,9.920,-3.554,2.295,0.335544,0.214225,0.029713,100265.97,+12,-232,-203
171625,8.794,-3.595,2.524,0.308938,0.208904,-0.047443,100266.64,+12,-233,-201
171635,8.482,-4.413,2.292,0.192406,0.179106,-0.107572,100268.02,+12,-233,-201
171645,8.311,-4.474,1.633,0.060443,0.128555,-0.158654,100268.02,+12,-232,-201
171656,8.477,-3.458,1.378,-0.016713,0.133344,-0.246984,100268.92,+10,-232,-201
171665,8.894,-2.382,1.416,0.010957,0.133876,-0.286360,100270.64,+9,-232,-200
171675,8.727,-2.514,2.006,0.187085,0.118445,-0.237406,100264.41,+9,-232,-200
171685,8.737,-3.372,2.151,0.246681,0.074812,-0.197498,100266.97,+9,-232,-200
171696,8.937,-3.507,2.284,0.131746,0.073216,-0.219847,100266.97,+7,-232,-198
171706,9.149,-3.394,2.747,-0.001282,0.078005,-0.210801,100266.11,+7,-232,-199
171715,9.225,-3.068,2.714,-0.139630,0.070023,-0.232085,100267.94,+7,-232,-199
171725,9.037,-2.483,2.101,-0.255098,0.062042,-0.244856,100264.44,+6,-231,-200
171736,9.109,-1.815,1.668,-0.246585,0.031179,-0.143223,100266.42,+5,-231,-200
171746,9.751,-0.936,1.679,-0.097594,0.005638,-0.062342,100266.42,+5,-231,-201
171755,10.209,-0.989,1.624,-0.000218,-0.009261,0.036098,100268.16,+5,-231,-201
171765,10.461,-1.246,1.895,0.081195,-0.028949,0.166997,100263.71,+6,-231,-200
171776,10.125,-0.791,2.386,0.172186,-0.033738,0.254795,100268.43,+6,-232,-200
171786,9.272,-0.810,2.915,0.322241,-0.067261,0.345254,100265.12,+8,-233,-199
171795,8.367,-2.359,2.945,0.606387,-0.149738,0.481474,100265.12,+8,-233,-199
171805,8.430,-3.969,2.465,0.692057,-0.201885,0.542667,100267.45,+9,-234,-197
171811,9.084,-4.848,2.071,0.555305,-0.193903,0.523511,100269.85,+11,-236,-196
171821,9.625,-4.893,1.706,0.345122,-0.164637,0.483070,100269.85,+11,-236,-196
171831,9.814,-3.842,1.288,0.162608,-0.133775,0.439969,100265.93,+12,-236,-195
171841,9.423,-3.103,1.032,0.181764,-0.139628,0.454336,100267.76,+14,-236,-195
171850,9.134,-2.908,0.899,0.353103,-0.193903,0.537878,100267.63,+16,-238,-193
171860,9.461,-3.192,1.175,0.504754,-0.255628,0.620887,100266.00,+16,-238,-193
171871,9.845,-3.849,1.609,0.537745,-0.320013,0.651217,100267.16,+19,-239,-192
171881,9.948,-4.438,1.873,0.433984,-0.395041,0.651749,100268.78,+22,-240,-192
171890,9.590,-4.359,1.971,0.289250,-0.396637,0.626740,100268.78,+25,-240,-191
171900,9.034,-4.383,2.062,0.166333,-0.373224,0.598538,100268.78,+25,-240,-191
171911,9.181,-4.643,2.017,0.037030,-0.378545,0.578318,100267.16,+27,-242,-191
171921,9.744,-4.558,1.677,-0.147612,-0.366307,0.550116,100269.52,+29,-242,-192
171930,10.214,-4.347,1.612,-0.312566,-0.345022,0.540538,100263.17,+31,-242,-193
171940,10.400,-3.642,1.969,-0.398768,-0.398765,0.570868,100266.69,+31,-242,-193
171951,10.243,-2.857,1.952,-0.321080,-0.507848,0.640043,100266.69,+34,-241,-195
171961,9.989,-2.573,1.786,-0.213062,-0.597775,0.740079,100265.36,+36,-242,-196
171971,9.924,-2.807,1.678,-0.158254,-0.737719,0.852887,100267.44,+41,-243,-197
171980,10.068,-2.820,1.731,-0.144952,-0.872875,0.949198,100263.31,+41,-243,-197
171991,10.477,-2.860,2.041,-0.148144,-0.948435,1.038061,100263.31,+46,-243,-198
172001,10.875,-3.208,2.463,-0.165704,-0.983554,1.115217,100267.64,+51,-243,-199
172010,11.610,-3.305,2.891,-0.149741,-1.049536,1.202483,100267.64,+55,-243,-200
172020,12.759,-3.027,3.050,-0.284364,-1.157554,1.311565,100266.44,+55,-243,-200
172030,14.373,-2.714,3.937,-0.417924,-1.309205,1.418519,100266.13,+62,-244,-202
172041,16.027,-1.645,4.327,-0.483905,-1.583774,1.535051,100265.81,+69,-242,-203
172046,16.540,-0.548,4.695,-0.688768,-1.773205,1.656904,100265.81,+69,-242,-203
172056,16.411,0.512,5.633,-0.629704,-1.845572,1.734060,100266.83,+78,-243,-205
172065,15.583,1.191,5.893,-0.173153,-1.937627,1.875602,100265.94,+87,-242,-207
172076,13.850,0.629,6.737,0.330755,-2.030214,2.076207,100265.89,+97,-243,-205
172086,11.677,-0.926,8.153,0.899580,-2.077572,2.254464,100263.31,+97,-243,-205
172096,10.040,-2.273,8.261,1.347084,-2.063737,2.317785,100263.31,+108,-244,-200
172105,8.469,-4.787,6.773,1.556735,-2.032342,2.337473,100266.52,+119,-245,-195
172115,7.164,-7.000,4.817,1.581212,-1.951462,2.346519,100264.32,+130,-247,-190
172126,6.842,-8.597,4.774,1.626442,-1.876966,2.295968,100262.96,+130,-247,-190
172136,8.254,-8.482,3.279,1.745102,-2.020636,2.063436,100263.32,+138,-247,-182
172145,8.679,-6.111,3.083,1.624845,-2.280838,1.689363,100263.32,+146,-249,-177
172155,8.281,-1.174,5.111,2.052130,-2.352140,1.334978,100263.45,+153,-249,-167
172166,7.130,2.500,5.666,2.705560,-2.288820,1.071584,100263.30,+153,-249,-167
172176,5.981,2.687,5.403,3.344092,-2.202085,1.113088,100266.92,+158,-252,-155
172186,5.386,1.217,5.548,3.951229,-2.146746,1.146079,100263.36,+163,-253,-141
172195,5.815,0.020,6.034,4.381706,-2.106306,0.963565,100263.36,+167,-255,-126
172206,6.240,-0.275,6.281,4.515265,-2.103645,0.651749,100266.42,+167,-255,-126
172216,5.998,-0.415,5.927,4.468972,-2.112691,0.347382,100264.64,+168,-256,-108
172226,5.494,-0.979,5.561,4.362550,-2.063205,0.102080,100264.70,+169,-256,-93
172235,5.320,-1.374,5.346,4.202385,-1.987645,-0.136838,100264.75,+167,-256,-77
172246,5.555,-1.406,5.133,3.982092,-1.920067,-0.388525,100264.75,+167,-256,-77
172256,5.873,-1.642,5.108,3.728275,-1.857278,-0.604562,100264.64,+163,-255,-62
172266,6.088,-2.329,5.345,3.453707,-1.801939,-0.797186,100265.91,+160,-253,-50
172275,6.164,-3.081,5.804,3.136569,-1.748196,-1.043553,100264.55,+153,-251,-39
172285,6.481,-3.257,6.209,2.785377,-1.687003,-1.331956,100261.77,+153,-251,-39
172296,6.856,-3.065,6.373,2.494313,-1.594948,-1.571405,100261.77,+146,-251,-30
172306,7.063,-3.078,6.526,2.342661,-1.450746,-1.758176,100264.65,+138,-249,-21
172316,7.196,-3.311,6.469,2.216552,-1.285260,-1.938561,100264.07,+130,-248,-14
172325,7.353,-3.526,6.302,2.078735,-1.115517,-2.125864,100261.91,+130,-248,-14
172336,7.493,-3.515,6.152,2.015414,-0.937793,-2.289754,100267.68,+120,-247,-6
172346,7.691,-3.740,5.861,2.043084,-0.753683,-2.405754,100267.68,+111,-244,+0
172356,8.081,-4.347,5.480,2.129817,-0.568509,-2.488763,100263.63,+101,-241,+6
172365,8.628,-4.738,5.084,2.219212,-0.381738,-2.555276,100266.73,+101,-241,+6
172376,9.061,-4.842,4.847,2.277212,-0.201885,-2.630304,100265.41,+92,-237,+13
172386,9.389,-4.912,4.513,2.278808,-0.053958,-2.715974,100263.21,+83,-235,+20
172396,9.566,-4.896,4.313,2.219212,0.083326,-2.797386,100263.21,+73,-230,+26
172405,9.742,-4.716,4.407,2.112258,0.212097,-2.886781,100265.63,+73,-230,+26
172416,9.813,-4.563,4.610,1.975506,0.320115,-2.964469,100260.18,+64,-226,+31
172426,10.051,-4.661,4.518,1.839286,0.402060,-3.023001,100262.65,+56,-220,+37
172436,10.094,-5.153,4.434,1.753616,0.464317,-3.019808,100263.74,+47,-215,+42
172446,9.715,-6.780,4.228,1.803102,0.516995,-2.951166,100263.74,+47,-215,+42
172455,9.028,-9.036,3.696,1.860570,0.475491,-2.879331,100263.51,+40,-210,+47
172466,8.904,-11.494,3.444,1.841414,0.478151,-2.751625,100263.29,+33,-203,+53
172476,9.013,-13.041,3.297,1.695616,0.495711,-2.625515,100262.13,+26,-197,+56
172486,9.006,-13.377,2.917,1.423176,0.478684,-2.523350,100262.55,+26,-197,+56
172495,8.549,-13.243,2.293,1.126791,0.434518,-2.364781,100262.55,+20,-191,+61
172506,7.913,-13.648,2.125,0.850094,0.400995,-2.098194,100266.56,+15,-187,+63
172516,7.300,-14.275,2.832,0.608516,0.383436,-1.739020,100264.25,+12,-183,+65
172526,6.699,-14.738,3.358,0.409507,0.366408,-1.354837,100265.92,+9,-183,+65
172535,5.908,-14.946,3.757,0.232846,0.380775,-0.965865,100264.25,+9,-181,+66
172546,5.084,-15.021,4.093,0.095562,0.406317,-0.534856,100264.25,+8,-179,+66
172556,5.047,-15.218,4.616,0.037030,0.515931,-0.087351,100264.88,+10,-179,+67
172566,5.252,-15.197,2.753,-0.098126,0.516463,0.378777,100268.66,+12,-180,+67
172576,5.610,-15.425,0.718,-0.117282,0.398867,0.934832,100261.47,+12,-180,+67
172585,9.163,-12.473,-2.743,-0.287025,0.106739,1.338703,100260.73,+16,-182,+67
172596,21.090,2.452,-5.613,-0.680254,-0.917572,1.362116,100260.73,+17,-185,+65
172606,27.926,12.672,-2.098,0.124828,-1.203315,1.032740,100268.35,+17,-185,+65
172616,24.491,-0.373,-2.489,1.882919,-0.695683,1.982556,100270.30,+17,-185,+65
172625,10.791,-12.167,3.370,3.244587,-0.299261,2.750922,100266.84,+23,-181,+71
172636,3.078,-11.595,0.208,3.567046,-0.085353,2.559895,100264.68,+29,-173,+78
172646,0.575,-6.506,1.732,1.754148,0.515931,2.279473,100264.68,+36,-171,+82
172656,1.395,-2.820,4.812,0.925121,0.333950,1.925620,100267.75,+36,-171,+82
172665,7.859,-4.659,4.927,1.019305,-0.097059,1.714904,100267.91,+41,-169,+85
172676,13.258,-9.422,5.274,0.646828,-0.166766,1.686170,100265.44,+44,-169,+86
172686,11.296,-9.213,3.907,-0.237539,0.065234,1.410538,100264.70,+48,-171,+85
172696,7.631,-6.524,2.439,-1.444896,0.481344,1.131180,100264.70,+48,-171,+85
172706,7.592,-2.074,4.278,-2.220712,0.752188,1.035400,100266.68,+52,-176,+81
172716,8.584,-1.636,5.121,-2.335648,0.714940,0.994960,100267.20,+57,-183,+75
172726,10.216,-2.336,2.998,-1.916345,0.527638,0.951859,100266.57,+60,-190,+72
172736,10.046,-1.234,1.837,-1.050070,0.373326,0.881088,100269.29,+60,-190,+72
172746,9.413,-0.342,2.742,-0.023098,0.183363,0.875235,100269.29,+64,-191,+72
172755,8.865,-1.311,3.484,0.838387,0.006702,0.966226,100264.17,+66,-191,+73
172766,8.629,-4.854,3.647,0.999084,0.007234,1.026354,100267.95,+69,-188,+75
172776,8.682,-7.612,3.481,0.467507,0.098225,0.928978,100265.17,+69,-188,+75
172786,8.415,-6.950,4.473,-0.388126,0.253069,0.682611,100265.06,+71,-187,+76
172795,7.973,-5.359,5.187,-1.006969,0.337142,0.468703,100265.06,+74,-190,+73
172806,8.102,-3.363,4.168,-1.199593,0.350445,0.338336,100269.05,+76,-193,+70
172816,8.819,-1.746,2.964,-0.992070,0.313197,0.318648,100269.38,+76,-193,+70
172826,9.833,-1.807,2.259,-0.491355,0.207840,0.405914,100264.70,+78,-195,+68
172836,9.970,-3.951,2.577,-0.057153,0.130152,0.491052,100263.66,+78,-197,+68
172846,9.266,-5.668,3.374,-0.103447,0.167399,0.486263,100263.66,+81,-197,+68
172856,8.756,-5.265,3.687,-0.462621,0.254665,0.407511,100270.29,+81,-197,+68
172866,8.852,-4.303,3.638,-0.740382,0.310005,0.355896,100266.82,+82,-197,+66
172876,9.168,-3.554,3.727,-0.813281,0.326500,0.362813,100264.93,+83,-200,+65
172886,9.523,-3.091,3.777,-0.798382,0.323307,0.406446,100267.98,+86,-202,+62
172896,9.465,-2.973,3.769,-0.765392,0.312665,0.470832,100267.98,+86,-202,+62
172906,9.220,-2.880,3.881,-0.770181,0.306280,0.535217,100263.97,+88,-203,+61
172916,8.983,-2.627,3.953,-0.793593,0.313729,0.617694,100266.23,+90,-206,+58
172926,8.874,-2.742,3.999,-0.818070,0.328096,0.705492,100266.17,+93,-207,+56
172936,8.903,-3.230,3.631,-0.814346,0.337674,0.787437,100267.02,+93,-207,+56
172946,9.036,-3.896,2.845,-0.778162,0.352041,0.861400,100267.02,+96,-209,+54
172956,8.879,-4.827,1.961,-0.771777,0.386629,0.913015,100266.36,+100,-211,+52
172966,9.218,-5.146,1.731,-0.861171,0.417491,0.934299,100267.45,+103,-212,+50
172976,9.897,-3.952,2.232,-0.961740,0.366940,0.953455,100266.56,+103,-212,+50
172987,9.635,-3.366,2.494,-0.828535,0.272934,1.029724,100264.36,+107,-214,+47
172996,9.422,-4.147,2.420,-0.667483,0.219014,1.099786,100264.36,+111,-215,+45
173006,9.418,-4.967,2.281,-0.598309,0.177509,1.165235,100268.74,+115,-217,+43
173016,9.116,-5.555,2.447,-0.650456,0.166335,1.195565,100267.37,+119,-217,+41
173026,9.329,-5.532,2.607,-0.752621,0.154097,1.205675,100266.54,+119,-217,+41
173036,9.727,-5.125,2.749,-0.840951,0.140262,1.236538,100264.34,+123,-219,+40
173046,9.952,-4.674,2.541,-0.892034,0.139197,1.300391,100264.34,+128,-220,+37
173057,10.671,-4.143,3.036,-0.971318,0.131748,1.387657,100266.84,+131,-222,+34
173066,11.771,-2.202,3.841,-1.090511,0.049803,1.506850,100263.12,+131,-222,+34
173076,12.675,-1.602,4.002,-0.980896,-0.042784,1.694152,100267.20,+137,-222,+31
173086,13.002,-2.602,3.323,-0.857979,-0.117279,1.898482,100265.26,+143,-222,+29
173096,13.644,-3.538,2.600,-0.944180,-0.158784,2.070354,100265.26,+149,-224,+26
173102,14.325,-3.928,2.473,-1.142125,-0.148142,2.162409,100268.89,+149,-224,+26
173111,15.020,-3.894,2.577,-1.404455,-0.090142,2.209766,100268.89,+156,-225,+22
173121,15.643,-3.214,2.799,-1.784914,0.024262,2.254996,100261.13,+156,-225,+22
173131,16.772,-1.605,3.377,-2.156859,0.137601,2.283730,100266.53,+163,-226,+16
173142,18.347,0.618,4.393,-2.540510,0.253601,2.300757,100262.50,+170,-226,+8
173152,20.204,3.013,5.467,-2.982161,0.349913,2.326298,100268.12,+178,-230,-1
173161,20.725,5.620,6.543,-3.293977,0.408445,2.352372,100264.29,+178,-230,-1
173171,18.685,4.764,7.170,-3.075812,0.360023,2.501363,100263.60,+188,-232,-10
173181,16.528,-3.038,6.244,-2.158987,0.029583,2.941417,100263.60,+196,-230,-18
173191,18.429,-11.707,7.811,-1.216089,-0.375885,3.593252,100262.82,+207,-226,-21
173201,20.996,-10.889,9.679,-1.046346,-0.571169,3.682114,100262.82,+207,-226,-21
173211,19.086,-3.980,10.341,-0.649392,-0.661628,3.497472,100264.02,+218,-222,-23
173221,16.101,0.116,8.558,-0.189649,-0.770178,3.302720,100264.02,+228,-216,-23
173231,14.064,3.679,7.073,0.310534,-1.016545,2.791362,100262.71,+235,-211,-21
173241,11.108,5.198,1.883,0.869782,-1.359756,2.160280,100262.93,+240,-206,-16
173251,5.757,2.451,3.374,1.195965,-1.139462,1.936262,100262.93,+240,-206,-16
173261,1.699,-4.595,4.046,2.095230,-0.988343,1.893693,100265.34,+243,-198,-9
173272,1.263,-7.448,7.187,2.566148,-0.670674,1.392978,100264.47,+245,-193,-1
173282,3.613,-6.859,6.889,2.220808,-0.945242,0.563951,100262.84,+245,-190,+5
173291,3.746,-4.548,4.789,1.554075,-1.340068,-0.172489,100262.84,+245,-190,+5
173301,3.000,-1.710,2.060,0.677158,-1.319847,-0.696617,100262.84,+241,-189,+11
173312,2.980,0.442,0.295,-0.202419,-1.211829,-1.005241,100267.04,+235,-191,+11
173321,2.354,1.966,-0.365,-0.536584,-1.201187,-1.356433,100264.16,+230,-194,+13
173331,2.544,2.754,0.113,-0.233814,-1.160215,-1.693259,100265.95,+230,-194,+13
173337,2.579,2.893,0.931,0.288186,-1.187884,-1.965699,100262.27,+222,-197,+15
173346,2.621,2.532,1.680,0.878828,-1.186288,-2.261552,100262.27,+222,-197,+15
173357,2.820,1.302,2.831,1.431157,-1.123499,-2.630304,100264.10,+214,-200,+21
173366,3.227,-0.093,3.732,1.593983,-1.009627,-2.907533,100260.85,+203,-200,+26
173376,3.569,-1.538,4.065,1.366240,-0.881921,-3.166671,100259.07,+191,-204,+31
173386,3.798,-2.255,3.620,0.894259,-0.743573,-3.472102,100260.70,+191,-204,+31
173396,4.622,-1.922,2.541,0.305213,-0.592986,-3.788175,100260.70,+181,-206,+33
173407,6.086,-0.828,1.916,-0.038530,-0.439738,-4.060083,100263.35,+167,-210,+35
173416,6.983,0.092,1.817,0.112057,-0.355132,-4.333055,100258.79,+153,-214,+35
173426,7.321,-0.124,1.896,0.480809,-0.307243,-4.581551,100257.38,+153,-214,+35
173436,7.572,-1.696,2.295,0.811250,-0.284362,-4.770981,100256.76,+138,-216,+38
173446,8.260,-2.690,2.880,0.957580,-0.253500,-4.949238,100256.76,+123,-217,+41
173456,8.970,-3.793,3.221,0.961837,-0.190178,-5.084926,100261.14,+107,-217,+43
173466,9.611,-4.662,3.352,1.005470,-0.115683,-5.205183,100261.45,+107,-217,+43
173476,9.957,-5.367,3.743,1.117745,-0.021500,-5.348853,100259.63,+90,-215,+47
173487,10.339,-6.067,4.696,1.198626,0.057785,-5.479219,100258.00,+75,-212,+50
173496,11.540,-6.234,5.199,1.230552,0.105142,-5.658541,100258.00,+59,-207,+53
173506,13.456,-6.145,5.328,1.280038,0.162610,-5.855953,100262.67,+41,-202,+56
173516,15.249,-5.937,5.445,1.462020,0.209436,-5.991642,100261.78,+41,-202,+56
173527,16.595,-6.222,6.053,1.835561,0.269032,-6.021972,100261.47,+26,-193,+61
173536,17.672,-7.773,6.535,2.271359,0.327564,-5.960779,100263.52,+10,-181,+66
173546,18.253,-13.309,6.846,2.516129,0.400463,-5.789972,100263.52,-2,-168,+72
173556,18.341,-16.792,4.953,2.169726,0.186023,-5.748467,100263.37,-2,-168,+72
173566,17.064,-17.557,3.565,1.791928,-0.031610,-5.565954,100262.95,-15,-155,+75
173577,15.755,-18.232,3.556,1.770643,-0.051830,-5.092908,100262.73,-26,-142,+78
173586,13.383,-18.390,5.608,1.672735,0.037565,-4.462890,100261.41,-33,-131,+81
173596,10.443,-21.116,8.387,1.414130,0.228592,-3.710487,100261.41,-33,-131,+81
173606,5.951,-24.000,9.377,0.759635,0.356830,-2.910726,100265.68,-39,-121,+83
173617,2.265,-26.265,7.643,-0.087484,0.426005,-1.924194,100259.13,-41,-117,+84
173626,2.265,-26.152,4.698,-0.786676,0.564353,-0.718966,100263.70,-40,-118,+84
173636,5.232,-24.081,3.801,-1.116584,0.662793,0.470300,100264.74,-40,-118,+84
173646,9.284,-20.830,3.773,-1.130419,0.561693,1.469602,100264.74,-36,-124,+83
173657,8.376,-18.054,1.309,-1.002712,0.288188,2.257124,100265.48,-31,-129,+81
173666,10.786,-9.051,3.014,-0.727080,-0.011922,3.102647,100268.31,-27,-138,+81
173676,19.820,14.652,2.461,-0.587667,-0.480178,2.599803,100259.61,-27,-138,+81
173686,25.171,31.123,-6.899,-1.281538,-0.464215,0.994428,100263.48,-25,-142,+79
173691,21.934,20.608,-11.533,-1.102749,0.120042,0.869382,100263.48,-23,-148,+76
173702,20.930,-2.661,-5.121,0.604259,0.133876,2.770078,100263.48,-23,-148,+76
173712,17.533,-23.868,12.162,3.213193,0.016280,4.073215,100268.52,-14,-147,+82
173721,10.790,-22.180,6.349,2.359157,0.246684,3.374022,100264.18,-6,-145,+87
173731,9.812,-3.070,3.438,1.022497,0.941087,2.689729,100265.88,+1,-145,+90
173742,6.455,1.256,7.491,1.775432,0.780390,2.969087,100265.88,+1,-145,+90
173752,-0.821,-4.400,8.600,2.249542,0.329161,2.491252,100263.16,+9,-141,+95
173761,2.703,-9.672,5.253,1.092736,0.143454,2.259785,100268.23,+14,-141,+97
173771,9.735,-11.727,2.137,-0.354603,0.206243,2.055454,100268.23,+19,-144,+96
173782,13.222,-10.455,0.086,-1.263446,0.336610,1.712244,100266.66,+19,-144,+96
173792,12.896,-7.787,2.248,-1.717868,0.588830,1.526538,100265.25,+23,-152,+93
173801,10.280,-3.446,2.842,-1.811519,0.564885,1.285492,100265.25,+28,-157,+90
173807,7.784,-1.580,1.233,-1.687006,0.551050,1.113088,100268.75,+28,-157,+90
173816,7.364,-1.507,1.404,-1.394877,0.618628,1.089675,100265.97,+32,-163,+88
173827,8.363,-1.000,2.143,-0.751557,0.594151,1.045510,100267.91,+36,-167,+87
173837,9.295,-0.698,2.650,0.033837,0.521784,0.971547,100264.66,+36,-167,+87
173846,9.805,-1.916,3.012,0.610644,0.436647,1.010923,100264.66,+39,-165,+88
173856,9.485,-3.629,3.366,0.739415,0.418555,1.026886,100267.84,+43,-164,+90
173867,8.891,-5.716,5.283,0.307874,0.489858,0.928978,100263.27,+46,-165,+91
173877,8.251,-6.346,7.185,-0.584474,0.513271,0.676226,100267.95,+46,-165,+91
173886,8.039,-4.431,6.609,-1.469905,0.537748,0.357492,100266.52,+49,-167,+90
173896,8.192,-2.578,5.107,-1.873776,0.592555,0.124428,100266.52,+50,-173,+85
173906,8.551,-1.047,3.778,-1.879629,0.586170,0.035034,100269.49,+52,-178,+81
173917,9.292,-0.066,2.893,-1.560364,0.503161,0.108997,100267.29,+52,-178,+81
173927,9.821,-0.185,2.251,-1.003245,0.405252,0.246281,100263.26,+54,-181,+79
173936,9.625,-1.703,2.870,-0.520621,0.333418,0.378245,100266.51,+57,-183,+78
173946,8.949,-3.206,3.900,-0.371630,0.277014,0.438905,100266.51,+59,-185,+77
173957,8.712,-3.477,4.564,-0.620658,0.261051,0.437309,100267.09,+59,-185,+77
173967,8.616,-2.136,5.157,-0.944713,0.285528,0.413364,100264.77,+59,-187,+76
173976,8.374,-0.962,5.412,-1.133079,0.319051,0.427731,100261.95,+61,-190,+73
173986,8.068,-0.943,5.144,-1.227263,0.368537,0.495309,100261.32,+64,-194,+70
173997,8.181,-0.840,4.565,-1.325703,0.407913,0.603327,100261.32,+67,-197,+66
174007,8.521,-0.361,3.950,-1.348584,0.411638,0.745933,100270.10,+67,-197,+66
174016,8.602,-0.034,3.897,-1.216089,0.274885,0.919932,100268.63,+70,-200,+63
174026,8.490,-0.617,3.113,-0.926621,0.128555,1.092868,100265.38,+74,-203,+61
174036,8.766,-2.426,2.605,-0.582346,0.119509,1.252501,100266.70,+78,-204,+60
174047,9.509,-4.612,2.108,-0.376951,0.083326,1.348813,100266.70,+78,-204,+60
174057,10.230,-5.975,1.630,-0.419520,0.022133,1.361051,100264.62,+81,-206,+59
174066,10.499,-6.178,1.366,-0.634493,0.004042,1.334978,100266.04,+85,-208,+58
174076,10.287,-5.565,1.791,-0.854254,0.040757,1.289749,100268.82,+90,-208,+55
174087,9.979,-4.506,2.034,-0.948437,0.059381,1.281235,100265.04,+90,-208,+55
174097,9.994,-3.782,2.128,-0.913318,0.087583,1.318483,100265.04,+94,-212,+53
174106,10.465,-3.366,2.964,-0.822327,0.067895,1.395639,100268.57,+98,-214,+51
174116,10.658,-2.913,3.660,-0.740914,-0.076839,1.496207,100268.51,+102,-214,+48
174127,10.935,-2.520,4.277,-0.573832,-0.176344,1.629235,100264.99,+102,-214,+48
174137,11.527,-3.414,4.546,-0.480181,-0.223701,1.773436,100265.95,+106,-216,+47
174146,12.223,-4.034,4.413,-0.583942,-0.234344,1.888904,100265.95,+111,-217,+46
174156,12.863,-3.730,3.714,-0.808492,-0.207206,1.992133,100264.59,+118,-218,+43
174167,13.623,-3.323,3.012,-1.022401,-0.205078,2.152298,100262.75,+118,-218,+43
174177,14.087,-2.828,2.117,-1.225667,-0.280637,2.382170,100267.31,+123,-219,+41
174187,14.641,-2.594,2.096,-1.261318,-0.343426,2.627472,100267.31,+130,-220,+36
174196,15.629,-3.484,2.271,-1.235777,-0.375885,2.823289,100267.31,+139,-221,+33
174206,17.009,-4.571,2.842,-1.419887,-0.316288,2.894059,100265.48,+139,-221,+33
174217,19.523,-2.959,3.403,-2.080767,-0.202417,2.841381,100266.69,+146,-224,+28
174227,21.233,1.703,4.856,-2.810289,-0.095995,2.770610,100266.06,+157,-226,+21
174236,22.025,6.240,6.173,-2.941188,-0.117279,2.861069,100264.48,+165,-228,+12
174246,22.148,7.805,6.293,-2.565519,-0.169958,3.079234,100264.48,+165,-228,+12
174257,20.971,5.661,6.852,-2.140363,-0.151867,3.233546,100264.47,+174,-229,+5
174267,18.858,0.417,6.891,-1.722125,-0.189114,3.304848,100265.25,+186,-227,+1
174277,17.463,-9.034,8.948,-1.103459,-0.442221,3.635643,100261.84,+195,-224,-1
174286,18.697,-12.127,9.134,-0.856914,-0.587132,3.797050,100264.09,+195,-224,-1
174297,18.181,-7.005,10.063,-0.778694,-0.558931,3.570903,100264.09,+206,-220,-3
174307,15.879,-1.212,9.648,-0.337575,-0.570105,3.320279,100265.56,+217,-216,-4
174317,13.838,2.894,8.061,0.136534,-0.748362,2.884481,100265.78,+224,-210,-3
174326,11.216,5.910,3.615,0.768681,-1.170325,2.253399,100263.31,+224,-210,-3
174337,5.348,4.460,2.127,0.903837,-1.120306,1.803767,100265.83,+228,-205,+0
174347,-0.287,-2.966,3.225,1.471066,-0.811151,1.838354,100265.83,+231,-200,+5
174357,-1.569,-7.804,8.296,2.217616,-0.286490,1.594115,100263.29,+235,-194,+11
174366,2.331,-6.455,7.811,2.147909,-0.592986,0.620887,100265.09,+235,-194,+11
174376,3.417,-4.266,3.123,1.103378,-1.064435,-0.278911,100260.41,+234,-191,+17
174387,3.875,-2.368,-1.571,-0.428034,-1.019205,-0.932874,100264.98,+230,-191,+18
174397,3.902,0.201,-3.679,-1.815244,-0.900545,-1.496378,100264.98,+223,-197,+16
174406,3.570,2.997,-3.335,-1.862070,-0.775499,-1.860873,100263.49,+223,-197,+16
174416,2.747,4.993,-2.136,-0.755281,-0.749958,-2.098194,100262.49,+217,-204,+14
174427,2.356,5.220,0.832,0.712277,-0.710050,-2.360524,100263.43,+208,-206,+15
174437,1.693,3.789,3.146,1.851524,-0.677591,-2.717038,100263.02,+199,-206,+21
174446,1.643,1.027,4.928,2.441102,-0.562655,-3.014487,100263.02,+188,-206,+21
174456,2.378,-1.873,5.138,2.334680,-0.480710,-3.252872,100261.89,+188,-207,+29
174467,3.134,-3.613,3.769,1.666350,-0.341830,-3.549790,100264.31,+177,-206,+35
174477,3.448,-2.087,3.064,0.848497,-0.109830,-4.024432,100261.31,+165,-208,+36
174487,4.140,0.201,3.020,0.393543,0.042886,-4.476725,100261.63,+151,-212,+38
174496,5.497,1.448,2.532,0.401525,0.073748,-4.797587,100261.63,+151,-212,+38
174507,7.131,0.863,2.073,0.735690,0.078005,-5.043422,100264.94,+137,-214,+39
174517,8.325,-0.229,2.025,1.025690,0.141858,-5.322247,100259.38,+121,-215,+41
174527,9.032,-1.317,2.110,1.115616,0.219014,-5.594687,100259.38,+104,-214,+45
174536,9.290,-2.158,1.821,1.165103,0.266904,-5.835201,100255.70,+104,-214,+45
174546,9.958,-2.850,1.403,1.199158,0.311069,-6.019843,100255.70,+86,-212,+48
174557,11.361,-3.526,0.980,1.259818,0.302023,-6.185862,100262.41,+69,-207,+52
174567,13.207,-4.333,1.052,1.263011,0.248812,-6.318357,100266.19,+51,-202,+55
174577,15.327,-5.593,2.210,1.198093,0.146115,-6.357201,100260.89,+51,-202,+55
174586,17.412,-7.523,4.017,1.056020,0.136537,-6.292815,100260.89,+34,-195,+58
174597,18.531,-9.486,6.050,0.751653,0.289785,-6.297072,100260.89,+18,-187,+60
174607,19.071,-10.427,8.048,0.423342,0.399399,-6.483843,100264.07,+1,-179,+61
174617,19.085,-10.925,8.266,0.493580,0.355766,-6.600907,100261.49,+1,-179,+61
174626,19.098,-13.943,6.897,1.057616,0.334482,-6.401366,100263.38,-12,-168,+64
174637,18.631,-19.815,4.853,1.570038,0.340867,-5.938962,100262.38,-25,-154,+66
174647,15.881,-23.303,2.345,1.499268,0.299895,-5.380247,100262.38,-34,-142,+70
174657,11.991,-23.775,2.503,1.350809,0.468041,-4.717771,100263.92,-34,-142,+70
174666,8.205,-25.277,4.118,1.344956,0.668647,-3.879166,100262.77,-41,-129,+73
174676,3.772,-26.413,6.677,0.977268,0.616500,-2.812285,100263.88,-44,-121,+75
174687,1.880,-29.285,6.093,-0.085887,0.280739,-1.412305,100261.05,-46,-119,+75
174697,3.331,-27.096,4.381,-1.348584,0.272757,0.155823,100261.05,-46,-119,+75
174707,7.816,-20.788,6.662,-1.640712,0.381840,1.547290,100262.94,-43,-125,+74
174716,11.404,-13.891,5.925,-1.003245,0.151968,2.560959,100264.56,-38,-132,+73
174727,12.066,-4.066,3.939,-0.465282,-0.273720,3.363380,100264.09,-33,-140,+71
174737,20.819,18.267,2.755,0.258388,-0.866490,3.158518,100264.36,-33,-140,+71
174747,28.342,35.906,-11.644,-0.285429,-0.933004,1.339235,100264.36,-30,-142,+70
174756,22.714,8.838,-15.290,0.000314,-0.045445,1.883051,100268.85,-27,-146,+70
174767,21.592,-19.863,13.644,3.706991,0.124830,4.649489,100267.38,-17,-144,+78
174777,14.976,-32.359,9.871,4.925522,-0.430692,4.669178,100265.13,-17,-144,+78
174787,11.988,-18.894,1.075,2.012753,0.254665,3.703931,100265.71,-8,-138,+85
174796,9.947,2.187,0.831,1.209268,0.606922,3.552279,100265.71,-1,-140,+86
174807,-2.389,8.360,11.723,2.790166,0.698977,3.048371,100266.74,+6,-136,+93
174817,-7.835,-1.432,13.923,3.237138,-0.260949,2.682812,100265.90,+6,-136,+93
174827,3.064,-15.177,1.957,1.628570,-0.765389,2.832335,100263.45,+10,-131,+96
174837,13.489,-22.640,-1.384,-0.671208,-0.170490,2.617362,100266.43,+13,-134,+96
174846,17.971,-16.449,0.219,-2.342565,0.398867,1.917106,100266.43,+19,-143,+92
174857,14.472,-5.301,2.488,-3.397738,0.685674,1.424905,100266.85,+19,-143,+92
174867,7.151,0.062,2.061,-3.336546,0.738885,1.270593,100267.23,+24,-154,+86
174877,5.078,-0.211,1.039,-2.478785,0.733032,1.225896,100267.05,+29,-163,+81
174886,7.274,0.992,1.437,-1.511942,0.692060,1.206208,100267.27,+33,-169,+79
174897,9.052,2.027,3.245,-0.166236,0.547858,1.220574,100267.27,+33,-169,+79
174907,10.142,-0.597,4.721,1.043782,0.240298,1.261015,100268.34,+38,-168,+80
174917,10.215,-4.024,3.767,1.321011,0.023730,1.249308,100264.78,+41,-166,+83
174927,8.806,-5.877,2.515,0.792094,0.081730,1.181730,100267.61,+44,-165,+85
174937,7.895,-5.951,3.293,-0.062475,0.236041,1.033272,100265.98,+47,-165,+84
174947,8.265,-5.745,5.060,-0.881391,0.397271,0.836391,100265.98,+47,-165,+84
174957,8.288,-5.848,6.073,-1.741813,0.590427,0.615034,100267.76,+50,-170,+80
174967,8.276,-3.628,5.558,-2.384069,0.706427,0.386758,100268.82,+52,-177,+77
174977,8.809,-0.469,3.973,-2.402693,0.678225,0.277676,100265.24,+55,-183,+71
174987,9.519,1.545,2.149,-1.766822,0.525509,0.381969,100264.73,+55,-183,+71
174997,10.146,1.497,1.071,-0.678658,0.319051,0.618758,100264.73,+57,-187,+70
175007,9.802,-1.186,1.038,0.349910,0.171124,0.847565,100266.09,+59,-186,+70
175016,9.053,-4.918,2.146,0.734626,0.149840,0.965694,100264.36,+62,-186,+71
175027,8.651,-6.630,3.810,0.410039,0.241895,0.946538,100266.30,+62,-186,+71
175037,8.306,-5.558,5.007,-0.243392,0.328096,0.816703,100262.63,+66,-184,+71
175047,8.007,-4.074,5.251,-0.727612,0.379179,0.714538,100262.63,+69,-187,+71
175057,8.235,-3.484,4.744,-0.950566,0.420151,0.679951,100270.05,+71,-190,+68
175067,8.770,-3.282,4.070,-1.040492,0.437179,0.693786,100265.48,+71,-190,+68
175077,9.371,-2.966,3.050,-1.023997,0.379711,0.757107,100270.16,+74,-193,+65
175087,9.538,-2.894,2.230,-0.920768,0.291913,0.843309,100266.80,+78,-196,+63
175097,9.721,-3.227,2.188,-0.738254,0.198262,0.931639,100266.80,+81,-197,+62
175107,9.742,-3.738,2.211,-0.559997,0.100886,1.009327,100268.66,+81,-197,+62
175117,9.924,-4.295,2.375,-0.440273,0.054592,1.060941,100270.19,+84,-198,+61
175127,10.237,-5.036,2.593,-0.440273,0.008831,1.082758,100264.72,+87,-199,+60
175137,9.976,-5.346,2.947,-0.593520,0.006702,1.098721,100266.77,+90,-201,+58
175147,9.823,-4.639,3.255,-0.847336,0.040757,1.114685,100266.77,+90,-201,+58
175157,10.002,-3.380,3.332,-1.048474,0.036500,1.175877,100270.63,+93,-202,+56
175167,10.133,-2.046,3.002,-1.057520,0.004042,1.309969,100267.02,+97,-206,+53
175177,10.558,-1.714,2.856,-0.889905,-0.059279,1.506850,100266.07,+101,-207,+50
175187,11.508,-2.487,2.840,-0.675997,-0.118876,1.727675,100266.76,+101,-207,+50
