129975,8.922,-3.237,2.375,0.006199,-0.003274,-0.012464,99848.03,-204,+100,-25
129985,8.933,-3.258,2.373,0.007264,-0.002210,-0.013528,99851.42,-203,+101,-26
129994,8.913,-3.244,2.373,0.008860,-0.003274,-0.012464,99850.22,-204,+101,-26
130004,8.927,-3.246,2.398,0.010456,-0.003806,-0.014060,99848.92,-203,+100,-25
130015,8.907,-3.246,2.373,0.011520,-0.004871,-0.015125,99849.34,-203,+100,-25
130025,8.928,-3.250,2.383,0.009924,-0.005403,-0.016721,99849.34,-203,+101,-26
130034,8.950,-3.244,2.377,0.009924,-0.004338,-0.019381,99849.83,-204,+100,-26
130044,8.932,-3.232,2.404,0.010456,-0.002742,-0.020446,99849.03,-203,+101,-26
130055,8.920,-3.237,2.373,0.010456,-0.004338,-0.019914,99847.89,-203,+101,-26
130065,8.941,-3.213,2.444,0.012053,-0.003806,-0.019381,99850.61,-203,+100,-25
130074,8.925,-3.244,2.408,0.013117,-0.004338,-0.019381,99850.61,-204,+100,-26
130084,8.943,-3.234,2.397,0.013117,-0.004338,-0.022042,99850.66,-204,+101,-25
130095,8.928,-3.215,2.370,0.012053,-0.002210,-0.022574,99851.15,-204,+101,-25
130105,8.941,-3.196,2.401,0.013649,-0.002210,-0.020446,99849.99,-204,+101,-26
130115,8.946,-3.213,2.381,0.015245,-0.003274,-0.019914,99848.79,-203,+102,-26
130124,8.926,-3.189,2.427,0.017374,-0.004338,-0.019381,99848.79,-204,+101,-25
130135,8.939,-3.197,2.406,0.016309,-0.004871,-0.018849,99848.48,-204,+101,-25
130145,8.945,-3.196,2.375,0.013117,-0.004338,-0.019381,99854.12,-203,+101,-26
130155,8.941,-3.190,2.364,0.014713,-0.004871,-0.019381,99848.63,-204,+101,-26
130164,8.926,-3.215,2.384,0.015245,-0.004871,-0.020446,99847.45,-203,+101,-26
130174,8.943,-3.225,2.401,0.015777,-0.005935,-0.019914,99847.45,-203,+101,-26
130185,8.959,-3.197,2.414,0.016841,-0.004338,-0.018849,99850.28,-203,+102,-26
130195,8.951,-3.184,2.412,0.016309,-0.004871,-0.017785,99849.45,-204,+101,-26
130204,8.958,-3.187,2.430,0.014181,-0.005935,-0.017253,99847.78,-203,+102,-25
130214,8.963,-3.184,2.451,0.010988,-0.005935,-0.015125,99849.23,-203,+102,-25
130225,8.963,-3.176,2.390,0.008860,-0.006999,-0.014592,99849.23,-202,+101,-26
130235,8.969,-3.157,2.389,0.010988,-0.006999,-0.010868,99848.92,-203,+101,-27
130245,8.963,-3.147,2.396,0.011520,-0.008595,-0.006611,99849.23,-204,+102,-26
130254,8.941,-3.179,2.384,0.012585,-0.009127,-0.003950,99847.09,-204,+102,-26
130265,8.953,-3.189,2.384,0.013649,-0.008595,-0.003950,99847.25,-203,+102,-26
130275,8.931,-3.177,2.438,0.015245,-0.010192,-0.004482,99847.25,-203,+101,-26
130285,8.933,-3.183,2.426,0.012585,-0.010192,-0.003950,99849.27,-204,+101,-26
130294,8.944,-3.169,2.424,0.008860,-0.010724,-0.004482,99850.14,-204,+101,-26
130305,8.947,-3.181,2.422,0.009392,-0.010192,-0.003950,99849.47,-203,+102,-26
130315,8.953,-3.189,2.432,0.012053,-0.011256,-0.003950,99848.80,-202,+102,-27
130325,8.925,-3.173,2.410,0.013649,-0.011256,-0.001822,99848.80,-202,+101,-26
130334,8.944,-3.169,2.404,0.014181,-0.010724,-0.001822,99851.02,-202,+101,-26
130344,8.953,-3.159,2.398,0.015777,-0.011256,-0.002354,99850.86,-202,+102,-26
130355,8.951,-3.160,2.410,0.014713,-0.011788,-0.002886,99852.11,-203,+102,-27
130365,8.951,-3.188,2.404,0.016309,-0.011788,-0.001822,99850.44,-203,+102,-26
130374,8.958,-3.188,2.383,0.017374,-0.011256,-0.000758,99850.44,-203,+102,-26
130384,8.949,-3.187,2.376,0.018438,-0.011788,-0.003418,99852.35,-202,+101,-26
130395,8.927,-3.177,2.376,0.018970,-0.011256,-0.003418,99850.74,-202,+101,-26
130405,8.939,-3.182,2.419,0.018970,-0.012320,-0.004482,99849.54,-204,+102,-26
130415,8.956,-3.161,2.364,0.020034,-0.013384,-0.004482,99847.20,-204,+102,-26
130424,8.959,-3.149,2.391,0.020034,-0.013384,-0.005547,99847.20,-203,+102,-26
130435,8.968,-3.179,2.400,0.021098,-0.013916,-0.005014,99851.57,-203,+102,-27
130445,8.958,-3.192,2.404,0.018438,-0.013384,-0.006611,99848.27,-203,+102,-26
130455,8.934,-3.196,2.366,0.018970,-0.012852,-0.009271,99848.70,-203,+102,-27
130464,8.940,-3.178,2.366,0.018438,-0.010724,-0.010336,99848.07,-203,+101,-27
130475,8.937,-3.182,2.394,0.020034,-0.010192,-0.010336,99848.07,-202,+102,-27
130485,8.943,-3.166,2.378,0.021630,-0.009127,-0.011400,99848.91,-203,+102,-27
130495,8.926,-3.171,2.365,0.024291,-0.008063,-0.011932,99848.13,-202,+102,-26
130505,8.929,-3.161,2.376,0.026952,-0.006467,-0.013528,99849.22,-202,+102,-26
130514,8.926,-3.185,2.387,0.026419,-0.005403,-0.015657,99848.95,-202,+101,-27
130525,8.940,-3.185,2.398,0.025887,-0.003806,-0.018317,99848.95,-202,+103,-27
130535,8.944,-3.200,2.379,0.022695,-0.001146,-0.022042,99851.35,-203,+102,-26
130545,8.922,-3.175,2.394,0.019502,0.001515,-0.027363,99849.62,-203,+102,-26
130554,8.957,-3.170,2.378,0.016309,0.003643,-0.030556,99849.84,-202,+102,-26
130565,8.980,-3.153,2.395,0.016841,0.004707,-0.031088,99850.09,-202,+102,-26
130575,8.984,-3.124,2.427,0.018970,0.005240,-0.030024,99850.09,-204,+102,-27
130585,8.977,-3.136,2.430,0.018438,0.005240,-0.028427,99848.34,-204,+102,-27
130594,8.969,-3.142,2.385,0.016309,0.005240,-0.026831,99848.81,-203,+103,-26
130600,8.973,-3.128,2.424,0.014713,0.006836,-0.026299,99849.86,-203,+103,-26
130610,8.990,-3.137,2.469,0.012053,0.006836,-0.024703,99849.86,-203,+102,-26
130620,8.998,-3.129,2.456,0.007796,0.004707,-0.022042,99847.05,-202,+102,-27
130630,8.976,-3.106,2.437,0.003007,0.003643,-0.019381,99847.05,-202,+102,-26
130640,8.988,-3.093,2.414,0.001410,0.003643,-0.015125,99851.71,-202,+102,-26
130650,8.982,-3.100,2.427,0.002475,0.001515,-0.011400,99850.27,-202,+103,-26
130660,8.981,-3.072,2.415,0.004603,0.000451,-0.008739,99849.21,-202,+102,-26
130670,8.989,-3.137,2.428,0.005667,-0.001146,-0.006079,99849.21,-202,+102,-27
130679,8.968,-3.123,2.444,0.006199,-0.002742,-0.003418,99849.21,-202,+102,-27
130690,8.961,-3.116,2.392,0.004603,-0.003274,-0.002886,99851.70,-202,+103,-26
130700,8.965,-3.121,2.369,0.001410,-0.003274,-0.002886,99851.27,-203,+102,-26
130710,8.962,-3.118,2.432,0.000878,-0.002742,-0.002886,99848.51,-202,+102,-26
130720,8.950,-3.116,2.452,0.000878,-0.003274,-0.002886,99848.04,-203,+102,-27
130729,8.950,-3.129,2.443,0.002475,-0.003274,-0.002886,99848.04,-203,+102,-27
130740,8.953,-3.117,2.414,0.003539,-0.004338,-0.003418,99851.11,-203,+103,-26
130750,8.945,-3.123,2.432,0.003007,-0.003274,-0.001822,99847.88,-202,+103,-26
130760,8.959,-3.118,2.442,0.003007,-0.002742,-0.002886,99848.92,-202,+103,-26
130770,8.971,-3.115,2.442,0.004071,-0.003274,-0.001290,99847.74,-202,+103,-26
130780,8.989,-3.124,2.426,0.000346,-0.003806,-0.001290,99850.24,-202,+102,-26
130790,8.968,-3.130,2.407,-0.002847,-0.002742,-0.000225,99849.88,-202,+103,-26
130800,8.971,-3.131,2.398,-0.004975,-0.002742,-0.001290,99849.88,-203,+103,-26
130810,8.970,-3.121,2.424,-0.005507,-0.002742,-0.001822,99849.15,-203,+103,-26
130820,8.977,-3.099,2.397,-0.007103,-0.003274,-0.001822,99848.73,-202,+103,-26
130830,8.951,-3.098,2.400,-0.006571,-0.003806,0.000307,99848.73,-203,+102,-27
130835,8.939,-3.109,2.409,-0.005507,-0.003806,0.002435,99852.92,-203,+102,-27
130845,8.950,-3.105,2.442,-0.006039,-0.004871,0.002967,99851.16,-202,+102,-27
130855,8.969,-3.116,2.424,-0.007636,-0.005935,0.003499,99849.91,-202,+103,-27
130865,8.971,-3.117,2.400,-0.008700,-0.005403,0.003499,99849.80,-202,+103,-27
130875,8.976,-3.103,2.416,-0.007103,-0.004871,0.005628,99849.80,-203,+102,-27
130885,8.971,-3.103,2.406,-0.006039,-0.005935,0.007756,99852.19,-202,+103,-26
130895,8.953,-3.111,2.418,-0.005507,-0.005935,0.006692,99849.00,-202,+102,-26
130905,8.962,-3.109,2.397,-0.005507,-0.005935,0.008288,99847.44,-202,+102,-26
130915,8.965,-3.124,2.418,-0.005507,-0.006467,0.009352,99848.69,-202,+102,-25
130925,8.968,-3.149,2.418,-0.006571,-0.006467,0.009352,99848.69,-202,+103,-26
130935,8.961,-3.116,2.376,-0.007636,-0.006467,0.008820,99848.78,-202,+102,-27
130945,8.958,-3.121,2.408,-0.009232,-0.005403,0.009352,99849.56,-202,+102,-26
130956,8.979,-3.109,2.431,-0.009764,-0.004871,0.009885,99850.50,-202,+102,-26
130965,8.989,-3.100,2.426,-0.008700,-0.004338,0.009352,99848.25,-202,+102,-26
130975,8.955,-3.135,2.404,-0.004975,-0.003274,0.011481,99848.25,-202,+102,-26
130985,8.928,-3.136,2.400,-0.001782,-0.004871,0.013077,99849.35,-202,+104,-26
130995,8.945,-3.130,2.403,-0.000718,-0.003806,0.013609,99851.12,-202,+104,-26
131005,8.943,-3.135,2.407,0.000878,-0.004338,0.014141,99849.62,-203,+102,-26
131015,8.950,-3.143,2.445,0.001410,-0.003806,0.014674,99847.68,-203,+102,-27
131025,8.946,-3.117,2.397,0.002475,-0.003806,0.014141,99847.68,-202,+102,-27
131035,8.963,-3.128,2.397,0.003539,-0.005935,0.013609,99849.22,-202,+102,-27
131045,8.980,-3.157,2.414,0.004071,-0.005935,0.014674,99850.36,-203,+102,-26
131055,9.018,-3.151,2.412,0.004071,-0.005935,0.013609,99850.16,-203,+102,-26
131065,9.000,-3.140,2.454,0.003007,-0.006467,0.015206,99851.88,-202,+102,-26
131075,9.074,-3.087,2.604,0.001410,-0.019770,0.017866,99851.88,-202,+102,-26
131085,9.006,-2.948,2.700,-0.002847,-0.042650,0.030105,99853.95,-203,+102,-27
131095,9.000,-2.918,2.640,0.001942,-0.047971,0.058307,99851.19,-203,+101,-28
131105,8.949,-2.972,2.504,0.003539,-0.059146,0.083316,99848.89,-202,+102,-26
131116,8.892,-2.875,2.491,0.010456,-0.062338,0.089169,99848.84,-202,+102,-26
131125,8.939,-3.091,2.397,0.048768,-0.066595,0.073738,99848.84,-202,+101,-26
131135,8.973,-3.201,2.586,0.086548,-0.091604,0.087041,99849.69,-203,+101,-28
131145,8.946,-2.799,2.513,0.135502,-0.129916,0.112582,99850.38,-202,+102,-28
131155,9.006,-2.666,2.355,0.164236,-0.158650,0.158343,99848.23,-202,+102,-28
131165,9.102,-2.564,2.519,0.191373,-0.186320,0.226985,99849.28,-202,+100,-28
131175,9.329,-2.419,2.705,0.216383,-0.216118,0.288710,99849.28,-202,+98,-30
131185,9.326,-2.451,2.898,0.230750,-0.260815,0.367462,99850.60,-203,+97,-30
131195,9.208,-2.444,2.981,0.253630,-0.308705,0.438765,99847.77,-203,+97,-30
131205,8.860,-2.844,2.375,0.285025,-0.344889,0.473352,99848.10,-203,+95,-31
131215,8.682,-3.578,2.460,0.316951,-0.364045,0.479205,99851.63,-204,+94,-33
131225,8.678,-4.080,1.547,0.273318,-0.359256,0.426527,99851.63,-202,+92,-33
131235,8.563,-4.378,1.115,0.173814,-0.313494,0.365334,99851.95,-202,+92,-33
131246,8.534,-4.141,1.486,0.098786,-0.227825,0.302013,99850.28,-203,+91,-34
131255,8.485,-3.605,1.443,0.091337,-0.168760,0.272215,99847.00,-202,+90,-35
131265,8.393,-3.477,1.346,0.130713,-0.117678,0.251995,99849.03,-204,+89,-34
131275,8.411,-3.382,1.814,0.189245,-0.087880,0.214747,99849.03,-204,+89,-34
131286,8.708,-3.309,2.653,0.299924,-0.073513,0.197187,99850.91,-204,+88,-36
131295,8.850,-3.643,2.364,0.397832,-0.080430,0.197187,99849.66,-202,+87,-36
131305,8.707,-3.943,2.200,0.449979,-0.078302,0.173774,99849.08,-203,+85,-36
131315,8.490,-4.032,2.414,0.444658,-0.045843,0.145573,99849.23,-203,+85,-36
131325,8.344,-3.798,2.778,0.401557,-0.035201,0.123756,99849.23,-203,+85,-36
131336,8.287,-3.980,2.421,0.318548,-0.008595,0.087573,99852.59,-202,+85,-37
131345,8.782,-3.944,2.384,0.235006,0.012689,0.051921,99850.66,-203,+84,-36
131355,9.696,-3.699,2.341,0.204144,0.020671,0.043408,99850.30,-203,+84,-36
131365,9.716,-3.488,2.686,0.203612,0.004707,0.056178,99848.52,-203,+84,-36
131375,9.529,-3.479,2.839,0.223832,-0.035733,0.068949,99848.52,-203,+84,-37
131385,9.151,-3.574,2.726,0.225961,-0.075641,0.067885,99849.41,-202,+84,-37
131395,8.976,-3.639,2.646,0.212126,-0.105439,0.064692,99850.55,-202,+84,-37
131405,8.993,-3.644,2.470,0.185520,-0.126192,0.053518,99848.89,-204,+83,-36
131416,9.119,-3.671,2.614,0.155190,-0.141091,0.040747,99849.30,-203,+83,-38
131426,9.020,-3.774,2.871,0.121844,-0.159892,0.030105,99849.30,-202,+82,-38
131435,8.870,-3.789,2.689,0.084952,-0.179403,0.027976,99850.11,-202,+82,-39
131445,8.750,-3.822,2.515,0.023227,-0.188448,0.016802,99849.84,-202,+82,-39
131456,8.704,-3.684,2.384,-0.045947,-0.180999,0.004564,99849.91,-202,+82,-40
131465,8.728,-3.531,2.069,-0.096498,-0.167696,-0.001290,99847.92,-204,+82,-40
131475,8.835,-3.374,1.916,-0.127892,-0.152265,0.001371,99847.92,-202,+83,-41
131485,8.852,-3.346,1.641,-0.124168,-0.128320,0.008820,99850.47,-202,+83,-41
131495,8.841,-3.360,1.544,-0.104480,-0.107568,0.018398,99847.95,-202,+83,-41
131506,8.815,-3.511,1.491,-0.092241,-0.091072,0.026380,99851.09,-202,+83,-41
131515,8.683,-3.771,1.465,-0.095966,-0.058614,0.016270,99849.00,-202,+82,-41
131525,8.641,-3.677,1.821,-0.088516,-0.032008,-0.006611,99849.00,-202,+82,-41
131535,8.713,-3.717,1.963,-0.084791,-0.011788,-0.025235,99852.38,-202,+83,-42
131546,8.690,-3.747,2.103,-0.094369,0.006304,-0.047583,99848.52,-202,+82,-42
131555,8.598,-3.792,1.837,-0.117782,0.033973,-0.072592,99849.93,-202,+83,-41
131565,8.574,-3.832,1.722,-0.135342,0.062175,-0.107712,99850.30,-202,+83,-41
131575,8.684,-3.684,1.624,-0.140663,0.091973,-0.141235,99850.30,-202,+84,-40
131586,8.832,-3.550,1.630,-0.132681,0.110065,-0.159858,99849.57,-202,+84,-40
131595,8.993,-3.441,1.932,-0.098626,0.118047,-0.161987,99850.04,-202,+85,-40
131605,9.012,-3.324,2.105,-0.055525,0.108469,-0.146556,99850.55,-202,+85,-40
131615,8.927,-3.248,2.025,-0.021470,0.089845,-0.118886,99850.55,-202,+85,-39
131625,8.884,-3.323,2.087,0.001942,0.080267,-0.093345,99850.55,-202,+86,-39
131636,8.929,-3.317,2.079,0.008860,0.074414,-0.070464,99852.79,-202,+86,-39
131645,8.995,-3.353,2.138,0.006731,0.066964,-0.049180,99850.34,-202,+86,-39
131655,8.996,-3.424,2.136,-0.001782,0.062175,-0.033216,99849.98,-202,+86,-38
131661,9.004,-3.367,2.311,-0.004443,0.053662,-0.022042,99849.35,-202,+85,-38
131671,9.052,-3.293,2.347,0.006199,0.038762,-0.007675,99849.35,-202,+85,-38
131680,9.019,-3.322,2.486,0.017374,0.012689,0.014674,99849.35,-202,+87,-39
131690,8.774,-3.488,2.412,0.026952,-0.014981,0.032233,99850.96,-202,+85,-38
131700,8.798,-3.505,2.433,0.029080,-0.045843,0.034894,99850.59,-202,+86,-39
131710,8.968,-3.493,2.767,0.018438,-0.070852,0.030637,99847.98,-202,+86,-39
131721,8.877,-3.475,2.452,-0.008168,-0.087880,0.032765,99847.98,-202,+85,-39
131731,8.809,-3.467,2.045,-0.026259,-0.099586,0.037022,99851.30,-202,+86,-40
131740,9.079,-3.452,2.225,-0.035305,-0.106504,0.034894,99851.30,-202,+85,-39
131750,9.279,-3.397,2.426,-0.037434,-0.115017,0.043408,99849.00,-202,+85,-39
131761,9.220,-3.506,2.456,-0.036369,-0.132577,0.060967,99848.38,-202,+87,-40
131770,8.943,-3.621,2.594,-0.054461,-0.149604,0.066820,99849.31,-201,+85,-39
131780,8.727,-3.779,2.512,-0.105544,-0.156522,0.057242,99849.31,-202,+85,-40
131790,8.713,-3.766,2.397,-0.171525,-0.157054,0.030637,99852.84,-202,+85,-40
131801,8.655,-3.684,2.063,-0.246021,-0.142155,0.022123,99850.12,-202,+85,-42
131811,8.768,-3.497,1.789,-0.304021,-0.126724,0.027444,99849.09,-202,+86,-41
131820,9.144,-3.191,2.190,-0.329030,-0.128320,0.049261,99849.32,-201,+86,-41
131830,9.360,-2.906,2.278,-0.332222,-0.157586,0.111518,99853.65,-201,+86,-41
131841,9.544,-3.055,2.377,-0.299764,-0.217182,0.190802,99849.54,-202,+85,-42
131851,9.704,-3.317,2.524,-0.291782,-0.284760,0.262637,99849.95,-201,+85,-42
131860,9.828,-3.748,2.620,-0.325837,-0.332650,0.336068,99849.95,-201,+84,-43
131870,9.775,-3.723,2.135,-0.419488,-0.357127,0.409499,99847.29,-201,+84,-43
131880,9.818,-3.829,1.036,-0.622222,-0.346485,0.480270,99847.29,-201,+83,-44
131891,9.611,-3.941,0.863,-0.892002,-0.295402,0.549444,99852.10,-201,+83,-44
131900,10.441,-3.845,1.535,-1.147415,-0.240595,0.615958,99850.74,-200,+82,-45
131910,12.554,-3.142,3.220,-1.386332,-0.229421,0.689921,99847.66,-200,+82,-45
131920,14.831,-2.812,4.511,-1.491690,-0.260815,0.760692,99848.40,-202,+80,-46
131931,16.478,-3.851,3.587,-1.484240,-0.374687,0.935224,99848.40,-201,+80,-46
131941,15.977,-5.180,2.098,-1.407616,-0.521017,1.108159,99851.70,-202,+77,-46
131950,14.443,-4.466,2.085,-1.350681,-0.518889,1.137957,99848.17,-202,+77,-46
131960,14.970,-3.067,2.463,-1.372497,-0.416191,1.116673,99851.16,-201,+74,-48
131971,15.917,-2.839,2.188,-1.325139,-0.493347,1.178930,99851.16,-201,+71,-47
131981,15.731,-2.479,2.631,-1.089415,-0.612540,1.390709,99851.16,-201,+67,-49
131990,14.587,-3.161,3.034,-0.679158,-0.681182,1.516287,99847.64,-201,+67,-49
132000,13.878,-6.461,3.100,-0.227929,-0.771641,1.671131,99850.41,-201,+62,-51
132011,14.085,-10.072,2.821,0.045043,-0.896154,1.867480,99847.80,-200,+56,-53
132021,13.401,-13.884,0.781,0.044511,-1.012154,2.081920,99849.47,-200,+48,-57
132030,11.952,-15.429,-0.289,-0.028920,-1.060576,2.280397,99849.47,-200,+48,-57
132040,12.605,-11.494,0.190,-0.076278,-0.932338,2.081920,99848.94,-199,+41,-60
132050,12.113,-8.508,1.527,-0.258259,-0.755677,2.026048,99851.55,-198,+35,-62
132061,10.937,-8.660,1.848,-0.207177,-0.770577,2.292635,99848.11,-196,+27,-63
132071,9.650,-9.978,1.096,0.082291,-0.837622,2.412892,99848.11,-196,+27,-63
132080,8.872,-10.631,0.338,0.242456,-0.797714,2.354360,99850.75,-195,+19,-67
132090,8.649,-10.889,0.181,0.150933,-0.680118,2.314984,99850.75,-193,+11,-69
132101,9.281,-11.819,0.515,0.042383,-0.571035,2.354892,99847.47,-191,+3,-70
132111,10.293,-12.630,0.536,0.056750,-0.586999,2.393736,99848.56,-190,+3,-70
132120,10.251,-12.270,0.029,0.110493,-0.675329,2.385223,99850.59,-190,-3,-71
132130,8.955,-11.074,-0.488,0.106768,-0.713641,2.376177,99850.59,-186,-11,-74
132141,7.103,-9.402,-0.767,0.068456,-0.715769,2.415021,99849.09,-184,-18,-76
132151,5.350,-7.582,-0.891,0.041319,-0.706723,2.452268,99848.51,-181,-26,-78
132161,3.966,-5.767,-1.034,0.030144,-0.681714,2.445883,99848.66,-181,-26,-78
132170,2.744,-4.034,-1.168,0.018970,-0.636485,2.395333,99848.35,-177,-33,-80
132180,1.473,-2.436,-1.248,0.001942,-0.577953,2.305938,99850.63,-174,-40,-82
132191,0.089,-0.953,-1.426,-0.021470,-0.521017,2.167590,99846.30,-170,-46,-84
132201,-0.908,0.276,-1.444,-0.042755,-0.460357,1.988801,99848.66,-170,-46,-84
132210,-1.894,1.260,-1.115,-0.003911,-0.423109,1.799370,99848.66,-167,-51,-84
132220,-2.407,2.016,-0.904,0.083355,-0.395439,1.628030,99846.46,-164,-56,-85
132231,-2.545,2.634,-0.847,0.164236,-0.367769,1.439131,99846.46,-162,-60,-86
132241,-2.589,2.914,-0.768,0.223832,-0.346485,1.224691,99849.77,-162,-60,-86
132250,-2.625,2.846,-0.726,0.268529,-0.325733,1.001737,99847.05,-160,-63,-86
132260,-2.747,2.680,-0.794,0.298328,-0.304980,0.792086,99845.28,-159,-66,-87
132271,-2.848,2.713,-0.742,0.285025,-0.272522,0.591481,99843.03,-157,-69,-88
132281,-2.775,3.180,-0.637,0.209997,-0.226760,0.381297,99843.03,-157,-69,-88
132291,-2.722,3.928,-0.672,0.084952,-0.174614,0.151426,99847.37,-156,-69,-87
132300,-2.923,4.645,-0.694,-0.029984,-0.118210,-0.082170,99846.12,-156,-69,-88
132311,-3.131,4.991,-0.762,-0.083727,-0.061274,-0.323216,99848.46,-157,-67,-88
132321,-3.287,4.783,-0.623,-0.059782,-0.004338,-0.578629,99848.46,-157,-67,-88
132330,-3.237,4.356,-0.556,0.003007,0.053662,-0.828188,99848.46,-158,-65,-88
132340,-3.018,3.708,-0.487,0.056218,0.121239,-1.087858,99844.89,-160,-63,-87
132350,-2.740,2.750,-0.495,0.090805,0.201588,-1.364023,99846.97,-162,-60,-86
132361,-2.356,1.626,-0.398,0.132841,0.291515,-1.626885,99847.44,-162,-60,-86
132371,-1.746,0.559,-0.373,0.169025,0.384634,-1.896132,99847.86,-165,-56,-85
132380,-1.028,-0.505,-0.296,0.149869,0.488927,-2.191986,99847.86,-168,-49,-84
132390,-0.063,-1.590,-0.162,0.086016,0.594817,-2.488371,99853.23,-173,-42,-82
132401,1.147,-2.694,0.152,-0.015085,0.703368,-2.774646,99848.27,-173,-42,-82
132411,2.670,-3.872,0.639,-0.099158,0.797551,-3.024205,99847.96,-177,-33,-79
132421,4.677,-4.943,0.949,-0.127892,0.880028,-3.204590,99847.96,-181,-24,-77
132430,6.766,-6.157,1.219,-0.174718,0.969954,-3.338682,99849.28,-185,-14,-74
132441,8.531,-8.055,1.527,-0.131085,1.059349,-3.407856,99844.75,-185,-14,-74
132451,10.499,-10.093,1.616,0.015245,1.153532,-3.411049,99844.75,-190,-3,-71
132461,11.993,-10.879,1.572,0.094530,1.226964,-3.436058,99848.08,-193,+7,-67
132470,12.576,-10.793,1.329,0.154658,1.284431,-3.489269,99845.84,-195,+18,-63
132481,13.341,-11.051,1.331,0.235006,1.345624,-3.542480,99845.84,-195,+18,-63
132491,14.840,-11.818,1.491,0.281832,1.402028,-3.578664,99849.21,-197,+30,-59
132501,16.417,-12.585,1.504,0.266401,1.436083,-3.553122,99848.27,-198,+42,-55
132511,17.377,-13.204,1.176,0.215318,1.419055,-3.425416,99849.99,-200,+52,-50
132520,18.208,-13.161,1.429,0.207869,1.391917,-3.218957,99851.71,-200,+52,-50
132531,18.625,-12.308,2.187,0.279172,1.332853,-2.924701,99850.09,-200,+64,-46
132541,17.930,-12.099,2.420,0.404217,1.206211,-2.535728,99847.38,-200,+72,-42
132551,16.223,-12.302,1.957,0.576089,1.057753,-2.108444,99849.04,-200,+79,-39
132560,14.143,-12.349,2.545,0.549483,0.994964,-1.722133,99847.54,-200,+79,-39
132571,12.202,-13.528,5.560,0.363245,1.089679,-1.254940,99847.54,-199,+84,-35
132581,14.052,-10.703,-0.156,-0.003379,0.814578,-0.978775,99847.54,-200,+87,-34
132591,13.049,-0.394,0.841,-0.507819,0.686340,-1.033051,99857.25,-200,+91,-31
132600,17.523,8.976,2.114,-1.035672,1.033808,-1.315069,99850.31,-200,+91,-31
132611,25.780,7.786,2.803,-1.642809,1.164175,-1.321986,99848.75,-200,+98,-27
132621,22.392,0.677,3.754,-0.669580,0.361221,-0.023638,99846.25,-200,+100,-25
132631,15.391,-2.079,0.299,0.953355,-0.082559,0.638306,99846.25,-200,+97,-25
132641,9.210,-1.785,2.304,1.739813,-0.403421,0.468031,99851.68,-200,+95,-28
132651,3.715,-2.575,3.142,1.662657,-0.375751,0.534545,99849.10,-200,+95,-28
132661,1.556,-7.114,3.360,1.234309,-0.158650,0.623939,99847.98,-200,+92,-30
132671,4.197,-9.443,2.861,0.910786,0.003643,0.417481,99847.98,-201,+89,-29
132680,7.216,-8.089,2.385,0.208401,0.253735,0.106729,99847.98,-200,+89,-28
132690,8.892,-5.524,2.176,-0.377984,0.376120,0.040747,99849.16,-200,+89,-28
132701,10.842,-3.069,2.219,-0.399268,0.369203,0.041279,99850.56,-201,+89,-26
132711,11.005,-2.833,2.042,-0.097562,0.252671,0.014674,99851.56,-201,+90,-26
132721,9.430,-3.222,1.489,0.211594,0.135074,0.128013,99850.88,-202,+89,-26
132730,8.777,-3.565,1.515,0.398896,0.106340,0.167389,99850.88,-202,+89,-26
132741,8.767,-4.009,1.329,0.434016,0.114854,0.153554,99849.43,-201,+87,-26
132751,9.060,-4.337,1.361,0.399428,0.119643,0.109389,99850.84,-202,+87,-25
132761,9.386,-4.406,1.671,0.293539,0.169661,0.062031,99845.84,-201,+86,-25
132771,9.312,-4.092,2.517,0.120071,0.221276,0.010949,99850.41,-201,+86,-25
132781,9.074,-3.613,3.038,0.005667,0.237771,-0.002354,99851.73,-202,+86,-24
132791,8.874,-3.491,3.131,-0.011892,0.195735,0.031169,99850.95,-202,+86,-23
132801,8.928,-3.392,3.430,0.029080,0.113790,0.077463,99850.95,-203,+85,-23
132810,9.018,-3.404,3.590,0.057282,0.023863,0.132270,99850.26,-203,+85,-23
132820,8.807,-3.747,2.851,0.065796,-0.036797,0.186545,99848.29,-203,+85,-22
132831,8.660,-4.021,2.446,0.119007,-0.060742,0.190270,99848.29,-202,+85,-23
132841,8.611,-4.065,2.169,0.124328,-0.044247,0.163132,99851.93,-203,+84,-23
132851,8.543,-4.048,1.956,0.089741,-0.006999,0.140252,99853.51,-203,+84,-23
132860,8.678,-3.823,1.942,0.079098,0.014285,0.132270,99851.26,-203,+83,-24
132871,8.713,-3.570,2.196,0.084952,0.019074,0.145040,99850.05,-203,+83,-23
132881,8.659,-3.453,2.178,0.126988,0.006836,0.183352,99852.57,-202,+82,-22
132891,8.722,-3.535,2.467,0.186585,-0.015513,0.212618,99849.80,-202,+82,-22
132901,8.599,-3.712,2.758,0.224364,-0.029348,0.234435,99849.85,-203,+82,-23
132911,8.472,-3.957,2.643,0.241392,-0.034137,0.254655,99848.71,-203,+81,-24
132921,8.543,-4.143,2.420,0.236603,-0.043182,0.256251,99848.71,-204,+80,-24
132931,8.607,-4.233,2.485,0.180731,-0.035201,0.243481,99848.71,-204,+80,-24
132941,8.621,-4.193,2.120,0.107832,-0.007531,0.229114,99851.20,-204,+78,-24
132951,8.622,-4.263,2.064,0.049300,0.005240,0.203040,99850.93,-203,+78,-23
132957,8.621,-4.220,2.005,0.004071,0.015350,0.179096,99850.46,-203,+78,-23
132966,8.706,-4.177,1.997,-0.032645,0.034506,0.162600,99850.37,-204,+78,-23
132976,8.709,-4.130,2.262,-0.067232,0.041423,0.146105,99850.37,-204,+76,-23
132985,8.683,-3.959,2.553,-0.087984,0.039295,0.138123,99851.41,-204,+76,-23
132996,8.628,-3.928,2.403,-0.124168,0.036634,0.153554,99850.00,-204,+76,-23
133006,8.622,-3.886,2.473,-0.138002,0.023331,0.173242,99847.66,-204,+76,-23
133016,8.782,-3.925,2.773,-0.124168,-0.017641,0.196123,99849.27,-204,+74,-23
133025,8.556,-3.992,2.687,-0.132681,-0.050100,0.224857,99849.27,-204,+74,-23
133036,8.475,-4.202,2.373,-0.116186,-0.065531,0.245609,99852.34,-204,+74,-23
133046,8.588,-4.275,2.469,-0.106608,-0.076705,0.246673,99850.89,-204,+74,-23
133056,8.751,-4.149,2.535,-0.132681,-0.068192,0.241884,99850.20,-204,+73,-23
133066,8.726,-4.218,2.355,-0.175250,-0.061806,0.241352,99851.61,-204,+72,-23
133076,8.626,-4.253,2.049,-0.203807,-0.062338,0.245432,99851.61,-204,+72,-23
133086,8.616,-4.124,2.136,-0.211434,-0.057017,0.263701,99850.60,-205,+71,-23
133096,8.661,-4.008,2.167,-0.213562,-0.064999,0.305738,99849.04,-204,+70,-23
133106,8.698,-3.899,2.308,-0.198131,-0.089476,0.357884,99850.04,-205,+69,-23
133115,8.740,-4.103,2.329,-0.185892,-0.116082,0.405774,99848.68,-205,+69,-23
133126,8.648,-4.361,2.211,-0.189617,-0.141623,0.453132,99848.68,-204,+69,-24
133136,8.530,-4.525,2.147,-0.206645,-0.148540,0.475481,99851.27,-204,+67,-24
133146,8.459,-4.534,2.149,-0.239635,-0.142687,0.486123,99850.47,-204,+65,-24
133156,8.506,-4.427,2.296,-0.279012,-0.134173,0.498893,99851.27,-204,+65,-24
133166,8.700,-4.627,2.276,-0.323709,-0.130448,0.507939,99845.36,-205,+63,-25
133176,8.684,-4.653,2.161,-0.371067,-0.135770,0.523371,99845.36,-205,+62,-25
133186,8.694,-4.587,2.252,-0.403525,-0.144815,0.549976,99851.22,-204,+60,-25
133196,8.786,-4.576,2.394,-0.432259,-0.163439,0.578178,99851.75,-204,+60,-25
133206,8.647,-4.762,2.416,-0.473764,-0.193237,0.616490,99849.92,-205,+59,-25
133216,8.618,-4.618,2.539,-0.506755,-0.229953,0.676618,99849.56,-205,+57,-26
133226,8.607,-4.827,2.146,-0.562094,-0.268265,0.718655,99849.56,-205,+54,-27
133236,8.706,-4.781,2.012,-0.600406,-0.299127,0.760159,99850.65,-205,+54,-27
133245,9.080,-4.694,2.199,-0.630204,-0.329990,0.809114,99846.74,-205,+52,-28
133256,9.328,-5.066,1.732,-0.663195,-0.358724,0.835187,99853.46,-204,+50,-30
133266,9.089,-5.444,1.538,-0.674901,-0.397035,0.872435,99846.79,-204,+48,-30
133276,8.728,-5.400,1.977,-0.679690,-0.406081,0.893719,99846.79,-204,+48,-30
133286,8.599,-5.635,1.944,-0.706828,-0.411402,0.894783,99852.39,-204,+45,-31
133296,8.599,-5.934,1.528,-0.746204,-0.410870,0.864985,99852.17,-204,+42,-32
133306,8.751,-5.840,1.478,-0.768020,-0.398100,0.829334,99850.14,-203,+41,-33
133312,9.140,-5.675,1.306,-0.768552,-0.396503,0.804857,99849.25,-203,+41,-33
133321,9.323,-5.900,1.003,-0.804736,-0.398632,0.797939,99849.25,-204,+39,-34
133331,9.772,-6.052,0.678,-0.879231,-0.426834,0.833591,99849.25,-202,+37,-36
133341,9.737,-4.785,1.108,-0.871782,-0.496008,0.885205,99853.44,-202,+37,-36
133351,10.085,-5.457,0.392,-0.802608,-0.514632,0.904361,99852.45,-202,+33,-37
133361,9.593,-5.433,0.330,-0.644571,-0.600833,0.915003,99850.73,-202,+31,-39
133371,9.369,-6.015,0.748,-0.611048,-0.612008,0.927774,99850.73,-202,+29,-42
133382,9.885,-6.309,0.515,-0.651488,-0.654577,0.956508,99851.98,-202,+29,-42
133391,10.461,-6.111,1.070,-0.736094,-0.657237,0.947462,99851.98,-200,+26,-44
133401,11.065,-5.553,2.080,-0.781323,-0.699274,0.982581,99850.93,-199,+23,-46
133411,11.289,-5.260,2.743,-0.801543,-0.747164,1.077829,99849.52,-198,+20,-47
133421,11.367,-5.338,2.381,-0.870185,-0.812081,1.200214,99848.59,-198,+20,-47
133431,11.498,-5.110,2.486,-0.981929,-0.854118,1.321535,99848.59,-197,+18,-51
133441,12.305,-4.943,2.628,-1.105910,-0.844008,1.414122,99851.19,-196,+13,-54
133451,13.221,-4.849,2.746,-1.235745,-0.827512,1.492342,99850.09,-194,+9,-57
133462,14.073,-4.606,2.663,-1.344295,-0.840815,1.549810,99850.47,-194,+9,-57
133471,15.245,-4.548,3.025,-1.457103,-0.765788,1.698269,99849.15,-192,+7,-59
133481,15.625,-4.166,3.779,-1.516699,-0.684375,2.003700,99850.04,-190,+2,-63
133491,14.930,-3.359,4.545,-1.421451,-0.752485,2.272415,99850.98,-188,-3,-65
133501,14.227,-3.554,4.188,-1.198497,-0.979696,2.466635,99848.48,-188,-3,-65
133511,13.405,-5.163,3.663,-1.000020,-1.436246,2.801332,99848.48,-184,-9,-69
133521,12.681,-7.208,4.405,-0.802075,-1.659200,3.079626,99848.21,-179,-18,-74
133531,12.770,-8.951,4.102,-0.545599,-1.621420,3.138158,99848.21,-174,-27,-79
133541,12.972,-8.810,3.795,-0.358828,-1.531493,3.096121,99850.27,-174,-27,-79
133547,12.717,-8.259,3.695,-0.289654,-1.454338,3.053552,99849.42,-169,-36,-82
133556,11.974,-7.379,3.593,-0.263580,-1.378246,2.988103,99850.58,-163,-44,-87
133566,10.429,-5.913,3.896,-0.251874,-1.239897,2.821553,99848.28,-163,-44,-87
133576,8.844,-4.388,3.768,-0.282736,-1.125494,2.495901,99848.28,-159,-51,-90
133586,8.010,-2.803,2.329,-0.438112,-1.084521,2.087773,99849.69,-153,-57,-92
133596,6.471,-1.908,1.206,-0.680222,-1.028650,1.641865,99849.42,-149,-60,-96
133606,4.714,-5.378,1.210,-0.807397,-0.739714,1.364104,99844.94,-149,-60,-96
133616,5.648,-5.618,3.742,-0.275819,-0.737054,1.182655,99846.05,-145,-63,-98
133626,8.246,-2.268,3.256,0.266933,-0.773237,0.416416,99846.05,-144,-65,-100
133637,6.819,1.671,1.422,0.021630,-0.675329,-0.352482,99847.39,-142,-65,-101
133646,4.176,3.116,0.790,-0.333287,-0.431623,-0.357271,99849.69,-142,-65,-101
133656,3.137,0.939,0.681,-0.198131,-0.246981,-0.347161,99845.94,-142,-63,-103
133666,2.609,0.164,0.497,0.103043,-0.147476,-0.702610,99846.09,-142,-64,-103
133676,2.631,-0.402,-0.045,0.237667,0.000983,-1.135748,99846.09,-145,-61,-103
133686,2.722,-0.895,0.065,0.189777,0.214359,-1.524720,99845.16,-145,-61,-103
133696,3.089,-0.877,0.087,0.129649,0.411771,-1.850903,99846.95,-147,-59,-102
133706,3.619,-0.434,-0.159,0.128052,0.576725,-2.172297,99847.10,-150,-54,-100
133716,4.055,0.037,-0.390,0.273851,0.702835,-2.472407,99847.35,-154,-49,-98
133726,4.682,0.145,-0.488,0.568107,0.782120,-2.700682,99847.35,-154,-49,-98
133736,5.217,-0.251,-0.525,0.938456,0.830010,-2.907673,99851.48,-160,-43,-95
133746,5.615,-1.038,-0.394,1.325832,0.868854,-3.086462,99846.98,-166,-39,-92
133756,6.088,-1.901,-0.220,1.693519,0.918340,-3.270572,99846.41,-171,-33,-88
133766,6.669,-2.874,-0.050,1.968088,0.976872,-3.446168,99846.26,-171,-33,-88
133776,7.131,-3.743,0.138,2.125592,1.040193,-3.607398,99846.26,-177,-28,-83
133782,7.517,-4.205,0.403,2.194235,1.079569,-3.703177,99845.34,-183,-21,-78
133791,7.844,-4.557,0.691,2.233611,1.115221,-3.795764,99845.34,-183,-21,-78
133801,8.463,-5.115,1.027,2.229354,1.164175,-3.907507,99844.13,-188,-13,-73
133812,9.086,-5.715,1.398,2.167097,1.199826,-4.014994,99844.82,-193,-3,-68
133821,9.797,-6.250,1.753,2.089941,1.218450,-4.106516,99842.37,-197,+5,-63
133831,10.382,-6.808,1.984,1.984051,1.217918,-4.188993,99845.73,-197,+5,-63
133841,10.492,-7.528,1.958,1.838785,1.226964,-4.272003,99846.91,-200,+18,-58
133852,10.346,-8.243,1.976,1.676492,1.276982,-4.348094,99845.88,-202,+29,-54
133861,10.200,-8.617,2.123,1.492914,1.374358,-4.421525,99845.88,-204,+42,-50
133871,10.301,-8.498,2.128,1.320510,1.508982,-4.488571,99846.60,-204,+42,-50
133881,10.698,-8.138,1.964,1.155556,1.662761,-4.533268,99846.60,-204,+55,-46
133892,11.058,-7.738,1.721,1.003373,1.803238,-4.540718,99846.23,-204,+69,-41
133901,11.412,-7.702,1.492,0.883648,1.919770,-4.498682,99847.37,-204,+82,-36
133911,11.897,-7.860,1.316,0.804896,1.998523,-4.441746,99847.63,-204,+82,-36
133921,12.715,-7.987,1.085,0.722951,2.035238,-4.384810,99846.85,-203,+95,-31
133932,13.438,-7.807,0.848,0.623447,2.019275,-4.308718,99846.85,-201,+108,-26
133942,13.717,-7.320,0.519,0.542034,1.951697,-4.183140,99851.40,-199,+121,-22
133951,13.492,-6.807,0.353,0.493612,1.855917,-4.019783,99850.09,-199,+121,-22
133961,13.119,-6.629,0.459,0.525538,1.738321,-3.819177,99849.68,-195,+134,-18
133971,12.691,-6.993,0.629,0.638346,1.618596,-3.578664,99849.68,-193,+145,-14
133981,12.356,-7.565,0.463,0.840015,1.490890,-3.301434,99849.68,-189,+154,-11
133991,11.891,-8.074,-0.064,1.052859,1.349349,-3.008242,99850.67,-189,+154,-11
134001,11.132,-8.564,-0.807,1.179501,1.188652,-2.692169,99851.39,-186,+162,-9
134011,10.504,-9.210,-1.662,1.249740,1.014652,-2.307453,99851.61,-183,+169,-7
134022,9.959,-10.328,-2.083,1.253997,0.791166,-1.785986,99849.88,-181,+174,-8
134031,8.897,-12.235,-2.240,1.320510,0.495845,-1.192151,99849.88,-181,+174,-8
134041,7.001,-14.006,-2.467,1.364143,0.116983,-0.542445,99851.59,-179,+176,-9
134051,5.465,-15.336,-2.427,1.299758,-0.249109,0.132270,99852.33,-179,+175,-12
134062,6.459,-15.293,-0.536,1.157153,-0.529531,0.791554,99850.27,-182,+173,-15
134072,5.713,-15.848,-0.126,0.995391,-0.699274,1.476379,99850.27,-182,+173,-15
134081,6.576,-15.339,1.826,0.511171,-0.839751,2.409700,99852.57,-184,+166,-18
134091,21.087,-3.042,6.469,0.061007,-0.478980,2.044672,99849.85,-189,+158,-20
134102,29.645,16.801,4.643,-0.865929,-0.489090,0.810178,99849.85,-191,+155,-21
134112,17.748,12.909,0.847,-2.879964,-0.206008,1.910581,99851.88,-195,+149,-15
134121,2.679,-4.350,-2.744,-2.794827,0.126028,2.683204,99850.70,-195,+149,-15
134131,11.063,-11.474,2.621,-0.468443,-0.621586,3.150928,99850.70,-199,+141,-15
134136,15.640,-6.508,0.626,0.842676,-0.988209,3.317479,99852.43,-199,+141,-15
134147,10.642,-4.168,-1.637,0.487227,-0.787072,3.180195,99849.35,-204,+129,-19
134157,6.132,-6.119,0.320,-0.268369,-0.314558,2.974268,99850.18,-207,+118,-20
134166,8.355,-8.587,8.463,0.077502,-0.092137,2.872103,99847.79,-211,+108,-20
134176,10.725,-9.785,9.361,0.797979,-0.502393,2.704489,99847.79,-211,+108,-20
134187,8.622,-8.821,3.157,0.631960,-1.000448,2.310727,99849.22,-212,+98,-23
134197,6.643,-9.366,2.968,-0.265177,-0.741843,1.824911,99850.20,-214,+91,-26
134206,8.836,-8.239,3.199,-0.814314,-0.448650,1.381132,99852.81,-214,+87,-26
134216,8.747,-4.206,0.825,-0.838791,-0.419384,0.936288,99850.36,-214,+87,-26
134226,8.915,-1.773,0.135,-0.740883,-0.264540,0.943205,99850.36,-214,+84,-27
134237,9.641,-1.840,0.390,-0.410975,-0.175146,1.043242,99849.67,-216,+80,-27
134246,9.345,-3.013,1.802,-0.128424,-0.134173,1.116673,99851.28,-216,+77,-28
134256,8.880,-3.611,1.291,0.086016,-0.183127,1.078361,99848.38,-216,+77,-28
134266,8.769,-3.845,0.943,0.165300,-0.185256,0.970875,99850.61,-217,+73,-30
134277,9.010,-4.209,1.908,0.166364,-0.139494,0.840508,99850.61,-216,+70,-29
134287,9.299,-4.594,2.382,0.157318,-0.113421,0.662251,99850.31,-217,+67,-28
134296,9.208,-4.950,2.329,0.025887,-0.066063,0.486123,99848.53,-217,+67,-28
134306,9.068,-4.623,2.448,-0.226333,-0.002742,0.328618,99845.92,-218,+65,-29
134317,9.102,-3.213,2.529,-0.428534,0.045148,0.234967,99848.13,-217,+65,-30
134327,9.266,-2.455,2.433,-0.468975,0.053662,0.233371,99848.13,-217,+65,-28
134336,9.472,-2.752,2.499,-0.388094,0.017478,0.278600,99852.95,-217,+65,-28
134346,9.205,-2.858,2.689,-0.343397,-0.002210,0.310527,99851.33,-217,+65,-29
134356,8.662,-2.830,2.753,-0.327434,-0.005403,0.315316,99850.61,-216,+63,-28
134367,8.423,-3.129,2.529,-0.296039,-0.006999,0.292435,99848.16,-217,+62,-28
134372,8.563,-3.260,2.395,-0.289654,-0.004871,0.267426,99848.16,-217,+62,-28
134381,8.635,-3.356,2.567,-0.322645,0.024928,0.239756,99848.16,-218,+62,-28
134391,8.690,-3.391,2.636,-0.371067,0.049405,0.231774,99854.63,-217,+61,-28
134402,8.636,-3.263,2.467,-0.405654,0.058450,0.224857,99850.26,-217,+61,-28
134412,8.714,-3.068,2.626,-0.426938,0.056854,0.216343,99851.04,-218,+60,-28
134422,8.727,-2.930,2.841,-0.448222,0.057918,0.220600,99849.22,-218,+60,-28
134431,8.739,-2.884,2.885,-0.433855,0.044084,0.259444,99851.31,-218,+59,-27
134441,8.844,-2.833,2.857,-0.401397,0.023331,0.290839,99848.75,-218,+59,-27
134452,8.840,-3.069,2.905,-0.378516,0.004707,0.305738,99848.75,-218,+59,-27
134461,8.811,-3.172,2.820,-0.369470,-0.016045,0.339261,99850.78,-218,+58,-27
134471,8.607,-2.960,3.026,-0.370534,-0.038393,0.387150,99849.95,-218,+57,-27
134481,8.336,-2.753,2.990,-0.327434,-0.069788,0.441426,99849.95,-218,+57,-27
134492,8.386,-2.723,2.756,-0.242828,-0.110760,0.498361,99851.88,-219,+56,-27
134502,8.609,-3.021,2.699,-0.176314,-0.144283,0.551040,99851.10,-218,+54,-28
134512,8.907,-2.935,2.913,-0.112993,-0.158650,0.621279,99848.60,-218,+52,-28
134521,9.007,-2.527,3.649,-0.041158,-0.170889,0.688857,99849.76,-218,+52,-28
134532,8.616,-2.061,4.187,0.055686,-0.181531,0.782508,99851.65,-218,+49,-27
134542,8.380,-1.807,4.661,0.200951,-0.192173,0.896379,99850.51,-218,+45,-28
134552,8.844,-2.552,4.434,0.357924,-0.262412,0.994288,99850.55,-218,+41,-28
134561,9.905,-3.744,2.953,0.429759,-0.386925,1.075168,99848.88,-218,+41,-28
134572,8.878,-4.649,1.765,0.333447,-0.441201,1.068251,99848.88,-218,+37,-30
134582,9.159,-6.456,0.421,0.204676,-0.422577,1.025682,99848.88,-218,+32,-31
134592,9.153,-6.226,-0.126,-0.015617,-0.400228,1.031003,99851.34,-217,+29,-32
134601,8.897,-4.847,-0.351,-0.246553,-0.315091,0.954912,99850.09,-217,+27,-33
134607,8.908,-4.715,-0.191,-0.333287,-0.296467,0.893187,99850.18,-217,+27,-33
134617,9.151,-4.768,0.511,-0.413635,-0.253366,0.854875,99849.93,-216,+23,-34
134627,9.438,-4.252,1.474,-0.445562,-0.197494,0.868178,99849.93,-216,+23,-34
134637,9.287,-4.267,2.151,-0.427470,-0.198026,0.951187,99851.16,-216,+20,-33
134646,8.794,-4.452,2.413,-0.424277,-0.229421,1.017168,99851.00,-215,+18,-34
134657,8.582,-4.725,2.516,-0.437048,-0.255494,1.063994,99849.06,-216,+14,-36
134667,8.610,-4.901,2.515,-0.468975,-0.267733,1.088471,99849.48,-216,+14,-36
134677,8.504,-5.111,2.288,-0.538681,-0.275714,1.104967,99849.48,-214,+11,-36
134686,8.571,-5.096,2.085,-0.610516,-0.257623,1.126251,99851.70,-214,+7,-38
134696,8.595,-5.317,1.780,-0.711617,-0.218779,1.152324,99849.77,-212,+3,-39
134707,8.859,-5.295,1.745,-0.756314,-0.227292,1.194893,99850.08,-212,+3,-39
134717,8.828,-5.380,1.891,-0.753653,-0.270925,1.247572,99850.50,-212,+0,-39
134726,9.312,-5.378,1.429,-0.772277,-0.320944,1.279498,99850.50,-212,-3,-41
134736,9.115,-5.536,1.662,-0.749929,-0.394375,1.260343,99851.88,-209,-6,-42
134747,9.488,-5.571,1.527,-0.725452,-0.445457,1.280563,99852.50,-209,-6,-42
134757,10.116,-5.369,1.136,-0.725452,-0.485366,1.288012,99847.55,-208,-10,-44
134766,10.196,-5.523,0.763,-0.705231,-0.537512,1.309297,99850.11,-206,-14,-46
134776,10.178,-5.636,0.323,-0.691397,-0.595512,1.384856,99850.11,-205,-17,-48
134787,10.092,-6.208,0.495,-0.698314,-0.621054,1.426893,99852.63,-205,-17,-48
134797,9.991,-5.680,0.408,-0.661598,-0.669476,1.438067,99854.04,-203,-21,-50
134807,10.182,-6.052,0.331,-0.657342,-0.685439,1.409865,99849.51,-201,-25,-53
134816,10.888,-6.057,0.822,-0.644039,-0.725347,1.393370,99851.43,-199,-28,-55
134827,11.969,-6.210,1.077,-0.682883,-0.763659,1.369425,99851.43,-199,-28,-55
134837,13.234,-6.487,2.305,-0.813250,-0.803035,1.390177,99850.69,-197,-31,-58
134842,14.161,-6.355,3.345,-0.924993,-0.796650,1.463609,99849.95,-193,-34,-61
134851,15.005,-5.943,3.547,-1.065470,-0.812613,1.582801,99849.95,-193,-34,-61
134861,15.718,-5.038,3.750,-1.283635,-0.861567,1.762654,99850.47,-190,-37,-66
134872,16.079,-3.858,5.078,-1.447525,-0.870081,1.977094,99846.72,-186,-41,-69
134882,16.822,-2.839,6.297,-1.506589,-0.866356,2.246874,99846.72,-184,-45,-73
134892,17.940,-2.510,6.369,-1.525213,-0.877531,2.517718,99848.34,-184,-45,-73
134901,17.939,-2.595,6.417,-1.547561,-0.862099,2.775259,99847.95,-177,-52,-77
134912,16.800,-3.400,6.046,-1.540112,-0.912650,3.092396,99846.59,-172,-57,-80
134922,15.767,-5.443,5.310,-1.447525,-1.233512,3.469130,99846.59,-165,-63,-86
134932,14.127,-8.763,2.468,-1.102185,-1.688998,3.796378,99846.59,-165,-63,-86
134941,12.530,-10.400,2.704,-0.823892,-1.603328,3.610671,99850.41,-156,-72,-92
134951,13.391,-9.619,4.987,-0.907965,-1.175512,3.240855,99849.63,-148,-78,-95
134962,13.361,-7.612,5.979,-1.227763,-1.091439,3.095589,99850.36,-141,-83,-99
134972,10.617,-5.681,4.669,-1.341635,-1.014283,2.918929,99847.55,-141,-83,-99
134982,9.243,-3.485,4.446,-1.209139,-0.777494,2.585296,99847.55,-134,-87,-101
134991,13.525,-0.493,2.770,-1.218185,-0.552411,1.948893,99851.49,-128,-89,-104
135002,6.080,-1.816,1.979,-1.368772,-0.420448,1.379003,99849.91,-125,-88,-107
135012,-0.960,-5.381,1.259,-0.922864,-0.494412,1.628030,99848.16,-125,-88,-107
135022,5.252,-3.810,4.490,-0.169397,-0.330522,1.256618,99848.16,-121,-90,-109
135032,8.466,-0.928,3.503,-0.009764,-0.215054,-0.178482,99851.08,-120,-91,-109
135042,6.957,3.472,1.893,-0.296571,-0.159715,-0.838298,99851.08,-120,-88,-110
135052,5.436,4.548,0.566,-0.538149,0.073882,-0.544574,99847.06,-120,-88,-110
135062,3.729,1.249,0.125,-0.263048,0.218616,-0.552023,99848.22,-121,-84,-109
135071,2.212,0.084,-0.289,0.201484,0.258524,-0.978775,99846.70,-123,-82,-110
135081,1.861,-0.027,-0.397,0.455832,0.404322,-1.445436,99846.70,-126,-80,-108
135092,2.156,-0.036,0.173,0.437740,0.650157,-1.853564,99850.59,-130,-76,-106
135102,2.871,0.371,0.381,0.348346,0.877367,-2.229765,99847.89,-130,-76,-106
135112,3.607,0.885,0.069,0.348346,1.045514,-2.591600,99846.02,-136,-70,-104
135121,4.158,1.088,-0.336,0.491483,1.169496,-2.909801,99845.37,-142,-64,-101
135132,4.876,0.849,-0.550,0.750621,1.251973,-3.159893,99851.16,-149,-57,-97
135142,5.605,0.171,-0.698,1.082125,1.303055,-3.369012,99846.26,-149,-57,-97
135152,6.156,-0.749,-0.514,1.403520,1.359991,-3.580260,99844.34,-156,-50,-93
135161,6.505,-1.699,-0.335,1.634455,1.433422,-3.796829,99844.34,-163,-41,-89
135172,6.959,-2.383,0.014,1.821758,1.530798,-3.985728,99843.71,-169,-33,-85
135182,7.613,-2.958,0.387,1.986712,1.623917,-4.180480,99843.71,-169,-33,-85
135192,8.554,-3.675,0.493,2.111225,1.714908,-4.356608,99845.56,-176,-23,-79
135197,9.267,-4.277,0.616,2.165501,1.780890,-4.474736,99845.14,-176,-23,-79
135206,9.919,-4.908,0.688,2.179868,1.818670,-4.564663,99848.17,-182,-12,-75
135217,10.619,-5.554,0.653,2.129849,1.844211,-4.661507,99842.86,-186,+0,-70
135227,11.136,-5.837,0.695,1.982455,1.856982,-4.767929,99842.86,-192,+11,-66
135237,11.711,-6.407,0.772,1.783978,1.871348,-4.881800,99848.10,-192,+11,-66
135246,12.136,-7.319,1.186,1.580712,1.908596,-4.980773,99845.91,-195,+25,-63
135257,12.339,-8.354,1.654,1.349244,1.935734,-5.038240,99846.13,-198,+38,-60
135267,11.998,-9.216,1.715,1.083189,1.965000,-5.075488,99843.77,-200,+54,-56
135277,11.483,-9.376,1.418,0.807557,2.051734,-5.132956,99843.77,-200,+54,-56
135287,11.430,-8.702,1.266,0.579282,2.217752,-5.188295,99847.27,-203,+69,-52
135297,12.010,-7.799,1.144,0.443061,2.394412,-5.184571,99849.05,-204,+86,-47
135307,13.058,-7.628,0.932,0.398896,2.524247,-5.113800,99849.92,-204,+103,-41
135317,14.364,-8.153,0.584,0.403153,2.564687,-5.008442,99850.23,-204,+103,-41
135326,15.407,-8.602,0.221,0.372291,2.552981,-4.894571,99850.23,-204,+120,-34
135336,15.818,-8.583,0.177,0.298860,2.475825,-4.704076,99852.55,-202,+136,-28
135347,16.168,-8.861,0.283,0.271722,2.320449,-4.424718,99848.28,-198,+154,-22
135357,15.391,-9.392,0.114,0.338768,2.082596,-4.119819,99849.00,-193,+168,-16
135367,13.975,-9.976,-0.609,0.405814,1.838890,-3.754792,99850.58,-193,+168,-16
135376,12.608,-10.586,-1.383,0.431355,1.654248,-3.323251,99850.58,-188,+183,-12
135387,11.375,-11.187,-1.845,0.474988,1.454706,-2.819343,99849.32,-181,+193,-9
135397,10.256,-11.792,-2.203,0.579282,1.199826,-2.285637,99850.41,-177,+201,-7
135407,9.352,-12.606,-2.953,0.691557,0.900248,-1.746078,99850.79,-177,+201,-7
135417,7.955,-13.975,-3.506,0.714437,0.540542,-1.104353,99853.65,-171,+206,-7
135427,6.162,-15.647,-3.200,0.689428,0.160083,-0.358335,99853.65,-170,+209,-8
135433,5.364,-16.748,-2.961,0.685171,-0.132577,0.228050,99853.76,-170,+209,-8
135442,5.403,-17.612,-3.112,0.649520,-0.415127,0.805389,99853.76,-170,+208,-12
135452,7.330,-17.475,-1.788,0.523942,-0.702466,1.492342,99853.29,-173,+204,-15
135462,8.084,-15.392,-0.654,0.583538,-0.867420,2.065957,99853.60,-173,+204,-15
135472,19.017,-7.081,5.463,0.232346,-0.496540,2.333076,99849.32,-177,+198,-18
135482,37.092,11.178,10.882,0.485098,-0.243256,0.824013,99850.52,-181,+194,-19
135492,23.515,26.729,1.923,-1.341103,-0.560925,1.366232,99850.21,-182,+191,-18
135502,3.554,2.866,-7.377,-3.372166,-0.190045,2.789094,99850.88,-182,+191,-18
135512,4.582,-15.257,-1.511,-1.908864,-0.400760,3.172213,99850.88,-186,+184,-12
135522,16.574,-8.183,2.911,0.575557,-1.208503,3.484561,99849.38,-191,+173,-17
135532,9.897,-4.024,-0.586,0.357392,-0.899347,3.298855,99849.38,-195,+163,-19
135542,6.261,-6.567,6.089,-0.398204,-0.322008,3.126451,99849.37,-199,+163,-19
135552,8.935,-9.373,10.901,0.119007,-0.296999,3.108360,99848.59,-199,+153,-19
135562,9.459,-8.447,8.519,0.876731,-0.884980,2.919461,99846.55,-203,+143,-22
135572,6.771,-5.948,3.429,0.764988,-1.204246,2.524103,99848.80,-205,+133,-26
135582,6.368,-8.639,5.382,0.166896,-1.001512,2.220268,99848.80,-206,+125,-29
135592,8.901,-10.440,4.734,-0.365213,-1.058980,1.926544,99849.42,-206,+125,-29
135602,8.205,-7.678,0.571,-0.815378,-1.113255,1.338563,99850.58,-207,+121,-32
135612,8.053,-4.081,-2.058,-1.276717,-0.706191,0.958636,99849.69,-207,+119,-33
135622,9.352,-2.451,-1.102,-1.293745,-0.391714,0.854875,99849.69,-208,+117,-33
135632,9.533,-1.546,-0.421,-0.763763,-0.331054,0.918728,99849.69,-208,+117,-33
135642,9.481,-1.763,0.245,-0.139599,-0.339036,1.045370,99852.92,-208,+113,-33
135652,9.228,-2.575,1.405,0.302584,-0.364577,1.121462,99853.08,-210,+109,-35
135662,8.803,-3.825,1.531,0.462217,-0.378944,1.088471,99852.39,-210,+106,-37
135667,8.659,-4.797,1.215,0.451043,-0.346485,0.979389,99849.84,-210,+106,-37
135676,8.792,-5.224,1.701,0.380805,-0.304448,0.794747,99849.84,-211,+102,-38
135687,8.800,-5.757,2.974,0.188181,-0.219843,0.506343,99851.09,-211,+102,-38
135697,9.071,-5.754,3.616,-0.143324,-0.138962,0.260508,99855.16,-211,+100,-38
135707,8.721,-4.160,3.470,-0.491855,-0.090540,0.126417,99850.04,-210,+100,-38
135717,8.441,-2.554,3.217,-0.656277,-0.055953,0.097683,99849.84,-211,+100,-38
135727,8.908,-2.021,2.816,-0.560498,-0.078302,0.122692,99849.84,-211,+100,-38
135737,9.176,-2.187,2.768,-0.411507,-0.100118,0.197187,99852.19,-211,+100,-38
135747,9.200,-2.504,2.626,-0.299232,-0.120338,0.300949,99848.89,-211,+100,-38
135757,8.803,-2.793,2.577,-0.266241,-0.112889,0.345646,99847.91,-211,+98,-38
135767,8.695,-3.361,2.371,-0.291250,-0.101715,0.349903,99851.34,-211,+98,-38
135777,8.932,-3.673,2.517,-0.385966,-0.077237,0.320637,99851.34,-211,+99,-38
135787,9.019,-3.368,3.120,-0.540810,-0.017641,0.324361,99852.96,-211,+98,-38
135797,9.108,-3.008,3.171,-0.685543,0.012689,0.371187,99849.99,-212,+97,-37
135808,8.883,-2.619,3.251,-0.724387,-0.001146,0.428123,99848.12,-212,+97,-36
135817,8.604,-2.534,3.111,-0.648828,-0.029348,0.483994,99848.59,-212,+95,-36
135827,8.531,-2.448,3.049,-0.533360,-0.068192,0.546251,99848.59,-213,+94,-37
135837,8.625,-2.370,3.337,-0.413635,-0.103311,0.587756,99852.07,-212,+92,-36
135847,8.694,-2.910,2.966,-0.316791,-0.149072,0.620747,99848.57,-213,+91,-37
135857,8.810,-3.710,2.419,-0.280076,-0.195366,0.647352,99850.09,-213,+91,-37
135867,9.150,-3.939,2.400,-0.315727,-0.200687,0.651077,99847.07,-214,+89,-36
135877,9.330,-4.004,2.322,-0.398736,-0.182595,0.653737,99847.07,-212,+86,-38
135887,9.120,-3.922,2.177,-0.441305,-0.186320,0.670765,99849.14,-214,+84,-38
135897,8.828,-3.820,2.339,-0.438644,-0.198559,0.683536,99851.44,-214,+84,-38
135907,8.737,-3.585,2.456,-0.413635,-0.227292,0.703756,99849.30,-214,+82,-38
135917,8.674,-3.477,2.943,-0.368938,-0.251237,0.730893,99847.58,-214,+81,-39
135927,8.661,-3.421,3.517,-0.300828,-0.296999,0.767609,99847.58,-214,+77,-40
135938,8.309,-3.397,3.428,-0.239635,-0.333182,0.820820,99851.97,-214,+77,-40
135947,8.040,-3.633,2.943,-0.169397,-0.347549,0.904893,99850.20,-214,+74,-40
135957,8.093,-4.084,2.391,-0.111929,-0.387457,0.972471,99850.52,-214,+71,-42
135967,8.471,-4.567,1.871,-0.119911,-0.410870,0.992691,99848.69,-214,+68,-42
135977,9.104,-5.186,1.205,-0.212498,-0.410338,1.006526,99848.69,-214,+68,-42
135987,9.377,-5.176,0.937,-0.353507,-0.392779,1.017168,99853.01,-214,+65,-43
135997,9.442,-4.792,0.864,-0.473232,-0.366173,1.048031,99851.70,-213,+61,-45
136007,9.220,-4.457,0.848,-0.559965,-0.360320,1.089003,99849.57,-214,+59,-46
136017,8.815,-4.188,1.447,-0.576461,-0.381072,1.144875,99848.73,-214,+59,-46
136027,8.923,-4.160,1.966,-0.539213,-0.427898,1.219902,99848.73,-213,+55,-46
136037,8.927,-4.040,2.482,-0.492388,-0.503457,1.284820,99852.48,-212,+51,-47
136047,9.026,-4.168,2.636,-0.422681,-0.598705,1.380067,99851.76,-212,+46,-49
136057,8.959,-4.513,2.645,-0.355103,-0.681714,1.475315,99850.98,-212,+46,-49
136068,9.069,-5.503,1.859,-0.344461,-0.760466,1.563113,99848.46,-211,+41,-52
136077,9.715,-7.157,1.110,-0.442901,-0.807292,1.592379,99848.46,-210,+37,-53
136087,10.131,-6.711,0.787,-0.653617,-0.784411,1.559920,99853.88,-209,+33,-57
136097,10.546,-6.110,-0.105,-0.833470,-0.730136,1.530654,99850.44,-209,+33,-57
136108,10.763,-5.963,-0.582,-0.924461,-0.729072,1.522141,99851.16,-207,+28,-58
136117,10.741,-5.848,-0.512,-0.935635,-0.767916,1.514691,99850.80,-205,+24,-61
136127,11.064,-5.194,0.169,-0.865929,-0.828044,1.516819,99850.80,-204,+19,-63
136137,11.428,-5.252,0.344,-0.745140,-0.904668,1.499260,99852.57,-204,+19,-63
136147,11.613,-6.051,0.292,-0.620094,-1.007365,1.542361,99850.29,-201,+16,-67
136157,11.069,-6.437,0.969,-0.554644,-1.082925,1.588654,99849.09,-198,+11,-69
136167,10.838,-6.518,1.462,-0.599874,-1.116448,1.587058,99848.46,-195,+8,-73
136177,11.324,-6.467,2.389,-0.745140,-1.123897,1.573223,99848.46,-195,+8,-73
136187,12.554,-6.318,3.685,-0.928185,-1.129219,1.583865,99851.97,-193,+3,-77
136198,14.024,-5.972,5.445,-1.104846,-1.107934,1.616856,99850.30,-188,+0,-80
136207,16.221,-5.416,6.058,-1.209671,-1.081329,1.772764,99850.34,-184,-2,-83
136217,18.075,-4.660,5.491,-1.425176,-1.157420,2.091498,99847.38,-184,-2,-83
136227,18.792,-3.687,5.383,-1.691231,-1.201053,2.420874,99847.38,-180,-7,-87
136238,18.625,-2.775,5.445,-1.882258,-1.162209,2.677351,99853.45,-176,-13,-92
136247,17.215,-2.293,5.311,-1.906735,-1.080264,2.868378,99848.02,-170,-16,-96
136258,15.423,-3.562,4.565,-1.758631,-1.177640,3.151106,99849.23,-165,-24,-100
136267,14.614,-6.099,3.543,-1.520956,-1.569805,3.475515,99847.35,-165,-24,-100
136278,13.914,-9.310,3.960,-1.206479,-1.897053,3.585130,99847.35,-156,-30,-106
136288,14.659,-11.244,5.134,-0.898387,-1.755512,3.402617,99850.88,-147,-38,-110
136297,13.696,-8.907,5.081,-0.635525,-1.627805,3.097718,99847.11,-140,-38,-114
136307,10.553,-5.909,5.239,-0.424277,-1.507016,2.828470,99849.63,-140,-44,-114
136317,8.938,-3.432,4.344,-0.300296,-1.287787,2.435773,99848.94,-133,-50,-117
136328,13.114,0.508,2.959,-0.338608,-1.127622,1.803627,99848.94,-127,-54,-119
136337,7.536,-1.246,2.432,-0.535488,-0.993531,1.181058,99849.16,-122,-55,-123
136347,-3.826,-5.486,-0.387,0.068988,-1.237769,1.416251,99849.32,-122,-55,-123
136357,2.435,-4.813,3.459,0.647924,-0.907329,1.420508,99845.57,-117,-59,-123
136368,7.639,-2.146,2.834,0.848529,-0.733861,0.233903,99847.34,-115,-62,-125
136377,6.309,0.909,2.270,0.337704,-0.605622,-0.748372,99847.34,-114,-61,-125
136387,4.476,2.764,1.109,-0.016681,-0.406613,-0.627051,99850.96,-114,-61,-125
136397,2.900,0.423,0.870,0.030144,-0.210265,-0.518500,99847.37,-114,-59,-125
136408,1.233,-1.240,0.523,0.331318,-0.104375,-0.868096,99847.88,-114,-57,-126
136417,0.574,-1.614,-0.063,0.541502,0.044616,-1.299105,99847.05,-116,-55,-125
136427,0.827,-1.670,-0.078,0.500529,0.286726,-1.652426,99847.05,-116,-55,-125
136437,1.613,-1.275,-0.042,0.330786,0.532028,-1.974353,99848.80,-119,-51,-123
136448,2.509,-0.628,-0.192,0.228621,0.736358,-2.295215,99847.23,-124,-46,-122
136458,3.327,-0.228,-0.263,0.274383,0.901844,-2.599582,99846.30,-129,-39,-121
136467,4.070,-0.224,-0.520,0.443061,1.025294,-2.860847,99845.09,-129,-39,-121
136477,4.605,-0.468,-0.642,0.697942,1.107771,-3.079012,99845.09,-133,-33,-118
136487,5.042,-0.940,-0.508,1.002309,1.157257,-3.260994,99844.81,-138,-25,-116
136493,5.348,-1.481,-0.449,1.228988,1.188119,-3.410517,99849.23,-138,-25,-116
136502,5.653,-2.003,-0.331,1.409373,1.228028,-3.580260,99849.23,-144,-18,-113
136512,6.146,-2.545,-0.196,1.614235,1.281239,-3.795232,99843.34,-148,-12,-111
136522,6.684,-2.969,0.009,1.758437,1.347752,-3.987856,99847.41,-153,-4,-108
136532,7.444,-3.601,0.405,1.875501,1.416927,-4.158663,99847.41,-153,-4,-108
136543,8.220,-4.524,0.736,1.975005,1.477055,-4.333727,99847.19,-157,+3,-106
136553,9.086,-5.407,1.194,2.020235,1.535055,-4.473140,99844.92,-160,+11,-102
136562,9.838,-6.123,1.588,2.020235,1.573367,-4.577966,99843.92,-165,+19,-99
136572,10.426,-6.469,1.657,1.974473,1.581881,-4.683856,99843.92,-165,+19,-99
136583,11.309,-6.763,1.696,1.894657,1.636156,-4.740791,99843.92,-168,+28,-97
136592,11.902,-7.409,1.941,1.791960,1.675000,-4.755691,99850.91,-174,+37,-92
136602,11.970,-8.397,2.099,1.663189,1.707991,-4.763140,99847.63,-177,+47,-88
136612,12.002,-9.138,2.234,1.526437,1.786211,-4.772186,99848.83,-177,+47,-88
136623,12.109,-9.289,2.383,1.373189,1.906468,-4.811030,99844.61,-182,+57,-82
136633,12.214,-8.991,2.407,1.219942,2.042156,-4.855195,99844.61,-185,+70,-77
136642,12.443,-8.430,2.278,1.101813,2.165605,-4.857323,99848.11,-189,+84,-71
136652,13.013,-8.134,2.045,1.018804,2.262981,-4.799855,99848.31,-189,+84,-71
136663,13.680,-8.233,1.705,0.927813,2.316192,-4.673746,99844.77,-189,+98,-64
136673,14.201,-8.802,0.968,0.770309,2.329495,-4.523159,99844.77,-190,+113,-57
136683,14.316,-9.042,0.506,0.593116,2.299697,-4.398113,99850.98,-187,+128,-50
136692,14.039,-8.486,0.363,0.415924,2.232651,-4.301269,99850.98,-187,+128,-50
136702,13.537,-7.324,0.446,0.286089,2.137935,-4.165581,99849.30,-183,+144,-44
136713,13.433,-6.584,0.326,0.273851,1.994798,-3.907507,99846.07,-178,+158,-38
136722,13.116,-6.657,0.068,0.420713,1.806963,-3.566957,99846.48,-171,+170,-33
136732,12.363,-7.451,-0.394,0.654309,1.608486,-3.182774,99846.48,-171,+170,-33
136742,11.495,-8.964,-1.499,0.816602,1.407881,-2.762939,99852.35,-166,+179,-30
136753,10.251,-10.644,-2.488,0.847465,1.179606,-2.276591,99852.04,-160,+186,-30
136763,8.544,-11.830,-3.088,0.775630,0.917276,-1.745013,99850.84,-156,+190,-29
136772,6.888,-12.921,-3.168,0.687300,0.628872,-1.108078,99850.89,-156,+190,-29
136782,5.782,-14.262,-2.996,0.577153,0.251606,-0.352482,99853.55,-154,+192,-29
136793,5.513,-15.633,-3.314,0.426566,-0.162907,0.391939,99853.70,-153,+192,-31
136803,7.111,-15.069,-1.715,0.257887,-0.451843,0.963957,99850.89,-154,+190,-32
136812,8.135,-13.424,-0.062,0.226493,-0.589659,1.470526,99850.89,-154,+190,-32
136822,17.383,-13.008,1.808,-0.327966,-0.477916,2.267626,99852.56,-158,+185,-34
136833,30.844,-1.580,10.077,-0.666387,-0.456632,2.181425,99852.56,-161,+179,-34
136843,22.417,19.767,2.582,-0.592956,-0.838154,1.502452,99848.30,-163,+175,-35
136852,13.918,7.926,-3.451,-2.494184,-0.212925,2.800268,99849.03,-163,+175,-35
136862,2.555,-10.093,-0.744,-2.276552,-0.170357,3.300451,99849.23,-168,+168,-30
136872,14.959,-12.235,3.793,-0.174186,-1.071218,3.858634,99849.86,-173,+158,-32
136883,11.995,-6.919,-0.091,0.725080,-1.151567,3.914506,99849.86,-177,+146,-36
136893,6.223,-8.575,7.455,0.361649,-0.555072,3.611203,99852.55,-177,+146,-36
136902,8.182,-9.803,8.049,0.820859,-0.683311,3.467534,99848.34,-181,+135,-36
136912,8.211,-6.779,3.440,1.108199,-1.139328,3.122727,99846.46,-184,+123,-41
136923,5.332,-5.202,2.862,0.827777,-1.143585,2.723644,99846.46,-186,+115,-44
136933,6.769,-8.479,5.414,0.389850,-1.076008,2.473021,99846.46,-186,+115,-44
136942,8.162,-11.223,3.430,-0.448755,-1.151035,2.115975,99854.29,-186,+107,-48
136952,8.117,-8.828,-0.348,-1.562460,-0.986613,1.459352,99851.52,-186,+103,-50
136963,8.448,-5.243,-4.523,-2.042955,-0.398632,0.824013,99850.32,-187,+103,-50
136973,9.526,-2.214,-4.372,-1.819469,0.053662,0.634049,99852.37,-187,+103,-50
136982,10.201,-1.010,-0.879,-0.980332,0.069093,0.797939,99852.37,-188,+102,-47
136992,10.343,-2.471,3.967,-0.242828,0.012157,0.975664,99852.94,-189,+100,-47
137003,9.566,-2.908,1.064,0.082291,-0.058614,1.081022,99849.13,-190,+97,-48
137013,9.067,-4.670,0.930,0.050897,0.019606,1.060801,99851.72,-190,+93,-47
137023,9.220,-6.262,2.567,-0.127892,0.105276,0.877224,99851.72,-190,+93,-47
137032,9.919,-6.280,4.144,-0.362553,0.165937,0.600526,99850.82,-191,+91,-47
137042,9.317,-5.680,4.059,-0.700975,0.148909,0.448343,99850.82,-191,+90,-46
137053,7.894,-3.620,4.534,-0.926057,0.176579,0.338196,99850.41,-191,+90,-45
137063,7.816,-2.404,4.422,-0.982461,0.163276,0.317444,99849.46,-191,+90,-45
137072,8.230,-2.580,3.760,-0.853158,0.097295,0.291903,99851.45,-192,+89,-44
137082,8.878,-2.960,3.794,-0.664259,0.053662,0.254123,99851.45,-192,+89,-44
137093,9.247,-3.219,3.521,-0.585507,0.019074,0.262637,99849.14,-193,+89,-43
137103,9.073,-3.366,3.008,-0.574332,0.003643,0.281793,99853.20,-193,+89,-43
137113,8.470,-3.330,2.841,-0.564222,0.000983,0.309462,99848.72,-192,+89,-43
137122,8.157,-3.352,2.691,-0.563158,-0.004871,0.320105,99849.97,-193,+87,-43
137133,8.340,-3.444,2.817,-0.558369,-0.018705,0.319572,99851.70,-193,+87,-42
137143,8.437,-3.582,2.819,-0.571672,-0.030944,0.322765,99851.37,-193,+87,-42
137153,8.560,-3.651,2.934,-0.583378,-0.039990,0.336068,99851.70,-193,+87,-41
137162,8.548,-3.643,2.902,-0.579121,-0.055953,0.361077,99851.70,-193,+87,-42
137172,8.495,-3.880,2.513,-0.581250,-0.069256,0.371187,99850.85,-193,+85,-41
137183,8.615,-3.962,2.443,-0.590296,-0.071384,0.367994,99850.85,-193,+85,-41
137193,8.668,-4.107,2.400,-0.620626,-0.058614,0.368527,99852.30,-193,+85,-41
137202,8.654,-4.041,2.311,-0.642975,-0.044779,0.370655,99850.42,-193,+84,-41
137212,8.665,-3.804,2.272,-0.659470,-0.035201,0.374380,99849.06,-193,+84,-41
137223,8.607,-3.615,2.458,-0.612112,-0.062338,0.387683,99848.64,-193,+84,-41
137233,8.406,-3.753,2.643,-0.522186,-0.102779,0.412160,99848.64,-193,+84,-41
137243,8.363,-4.137,2.687,-0.471635,-0.125127,0.433976,99850.16,-194,+82,-41
137252,8.577,-4.429,2.585,-0.495580,-0.132577,0.446215,99851.41,-194,+81,-41
137263,8.828,-4.430,2.570,-0.556241,-0.132045,0.453664,99849.84,-194,+81,-41
137273,8.911,-4.209,2.403,-0.609984,-0.136834,0.468563,99849.84,-195,+81,-42
137282,8.888,-4.020,2.050,-0.646167,-0.143751,0.501022,99849.84,-194,+80,-42
137292,9.157,-3.700,1.952,-0.641910,-0.171421,0.542526,99850.48,-195,+78,-42
137303,9.286,-3.430,2.060,-0.592424,-0.229421,0.598930,99848.70,-195,+78,-42
137313,9.145,-3.416,2.009,-0.500369,-0.286357,0.678214,99850.79,-193,+78,-43
137323,8.859,-3.594,1.909,-0.395011,-0.348613,0.768141,99852.45,-195,+76,-43
137332,8.573,-3.674,2.027,-0.299764,-0.414595,0.855939,99852.45,-194,+72,-44
137342,8.312,-3.890,2.211,-0.231122,-0.464613,0.940545,99849.62,-194,+72,-44
137353,8.227,-4.314,2.262,-0.197067,-0.510375,1.012379,99851.40,-195,+69,-46
137363,8.312,-4.424,2.335,-0.203984,-0.541769,1.072508,99847.51,-194,+67,-47
137373,8.570,-4.568,2.341,-0.217819,-0.555604,1.131572,99847.51,-193,+63,-49
137382,8.907,-4.805,2.035,-0.214626,-0.583806,1.184783,99851.89,-193,+63,-49
137393,9.212,-4.804,1.848,-0.221012,-0.610944,1.228416,99851.89,-193,+59,-50
137403,9.206,-5.005,1.404,-0.213562,-0.641274,1.270985,99849.81,-193,+56,-52
137413,9.067,-5.175,1.058,-0.191213,-0.679586,1.303443,99851.27,-192,+52,-53
137422,8.984,-5.297,0.772,-0.194938,-0.718430,1.315682,99848.25,-192,+52,-53
137433,9.090,-5.587,0.621,-0.211966,-0.749824,1.315682,99848.25,-191,+48,-56
137443,9.269,-5.794,0.675,-0.251342,-0.762063,1.308765,99852.07,-191,+44,-58
137453,9.442,-5.809,0.749,-0.313067,-0.758338,1.326856,99852.01,-189,+39,-60
137463,9.547,-5.602,1.096,-0.396076,-0.767916,1.362508,99849.04,-189,+39,-60
137473,9.607,-5.451,1.543,-0.457268,-0.788136,1.412526,99849.09,-188,+36,-63
137483,9.709,-5.509,2.009,-0.498773,-0.816338,1.488618,99849.76,-186,+31,-64
137493,9.935,-5.742,2.408,-0.535488,-0.855714,1.564177,99850.65,-186,+28,-66
137503,10.422,-5.893,2.622,-0.588167,-0.902540,1.643462,99850.23,-184,+28,-69
137512,11.109,-6.148,2.482,-0.679690,-0.945109,1.714764,99850.23,-184,+24,-69
137523,12.387,-6.159,2.333,-0.791965,-0.990870,1.745095,99847.15,-182,+20,-73
137533,14.057,-5.916,2.980,-0.904240,-1.041420,1.755205,99847.15,-179,+16,-75
137543,15.395,-5.535,3.610,-1.048442,-1.059512,1.832893,99852.52,-176,+12,-79
137553,16.598,-4.549,3.345,-1.248515,-1.064478,2.032256,99849.20,-176,+12,-79
137563,17.437,-3.257,3.654,-1.398038,-1.062173,2.210690,99849.20,-174,+8,-82
137573,18.045,-2.230,4.388,-1.479451,-1.056852,2.432048,99848.72,-170,+4,-86
137583,18.463,-2.386,4.940,-1.482644,-1.040888,2.720984,99848.72,-165,-1,-89
137593,18.282,-3.808,5.619,-1.379947,-1.011622,3.070048,99848.95,-165,-1,-89
137603,17.534,-6.532,4.730,-1.259158,-1.178705,3.472855,99848.58,-161,-7,-92
137613,16.289,-8.393,3.860,-1.222974,-1.559695,3.717625,99848.27,-155,-15,-97
137623,14.545,-10.022,6.003,-1.292681,-1.563952,3.466470,99848.27,-149,-20,-102
137632,14.274,-10.301,6.021,-1.375158,-1.435714,3.347277,99848.27,-149,-20,-102
137643,12.666,-8.273,4.395,-1.292148,-1.409640,3.229149,99848.03,-142,-26,-106
137653,10.338,-5.631,4.224,-1.023965,-1.224466,2.977993,99847.97,-135,-31,-110
137663,8.939,-3.692,4.611,-0.825488,-0.904136,2.500690,99848.55,-130,-34,-114
137673,10.805,-1.083,4.187,-0.810057,-0.707255,1.887168,99845.98,-130,-34,-114
137682,11.151,0.489,2.640,-1.216057,-0.537512,1.291737,99845.98,-126,-37,-114
137693,-1.209,-5.430,-0.369,-0.995231,-0.945109,1.335370,99849.19,-121,-36,-118
137703,1.928,-3.997,3.475,-0.371599,-0.630100,1.116141,99846.94,-119,-37,-119
137713,6.855,-0.018,3.040,0.145612,-0.445457,0.055646,99846.42,-119,-37,-119
137723,6.149,2.618,1.993,-0.122571,-0.233678,-0.871289,99846.42,-117,-36,-120
137733,4.863,2.476,1.411,-0.254002,-0.089476,-0.691436,99848.15,-117,-32,-121
137743,3.278,0.481,1.187,0.048236,-0.031476,-0.634500,99846.95,-117,-31,-121
137753,1.843,-0.149,0.638,0.466474,0.013753,-1.011234,99846.95,-117,-31,-121
137762,1.242,-0.300,0.260,0.691025,0.161148,-1.463527,99846.79,-117,-29,-120
137773,1.081,-0.498,0.460,0.701135,0.380909,-1.857821,99847.63,-119,-26,-119
137783,1.274,-0.353,0.439,0.640474,0.602799,-2.228701,99847.63,-122,-22,-117
137788,1.646,-0.140,0.264,0.620254,0.759239,-2.511251,99848.12,-122,-22,-117
137798,2.283,0.006,0.168,0.642603,0.902377,-2.798059,99847.85,-125,-18,-115
137807,3.168,0.060,0.028,0.739447,1.064670,-3.147655,99844.21,-129,-11,-112
137818,4.100,-0.215,-0.097,0.953887,1.166835,-3.432865,99846.40,-129,-11,-112
137828,4.752,-0.816,-0.060,1.233244,1.225899,-3.693067,99846.40,-133,-3,-109
137838,5.461,-1.424,0.172,1.516859,1.275918,-3.930920,99844.94,-137,+3,-106
137848,6.014,-2.059,0.367,1.738217,1.327000,-4.165049,99844.42,-140,+11,-101
137858,6.613,-2.862,0.444,1.891464,1.414798,-4.360865,99844.42,-140,+11,-101
137868,7.383,-3.686,0.800,2.012785,1.496211,-4.516773,99843.95,-143,+20,-97
137878,8.336,-4.561,1.094,2.138363,1.548358,-4.642883,99843.95,-146,+29,-93
137888,9.280,-5.364,1.434,2.248510,1.573367,-4.758883,99846.34,-146,+38,-88
137897,10.105,-5.800,1.677,2.313427,1.574963,-4.857855,99846.92,-146,+38,-88
137909,11.162,-6.726,2.022,2.319812,1.590749,-4.960375,99845.41,-147,+48,-86
137918,11.859,-8.139,2.505,2.262345,1.603697,-5.030259,99844.98,-147,+57,-82
137928,12.390,-9.888,2.948,2.132510,1.614872,-5.072828,99844.98,-146,+68,-79
137938,12.763,-11.271,3.089,1.935629,1.638284,-5.078681,99850.28,-146,+68,-79
137948,12.560,-11.873,3.123,1.648290,1.736192,-5.066975,99847.20,-145,+78,-76
137958,12.098,-11.710,3.213,1.337538,1.885183,-5.031323,99844.28,-143,+89,-74
137968,11.680,-10.756,3.209,1.124694,2.029917,-4.953635,99846.47,-142,+99,-71
137978,11.943,-9.957,3.162,0.977300,2.161880,-4.787085,99846.47,-142,+99,-71
137988,12.427,-10.097,2.841,0.860768,2.273091,-4.623727,99847.84,-141,+110,-68
137998,12.741,-10.455,2.454,0.711777,2.338541,-4.431635,99849.72,-140,+119,-63
138008,12.948,-10.621,1.675,0.510639,2.381642,-4.269874,99848.09,-139,+130,-60
138018,13.326,-10.406,0.569,0.292474,2.375257,-4.143764,99851.75,-139,+130,-60
138028,13.618,-9.890,-0.412,0.070052,2.294908,-3.989985,99851.75,-137,+139,-56
138038,13.615,-9.573,-1.143,-0.069360,2.124101,-3.721801,99853.08,-135,+147,-53
138048,12.791,-9.579,-1.120,-0.024663,1.902211,-3.358902,99850.69,-133,+156,-50
138058,11.785,-10.065,-1.005,0.171153,1.660633,-2.921508,99848.59,-133,+156,-50
138067,10.635,-10.862,-1.382,0.393575,1.367973,-2.400040,99848.44,-132,+162,-47
138078,8.970,-11.356,-2.295,0.546291,1.034872,-1.792903,99848.44,-130,+166,-47
138088,7.795,-11.603,-3.071,0.618658,0.703368,-1.096372,99853.58,-130,+168,-48
138098,7.134,-12.056,-3.107,0.644199,0.372395,-0.368445,99851.08,-130,+168,-48
138108,6.815,-12.547,-2.965,0.666015,0.007368,0.337132,99851.13,-132,+167,-49
138118,7.091,-13.053,-2.749,0.626107,-0.348081,0.999077,99851.55,-133,+163,-50
138128,8.807,-12.000,-0.493,0.531924,-0.575292,1.470526,99851.55,-135,+158,-53
138138,11.051,-11.061,-0.591,0.463282,-0.684907,1.830232,99853.28,-135,+158,-53
138143,15.454,-8.649,0.491,0.014713,-0.500797,2.105333,99851.30,-137,+153,-55
138152,25.070,0.156,6.349,-0.192278,-0.325733,1.761590,99851.30,-139,+149,-57
138163,27.625,16.907,4.374,-0.344461,-0.613604,1.064526,99849.36,-139,+149,-57
138173,15.995,11.172,-2.535,-1.915249,-0.712577,2.289443,99849.78,-140,+145,-57
138183,2.129,-2.602,-6.968,-2.098827,-0.501861,3.058342,99852.70,-144,+140,-56
138193,9.741,-10.802,-1.663,-0.466314,-0.946173,3.237130,99850.87,-147,+131,-58
138204,12.831,-6.467,-0.522,0.704859,-1.159017,3.267461,99851.07,-147,+131,-58
138213,8.527,-4.166,1.516,0.486162,-0.776430,3.106763,99851.70,-151,+121,-61
138223,6.860,-5.121,6.679,0.303117,-0.377347,2.872103,99851.70,-153,+113,-63
138233,7.512,-6.950,9.452,0.670272,-0.442797,2.757167,99851.70,-154,+104,-65
138243,8.653,-7.454,8.874,1.100217,-0.891898,2.725773,99850.55,-154,+104,-65
138253,6.939,-9.207,5.582,0.809153,-1.254797,2.462911,99848.41,-156,+95,-68
138263,7.191,-12.815,5.304,0.014713,-1.211695,2.144709,99849.66,-156,+88,-71
138273,8.073,-11.225,3.609,-0.718002,-0.984485,1.440728,99850.44,-155,+85,-73
138284,7.694,-4.418,-1.812,-1.450185,-0.606687,0.729829,99850.44,-155,+85,-73
138293,9.405,-1.898,-2.759,-2.040295,-0.151201,0.676618,99854.08,-155,+87,-73
138303,9.861,-0.920,-1.874,-1.440075,-0.107036,0.858600,99849.50,-156,+86,-73
138313,9.828,-1.174,0.835,-0.409911,-0.208136,1.079425,99849.23,-156,+84,-72
138323,9.524,-2.527,2.121,0.215318,-0.239531,1.232141,99849.23,-156,+84,-72
138334,8.838,-3.541,1.004,0.387190,-0.267733,1.244911,99851.03,-157,+80,-74
138343,8.490,-4.246,1.240,0.351539,-0.236338,1.150196,99851.03,-157,+76,-74
138353,8.751,-4.945,2.367,0.306309,-0.169825,0.975132,99850.56,-158,+72,-74
138363,9.147,-6.016,3.247,0.180731,-0.091604,0.764948,99847.89,-158,+72,-74
138373,8.962,-7.053,3.950,-0.147580,-0.033604,0.543591,99848.11,-157,+70,-75
138379,8.075,-6.118,4.147,-0.513140,0.025992,0.370655,99848.11,-157,+70,-74
138388,7.559,-4.099,3.853,-0.819103,0.077074,0.275939,99851.16,-157,+70,-74
138398,8.107,-2.372,3.391,-0.896259,0.060047,0.216343,99852.84,-158,+71,-74
138408,9.139,-2.301,3.148,-0.639250,-0.034669,0.210490,99849.87,-157,+71,-74
138418,9.612,-2.845,2.762,-0.391819,-0.115549,0.253059,99847.46,-157,+71,-73
138428,9.529,-3.339,2.379,-0.255599,-0.166100,0.325426,99847.46,-157,+71,-73
138438,9.013,-3.489,2.304,-0.192810,-0.193770,0.360013,99850.62,-157,+70,-74
138448,8.417,-3.837,2.321,-0.149709,-0.186320,0.329683,99848.23,-158,+70,-75
138459,8.160,-4.024,2.446,-0.150241,-0.150669,0.260508,99849.27,-158,+70,-75
138468,8.053,-4.226,2.576,-0.263580,-0.074577,0.199316,99849.79,-158,+70,-75
138478,8.319,-4.143,2.622,-0.390222,-0.032008,0.173774,99849.79,-158,+69,-74
138488,8.594,-3.626,2.771,-0.443433,-0.012320,0.154618,99852.16,-158,+70,-74
138499,8.698,-3.532,2.697,-0.457268,-0.003806,0.159940,99849.70,-158,+70,-74
138508,8.617,-3.403,2.515,-0.437580,-0.012320,0.186545,99850.33,-158,+70,-74
138518,8.558,-3.303,2.347,-0.422149,-0.009127,0.225921,99849.61,-158,+70,-74
138528,8.473,-3.305,2.199,-0.395011,-0.018173,0.263169,99849.61,-158,+70,-74
138539,8.534,-3.359,2.281,-0.346057,-0.033072,0.294031,99852.69,-158,+69,-74
138548,8.707,-3.540,2.606,-0.305617,-0.047439,0.316380,99850.14,-158,+69,-74
138558,8.702,-3.644,2.716,-0.283268,-0.061274,0.344050,99850.30,-158,+69,-74
138568,8.616,-3.701,2.555,-0.277415,-0.076173,0.382361,99850.92,-159,+68,-74
138578,8.667,-3.817,2.663,-0.268901,-0.101715,0.406838,99850.92,-158,+67,-74
138589,8.759,-3.740,2.761,-0.258259,-0.135237,0.425462,99851.74,-158,+67,-74
138598,8.817,-3.966,2.313,-0.267305,-0.149072,0.458985,99850.01,-158,+66,-74
138608,8.896,-4.179,2.105,-0.273690,-0.160247,0.480802,99850.27,-158,+65,-75
138614,8.961,-4.208,2.017,-0.283268,-0.161311,0.484526,99849.45,-158,+65,-75
138624,9.035,-4.291,1.941,-0.310938,-0.157054,0.485059,99849.45,-158,+63,-76
138633,9.053,-4.374,1.843,-0.338076,-0.146412,0.489848,99849.45,-158,+63,-76
138643,8.977,-4.288,2.045,-0.353507,-0.143219,0.500490,99852.67,-158,+63,-76
138653,8.740,-4.143,2.206,-0.349250,-0.152797,0.512728,99849.55,-158,+63,-76
138663,8.448,-4.223,2.281,-0.318388,-0.162907,0.544123,99850.50,-158,+62,-75
138674,8.333,-4.218,2.482,-0.276351,-0.172485,0.560086,99850.50,-158,+60,-77
138684,8.272,-4.063,2.796,-0.240700,-0.199623,0.582967,99852.16,-158,+59,-77
138693,8.258,-4.047,2.567,-0.217819,-0.219843,0.636710,99852.16,-158,+59,-77
138703,8.277,-4.216,2.026,-0.214094,-0.248045,0.680343,99850.85,-158,+57,-77
138714,8.261,-4.065,1.859,-0.223672,-0.278375,0.730893,99850.34,-158,+55,-77
138723,8.707,-4.360,1.345,-0.241232,-0.314558,0.793150,99848.88,-158,+54,-79
138733,9.006,-4.615,1.359,-0.290186,-0.338503,0.812306,99848.88,-158,+54,-79
138743,9.195,-4.661,1.507,-0.318920,-0.343292,0.860196,99852.58,-157,+52,-79
138754,9.393,-4.695,1.879,-0.366278,-0.357127,0.905425,99850.33,-157,+50,-80
138764,9.334,-4.618,2.286,-0.384369,-0.409274,0.976196,99851.13,-157,+48,-81
138773,9.174,-4.434,2.480,-0.382773,-0.481109,1.072508,99849.54,-157,+48,-81
138783,8.958,-4.508,2.321,-0.380112,-0.555072,1.166691,99853.09,-156,+45,-82
138793,8.753,-4.755,2.112,-0.343929,-0.626907,1.247040,99850.73,-155,+42,-83
138804,8.780,-5.088,2.147,-0.327434,-0.677989,1.306636,99848.80,-154,+39,-85
138813,8.977,-5.550,2.196,-0.336479,-0.724815,1.349737,99848.80,-154,+39,-85
138823,9.201,-6.006,2.218,-0.384901,-0.747696,1.374746,99850.21,-153,+35,-87
138833,9.875,-6.915,1.651,-0.514204,-0.759402,1.376875,99850.21,-152,+33,-89
138844,10.116,-6.909,1.452,-0.723323,-0.759402,1.386453,99850.16,-150,+29,-90
138853,10.675,-6.356,1.417,-0.871250,-0.747164,1.387517,99851.63,-150,+29,-90
138863,11.366,-5.626,1.738,-0.913818,-0.797714,1.388049,99852.30,-149,+28,-92
138873,12.142,-5.813,2.118,-0.917543,-0.882320,1.403480,99848.97,-147,+26,-95
138884,12.833,-5.892,2.352,-0.886681,-0.973310,1.493407,99848.97,-146,+22,-96
138894,13.572,-5.867,1.546,-0.931910,-1.032375,1.620049,99851.44,-146,+22,-96
138903,14.301,-5.393,1.367,-1.041525,-1.083989,1.724342,99851.58,-144,+20,-99
138913,14.798,-4.847,1.877,-1.137305,-1.127090,1.821718,99848.66,-141,+16,-103
138924,15.591,-4.770,2.260,-1.184130,-1.153163,1.930269,99848.66,-139,+14,-105
138934,16.432,-4.882,2.615,-1.249048,-1.154228,2.040948,99848.66,-139,+14,-105
138943,16.701,-4.676,3.509,-1.336314,-1.079732,2.130342,99851.08,-136,+11,-106
138953,16.815,-4.324,4.357,-1.488497,-0.914246,2.243681,99851.17,-133,+7,-109
138963,15.814,-3.419,5.749,-1.738056,-0.735989,2.388947,99852.42,-132,+4,-112
138974,13.870,-3.192,5.585,-1.965799,-0.741310,2.473553,99847.27,-128,+1,-114
138983,11.515,-4.828,3.503,-1.938130,-0.963200,2.631057,99847.27,-128,+1,-114
138993,8.917,-8.578,1.259,-1.638020,-1.271824,2.968415,99851.68,-125,-1,-118
139003,8.367,-10.549,2.189,-1.081433,-1.315989,3.016837,99849.23,-121,-7,-121
139014,10.725,-9.476,3.849,-0.746736,-1.129219,2.716727,99848.10,-117,-12,-123
139024,11.003,-7.230,3.684,-0.824956,-1.064833,2.534745,99848.10,-117,-12,-123
139033,8.528,-5.885,3.280,-0.982461,-0.889237,2.403847,99849.62,-114,-16,-126
139043,6.506,-4.866,4.000,-1.005873,-0.596577,2.153755,99849.62,-111,-20,-128
139054,6.246,-3.142,3.445,-1.050571,-0.358191,1.693480,99849.41,-109,-22,-129
139064,5.951,-0.367,2.634,-1.269800,-0.300724,1.194893,99849.41,-109,-22,-129
139073,2.867,-2.098,0.189,-1.566717,0.061643,0.992691,99849.30,-107,-22,-130
139083,2.918,-3.271,2.321,-1.373561,0.181900,0.986306,99849.30,-108,-20,-131
139094,4.913,-0.149,2.849,-0.737158,0.127625,0.338196,99848.74,-107,-20,-132
139104,4.975,3.344,1.436,-0.624883,0.290450,-0.546170,99848.12,-107,-20,-132
139114,4.525,4.300,1.170,-0.785580,0.555973,-0.818078,99847.49,-109,-18,-132
139123,3.832,2.716,0.545,-0.433855,0.593221,-0.871821,99846.40,-112,-15,-131
139133,3.040,2.155,0.493,0.252566,0.555973,-1.122977,99849.00,-114,-14,-131
139144,2.772,1.424,0.299,0.866621,0.568212,-1.448628,99848.53,-114,-14,-131
139154,2.617,0.448,0.403,1.315189,0.602267,-1.748738,99847.75,-117,-13,-129
139163,2.720,-0.136,0.696,1.579116,0.683147,-2.033949,99847.75,-120,-13,-127
139173,3.100,-0.482,0.893,1.677556,0.819367,-2.359600,99843.58,-124,-12,-125
139184,3.560,-0.834,1.101,1.733960,0.957184,-2.702811,99843.58,-124,-12,-125
139194,4.147,-1.119,1.139,1.802070,1.074248,-3.021545,99849.91,-128,-10,-122
139204,4.833,-1.540,1.101,1.887030,1.185636,-3.331765,99846.48,-133,-6,-119
139213,5.525,-2.151,1.003,1.944675,1.274321,-3.597287,99846.48,-138,-3,-115
139224,6.213,-2.955,0.835,1.922327,1.389257,-3.879306,99847.72,-138,-3,-115
139234,7.105,-3.692,0.679,1.841978,1.515367,-4.111837,99847.72,-144,+2,-112
139244,8.084,-4.228,0.673,1.746198,1.634027,-4.299140,99847.70,-149,+9,-108
139253,9.083,-4.426,0.665,1.690859,1.726614,-4.467819,99844.87,-154,+17,-104
139264,10.243,-4.610,0.581,1.666382,1.812816,-4.643947,99846.70,-154,+17,-104
139274,11.404,-5.366,0.847,1.628070,1.916578,-4.824864,99846.70,-161,+26,-101
139283,12.780,-6.601,1.365,1.617428,1.976706,-4.965342,99846.70,-165,+37,-96
139293,14.166,-7.850,1.741,1.682345,1.951697,-5.008975,99847.31,-170,+49,-92
139303,15.029,-8.788,2.091,1.833996,1.886247,-4.970663,99846.48,-170,+49,-92
139314,15.597,-9.433,2.274,2.093134,1.793660,-4.903617,99848.25,-172,+61,-88
139324,15.764,-9.906,2.348,2.406546,1.677128,-4.782828,99846.22,-174,+70,-85
139333,15.694,-10.543,2.252,2.686436,1.566982,-4.588076,99846.22,-176,+80,-82
139343,15.385,-10.903,1.903,2.832234,1.445128,-4.357140,99851.63,-176,+80,-82
139354,15.255,-11.097,1.865,2.815207,1.341367,-4.130461,99849.64,-176,+89,-80
139364,14.693,-11.156,2.099,2.676858,1.233349,-3.872920,99848.05,-176,+97,-79
139374,14.591,-11.918,2.109,2.501262,1.107771,-3.529710,99848.05,-176,+104,-77
139383,13.821,-13.132,1.757,2.434748,0.911955,-3.229599,99849.32,-176,+104,-77
139394,12.130,-13.660,1.004,2.436877,0.710817,-2.942792,99848.43,-174,+111,-78
139404,10.129,-13.233,0.448,2.421445,0.592689,-2.623527,99848.43,-172,+116,-78
139413,8.561,-12.295,-0.253,2.402289,0.466047,-2.164316,99849.12,-172,+119,-79
139423,7.731,-11.583,-1.029,2.390051,0.290982,-1.577399,99850.68,-172,+119,-79
139433,7.586,-10.994,-1.601,2.392179,0.071221,-0.978775,99850.68,-171,+119,-79
139439,7.514,-10.581,-1.558,2.408143,-0.102779,-0.555216,99851.05,-170,+118,-83
139449,7.556,-10.273,-1.302,2.454436,-0.292210,-0.143895,99852.88,-170,+118,-83
139458,7.513,-10.061,-0.998,2.557133,-0.571035,0.374380,99850.73,-170,+113,-86
139468,7.423,-9.846,-0.661,2.673133,-0.813677,0.827205,99848.33,-170,+108,-90
139479,7.304,-9.672,-0.238,2.781152,-1.020136,1.246508,99848.33,-169,+98,-95
139489,7.476,-9.380,0.083,2.859904,-1.182430,1.632819,99852.72,-169,+98,-95
139499,7.692,-8.160,1.125,2.888638,-1.221273,1.872269,99849.33,-168,+88,-99
139508,6.260,-8.681,1.509,2.603427,-1.118576,2.137259,99851.09,-168,+77,-103
139518,6.820,-6.456,3.997,2.317152,-0.958943,2.299553,99848.80,-168,+66,-106
139529,13.506,-0.659,4.204,1.769079,-0.492283,1.648783,99848.80,-168,+66,-106
139539,14.364,4.243,3.532,0.757006,-0.135770,0.638838,99852.70,-167,+60,-106
139548,11.039,4.729,0.226,-0.142791,-0.141091,0.690985,99849.20,-167,+58,-107
139558,11.497,-2.280,-3.671,-0.579121,-0.252834,1.151792,99851.76,-167,+55,-109
139569,12.039,-7.076,-1.626,-0.517397,-0.234210,1.627498,99850.04,-167,+55,-109
139579,10.872,-7.919,-0.485,-0.159287,-0.162375,1.638140,99850.04,-167,+52,-109
139589,11.273,-5.473,0.284,-0.142791,0.041955,1.465737,99852.52,-167,+47,-109
139598,10.052,-3.649,1.987,-0.357764,0.225533,1.454031,99850.00,-167,+43,-107
139609,9.814,-3.669,2.713,-0.189085,0.261716,1.508838,99849.22,-167,+43,-107
139619,10.117,-3.977,2.778,0.341961,0.105276,1.575352,99849.06,-168,+40,-107
139629,9.725,-4.063,1.672,0.738914,-0.006467,1.521608,99849.06,-168,+34,-107
139638,8.593,-4.859,1.922,0.703263,0.070157,1.338563,99849.52,-168,+28,-106
139649,8.492,-5.396,3.550,0.484034,0.178707,1.163499,99850.55,-168,+28,-106
139659,8.834,-5.174,3.908,0.187117,0.141992,0.949590,99850.14,-169,+24,-106
139669,8.947,-4.258,3.312,-0.172590,0.072817,0.704820,99848.52,-169,+22,-106
139674,9.068,-3.746,3.163,-0.403525,0.077074,0.559022,99848.52,-169,+22,-106
139683,9.386,-3.488,2.992,-0.514204,0.074414,0.444086,99848.52,-168,+22,-106
139694,9.485,-3.037,2.251,-0.516333,0.039295,0.335004,99849.87,-168,+22,-106
139704,9.539,-2.272,1.883,-0.397672,0.047808,0.287646,99852.68,-168,+21,-106
139714,9.696,-1.815,1.823,-0.250278,0.078139,0.302545,99851.32,-168,+21,-106
139724,9.626,-1.833,1.515,-0.130553,0.071753,0.363738,99849.48,-169,+20,-105
139734,9.363,-1.950,1.369,0.010988,0.071753,0.410031,99849.68,-168,+19,-105
139744,9.492,-2.103,1.534,0.155722,0.096230,0.431848,99850.41,-168,+18,-105
139754,9.481,-2.285,2.226,0.220107,0.113258,0.439297,99850.41,-168,+18,-105
139763,9.256,-2.584,2.780,0.213190,0.131882,0.415352,99847.76,-168,+16,-104
139773,9.061,-2.885,2.865,0.102511,0.137203,0.355224,99846.87,-169,+15,-103
139784,8.776,-2.904,2.892,-0.069892,0.149441,0.263701,99846.87,-168,+14,-103
139794,9.096,-2.790,2.930,-0.224204,0.172854,0.169518,99850.73,-168,+14,-103
139804,9.230,-2.472,2.482,-0.330626,0.172322,0.123224,99850.38,-170,+14,-103
139813,9.160,-2.303,2.240,-0.406718,0.198395,0.122160,99850.69,-170,+14,-103
139824,9.223,-2.302,1.806,-0.396076,0.205313,0.131738,99848.80,-170,+14,-103
139834,9.219,-2.211,1.109,-0.331158,0.207441,0.138123,99851.98,-170,+14,-103
139844,9.305,-2.226,1.443,-0.247617,0.235643,0.153022,99851.11,-170,+15,-102
139854,9.362,-2.407,1.745,-0.181635,0.243625,0.173774,99849.59,-171,+14,-101
139864,9.314,-2.479,1.988,-0.159287,0.244689,0.183352,99846.56,-171,+14,-101
139874,9.133,-2.641,2.537,-0.155030,0.248946,0.186545,99846.56,-171,+14,-101
139884,9.095,-2.847,2.716,-0.144920,0.226597,0.179096,99846.56,-172,+15,-101
139893,9.169,-2.744,2.035,-0.180039,0.187753,0.167921,99852.42,-173,+15,-99
139904,9.174,-2.644,2.382,-0.219947,0.189882,0.141848,99852.11,-172,+14,-100
139914,9.376,-2.595,2.825,-0.216755,0.180836,0.147701,99848.41,-172,+14,-100
139924,9.390,-2.626,2.292,-0.252938,0.143056,0.182820,99847.88,-172,+14,-98
139934,9.205,-2.795,2.248,-0.290186,0.127625,0.206233,99847.88,-173,+14,-98
139944,9.290,-2.648,2.748,-0.294443,0.125496,0.241352,99852.48,-173,+13,-99
139954,9.423,-2.325,2.713,-0.321048,0.098891,0.285517,99850.04,-172,+14,-98
139964,9.292,-2.346,2.546,-0.349250,0.062707,0.316380,99849.40,-172,+14,-98
139974,9.274,-2.082,3.286,-0.311470,0.044084,0.356288,99849.40,-174,+14,-98
139984,9.516,-1.557,3.511,-0.253470,0.002579,0.407903,99850.72,-172,+13,-99
139994,9.275,-1.867,3.422,-0.210369,-0.062871,0.487719,99850.72,-172,+11,-99
140004,9.074,-2.186,3.454,-0.114590,-0.122467,0.572857,99849.05,-172,+11,-99
140014,9.163,-2.249,3.232,-0.022535,-0.183127,0.617022,99852.59,-171,+11,-99
140023,9.080,-2.515,3.034,0.012053,-0.234210,0.651609,99848.27,-171,+8,-100
140034,8.941,-2.897,2.937,0.054621,-0.270393,0.689389,99848.27,-170,+5,-100
140044,9.014,-3.165,2.636,0.103575,-0.304448,0.711737,99849.91,-170,+5,-100
140054,8.929,-3.458,2.354,0.113153,-0.327861,0.706948,99851.22,-169,+4,-101
140064,8.791,-3.394,2.315,0.099851,-0.345953,0.686728,99850.75,-168,+1,-101
140073,8.828,-3.119,2.418,0.113153,-0.353935,0.677682,99852.02,-168,-1,-102
140084,8.783,-3.264,2.191,0.134970,-0.374155,0.679279,99852.29,-168,-1,-102
140094,8.708,-3.524,1.954,0.194566,-0.401292,0.666508,99849.88,-167,-2,-103
140104,8.751,-3.574,1.993,0.270126,-0.422577,0.630325,99849.88,-165,-5,-104
140113,8.684,-3.832,2.108,0.314823,-0.434283,0.593609,99849.68,-165,-7,-104
140124,8.688,-3.837,2.085,0.338768,-0.437476,0.555297,99848.01,-165,-7,-104
140134,8.768,-4.141,2.115,0.329722,-0.435879,0.508471,99848.01,-163,-9,-106
140144,8.852,-4.220,2.012,0.313759,-0.436412,0.462710,99851.27,-163,-11,-107
140153,8.923,-4.302,1.759,0.285557,-0.431090,0.419609,99851.63,-161,-14,-107
140164,8.853,-4.421,1.467,0.235006,-0.442797,0.370655,99848.66,-161,-14,-107
140174,8.817,-4.329,1.317,0.181263,-0.433219,0.323829,99846.72,-160,-14,-108
140184,8.840,-4.093,1.377,0.144016,-0.412467,0.295095,99846.72,-160,-15,-109
140194,8.899,-3.877,1.582,0.144016,-0.404485,0.277536,99850.94,-159,-16,-110
140204,8.941,-3.799,1.787,0.150933,-0.409274,0.270086,99847.27,-159,-16,-110
140214,9.005,-3.829,1.981,0.150401,-0.422577,0.271683,99848.36,-157,-18,-111
140224,9.028,-3.816,2.154,0.141887,-0.440136,0.273811,99848.36,-156,-18,-111
140234,8.894,-3.815,2.155,0.125924,-0.455035,0.284985,99848.36,-155,-20,-112
140243,8.683,-3.777,2.097,0.113685,-0.468870,0.296692,99854.31,-155,-20,-112
140254,8.609,-3.706,2.048,0.112089,-0.475788,0.304673,99850.92,-154,-20,-114
140264,8.570,-3.753,1.929,0.121667,-0.490155,0.317976,99851.44,-153,-22,-114
140274,8.581,-3.823,1.923,0.149869,-0.494944,0.324361,99850.30,-151,-23,-116
140284,8.649,-3.947,2.008,0.161043,-0.498136,0.325958,99850.30,-151,-23,-116
140294,8.719,-3.993,1.956,0.164236,-0.512503,0.330215,99852.19,-150,-24,-117
140304,8.836,-4.180,1.789,0.150933,-0.524210,0.333939,99849.25,-149,-26,-119
140314,8.848,-4.399,1.630,0.123796,-0.543898,0.330215,99848.02,-148,-26,-119
140324,8.832,-4.246,1.369,0.072713,-0.549219,0.322765,99848.02,-148,-26,-119
140335,8.797,-4.130,1.210,0.037062,-0.551879,0.327022,99853.49,-146,-27,-121
140344,8.895,-4.015,1.359,0.033869,-0.561989,0.333939,99853.49,-145,-29,-122
140354,8.865,-4.117,1.136,0.035465,-0.589127,0.350967,99853.80,-144,-29,-123
140364,8.715,-4.270,1.168,0.043979,-0.617861,0.361077,99850.15,-144,-29,-123
140374,8.619,-4.420,1.320,0.036530,-0.637017,0.366398,99849.37,-142,-31,-123
140384,8.739,-4.426,1.365,-0.011360,-0.638081,0.360545,99849.37,-140,-31,-125
140394,8.941,-4.481,1.296,-0.064571,-0.642870,0.358949,99851.59,-138,-33,-126
140404,9.129,-4.514,1.194,-0.102351,-0.659898,0.371187,99849.72,-136,-33,-127
140414,9.208,-4.439,1.127,-0.139599,-0.688100,0.387150,99849.83,-136,-33,-127
140424,9.105,-4.453,0.952,-0.175782,-0.723751,0.410031,99850.02,-133,-34,-130
140434,9.058,-4.574,0.750,-0.227929,-0.754081,0.422270,99850.29,-133,-34,-131
140444,9.162,-4.364,0.891,-0.280608,-0.774301,0.434508,99848.35,-130,-34,-134
140454,9.301,-4.217,0.887,-0.296039,-0.813145,0.459517,99849.66,-130,-34,-134
140464,9.380,-4.180,0.885,-0.286993,-0.861035,0.478141,99849.66,-126,-35,-135
140474,9.074,-4.494,0.480,-0.246553,-0.914246,0.515921,99847.99,-124,-35,-137
140484,8.877,-4.953,0.075,-0.222076,-0.945641,0.538270,99847.99,-122,-36,-140
140494,8.725,-4.983,0.050,-0.239635,-0.963200,0.520178,99852.33,-122,-36,-140
140504,8.613,-4.844,-0.132,-0.272626,-0.963732,0.497297,99850.70,-119,-37,-142
140514,8.685,-4.976,-0.657,-0.266773,-0.971714,0.478673,99849.88,-116,-37,-143
140524,8.819,-5.279,-1.095,-0.242828,-1.000448,0.445150,99846.64,-113,-37,-147
140534,8.601,-5.183,-0.589,-0.218351,-1.044081,0.397793,99846.64,-113,-37,-147
140545,8.556,-5.032,0.016,-0.208241,-1.064301,0.349903,99852.27,-109,-37,-149
140554,8.842,-5.133,0.204,-0.221544,-1.087714,0.311591,99849.80,-107,-37,-150
140564,9.169,-5.181,0.391,-0.243892,-1.110063,0.290839,99848.33,-103,-37,-153
140574,9.473,-5.383,0.222,-0.284333,-1.136668,0.291371,99848.33,-103,-37,-153
140584,9.720,-5.362,0.264,-0.326901,-1.162209,0.287114,99848.33,-101,-38,-154
140594,9.873,-5.348,0.213,-0.373195,-1.170723,0.281261,99850.20,-97,-37,-157
140604,9.888,-5.436,-0.350,-0.431195,-1.174980,0.288178,99853.07,-93,-36,-160
140614,10.077,-5.645,-0.748,-0.509947,-1.178173,0.286050,99850.87,-93,-36,-160
140624,10.687,-5.771,-0.621,-0.607323,-1.189879,0.256251,99848.99,-89,-35,-161
140634,11.520,-5.670,-0.050,-0.699910,-1.196796,0.217407,99848.99,-87,-34,-165
140644,12.342,-5.468,0.417,-0.756314,-1.196796,0.232306,99850.87,-83,-32,-168
140654,13.029,-5.211,0.112,-0.840387,-1.199989,0.259976,99850.34,-83,-32,-168
140664,13.386,-4.476,-0.228,-0.995763,-1.206374,0.284453,99849.37,-79,-30,-169
140675,13.338,-3.444,0.022,-1.138901,-1.248411,0.316912,99849.37,-75,-26,-173
140684,13.676,-2.296,0.514,-1.136772,-1.378778,0.489848,99850.62,-70,-25,-175
140694,14.143,-1.336,1.480,-0.924993,-1.553310,0.665444,99850.62,-70,-25,-175
140704,14.164,-1.156,2.540,-0.616901,-1.729970,0.831994,99849.59,-65,-24,-179
140715,13.798,-1.625,3.792,-0.214626,-1.924191,1.022490,99847.87,-58,-24,-181
140724,13.278,-2.763,4.254,0.199887,-2.099255,1.225223,99849.90,-51,-26,-182
140735,12.178,-4.690,3.741,0.567043,-2.264563,1.472122,99849.82,-51,-26,-182
140744,11.319,-6.516,2.971,0.771905,-2.353603,1.608342,99849.82,-42,-31,-185
140754,10.727,-8.019,2.068,0.816070,-2.408942,1.662618,99849.71,-33,-34,-186
140765,10.641,-8.314,1.786,0.692621,-2.411071,1.664214,99847.79,-24,-39,-187
140774,10.664,-7.166,1.134,0.537777,-2.375952,1.610471,99848.51,-24,-39,-187
140784,10.392,-5.028,-0.677,0.670272,-2.516961,1.548746,99850.40,-15,-42,-187
140794,9.624,-1.732,1.687,1.807391,-2.945309,1.533847,99850.49,-4,-48,-187
140805,9.411,-0.330,5.663,3.331353,-3.116116,1.471058,99847.52,+6,-59,-184
140814,8.721,-1.014,7.171,4.207206,-3.106006,1.398691,99847.52,+6,-59,-184
140824,7.476,-2.947,6.384,4.230619,-2.994795,1.308765,99845.70,+17,-74,-177
140834,5.910,-5.613,4.586,3.752784,-2.816006,1.230012,99845.70,+28,-86,-171
140845,4.768,-7.240,2.991,3.006766,-2.472795,0.926710,99849.74,+36,-96,-166
140854,4.412,-7.485,2.316,2.125592,-2.016245,0.483462,99847.66,+36,-96,-166
140864,4.656,-5.987,2.175,1.265703,-1.572998,0.122160,99846.66,+42,-100,-161
140874,5.028,-3.843,1.814,0.577685,-1.249475,-0.215198,99845.73,+44,-102,-159
140884,5.220,-2.173,0.943,0.209997,-1.063769,-0.500409,99845.73,+47,-104,-158
140895,5.223,-1.379,0.415,0.084952,-0.983420,-0.769124,99848.77,+47,-104,-157
140904,5.397,-1.129,0.390,0.191906,-0.925953,-1.039968,99846.12,+47,-103,-157
140914,5.898,-0.973,0.761,0.476052,-0.887109,-1.299105,99844.80,+47,-103,-154
140924,6.372,-0.737,1.362,0.899612,-0.867953,-1.517802,99844.80,+46,-106,-152
140934,6.782,-0.717,1.849,1.444492,-0.887109,-1.679564,99844.80,+44,-111,-147
140944,6.649,-1.069,2.128,2.035134,-0.915310,-1.810463,99851.88,+44,-111,-147
140954,6.453,-1.550,2.473,2.554473,-0.929677,-1.912628,99848.91,+42,-116,-141
140964,6.105,-2.143,2.730,2.971647,-0.907329,-2.038738,99844.22,+38,-123,-133
140969,5.846,-2.556,2.807,3.213757,-0.867953,-2.150481,99846.20,+38,-123,-133
140979,5.730,-3.125,2.683,3.375518,-0.799843,-2.280316,99846.20,+35,-130,-125
140989,5.837,-3.698,2.645,3.487793,-0.659366,-2.464426,99846.22,+31,-137,-115
140999,6.078,-3.884,2.725,3.496839,-0.486962,-2.673545,99845.13,+31,-137,-115
141009,6.534,-3.894,2.712,3.447353,-0.304448,-2.871490,99845.03,+24,-143,-106
141020,6.884,-4.733,2.743,3.360087,-0.128320,-3.050279,99844.25,+16,-148,-97
141029,7.334,-5.444,2.699,3.234509,0.048340,-3.215233,99844.25,+7,-152,-88
141039,8.003,-6.246,2.879,3.014216,0.234579,-3.390297,99846.44,+7,-152,-88
141049,8.692,-6.935,3.311,2.761996,0.420817,-3.539287,99843.41,-1,-154,-79
141060,9.237,-7.210,3.819,2.547023,0.575661,-3.632939,99847.31,-12,-156,-71
141069,9.739,-7.272,4.286,2.399097,0.697514,-3.664333,99847.11,-23,-156,-65
141079,10.128,-7.434,4.616,2.323537,0.792230,-3.660076,99847.11,-23,-156,-65
141089,10.332,-7.631,4.590,2.284693,0.869386,-3.651563,99847.08,-35,-155,-57
141100,10.342,-7.712,4.303,2.225097,0.946010,-3.637728,99847.70,-46,-153,-50
141109,10.457,-7.753,4.068,2.131446,1.057753,-3.592498,99843.89,-58,-151,-42
141119,10.701,-7.662,3.976,2.023427,1.186523,-3.522792,99845.25,-58,-151,-42
141129,10.942,-7.604,3.809,1.932437,1.305716,-3.460003,99845.25,-68,-147,-36
141139,11.203,-7.811,3.456,1.861134,1.420651,-3.397214,99849.84,-78,-141,-29
141150,11.382,-8.166,3.224,1.754180,1.515899,-3.325912,99848.53,-88,-135,-22
141159,11.106,-8.557,3.068,1.551446,1.599440,-3.264719,99850.73,-96,-135,-22
141169,10.508,-8.669,2.907,1.270492,1.681385,-3.193948,99845.72,-96,-128,-15
141179,10.070,-8.486,2.832,0.982621,1.764394,-3.115728,99845.72,-103,-121,-11
141190,10.051,-8.077,2.723,0.710181,1.853257,-3.015159,99848.23,-109,-113,-6
141199,10.508,-7.591,2.364,0.472327,1.918174,-2.884260,99848.65,-114,-107,-2
141205,10.804,-7.284,2.019,0.311630,1.937330,-2.782627,99848.55,-114,-107,-2
141214,10.812,-6.896,1.646,0.196162,1.930945,-2.675673,99848.55,-119,-100,+1
141224,10.713,-6.125,1.148,0.090273,1.895825,-2.536793,99845.26,-119,-100,+1
141235,10.628,-5.389,0.677,0.022695,1.820798,-2.387802,99845.26,-123,-94,+4
141245,10.645,-5.049,0.186,-0.011892,1.695220,-2.240940,99850.79,-127,-90,+7
141254,10.501,-5.510,0.057,0.003539,1.605294,-2.097270,99846.54,-130,-85,+11
141264,10.233,-5.943,-0.016,0.178603,1.460028,-1.915288,99848.40,-130,-85,+11
141275,10.124,-5.758,-0.485,0.446254,1.255165,-1.789178,99848.40,-134,-81,+12
141284,10.027,-5.423,-0.824,0.717098,1.079037,-1.670518,99848.40,-137,-79,+15
141294,9.759,-5.238,-0.751,0.934199,0.925257,-1.510885,99851.67,-139,-75,+19
141304,9.332,-5.515,-0.653,1.089043,0.781588,-1.295381,99848.44,-139,-75,+19
141315,8.810,-6.450,-0.856,1.185354,0.615037,-1.029858,99848.69,-141,-72,+21
141325,8.097,-7.662,-0.835,1.223134,0.458597,-0.713253,99848.17,-144,-70,+24
141334,7.660,-8.831,-0.938,1.191740,0.316524,-0.350354,99848.17,-144,-70,+25
141344,7.935,-9.658,-0.086,1.112455,0.198927,0.032233,99851.81,-144,-70,+25
141355,8.102,-10.536,0.551,1.046474,0.063239,0.400985,99850.67,-144,-70,+28
141365,7.250,-11.935,-0.050,0.829373,-0.139494,0.938416,99851.50,-143,-72,+30
141375,7.859,-12.246,-0.469,0.638346,-0.384797,1.553003,99851.50,-141,-77,+28
141384,11.395,-9.781,-0.423,0.546291,-0.595512,1.955278,99853.13,-138,-82,+29
141394,25.203,-0.152,2.736,0.343557,-0.675861,1.891957,99850.46,-138,-82,+29
141405,25.643,13.405,-0.154,0.110493,-0.822723,1.435939,99850.46,-137,-85,+28
141414,14.726,9.107,-2.641,-0.959048,-0.481641,2.441094,99847.91,-133,-91,+25
141424,2.945,-1.767,-3.707,-0.890406,-0.475256,3.005131,99850.79,-127,-99,+23
141434,8.249,-9.812,-0.108,0.332915,-0.820063,3.312158,99850.79,-127,-99,+23
141445,13.306,-7.647,1.708,1.100217,-0.845604,3.307901,99849.66,-121,-106,+23
141455,9.456,-5.419,3.054,0.877795,-0.624778,2.854543,99850.85,-115,-112,+24
141464,7.104,-6.001,7.830,0.792125,-0.337971,2.571993,99847.57,-110,-118,+25
141474,9.162,-8.048,8.554,1.101813,-0.507182,2.637975,99847.84,-110,-118,+25
141485,8.844,-8.585,4.776,0.963465,-0.903072,2.384691,99848.98,-104,-122,+26
141495,7.001,-7.352,3.861,0.287685,-0.863696,1.931865,99849.14,-100,-126,+25
141505,8.295,-7.072,5.088,-0.350314,-0.670540,1.753608,99847.16,-96,-130,+23
141514,9.250,-5.394,2.104,-0.757378,-0.782815,1.547150,99848.45,-96,-130,+23
141524,8.270,-4.060,-1.333,-1.077176,-0.638081,1.412526,99848.45,-92,-132,+20
141535,9.614,-4.864,-1.189,-0.946809,-0.392246,1.356654,99848.45,-89,-134,+17
141545,9.145,-3.901,-1.389,-0.603598,-0.285292,1.212453,99849.93,-86,-137,+15
141554,9.342,-3.246,-0.518,-0.293379,-0.194302,1.179462,99850.09,-86,-137,+15
141564,9.174,-2.946,0.177,-0.022535,-0.132577,1.170948,99849.05,-83,-138,+16
141575,9.172,-3.086,0.767,0.200419,-0.079898,1.117205,99848.79,-80,-140,+15
141585,9.578,-3.544,1.335,0.267997,-0.025623,1.005994,99848.79,-79,-141,+15
141595,9.377,-3.953,2.700,0.105704,0.028652,0.883609,99850.19,-79,-141,+15
141604,8.466,-4.621,3.960,-0.257195,0.105808,0.773994,99848.00,-77,-143,+16
141615,7.026,-4.950,3.251,-0.522186,0.210634,0.613297,99848.98,-76,-144,+15
141625,7.301,-4.161,2.659,-0.681819,0.323973,0.401517,99848.98,-74,-145,+14
141634,8.539,-3.559,3.057,-0.737690,0.328230,0.297756,99848.98,-74,-145,+14
141644,9.420,-3.471,2.607,-0.711617,0.280340,0.307334,99851.63,-73,-145,+12
141655,9.656,-3.329,2.154,-0.644571,0.244157,0.357884,99850.47,-72,-146,+12
141665,9.637,-3.210,2.021,-0.567947,0.237771,0.389811,99849.69,-72,-145,+11
141675,9.471,-3.322,2.384,-0.524846,0.198395,0.426527,99847.03,-72,-145,+11
141684,9.189,-3.692,2.849,-0.494516,0.137203,0.455260,99847.03,-70,-145,+9
141694,9.148,-4.399,2.790,-0.501966,0.101019,0.444618,99851.61,-69,-147,+7
141705,9.075,-4.659,2.886,-0.648296,0.108469,0.418545,99850.72,-68,-147,+7
141715,8.895,-4.069,3.229,-0.820167,0.147313,0.415884,99849.09,-68,-147,+7
141725,8.769,-3.202,3.270,-0.894662,0.141992,0.451004,99848.85,-68,-147,+5
141734,8.679,-2.764,3.263,-0.858479,0.095698,0.476545,99852.66,-66,-147,+3
141745,8.835,-2.545,3.465,-0.730773,0.019606,0.517517,99850.84,-65,-149,+1
141755,8.765,-2.918,3.307,-0.600406,-0.059146,0.574985,99850.84,-65,-149,+1
141764,8.449,-3.547,2.991,-0.511544,-0.127788,0.624471,99850.68,-63,-149,+0
141774,8.131,-3.968,2.667,-0.467910,-0.154393,0.650545,99850.27,-61,-149,-1
141785,8.272,-4.119,2.856,-0.473764,-0.161311,0.663848,99850.27,-60,-150,-3
141795,8.540,-3.869,3.017,-0.493274,-0.169470,0.686728,99850.46,-60,-150,-3
141804,8.656,-3.948,2.918,-0.490791,-0.171421,0.733554,99850.46,-58,-151,-3
141814,8.660,-4.378,2.376,-0.474296,-0.198026,0.773462,99848.59,-56,-151,-5
141825,8.744,-4.561,2.194,-0.492388,-0.208136,0.791554,99847.63,-52,-153,-7
141835,8.989,-4.607,1.963,-0.533892,-0.201219,0.813902,99847.63,-52,-153,-7
141845,9.058,-4.768,1.707,-0.578057,-0.203880,0.836251,99850.89,-51,-153,-7
141855,9.044,-4.629,1.729,-0.624883,-0.196430,0.858068,99850.39,-49,-155,-9
141864,9.117,-4.411,1.756,-0.653085,-0.198026,0.894783,99845.81,-45,-155,-11
141875,8.993,-4.451,1.926,-0.664791,-0.223568,0.936288,99845.81,-45,-155,-11
141885,8.782,-4.412,1.730,-0.658938,-0.252302,0.993756,99845.81,-43,-155,-14
141894,8.739,-4.319,1.485,-0.660002,-0.290614,1.053884,99850.84,-40,-156,-15
141904,8.611,-4.216,1.726,-0.625415,-0.344889,1.113480,99847.87,-37,-156,-17
141915,8.775,-4.230,1.775,-0.559433,-0.405549,1.175205,99849.18,-33,-157,-19
141925,8.987,-4.533,1.665,-0.483874,-0.478448,1.240654,99849.27,-33,-157,-19
141935,9.193,-5.059,1.705,-0.444498,-0.536448,1.295462,99849.27,-29,-158,-20
141944,9.453,-5.459,1.622,-0.437580,-0.572632,1.332709,99851.09,-24,-160,-22
141955,9.656,-5.900,1.300,-0.487066,-0.593916,1.360379,99850.04,-21,-160,-23
141965,9.757,-6.239,1.125,-0.564222,-0.604558,1.370489,99847.79,-21,-160,-23
141975,9.937,-6.113,1.018,-0.652553,-0.604558,1.374746,99847.79,-16,-160,-26
141985,10.083,-5.939,0.738,-0.733965,-0.613604,1.385388,99851.25,-12,-161,-28
141995,10.071,-5.801,0.533,-0.790369,-0.663622,1.419976,99851.25,-8,-161,-31
142005,10.037,-5.638,0.827,-0.807397,-0.698742,1.458820,99847.13,-8,-161,-31
142015,10.251,-5.474,1.132,-0.817507,-0.729604,1.515755,99850.47,-3,-161,-33
142024,10.636,-5.533,1.327,-0.820699,-0.785476,1.593443,99851.03,+2,-160,-36
142030,10.885,-5.534,1.566,-0.821763,-0.817934,1.640269,99851.03,+2,-160,-36
142040,11.026,-5.639,1.941,-0.823360,-0.852521,1.693480,99852.20,+7,-161,-39
142050,11.393,-5.972,2.015,-0.848901,-0.915310,1.775957,99851.78,+13,-161,-41
142060,11.582,-6.098,1.835,-0.930314,-0.956283,1.835021,99848.39,+13,-161,-41
142069,11.974,-5.872,1.985,-1.017048,-0.962668,1.875993,99851.52,+19,-160,-44
142080,12.989,-5.278,1.768,-1.068130,-0.999916,1.930269,99851.52,+26,-159,-48
142090,14.430,-4.678,2.276,-1.108039,-1.039292,1.973902,99850.80,+32,-158,-50
142100,15.671,-4.131,3.660,-1.093672,-1.006833,2.051590,99851.85,+32,-158,-50
142109,16.975,-3.747,4.157,-1.109103,-0.955219,2.202709,99849.20,+39,-156,-54
142119,17.869,-3.385,4.914,-1.186259,-0.930209,2.385755,99847.41,+47,-154,-57
142130,17.871,-3.786,5.388,-1.206479,-1.016411,2.631057,99847.41,+56,-152,-61
142140,16.623,-5.486,5.264,-1.106974,-1.315457,3.127516,99849.14,+66,-152,-65
142150,15.656,-7.551,4.620,-0.762699,-1.640576,3.599497,99848.67,+66,-149,-65
142159,15.032,-9.342,4.350,-0.449287,-1.659200,3.640470,99845.80,+77,-147,-65
142170,14.258,-9.580,5.623,-0.488131,-1.436778,3.383461,99844.91,+89,-143,-66
142180,12.734,-8.415,6.540,-0.857947,-1.373457,3.046635,99844.91,+99,-140,-68
142190,10.804,-6.762,5.777,-1.217121,-1.325567,2.791754,99848.39,+99,-140,-68
142199,7.840,-4.971,4.775,-1.254369,-1.138797,2.584232,99848.39,+107,-135,-72
142210,7.421,-2.419,4.240,-1.112828,-0.841347,2.215480,99848.02,+115,-131,-74
142220,22.545,0.970,3.700,-1.258626,-0.641274,1.578544,99847.70,+119,-126,-77
142230,-2.903,-4.955,-0.120,-1.107506,-0.529531,0.861260,99847.70,+119,-126,-77
142240,-5.759,-7.647,0.770,-0.481745,-0.609347,1.203407,99850.35,+123,-123,-79
142249,4.383,-5.162,4.019,-0.149709,-0.419384,0.910746,99849.10,+126,-121,-80
142260,8.741,-1.752,2.485,-0.442369,-0.087880,-0.689308,99848.43,+125,-121,-82
142266,7.289,1.524,2.057,-0.831341,-0.102779,-1.235252,99848.27,+125,-121,-82
142275,6.099,3.882,0.963,-1.020240,0.003643,-0.896298,99848.27,+124,-120,-84
142284,4.519,1.609,0.572,-0.836130,0.131350,-0.592464,99848.27,+124,-120,-84
142295,2.520,0.044,0.013,-0.274223,0.112194,-0.890445,99847.81,+123,-119,-86
142305,1.810,-0.001,-0.573,0.267465,0.152634,-1.323050,99848.23,+120,-120,-87
142315,2.172,-0.234,-0.528,0.564382,0.306946,-1.697123,99845.31,+117,-123,-86
142325,2.795,-0.299,-0.415,0.663355,0.467111,-2.039802,99845.31,+117,-123,-86
142334,3.317,-0.231,-0.476,0.741043,0.595881,-2.338316,99847.00,+112,-127,-86
142345,3.843,-0.279,-0.508,0.918768,0.714542,-2.628848,99847.00,+106,-130,-85
142355,4.293,-0.491,-0.481,1.143850,0.832670,-2.910866,99847.06,+99,-134,-84
142365,4.831,-1.114,-0.428,1.389153,0.920468,-3.149251,99845.13,+90,-134,-84
142374,5.291,-1.719,-0.332,1.609446,0.990175,-3.379122,99843.45,+90,-141,-80
142385,5.769,-2.266,-0.229,1.764290,1.068927,-3.613251,99843.45,+80,-147,-80
142395,6.211,-2.717,-0.196,1.840914,1.155129,-3.837801,99845.58,+68,-153,-76
142405,6.761,-2.978,-0.036,1.906895,1.234413,-4.030425,99843.84,+56,-160,-73
142415,7.581,-3.500,0.046,1.984051,1.308376,-4.203893,99844.84,+56,-160,-73
142425,8.333,-4.220,0.239,2.060675,1.359459,-4.365654,99841.81,+42,-166,-68
142435,9.113,-5.077,0.433,2.113886,1.380743,-4.498149,99848.83,+27,-171,-63
142445,9.876,-6.099,0.814,2.145813,1.381275,-4.625855,99845.48,+10,-176,-58
142455,10.648,-7.118,1.298,2.173482,1.328597,-4.757819,99846.11,+10,-176,-58
142465,11.916,-8.085,1.759,2.174546,1.317422,-4.797195,99846.11,-7,-179,-52
142475,12.692,-9.148,2.396,2.108033,1.301459,-4.728553,99844.55,-24,-182,-46
142485,12.299,-10.045,2.695,1.903703,1.232817,-4.630113,99844.55,-42,-183,-40
142495,11.382,-10.717,2.378,1.623813,1.184395,-4.570516,99847.46,-42,-183,-40
142504,10.601,-10.598,1.936,1.359354,1.257826,-4.551360,99846.41,-61,-181,-36
142515,10.422,-9.789,1.970,1.151299,1.450450,-4.523159,99848.15,-80,-178,-30
142525,10.698,-8.930,2.116,1.012419,1.633495,-4.447599,99847.26,-98,-173,-24
142535,11.126,-8.362,1.942,0.938456,1.756945,-4.354480,99847.26,-98,-173,-24
142545,11.387,-8.216,1.672,0.871410,1.837826,-4.281048,99846.26,-116,-166,-17
142555,12.101,-8.510,1.282,0.779887,1.918174,-4.210810,99847.35,-134,-158,-11
142565,12.961,-8.855,0.961,0.634621,1.972449,-4.095342,99847.15,-150,-147,-3
142575,13.234,-9.119,0.991,0.448382,1.925092,-3.930920,99847.15,-150,-147,-3
142584,12.694,-9.288,1.193,0.267997,1.797385,-3.751067,99847.15,-163,-134,+3
142595,12.207,-8.900,1.073,0.138163,1.650523,-3.603673,99849.59,-174,-123,+9
142605,12.089,-7.964,1.035,0.040786,1.579220,-3.446700,99851.52,-184,-109,+15
142615,11.903,-7.291,1.064,-0.032645,1.523881,-3.215765,99851.46,-184,-109,+15
142620,11.541,-7.162,1.090,-0.066168,1.468009,-2.999728,99847.51,-190,-95,+20
142629,10.966,-7.453,0.866,-0.069360,1.416394,-2.752297,99847.51,-195,-95,+20
142640,10.614,-8.633,0.207,-0.071489,1.348817,-2.380884,99852.05,-195,-83,+25
142650,10.213,-9.872,-0.392,-0.109269,1.240798,-1.982334,99851.69,-198,-71,+29
142660,9.316,-10.558,-1.061,-0.206645,1.109367,-1.585380,99851.53,-198,-63,+32
142670,8.471,-10.735,-1.231,-0.275819,0.948670,-1.150115,99848.61,-198,-56,+36
142680,7.615,-11.083,-1.320,-0.314663,0.698046,-0.652060,99848.61,-198,-56,+36
142690,6.728,-11.597,-1.064,-0.317323,0.418157,-0.100262,99853.10,-197,-52,+38
142700,6.708,-12.311,-1.103,-0.286993,0.157423,0.478141,99853.04,-195,-50,+38
142710,8.392,-11.737,-0.084,-0.269434,-0.034669,0.938948,99852.21,-193,-51,+39
142720,9.143,-10.734,-0.580,-0.128424,-0.265604,1.383792,99848.87,-193,-51,+39
142730,16.149,-10.278,-1.231,-0.266241,-0.435347,2.007957,99848.87,-191,-54,+38
142740,20.600,-3.817,1.699,-0.246021,-0.757274,2.314984,99850.76,-188,-59,+37
142750,21.228,12.177,2.067,0.165832,-0.893494,1.779682,99850.24,-184,-64,+34
142759,19.321,14.974,-1.383,-0.082131,-0.936595,2.494837,99851.23,-184,-64,+34
142770,5.939,3.232,-5.574,-0.841452,-0.848797,3.464341,99849.09,-179,-71,+32
142780,5.940,-10.796,-4.190,-0.129489,-0.971182,3.612800,99849.09,-171,-79,+30
142790,11.903,-10.830,1.106,1.009758,-1.069622,3.663350,99851.38,-165,-87,+29
142800,9.262,-7.164,2.995,0.866089,-0.696613,3.409002,99849.46,-165,-87,+29
142810,6.940,-8.189,8.993,0.340364,-0.155990,3.150396,99849.66,-158,-95,+30
142820,8.413,-11.385,11.738,0.722419,-0.336375,3.147736,99847.52,-151,-102,+30
142830,8.739,-10.383,7.395,0.989538,-1.057384,2.888598,99847.52,-146,-108,+29
142840,7.177,-8.187,4.746,0.407942,-1.175512,2.421406,99848.69,-146,-108,+29
142850,7.510,-8.322,4.892,-0.492388,-1.039824,2.029773,99848.11,-140,-113,+26
142856,7.907,-8.287,3.379,-1.042057,-1.021200,1.753076,99848.84,-137,-116,+22
142865,7.658,-6.137,-0.419,-1.415598,-1.000980,1.499792,99848.84,-137,-116,+22
142875,7.949,-4.918,-3.364,-1.752956,-0.705659,1.371021,99848.64,-133,-119,+17
142885,9.504,-3.184,-1.541,-1.484240,-0.442797,1.233737,99848.64,-130,-121,+14
142896,9.960,-2.359,-0.176,-0.905305,-0.320944,1.213517,99850.73,-126,-123,+12
142905,9.751,-2.540,0.634,-0.360956,-0.328925,1.285884,99849.95,-126,-123,+12
142915,9.387,-2.677,0.493,0.143484,-0.376815,1.365168,99847.97,-123,-126,+11
142925,8.684,-3.024,1.394,0.405282,-0.365109,1.384324,99847.97,-121,-129,+11
142935,8.281,-4.848,2.170,0.402089,-0.329458,1.298654,99847.97,-117,-132,+11
142945,7.991,-5.304,2.852,0.220640,-0.237935,1.106031,99850.94,-117,-132,+11
142955,8.317,-5.785,3.039,-0.043287,-0.152797,0.892655,99849.94,-114,-134,+11
142965,7.828,-5.831,3.620,-0.377984,-0.077770,0.682471,99849.73,-113,-135,+10
142976,8.069,-4.749,3.359,-0.596681,-0.008595,0.508471,99848.95,-111,-136,+9
142985,8.691,-3.740,2.742,-0.656809,-0.034137,0.455260,99848.95,-111,-136,+9
142995,9.217,-3.414,2.163,-0.574332,-0.090540,0.497297,99851.65,-110,-137,+7
143005,9.336,-3.592,2.170,-0.471103,-0.144815,0.586692,99848.16,-108,-137,+6
143015,9.268,-3.656,1.974,-0.375856,-0.196962,0.676618,99847.71,-107,-139,+4
143026,8.963,-3.857,1.869,-0.319452,-0.227825,0.742600,99847.71,-107,-139,+4
143035,8.419,-4.496,2.264,-0.304021,-0.226228,0.742600,99853.88,-105,-140,+6
143045,7.706,-5.253,2.067,-0.349782,-0.143219,0.684600,99850.65,-102,-140,+3
143055,7.699,-5.289,1.831,-0.483874,0.008964,0.589352,99850.65,-102,-141,+2
143065,8.233,-4.847,1.841,-0.625415,0.153166,0.500490,99852.01,-102,-141,+2
143075,8.759,-4.311,2.160,-0.664259,0.181900,0.457921,99848.88,-100,-143,+1
143085,9.005,-4.241,2.463,-0.616369,0.146249,0.476013,99848.88,-99,-143,-1
143090,8.910,-4.253,2.776,-0.589764,0.081331,0.518582,99849.89,-99,-143,-1
143100,8.551,-4.238,2.675,-0.554112,0.035038,0.562747,99849.31,-98,-143,-1
143110,8.334,-4.447,2.285,-0.529103,-0.009127,0.619682,99849.73,-96,-144,-2
143120,8.424,-4.642,1.831,-0.520589,-0.028816,0.644159,99848.53,-93,-144,-4
143130,8.604,-4.837,1.759,-0.519525,-0.022962,0.645756,99848.53,-93,-145,-4
143140,8.738,-4.932,2.008,-0.532828,-0.013384,0.675022,99852.16,-91,-145,-4
143151,8.679,-5.065,1.634,-0.567415,0.010029,0.690985,99851.27,-89,-147,-6
143160,8.692,-5.003,2.075,-0.606259,-0.003274,0.718123,99847.95,-88,-147,-7
143170,8.822,-4.815,2.651,-0.628608,-0.048504,0.773994,99848.73,-88,-147,-7
143180,8.730,-4.965,2.226,-0.624883,-0.114485,0.846893,99848.73,-86,-148,-9
143191,8.660,-5.143,2.100,-0.589231,-0.169825,0.882545,99851.28,-82,-150,-11
143200,8.764,-5.388,2.243,-0.571672,-0.181531,0.858068,99847.53,-80,-151,-13
143210,9.038,-5.436,1.523,-0.589764,-0.176210,0.843168,99848.63,-80,-151,-13
143220,9.301,-5.335,1.143,-0.637121,-0.180999,0.821352,99846.13,-77,-151,-14
143230,9.390,-5.301,0.821,-0.663195,-0.185788,0.842636,99846.13,-74,-153,-17
143240,9.351,-4.933,0.421,-0.642975,-0.225164,0.900636,99850.52,-71,-153,-17
143250,9.105,-4.546,0.744,-0.604131,-0.295935,0.958104,99849.53,-71,-153,-17
143260,9.243,-4.495,1.438,-0.537085,-0.378412,1.028875,99849.33,-68,-153,-20
143270,9.186,-4.829,1.837,-0.445030,-0.487494,1.134765,99845.94,-64,-154,-22
143280,9.109,-5.018,2.062,-0.346057,-0.597109,1.237462,99845.94,-59,-155,-23
143290,9.157,-5.642,2.128,-0.315195,-0.672668,1.300251,99850.28,-59,-155,-23
143300,9.485,-5.773,2.274,-0.345525,-0.705659,1.377939,99851.64,-54,-156,-25
143310,9.782,-5.800,2.025,-0.413635,-0.729072,1.453498,99847.94,-49,-157,-28
143321,10.042,-5.667,1.879,-0.491855,-0.756210,1.546618,99850.22,-43,-158,-30
143330,10.525,-5.826,1.826,-0.537085,-0.793457,1.639737,99850.22,-43,-158,-30
143340,10.973,-6.042,1.821,-0.565287,-0.833898,1.734985,99849.84,-37,-158,-32
143350,11.263,-6.168,1.847,-0.615837,-0.850393,1.813737,99852.96,-29,-158,-34
143361,11.621,-6.292,1.584,-0.720131,-0.847732,1.891957,99850.73,-22,-158,-37
143370,11.896,-6.080,0.979,-0.855286,-0.861567,1.960067,99850.57,-22,-158,-37
143380,12.401,-5.642,0.839,-1.000552,-0.851989,2.008489,99850.57,-14,-157,-41
143390,13.232,-5.145,1.203,-1.130387,-0.853586,2.042544,99850.95,-6,-156,-45
143400,14.638,-4.671,1.850,-1.221910,-0.843476,2.115975,99849.55,+2,-154,-49
143411,15.962,-4.208,3.432,-1.288424,-0.805696,2.195259,99848.88,+2,-154,-49
143420,17.728,-3.886,4.736,-1.328864,-0.691292,2.278269,99849.03,+11,-153,-53
143430,19.721,-3.412,5.986,-1.431029,-0.626375,2.436837,99849.03,+21,-149,-57
143440,20.052,-3.497,6.309,-1.599176,-0.751421,2.768342,99849.83,+32,-143,-61
143446,18.870,-3.985,5.237,-1.661433,-1.014815,3.145075,99847.53,+32,-143,-61
143455,16.675,-5.745,4.420,-1.494882,-1.346851,3.613332,99847.53,+47,-140,-65
143465,14.698,-8.533,2.725,-1.012791,-1.587365,3.954946,99845.59,+61,-134,-68
143475,13.651,-10.081,4.529,-0.753653,-1.394741,3.617057,99847.22,+61,-134,-68
143485,12.298,-9.945,6.649,-0.855286,-1.269163,3.223828,99849.94,+75,-128,-69
143496,10.603,-7.899,5.510,-1.039928,-1.331420,2.953516,99845.97,+89,-123,-72
143506,9.418,-5.183,4.853,-1.062277,-1.138797,2.633718,99846.95,+100,-117,-75
143515,8.265,-2.996,5.066,-0.918075,-0.921696,2.227186,99847.64,+100,-117,-75
143525,23.223,0.769,4.660,-1.134112,-0.912118,1.612599,99847.64,+110,-110,-75
143536,-3.643,-4.215,0.976,-0.998956,-0.617329,0.710673,99847.64,+116,-104,-78
143545,-7.035,-7.531,1.188,-0.344993,-0.755677,1.119866,99849.42,+124,-100,-79
143555,2.944,-5.389,4.329,0.080163,-0.638081,1.079425,99848.91,+124,-100,-79
143565,9.413,-2.432,2.117,-0.192278,-0.352338,-0.413143,99849.27,+130,-98,-79
143576,7.147,1.175,2.313,-0.906369,-0.228889,-1.211839,99848.06,+133,-97,-80
143586,5.437,2.271,1.070,-1.056424,-0.078834,-0.829785,99848.06,+135,-95,-84
143595,3.825,-0.376,0.604,-0.725984,-0.014981,-0.818610,99845.88,+135,-95,-84
143605,2.034,-1.687,0.102,-0.232186,-0.006999,-1.186298,99847.66,+138,-93,-85
143616,1.523,-1.974,-0.185,0.192970,0.082395,-1.554518,99848.59,+137,-95,-85
143626,2.133,-1.773,-0.174,0.400493,0.250010,-1.893472,99848.59,+138,-98,-85
143636,2.872,-1.196,-0.500,0.465410,0.400065,-2.238279,99845.79,+138,-98,-85
143645,3.483,-0.693,-0.594,0.568107,0.540542,-2.559673,99845.79,+135,-102,-85
143655,4.006,-0.444,-0.751,0.777226,0.672505,-2.842224,99847.24,+132,-107,-85
143666,4.403,-0.859,-0.698,1.044878,0.773606,-3.046554,99847.82,+128,-112,-85
143675,4.616,-1.513,-0.707,1.343391,0.847569,-3.243434,99846.93,+128,-112,-85
143685,4.798,-2.411,-0.549,1.561556,0.921000,-3.460003,99846.93,+121,-120,-84
143695,5.044,-3.173,-0.399,1.650951,1.006138,-3.692003,99846.72,+114,-128,-82
143706,5.452,-3.602,-0.209,1.672235,1.110431,-3.908040,99844.75,+105,-137,-80
143716,6.077,-3.859,-0.124,1.696180,1.200358,-4.099067,99845.84,+105,-137,-80
143725,6.708,-4.157,0.078,1.728106,1.263147,-4.259764,99843.67,+94,-145,-79
143735,7.361,-4.496,0.243,1.778657,1.300395,-4.389067,99844.72,+80,-154,-75
143746,8.114,-4.834,0.513,1.819097,1.327532,-4.510920,99846.91,+67,-162,-74
143756,9.075,-5.232,0.869,1.849960,1.341367,-4.618406,99846.91,+67,-162,-74
143765,9.907,-5.808,1.238,1.866987,1.331789,-4.706204,99845.72,+51,-169,-69
143775,10.249,-6.538,1.661,1.853684,1.329129,-4.771654,99843.00,+35,-176,-65
143785,10.592,-7.294,2.097,1.813776,1.342431,-4.840296,99843.00,+16,-180,-60
143796,11.160,-7.998,2.237,1.740345,1.372230,-4.898296,99846.57,+16,-180,-60
143805,11.715,-8.787,2.463,1.613171,1.430762,-4.888186,99846.10,-1,-183,-56
143815,11.534,-9.510,2.694,1.449281,1.493551,-4.800920,99845.23,-22,-185,-51
143825,11.076,-9.693,2.493,1.318382,1.576560,-4.720571,99844.96,-42,-184,-47
143836,11.188,-9.177,2.594,1.233244,1.711715,-4.681195,99844.96,-61,-184,-41
143846,11.721,-8.781,2.698,1.152364,1.849000,-4.630644,99847.65,-61,-181,-41
143855,12.224,-8.775,2.721,1.062969,1.949569,-4.540186,99847.23,-80,-175,-35
143865,12.723,-8.827,2.462,0.974639,2.007569,-4.428975,99845.77,-98,-170,-30
143876,12.983,-8.813,2.087,0.844804,2.036303,-4.316168,99845.77,-114,-161,-23
143886,13.148,-8.833,1.786,0.660694,2.026192,-4.186865,99845.77,-114,-161,-23
143895,12.986,-8.690,1.889,0.458493,1.997458,-4.020847,99847.81,-129,-152,-17
143905,12.705,-8.523,1.990,0.299924,1.934669,-3.793104,99849.84,-142,-143,-12
143916,12.176,-8.792,1.812,0.205563,1.826297,-3.472951,99850.11,-152,-132,-7
143926,11.688,-9.496,1.053,0.154126,1.717569,-3.152444,99850.11,-152,-132,-7
143935,10.809,-10.581,0.175,0.091337,1.640413,-2.782627,99850.11,-160,-123,-2
143945,9.876,-11.369,-0.637,-0.003911,1.552615,-2.388334,99853.09,-165,-115,+2
143955,9.069,-11.824,-1.310,-0.130553,1.386596,-1.908371,99850.59,-170,-109,+5
143966,8.503,-12.282,-1.874,-0.214094,1.111496,-1.314537,99850.73,-170,-109,+5
143976,7.814,-13.036,-1.848,-0.196002,0.782652,-0.652060,99850.73,-172,-105,+8
143985,7.142,-14.257,-1.708,-0.131617,0.414432,0.041279,99849.20,-172,-104,+9
143995,6.615,-15.381,-1.782,-0.082663,0.052065,0.719187,99849.20,-171,-106,+9
144006,8.296,-14.776,-1.070,-0.076278,-0.218247,1.321003,99852.90,-171,-106,+9
144016,11.647,-12.612,-0.823,-0.001782,-0.393843,1.790856,99848.41,-168,-110,+9
144025,19.597,-9.404,-1.611,-0.364681,-0.519953,2.222397,99851.71,-163,-115,+7
144035,25.498,7.592,2.683,-0.156094,-0.816870,1.488618,99851.71,-161,-119,+6
144046,24.045,23.145,-3.083,-0.134810,-1.083989,1.630159,99850.89,-161,-119,+6
144056,13.686,9.601,-3.800,-1.170828,-0.865292,3.287681,99850.22,-154,-123,+2
144066,1.165,-5.175,-7.233,-1.008534,-0.842411,3.895350,99850.42,-146,-132,-1
144075,9.235,-10.522,-1.496,0.715502,-1.219145,3.844800,99852.68,-135,-141,-2
144086,10.671,-7.870,0.915,1.425868,-1.090907,3.943772,99852.16,-135,-141,-2
144096,7.798,-6.896,5.402,0.901740,-0.530063,3.716561,99851.12,-125,-151,+0
144106,7.797,-9.235,14.961,0.916107,-0.080430,3.404745,99844.60,-115,-159,+1
144115,9.581,-11.802,16.535,1.572730,-0.744503,3.366965,99844.60,-106,-166,+3
144125,7.665,-9.457,6.465,1.434914,-1.797548,3.009919,99845.38,-106,-166,+3
144136,5.182,-10.767,4.814,0.235006,-1.638448,2.465571,99845.38,-98,-171,+3
144146,7.183,-11.503,3.760,-0.964901,-1.228723,2.065425,99851.30,-91,-175,+0
144151,7.895,-7.351,-1.125,-1.614607,-1.105273,1.637076,99850.19,-91,-175,+0
144160,7.592,-3.615,-5.118,-1.945047,-0.787072,1.422636,99849.88,-86,-176,-6
144171,9.728,-3.188,-3.109,-1.808295,-0.450246,1.458287,99850.88,-81,-178,-12
144181,10.420,-1.708,-1.625,-0.923396,-0.492815,1.575884,99850.88,-75,-180,-14
144191,10.172,-3.124,0.585,-0.169929,-0.504522,1.724342,99853.49,-75,-180,-14
144200,8.724,-3.837,1.424,0.086548,-0.546558,1.748287,99846.65,-70,-182,-15
144210,7.844,-4.408,0.044,0.148273,-0.529531,1.653040,99849.15,-65,-184,-16
144221,7.811,-4.983,0.493,0.136034,-0.365641,1.474783,99849.15,-60,-187,-15
144231,8.192,-6.019,1.921,0.051961,-0.183127,1.242251,99849.15,-60,-187,-15
144240,7.992,-6.230,3.078,-0.183764,-0.026155,0.984178,99850.40,-57,-188,-16
144250,7.792,-6.046,3.178,-0.474296,0.090909,0.739939,99852.13,-54,-189,-17
144261,7.894,-5.038,2.949,-0.663195,0.156359,0.573921,99849.99,-53,-189,-19
144271,8.557,-4.132,2.801,-0.679690,0.135606,0.493040,99848.27,-53,-189,-19
144280,8.825,-4.262,2.604,-0.617965,0.040359,0.467499,99848.27,-52,-188,-20
144290,8.842,-4.404,2.500,-0.536553,-0.033072,0.489848,99849.80,-49,-190,-22
144301,8.860,-4.324,2.133,-0.448755,-0.092137,0.513793,99851.83,-48,-190,-23
144311,8.854,-4.008,1.963,-0.354571,-0.149604,0.528692,99850.58,-48,-190,-23
144321,8.641,-4.318,1.818,-0.282736,-0.184724,0.522306,99846.97,-47,-190,-24
144330,8.260,-4.846,1.678,-0.238039,-0.188981,0.490912,99846.97,-44,-190,-25
144340,8.032,-5.131,1.436,-0.267305,-0.108632,0.425462,99851.01,-44,-190,-26
144351,8.218,-5.059,1.447,-0.337544,0.006836,0.352031,99849.24,-44,-190,-26
144361,8.540,-4.696,1.666,-0.404057,0.081331,0.316380,99851.59,-42,-191,-26
144370,8.713,-4.495,2.007,-0.422149,0.101019,0.311059,99849.71,-41,-190,-28
144380,8.582,-4.573,2.263,-0.405122,0.092506,0.317444,99849.71,-40,-191,-29
144391,8.475,-4.524,2.323,-0.395011,0.087184,0.340325,99849.25,-40,-191,-29
144401,8.387,-4.591,2.112,-0.397672,0.087184,0.357884,99850.92,-40,-190,-30
144410,8.277,-4.774,1.817,-0.406186,0.094102,0.381297,99847.27,-38,-191,-31
144420,8.429,-4.871,1.745,-0.433323,0.115918,0.391939,99849.25,-36,-190,-33
144431,8.544,-4.787,1.892,-0.457800,0.119111,0.398857,99849.25,-36,-190,-33
144441,8.540,-4.736,1.739,-0.474296,0.121239,0.416949,99851.76,-36,-190,-33
144451,8.518,-4.761,1.853,-0.464186,0.101551,0.434508,99848.57,-34,-190,-34
144460,8.412,-4.892,2.024,-0.450351,0.071221,0.461646,99847.32,-33,-190,-36
144471,8.123,-5.073,2.105,-0.456204,0.028652,0.512196,99850.66,-33,-190,-36
144481,8.143,-4.918,2.158,-0.454076,0.012157,0.521774,99850.66,-31,-190,-36
144491,8.269,-5.044,1.997,-0.441305,-0.000614,0.480270,99853.24,-29,-190,-38
144500,8.520,-5.125,2.084,-0.446094,-0.017641,0.485059,99850.16,-28,-190,-40
144510,8.701,-5.163,1.887,-0.512608,-0.024559,0.549444,99851.26,-28,-190,-40
144521,8.916,-4.545,1.616,-0.570076,-0.047971,0.627664,99848.49,-26,-190,-41
144531,8.746,-4.247,1.115,-0.557305,-0.100118,0.680343,99848.49,-22,-190,-43
144541,8.830,-4.162,1.059,-0.504094,-0.194834,0.804325,99848.97,-21,-191,-45
144550,8.860,-4.416,0.952,-0.426938,-0.283696,0.892123,99849.69,-17,-191,-45
144561,9.030,-4.812,1.436,-0.363085,-0.378412,0.999609,99851.05,-17,-191,-46
144571,9.120,-5.097,1.866,-0.355635,-0.448650,1.092728,99849.17,-13,-191,-47
144581,9.220,-5.390,2.306,-0.372131,-0.482705,1.175205,99849.17,-8,-192,-50
144590,9.351,-5.497,2.312,-0.406718,-0.519421,1.262471,99850.48,-3,-191,-50
144601,9.697,-5.615,2.061,-0.465782,-0.556136,1.334838,99851.15,-3,-191,-50
144611,9.936,-5.761,1.880,-0.504626,-0.598705,1.407205,99847.80,+1,-192,-52
144621,10.149,-5.673,1.726,-0.523250,-0.642338,1.477975,99848.02,+7,-191,-53
144630,10.129,-6.010,1.456,-0.551984,-0.684907,1.536507,99848.02,+12,-191,-55
144641,10.138,-6.069,1.678,-0.574865,-0.717898,1.596636,99848.26,+12,-191,-55
144651,10.131,-6.332,1.598,-0.623819,-0.734393,1.644526,99848.88,+19,-191,-57
144661,10.347,-6.403,1.742,-0.688736,-0.753017,1.682306,99847.52,+26,-190,-59
144671,11.015,-6.356,2.236,-0.743543,-0.756210,1.704122,99848.30,+33,-189,-62
144680,12.521,-6.495,2.552,-0.812718,-0.780687,1.734985,99848.30,+33,-189,-62
144691,14.489,-6.660,3.685,-0.969690,-0.803567,1.787131,99850.75,+39,-188,-65
144701,15.731,-6.230,4.119,-1.137837,-0.806760,1.932397,99848.09,+47,-186,-68
144711,16.851,-5.947,2.722,-1.425708,-0.807292,2.158012,99848.83,+56,-184,-71
144720,17.159,-4.957,2.747,-1.696552,-0.766320,2.310727,99849.03,+56,-184,-71
144731,17.465,-3.795,3.415,-1.893965,-0.648191,2.425663,99849.03,+65,-179,-76
144741,18.008,-2.881,3.871,-2.082864,-0.524742,2.577846,99850.65,+73,-175,-82
144751,18.250,-2.886,4.467,-2.239304,-0.430026,2.769938,99847.52,+84,-169,-88
144760,16.787,-4.609,4.617,-2.284533,-0.623182,3.084947,99849.76,+84,-169,-88
144771,14.088,-7.179,4.058,-1.896625,-1.110595,3.493607,99847.57,+95,-162,-93
144781,12.012,-8.992,2.519,-1.273525,-1.336209,3.478708,99847.57,+108,-156,-96
144791,11.054,-8.881,3.523,-0.860075,-1.164338,3.014176,99848.13,+119,-152,-97
144801,10.483,-7.792,4.206,-0.908497,-0.990870,2.661387,99849.09,+119,-152,-97
144811,8.820,-5.541,3.961,-1.066002,-0.903604,2.462379,99845.32,+128,-146,-98
144821,6.850,-4.309,3.612,-1.094204,-0.689164,2.183021,99848.51,+137,-141,-99
144831,9.024,-2.693,2.820,-0.893066,-0.557200,1.794581,99848.51,+142,-138,-101
144841,8.095,-0.846,2.773,-1.049506,-0.458228,0.980453,99851.09,+142,-138,-101
144850,-2.796,-3.273,-2.094,-0.693525,-0.418852,1.047499,99848.16,+144,-134,-102
144861,1.499,-3.771,2.167,-0.243892,-0.290614,1.218306,99844.88,+150,-131,-103
144871,6.043,-0.436,2.285,0.140823,-0.242192,0.142912,99848.49,+150,-131,-103
144881,5.260,3.143,1.640,-0.107140,-0.053825,-1.092647,99848.49,+150,-131,-103
144890,4.486,4.427,1.255,-0.324773,0.181368,-1.174592,99849.30,+146,-134,-103
144901,3.787,1.742,0.928,-0.020938,0.222872,-0.990482,99848.68,+144,-134,-103
144911,2.240,-0.048,0.863,0.604291,0.151570,-1.236316,99848.68,+141,-136,-103
144921,1.591,-0.924,0.403,1.116180,0.176047,-1.624757,99844.51,+141,-136,-103
144930,1.731,-1.780,0.398,1.267299,0.319716,-1.962646,99844.51,+135,-141,-100
144941,2.196,-1.963,0.453,1.137997,0.526707,-2.302132,99846.33,+128,-145,-96
144951,2.855,-1.803,0.391,0.896419,0.766156,-2.673013,99848.73,+120,-152,-96
144961,3.459,-1.684,0.402,0.710713,0.994432,-3.020480,99843.88,+120,-152,-96
144971,4.319,-1.673,0.292,0.654841,1.188652,-3.297178,99845.86,+110,-154,-95
144980,4.997,-1.801,0.407,0.677722,1.338706,-3.532370,99845.86,+97,-159,-94
144991,5.539,-2.188,0.269,0.763391,1.459496,-3.724994,99844.31,+82,-162,-93
145001,6.032,-2.990,0.257,0.860768,1.564321,-3.904315,99848.28,+82,-162,-93
145011,6.623,-3.787,0.184,0.965061,1.663826,-4.064480,99844.42,+69,-166,-92
145020,7.201,-4.367,0.477,1.053923,1.773440,-4.205489,99845.88,+54,-169,-89
145031,8.200,-4.906,0.744,1.169391,1.863899,-4.329471,99845.88,+36,-171,-85
145041,9.251,-5.539,1.037,1.288052,1.918174,-4.446002,99848.73,+19,-173,-82
145051,10.282,-6.085,1.097,1.373189,1.922963,-4.524755,99845.43,+19,-173,-82
145061,11.067,-6.360,1.138,1.388088,1.953293,-4.524755,99845.12,+1,-173,-78
145071,11.459,-6.537,1.380,1.352969,1.956486,-4.475801,99844.55,-14,-173,-73
145081,11.873,-7.220,1.582,1.298694,1.951697,-4.449727,99844.55,-29,-170,-68
145091,12.107,-8.466,1.734,1.224731,1.951165,-4.408223,99847.28,-29,-170,-68
145101,11.861,-9.500,1.830,1.140125,1.967660,-4.335324,99846.86,-45,-166,-63
145111,11.916,-9.871,1.703,1.064034,1.997991,-4.303929,99845.45,-60,-162,-58
145121,12.048,-9.410,1.503,0.967722,2.038963,-4.312443,99847.64,-74,-157,-53
145131,12.189,-8.488,1.176,0.855979,2.065568,-4.299672,99847.64,-74,-157,-53
145141,12.499,-7.846,0.993,0.757538,2.069293,-4.231562,99850.38,-88,-150,-48
145150,12.867,-7.671,0.936,0.677190,2.040027,-4.131526,99849.09,-101,-143,-44
145161,13.228,-7.870,1.041,0.587795,1.997991,-4.017654,99845.63,-112,-136,-39
145171,13.463,-7.975,1.177,0.492548,1.963403,-3.864407,99848.30,-112,-136,-39
145181,13.702,-8.034,1.341,0.398364,1.917642,-3.714352,99848.30,-123,-128,-35
145191,13.484,-7.898,1.335,0.327594,1.839954,-3.553122,99849.67,-133,-120,-31
145201,12.985,-7.963,0.894,0.294603,1.751092,-3.355177,99849.83,-140,-112,-27
145211,12.123,-8.317,0.285,0.281832,1.654957,-3.067838,99850.39,-140,-112,-27
145221,11.680,-8.839,-0.324,0.322273,1.581881,-2.766664,99849.20,-148,-105,-23
145231,11.239,-9.251,-0.688,0.396236,1.460560,-2.425050,99849.20,-154,-98,-20
145241,10.569,-9.264,-1.159,0.478713,1.270597,-2.085032,99850.91,-160,-95,-17
145251,9.603,-9.100,-1.560,0.560126,1.026358,-1.722133,99852.58,-160,-95,-17
145261,8.512,-9.277,-1.664,0.636217,0.741679,-1.285270,99850.80,-162,-90,-14
145271,7.609,-9.932,-1.617,0.710181,0.435184,-0.776574,99851.95,-163,-87,-11
145281,6.720,-10.717,-1.500,0.713905,0.157955,-0.240739,99851.95,-165,-88,-10
145291,6.283,-11.049,-1.199,0.617061,-0.060210,0.296692,99849.46,-165,-88,-10
145301,6.356,-10.763,-0.919,0.449447,-0.227825,0.801664,99851.29,-163,-89,-10
145311,7.170,-9.882,-0.323,0.262144,-0.365641,1.266196,99852.07,-161,-93,-11
145321,13.392,-7.288,1.237,0.105172,-0.283696,1.445517,99851.71,-159,-96,-11
145331,16.824,-6.711,-0.545,-0.232186,-0.375751,1.499792,99851.71,-159,-96,-11
145341,13.363,2.156,2.908,-0.173654,-0.660430,1.800434,99850.56,-155,-100,-12
