120118,8.645,-2.957,3.523,0.075874,-0.111958,-0.018177,100266.11,-121,-10,-249
120127,8.858,-3.435,3.331,0.072681,-0.102912,-0.033608,100266.11,-122,-10,-249
120137,8.858,-3.340,3.257,0.029048,-0.085353,-0.065535,100270.63,-122,-10,-249
120147,8.892,-3.030,3.484,0.001911,-0.088546,-0.096929,100266.38,-122,-10,-249
120158,8.824,-2.555,3.750,0.027452,-0.138564,-0.116617,100266.82,-122,-9,-250
120168,8.677,-2.492,3.704,0.081195,-0.161445,-0.124067,100266.82,-122,-9,-250
120177,8.940,-2.603,3.943,0.096626,-0.203481,-0.131516,100267.72,-121,-9,-250
120187,8.649,-2.658,3.834,0.057250,-0.239665,-0.150672,100267.72,-121,-9,-250
120198,8.517,-2.846,3.450,-0.023098,-0.194967,-0.163975,100262.16,-120,-8,-252
120208,8.816,-2.851,3.395,-0.117282,-0.149206,-0.168232,100268.39,-119,-8,-251
120217,9.128,-2.759,3.225,-0.171557,-0.098123,-0.178874,100264.42,-120,-7,-252
120227,9.082,-2.851,3.256,-0.191245,-0.051298,-0.185260,100264.42,-120,-7,-252
120238,8.781,-2.651,3.399,-0.201887,-0.021500,-0.187920,100266.80,-120,-6,-252
120248,8.995,-2.428,3.555,-0.195502,-0.040656,-0.193241,100266.44,-119,-5,-252
120258,8.897,-2.094,3.675,-0.171025,-0.086417,-0.189516,100266.70,-120,-5,-252
120267,8.678,-2.094,3.774,-0.091208,-0.106637,-0.179938,100265.34,-120,-5,-252
120278,8.953,-2.003,3.571,-0.036401,-0.148142,-0.154929,100269.10,-119,-3,-254
120288,8.939,-2.033,3.291,0.002443,-0.164637,-0.142159,100264.29,-120,-3,-253
120298,8.937,-2.345,3.435,0.065232,-0.163041,-0.124599,100267.12,-119,-3,-254
120307,9.167,-2.336,3.413,0.123232,-0.171555,-0.103315,100267.12,-119,-3,-254
120317,9.122,-2.228,3.395,0.157287,-0.185389,-0.088416,100266.80,-118,-3,-254
120328,8.706,-2.463,3.477,0.170057,-0.183261,-0.074581,100266.80,-118,-2,-255
120338,9.274,-2.443,3.647,0.100883,-0.221573,-0.063406,100268.63,-118,-3,-255
120343,9.117,-2.049,3.787,0.060443,-0.252435,-0.055425,100265.48,-118,-3,-255
120352,8.880,-2.306,3.856,0.105672,-0.261481,-0.054893,100263.17,-117,-3,-255
120363,8.872,-2.927,3.262,0.166865,-0.273720,-0.046379,100263.08,-116,-4,-257
120373,8.762,-3.044,3.093,0.088645,-0.233811,-0.052764,100263.08,-116,-4,-257
120383,8.810,-2.741,2.641,0.031177,-0.194435,-0.065535,100268.27,-116,-3,-257
120392,9.180,-2.449,2.615,0.012021,-0.162509,-0.063406,100267.05,-115,-3,-257
120402,9.032,-2.092,2.891,0.055122,-0.145481,-0.051700,100266.69,-116,-2,-257
120413,8.890,-2.176,2.873,0.122700,-0.140692,-0.040526,100266.00,-116,-2,-257
120423,8.922,-2.775,2.614,0.143984,-0.116215,-0.031480,100266.00,-115,-3,-257
120432,8.989,-3.125,2.791,0.062571,-0.056087,-0.035205,100270.89,-115,-3,-259
120442,9.114,-2.343,3.439,-0.085355,-0.026821,-0.053828,100269.06,-114,-3,-258
120453,9.085,-2.178,3.505,-0.140695,-0.020435,-0.060214,100268.22,-114,-3,-258
120463,9.034,-2.567,3.499,-0.160383,-0.022032,-0.054361,100263.45,-115,-1,-259
120472,8.940,-2.409,3.308,-0.175282,-0.028949,-0.062874,100263.45,-115,-2,-259
120482,9.052,-2.674,3.006,-0.171025,-0.028417,-0.079370,100269.66,-115,+0,-259
120493,9.126,-2.518,2.941,-0.196034,-0.026289,-0.090012,100268.20,-115,+0,-259
120503,8.942,-2.170,2.931,-0.175814,-0.023628,-0.096397,100266.37,-115,-1,-259
120513,9.176,-2.109,2.915,-0.101319,-0.032674,-0.087351,100264.10,-115,+0,-259
120522,8.949,-2.446,3.006,-0.035337,-0.031078,-0.077773,100264.10,-114,+0,-259
120532,8.777,-2.505,2.971,-0.040126,-0.022032,-0.077241,100270.81,-114,+0,-259
120543,9.180,-2.588,3.183,-0.065667,-0.020435,-0.085223,100268.08,-115,+0,-259
120553,9.144,-2.552,3.216,-0.007135,-0.036399,-0.097994,100269.70,-115,+0,-259
120562,9.058,-2.385,3.214,0.015213,-0.041720,-0.097994,100266.56,-114,+1,-259
120572,9.015,-2.117,3.099,0.017874,-0.051298,-0.100654,100266.56,-114,+1,-259
120579,9.070,-2.058,3.107,0.021067,-0.054490,-0.095865,100267.25,-115,+1,-259
120588,9.126,-2.153,3.107,0.039158,-0.055555,-0.092140,100267.25,-114,+1,-260
120598,9.032,-2.201,3.133,0.054590,-0.055555,-0.081498,100266.20,-114,+1,-260
120608,9.017,-2.291,3.057,0.052461,-0.050766,-0.075113,100265.42,-114,+1,-259
120617,9.022,-2.526,2.990,0.014149,-0.027885,-0.070324,100264.17,-115,+1,-259
120628,8.947,-2.513,3.044,-0.064603,-0.002876,-0.070856,100265.86,-115,+1,-259
120638,9.044,-2.249,3.100,-0.134309,0.010427,-0.075113,100269.63,-115,+1,-259
120648,9.032,-2.471,3.186,-0.145484,0.022133,-0.092672,100263.13,-113,+2,-259
120657,9.036,-2.540,3.233,-0.153465,0.032243,-0.104379,100263.13,-114,+3,-260
120668,9.022,-2.748,3.267,-0.158254,0.045014,-0.125663,100264.33,-113,+3,-259
120678,9.146,-2.845,3.009,-0.160383,0.055656,-0.151737,100264.33,-113,+3,-259
120688,8.922,-2.682,2.559,-0.213062,0.089179,-0.175149,100269.88,-115,+3,-259
120697,8.354,-2.763,2.070,-0.257759,0.146115,-0.183663,100267.21,-115,+5,-259
120708,8.828,-3.028,1.783,-0.308841,0.239234,-0.182067,100266.52,-115,+6,-259
120718,9.668,-2.898,2.198,-0.389190,0.341399,-0.188984,100262.38,-115,+6,-259
120728,9.814,-0.965,3.631,-0.448786,0.320115,-0.197498,100262.38,-116,+8,-258
120738,9.202,0.651,4.459,-0.243924,0.170060,-0.146416,100268.19,-116,+10,-257
120748,8.776,-0.625,3.869,0.057782,0.068427,-0.047443,100267.11,-116,+9,-257
120758,9.137,-2.546,3.729,0.109929,0.063106,0.023327,100263.81,-116,+9,-257
120768,9.284,-2.452,3.700,-0.069392,0.076409,0.033970,100263.81,-116,+9,-257
120777,9.018,-2.175,3.822,-0.291282,0.103014,0.051529,100263.81,-116,+10,-257
120787,9.017,-1.996,3.863,-0.448254,0.105142,0.095162,100267.32,-116,+10,-255
120798,9.085,-1.683,3.419,-0.537649,0.112060,0.147841,100268.16,-116,+10,-255
120808,9.153,-1.474,3.298,-0.587135,0.158353,0.221804,100268.32,-117,+11,-254
120813,9.479,-1.067,3.514,-0.643006,0.190280,0.288318,100263.98,-118,+12,-255
120822,9.709,-0.671,3.602,-0.658970,0.188152,0.371859,100263.98,-118,+12,-255
120833,9.663,-0.253,3.784,-0.583942,0.150372,0.518190,100268.80,-118,+11,-255
120843,10.324,0.159,4.264,-0.496676,0.051399,0.710813,100267.40,-118,+11,-254
120853,10.707,0.193,4.471,-0.461557,-0.121004,0.934832,100266.82,-118,+9,-255
120863,10.062,0.756,3.959,-0.424841,-0.198692,1.162575,100265.62,-118,+9,-255
120872,10.318,-0.805,4.002,-0.438676,-0.145481,1.346152,100265.62,-118,+7,-255
120883,10.674,-1.687,4.465,-0.594584,-0.076307,1.462684,100272.15,-118,+3,-255
120893,10.299,-2.728,4.333,-0.687703,-0.033738,1.532923,100265.80,-118,+0,-256
120903,10.621,-4.900,3.475,-0.777098,0.039161,1.581345,100266.12,-118,+0,-256
120912,12.096,-6.379,3.049,-1.058052,0.160482,1.574427,100263.91,-117,-1,-255
120923,14.721,-4.959,3.851,-1.475226,0.195069,1.515363,100263.91,-117,-3,-254
120933,17.881,-1.942,4.391,-1.668914,-0.035867,1.529198,100267.58,-118,-5,-255
120943,19.235,-0.384,4.344,-1.508217,-0.209867,1.664354,100266.27,-118,-5,-255
120952,18.555,-2.877,4.601,-1.104878,-0.315756,1.712776,100268.83,-116,-5,-257
120963,18.020,-4.059,3.288,-0.914382,-0.478582,1.719161,100265.48,-115,-9,-258
120973,16.429,-3.291,2.809,-0.740382,-0.594582,1.664886,100265.48,-114,-12,-260
120983,13.261,-1.673,2.418,-0.390254,-0.803169,1.506317,100267.58,-114,-12,-260
120993,9.082,-2.741,3.159,-0.185392,-0.814343,1.377015,100265.75,-111,-15,-261
121003,5.223,-8.396,4.881,0.131746,-0.647793,1.393510,100265.80,-109,-21,-263
121013,4.515,-15.908,6.895,0.259452,-0.364178,1.563253,100266.69,-108,-26,-265
121023,9.376,-19.574,4.476,-0.331722,-0.251903,1.657969,100266.69,-108,-26,-265
121033,13.581,-17.387,1.937,-1.361887,-0.282766,1.443528,100268.84,-106,-28,-265
121042,11.949,-11.263,1.643,-1.643373,-0.344490,1.199290,100269.41,-106,-29,-266
121053,8.147,-9.907,2.492,-1.233116,-0.445591,1.417455,100266.37,-103,-29,-269
121063,7.437,-10.971,2.189,-0.761135,-0.556802,1.767051,100263.96,-103,-29,-269
121073,7.677,-9.896,1.597,-0.478584,-0.581279,1.895822,100263.96,-101,-32,-270
121083,6.735,-7.429,1.066,-0.155062,-0.575958,1.925088,100268.60,-99,-37,-272
121093,5.283,-5.747,0.784,0.265837,-0.551481,1.971913,100265.09,-96,-44,-273
121103,4.230,-4.965,0.542,0.642571,-0.500931,2.016611,100267.34,-94,-44,-273
121113,3.705,-3.755,0.227,0.903837,-0.433353,1.998519,100263.41,-94,-51,-274
121122,3.134,-2.322,-0.144,1.085286,-0.392380,1.925620,100263.41,-92,-58,-274
121133,2.283,-1.635,-0.505,1.222038,-0.387591,1.843675,100266.76,-89,-66,-273
121143,1.218,-1.860,-0.709,1.303983,-0.383334,1.754281,100266.13,-86,-74,-273
121153,0.591,-2.081,-0.617,1.278974,-0.359921,1.626574,100266.65,-86,-74,-273
121163,0.223,-2.001,-0.811,1.123066,-0.342362,1.443528,100264.35,-85,-81,-272
121172,-0.206,-2.092,-0.872,0.887873,-0.308307,1.259418,100264.35,-82,-87,-272
121183,-0.550,-2.129,-0.642,0.668644,-0.259885,1.055088,100269.36,-80,-90,-271
121193,-0.677,-1.765,-0.313,0.448883,-0.224233,0.804465,100265.02,-80,-90,-271
121203,-0.705,-1.229,-0.096,0.197727,-0.192307,0.543731,100263.34,-79,-92,-271
121212,-0.595,-0.606,0.221,-0.078438,-0.142821,0.295768,100265.80,-78,-93,-272
121223,-0.694,-0.015,0.601,-0.317355,-0.083224,0.077603,100265.80,-78,-92,-272
121233,-0.833,0.210,0.698,-0.480181,-0.028417,-0.117682,100266.34,-78,-92,-272
121243,-0.979,-0.044,0.662,-0.588199,0.034372,-0.304452,100267.02,-78,-91,-274
121253,-0.999,-0.454,0.602,-0.663226,0.102482,-0.496544,100262.57,-79,-87,-274
121263,-0.644,-0.744,0.470,-0.713245,0.164207,-0.705663,100263.30,-80,-85,-275
121273,0.010,-0.859,0.343,-0.734529,0.219546,-0.919571,100263.30,-80,-85,-275
121283,0.892,-0.838,0.243,-0.706505,0.273289,-1.132770,100265.81,-82,-80,-274
121293,1.655,-0.635,0.165,-0.615869,0.301491,-1.283002,100263.30,-85,-76,-275
121303,2.507,-0.774,0.079,-0.429630,0.306812,-1.410176,100262.61,-86,-70,-274
121313,3.071,-1.504,0.044,-0.209869,0.287124,-1.507020,100261.56,-86,-70,-274
121323,3.747,-2.119,0.189,0.007232,0.254665,-1.607057,100261.56,-88,-66,-273
121333,4.667,-2.795,0.523,0.250406,0.202519,-1.712415,100269.46,-91,-62,-272
121342,5.314,-3.840,1.090,0.493048,0.147179,-1.825222,100261.18,-92,-59,-271
121353,6.197,-4.747,1.459,0.640975,0.080665,-1.934836,100268.15,-92,-59,-271
121363,7.261,-5.597,1.879,0.721855,0.017876,-2.015717,100265.52,-95,-55,-272
121373,8.226,-6.504,2.389,0.825617,-0.032674,-2.065736,100265.52,-96,-51,-271
121383,9.314,-6.968,2.888,0.919800,-0.075243,-2.109901,100267.02,-98,-48,-270
121393,10.063,-7.073,3.306,1.001213,-0.122601,-2.125864,100267.66,-98,-48,-270
121403,10.169,-7.529,3.645,1.049635,-0.150802,-2.110433,100264.34,-99,-44,-270
121413,9.989,-7.682,4.180,1.077837,-0.141756,-2.097662,100263.36,-99,-40,-269
121423,9.891,-7.476,4.761,1.082626,-0.110362,-2.089680,100263.36,-100,-37,-269
121433,10.159,-7.334,5.212,1.062405,-0.044913,-2.073185,100268.59,-100,-37,-269
121443,10.749,-7.225,5.535,1.000149,0.034372,-2.051901,100265.12,-101,-34,-269
121453,11.519,-6.896,5.541,0.932039,0.110464,-2.032745,100266.96,-102,-30,-267
121463,12.024,-6.621,5.536,0.866057,0.186023,-2.018378,100267.79,-103,-27,-267
121473,10.044,-8.563,8.749,0.852754,0.335014,-1.966763,100267.79,-103,-27,-267
121483,7.901,-12.545,14.686,1.541304,1.016114,-1.708690,100266.18,-106,-24,-265
121493,18.602,-17.064,11.150,1.505121,0.957050,-1.120176,100267.54,-109,-25,-262
121503,25.311,-10.622,-1.630,-0.326401,-0.080032,-1.108470,100269.05,-109,-21,-262
121513,33.901,0.213,-5.760,-1.712547,-0.472197,-1.181369,100269.59,-109,-21,-262
121519,36.086,2.491,-0.422,-1.759373,-0.167298,-0.729076,100269.59,-108,-13,-264
121528,21.501,5.947,1.852,-0.935667,0.076941,-0.554544,100269.59,-109,-10,-264
121538,3.006,3.106,1.646,0.226993,0.310005,-0.499204,100273.30,-109,-10,-264
121548,-1.630,-3.722,0.659,0.599470,0.378115,-0.005939,100264.80,-111,-11,-264
121559,2.492,-5.034,-0.573,0.388754,0.271693,0.044612,100267.96,-111,-12,-261
121569,8.469,-3.852,0.971,0.942149,0.204115,0.123896,100268.42,-111,-15,-262
121578,10.233,-2.498,3.854,1.932405,0.062574,0.229786,100267.38,-111,-15,-262
121588,8.282,-3.455,5.134,2.313928,0.024262,0.215951,100266.55,-111,-19,-260
121598,7.954,-5.532,6.371,1.613671,0.156757,0.188281,100266.55,-111,-25,-259
121608,9.582,-6.081,5.540,0.361617,0.186555,0.103676,100261.98,-111,-25,-259
121618,10.036,-5.616,4.732,-0.467410,0.231785,0.005768,100268.11,-111,-25,-259
121628,9.015,-4.342,3.870,-0.704731,0.185491,-0.078838,100268.11,-113,-24,-258
121638,8.712,-2.418,2.432,-0.786676,0.164739,-0.099590,100265.91,-113,-22,-258
121648,9.693,-1.520,1.780,-0.586071,0.240830,-0.042654,100269.31,-113,-20,-258
121658,9.957,-1.897,2.164,-0.151337,0.312665,0.056850,100267.17,-113,-20,-258
121668,9.322,-2.299,2.869,0.273287,0.327032,0.147841,100268.42,-114,-21,-257
121678,8.904,-2.937,3.967,0.514332,0.322243,0.223933,100266.70,-115,-23,-255
121689,8.772,-4.504,4.559,0.444626,0.271693,0.239364,100265.39,-115,-25,-255
121698,8.994,-5.289,4.953,0.020002,0.271161,0.190410,100262.50,-115,-25,-255
121708,8.769,-5.264,4.565,-0.472199,0.257858,0.091970,100265.17,-116,-24,-255
121718,8.398,-4.053,4.073,-0.847336,0.274353,0.036630,100265.17,-116,-23,-254
121729,8.810,-2.525,3.347,-0.991006,0.289785,0.038227,100265.17,-116,-22,-253
121738,9.072,-1.321,2.850,-0.861703,0.303087,0.111658,100273.09,-116,-22,-253
121748,9.043,-0.643,2.745,-0.539777,0.299895,0.223401,100266.59,-117,-19,-253
121754,8.768,-1.192,2.913,-0.256695,0.276482,0.313859,100265.38,-118,-20,-253
121763,8.445,-2.512,3.200,-0.022034,0.250941,0.386226,100270.73,-118,-20,-253
121773,8.378,-4.012,3.493,0.023195,0.246152,0.442098,100270.73,-118,-22,-252
121783,8.477,-4.675,3.899,-0.216254,0.291913,0.423474,100266.39,-119,-23,-250
121793,8.477,-4.386,4.002,-0.572768,0.357362,0.365474,100266.13,-120,-23,-250
121803,8.234,-3.969,4.057,-0.882456,0.426537,0.301621,100265.23,-120,-23,-250
121814,8.203,-3.516,3.987,-1.042089,0.461124,0.263841,100266.97,-120,-21,-249
121823,8.591,-3.236,3.725,-1.048474,0.444628,0.260116,100266.97,-120,-19,-249
121833,8.888,-3.220,3.395,-0.965997,0.404188,0.282465,100268.89,-122,-18,-248
121843,8.940,-3.358,3.396,-0.862235,0.364812,0.319180,100266.22,-122,-18,-248
121853,8.770,-3.592,3.651,-0.770713,0.322775,0.353236,100265.17,-122,-19,-248
121864,8.643,-3.799,3.877,-0.721226,0.293509,0.389951,100265.27,-122,-18,-246
121873,8.647,-3.865,4.260,-0.718566,0.280207,0.417089,100265.27,-123,-17,-245
121883,8.677,-3.821,4.103,-0.762199,0.233381,0.439969,100266.33,-123,-17,-245
121893,8.815,-3.738,4.113,-0.781355,0.182298,0.466043,100266.39,-123,-17,-245
121904,8.798,-3.765,3.795,-0.742511,0.142922,0.502758,100265.91,-123,-17,-246
121913,8.840,-3.892,3.524,-0.669080,0.143986,0.538410,100267.13,-124,-17,-245
121923,8.964,-4.147,3.358,-0.622786,0.101418,0.561823,100267.13,-124,-17,-245
121933,8.793,-4.134,3.122,-0.576493,0.065234,0.597474,100265.09,-123,-18,-245
121944,8.581,-4.181,3.164,-0.502529,0.065234,0.646960,100268.08,-124,-19,-245
121953,8.910,-5.088,3.318,-0.497208,0.076409,0.695382,100264.47,-123,-20,-245
121963,9.258,-5.611,3.222,-0.621190,0.099821,0.721456,100265.56,-123,-20,-245
121973,9.402,-5.347,3.085,-0.839355,0.145583,0.728905,100265.56,-123,-21,-245
121984,10.105,-4.906,3.166,-1.007501,0.140794,0.760300,100268.91,-124,-21,-245
121994,10.437,-4.145,2.915,-1.035703,0.080665,0.821492,100268.64,-123,-21,-245
122003,10.649,-3.797,2.402,-0.915446,0.008831,0.920997,100263.03,-123,-21,-245
122013,10.793,-4.377,2.353,-0.786676,-0.084821,1.040189,100265.34,-123,-23,-245
122023,10.488,-4.411,2.268,-0.752621,-0.172087,1.148740,100265.34,-123,-25,-246
122034,10.582,-4.086,2.599,-0.752089,-0.220509,1.258354,100268.13,-122,-27,-247
122043,10.833,-3.817,2.872,-0.722823,-0.303518,1.371161,100268.38,-122,-27,-247
122053,10.568,-3.494,2.905,-0.663226,-0.373224,1.495143,100265.86,-119,-28,-248
122063,10.488,-3.728,2.763,-0.616933,-0.398765,1.627638,100268.59,-118,-33,-250
122074,10.783,-4.103,2.368,-0.600438,-0.435481,1.742042,100268.59,-116,-37,-251
122083,11.185,-4.453,2.103,-0.652584,-0.457298,1.825583,100266.68,-116,-37,-251
122093,11.510,-4.474,2.168,-0.778694,-0.446123,1.893161,100266.93,-114,-40,-251
122103,11.951,-4.109,2.521,-0.912786,-0.433353,1.957546,100266.68,-112,-44,-254
122114,12.512,-3.678,2.881,-1.042089,-0.396105,2.027785,100268.24,-109,-47,-256
122123,13.943,-3.106,3.947,-1.179373,-0.355132,2.108133,100268.24,-107,-47,-257
122133,16.305,-1.605,5.085,-1.335281,-0.329591,2.186353,100267.98,-107,-50,-257
122143,17.533,0.402,5.790,-1.406584,-0.284894,2.254996,100263.37,-106,-54,-259
122153,16.608,1.405,5.777,-1.296969,-0.244986,2.368335,100265.09,-102,-56,-261
122164,15.929,0.434,5.529,-1.149575,-0.230087,2.531161,100261.10,-99,-60,-262
122173,15.563,-2.328,5.541,-0.993667,-0.241793,2.680151,100261.10,-99,-60,-262
122183,14.303,-7.022,6.514,-0.680254,-0.289683,2.874372,100263.89,-96,-66,-264
122193,14.357,-10.560,7.093,-0.453043,-0.376417,3.077637,100270.55,-93,-73,-265
122204,15.257,-9.519,5.494,-0.846804,-0.367371,2.960041,100266.63,-88,-78,-267
122213,14.616,-6.406,5.400,-0.801575,-0.343426,2.781784,100264.16,-88,-78,-267
122224,12.635,-4.836,4.559,-0.183618,-0.435126,2.728573,100264.16,-84,-83,-268
122233,11.156,-3.572,4.282,0.010424,-0.500931,2.513601,100269.59,-81,-89,-270
122244,9.563,-1.026,3.687,0.244021,-0.630765,2.130482,100265.30,-76,-95,-270
122254,6.164,-0.508,1.379,0.380773,-0.659499,1.755877,100265.09,-76,-95,-270
122263,2.220,-2.584,4.030,0.593085,-0.373224,1.553675,100264.25,-73,-100,-272
122273,0.459,-5.507,4.254,0.867121,-0.189114,1.270061,100264.25,-71,-104,-271
122284,2.082,-5.220,3.678,0.534553,-0.040656,0.675694,100265.34,-68,-107,-270
122294,4.541,-3.089,2.903,-0.292346,-0.064068,0.065364,100263.62,-68,-107,-270
122303,5.295,0.132,1.064,-1.162878,-0.276380,-0.543902,100263.35,-69,-105,-272
122313,4.843,3.319,0.030,-1.584309,-0.301389,-1.046745,100266.02,-69,-98,-277
122323,4.220,4.815,-0.429,-1.267171,-0.285958,-1.278745,100266.02,-69,-91,-278
122334,3.472,4.407,-0.142,-0.459428,-0.230619,-1.470305,100265.45,-69,-91,-278
122343,3.005,2.552,0.935,0.279140,-0.158784,-1.663993,100262.46,-71,-87,-279
122353,3.022,-0.123,1.680,0.747929,-0.128986,-1.905570,100262.40,-72,-83,-279
122363,3.385,-2.013,2.329,0.871910,-0.055555,-2.213130,100266.23,-74,-80,-279
122374,4.203,-2.184,2.480,0.692589,0.063106,-2.572304,100266.23,-74,-80,-279
122384,5.373,-1.255,2.541,0.476553,0.178041,-2.944781,100259.63,-78,-74,-279
122393,6.424,-0.099,2.344,0.451543,0.225931,-3.276285,100262.14,-81,-67,-278
122403,6.978,0.410,1.580,0.562754,0.223803,-3.557771,100259.89,-84,-60,-277
122414,7.236,-0.447,0.986,0.744736,0.232849,-3.805734,100261.72,-84,-60,-277
122424,7.379,-1.377,0.574,0.911818,0.266904,-4.054230,100261.72,-89,-52,-276
122433,7.625,-1.965,0.973,0.969818,0.345656,-4.272395,100262.90,-91,-42,-275
122443,8.226,-2.616,0.942,1.017708,0.371197,-4.424578,100262.59,-95,-33,-274
122454,8.852,-3.208,1.068,1.075176,0.405252,-4.575165,100262.34,-95,-33,-274
122464,9.632,-3.680,1.519,1.058681,0.427601,-4.689037,100260.18,-97,-23,-273
122473,10.270,-3.853,2.032,1.010259,0.398335,-4.801844,100260.18,-99,-13,-272
122483,10.633,-3.874,2.430,1.026222,0.353638,-4.955624,100264.75,-100,-1,-272
122493,11.216,-4.056,3.133,1.050167,0.359491,-5.122174,100263.97,-100,-1,-272
122504,11.916,-4.815,3.537,0.971415,0.379179,-5.264780,100261.66,-102,+10,-272
122514,12.740,-5.475,3.889,0.838919,0.453142,-5.441440,100259.25,-99,+23,-270
122523,13.781,-5.836,4.022,0.721855,0.539876,-5.614376,100259.25,-99,+37,-270
122533,14.593,-5.656,3.846,0.665452,0.652151,-5.750596,100265.66,-99,+37,-270
122544,15.321,-6.065,4.127,0.824020,0.774537,-5.772412,100262.56,-97,+51,-269
122554,16.132,-7.907,4.079,1.129983,0.819234,-5.660137,100264.77,-93,+65,-269
122563,16.420,-10.183,3.871,1.429561,0.807527,-5.478687,100261.72,-89,+76,-268
122573,16.219,-12.801,3.421,1.636552,0.716537,-5.212101,100261.72,-89,+76,-268
122584,16.129,-16.014,2.736,1.759469,0.502096,-4.857716,100265.68,-85,+86,-268
122594,15.880,-18.864,2.566,1.712111,0.217950,-4.419257,100266.57,-80,+93,-269
122604,14.002,-18.906,2.287,1.423176,-0.016179,-3.913221,100267.10,-75,+100,-270
122613,10.465,-18.205,3.804,1.340699,-0.004472,-3.309808,100266.32,-75,+100,-270
122624,6.965,-19.926,5.809,1.460423,0.138665,-2.553148,100266.32,-70,+104,-272
122634,4.297,-21.449,6.287,1.176809,0.237638,-1.692194,100265.82,-68,+105,-274
122644,3.756,-22.502,5.141,0.681947,0.295106,-0.699278,100265.34,-67,+106,-274
122653,4.947,-22.261,3.805,0.146645,0.381307,0.358557,100265.29,-69,+104,-273
122663,8.126,-19.073,3.966,-0.186456,0.416427,1.269529,100264.35,-69,+104,-273
122674,8.554,-15.809,2.529,-0.124199,0.207840,2.002776,100264.35,-71,+101,-272
122684,11.989,-7.239,4.107,-0.101319,-0.108766,2.751454,100268.03,-74,+95,-272
122694,20.659,15.588,3.018,-0.345380,-0.747297,2.131191,100265.05,-74,+91,-274
122703,21.880,27.927,-6.949,-0.825520,-0.829774,0.821492,100266.92,-74,+91,-274
122714,16.652,11.563,-9.577,-0.375355,-0.016711,1.512703,100269.97,-74,+92,-274
122724,15.931,-11.945,2.415,2.196331,-0.064601,3.414995,100269.97,-78,+79,-275
122734,13.238,-20.306,10.118,3.195101,-0.180068,3.481509,100267.99,-81,+63,-278
122743,11.631,-13.497,3.592,1.541304,0.050335,2.903637,100266.68,-81,+63,-278
122754,10.385,-2.045,1.780,1.101249,0.458995,2.691858,100268.10,-82,+54,-277
122764,4.303,0.928,3.911,2.428331,0.525509,2.491785,100267.77,-86,+42,-277
122774,0.960,-4.082,8.288,2.866257,0.402592,2.157620,100267.77,-88,+29,-276
122783,6.727,-11.124,5.869,1.715836,-0.066729,2.018207,100267.44,-88,+29,-276
122793,12.421,-13.345,1.496,0.019470,-0.122068,1.830372,100266.86,-88,+23,-276
122804,11.689,-9.154,1.589,-1.266107,0.278078,1.503657,100265.66,-88,+22,-276
122814,9.687,-4.046,3.714,-2.011593,0.510610,1.259418,100264.72,-90,+24,-274
122823,8.227,-2.245,3.756,-2.364381,0.405784,1.183859,100264.72,-90,+24,-274
122833,7.838,-1.819,2.708,-2.162180,0.296702,1.059345,100267.25,-90,+27,-272
122844,8.578,-0.185,2.350,-1.489061,0.257326,0.927914,100266.72,-91,+28,-272
122854,9.893,0.992,2.378,-0.402493,0.191876,0.889070,100264.52,-92,+28,-272
122864,9.870,-0.185,2.527,0.593085,0.136005,0.947070,100266.36,-92,+28,-272
122873,9.017,-1.770,2.706,1.082626,0.146115,0.988042,100266.36,-93,+22,-272
122884,8.496,-3.003,2.833,1.102846,0.195601,0.983786,100266.02,-94,+17,-270
122894,8.616,-4.011,3.034,0.808057,0.281271,0.919932,100271.53,-95,+13,-270
122904,8.934,-4.335,3.591,0.302553,0.385032,0.812978,100263.77,-95,+13,-270
122913,8.873,-4.636,4.181,-0.317355,0.480280,0.694850,100267.97,-95,+11,-269
122924,8.598,-4.805,4.398,-1.030914,0.558500,0.579914,100267.97,-97,+11,-267
122930,8.359,-4.074,4.381,-1.581648,0.620225,0.495841,100271.17,-97,+11,-267
122939,8.386,-2.706,4.134,-1.973813,0.661197,0.447951,100271.17,-99,+13,-266
122949,8.752,-0.569,3.511,-2.105776,0.700041,0.445291,100268.70,-99,+17,-264
122959,9.304,0.699,3.374,-1.756180,0.748995,0.506483,100267.61,-101,+19,-262
122969,9.602,-0.520,3.191,-1.181501,0.698977,0.600667,100268.55,-101,+19,-262
122979,9.661,-1.599,2.423,-0.631832,0.561161,0.712942,100268.80,-103,+20,-260
122989,9.438,-2.025,2.540,-0.234878,0.472298,0.817767,100268.27,-104,+17,-259
122999,9.043,-2.718,3.368,-0.010860,0.414830,0.877364,100267.23,-105,+15,-257
123009,8.625,-3.508,3.884,-0.054493,0.396206,0.875235,100267.23,-105,+15,-257
123019,8.708,-4.072,4.909,-0.351410,0.438775,0.847565,100265.13,-107,+13,-257
123029,8.836,-4.020,5.196,-0.687703,0.424940,0.801272,100265.13,-108,+12,-256
123039,8.861,-3.767,4.632,-0.988878,0.380775,0.778923,100267.03,-108,+13,-254
123048,8.827,-3.208,4.061,-1.225134,0.372262,0.778391,100268.03,-108,+13,-254
123059,8.803,-2.841,4.027,-1.268235,0.378647,0.795951,100263.20,-109,+14,-253
123069,9.174,-2.307,2.467,-1.096364,0.338739,0.858740,100266.03,-110,+13,-253
123079,9.376,-2.769,2.455,-0.857446,0.343528,0.932703,100266.03,-110,+11,-252
123089,9.405,-3.550,3.044,-0.615869,0.311069,1.005070,100268.86,-110,+11,-252
123099,9.335,-4.447,3.569,-0.545630,0.286060,1.056152,100267.31,-111,+11,-250
123109,9.483,-4.973,4.490,-0.658437,0.302555,1.081694,100268.09,-113,+9,-249
123119,9.788,-5.045,4.512,-0.867024,0.310005,1.087547,100268.09,-113,+7,-249
123128,10.540,-4.823,3.610,-1.134676,0.254133,1.093932,100268.09,-113,+7,-249
123139,10.662,-3.329,3.264,-1.279942,0.218482,1.155657,100268.58,-113,+7,-248
123149,10.811,-1.851,2.784,-1.243758,0.100353,1.296666,100267.69,-113,+5,-249
123159,11.246,-0.920,2.703,-1.005905,-0.061408,1.516428,100267.22,-113,+3,-248
123164,11.538,-0.830,2.676,-0.706859,-0.180068,1.718629,100264.13,-113,+3,-248
123173,11.897,-1.988,3.025,-0.448786,-0.246050,1.913913,100264.13,-113,-1,-249
123184,12.468,-3.671,3.162,-0.325337,-0.276912,2.126757,100263.95,-111,-7,-249
123194,12.972,-4.459,3.166,-0.496676,-0.230087,2.286390,100264.41,-111,-7,-249
123204,13.520,-4.505,3.244,-0.792529,-0.217848,2.377913,100267.24,-111,-11,-249
123213,14.121,-4.654,3.306,-1.010162,-0.232747,2.492849,100267.76,-110,-16,-251
123224,14.860,-5.162,3.122,-1.242162,-0.242325,2.601399,100267.76,-108,-20,-251
123234,15.735,-5.492,3.004,-1.589098,-0.230619,2.677491,100268.85,-108,-20,-251
123244,16.869,-5.276,3.322,-2.014253,-0.147610,2.684408,100268.54,-106,-25,-252
123254,19.349,-2.625,3.973,-2.571904,0.003509,2.591289,100268.85,-104,-25,-254
123264,21.703,1.900,5.424,-3.085922,0.091308,2.535418,100267.60,-103,-26,-254
123274,21.873,5.388,6.342,-3.247684,0.096629,2.650885,100267.60,-103,-26,-254
123284,21.537,6.700,6.761,-3.017812,0.073748,2.869582,100268.51,-103,-27,-255
123294,20.798,6.287,7.265,-2.622455,0.088115,2.958977,100267.46,-101,-30,-257
123303,17.562,1.206,8.217,-2.151537,0.060977,3.097857,100263.23,-99,-33,-257
123314,15.036,-8.206,8.172,-1.381043,-0.168362,3.375087,100262.23,-99,-33,-257
123324,16.785,-13.099,6.451,-1.242162,-0.325866,3.495876,100262.23,-95,-39,-257
123334,17.759,-8.772,8.564,-1.001116,-0.350876,3.361784,100266.88,-92,-44,-260
123343,15.892,-2.426,8.329,-0.353007,-0.584472,3.156390,100264.00,-88,-52,-261
123354,14.306,2.750,6.111,0.211562,-0.849995,2.630133,100262.63,-88,-52,-261
123364,10.252,6.163,2.666,0.480809,-1.017077,1.969253,100265.14,-83,-58,-261
123374,2.821,3.578,4.447,0.979928,-0.815407,1.718097,100265.14,-79,-64,-264
123384,-2.265,-2.893,6.231,2.129286,-0.578086,1.558996,100265.17,-76,-71,-262
123394,-1.044,-4.753,8.091,2.401726,-0.319481,0.897052,100267.06,-76,-71,-262
123404,2.345,-4.739,5.302,1.488625,-0.502527,0.111658,100265.22,-74,-78,-260
123414,3.936,-2.833,2.116,-0.059282,-0.571701,-0.560929,100264.70,-71,-76,-262
123424,4.045,-0.556,-0.041,-1.498107,-0.465811,-1.250543,100264.70,-71,-68,-264
123433,3.747,2.303,-1.239,-2.337244,-0.399830,-1.814047,100266.56,-71,-68,-264
123444,2.575,4.354,-1.677,-2.248381,-0.508380,-2.084892,100265.94,-70,-58,-268
123454,1.815,4.814,-1.141,-1.135740,-0.501463,-2.269534,100266.14,-68,-49,-270
123464,2.046,4.352,0.197,0.104076,-0.413665,-2.554744,100262.38,-68,-42,-270
123473,2.164,2.549,1.561,0.949598,-0.366307,-2.875607,100262.38,-68,-42,-270
123484,2.207,0.029,2.266,1.369433,-0.320013,-3.130487,100264.78,-68,-37,-271
123494,2.724,-1.799,2.668,1.367836,-0.163041,-3.399735,100264.09,-67,-33,-270
123504,4.084,-2.967,2.660,0.989506,0.027987,-3.705166,100262.63,-67,-27,-270
123514,5.053,-1.902,2.551,0.378644,0.194005,-4.038266,100262.38,-67,-27,-270
123524,5.349,0.787,2.359,0.138663,0.230720,-4.424046,100262.38,-67,-17,-269
123534,6.132,1.829,2.086,0.518589,0.211032,-4.709257,100264.82,-66,-7,-269
123544,7.147,0.969,2.692,1.157121,0.253601,-4.914119,100260.41,-64,+0,-267
123554,8.281,-0.578,3.233,1.646662,0.297234,-5.100890,100256.85,-64,+0,-267
123564,9.595,-2.013,3.261,1.928148,0.309473,-5.244559,100261.93,-63,+7,-267
123574,10.846,-3.205,3.154,2.028717,0.346188,-5.329697,100261.93,-61,+14,-267
123584,11.180,-4.554,3.006,2.152698,0.369601,-5.418027,100264.90,-59,+19,-267
123594,11.279,-6.026,3.148,2.305946,0.351509,-5.477091,100264.05,-59,+19,-267
123604,12.445,-6.746,3.523,2.246350,0.307344,-5.526045,100264.59,-57,+24,-267
123614,14.581,-7.316,4.546,1.981891,0.291381,-5.591495,100263.79,-54,+29,-268
123624,16.494,-7.936,5.779,1.746699,0.277546,-5.718669,100263.79,-52,+35,-268
123634,17.536,-8.226,7.577,1.877065,0.345656,-5.886638,100265.75,-50,+40,-269
123644,17.535,-10.011,8.493,2.282533,0.490390,-5.908100,100262.55,-50,+40,-269
123654,16.739,-13.882,8.395,2.465047,0.585638,-5.789440,100260.61,-48,+44,-268
123664,16.028,-16.284,6.666,2.257524,0.503161,-5.596816,100264.17,-48,+48,-270
123674,16.003,-18.503,4.004,1.996258,0.410041,-5.231789,100264.17,-47,+53,-270
123684,15.983,-19.663,1.405,1.767451,0.354702,-4.740119,100263.47,-47,+53,-270
123694,13.526,-18.589,3.050,1.612607,0.343528,-4.095734,100268.34,-46,+58,-271
123704,9.496,-21.340,7.523,1.882919,0.408445,-3.251808,100265.05,-47,+59,-272
123714,5.521,-25.828,9.326,1.659965,0.378115,-2.315827,100261.38,-47,+59,-272
123724,2.780,-28.393,6.883,0.752718,0.311069,-1.255864,100261.38,-47,+59,-272
123735,3.230,-26.811,4.033,-0.089612,0.416959,0.013749,100269.61,-48,+59,-272
123744,7.438,-23.392,3.646,-0.388658,0.532427,1.216318,100268.19,-50,+56,-270
123754,9.115,-19.170,2.318,-0.300860,0.304684,2.305014,100265.84,-54,+52,-270
123764,15.290,-7.934,1.008,-0.229557,-0.276912,3.215454,100264.47,-54,+52,-270
123774,26.835,20.756,-0.971,-0.521153,-1.151169,2.617362,100264.47,-53,+46,-272
123784,26.258,31.963,-17.119,-0.886180,-0.681848,0.946006,100267.99,-52,+45,-273
123794,16.748,-1.388,-6.943,0.416956,0.231252,2.565748,100269.84,-55,+36,-272
123804,12.523,-21.368,12.891,3.974110,-0.098656,4.103545,100265.59,-55,+36,-272
123814,12.568,-23.422,7.550,3.152000,-0.148674,3.956151,100262.87,-56,+17,-274
123824,14.352,-7.832,2.801,1.096460,0.461124,3.454371,100262.87,-58,+5,-272
123834,8.580,4.182,3.297,2.211762,0.512739,3.403821,100265.27,-59,-7,-271
123844,-2.705,3.924,10.872,4.150239,0.340867,2.768481,100265.23,-59,-7,-271
123854,-3.331,-8.246,10.599,3.915046,-0.298729,2.679087,100264.12,-59,-23,-268
123865,7.413,-21.562,0.937,1.570570,-0.429096,2.701436,100268.88,-57,-35,-269
123874,14.800,-20.410,0.092,-1.442767,0.342463,2.169326,100268.88,-57,-35,-270
123884,14.625,-9.470,2.668,-3.203518,0.817105,1.435015,100269.66,-57,-35,-270
123894,10.307,-2.117,4.425,-4.053830,0.841582,1.188648,100267.25,-59,-28,-269
123905,6.187,-0.429,2.315,-3.595151,0.635656,1.068391,100266.52,-60,-21,-270
123914,6.531,0.803,1.418,-2.487831,0.565417,0.986978,100266.20,-61,-19,-270
123924,9.275,1.945,2.281,-1.092639,0.464317,0.973143,100266.20,-61,-19,-270
123934,10.170,0.521,3.028,0.261048,0.309473,1.021033,100271.02,-61,-18,-270
123944,9.375,-2.456,3.367,0.997488,0.213161,1.047639,100267.41,-61,-23,-269
123954,8.811,-4.274,2.730,1.036864,0.192408,0.980061,100265.16,-62,-28,-268
123964,8.813,-4.280,2.047,0.647892,0.328629,0.873107,100266.98,-62,-28,-268
123974,9.029,-4.131,3.476,0.106204,0.542537,0.744868,100266.98,-61,-31,-266
123984,8.751,-5.391,5.420,-0.486566,0.647362,0.596942,100270.14,-63,-33,-266
123994,8.046,-6.539,6.073,-1.366676,0.695784,0.422410,100268.78,-65,-30,-265
124004,7.941,-4.542,6.047,-2.227629,0.776665,0.220740,100266.42,-65,-30,-265
124014,8.702,-1.340,4.927,-2.479317,0.761766,0.144116,100263.84,-66,-25,-264
124024,9.242,0.299,2.986,-2.045648,0.645766,0.209034,100263.84,-67,-19,-263
124035,10.039,0.489,1.481,-1.198529,0.463784,0.368135,100268.77,-68,-17,-262
124044,10.322,-0.746,1.512,-0.367373,0.299363,0.570336,100267.09,-68,-17,-262
124054,9.814,-3.101,2.632,0.017874,0.237638,0.709749,100264.78,-68,-17,-263
124064,9.159,-4.425,3.773,-0.163043,0.278610,0.738483,100267.78,-68,-21,-262
124075,8.691,-3.634,4.606,-0.648860,0.354702,0.704428,100267.78,-70,-21,-262
124085,8.597,-2.354,4.978,-1.044217,0.408977,0.701767,100267.35,-70,-21,-262
124094,8.849,-1.685,4.777,-1.175116,0.391418,0.777859,100266.73,-70,-20,-262
124104,9.019,-1.542,4.124,-1.060890,0.323307,0.907339,100266.88,-72,-19,-260
124114,9.153,-2.435,3.374,-0.870217,0.272757,1.009859,100264.43,-71,-19,-261
124124,9.496,-3.690,2.401,-0.746768,0.252005,1.091804,100264.43,-71,-19,-261
124134,9.922,-4.303,1.961,-0.790933,0.266372,1.147143,100267.95,-71,-21,-259
124144,10.437,-4.274,2.147,-0.868621,0.275418,1.162042,100266.17,-71,-21,-260
124154,10.712,-4.016,2.497,-0.802639,0.234445,1.150336,100266.13,-72,-22,-260
124165,11.135,-4.238,2.656,-0.661098,0.192941,1.181198,100270.27,-72,-23,-260
124174,10.708,-4.512,2.652,-0.626511,0.164739,1.275382,100270.27,-72,-23,-260
124184,10.383,-4.687,2.882,-0.656841,0.156225,1.265804,100268.02,-72,-25,-259
124194,10.740,-4.467,3.043,-0.856914,0.123766,1.330189,100268.91,-71,-27,-259
124205,10.571,-3.455,3.123,-1.033043,0.081730,1.491950,100266.97,-71,-27,-259
124214,10.888,-2.202,3.380,-0.946841,0.037032,1.594115,100265.92,-71,-27,-259
124224,11.542,-1.835,3.623,-0.912254,-0.078968,1.858574,100265.92,-71,-29,-260
124234,12.400,-1.991,3.507,-0.807960,-0.160912,2.070354,100269.40,-70,-33,-261
124244,12.842,-2.655,2.737,-0.782951,-0.212527,2.267234,100269.30,-68,-37,-262
124255,13.603,-2.789,2.267,-0.863300,-0.254564,2.374720,100266.37,-68,-37,-262
124264,14.791,-2.942,2.475,-0.992602,-0.301922,2.572665,100269.93,-66,-39,-262
124274,15.352,-2.907,2.764,-1.120309,-0.309371,2.772206,100269.93,-65,-42,-264
124284,15.715,-3.325,3.270,-1.308143,-0.232215,2.872243,100269.73,-62,-46,-265
124295,16.885,-3.714,3.822,-1.660400,-0.105573,2.900977,100266.81,-62,-46,-265
124304,19.800,-1.716,4.666,-2.356400,0.045546,2.855216,100263.81,-61,-48,-266
124314,22.231,2.855,6.553,-3.076344,0.137069,2.737087,100265.59,-60,-46,-268
124324,21.829,7.418,7.462,-3.187023,0.154629,2.708885,100265.59,-57,-46,-270
124335,20.492,6.570,7.940,-2.773574,0.137069,2.891931,100265.53,-57,-46,-270
124340,19.410,3.103,8.293,-2.376620,0.121106,3.063802,100263.48,-57,-45,-270
124349,18.014,-2.847,8.298,-1.888143,-0.037995,3.256426,100263.48,-57,-45,-270
124359,18.209,-10.946,8.824,-1.300694,-0.312564,3.639013,100266.16,-56,-49,-272
124369,19.659,-10.682,8.767,-1.293777,-0.398233,3.669876,100263.48,-50,-54,-274
124380,17.920,-4.881,9.676,-0.985153,-0.400894,3.459692,100263.48,-48,-60,-275
124390,15.482,0.017,8.497,-0.436548,-0.527536,3.120738,100265.53,-45,-64,-277
124399,13.410,4.339,5.605,0.196663,-0.835628,2.453473,100263.25,-45,-64,-277
124409,8.546,5.663,1.714,0.470167,-0.958545,1.772372,100267.45,-41,-70,-278
124420,1.172,1.276,2.538,0.862864,-0.653114,1.545161,100267.45,-40,-76,-279
124429,-2.687,-6.394,5.431,1.679653,-0.098123,1.460024,100267.45,-38,-83,-277
124439,0.646,-7.476,7.892,1.696148,0.054060,0.764024,100265.21,-38,-83,-277
124449,3.270,-6.162,5.401,0.785708,-0.414729,-0.094801,100266.68,-38,-87,-275
124460,3.033,-3.233,1.713,-0.636621,-0.522215,-0.869553,100266.93,-39,-85,-278
124470,3.030,-0.124,-1.047,-2.132914,-0.243922,-1.451681,100265.88,-41,-76,-282
124479,2.915,3.584,-2.320,-3.000785,-0.089078,-1.939093,100265.88,-41,-76,-282
124489,1.925,5.626,-1.674,-2.707592,0.076941,-2.129057,100268.20,-43,-65,-285
124499,1.734,6.314,-0.478,-1.370932,0.103014,-2.282836,100267.23,-47,-56,-288
124510,1.888,5.471,0.938,0.013085,0.120574,-2.576561,100264.28,-49,-51,-287
124520,1.861,2.858,2.133,0.869250,0.202519,-2.870286,100264.28,-49,-51,-287
124529,2.398,-0.014,2.803,1.197029,0.323840,-3.143790,100261.83,-52,-48,-287
124539,3.361,-2.072,2.559,0.992699,0.496775,-3.449221,100261.83,-57,-44,-287
124550,4.501,-2.546,2.241,0.439837,0.712280,-3.774340,100264.92,-62,-37,-285
124560,5.150,-0.605,2.134,-0.007667,0.839986,-4.162780,100264.45,-62,-37,-285
124569,5.840,1.378,2.149,0.007764,0.890004,-4.507587,100263.34,-66,-27,-285
124575,6.637,1.542,2.174,0.315855,0.892665,-4.701807,100263.34,-66,-27,-285
124584,7.383,0.564,2.128,0.761231,0.879894,-4.886981,100262.16,-71,-18,-285
124595,8.703,-0.704,2.352,1.313029,0.906500,-5.122706,100260.22,-74,-9,-284
124604,10.002,-1.705,2.239,1.771708,0.921931,-5.265312,100262.36,-78,-1,-282
124614,10.808,-2.419,1.981,2.176643,0.900114,-5.364284,100261.16,-78,-1,-282
124624,10.947,-3.531,1.759,2.594882,0.833601,-5.425477,100261.16,-81,+3,-280
124635,11.390,-4.851,2.478,2.932771,0.775069,-5.444100,100264.45,-83,+10,-280
124645,13.341,-6.480,3.322,2.962569,0.630335,-5.505293,100263.76,-85,+15,-281
124654,15.498,-7.937,3.623,2.651817,0.461656,-5.662797,100258.63,-85,+15,-281
124664,16.652,-8.155,4.887,2.320845,0.471766,-5.821366,100261.15,-85,+23,-280
124675,17.201,-8.617,6.802,2.262313,0.565417,-5.945880,100261.15,-85,+33,-281
124685,17.243,-9.702,8.148,2.335744,0.611711,-6.074118,100262.31,-84,+42,-280
124694,16.641,-11.968,8.455,2.501762,0.615968,-6.061347,100265.66,-83,+50,-282
124704,16.842,-14.871,7.095,2.555506,0.610115,-5.893733,100261.53,-83,+50,-282
124715,18.403,-18.185,4.485,2.345322,0.571271,-5.553183,100262.47,-80,+58,-282
124725,18.056,-19.901,1.658,2.052130,0.477619,-5.054064,100262.47,-78,+65,-282
124735,14.599,-19.483,2.323,1.789799,0.433986,-4.375624,100267.78,-76,+71,-283
124744,9.632,-23.838,6.498,1.949432,0.494647,-3.458267,100265.58,-76,+71,-283
124754,4.815,-28.730,7.890,1.545029,0.399399,-2.506322,100262.55,-76,+73,-283
124765,1.771,-29.133,5.297,0.373323,0.320115,-1.416029,100262.59,-75,+75,-282
124775,2.111,-25.557,3.579,-0.451447,0.463784,-0.007003,100262.59,-77,+76,-281
124784,6.914,-22.264,4.891,-0.420052,0.534555,1.384464,100266.74,-77,+76,-281
124794,8.598,-19.560,2.000,0.000846,0.235509,2.375252,100270.57,-80,+71,-280
124805,11.410,-12.901,1.381,0.159947,-0.107169,3.355399,100264.55,-83,+64,-280
124810,18.431,2.239,0.967,-0.004475,-0.602564,3.383068,100264.02,-83,+64,-280
124819,26.853,25.060,-5.925,-0.595649,-1.111260,2.253932,100264.02,-83,+57,-282
124829,25.989,28.414,-19.454,-1.250676,-0.467940,0.901841,100264.02,-81,+58,-283
124839,21.418,-4.271,-7.505,0.677158,0.074812,2.952060,100276.03,-81,+58,-283
124850,16.215,-23.720,16.120,3.890569,-0.237536,4.244022,100266.66,-85,+44,-283
124860,8.564,-22.767,9.366,3.029615,-0.283298,3.727875,100265.27,-86,+24,-285
124870,11.714,-6.169,4.587,1.768515,0.498372,3.380940,100265.27,-88,+11,-283
124879,7.571,2.565,5.196,3.094532,0.386629,3.468206,100264.36,-89,+11,-283
124890,-2.664,-0.622,13.086,4.271559,0.052996,2.725913,100264.36,-89,-6,-281
124900,-1.111,-10.548,8.542,3.380808,-0.652050,2.513069,100266.67,-87,-23,-281
124909,9.362,-20.770,0.075,0.559562,-0.414729,2.552977,100264.67,-84,-32,-282
124919,14.360,-16.845,0.707,-2.050437,0.290849,1.981491,100266.30,-85,-29,-282
124930,13.433,-6.826,3.546,-3.495647,0.699509,1.391914,100266.30,-85,-29,-282
124940,9.037,-0.927,3.654,-3.978802,0.697381,1.296666,100267.31,-88,-23,-282
124950,6.268,0.514,1.570,-3.214693,0.668647,1.197694,100267.53,-88,-16,-281
124959,7.134,0.616,1.143,-1.882822,0.606922,1.076905,100267.27,-89,-15,-280
124969,9.872,2.135,1.967,-0.310970,0.485601,1.069455,100265.45,-89,-15,-280
124980,9.492,-0.687,3.447,0.950662,0.298830,1.129584,100266.87,-90,-20,-279
124990,9.711,-3.478,3.523,1.354534,0.078537,1.142354,100267.65,-89,-26,-279
125000,8.797,-4.694,2.297,1.133176,0.088115,1.071052,100267.60,-89,-33,-278
125009,8.404,-5.231,3.286,0.572865,0.259454,0.956116,100267.60,-89,-33,-278
125020,8.372,-5.615,4.762,-0.125264,0.342463,0.783712,100263.93,-90,-33,-277
125030,7.876,-6.188,6.092,-0.980364,0.493583,0.551712,100263.93,-90,-34,-275
125040,8.184,-5.854,6.240,-2.104712,0.689399,0.298960,100265.18,-92,-29,-275
125045,8.629,-3.198,5.710,-2.690565,0.778793,0.138263,100268.59,-92,-29,-275
125054,8.857,-0.373,4.622,-2.698014,0.769215,0.093566,100267.96,-94,-21,-275
125065,9.434,1.061,2.560,-2.069061,0.635656,0.192538,100267.13,-94,-21,-275
125075,10.546,0.884,0.777,-1.037300,0.455271,0.415492,100267.13,-94,-18,-274
125084,10.347,-1.528,1.105,-0.086420,0.354702,0.658667,100267.55,-96,-19,-274
125094,9.407,-4.505,2.430,0.274883,0.353106,0.780520,100270.06,-97,-21,-272
125105,8.627,-5.743,3.821,-0.116750,0.463252,0.789566,100266.34,-97,-21,-272
125115,8.281,-4.625,5.038,-0.803171,0.582977,0.698043,100264.50,-97,-23,-271
125124,8.811,-2.640,5.379,-1.279410,0.619693,0.624079,100264.50,-99,-22,-270
125134,9.485,-1.740,5.163,-1.383171,0.574995,0.654410,100266.68,-99,-21,-270
125145,9.741,-1.389,4.694,-1.243758,0.448353,0.774134,100266.79,-99,-21,-270
125155,9.714,-2.075,3.265,-1.018144,0.258922,0.911951,100264.85,-100,-20,-269
125165,9.872,-3.229,2.001,-0.779226,0.172188,1.043382,100268.05,-101,-21,-269
125174,9.991,-4.483,1.627,-0.754217,0.173252,1.120006,100268.05,-101,-22,-269
125185,10.058,-4.378,1.953,-0.836162,0.188152,1.184391,100266.32,-100,-23,-268
125195,10.285,-3.833,2.502,-0.893630,0.159950,1.234941,100270.15,-100,-23,-268
125205,10.385,-3.437,3.167,-0.876070,0.091840,1.286024,100263.70,-101,-25,-268
125214,10.043,-2.951,3.243,-0.809557,0.023198,1.348281,100265.37,-100,-26,-268
125224,9.669,-2.878,3.245,-0.733997,-0.005536,1.429694,100265.37,-99,-28,-267
125235,9.718,-2.874,3.119,-0.672272,-0.046509,1.544097,100266.71,-99,-28,-267
125245,10.170,-2.983,3.063,-0.615337,-0.095463,1.694152,100270.01,-99,-31,-269
125255,10.868,-3.157,3.365,-0.608419,-0.165169,1.878262,100268.85,-97,-35,-270
125264,11.452,-2.955,4.012,-0.575960,-0.213591,2.027253,100263.73,-95,-39,-270
125275,12.970,-3.853,4.117,-0.567447,-0.229555,2.171454,100263.73,-95,-39,-270
125281,13.537,-4.723,3.531,-0.687703,-0.237536,2.315656,100271.25,-93,-42,-271
125290,13.821,-4.896,3.010,-0.916511,-0.224766,2.428463,100271.25,-93,-42,-271
125300,14.193,-4.443,2.420,-1.206511,-0.208270,2.531161,100266.42,-91,-47,-272
125309,14.761,-3.873,2.403,-1.395410,-0.190711,2.566280,100268.05,-88,-50,-272
125320,16.121,-3.324,2.730,-1.606125,-0.176876,2.619491,100265.69,-87,-53,-274
125330,18.180,-2.076,3.168,-2.018510,-0.088546,2.671638,100265.97,-87,-53,-274
125340,19.846,0.187,3.924,-2.547959,0.000317,2.712610,100267.91,-83,-54,-275
125350,21.269,2.643,4.588,-2.853390,0.038097,2.790298,100264.61,-81,-53,-277
125360,22.833,5.294,5.752,-2.955555,0.116849,2.854683,100264.61,-78,-53,-279
125370,22.050,6.771,6.851,-2.871482,0.223271,2.877032,100264.56,-78,-53,-279
125380,18.699,4.621,8.432,-2.521886,0.305748,2.952060,100264.56,-77,-52,-279
125389,15.267,-3.986,8.225,-1.853556,0.174849,3.175014,100268.55,-75,-54,-280
125400,16.106,-13.580,8.638,-1.057520,-0.137500,3.640610,100266.51,-72,-60,-281
125410,18.790,-12.460,9.551,-0.994199,-0.253500,3.654976,100264.52,-67,-66,-282
125420,17.635,-4.159,10.818,-0.951098,-0.243922,3.337839,100264.73,-67,-66,-282
125430,15.286,1.835,8.836,-0.464750,-0.408876,2.922261,100264.73,-62,-70,-282
125440,12.712,5.765,5.827,0.206241,-0.730270,2.220408,100266.86,-58,-78,-283
125450,7.304,6.054,3.032,0.503158,-0.859040,1.640409,100266.63,-55,-81,-283
125460,0.143,-0.209,3.931,1.060277,-0.556270,1.621253,100263.70,-55,-81,-283
125470,-2.241,-6.606,7.935,1.966992,-0.029481,1.477051,100263.70,-52,-89,-280
125479,1.539,-6.646,8.643,1.808955,-0.173683,0.532557,100263.70,-52,-97,-277
125490,3.655,-5.678,4.896,0.782516,-0.635022,-0.344893,100267.15,-51,-96,-278
125500,3.319,-2.896,1.103,-0.728144,-0.686105,-1.023865,100258.91,-51,-96,-278
125510,3.061,-0.441,-1.036,-2.029152,-0.512105,-1.461259,100268.77,-52,-89,-280
125519,2.677,2.419,-2.524,-2.565519,-0.418454,-1.875240,100267.24,-53,-79,-284
125530,1.980,4.267,-1.888,-2.337244,-0.278509,-2.180139,100267.24,-54,-69,-287
125540,1.812,5.089,-0.203,-1.232052,-0.163041,-2.466414,100261.18,-54,-69,-287
125550,2.295,5.244,1.008,0.027984,-0.156656,-2.823460,100263.70,-56,-64,-287
125560,2.363,3.185,2.512,0.955984,-0.089078,-3.125698,100262.46,-60,-58,-287
125570,2.454,0.190,3.409,1.402424,0.045014,-3.346524,100262.46,-63,-55,-286
125580,3.246,-2.092,3.561,1.320479,0.253069,-3.624817,100264.17,-63,-55,-286
125590,4.513,-3.160,3.168,0.834130,0.476555,-3.956854,100262.59,-67,-48,-284
125600,4.813,-1.258,2.741,0.283929,0.672371,-4.350083,100262.59,-72,-41,-283
125609,5.270,1.475,2.278,0.127489,0.777197,-4.698082,100263.70,-78,-29,-283
125620,6.448,1.946,1.804,0.486131,0.832004,-4.886449,100259.92,-78,-29,-283
125630,7.949,1.141,2.139,1.111359,0.894261,-5.102486,100259.92,-82,-19,-280
125640,9.644,-0.086,2.414,1.616864,0.914481,-5.288724,100262.78,-87,-11,-279
125650,10.753,-1.246,1.905,2.026056,0.868188,-5.390357,100260.42,-90,-2,-278
125660,11.206,-2.570,1.290,2.450148,0.840518,-5.477623,100262.56,-90,-2,-278
125670,11.658,-3.912,1.126,2.914680,0.832537,-5.539348,100259.31,-92,+4,-275
125680,13.237,-4.899,1.496,3.167964,0.769215,-5.600008,100263.20,-96,+11,-274
125690,15.855,-6.107,2.787,3.176477,0.569674,-5.677697,100260.44,-97,+19,-274
125700,18.089,-8.968,4.791,3.088679,0.346188,-5.714412,100263.27,-97,+19,-274
125710,19.189,-11.466,6.318,2.822092,0.121638,-5.854357,100263.27,-97,+25,-274
125720,18.749,-11.918,7.313,2.558698,0.004042,-6.031017,100261.27,-95,+36,-275
125730,17.873,-12.091,7.449,2.567744,-0.013518,-6.074650,100261.27,-94,+45,-275
125740,17.638,-13.785,7.600,2.724716,0.024262,-5.913953,100266.00,-94,+45,-275
125751,17.744,-18.559,6.945,2.839120,0.100886,-5.410932,100265.53,-90,+54,-277
125760,16.141,-21.352,5.350,2.537946,0.186555,-4.918376,100265.53,-88,+60,-279
125770,12.439,-21.682,4.530,1.944111,0.260519,-4.309110,100265.84,-85,+66,-280
125780,9.031,-25.759,6.451,1.824919,0.388225,-3.400799,100265.84,-85,+66,-280
125790,4.761,-29.585,7.376,1.298130,0.254665,-2.423845,100268.93,-84,+70,-280
125800,1.250,-30.857,5.947,0.034902,0.259986,-1.260653,100267.87,-83,+74,-280
125810,2.089,-27.413,5.286,-1.248547,0.530298,0.087713,100267.09,-85,+76,-277
125820,8.390,-22.000,6.994,-1.616235,0.609582,1.257290,100267.09,-85,+76,-277
125830,8.619,-16.644,3.723,-1.211300,0.256262,2.114519,100267.09,-88,+77,-274
125840,10.370,-9.855,1.603,-0.733465,-0.087481,3.086151,100266.86,-91,+71,-275
125850,18.853,10.310,-1.431,-0.673337,-0.708985,2.950463,100264.45,-91,+65,-275
125860,25.799,32.558,-10.262,-0.920768,-0.938325,1.486097,100268.02,-91,+65,-275
125870,22.834,18.475,-14.021,-0.290750,-0.142821,1.447253,100269.27,-91,+64,-275
125880,20.611,-11.633,6.487,2.746001,-0.058747,3.669876,100269.27,-94,+54,-277
125890,11.008,-26.666,15.143,4.705761,-0.223701,3.983820,100265.97,-95,+30,-279
125900,7.547,-19.695,5.566,3.252037,0.292445,3.385197,100264.81,-97,+30,-276
125911,11.573,-4.125,3.803,2.475689,0.763894,3.470866,100267.08,-97,+15,-276
125920,4.128,-0.629,7.883,3.326000,0.410573,2.912683,100267.08,-100,+0,-275
125930,-0.939,-7.550,11.341,3.117413,-0.094931,2.421014,100267.63,-99,-15,-274
125940,5.944,-17.639,1.999,0.850094,-0.470068,2.476353,100273.75,-98,-22,-274
125949,12.115,-17.172,0.473,-2.051501,0.281271,2.128354,100273.75,-98,-22,-274
125960,12.991,-7.897,3.195,-3.381243,0.617564,1.476519,100267.94,-99,-19,-274
125970,10.547,-1.032,3.713,-3.713280,0.635656,1.350409,100266.05,-99,-13,-274
125980,8.058,-0.392,2.165,-3.106674,0.554775,1.303584,100266.05,-101,-11,-273
125990,7.635,0.116,0.833,-2.066932,0.524977,1.226428,100266.62,-101,-11,-273
126001,8.570,1.416,1.987,-0.895758,0.578720,1.168428,100269.02,-101,-9,-273
126010,9.303,-0.264,3.579,0.306277,0.396739,1.165767,100266.55,-102,-13,-271
126020,9.720,-2.164,2.947,1.017176,0.193473,1.181730,100267.55,-102,-19,-270
126030,9.183,-4.475,2.884,0.977800,0.227528,1.144483,100269.49,-102,-19,-270
126041,8.696,-6.010,3.901,0.322241,0.290317,1.020501,100267.76,-103,-23,-270
126050,8.507,-5.558,5.667,-0.632364,0.377583,0.786905,100265.93,-104,-25,-269
126060,7.914,-5.692,7.094,-1.565153,0.516995,0.492116,100265.77,-104,-22,-267
126070,7.953,-4.382,6.452,-2.370235,0.630335,0.223933,100265.77,-104,-22,-267
126081,8.239,-0.910,4.801,-2.514968,0.642573,0.087181,100265.77,-106,-15,-267
126090,8.895,1.112,2.284,-1.951464,0.524445,0.162208,100267.42,-106,-12,-265
126100,10.000,1.027,0.488,-0.985685,0.326500,0.389951,100267.31,-107,-11,-265
126110,10.176,-1.189,0.528,-0.000218,0.144519,0.624079,100266.02,-107,-11,-265
126120,9.699,-4.210,2.346,0.472828,0.086519,0.751254,100267.11,-108,-13,-265
126131,8.898,-5.733,3.987,0.224333,0.168996,0.770942,100267.11,-108,-17,-265
126140,8.224,-5.048,4.969,-0.366309,0.311601,0.678355,100269.82,-109,-17,-264
126150,8.205,-3.777,5.045,-0.857446,0.432922,0.594813,100267.88,-109,-17,-264
126160,8.611,-2.900,4.223,-1.138401,0.527106,0.593749,100266.57,-110,-17,-263
126171,9.052,-2.469,3.589,-1.204382,0.565417,0.659199,100266.57,-110,-16,-262
126180,9.315,-2.261,2.722,-1.113923,0.514335,0.772006,100266.57,-111,-16,-260
126190,9.608,-2.331,1.957,-0.910657,0.458463,0.901309,100267.00,-111,-16,-260
126200,10.175,-2.943,1.952,-0.698346,0.381840,1.016244,100267.36,-113,-16,-260
126211,10.424,-3.724,2.159,-0.622254,0.253069,1.105107,100267.52,-112,-19,-260
126221,10.347,-3.735,2.754,-0.639814,0.195601,1.196097,100266.38,-112,-20,-259
126230,9.999,-3.906,3.306,-0.689832,0.198262,1.245052,100266.38,-112,-20,-259
126240,9.897,-3.906,3.362,-0.767520,0.188152,1.284960,100268.80,-113,-21,-259
126251,9.757,-3.406,3.598,-0.831373,0.178041,1.348281,100267.49,-112,-23,-259
126261,9.702,-3.083,3.791,-0.875006,0.103014,1.424372,100266.65,-113,-26,-259
126270,9.969,-2.902,3.607,-0.830309,0.013620,1.541437,100264.12,-113,-26,-259
126280,10.912,-3.179,3.704,-0.758474,-0.059812,1.669143,100270.30,-111,-29,-260
126290,12.224,-3.817,3.650,-0.770713,-0.154527,1.822391,100268.95,-111,-33,-259
126300,13.136,-4.107,3.440,-0.886180,-0.203481,1.935730,100268.95,-109,-37,-260
126310,13.553,-3.502,3.362,-1.005905,-0.261481,2.017675,100266.63,-109,-37,-260
126320,13.915,-2.752,2.963,-1.117116,-0.390784,2.209766,100268.95,-107,-39,-261
126330,14.112,-2.760,2.691,-1.133612,-0.504123,2.455069,100268.95,-105,-42,-263
126341,14.291,-3.392,3.049,-1.121373,-0.552013,2.611509,100268.90,-102,-47,-265
126350,14.861,-3.798,3.651,-1.281538,-0.529664,2.680151,100269.48,-102,-47,-265
126360,16.387,-3.260,4.186,-1.670510,-0.392912,2.687069,100267.49,-99,-51,-267
126370,18.458,-0.885,5.087,-2.288290,-0.218912,2.657803,100267.54,-95,-53,-269
126381,20.053,2.807,6.227,-2.796454,-0.110894,2.688133,100267.54,-93,-54,-270
126391,21.853,5.870,6.870,-2.863500,-0.139096,2.861069,100266.32,-91,-54,-270
126400,22.331,6.964,7.075,-2.539445,-0.154527,3.090940,100265.43,-91,-54,-272
126410,19.928,3.744,7.789,-2.008400,-0.150802,3.358591,100264.70,-87,-56,-275
126420,17.364,-3.533,8.454,-1.415098,-0.296600,3.588995,100264.70,-83,-62,-276
126430,18.205,-10.885,7.878,-1.333153,-0.404087,3.750224,100264.70,-79,-62,-276
126440,21.719,-10.193,8.205,-1.248015,-0.412600,3.745435,100267.66,-79,-68,-277
126450,20.347,-4.390,9.113,-0.708988,-0.589261,3.617729,100269.55,-73,-73,-280
126455,16.970,-0.852,9.095,-0.173685,-0.738784,3.434151,100266.98,-73,-73,-280
126466,15.115,2.403,7.654,0.493048,-0.934068,3.090408,100262.74,-69,-81,-280
126475,11.610,4.424,2.591,1.166167,-1.192673,2.556170,100262.74,-62,-90,-281
126485,4.831,2.177,2.885,1.462020,-0.883517,2.150170,100263.95,-57,-98,-280
126495,-0.152,-4.384,4.251,1.897286,-0.491885,1.823455,100267.35,-57,-98,-280
126505,0.128,-6.607,4.862,1.598240,-0.443995,1.016776,100264.26,-55,-107,-277
126516,1.990,-5.547,3.280,0.241892,-0.721756,0.174979,100263.05,-53,-110,-277
126525,2.915,-1.639,0.215,-1.173520,-0.863297,-0.563590,100263.05,-50,-105,-280
126535,3.272,2.497,-0.535,-2.045115,-0.575958,-1.215956,100269.25,-50,-105,-280
126545,2.405,4.697,0.239,-1.909960,-0.401426,-1.576727,100266.06,-52,-97,-284
126556,1.661,5.801,0.279,-0.983024,-0.403554,-1.819901,100261.86,-54,-89,-286
126565,1.521,5.043,1.251,0.132810,-0.372160,-2.145020,100266.80,-55,-84,-286
126575,1.223,2.797,2.465,1.080497,-0.344490,-2.533460,100266.80,-55,-84,-286
126585,0.965,0.075,3.076,1.434350,-0.248711,-2.863368,100263.45,-59,-83,-284
126596,1.419,-1.808,2.916,1.238534,-0.074179,-3.207111,100263.07,-62,-79,-284
126605,2.678,-2.275,2.413,0.670773,0.159950,-3.617368,100259.87,-66,-74,-282
126615,3.823,-1.194,1.896,0.010957,0.373858,-4.016982,100259.30,-66,-74,-282
126625,4.627,0.785,1.727,-0.301392,0.532959,-4.383605,100259.30,-72,-64,-282
126636,5.272,2.394,1.708,-0.072585,0.586702,-4.711917,100264.27,-78,-51,-282
126646,6.763,2.276,1.731,0.513800,0.572867,-4.962541,100262.49,-82,-40,-279
126655,8.057,1.059,1.712,1.137433,0.594683,-5.193477,100261.20,-82,-40,-279
126665,8.976,-0.757,1.782,1.481708,0.621821,-5.354174,100263.76,-87,-29,-277
126675,9.982,-2.589,1.527,1.656772,0.629271,-5.501036,100263.76,-92,-19,-277
126686,10.993,-3.562,1.509,1.791396,0.616500,-5.645238,100264.09,-95,-9,-276
126691,11.627,-3.981,1.424,1.919634,0.567014,-5.738357,100266.34,-95,-9,-276
126700,12.074,-4.585,1.532,2.090974,0.524445,-5.789440,100266.34,-97,+1,-274
126710,13.020,-5.643,2.607,2.259120,0.496775,-5.780394,100261.48,-100,+12,-274
126721,14.512,-7.069,4.108,2.194203,0.463784,-5.770284,100256.23,-100,+12,-274
126731,16.141,-7.986,5.892,1.954754,0.416427,-5.903311,100256.23,-100,+23,-275
126741,17.746,-9.017,7.257,1.930276,0.342996,-6.090614,100260.03,-99,+36,-274
126750,18.695,-10.865,7.514,2.264441,0.290317,-6.202889,100260.30,-96,+47,-276
126760,18.500,-13.377,7.088,2.542735,0.273289,-6.136907,100258.92,-96,+47,-276
126771,17.607,-16.145,6.232,2.561359,0.263711,-5.900118,100258.92,-94,+57,-277
126780,17.462,-19.195,4.879,2.337873,0.234445,-5.469642,100258.92,-90,+66,-277
126790,16.720,-20.767,3.680,1.932937,0.221142,-4.932211,100264.53,-87,+75,-279
126800,13.705,-20.028,4.204,1.568442,0.274885,-4.329863,100261.80,-87,+75,-279
126811,9.607,-23.799,7.295,1.616864,0.386096,-3.489129,100262.86,-85,+80,-279
126820,5.462,-28.464,7.901,1.204479,0.380243,-2.590928,100263.91,-82,+84,-280
126830,2.178,-29.249,6.204,0.092369,0.408977,-1.598011,100263.91,-81,+88,-280
126840,2.295,-26.410,4.047,-0.861703,0.538280,-0.361920,100263.45,-81,+88,-280
126851,5.705,-22.907,3.622,-1.152235,0.605326,0.925786,100265.33,-83,+91,-278
126861,10.265,-18.621,4.130,-0.890969,0.424940,1.946372,100267.06,-87,+90,-275
126870,10.400,-13.276,1.416,-0.533392,0.021601,2.638647,100267.06,-90,+84,-275
126880,13.425,-1.156,2.578,-0.214126,-0.362050,3.129252,100271.79,-90,+84,-275
126891,23.373,23.993,-1.284,-0.157722,-0.933004,2.301289,100271.79,-92,+77,-275
126901,24.122,32.659,-13.202,-0.681318,-0.573298,0.743272,100270.73,-91,+74,-278
126910,19.046,4.236,-8.985,0.706956,0.000317,2.254464,100270.52,-94,+69,-277
126920,15.624,-19.507,14.450,4.131083,-0.074179,4.045013,100267.80,-95,+44,-279
126926,11.643,-29.278,13.618,4.701504,-0.236472,4.022664,100267.80,-95,+44,-279
126936,11.172,-22.463,5.012,3.070588,0.119509,3.405417,100268.80,-98,+29,-280
126946,13.708,-4.508,1.915,1.636552,0.619693,3.220775,100266.98,-98,+29,-280
126955,4.828,1.260,4.825,2.722056,0.419619,2.979729,100266.09,-101,+15,-279
126965,-0.972,-3.269,10.980,3.235542,-0.030546,2.442298,100261.21,-101,+0,-278
126976,3.094,-12.571,5.338,1.904735,-0.544564,2.408243,100261.21,-101,-10,-278
126986,10.481,-16.858,0.815,-0.529135,-0.104509,2.217748,100269.16,-101,-10,-278
126996,11.704,-11.215,1.686,-2.257427,0.394610,1.603693,100267.18,-99,-12,-279
127005,11.434,-4.072,3.226,-3.103482,0.683546,1.341363,100268.54,-101,-8,-278
127015,8.951,-1.254,3.675,-3.172656,0.653216,1.250373,100271.26,-103,-3,-277
127026,7.737,-0.989,2.184,-2.480381,0.508482,1.142886,100271.26,-103,-3,-277
127036,8.276,0.804,1.706,-1.475758,0.447821,1.040721,100265.95,-103,-1,-276
127045,9.478,1.349,2.636,-0.210401,0.373326,1.011987,100267.10,-104,-2,-275
127055,9.586,-0.900,3.067,0.851690,0.219014,1.051364,100266.37,-104,-7,-275
127066,8.961,-3.080,2.872,1.237470,0.172188,1.050831,100269.93,-104,-7,-275
127076,8.275,-4.644,2.420,1.015048,0.279142,0.955584,100269.93,-104,-13,-274
127085,8.578,-5.587,2.919,0.455800,0.413766,0.818299,100267.45,-106,-19,-272
127095,8.921,-6.069,4.275,-0.235942,0.515399,0.642171,100266.30,-108,-19,-270
127106,8.585,-6.388,5.316,-1.036235,0.618628,0.426135,100268.03,-108,-19,-270
127116,8.212,-5.569,5.546,-1.973813,0.741546,0.217548,100265.36,-108,-17,-270
127125,8.532,-2.505,5.181,-2.589464,0.818702,0.079731,100265.36,-109,-11,-268
127135,8.997,0.157,3.951,-2.448987,0.770280,0.077603,100267.00,-111,-5,-267
127145,9.717,1.046,2.497,-1.708290,0.634592,0.193603,100266.84,-111,-5,-267
127156,10.287,0.497,1.865,-0.810621,0.467509,0.408043,100269.20,-112,-3,-265
127161,10.370,-0.497,2.413,-0.286493,0.322243,0.585235,100268.16,-113,-3,-265
127170,9.815,-1.776,3.362,-0.054493,0.153032,0.714538,100268.16,-113,-3,-265
127180,8.734,-2.859,4.072,-0.103447,0.063106,0.819896,100268.16,-113,-5,-265
127191,8.163,-3.102,4.488,-0.505190,0.153564,0.858740,100267.99,-114,-6,-264
127201,8.460,-2.571,4.806,-0.968125,0.251473,0.852887,100269.62,-115,-8,-264
127211,9.055,-1.490,4.257,-1.112859,0.265307,0.910887,100265.95,-115,-8,-264
127220,9.563,-1.390,3.458,-0.942584,0.246152,1.025290,100265.95,-115,-7,-264
127230,9.694,-2.100,2.837,-0.651520,0.208904,1.139162,100265.95,-115,-9,-262
127241,9.823,-3.434,2.696,-0.402493,0.209436,1.248244,100265.95,-115,-12,-262
127251,9.940,-4.852,2.418,-0.487630,0.222739,1.297198,100265.84,-115,-12,-262
127260,10.386,-4.686,2.304,-0.723355,0.209436,1.341895,100267.78,-116,-14,-261
127270,10.638,-3.907,2.408,-0.803171,0.164739,1.379675,100266.84,-115,-17,-262
127281,10.498,-3.325,2.797,-0.793061,0.120042,1.444061,100266.84,-115,-19,-262
127291,10.092,-2.809,2.441,-0.747832,0.070555,1.539308,100269.91,-115,-19,-262
127301,10.116,-2.910,2.236,-0.641410,0.032243,1.656372,100268.55,-115,-22,-261
127310,10.218,-3.185,2.605,-0.528071,-0.015646,1.790996,100267.87,-114,-25,-261
127321,10.769,-3.428,3.361,-0.451979,-0.057683,1.927748,100265.93,-113,-30,-261
127331,11.465,-3.649,4.030,-0.458896,-0.088546,2.060244,100265.24,-113,-30,-261
127341,12.605,-4.271,4.247,-0.512639,-0.095995,2.173051,100269.60,-113,-35,-262
127350,13.687,-5.335,3.712,-0.741979,-0.115151,2.302886,100261.52,-110,-40,-262
127361,14.209,-5.270,2.860,-1.077208,-0.122601,2.434849,100261.52,-109,-44,-263
127371,14.367,-4.441,2.461,-1.336877,-0.118344,2.542335,100264.73,-109,-44,-263
127381,14.606,-4.034,2.466,-1.487997,-0.115683,2.632794,100264.73,-106,-48,-265
127390,15.643,-3.725,3.209,-1.637519,-0.101848,2.693454,100266.14,-105,-52,-265
127396,17.157,-3.311,3.775,-1.837061,-0.071518,2.726445,100269.02,-105,-52,-265
127406,19.008,-2.067,4.421,-2.176015,-0.000215,2.746133,100267.14,-102,-55,-267
127416,21.349,0.470,5.498,-2.712381,0.075876,2.782849,100265.94,-100,-55,-269
127426,22.284,3.478,6.352,-3.095500,0.142922,2.844041,100265.94,-97,-56,-271
127435,21.734,5.286,7.133,-3.168931,0.200390,2.948335,100269.96,-97,-56,-271
127446,20.553,6.712,7.963,-2.824124,0.217418,3.015913,100262.32,-95,-56,-272
127456,17.533,2.839,9.120,-2.305849,0.172188,3.104243,100264.35,-94,-58,-274
127466,15.217,-6.289,8.672,-1.447556,-0.156123,3.382004,100263.88,-89,-63,-275
127475,16.209,-12.331,6.872,-1.017079,-0.381738,3.573032,100263.88,-89,-63,-275
127485,17.034,-9.850,8.646,-0.507318,-0.449848,3.560793,100266.84,-85,-69,-277
127496,15.411,-3.900,8.409,-0.226896,-0.760600,3.344224,100268.38,-80,-77,-279
127506,12.568,1.168,4.216,0.120571,-1.026123,2.896720,100262.77,-73,-84,-281
127516,8.162,3.246,3.858,0.282333,-0.938325,2.352372,100264.81,-73,-84,-281
127525,2.648,0.810,4.643,0.944277,-0.864894,1.846868,100264.81,-69,-89,-281
127536,-0.629,-1.647,6.051,1.567378,-0.723885,1.283895,100265.55,-64,-97,-281
127546,0.435,-2.878,5.306,1.505653,-0.678123,0.706024,100266.18,-62,-102,-280
127556,2.836,-3.004,3.535,0.902240,-0.614270,0.186685,100262.40,-62,-102,-280
127565,3.657,-2.425,0.838,0.027984,-0.645664,-0.359792,100263.66,-61,-103,-280
127576,3.137,-1.820,-0.189,-0.903740,-0.602564,-0.826984,100263.66,-60,-99,-283
127586,2.603,-0.440,-0.806,-1.588565,-0.593518,-1.240965,100263.06,-59,-92,-285
127596,1.994,1.660,-1.358,-1.687006,-0.593518,-1.711882,100262.38,-59,-92,-285
127605,1.740,3.458,-0.629,-1.103813,-0.433885,-2.166304,100262.53,-59,-82,-289
127616,2.065,3.979,0.605,-0.258291,-0.255628,-2.504726,100261.48,-61,-76,-290
127626,2.385,2.651,1.895,0.450479,-0.112490,-2.746836,100261.48,-62,-70,-290
127632,2.679,0.726,2.403,0.816039,-0.025757,-2.926689,100262.57,-62,-70,-290
127641,3.063,-1.155,2.652,0.911286,0.084922,-3.141129,100262.57,-67,-66,-288
127651,3.748,-2.461,2.643,0.638846,0.289785,-3.465184,100260.41,-70,-58,-288
127661,4.513,-1.623,2.265,0.093966,0.524445,-3.786046,100260.15,-70,-58,-288
127671,5.271,0.769,1.908,-0.233814,0.685142,-4.107973,100259.48,-74,-47,-286
127681,6.112,2.143,1.677,0.035966,0.742078,-4.371899,100260.06,-77,-37,-284
127691,7.276,1.533,1.780,0.706956,0.735693,-4.586339,100256.08,-83,-27,-283
127700,8.257,0.106,1.979,1.392313,0.738353,-4.815146,100261.53,-83,-27,-283
127711,9.068,-1.237,2.157,1.773836,0.782518,-5.024266,100261.53,-85,-17,-282
127721,9.969,-2.273,2.062,1.916974,0.795289,-5.178577,100258.86,-88,-9,-279
127731,10.633,-3.123,1.835,1.975506,0.760170,-5.312669,100258.86,-89,+1,-277
127740,11.045,-4.055,1.635,2.039891,0.669179,-5.418027,100260.22,-89,+1,-277
127751,11.619,-4.710,1.615,2.151102,0.591491,-5.521256,100264.09,-90,+11,-276
127761,12.882,-5.672,1.925,2.066497,0.536683,-5.585109,100259.02,-89,+20,-275
127771,14.416,-6.816,2.805,1.824387,0.498904,-5.636724,100261.22,-87,+33,-275
127781,15.524,-7.332,3.961,1.586534,0.499968,-5.723990,100261.22,-87,+33,-275
127791,16.331,-7.559,6.002,1.581745,0.516995,-5.836797,100265.53,-84,+43,-275
127801,17.166,-9.180,7.286,1.897286,0.477619,-5.849568,100262.94,-82,+54,-276
127811,17.356,-12.394,7.622,2.195799,0.394078,-5.779861,100266.02,-76,+64,-277
127821,17.026,-15.966,7.211,2.273487,0.324904,-5.628211,100266.02,-76,+64,-277
127831,16.721,-19.135,6.014,2.202717,0.282867,-5.336614,100266.02,-72,+71,-279
127841,15.259,-20.959,4.429,1.960607,0.270096,-4.921568,100266.37,-66,+78,-281
127851,12.140,-20.410,3.267,1.508845,0.283399,-4.360725,100266.32,-62,+82,-282
127861,8.730,-22.807,5.954,1.256626,0.481876,-3.493918,100267.05,-62,+82,-282
127870,5.614,-28.427,7.561,0.821360,0.572335,-2.562194,100269.77,-59,+86,-284
127881,2.933,-29.765,6.954,-0.360456,0.598408,-1.651754,100269.77,-58,+89,-282
127891,4.402,-26.998,4.391,-1.366143,0.680885,-0.580085,100265.82,-58,+93,-280
127901,6.189,-23.289,2.904,-1.576859,0.657472,0.733162,100266.80,-58,+93,-280
127911,8.791,-19.591,1.271,-0.966529,0.290317,2.017675,100265.16,-60,+94,-277
127921,17.489,-4.969,-1.233,-0.644071,-0.406747,2.867986,100265.16,-62,+89,-277
127931,31.913,30.056,-7.279,-0.618529,-1.433719,2.111858,100269.37,-61,+85,-279
127941,28.604,31.384,-17.636,-0.469539,-0.477518,0.889602,100269.46,-61,+85,-280
127950,14.378,-9.462,2.002,2.076075,0.039161,3.034536,100269.46,-61,+83,-280
127961,9.131,-25.153,15.362,5.174550,-0.366839,4.047142,100267.59,-65,+62,-284
127971,11.943,-24.488,4.227,3.175413,-0.039059,3.815674,100264.54,-67,+44,-285
127981,17.982,-5.538,0.287,1.196497,0.677693,3.615068,100264.54,-70,+31,-283
127991,6.381,5.465,3.654,2.688533,0.667582,3.241527,100272.18,-70,+31,-283
128002,-5.668,4.416,17.110,4.037431,0.499436,2.593417,100267.99,-73,+15,-282
128011,-3.567,-12.477,9.918,2.672037,-0.450380,2.664188,100264.43,-72,+1,-282
128021,7.919,-23.466,-1.561,-0.679190,-0.108766,2.562555,100263.48,-71,-1,-282
128031,14.923,-16.243,0.528,-3.292381,0.781986,1.765987,100269.20,-71,-1,-282
128041,16.421,-6.574,3.417,-4.389059,0.988445,1.257822,100267.98,-73,+6,-281
128051,11.344,0.411,3.565,-4.367774,0.829876,1.115217,100264.06,-76,+14,-280
128061,6.430,1.949,2.482,-3.036436,0.701105,0.972611,100264.06,-76,+19,-278
128071,6.884,3.034,1.178,-1.521520,0.576592,1.021033,100264.69,-76,+19,-278
128080,8.410,2.936,2.721,-0.114621,0.560628,1.155657,100264.69,-78,+19,-276
128091,9.132,-0.783,4.840,1.136901,0.294574,1.228024,100265.99,-80,+13,-276
128101,10.021,-3.697,3.395,1.604625,-0.081096,1.223235,100265.79,-80,+5,-275
128111,9.395,-5.652,2.339,1.281103,-0.064601,1.170556,100266.99,-80,+5,-275
128121,8.597,-6.580,3.447,0.430791,0.168463,1.023694,100265.21,-80,+0,-274
128132,8.368,-6.684,6.135,-0.581814,0.346188,0.761896,100265.21,-80,+0,-275
128141,8.027,-6.500,7.561,-1.707226,0.408977,0.458061,100265.88,-81,+3,-274
128151,7.877,-3.682,6.295,-2.595849,0.463252,0.173382,100267.72,-81,+3,-274
128161,7.946,-0.041,4.707,-2.735262,0.512739,0.024392,100267.77,-82,+11,-272
128172,9.026,2.038,2.475,-2.127593,0.407381,0.130814,100267.77,-84,+16,-272
128181,10.674,1.808,1.136,-1.066034,0.215821,0.400061,100267.77,-85,+16,-272
128191,10.664,-0.458,1.490,0.028516,0.022665,0.665052,100271.58,-85,+16,-272
128201,9.557,-3.658,2.820,0.538277,-0.082692,0.827877,100269.75,-84,+13,-272
128211,8.599,-5.657,3.969,0.246681,-0.044380,0.878960,100265.39,-85,+10,-272
128221,8.013,-4.722,4.814,-0.439208,0.094500,0.813510,100267.91,-84,+9,-270
128231,8.168,-2.796,5.084,-0.993134,0.201986,0.742208,100267.91,-84,+9,-270
128241,8.714,-1.821,4.769,-1.222474,0.223271,0.761896,100270.48,-85,+9,-270
128251,9.127,-1.293,3.814,-1.158621,0.196133,0.870446,100269.06,-84,+11,-270
128262,9.353,-1.777,2.899,-0.894694,0.162078,1.024226,100268.13,-86,+10,-270
128271,9.764,-2.784,2.042,-0.601502,0.093436,1.157786,100268.13,-86,+10,-270
128281,10.151,-4.096,1.433,-0.470071,0.038629,1.249840,100269.23,-86,+8,-270
128291,10.573,-5.019,1.605,-0.521685,0.023198,1.289217,100266.38,-85,+5,-270
128301,10.690,-4.998,2.127,-0.664823,0.025858,1.305712,100266.38,-85,+4,-270
128311,10.518,-4.672,2.578,-0.777630,0.028519,1.310501,100265.29,-85,+4,-270
128321,10.377,-4.661,2.632,-0.860107,0.031711,1.324336,100263.30,-86,+3,-269
128331,10.286,-4.557,2.445,-0.901612,0.031179,1.337106,100263.30,-85,+1,-269
128336,10.145,-4.330,2.413,-0.946309,0.017876,1.353602,100268.80,-85,+1,-269
128346,10.002,-3.774,2.423,-0.967061,0.001913,1.376483,100268.91,-85,+0,-269
128356,10.204,-2.889,2.603,-0.877667,-0.042784,1.471198,100268.17,-85,-1,-270
128366,10.744,-2.434,3.061,-0.685043,-0.134307,1.623914,100267.13,-84,-3,-270
128376,11.449,-2.372,3.658,-0.555740,-0.270527,1.829840,100267.13,-84,-3,-270
128387,12.059,-2.303,3.935,-0.420584,-0.355132,1.977234,100270.88,-83,-8,-270
128396,12.717,-3.145,3.844,-0.376419,-0.385995,2.152298,100268.48,-83,-12,-272
128406,13.686,-3.764,3.283,-0.550419,-0.422178,2.361950,100266.12,-80,-17,-273
128416,14.289,-3.895,2.712,-0.777098,-0.444527,2.542335,100266.07,-80,-17,-273
128427,14.588,-3.706,2.921,-0.962272,-0.440270,2.662060,100266.07,-78,-22,-274
128436,15.142,-3.637,3.484,-1.162345,-0.399298,2.741344,100266.40,-76,-26,-275
128446,16.569,-3.740,4.027,-1.495978,-0.262545,2.779124,100268.12,-74,-29,-277
128456,19.118,-2.148,4.775,-2.162180,-0.056087,2.760500,100267.18,-74,-29,-277
128466,20.999,1.953,6.019,-2.935335,0.066831,2.739748,100267.38,-72,-30,-277
128476,20.878,6.221,7.474,-3.052932,0.095564,2.816904,100267.38,-70,-29,-280
128486,19.589,6.591,7.966,-2.695354,0.194005,2.980261,100267.33,-67,-29,-281
128496,17.697,3.180,9.541,-2.425042,0.332353,3.060078,100267.84,-67,-29,-281
128506,15.560,-3.214,8.947,-2.025959,0.312133,3.122334,100266.33,-67,-32,-281
128517,16.763,-11.810,7.831,-1.523648,0.026922,3.461288,100264.70,-64,-36,-283
128526,19.809,-12.362,7.434,-1.580052,-0.165169,3.550151,100264.70,-61,-40,-285
128536,18.500,-5.560,9.404,-1.539079,-0.218912,3.282500,100267.28,-61,-40,-285
128546,16.198,0.549,8.224,-0.965465,-0.406215,2.964298,100263.66,-57,-46,-287
128557,14.005,4.576,5.699,-0.331190,-0.736123,2.374720,100265.03,-53,-51,-289
128566,9.498,6.114,1.369,0.110461,-0.981958,1.735657,100263.92,-47,-56,-291
128572,3.637,3.920,2.346,0.179635,-0.668545,1.488758,100263.92,-47,-56,-291
128581,-0.567,-2.937,2.909,0.705360,-0.301389,1.572299,100263.92,-44,-62,-292
128591,-1.744,-8.780,6.385,1.190112,0.261051,1.375418,100264.54,-43,-70,-290
128602,2.344,-9.016,8.059,1.196497,0.105142,0.646960,100265.07,-43,-70,-290
128612,3.527,-6.002,4.255,0.656406,-0.614270,-0.301259,100266.48,-41,-74,-290
128621,2.245,-3.127,0.638,-0.594584,-0.714839,-1.052066,100264.38,-40,-74,-292
128631,2.166,-0.687,-0.904,-2.096198,-0.397169,-1.499039,100266.31,-39,-66,-296
128642,1.734,2.225,-2.597,-2.820400,-0.241793,-1.935369,100266.89,-39,-66,-296
128651,1.481,5.668,-2.233,-2.626179,0.018409,-2.231754,100266.89,-40,-55,-299
128661,1.970,7.339,0.097,-1.440639,0.223803,-2.381809,100268.52,-42,-48,-300
128671,2.772,6.512,1.102,0.265305,0.173252,-2.658506,100262.53,-45,-46,-300
128681,1.715,3.503,2.098,1.604093,0.186555,-2.892102,100262.53,-45,-46,-300
128692,1.293,-0.368,3.581,1.941983,0.357362,-3.060249,100264.41,-46,-48,-299
128701,2.575,-3.293,3.039,1.448717,0.544665,-3.360891,100264.61,-51,-48,-297
128711,4.574,-2.607,2.182,0.763892,0.744738,-3.853092,100262.25,-55,-43,-295
128721,5.882,-0.262,1.635,0.426534,0.899582,-4.286762,100259.69,-55,-43,-295
128732,6.636,1.350,1.373,0.697910,0.981527,-4.545367,100259.69,-61,-37,-294
128742,7.207,0.964,1.496,1.333249,1.036867,-4.736927,100261.66,-67,-32,-290
128751,7.906,-0.587,1.309,1.898882,1.028353,-4.917844,100263.73,-73,-27,-288
128761,8.738,-1.323,0.514,2.267102,1.013986,-5.139202,100260.69,-73,-27,-288
128772,9.558,-2.033,0.001,2.519322,1.012390,-5.292981,100260.69,-78,-23,-284
128781,10.164,-2.777,0.249,2.713542,0.966096,-5.375458,100260.69,-84,-18,-282
128791,10.978,-3.867,1.192,2.830606,0.888940,-5.414302,100260.63,-89,-13,-279
128801,12.496,-6.302,2.860,2.712478,0.813913,-5.478156,100262.32,-89,-13,-279
128806,14.023,-8.695,3.967,2.378313,0.743674,-5.618100,100259.80,-93,-7,-275
128817,14.786,-10.188,4.593,1.808955,0.696849,-5.855953,100261.95,-97,+4,-274
128826,14.793,-10.220,5.220,1.041121,0.739949,-6.166706,100261.95,-97,+4,-274
128836,15.090,-9.456,5.903,0.666516,0.911821,-6.381678,100262.64,-99,+19,-272
128846,16.468,-9.564,6.585,0.680351,1.078371,-6.479054,100262.44,-99,+35,-270
128857,17.477,-10.976,7.066,0.827745,1.222573,-6.367311,100264.27,-101,+50,-267
128866,17.441,-13.231,6.945,0.943745,1.326867,-6.059219,100262.06,-101,+50,-267
128876,17.741,-16.123,5.712,0.990039,1.350279,-5.572339,100262.06,-101,+64,-265
128886,18.309,-19.043,2.666,0.928314,1.170958,-4.976908,100261.67,-99,+76,-262
128897,17.905,-20.264,-1.416,0.800075,0.775601,-4.304853,100267.17,-97,+86,-262
128907,13.875,-21.551,0.148,1.275249,0.472298,-3.435918,100267.28,-97,+86,-262
128916,6.758,-25.404,3.489,2.040955,0.276482,-2.336579,100264.81,-95,+89,-261
128926,2.245,-28.858,3.556,1.900478,0.129087,-0.996727,100264.81,-95,+89,-264
128936,2.503,-28.326,2.171,1.177341,0.108867,0.498501,100264.77,-95,+84,-264
128947,7.555,-24.752,2.226,0.816571,0.171124,1.858042,100268.17,-95,+84,-264
128956,9.283,-20.976,-1.213,0.726644,0.006702,2.772738,100266.97,-99,+77,-265
128966,15.401,-7.115,-0.296,0.564883,-0.387591,3.452775,100264.92,-101,+66,-266
128976,25.356,23.011,-1.044,0.140791,-0.869151,2.524775,100264.92,-101,+59,-268
128987,25.124,32.328,-15.285,-0.765392,-0.693022,0.711878,100270.38,-101,+59,-268
128997,18.268,1.971,-11.133,-0.180603,-0.040656,2.018739,100271.80,-101,+61,-268
129006,16.720,-17.513,13.428,2.866257,-0.033206,3.977435,100266.39,-103,+44,-269
129016,9.349,-20.910,11.341,3.137634,-0.187518,3.516628,100263.20,-105,+27,-269
129027,11.306,-11.706,6.572,2.038827,0.401528,3.231417,100263.20,-105,+27,-269
129037,11.270,-1.789,2.575,2.534753,0.108335,3.716169,100267.02,-108,+13,-269
129046,1.521,-1.781,5.013,3.602697,0.084922,2.960041,100264.60,-107,-3,-267
129056,-0.488,-11.025,9.794,2.997156,-0.075243,2.647161,100263.13,-107,-18,-265
129067,6.735,-20.742,2.408,0.530296,-0.216252,2.597674,100266.02,-107,-18,-265
129077,12.283,-15.750,1.284,-2.379281,0.501032,1.790996,100266.02,-107,-23,-267
129086,12.097,-6.458,3.355,-3.591427,0.878298,1.115217,100263.73,-108,-18,-266
129096,10.097,-1.380,4.934,-3.780858,0.814445,1.072116,100266.13,-109,-13,-265
129106,8.470,0.014,2.765,-3.247151,0.568610,0.974208,100265.66,-109,-13,-265
129117,7.857,1.146,1.740,-2.263281,0.565949,0.839584,100265.20,-109,-8,-265
129126,9.665,4.026,2.463,-0.837226,0.522317,0.886942,100265.20,-111,-7,-263
129136,9.471,0.557,3.061,0.573929,0.224335,1.121070,100267.70,-111,-12,-262
129146,9.642,-3.884,2.040,1.199158,-0.009261,1.226960,100266.86,-111,-12,-262
129157,9.289,-6.848,3.854,0.743140,0.121106,1.173749,100265.81,-112,-18,-261
129167,8.563,-7.176,6.225,-0.360988,0.211032,0.915143,100263.97,-111,-21,-261
129176,8.101,-5.130,6.669,-1.375721,0.220078,0.586300,100263.97,-112,-20,-260
129186,8.167,-3.431,5.622,-1.973281,0.301491,0.378777,100264.84,-112,-20,-260
129197,7.826,-1.949,4.685,-2.256895,0.469106,0.211694,100266.87,-113,-16,-260
129207,8.412,-0.017,3.696,-2.178675,0.456335,0.188281,100266.04,-113,-13,-260
129216,10.044,1.532,2.077,-1.514070,0.262647,0.375052,100261.43,-114,-9,-260
129226,10.353,0.275,1.701,-0.621190,0.031179,0.612373,100261.43,-114,-10,-260
129236,9.358,-2.395,2.590,-0.042787,-0.146013,0.783180,100269.46,-114,-10,-260
129247,8.410,-3.914,3.567,-0.004475,-0.175279,0.878428,100266.21,-114,-13,-260
129257,8.141,-3.806,4.190,-0.292346,-0.102380,0.890134,100268.63,-113,-15,-261
129266,8.268,-2.906,4.545,-0.599905,-0.070454,0.870978,100266.27,-111,-16,-261
129276,8.173,-1.928,4.499,-0.735593,-0.102380,0.870091,100266.27,-111,-16,-261
129287,8.544,-1.784,4.162,-0.682382,-0.115151,0.910887,100267.24,-112,-17,-261
129297,8.999,-2.787,3.467,-0.568511,-0.114619,0.974208,100267.71,-111,-19,-262
129306,9.374,-3.991,2.536,-0.491355,-0.103445,1.024758,100263.30,-111,-20,-263
129316,9.688,-4.602,1.624,-0.522749,-0.069390,1.057749,100267.91,-111,-20,-263
129327,9.906,-4.805,1.443,-0.612144,-0.039591,1.066263,100267.91,-110,-21,-262
129337,10.006,-4.348,1.671,-0.696217,-0.057683,1.090740,100266.85,-110,-23,-263
129346,9.983,-3.719,2.065,-0.699410,-0.078968,1.156189,100267.90,-109,-25,-264
129356,9.744,-3.706,2.256,-0.679190,-0.098123,1.207272,100265.59,-109,-25,-264
129367,9.674,-3.679,2.311,-0.617997,-0.089078,1.231217,100266.48,-108,-27,-264
129377,9.864,-4.093,2.638,-0.539245,-0.074711,1.254097,100266.48,-108,-29,-264
129387,10.293,-4.450,2.767,-0.545630,-0.076307,1.294006,100268.42,-107,-31,-264
129396,10.404,-4.164,3.007,-0.653648,-0.076839,1.359987,100265.59,-107,-31,-264
129406,10.645,-3.648,3.330,-0.749428,-0.140160,1.462684,100268.16,-106,-33,-265
129417,10.674,-2.882,3.188,-0.771777,-0.221041,1.602629,100264.17,-106,-36,-265
129427,11.283,-2.292,3.389,-0.680786,-0.268931,1.728739,100264.17,-104,-40,-267
129436,12.289,-3.159,3.057,-0.638217,-0.347683,1.965528,100265.84,-104,-40,-267
129446,12.879,-3.610,2.605,-0.664823,-0.367371,2.129950,100271.72,-101,-43,-267
129457,13.416,-3.683,1.993,-0.777098,-0.395041,2.282665,100267.73,-100,-48,-269
129467,13.629,-3.393,1.738,-0.871813,-0.467408,2.436445,100266.27,-96,-52,-271
129476,14.301,-3.133,2.352,-0.877667,-0.558398,2.553509,100266.27,-96,-52,-271
129486,15.342,-3.745,3.328,-0.940456,-0.575426,2.649821,100264.84,-93,-56,-273
129497,16.761,-4.334,4.252,-1.258657,-0.500931,2.719527,100266.98,-90,-61,-275
129507,18.719,-2.834,5.120,-1.903574,-0.370032,2.741344,100265.62,-86,-63,-277
129512,20.119,-0.449,6.227,-2.434088,-0.277977,2.724317,100262.79,-86,-63,-277
129521,20.571,2.463,7.091,-2.764528,-0.224233,2.724317,100262.79,-85,-62,-280
129531,20.113,4.864,7.987,-2.762932,-0.142821,2.817436,100262.79,-81,-62,-283
129542,19.578,5.317,8.703,-2.527739,-0.010325,2.925986,100265.63,-81,-62,-283
129552,18.019,3.042,11.238,-2.403225,0.111528,2.965894,100264.96,-78,-63,-284
129562,15.627,-2.963,10.910,-1.817905,0.071087,3.074977,100262.26,-76,-66,-285
129571,15.940,-11.805,7.206,-1.237373,-0.160380,3.356463,100262.26,-73,-70,-288
129582,17.668,-12.519,6.737,-1.482676,-0.214123,3.330389,100267.30,-73,-70,-288
129592,15.983,-6.054,9.164,-1.457666,-0.207738,3.041986,100267.30,-68,-73,-290
129602,14.290,-0.402,7.873,-0.910125,-0.397701,2.736023,100264.38,-65,-77,-291
129611,11.983,3.309,4.960,-0.230089,-0.666949,2.242757,100266.94,-61,-81,-292
129622,6.790,5.063,2.573,0.104076,-0.629169,1.644666,100264.58,-61,-81,-292
129632,0.348,1.061,3.487,0.339800,-0.098656,1.457363,100264.58,-59,-85,-292
129642,-2.447,-5.603,5.272,0.577121,0.275950,1.322739,100264.30,-57,-90,-292
129652,0.620,-8.032,6.806,0.670241,0.361087,0.790630,100265.61,-58,-93,-290
129661,2.940,-6.858,4.106,0.117379,-0.152399,0.022263,100264.09,-58,-93,-290
129672,2.616,-4.340,0.978,-0.875006,-0.394509,-0.682782,100265.05,-57,-92,-291
129682,2.383,-1.514,-0.477,-1.964235,-0.267866,-1.183497,100268.09,-58,-85,-294
129692,1.949,1.612,-1.482,-2.507519,-0.073646,-1.556506,100265.37,-60,-75,-297
129701,1.724,4.951,-1.449,-2.223372,0.124830,-1.883222,100266.68,-60,-75,-297
129712,1.982,6.677,0.098,-1.152768,0.243491,-2.161515,100266.68,-62,-66,-299
129722,2.414,5.968,1.519,0.355232,0.181766,-2.423313,100263.74,-65,-60,-298
129732,2.112,2.743,2.342,1.534919,0.174849,-2.665955,100263.74,-68,-59,-296
129741,2.010,-0.852,3.068,1.899414,0.359491,-2.908597,100263.17,-68,-59,-296
129747,2.450,-2.489,3.076,1.661029,0.545729,-3.120377,100265.11,-72,-57,-294
129757,3.341,-2.420,2.699,1.185855,0.742610,-3.386432,100262.50,-77,-53,-292
129767,4.570,-0.394,1.919,0.700571,0.946940,-3.797753,100259.34,-77,-53,-292
129776,5.960,0.981,1.564,0.719727,1.064536,-4.101587,100259.34,-83,-45,-289
129786,7.141,0.375,1.554,1.139029,1.108169,-4.296340,100262.38,-88,-37,-285
129797,8.008,-1.083,1.661,1.668478,1.139032,-4.507055,100262.75,-94,-31,-281
129807,8.652,-2.133,1.348,2.005304,1.176811,-4.769917,100262.22,-94,-31,-281
129817,9.286,-1.823,0.589,2.105340,1.191178,-4.973715,100261.55,-99,-23,-277
129826,9.864,-1.455,-0.151,2.237836,1.157123,-5.075348,100261.55,-103,-14,-274
129837,10.226,-2.091,-0.339,2.596478,1.095399,-5.098229,100263.30,-107,-7,-270
129847,11.402,-3.671,0.366,2.933303,1.004408,-5.130688,100260.48,-107,-7,-270
129857,13.390,-5.574,1.167,2.955652,0.852225,-5.227532,100260.27,-109,+0,-268
129866,15.044,-6.810,1.831,2.670441,0.708555,-5.413238,100260.68,-111,+9,-265
129876,16.095,-7.344,2.976,2.331487,0.655876,-5.634064,100260.68,-113,+21,-264
129887,17.320,-7.916,4.480,2.181964,0.640445,-5.848504,100263.54,-113,+21,-264
129897,18.578,-8.010,5.451,2.228258,0.575527,-6.005476,100259.40,-111,+35,-263
129907,18.761,-8.877,6.154,2.629469,0.500500,-5.950137,100264.90,-110,+46,-263
129916,18.542,-11.816,6.052,3.190845,0.403124,-5.696853,100262.16,-108,+55,-264
129927,18.706,-15.726,5.188,3.569707,0.272225,-5.305220,100262.16,-108,+55,-264
129937,18.057,-18.993,3.233,3.727743,0.143454,-4.738523,100266.23,-104,+62,-266
129947,16.033,-20.558,1.715,3.569707,0.034372,-4.065404,100263.60,-101,+65,-269
129956,12.093,-23.132,3.056,3.451046,0.023198,-3.243294,100267.27,-100,+66,-272
129967,6.958,-27.086,5.698,3.120074,0.023198,-2.381809,100267.07,-100,+66,-272
129977,2.635,-29.284,6.238,1.841414,-0.035335,-1.475094,100267.07,-98,+66,-274
129987,1.494,-27.403,5.402,0.257856,0.094500,-0.364048,100270.10,-97,+64,-275
129996,5.711,-22.772,6.191,-0.610016,0.376518,0.753382,100266.23,-99,+65,-273
130007,6.915,-18.916,5.785,-0.620126,0.313729,1.695748,100265.23,-99,+65,-273
130017,7.869,-15.332,4.156,-0.264676,0.033840,2.642372,100263.55,-100,+61,-272
130027,15.174,-1.056,2.816,-0.312566,-0.332784,3.032408,100263.55,-102,+52,-272
130037,25.044,24.247,-2.920,-0.732401,-1.053793,2.030445,100264.82,-101,+49,-275
130046,22.470,25.730,-14.950,-1.071887,-0.376949,0.901309,100265.02,-101,+49,-275
130057,17.066,-2.438,0.481,0.710681,0.292977,2.774867,100267.27,-102,+49,-275
130067,14.850,-20.505,14.445,3.923560,-0.036399,4.131215,100263.40,-104,+29,-275
130077,11.623,-25.168,5.351,3.555872,-0.198692,3.709252,100263.40,-104,+10,-276
130086,11.986,-9.565,1.224,1.606754,0.438775,3.278243,100269.13,-104,+10,-276
130097,5.168,1.475,0.574,1.879726,0.569674,3.044114,100266.34,-106,-2,-274
130107,-0.864,0.234,12.293,2.846570,0.668647,2.489124,100262.89,-108,-16,-271
130117,0.842,-9.828,8.685,2.333616,-0.360986,2.414629,100263.36,-106,-29,-271
130126,9.928,-18.569,0.331,0.234975,-0.397701,2.413564,100263.36,-106,-29,-271
130137,14.145,-17.207,0.534,-1.790767,0.253601,1.689363,100266.22,-105,-33,-271
130147,13.270,-5.960,2.255,-2.723556,0.654280,1.042850,100267.73,-105,-31,-272
130157,9.787,1.188,3.962,-2.902344,0.777197,1.008795,100263.97,-106,-27,-270
130167,6.932,1.192,2.602,-2.241996,0.722922,1.057217,100264.75,-106,-27,-270
130177,7.258,-0.003,1.828,-1.340602,0.617564,1.022097,100264.75,-107,-24,-270
130187,9.479,0.678,2.953,-0.361520,0.465913,0.978464,100262.38,-108,-25,-268
130197,10.285,-1.228,3.269,0.587231,0.232317,0.983253,100268.34,-109,-29,-267
130207,10.131,-3.360,2.714,1.028350,0.080665,1.015712,100268.30,-108,-29,-267
130216,8.794,-5.313,2.990,0.854883,0.076941,0.957180,100266.83,-108,-34,-267
130227,7.528,-6.941,4.604,0.162076,0.216353,0.764556,100266.83,-108,-38,-267
130237,7.284,-6.746,5.748,-1.074015,0.445161,0.456997,100265.87,-109,-38,-265
130247,8.022,-3.861,5.211,-1.979666,0.583509,0.160612,100261.09,-109,-33,-266
130257,8.812,-1.120,3.870,-2.074382,0.585638,0.037162,100263.98,-109,-33,-266
130267,9.274,0.584,2.898,-1.653483,0.487729,0.077603,100266.23,-111,-29,-265
130277,9.355,0.928,2.274,-0.913318,0.274885,0.248410,100266.23,-113,-27,-265
130287,9.106,-0.687,2.214,-0.153465,0.096097,0.442630,100267.80,-112,-29,-265
130297,8.942,-3.015,2.856,0.179635,0.059381,0.573529,100267.11,-112,-29,-265
130307,8.724,-4.114,3.587,0.016810,0.121638,0.607584,100262.23,-112,-31,-264
130317,8.422,-3.624,4.079,-0.342896,0.214225,0.576190,100265.22,-112,-31,-263
130327,8.239,-2.858,4.111,-0.631832,0.286592,0.559162,100265.22,-113,-31,-264
130337,8.574,-2.273,4.016,-0.817006,0.327564,0.582575,100265.07,-113,-31,-264
130347,9.086,-1.902,3.580,-0.861703,0.323840,0.640575,100266.38,-113,-31,-262
130357,9.325,-1.972,2.704,-0.751025,0.297234,0.726777,100265.07,-114,-31,-262
130367,9.524,-2.554,1.907,-0.587135,0.286060,0.822556,100264.34,-113,-32,-262
130377,9.443,-3.171,1.740,-0.439208,0.308941,0.907694,100264.34,-113,-32,-262
130387,9.420,-3.555,2.195,-0.375887,0.356830,0.963033,100270.65,-113,-35,-261
130397,9.390,-3.621,2.898,-0.390254,0.403124,1.009327,100265.51,-114,-37,-260
130407,9.363,-3.636,3.669,-0.478584,0.415362,1.038061,100268.49,-115,-38,-259
130417,9.271,-3.570,3.924,-0.599373,0.399931,1.067859,100262.84,-115,-38,-259
130427,9.445,-3.628,3.906,-0.632364,0.385032,1.098721,100262.84,-114,-40,-259
130437,9.839,-4.226,3.617,-0.675997,0.358427,1.124795,100265.28,-115,-41,-259
130447,9.975,-4.615,3.101,-0.766988,0.346188,1.150868,100266.70,-115,-42,-258
130457,9.960,-4.642,2.558,-0.896823,0.349381,1.176409,100266.23,-115,-42,-258
130467,10.129,-4.285,2.332,-0.979832,0.319583,1.232281,100266.33,-114,-44,-257
130477,10.477,-3.833,2.706,-0.969722,0.250941,1.320611,100266.33,-115,-45,-257
130487,10.634,-3.308,3.455,-0.904804,0.181766,1.431822,100268.98,-114,-48,-257
130497,10.896,-3.442,3.854,-0.838823,0.134408,1.548354,100267.26,-114,-48,-257
130507,11.344,-4.073,3.845,-0.881391,0.129087,1.663822,100263.48,-113,-51,-257
130518,11.824,-4.802,3.504,-1.041024,0.131216,1.769180,100261.65,-113,-54,-258
130527,12.068,-4.815,3.459,-1.263978,0.078005,1.871345,100261.65,-111,-56,-259
130537,12.019,-4.144,3.707,-1.499703,-0.055023,1.979895,100265.16,-111,-56,-259
130547,12.456,-4.159,4.394,-1.648162,-0.116747,2.122500,100265.78,-109,-59,-261
130557,13.796,-5.226,4.989,-1.867923,-0.196564,2.215620,100262.38,-108,-60,-262
130567,16.118,-4.994,5.239,-2.399501,-0.248711,2.251271,100264.11,-104,-60,-264
130577,18.944,-2.400,5.426,-3.056656,-0.189114,2.289583,100264.11,-104,-60,-264
130587,21.273,1.195,4.908,-3.522252,-0.150270,2.343858,100267.63,-102,-60,-268
130597,22.348,4.139,3.638,-3.554711,-0.190711,2.463051,100268.21,-99,-56,-272
130607,22.542,5.746,3.027,-3.173720,-0.319481,2.685472,100266.74,-96,-55,-275
130617,21.910,5.631,3.897,-2.513904,-0.482839,2.921729,100262.71,-96,-55,-275
130627,18.938,2.362,5.457,-1.634859,-0.687701,3.131381,100262.71,-91,-56,-278
130637,14.567,-4.961,9.344,-0.797850,-0.894692,3.393178,100260.44,-88,-63,-281
130648,12.393,-9.887,9.822,-0.364181,-0.830306,3.381472,100266.42,-81,-70,-283
130657,13.275,-10.260,9.927,0.033837,-0.562123,3.329325,100263.75,-81,-70,-283
130667,13.773,-6.988,8.314,0.099287,-0.488692,3.153197,100262.75,-77,-78,-284
130677,12.358,-2.848,8.563,0.143452,-0.466876,2.767417,100262.75,-72,-85,-285
130688,10.571,2.620,8.116,0.504222,-0.695860,2.107779,100264.91,-68,-91,-286
130697,7.734,5.801,6.639,0.738351,-1.038361,1.473327,100265.69,-64,-91,-286
130707,3.325,6.149,4.506,0.814442,-1.295370,0.949198,100262.70,-64,-95,-287
130717,-0.982,3.190,2.970,0.938424,-1.250141,0.693786,100265.80,-59,-98,-289
130727,-4.185,-4.181,2.617,1.114020,-0.747297,0.657602,100265.80,-56,-102,-289
130737,-2.382,-9.616,3.531,1.063470,0.117381,0.494245,100265.63,-57,-105,-287
130747,1.838,-11.992,5.413,0.669708,0.338739,0.081860,100265.52,-57,-105,-287
130757,3.842,-9.172,4.079,0.286589,-0.260417,-0.627975,100262.69,-56,-105,-287
130767,3.037,-4.745,0.925,-0.346621,-0.817004,-1.207442,100265.69,-56,-102,-289
130777,1.693,-2.099,-1.184,-1.124566,-0.967591,-1.590029,100265.69,-55,-93,-294
130787,1.393,0.211,-3.222,-1.715740,-0.798380,-1.992836,100266.44,-55,-93,-294
130797,2.580,2.439,-3.965,-1.675299,-0.505187,-2.353075,100266.33,-57,-83,-297
130807,4.085,4.936,-2.201,-1.228327,-0.297665,-2.680322,100266.59,-57,-73,-300
130818,4.202,4.682,0.486,-0.238603,-0.384399,-2.796322,100262.50,-59,-68,-301
130827,4.139,1.874,1.720,0.877763,-0.612141,-2.909662,100262.50,-59,-68,-301
130837,4.832,-0.451,2.421,1.446589,-0.586068,-3.207111,100262.89,-61,-64,-302
130847,4.832,-1.985,2.975,1.861634,-0.519554,-3.479019,100262.84,-62,-61,-301
130857,4.072,-3.388,3.280,2.201120,-0.500931,-3.628010,100262.05,-64,-60,-302
130867,4.523,-4.097,3.373,2.447487,-0.481242,-3.815845,100260.91,-64,-60,-302
130877,6.388,-3.965,2.916,2.617230,-0.506784,-4.067000,100260.91,-67,-58,-300
130887,8.485,-3.357,1.815,2.806129,-0.620123,-4.287294,100262.61,-68,-57,-300
130897,9.524,-3.528,1.332,3.179670,-0.773371,-4.287294,100262.77,-69,-57,-299
130908,9.424,-5.702,1.609,3.502129,-0.988343,-4.193110,100261.56,-69,-57,-299
130917,9.169,-9.209,2.239,3.369633,-1.228325,-4.201624,100263.56,-70,-58,-298
130923,9.651,-11.065,2.380,2.932771,-1.396471,-4.233551,100263.56,-69,-56,-299
130932,10.359,-10.335,2.104,2.358093,-1.505554,-4.289954,100263.56,-69,-56,-299
130942,11.099,-7.406,2.050,1.964332,-1.507150,-4.306450,100264.80,-69,-52,-301
130953,11.422,-4.825,3.301,2.113322,-1.433719,-4.167569,100267.63,-69,-49,-302
130962,11.801,-4.427,5.283,2.514533,-1.428930,-3.962707,100264.39,-66,-48,-304
130972,12.516,-5.219,6.788,2.984918,-1.559297,-3.820101,100261.65,-66,-48,-304
130982,13.045,-5.848,7.538,3.498936,-1.739150,-3.687606,100264.16,-66,-49,-304
130993,13.534,-7.274,6.614,4.237504,-1.931774,-3.525313,100261.49,-62,-52,-304
131002,13.610,-9.386,5.834,4.991504,-2.017443,-3.280010,100261.49,-59,-61,-304
131012,13.620,-11.174,6.524,5.582146,-2.027021,-2.911258,100263.79,-59,-61,-304
131022,13.149,-12.036,8.057,6.136072,-2.142489,-2.523350,100262.74,-57,-74,-301
131033,12.085,-12.200,9.180,6.648494,-2.282966,-2.133846,100262.74,-54,-87,-297
131042,11.103,-11.276,9.726,6.921998,-2.388324,-1.760836,100266.30,-50,-103,-292
131052,9.825,-10.000,9.458,6.901778,-2.338306,-1.358562,100266.50,-50,-103,-292
131062,8.649,-9.005,8.935,6.600071,-2.169627,-0.940323,100262.94,-47,-119,-285
131073,7.731,-9.223,9.355,6.084990,-1.928049,-0.518360,100264.52,-43,-133,-279
131083,6.964,-10.934,11.610,5.524146,-1.639645,-0.135241,100264.52,-40,-147,-270
131092,4.762,-12.966,13.144,4.829210,-1.251737,0.110061,100266.38,-40,-147,-270
131102,2.648,-12.986,13.406,3.630899,-0.697279,0.319713,100264.93,-37,-158,-262
131112,2.743,-11.790,10.838,2.302221,-0.246050,0.618758,100265.46,-36,-164,-260
131123,3.727,-10.500,8.403,1.502992,0.104610,1.021033,100265.46,-34,-170,-255
131132,4.218,-9.531,7.625,1.200222,0.337674,1.382336,100265.46,-34,-170,-255
131142,3.268,-10.834,9.502,1.173084,0.422812,1.668079,100265.51,-31,-175,-252
131152,-0.820,-16.194,18.976,1.381139,1.724352,1.975106,100264.26,-29,-181,-245
131158,6.369,-13.922,-1.389,0.955451,0.422280,1.832501,100260.90,-29,-181,-245
131168,9.453,-15.814,-1.258,1.158717,0.041821,2.526372,100266.35,-24,-186,-243
131177,13.950,-6.503,12.177,0.093966,1.348151,2.978665,100266.35,-20,-192,-241
131187,15.781,5.159,6.210,-1.136272,1.954224,1.730868,100266.87,-20,-192,-241
131197,13.343,3.342,-1.165,-1.097960,1.697215,1.059345,100265.02,-20,-193,-242
131208,12.176,-3.454,-6.455,-0.027355,1.151802,1.963400,100266.45,-19,-193,-240
131217,11.520,-8.822,-8.890,0.599470,0.768151,2.015546,100265.40,-14,-198,-239
131227,14.054,-4.000,-11.763,0.600002,0.524977,1.033804,100265.40,-13,-200,-237
131237,18.693,-4.014,-8.093,0.994828,0.615436,1.192905,100268.07,-13,-200,-237
131248,17.588,-3.375,1.609,1.621121,0.637784,1.290281,100267.12,-11,-205,-231
131258,10.881,-5.115,5.830,2.105873,0.535087,1.010923,100263.24,-10,-211,-224
131267,8.112,-7.919,8.292,1.556735,0.633527,0.795419,100260.15,-8,-213,-222
131277,7.396,-7.277,8.976,0.252002,0.772408,0.474557,100260.15,-8,-213,-222
131288,7.612,-3.986,5.511,-0.815942,0.746867,0.179768,100267.10,-8,-212,-222
131298,8.956,-1.624,2.900,-1.240566,0.717601,0.002575,100265.63,-10,-211,-225
131307,10.916,-0.724,1.846,-0.948437,0.581913,-0.011260,100262.85,-11,-210,-226
131317,11.586,-0.561,1.360,-0.391851,0.394610,0.125493,100267.41,-11,-210,-226
131328,10.957,-1.984,1.624,0.165268,0.231785,0.248410,100267.41,-11,-209,-225
131338,9.932,-3.649,1.409,0.473892,0.133344,0.268098,100265.51,-10,-211,-223
131347,9.380,-3.791,1.545,0.401525,0.153032,0.236171,100267.87,-10,-212,-223
131357,9.208,-3.912,2.007,0.198791,0.179638,0.181364,100262.26,-10,-212,-223
131367,8.831,-3.819,1.692,0.046608,0.174849,0.104740,100265.30,-10,-212,-222
131378,8.461,-3.513,1.141,-0.059282,0.185491,0.047805,100265.30,-10,-212,-222
131388,8.558,-2.746,1.309,-0.105043,0.195069,0.031841,100269.13,-11,-212,-222
131393,8.526,-2.123,1.491,-0.039594,0.158353,0.052061,100265.78,-11,-212,-222
131402,8.444,-1.963,1.621,0.121103,0.123234,0.085052,100265.78,-10,-212,-221
131412,8.449,-2.633,1.454,0.259452,0.096097,0.126025,100266.20,-10,-212,-221
131423,8.384,-3.404,1.437,0.236039,0.108867,0.151034,100263.05,-9,-213,-220
131433,8.336,-3.139,1.667,0.148241,0.130684,0.147309,100263.05,-9,-214,-220
131442,8.230,-2.289,1.678,0.132810,0.130152,0.162208,100265.10,-9,-214,-219
131452,8.282,-1.843,1.946,0.250938,0.093968,0.210630,100263.10,-10,-215,-219
131463,8.440,-1.435,2.371,0.350443,0.038097,0.263841,100265.04,-10,-215,-219
131473,8.748,-1.672,2.527,0.516993,-0.049701,0.358024,100265.04,-8,-216,-217
131482,9.234,-2.124,2.267,0.705360,-0.132179,0.419217,100265.04,-6,-218,-215
131492,9.601,-2.753,2.375,0.768149,-0.152399,0.455933,100267.58,-5,-221,-213
131503,10.028,-2.869,1.834,0.759103,-0.163573,0.495309,100266.80,-5,-221,-213
131513,10.400,-2.561,2.116,0.694186,-0.128454,0.544263,100263.39,-3,-222,-212
131523,10.343,-2.796,2.388,0.730901,-0.158784,0.595878,100264.33,-1,-224,-209
131532,9.939,-2.990,2.144,0.783048,-0.213059,0.643767,100264.33,-1,-226,-207
131543,9.399,-3.433,2.412,0.805929,-0.241261,0.683144,100262.59,-1,-226,-207
131553,8.982,-3.988,2.834,0.767085,-0.281701,0.681015,100264.98,+3,-228,-205
131563,9.102,-3.939,3.077,0.568076,-0.307775,0.646428,100259.55,+4,-230,-204
131572,9.376,-3.513,2.789,0.388754,-0.323206,0.610777,100259.55,+6,-230,-203
131582,9.656,-2.690,2.612,0.344057,-0.343958,0.620887,100266.23,+6,-230,-203
131593,9.636,-2.487,2.494,0.460589,-0.353004,0.666116,100266.23,+10,-232,-203
131603,9.346,-3.245,2.220,0.611709,-0.395573,0.714006,100269.33,+13,-234,-202
131612,8.947,-3.524,1.769,0.683543,-0.408343,0.725712,100266.08,+15,-236,-200
131622,9.368,-4.650,2.589,0.683011,-0.382270,0.710281,100265.34,+15,-236,-200
131628,9.589,-5.681,2.080,0.579782,-0.428032,0.653345,100265.34,+18,-237,-198
131638,9.242,-6.605,1.593,0.419617,-0.418986,0.568740,100263.97,+18,-237,-198
131648,9.279,-6.169,1.702,0.087048,-0.378545,0.445823,100267.27,+20,-237,-197
131657,9.138,-4.992,1.645,-0.205612,-0.336509,0.323969,100263.92,+21,-237,-199
131667,9.060,-4.155,1.934,-0.321080,-0.311499,0.252667,100263.81,+24,-237,-200
131678,9.145,-3.737,2.178,-0.342364,-0.340766,0.215419,100263.81,+24,-237,-200
131688,9.382,-3.861,1.929,-0.309373,-0.392380,0.184025,100264.66,+25,-237,-201
131697,9.473,-4.347,1.528,-0.324805,-0.415793,0.166997,100264.60,+26,-237,-202
131707,9.598,-4.429,1.607,-0.409942,-0.415261,0.154226,100264.66,+27,-236,-203
131718,9.687,-3.684,1.830,-0.514236,-0.439206,0.143584,100264.20,+27,-236,-205
131728,9.887,-3.205,1.916,-0.552016,-0.490288,0.162208,100264.20,+27,-236,-205
131737,9.982,-2.588,1.781,-0.490823,-0.556802,0.241492,100264.45,+29,-234,-208
131747,9.699,-1.880,1.750,-0.365245,-0.631830,0.359089,100264.98,+32,-235,-208
131758,9.955,-1.773,1.944,-0.223704,-0.735059,0.515529,100262.63,+34,-235,-210
131768,11.093,-2.002,2.929,-0.089612,-0.890435,0.667180,100265.88,+34,-235,-210
131778,12.696,-1.869,4.306,-0.055557,-1.209701,0.815639,100265.88,+39,-236,-211
131787,13.637,-1.254,4.380,-0.152933,-1.497572,0.983786,100264.48,+45,-236,-213
131798,13.112,-1.556,4.495,-0.169429,-1.489591,1.191841,100265.52,+50,-236,-213
131808,12.863,-2.119,3.823,-0.107704,-1.497040,1.366905,100264.37,+50,-236,-213
131818,13.026,-1.621,3.568,-0.225832,-1.482673,1.540372,100261.12,+57,-237,-215
131827,13.243,-1.298,3.803,-0.316291,-1.486398,1.716501,100261.12,+66,-237,-217
131837,13.191,-1.436,4.091,-0.297667,-1.513003,1.858574,100270.02,+74,-236,-217
131848,13.014,-1.432,5.342,-0.176878,-1.509811,1.984152,100265.14,+74,-236,-217
131858,12.698,-2.049,6.441,0.138131,-1.515664,2.087381,100263.25,+83,-237,-218
131863,12.608,-2.741,6.545,0.369066,-1.541205,2.117711,100264.78,+94,-237,-217
131872,11.917,-3.613,5.903,0.493580,-1.591223,2.099620,100264.78,+94,-236,-217
131883,10.492,-4.625,5.249,0.597342,-1.644966,2.071418,100264.78,+102,-238,-215
131893,9.149,-5.627,4.807,0.767617,-1.701370,2.066629,100262.98,+112,-239,-212
131903,8.768,-6.710,4.689,1.039525,-1.801407,2.073546,100266.14,+112,-239,-212
131913,9.334,-7.785,3.135,1.308772,-2.025425,2.043748,100264.06,+122,-239,-207
131922,10.251,-7.439,3.030,1.520020,-2.364379,1.997987,100264.06,+131,-241,-203
131933,9.851,-3.463,4.637,2.144717,-2.572966,1.805895,100265.30,+140,-243,-195
131943,8.147,-0.032,5.390,2.891267,-2.535186,1.593051,100265.30,+140,-243,-195
131953,6.808,0.391,5.038,3.520752,-2.504856,1.617528,100263.52,+148,-245,-183
131962,6.068,-0.391,5.283,4.020403,-2.504856,1.656904,100261.16,+156,-249,-168
131973,5.738,-0.924,5.766,4.343926,-2.486232,1.565914,100264.05,+163,-252,-153
131983,5.251,-0.502,6.002,4.538679,-2.406948,1.372226,100264.05,+169,-253,-135
131993,4.940,-0.227,6.172,4.613174,-2.310104,1.174281,100264.91,+169,-253,-135
132003,5.061,-0.642,5.965,4.603064,-2.255829,0.980061,100264.59,+173,-254,-118
132013,5.189,-1.158,5.456,4.499302,-2.224434,0.750189,100263.13,+176,-254,-101
132023,5.195,-1.507,4.998,4.304550,-2.165902,0.486795,100260.60,+176,-254,-86
132033,5.332,-1.546,4.838,4.048605,-2.095664,0.202648,100259.29,+176,-254,-86
132043,5.535,-1.532,4.643,3.743174,-2.038728,-0.107039,100262.91,+176,-253,-70
132052,5.501,-1.635,4.670,3.418587,-1.971150,-0.430030,100257.88,+172,-253,-58
132063,5.459,-1.477,4.838,3.100918,-1.893462,-0.755149,100257.88,+167,-251,-48
132073,5.489,-1.368,5.060,2.823689,-1.791297,-1.068562,100260.82,+167,-251,-48
132082,5.610,-1.744,5.317,2.602863,-1.660398,-1.354305,100260.82,+162,-250,-37
132092,6.007,-2.242,5.590,2.400661,-1.493315,-1.629938,100259.94,+154,-249,-28
132099,6.577,-2.434,5.751,2.255928,-1.367737,-1.840121,100260.52,+154,-249,-28
132108,7.227,-2.482,5.942,2.140992,-1.253866,-2.049772,100266.17,+146,-248,-21
132118,8.045,-2.615,6.045,2.040423,-1.102747,-2.291350,100268.42,+135,-248,-13
132127,8.491,-2.773,5.921,2.017542,-0.956416,-2.509515,100268.42,+135,-248,-13
132137,8.661,-2.908,5.614,2.016478,-0.801040,-2.717038,100261.04,+125,-247,-6
132148,8.894,-3.027,5.382,2.018607,-0.627573,-2.883056,100262.35,+115,-245,+0
132158,9.082,-3.121,5.334,2.084056,-0.459426,-3.009698,100261.66,+103,-242,+6
132168,9.329,-3.313,5.449,2.237836,-0.296600,-3.121441,100256.95,+103,-242,+6
132177,9.720,-3.636,5.540,2.402258,-0.142289,-3.214028,100256.95,+92,-239,+12
132188,10.128,-3.886,5.512,2.495909,-0.011390,-3.294377,100263.85,+80,-234,+20
132198,10.481,-4.251,5.657,2.584239,0.122702,-3.358230,100260.71,+69,-229,+28
132208,10.786,-4.710,5.903,2.659267,0.244555,-3.415166,100261.76,+59,-229,+36
132217,11.217,-5.039,5.806,2.676826,0.315326,-3.461992,100258.93,+59,-223,+36
132228,11.586,-6.764,5.504,2.640643,0.360023,-3.419423,100258.93,+49,-215,+42
132238,11.250,-8.356,4.703,2.617230,0.350445,-3.389092,100260.61,+40,-207,+49
132248,10.449,-11.038,3.452,2.533157,0.258390,-3.300230,100262.23,+31,-200,+56
132258,10.063,-13.712,2.515,2.280937,0.222739,-3.217221,100261.14,+31,-200,+56
132268,10.030,-14.624,1.931,1.930276,0.182830,-3.124634,100262.70,+23,-191,+61
132278,9.917,-14.544,1.872,1.518956,0.119509,-2.967662,100262.70,+15,-185,+65
132288,8.921,-14.525,2.435,1.158717,0.090243,-2.722891,100265.63,+8,-179,+67
132298,6.863,-14.549,3.587,0.871910,0.093968,-2.395112,100268.52,+8,-179,+67
132307,4.925,-14.939,4.811,0.663855,0.164739,-1.905570,100262.49,+4,-173,+69
132318,4.260,-16.066,5.231,0.412167,0.212629,-1.350048,100262.76,+0,-172,+69
132328,4.287,-16.752,4.196,0.129617,0.236041,-0.825920,100262.76,-1,-171,+71
132338,4.665,-16.892,3.467,-0.148676,0.337674,-0.340104,100267.01,-1,-171,+71
132347,5.527,-16.856,2.295,-0.300860,0.434518,0.077603,100261.62,+0,-170,+70
132358,5.468,-16.669,0.795,-0.508382,0.402592,0.584703,100264.18,+2,-173,+70
132368,6.988,-15.590,-0.224,-0.528071,0.273289,1.254629,100262.20,+5,-176,+69
132378,16.680,-1.819,2.532,-0.773905,-0.098123,1.486629,100262.20,+5,-176,+69
132388,26.969,18.893,-1.242,-1.119245,-1.022930,0.600134,100263.47,+7,-179,+66
132398,25.166,10.498,-4.213,-0.368438,-0.283830,0.731566,100265.67,+6,-182,+64
132408,19.507,-11.603,2.735,1.904203,0.020537,2.925454,100263.38,+15,-181,+70
132418,9.152,-22.116,1.507,3.611211,-0.209867,3.038793,100262.64,+15,-181,+70
132428,3.697,-12.132,-1.803,1.559928,0.150904,2.256592,100262.64,+21,-173,+77
132438,1.608,1.893,4.046,0.167929,0.485069,1.816537,100265.16,+27,-176,+78
132448,2.075,2.262,5.797,1.015580,0.391418,1.577088,100264.01,+33,-174,+80
132458,6.831,-6.855,5.363,1.408277,0.214757,1.511639,100263.49,+33,-174,+80
132468,11.744,-12.453,3.953,0.504222,0.168463,1.446189,100265.32,+36,-171,+83
132477,11.746,-10.196,2.363,-0.747300,0.310537,0.972079,100265.32,+40,-175,+81
132488,9.161,-5.044,2.559,-1.555575,0.578720,0.637382,100264.68,+43,-179,+77
132498,8.296,-1.704,4.210,-1.936033,0.702170,0.603327,100263.79,+43,-179,+77
132508,8.633,-1.831,4.040,-1.924327,0.581913,0.583107,100260.38,+46,-185,+73
132518,8.858,-2.179,2.782,-1.598675,0.483472,0.492648,100261.70,+48,-189,+70
132528,9.704,-1.025,2.608,-1.033575,0.486665,0.436777,100261.70,+51,-192,+68
132538,9.982,0.306,3.552,-0.208805,0.430262,0.454868,100266.82,+51,-192,+68
132548,9.013,-0.299,3.973,0.562754,0.279142,0.576722,100263.73,+54,-192,+69
132558,8.258,-2.601,3.293,0.776663,0.229656,0.648556,100265.98,+56,-191,+71
132568,8.229,-5.170,3.771,0.409507,0.379711,0.557566,100264.82,+59,-190,+71
132578,8.837,-7.261,4.574,-0.334383,0.447289,0.358557,100264.82,+59,-190,+71
132588,9.134,-5.649,4.398,-1.008566,0.456867,0.146777,100268.04,+60,-191,+71
132598,8.690,-3.704,4.971,-1.448088,0.515931,-0.010728,100264.88,+61,-195,+67
132608,8.381,-2.367,4.728,-1.578455,0.496243,-0.086287,100267.30,+62,-198,+63
132618,8.744,-0.930,4.336,-1.454474,0.451546,-0.061810,100262.70,+62,-198,+63
132628,9.647,-0.318,3.664,-1.128823,0.382904,0.028649,100262.70,+63,-202,+60
132638,9.825,-1.175,3.411,-0.741447,0.336610,0.129749,100268.34,+64,-204,+59
132648,9.406,-2.339,3.815,-0.598309,0.303087,0.235639,100265.45,+65,-206,+57
132658,8.558,-2.325,4.555,-0.694621,0.295638,0.319180,100262.63,+65,-206,+57
132668,8.344,-1.388,4.977,-0.862235,0.297234,0.384630,100262.73,+67,-207,+55
132678,8.722,-1.179,5.154,-1.009630,0.306280,0.462318,100262.73,+69,-210,+53
132688,9.163,-1.200,4.825,-1.110199,0.295638,0.536281,100264.23,+71,-213,+50
132698,9.032,-1.340,4.567,-1.142657,0.286060,0.607584,100266.64,+74,-213,+50
132708,8.943,-1.870,4.376,-1.103813,0.279674,0.702300,100263.14,+74,-214,+47
132718,9.425,-2.663,3.635,-1.000052,0.226996,0.820428,100262.34,+77,-218,+44
132728,9.864,-3.740,3.020,-0.881391,0.191876,0.909290,100262.34,+80,-219,+42
132739,9.782,-4.523,2.652,-0.910125,0.182830,0.952923,100265.27,+84,-221,+40
132748,9.787,-4.226,2.427,-1.020804,0.190280,0.988575,100265.59,+84,-221,+40
132758,9.803,-3.051,2.475,-1.044749,0.172188,1.038061,100265.01,+87,-223,+37
132768,9.775,-2.737,2.567,-0.899483,0.136537,1.115217,100262.65,+91,-226,+33
132777,9.481,-3.090,2.409,-0.718566,0.099289,1.173749,100262.65,+94,-227,+32
132788,9.243,-3.573,2.565,-0.588731,0.084390,1.214721,100265.06,+94,-227,+32
132798,9.279,-4.453,2.996,-0.529667,0.064170,1.259951,100263.17,+99,-229,+31
132804,9.474,-4.987,3.110,-0.547227,0.045546,1.281235,100262.19,+99,-229,+31
132813,9.803,-5.185,3.158,-0.615337,0.021069,1.298795,100262.19,+102,-229,+28
132824,10.124,-5.015,3.426,-0.707392,-0.048637,1.319015,100263.97,+107,-229,+26
132833,10.297,-4.364,3.557,-0.795190,-0.210399,1.339767,100263.97,+111,-232,+25
132843,10.511,-3.442,3.377,-0.855850,-0.363646,1.402024,100265.18,+111,-232,+25
132853,10.404,-2.282,3.299,-0.823391,-0.466343,1.528134,100266.10,+115,-232,+22
132864,10.580,-1.589,3.523,-0.707392,-0.547756,1.692556,100262.51,+119,-233,+20
132873,11.161,-1.979,3.414,-0.549887,-0.600967,1.870281,100262.51,+125,-234,+19
132883,11.671,-2.983,2.936,-0.481245,-0.610013,2.063436,100262.51,+125,-234,+19
132893,12.500,-4.017,2.488,-0.550419,-0.585536,2.247014,100265.56,+130,-234,+17
132903,13.486,-4.503,2.253,-0.755814,-0.578086,2.435913,100264.47,+137,-233,+15
132913,14.136,-4.223,2.414,-0.977171,-0.560527,2.541271,100264.36,+145,-234,+13
132923,15.005,-4.439,2.615,-1.223538,-0.505720,2.615766,100261.11,+153,-234,+13
132933,16.889,-4.006,2.842,-1.601868,-0.399298,2.624812,100261.11,+153,-233,+10
132943,19.180,-1.428,3.598,-2.218051,-0.255628,2.580115,100266.79,+160,-233,+3
132954,20.986,2.722,5.454,-2.718766,-0.210931,2.567344,100265.90,+169,-236,-4
132963,21.476,6.102,6.392,-2.668748,-0.273720,2.690794,100262.85,+177,-237,-12
132973,20.410,5.664,6.274,-2.271794,-0.283830,2.888206,100262.85,+177,-237,-12
132983,18.269,2.443,7.911,-1.840785,-0.290747,3.021234,100260.48,+186,-235,-17
132994,15.839,-3.664,8.485,-1.163410,-0.431756,3.225564,100263.67,+196,-232,-21
133003,16.115,-11.535,8.972,-0.395575,-0.678123,3.616132,100263.67,+207,-226,-20
133013,18.284,-12.632,8.057,-0.343429,-0.738784,3.614004,100264.47,+207,-226,-20
133023,17.156,-6.464,9.448,-0.289153,-0.691958,3.350078,100263.25,+217,-222,-21
133033,14.896,-1.400,7.692,0.267433,-0.820196,3.133509,100263.25,+227,-217,-18
133039,13.650,1.145,6.131,0.531892,-0.926086,2.760500,100264.80,+227,-217,-18
133048,11.703,3.522,4.846,0.740479,-1.046343,2.244354,100264.53,+232,-210,-16
133058,6.418,4.210,3.407,0.870314,-1.070820,1.691492,100261.70,+236,-208,-11
133068,0.419,-0.163,3.704,1.226827,-0.862765,1.504189,100262.13,+236,-208,-11
133079,-2.484,-6.044,6.330,1.787671,-0.398765,1.337639,100262.13,+240,-202,-6
133088,0.386,-7.029,7.364,1.590790,-0.268399,0.647492,100265.33,+242,-197,-2
133098,3.103,-6.117,5.782,0.696846,-0.609481,-0.074049,100260.56,+240,-197,+0
133108,3.146,-3.402,2.594,-0.354603,-0.795187,-0.758874,100264.48,+240,-197,+0
133118,2.980,-0.621,0.209,-1.436382,-0.689830,-1.227130,100263.59,+236,-200,+0
133128,2.541,1.313,-1.007,-2.085556,-0.620655,-1.575662,100263.59,+230,-205,-3
133138,1.929,2.832,-1.711,-2.210070,-0.575426,-1.877901,100260.90,+223,-211,-8
133148,1.607,3.276,-0.847,-1.635391,-0.481242,-2.122139,100260.16,+223,-211,-8
133158,1.901,3.514,0.464,-0.562126,-0.445591,-2.416928,100258.91,+217,-217,-10
133169,2.113,2.862,1.512,0.438241,-0.453573,-2.733533,100261.63,+207,-221,-10
133178,2.265,0.797,2.571,1.122002,-0.386527,-3.002249,100261.63,+196,-224,-5
133188,2.772,-1.434,3.202,1.356662,-0.232215,-3.231588,100261.51,+196,-224,-5
133198,3.555,-3.111,3.575,1.115616,-0.008197,-3.449753,100261.24,+186,-226,+0
133209,3.604,-1.685,3.349,0.584039,0.206775,-3.846175,100256.95,+174,-229,+0
133218,3.944,1.121,3.431,0.265305,0.355234,-4.312835,100257.79,+160,-234,+1
133228,5.853,2.396,2.815,0.437176,0.389821,-4.583679,100257.79,+146,-237,+3
133238,7.682,1.307,2.540,1.020369,0.417491,-4.724156,100263.55,+146,-237,+3
133249,8.701,-0.910,2.814,1.615268,0.497307,-4.865697,100257.84,+130,-237,+8
133259,9.410,-2.658,3.051,2.037230,0.572867,-5.034908,100257.63,+114,-236,+14
133268,9.793,-3.320,3.022,2.288386,0.601069,-5.162082,100259.09,+98,-234,+21
133274,10.181,-3.629,2.899,2.423010,0.603197,-5.227532,100259.09,+98,-234,+21
133283,10.748,-4.267,2.852,2.532625,0.584573,-5.288192,100259.09,+82,-229,+28
133294,11.953,-5.669,3.094,2.546459,0.514335,-5.402064,100259.56,+82,-229,+28
133304,13.982,-7.066,3.532,2.392680,0.413766,-5.540412,100258.05,+66,-223,+35
133313,15.961,-8.062,4.235,2.209102,0.374390,-5.642045,100259.83,+50,-216,+42
133323,17.087,-8.593,5.668,2.167065,0.384500,-5.764431,100258.09,+33,-206,+48
133334,17.083,-9.445,6.933,2.229322,0.372262,-5.879898,100259.34,+33,-206,+48
133344,16.879,-11.681,7.389,2.307010,0.352041,-5.841587,100262.23,+17,-197,+55
133353,16.584,-15.013,7.195,2.355964,0.338207,-5.683550,100262.23,+2,-187,+60
133363,16.276,-19.248,6.533,2.369799,0.320115,-5.360559,100257.20,-9,-172,+65
133373,15.530,-22.799,4.746,2.194203,0.336078,-4.914119,100258.02,-9,-172,+65
133384,13.107,-22.653,3.025,1.763194,0.392482,-4.448523,100258.02,-19,-160,+70
133393,9.773,-20.289,4.212,1.227892,0.485601,-3.745074,100265.26,-27,-150,+73
133403,7.422,-23.731,7.526,1.068259,0.595216,-2.715974,100262.54,-31,-142,+76
133413,4.409,-27.549,8.174,0.466443,0.532427,-1.753387,100264.37,-31,-142,+76
133424,2.843,-27.268,5.818,-0.513171,0.538280,-0.718966,100263.05,-32,-138,+77
133434,4.895,-24.341,4.927,-1.069758,0.675032,0.477749,100266.97,-31,-142,+76
133443,7.738,-20.806,3.883,-1.036235,0.615436,1.448850,100266.50,-27,-146,+75
133453,8.124,-16.972,1.633,-0.805300,0.250941,2.383766,100263.50,-21,-154,+74
133464,13.816,-3.651,-0.053,-0.578621,-0.259353,2.890867,100262.03,-21,-154,+74
133474,25.306,27.126,-5.302,-0.894162,-0.961738,1.875069,100262.03,-17,-159,+72
133483,24.658,34.239,-14.066,-1.179373,-0.414197,0.298960,100262.03,-17,-161,+68
133493,19.623,1.759,-5.732,0.605855,0.051399,2.071950,100272.04,-10,-163,+73
133504,16.147,-20.818,13.624,3.879395,-0.067793,3.635820,100267.27,-10,-163,+73
133514,10.366,-24.942,5.559,3.329193,-0.034802,3.336775,100262.29,-3,-157,+81
133524,11.428,-6.388,2.459,1.798313,0.686206,2.918537,100265.23,+5,-155,+85
133533,8.028,3.734,4.178,2.940221,0.648427,2.927583,100265.23,+13,-150,+93
133543,-0.109,-1.102,14.242,3.910789,0.365344,2.429528,100263.61,+13,-150,+93
133554,2.305,-12.142,6.622,2.537946,-0.417389,2.298097,100261.70,+16,-141,+98
133564,8.907,-17.448,-0.577,-0.437612,0.050335,2.174115,100262.20,+21,-143,+98
133573,12.319,-11.729,1.633,-2.558069,0.778793,1.783547,100262.20,+26,-154,+93
133583,12.800,-4.639,3.874,-3.519060,0.880958,1.499400,100262.20,+26,-154,+93
133594,9.797,-1.927,3.583,-3.383904,0.695784,1.273785,100262.20,+33,-167,+86
133604,7.489,0.064,1.841,-2.471335,0.586702,1.114685,100265.77,+36,-174,+81
133613,7.802,3.199,1.550,-1.211832,0.645234,1.082758,100261.00,+41,-178,+80
133623,8.830,1.345,3.282,0.175379,0.531362,1.167896,100262.20,+41,-178,+80
133634,9.757,-2.076,2.957,1.117213,0.233913,1.283363,100262.20,+45,-177,+83
133644,9.559,-3.958,2.311,1.257158,0.233913,1.306776,100266.50,+49,-173,+85
133654,8.959,-5.311,3.324,0.910754,0.417491,1.234409,100266.23,+53,-172,+87
133663,8.435,-6.417,6.068,0.124296,0.527106,1.074776,100261.05,+53,-172,+87
133673,7.418,-6.204,7.880,-0.775502,0.503693,0.786905,100264.38,+57,-174,+86
133684,7.420,-4.246,5.837,-1.436914,0.482940,0.460722,100264.22,+59,-177,+83
133694,7.837,-2.186,3.920,-1.785978,0.592023,0.269162,100263.23,+62,-183,+80
133703,8.901,-0.884,3.178,-1.497575,0.546261,0.250538,100263.23,+62,-183,+80
133713,10.142,-0.871,2.268,-0.799979,0.344060,0.378245,100267.63,+64,-187,+77
133724,10.435,-2.518,2.651,-0.127392,0.183895,0.512336,100262.44,+66,-187,+76
133734,9.548,-4.080,3.225,0.236571,0.056188,0.564483,100262.44,+66,-186,+78
133744,8.781,-5.031,4.012,-0.106640,0.133167,0.582043,100263.81,+66,-186,+78
133753,8.520,-4.541,5.055,-0.578089,0.248280,0.510740,100263.81,+69,-187,+76
133764,8.416,-3.404,5.345,-0.997391,0.335014,0.402722,100262.92,+71,-190,+74
133774,8.616,-2.695,5.490,-1.223538,0.385032,0.351107,100259.36,+73,-195,+71
133784,8.888,-2.014,4.310,-1.360290,0.388225,0.354832,100259.36,+73,-195,+71
133793,9.286,-2.080,3.893,-1.361354,0.412702,0.435180,100263.94,+75,-196,+68
133804,9.517,-2.519,3.265,-1.290052,0.388757,0.534153,100263.20,+78,-200,+64
133814,9.672,-3.194,2.712,-1.252272,0.382372,0.624611,100263.67,+80,-204,+63
133823,9.814,-3.478,2.427,-1.273024,0.385564,0.708153,100263.67,+80,-204,+63
133833,9.927,-3.337,2.438,-1.308143,0.394078,0.789033,100263.67,+83,-207,+58
133843,9.979,-3.121,2.699,-1.327299,0.408977,0.872043,100264.05,+86,-209,+55
133854,9.757,-2.975,2.820,-1.357098,0.433454,0.957180,100263.57,+90,-214,+52
133864,9.600,-2.532,2.894,-1.392217,0.463784,1.059877,100265.77,+90,-214,+52
133873,9.801,-2.051,2.845,-1.405520,0.440904,1.192373,100264.46,+94,-216,+48
133883,10.456,-1.490,2.965,-1.302822,0.381307,1.335510,100264.46,+99,-218,+43
133894,11.430,-1.917,3.279,-1.124566,0.253069,1.548354,100267.20,+104,-222,+41
133904,11.854,-2.537,3.548,-0.898419,0.142922,1.742574,100265.69,+104,-222,+41
133914,12.238,-3.282,3.581,-0.901612,0.052464,1.874005,100261.64,+111,-222,+38
133923,12.749,-3.190,4.027,-1.068162,-0.008197,2.018207,100261.64,+116,-224,+35
133934,13.095,-2.185,4.021,-1.185758,-0.190178,2.183161,100268.80,+123,-226,+32
133944,13.395,-2.137,3.646,-1.124034,-0.311499,2.376849,100268.80,+123,-226,+32
133953,14.185,-3.156,3.336,-1.064969,-0.400362,2.548720,100264.30,+130,-226,+30
133963,15.050,-3.949,3.093,-1.247483,-0.574894,2.679619,100263.26,+137,-227,+26
133974,15.986,-3.937,2.976,-1.646565,-0.613206,2.750390,100264.88,+146,-229,+21
133979,17.337,-3.021,2.782,-2.058418,-0.536582,2.765821,100264.88,+146,-229,+21
133989,19.419,-0.991,2.540,-2.622455,-0.381206,2.726445,100269.73,+153,-230,+15
133998,21.607,3.033,2.635,-3.210968,-0.235408,2.727509,100267.27,+162,-233,+5
134008,23.193,7.611,2.845,-3.282803,-0.238600,2.845105,100266.22,+162,-233,+5
134019,22.985,9.111,3.385,-2.787941,-0.313096,3.057949,100260.83,+171,-236,-5
134029,19.547,5.421,5.198,-1.806730,-0.481775,3.309105,100260.83,+181,-234,-10
134039,16.028,-3.034,6.939,-0.549355,-0.764325,3.663490,100261.16,+191,-231,-10
134048,16.207,-10.925,8.683,0.160479,-1.053793,4.022664,100263.14,+191,-231,-10
134059,19.375,-11.557,12.542,0.238700,-0.951095,4.106205,100263.88,+204,-225,-8
134069,18.535,-5.544,12.089,0.415360,-0.872875,3.834830,100259.73,+215,-217,-6
134079,15.666,-0.567,10.503,0.658002,-0.791462,3.471399,100259.73,+223,-211,-3
134088,14.002,3.030,8.178,1.060277,-1.051664,2.830206,100263.30,+223,-211,-3
134098,10.571,4.783,6.288,1.314626,-1.434251,2.193803,100261.43,+230,-205,+1
134109,5.296,3.083,6.313,1.639745,-1.511939,1.900079,100260.05,+233,-199,+6
134119,-0.538,-3.979,5.260,2.117579,-1.465646,1.715436,100260.48,+234,-192,+15
134128,-2.824,-9.412,7.197,2.109065,-0.844141,1.131180,100260.48,+234,-192,+15
134138,0.741,-9.351,7.361,1.062937,-0.653114,0.149970,100263.58,+236,-188,+20
134149,2.396,-4.881,5.116,-0.368970,-0.874472,-0.656709,100262.42,+231,-189,+22
134159,2.543,0.043,1.363,-1.702437,-0.983022,-1.215956,100261.95,+226,-193,+19
134169,2.355,2.680,-1.030,-2.691097,-0.918637,-1.605993,100262.53,+226,-193,+19
134178,1.747,4.014,-1.731,-2.774638,-0.795719,-1.918873,100262.53,+220,-202,+13
134189,1.405,3.913,-1.044,-2.148877,-0.603096,-2.112561,100263.49,+212,-208,+8
134199,1.230,3.308,0.335,-1.316125,-0.488160,-2.333387,100265.23,+205,-215,+5
134209,1.601,3.001,0.943,-0.363649,-0.532857,-2.678194,100261.71,+195,-215,+5
134218,2.165,1.983,1.741,0.438773,-0.447720,-3.079937,100259.20,+195,-218,+7
134228,2.853,0.026,3.125,0.932039,-0.306710,-3.399735,100259.20,+183,-222,+10
134239,3.618,-2.348,3.628,0.976204,-0.196564,-3.683881,100258.45,+172,-224,+13
134249,4.456,-4.811,4.087,0.489855,-0.030546,-3.924395,100254.73,+159,-227,+13
134258,3.294,-2.305,3.718,-0.237007,0.135473,-4.403826,100254.20,+159,-227,+13
134268,3.066,1.813,3.560,-0.362052,0.321179,-4.929550,100259.07,+143,-232,+12
134279,5.131,3.174,3.147,0.265305,0.463784,-5.183899,100259.07,+127,-234,+13
134289,7.656,1.805,3.554,1.131048,0.572335,-5.287660,100258.84,+111,-234,+17
134299,9.884,-0.684,3.686,1.904203,0.574463,-5.410045,100255.90,+111,-234,+17
134308,11.007,-2.220,3.498,2.471964,0.594151,-5.533495,100255.63,+92,-230,+24
134319,11.126,-2.969,3.373,2.788037,0.618628,-5.542541,100256.32,+77,-225,+33
134329,10.611,-4.702,3.318,3.063138,0.585105,-5.522852,100256.32,+61,-216,+40
134339,11.075,-6.635,3.613,3.078569,0.515399,-5.538284,100260.34,+61,-216,+40
134348,13.768,-8.735,4.482,2.799744,0.433454,-5.563293,100257.92,+46,-207,+49
134359,16.587,-9.960,5.534,2.450680,0.422812,-5.677165,100262.33,+31,-198,+54
134369,17.399,-9.747,6.826,2.222405,0.481876,-5.834137,100255.98,+15,-188,+61
134379,16.931,-11.338,7.919,2.208570,0.498904,-5.874577,100255.98,+15,-188,+61
134389,16.818,-13.876,6.775,1.999983,0.348849,-5.881495,100262.21,+2,-175,+66
134398,16.607,-16.134,6.028,1.554075,0.285528,-5.752192,100261.54,-11,-162,+70
134409,16.256,-18.930,5.115,1.292809,0.305216,-5.411109,100263.63,-21,-152,+73
134419,14.653,-19.689,4.698,1.077304,0.374390,-4.944982,100261.54,-21,-152,+73
134429,11.275,-18.639,5.675,0.905433,0.491454,-4.342101,100261.54,-29,-141,+75
134438,8.233,-22.271,8.519,0.878828,0.705894,-3.479019,100259.76,-35,-132,+76
134450,4.743,-26.842,8.268,0.044834,0.667405,-2.454885,100262.37,-37,-128,+78
134459,3.227,-27.785,5.348,-1.069226,0.652683,-1.535754,100262.27,-37,-128,+78
134469,4.067,-26.021,3.379,-1.891868,0.794225,-0.360856,100260.70,-36,-130,+77
134478,8.642,-22.147,4.986,-2.027556,0.890536,0.794887,100260.70,-34,-136,+75
134489,10.288,-16.910,1.501,-1.749263,0.485069,1.692556,100262.73,-29,-144,+72
134499,14.214,-8.165,-0.086,-1.395410,-0.108234,2.815307,100262.64,-29,-144,+72
134509,24.582,18.546,-2.026,-0.736125,-0.982490,2.674830,100261.84,-24,-152,+69
134519,29.996,41.591,-13.595,-0.337043,-0.909591,1.064666,100266.20,-23,-156,+68
134529,21.142,12.122,-11.471,1.358258,-0.330655,2.098023,100266.20,-20,-154,+71
134539,13.516,-18.644,11.557,5.647595,-0.686105,4.177508,100267.22,-20,-154,+71
134549,8.749,-31.696,9.368,5.684843,-0.761132,4.276481,100260.83,-10,-143,+82
134559,11.476,-16.230,2.533,2.591157,0.099821,3.319215,100261.30,-5,-139,+87
134568,10.789,1.691,3.432,2.479946,0.521252,3.159050,100262.23,+2,-136,+93
134579,1.515,4.358,13.857,4.059780,0.161546,2.742408,100262.23,+2,-136,+93
134589,-2.836,-8.144,11.135,3.562257,-0.584472,2.547124,100262.72,+8,-126,+99
134599,6.401,-18.495,1.977,0.935231,-0.308307,2.649821,100264.03,+10,-124,+101
134608,12.854,-18.897,0.225,-1.850896,0.242959,2.211895,100265.66,+14,-132,+99
134619,13.586,-10.753,1.121,-3.846307,0.777197,1.609547,100265.72,+14,-132,+99
134629,11.083,-3.030,3.142,-4.808894,1.068793,1.356262,100265.72,+20,-146,+91
134639,7.072,0.821,2.552,-3.895793,0.899050,1.172152,100264.42,+26,-161,+85
134649,7.895,3.143,1.700,-2.247849,0.598408,1.135437,100263.27,+30,-168,+80
134659,9.404,3.952,2.210,-0.266273,0.311601,1.165235,100265.67,+30,-168,+80
134669,8.658,-0.270,2.895,1.349745,0.060445,1.265804,100264.58,+33,-167,+82
134679,9.108,-3.971,3.054,1.915910,-0.060876,1.294006,100264.58,+36,-164,+85
134684,9.457,-5.724,2.509,1.721689,-0.066197,1.238666,100265.31,+36,-164,+85
134693,9.268,-6.445,2.571,1.225231,0.008298,1.152464,100265.31,+40,-160,+89
134704,8.730,-6.798,3.781,0.299360,0.215289,0.964630,100265.36,+41,-159,+90
134714,7.779,-7.443,5.966,-0.823924,0.458463,0.713474,100261.80,+46,-163,+87
134724,7.428,-6.097,6.468,-1.992969,0.638849,0.425070,100263.84,+46,-163,+87
134734,8.086,-2.505,5.394,-2.638418,0.699509,0.195199,100261.96,+48,-170,+83
134744,8.830,0.295,3.494,-2.455904,0.601069,0.124428,100270.18,+49,-176,+78
134754,10.178,1.478,1.105,-1.584841,0.389289,0.242557,100265.52,+50,-181,+76
134764,10.773,0.539,0.504,-0.420052,0.181234,0.485731,100265.52,+50,-181,+76
134774,9.862,-2.904,2.187,0.344589,0.081730,0.654942,100265.99,+54,-181,+76
134784,9.088,-5.215,3.779,0.301488,0.123766,0.706556,100265.99,+55,-181,+75
134794,8.493,-4.734,5.044,-0.296071,0.254665,0.654410,100262.59,+57,-182,+76
134804,8.179,-3.248,5.789,-0.867557,0.345656,0.555437,100262.63,+57,-182,+76
134814,8.679,-2.139,5.221,-1.160749,0.374922,0.530428,100261.38,+60,-185,+73
134824,9.116,-1.516,4.117,-1.172456,0.352573,0.606520,100258.80,+61,-187,+70
134834,9.076,-1.444,3.305,-0.986749,0.313197,0.739547,100258.80,+64,-191,+68
134844,8.819,-2.353,2.642,-0.743575,0.304152,0.884281,100265.45,+64,-191,+68
134854,9.040,-3.574,1.929,-0.649392,0.328629,0.989107,100261.89,+67,-193,+66
134864,9.681,-4.093,2.068,-0.720694,0.349381,1.035932,100261.36,+72,-195,+65
134874,10.124,-3.969,2.303,-0.781887,0.316922,1.063602,100261.36,+75,-197,+64
134884,10.500,-3.664,2.409,-0.804768,0.270629,1.110960,100261.36,+75,-197,+64
134894,10.598,-3.925,2.583,-0.732401,0.237106,1.152464,100267.13,+80,-199,+61
134904,10.419,-4.693,2.236,-0.679722,0.243491,1.188116,100263.72,+84,-201,+60
134914,10.058,-5.178,1.992,-0.787208,0.290849,1.198226,100262.98,+87,-203,+57
134920,10.104,-4.910,2.341,-0.925024,0.313729,1.216318,100267.39,+87,-203,+57
134929,10.124,-4.290,2.526,-1.014419,0.298830,1.255694,100267.39,+92,-206,+55
134939,10.334,-3.302,2.821,-1.042621,0.263179,1.337106,100264.59,+96,-208,+52
134949,10.761,-2.626,3.010,-0.996327,0.176977,1.475455,100266.16,+96,-208,+52
134959,11.362,-2.546,3.191,-0.894162,0.109399,1.665418,100267.48,+101,-211,+50
134969,12.376,-2.827,3.487,-0.809557,0.100886,1.790996,100264.59,+105,-212,+48
134979,13.516,-3.375,3.289,-0.856382,0.066831,1.970317,100264.59,+113,-213,+45
134989,13.865,-3.496,2.704,-0.994199,0.032776,2.175711,100265.79,+113,-213,+45
134999,13.959,-3.466,2.200,-1.117116,-0.005536,2.379509,100267.84,+119,-215,+43
135009,14.077,-3.323,2.121,-1.201722,-0.048105,2.507216,100264.38,+126,-216,+40
135019,14.586,-3.087,2.802,-1.293777,-0.069390,2.666317,100263.02,+134,-216,+35
135029,15.831,-3.542,3.828,-1.455006,-0.027885,2.755179,100263.02,+134,-216,+35
135040,18.068,-2.881,4.842,-1.889207,0.089711,2.783913,100261.35,+143,-218,+31
135049,20.880,-0.211,5.931,-2.586803,0.203583,2.782316,100262.46,+152,-220,+23
135059,22.088,3.099,7.028,-3.133280,0.275418,2.817968,100260.35,+162,-224,+14
135069,21.366,5.749,7.254,-3.181702,0.327564,2.940353,100259.46,+162,-224,+14
135079,19.810,5.716,7.910,-2.919904,0.419619,3.042518,100259.46,+172,-226,+5
135089,17.137,1.282,7.770,-2.579354,0.415362,3.084023,100263.28,+182,-226,-2
135099,15.365,-7.630,8.006,-1.884418,0.188152,3.293142,100263.17,+193,-224,-8
135109,16.974,-13.354,7.166,-1.509813,-0.035335,3.571967,100262.34,+193,-224,-8
135119,17.837,-9.879,9.178,-1.397006,-0.002876,3.479380,100260.14,+204,-222,-13
135129,16.355,-3.260,8.411,-0.975043,-0.162509,3.209069,100260.14,+214,-217,-16
135139,14.336,1.681,6.794,-0.590327,-0.393976,2.713142,100264.80,+222,-214,-17
135149,11.005,4.898,2.524,-0.242860,-0.681316,2.008097,100260.34,+222,-214,-17
135155,6.371,5.151,2.822,-0.238603,-0.529132,1.655840,100264.47,+227,-210,-16
135164,1.285,0.222,2.948,0.230186,-0.375885,1.568042,100264.47,+231,-206,-15
135175,-2.028,-5.674,5.827,1.081029,0.095564,1.351473,100260.17,+231,-206,-15
135184,0.382,-6.294,7.539,1.162974,0.159418,0.708685,100260.17,+235,-203,-12
135194,2.696,-4.941,5.108,0.611709,-0.214656,0.028116,100259.24,+235,-201,-10
135204,2.622,-2.315,1.138,-0.482309,-0.354600,-0.652452,100262.90,+233,-203,-12
135215,2.918,-0.739,-1.103,-1.757244,-0.227958,-1.179241,100263.12,+233,-203,-12
135224,2.991,1.310,-3.116,-2.471868,-0.232215,-1.653350,100263.12,+228,-208,-18
135234,2.572,3.604,-3.164,-2.241464,-0.246582,-2.000286,100263.12,+221,-214,-23
135244,2.170,5.034,-1.018,-0.998988,-0.184857,-2.295607,100265.27,+215,-218,-25
135255,1.950,4.976,0.607,0.385030,-0.240197,-2.604231,100260.81,+215,-218,-25
135264,1.627,2.724,2.222,1.453506,-0.236472,-2.876139,100259.25,+206,-222,-21
135274,1.753,0.095,3.207,1.903139,-0.095995,-3.107074,100259.50,+196,-223,-15
135284,2.472,-1.851,3.541,1.733928,0.124830,-3.334285,100259.50,+186,-225,-11
