200003,8.712,-3.087,3.374,0.015746,0.010427,-0.005939,100268.13,-119,-9,-250
200013,8.811,-3.181,3.312,0.018406,0.006170,-0.003278,100268.13,-119,-9,-250
200024,8.737,-3.187,3.318,0.020002,0.010959,-0.004342,100271.63,-119,-9,-249
200034,8.748,-3.203,3.341,0.011489,0.012555,-0.004342,100269.47,-120,-9,-250
200043,8.736,-3.142,3.348,0.004039,0.014684,-0.008067,100267.08,-119,-10,-250
200053,8.728,-3.205,3.405,0.004571,0.011491,-0.010195,100267.08,-119,-10,-250
200064,8.766,-3.259,3.343,0.000846,0.007766,-0.013388,100270.77,-120,-9,-250
200073,8.719,-3.218,3.301,-0.005007,0.010959,-0.018177,100270.77,-120,-9,-250
200083,8.697,-3.184,3.329,-0.011924,0.010959,-0.022434,100268.41,-118,-9,-250
200093,8.727,-3.139,3.337,-0.009264,0.013087,-0.024030,100271.35,-118,-9,-250
200103,8.737,-3.097,3.348,-0.001814,0.007234,-0.028819,100267.88,-120,-9,-249
200114,8.689,-3.155,3.317,-0.004475,0.006170,-0.025095,100267.88,-119,-9,-250
200124,8.704,-3.119,3.355,-0.008731,0.006170,-0.022434,100268.77,-119,-10,-250
200133,8.755,-3.017,3.325,-0.009264,0.005106,-0.020838,100268.30,-119,-10,-250
200143,8.751,-3.016,3.325,-0.002878,0.007234,-0.014984,100267.56,-120,-9,-250
200154,8.779,-3.017,3.359,0.004571,0.006702,-0.009663,100269.92,-121,-8,-250
200164,8.745,-3.082,3.289,0.002443,0.001913,-0.005939,100271.28,-120,-9,-250
200173,8.745,-3.052,3.350,0.000846,0.002445,-0.002746,100271.66,-120,-9,-250
200183,8.750,-3.053,3.334,0.004571,0.000849,0.001511,100268.23,-120,-9,-250
200194,8.670,-3.076,3.342,0.002975,0.001913,0.004704,100268.23,-120,-9,-250
200203,8.702,-3.082,3.356,0.001911,0.002445,0.008961,100262.89,-119,-9,-250
200213,8.684,-3.087,3.340,0.006168,0.004574,0.010025,100262.89,-119,-9,-250
200223,8.706,-3.124,3.364,0.009360,0.002977,0.012153,100271.90,-120,-9,-249
200228,8.739,-3.076,3.347,0.010424,0.001913,0.011621,100270.16,-120,-9,-250
200239,8.762,-3.197,3.304,0.010957,0.000317,0.011621,100271.70,-120,-9,-250
200248,8.697,-3.166,3.364,0.007764,0.000317,0.011621,100265.40,-120,-9,-249
200258,8.646,-3.191,3.349,0.008296,-0.001812,0.008961,100265.40,-120,-10,-249
200268,8.704,-3.115,3.283,0.013085,-0.005004,0.007896,100271.52,-120,-9,-250
200279,8.707,-3.136,3.329,0.022131,-0.004472,0.008428,100265.69,-120,-9,-250
200289,8.697,-3.159,3.346,0.019470,-0.005536,0.007896,100270.56,-120,-10,-249
200298,8.750,-3.030,3.328,0.014149,-0.001280,0.008428,100268.25,-120,-9,-249
200308,8.719,-3.084,3.434,0.010424,0.004042,0.011621,100268.25,-120,-10,-250
200318,8.703,-3.165,3.390,0.004039,0.003509,0.014814,100269.77,-120,-10,-250
200329,8.709,-3.188,3.317,-0.005007,0.006702,0.014814,100268.56,-120,-9,-249
200338,8.713,-3.133,3.393,-0.006071,0.008298,0.010025,100267.14,-120,-9,-249
200348,8.719,-3.118,3.346,-0.002346,0.005638,0.007896,100268.56,-120,-9,-249
200358,8.658,-3.125,3.354,0.000314,0.006170,0.006300,100268.56,-120,-9,-249
200369,8.681,-3.081,3.347,0.006700,0.006702,0.007364,100267.98,-120,-9,-250
200378,8.770,-3.168,3.382,0.006700,0.006702,0.011089,100271.81,-120,-9,-249
200388,8.768,-3.193,3.320,-0.001814,0.005638,0.008961,100268.41,-120,-10,-249
200398,8.720,-3.053,3.241,-0.008731,0.002977,0.012153,100267.25,-120,-10,-249
200409,8.787,-2.942,3.191,0.001911,-0.005004,0.015878,100267.25,-119,-10,-249
200419,8.880,-2.811,3.473,0.026920,-0.058215,0.029181,100269.12,-120,-9,-249
200428,8.962,-2.576,3.671,0.080663,-0.145481,0.047805,100269.85,-119,-9,-250
200438,9.015,-2.523,3.717,0.149305,-0.252967,0.076538,100270.70,-119,-9,-250
200449,8.693,-2.763,3.377,0.196663,-0.279041,0.096759,100264.98,-120,-10,-250
200459,8.715,-3.188,2.894,0.206773,-0.222637,0.106869,100264.98,-118,-11,-250
200464,8.890,-3.332,2.916,0.182828,-0.200289,0.105272,100272.04,-118,-11,-250
200473,8.976,-2.633,3.203,0.190278,-0.221573,0.113254,100272.04,-118,-11,-252
200483,8.891,-2.112,3.562,0.304149,-0.273720,0.139859,100269.57,-117,-13,-252
200494,8.763,-2.807,3.359,0.434516,-0.300857,0.163272,100271.40,-118,-14,-253
200504,8.659,-3.174,3.097,0.445158,-0.287555,0.172850,100269.20,-118,-14,-253
200514,8.613,-3.057,3.076,0.431855,-0.262013,0.172318,100271.98,-116,-15,-253
200523,8.538,-3.240,2.904,0.445690,-0.244454,0.171254,100268.04,-116,-17,-253
200534,8.552,-3.472,2.986,0.427066,-0.216252,0.170190,100268.77,-115,-19,-254
200544,8.369,-3.739,2.904,0.381305,-0.182197,0.157951,100268.77,-115,-19,-254
200553,7.942,-3.884,2.828,0.320644,-0.127922,0.128685,100266.62,-115,-20,-254
200563,7.889,-3.758,3.000,0.252002,-0.073646,0.094098,100266.62,-115,-21,-254
200573,7.493,-3.643,3.311,0.205709,-0.019903,0.055254,100271.88,-115,-22,-255
200584,7.121,-3.504,3.493,0.175911,0.019473,0.020667,100270.41,-115,-22,-255
200594,7.889,-3.197,3.826,0.125892,0.037565,-0.014452,100267.47,-115,-23,-255
200603,9.451,-3.369,3.681,0.101415,0.031711,-0.046379,100268.41,-115,-23,-254
200613,10.113,-3.985,3.289,0.028516,0.040225,-0.063939,100268.41,-116,-21,-253
200624,9.951,-3.513,3.420,-0.077906,0.049271,-0.077773,100269.79,-116,-21,-253
200634,9.565,-2.986,3.680,-0.085355,0.040757,-0.083627,100266.13,-115,-21,-254
200644,9.194,-3.091,3.875,-0.023631,0.009363,-0.086287,100268.13,-115,-21,-254
200653,9.030,-3.167,3.936,0.037562,-0.033206,-0.092140,100268.13,-115,-21,-254
200664,9.004,-3.512,3.836,0.062571,-0.061408,-0.110232,100268.13,-115,-21,-254
200674,8.945,-3.872,3.629,0.013085,-0.068857,-0.143755,100270.44,-116,-20,-254
200683,8.791,-3.837,3.540,-0.085887,-0.058215,-0.178874,100274.33,-115,-21,-255
200693,8.610,-3.588,3.445,-0.150273,-0.043848,-0.215058,100271.66,-115,-19,-255
200699,8.533,-3.670,3.246,-0.174750,-0.028949,-0.237406,100272.17,-115,-19,-255
200709,8.622,-3.672,3.142,-0.211465,-0.016711,-0.259223,100272.17,-115,-17,-255
200719,8.679,-3.465,3.139,-0.276915,-0.021500,-0.289021,100271.16,-115,-16,-255
200728,8.623,-3.188,3.082,-0.281172,-0.024160,-0.316159,100268.12,-115,-16,-255
200738,8.599,-3.078,2.972,-0.265208,-0.024692,-0.333186,100269.07,-115,-15,-255
200749,8.569,-2.969,2.831,-0.247117,-0.027885,-0.343296,100269.32,-115,-13,-255
200759,8.770,-2.822,2.827,-0.209337,-0.039059,-0.342764,100269.32,-115,-11,-255
200769,9.004,-2.741,2.991,-0.152933,-0.037995,-0.334250,100270.64,-115,-11,-255
200778,8.946,-2.620,3.048,-0.109832,-0.028949,-0.325204,100269.53,-115,-11,-255
200788,8.880,-2.808,3.075,-0.092273,-0.016711,-0.317223,100268.44,-115,-9,-256
200799,8.786,-2.843,2.782,-0.104511,-0.001812,-0.310837,100269.91,-115,-8,-255
200809,8.810,-2.748,2.860,-0.120475,0.022133,-0.298067,100269.91,-115,-8,-255
200818,8.912,-2.451,3.061,-0.101319,0.037565,-0.284232,100274.27,-115,-7,-255
200828,8.949,-2.462,2.971,-0.054493,0.052464,-0.258159,100270.33,-115,-6,-255
200839,8.927,-2.688,2.912,-0.020438,0.083858,-0.237406,100271.59,-115,-5,-255
200849,8.952,-2.882,2.973,-0.010328,0.117381,-0.229425,100268.33,-115,-5,-255
200858,8.997,-2.935,3.038,-0.022034,0.145051,-0.225168,100268.33,-116,-5,-255
200868,9.176,-3.162,3.056,-0.053961,0.159418,-0.217718,100272.09,-116,-3,-254
200879,9.496,-3.111,2.972,-0.114089,0.180170,-0.206544,100269.27,-117,-3,-254
200889,9.489,-2.771,3.015,-0.174750,0.198262,-0.185792,100268.80,-117,-3,-254
200899,8.920,-2.103,3.174,-0.142291,0.174317,-0.161847,100267.95,-118,-2,-254
200908,8.520,-1.683,3.562,-0.027887,0.114720,-0.115553,100267.95,-116,-2,-254
200919,8.715,-2.209,3.890,0.040755,0.050335,-0.058617,100274.37,-117,-1,-253
200929,9.208,-2.790,4.288,0.004571,-0.020435,-0.006471,100270.21,-117,-1,-253
200939,9.685,-2.289,4.174,0.088112,-0.175279,0.054190,100268.27,-118,-1,-254
200948,9.196,-1.898,2.934,0.008828,-0.256160,0.110061,100270.32,-116,-2,-254
200958,9.462,-2.081,3.312,-0.107172,-0.240197,0.224997,100270.32,-116,-2,-254
200969,9.699,-1.856,2.693,-0.197630,-0.230619,0.324502,100268.31,-116,-2,-254
200979,9.763,-0.934,2.627,-0.222107,-0.109830,0.432520,100269.94,-115,-3,-255
200988,9.650,-1.976,3.915,-0.164640,-0.023096,0.533089,100269.14,-116,-5,-255
200998,9.372,-3.500,3.446,-0.233282,-0.065133,0.603859,100271.41,-116,-5,-256
201009,9.983,-2.768,3.465,-0.387062,-0.079500,0.684208,100271.41,-116,-5,-256
201019,10.294,-2.535,3.996,-0.551483,-0.056619,0.782648,100269.49,-116,-7,-255
201029,10.245,-2.469,4.378,-0.796254,-0.032674,0.878960,100269.18,-115,-7,-256
201038,10.435,-1.519,4.099,-1.108602,0.023198,0.968886,100271.18,-115,-9,-255
201049,11.394,-1.296,4.188,-1.279410,0.080665,1.101027,100268.60,-115,-8,-257
201059,13.799,-2.493,4.537,-1.335813,0.062042,1.242923,100268.60,-115,-8,-257
201069,17.410,-3.955,4.267,-1.452877,-0.005004,1.391382,100272.99,-115,-9,-256
201078,19.903,-4.642,4.071,-1.587501,-0.067261,1.480776,100270.95,-115,-10,-257
201089,19.262,-6.427,2.766,-1.661996,-0.180068,1.508978,100271.73,-113,-11,-257
201099,17.507,-5.965,1.020,-2.077042,-0.251903,1.547822,100270.26,-113,-11,-257
201109,17.325,-2.227,0.050,-2.575097,-0.300857,1.608482,100270.26,-112,-9,-259
201119,16.760,-1.821,1.506,-2.369703,-0.332252,1.704794,100269.21,-111,-9,-260
201128,15.253,-7.994,5.952,-1.548657,-0.312564,2.022464,100264.96,-109,-12,-262
201139,15.158,-12.520,9.605,-0.528071,-0.341298,2.414097,100271.41,-109,-12,-262
201149,14.577,-12.643,9.584,0.406314,-0.306710,2.589693,100266.63,-108,-20,-262
201159,14.697,-11.581,5.965,0.708552,-0.340233,2.655674,100266.63,-106,-29,-263
201169,12.001,-12.313,2.656,0.504222,-0.364888,2.788879,100273.46,-104,-38,-263
201179,8.951,-12.432,2.419,0.208901,-0.273720,2.767417,100271.95,-104,-38,-263
201189,6.169,-10.516,3.453,-0.173685,-0.117279,2.665784,100270.57,-102,-46,-263
201199,4.973,-7.080,3.069,-0.503594,0.033308,2.540739,100267.90,-101,-52,-264
201208,4.603,-5.028,1.475,-0.702070,0.117913,2.480078,100267.90,-99,-56,-265
201219,3.400,-4.013,0.207,-0.745171,0.107803,2.418353,100271.31,-99,-56,-265
201229,2.082,-2.802,-0.078,-0.671208,0.059913,2.285858,100269.31,-98,-62,-264
201239,1.200,-1.796,-0.116,-0.469006,-0.018307,2.115583,100272.05,-95,-67,-265
201248,0.189,-1.444,-0.452,-0.228493,-0.135371,1.914446,100266.42,-93,-71,-266
201259,-0.834,-1.107,-0.782,-0.048108,-0.248711,1.693620,100266.42,-93,-71,-266
201269,-1.451,-0.412,-0.799,0.102479,-0.362582,1.432354,100267.88,-91,-76,-266
201279,-1.668,0.445,-0.780,0.266369,-0.483371,1.160446,100266.14,-89,-79,-267
201289,-2.066,0.762,-0.738,0.443030,-0.591921,0.911951,100271.17,-87,-82,-268
201298,-2.441,0.715,-0.660,0.580846,-0.677591,0.685272,100268.30,-87,-82,-268
201309,-2.268,0.676,-0.465,0.652149,-0.739848,0.470832,100268.30,-83,-85,-269
201319,-1.956,0.752,-0.258,0.699507,-0.771242,0.270758,100267.86,-81,-88,-270
201329,-1.892,0.657,0.075,0.728773,-0.778160,0.087713,100268.44,-80,-90,-270
201338,-1.986,0.343,0.360,0.738883,-0.752618,-0.071920,100266.77,-80,-90,-270
201349,-1.896,-0.063,0.682,0.714406,-0.698875,-0.236342,100268.59,-78,-91,-271
201359,-1.637,-0.223,0.862,0.646828,-0.620655,-0.408746,100268.59,-78,-92,-272
201369,-1.088,-0.517,0.906,0.557433,-0.531793,-0.599773,100266.94,-76,-91,-272
201379,-0.609,-1.007,0.898,0.444626,-0.444527,-0.792397,100273.08,-76,-91,-272
201389,-0.262,-1.207,0.939,0.327562,-0.351940,-0.992470,100269.45,-77,-91,-272
201399,0.391,-1.538,0.882,0.214223,-0.270527,-1.179773,100266.25,-78,-88,-272
201409,1.121,-2.220,0.880,0.122700,-0.214123,-1.356433,100266.25,-79,-85,-273
201419,1.962,-2.781,1.029,0.072681,-0.173151,-1.520323,100269.79,-79,-85,-273
201428,3.218,-3.381,1.076,0.054590,-0.151867,-1.666653,100269.10,-81,-82,-273
201439,4.755,-4.001,1.668,0.077470,-0.130050,-1.770947,100269.57,-83,-78,-273
201449,7.317,-4.779,2.310,0.181232,-0.138032,-1.849699,100267.90,-84,-73,-273
201459,9.710,-5.828,2.508,0.344057,-0.146545,-1.907699,100267.90,-84,-73,-273
201468,10.786,-6.901,2.419,0.635653,-0.154527,-1.960910,100271.09,-85,-69,-274
201479,10.628,-7.675,2.104,0.919268,-0.167830,-1.994433,100268.80,-87,-66,-272
201489,10.522,-8.433,2.178,1.065066,-0.168894,-1.954525,100270.11,-87,-63,-272
201499,10.402,-8.690,2.237,1.032075,-0.173151,-1.924194,100266.53,-87,-63,-272
201508,10.154,-8.601,2.441,0.868718,-0.165169,-1.884818,100266.53,-90,-60,-271
201520,9.766,-8.392,2.727,0.713874,-0.132888,-1.846506,100271.13,-92,-58,-272
201529,9.538,-8.304,2.787,0.630332,-0.094399,-1.819369,100269.50,-92,-54,-271
201539,9.277,-8.355,3.031,0.520186,-0.065133,-1.800745,100271.55,-94,-51,-270
201549,9.210,-7.851,3.079,0.381837,-0.026289,-1.805534,100267.34,-94,-51,-270
201559,9.588,-6.847,3.147,0.237635,0.041821,-1.801277,100267.34,-94,-46,-272
201569,9.770,-6.112,3.115,0.158883,0.101418,-1.775203,100270.30,-96,-42,-271
201579,10.031,-5.590,3.329,0.126957,0.155161,-1.739552,100270.73,-98,-37,-271
201589,10.360,-5.280,3.487,0.109397,0.215821,-1.714011,100266.54,-98,-37,-271
201598,10.287,-5.283,3.233,0.090241,0.277014,-1.707093,100263.23,-99,-33,-269
201609,8.011,-7.333,6.355,0.089177,0.443564,-1.667185,100263.23,-100,-29,-269
201619,5.453,-11.787,12.181,0.835195,1.169362,-1.454341,100269.86,-104,-27,-264
201629,13.674,-15.674,10.932,1.029947,1.212463,-0.976507,100269.44,-104,-27,-264
201639,17.556,-12.734,-1.974,-0.734529,0.506353,-0.902011,100267.19,-106,-25,-263
201649,21.645,-2.273,-7.439,-2.452179,0.434518,-1.270231,100271.17,-108,-17,-264
201659,31.309,0.854,-0.450,-2.550088,0.240830,-0.490691,100271.17,-107,-10,-263
201669,25.016,9.853,5.248,-0.948437,0.244023,-0.215058,100273.65,-107,-10,-263
201679,7.306,7.214,3.264,0.757507,0.337674,-0.412470,100266.93,-109,-9,-262
201689,-0.252,-3.514,1.326,1.351341,0.369601,0.175511,100268.60,-109,-13,-262
201699,2.448,-8.858,1.635,1.010791,0.311601,0.457529,100268.66,-110,-15,-260
201709,7.401,-5.159,3.028,1.006534,0.155161,0.371859,100268.66,-110,-15,-260
201719,8.609,-2.084,4.399,1.720093,-0.040656,0.311731,100269.64,-111,-19,-259
201729,8.718,-3.437,5.916,1.961139,-0.078968,0.397933,100265.55,-109,-26,-258
201739,9.425,-5.948,6.437,1.240130,-0.058747,0.361749,100270.75,-110,-29,-259
201749,9.536,-6.071,4.638,0.095562,-0.048105,0.199988,100267.06,-110,-29,-259
201759,9.641,-5.067,2.481,-0.492951,0.016812,0.112190,100267.06,-110,-28,-259
201769,9.438,-3.728,1.521,-0.422181,0.082794,0.061639,100273.55,-110,-27,-259
201779,9.192,-2.303,1.630,-0.125264,0.122702,0.072282,100275.28,-110,-28,-258
201789,9.012,-1.860,2.356,0.303085,0.161014,0.143584,100270.30,-110,-28,-258
201799,8.657,-2.972,3.287,0.746864,0.164207,0.223401,100266.14,-111,-29,-257
201809,8.774,-4.038,4.028,0.925653,0.134408,0.273951,100266.14,-111,-31,-256
201819,8.853,-4.998,4.609,0.813910,0.113124,0.257456,100269.92,-111,-35,-255
201829,8.502,-5.842,4.561,0.398332,0.101950,0.191474,100269.97,-111,-35,-255
201839,8.263,-5.540,4.356,-0.196034,0.097693,0.100483,100271.44,-111,-35,-255
201849,8.495,-3.509,4.079,-0.646199,0.049803,0.031309,100264.92,-111,-35,-256
201859,8.716,-1.444,3.668,-0.656309,-0.008729,0.038759,100264.92,-112,-33,-255
201869,8.722,-0.720,2.801,-0.323740,0.008298,0.120704,100268.66,-112,-33,-255
201879,8.901,-1.384,2.647,0.098223,0.071620,0.229786,100269.97,-111,-33,-256
201889,8.306,-2.950,2.775,0.520718,0.067363,0.312263,100267.61,-111,-35,-255
201900,8.008,-5.445,2.571,0.729837,0.023198,0.370263,100270.86,-112,-38,-255
201909,8.682,-5.695,2.728,0.432920,0.062574,0.362281,100270.86,-112,-38,-255
201919,8.284,-5.553,3.548,0.121635,0.136005,0.290979,100271.77,-111,-40,-254
201929,8.132,-4.995,3.496,-0.248713,0.167399,0.244685,100267.10,-111,-39,-254
201939,8.268,-3.999,3.489,-0.505190,0.238702,0.204245,100270.20,-111,-39,-254
201949,8.364,-3.182,3.355,-0.551483,0.270629,0.206373,100267.95,-111,-39,-254
201959,8.550,-2.887,3.347,-0.486034,0.250408,0.253199,100267.95,-113,-38,-253
201969,8.629,-2.925,2.979,-0.387594,0.224867,0.305346,100271.30,-112,-38,-253
201979,8.777,-3.004,3.009,-0.322144,0.256794,0.377180,100274.66,-113,-39,-252
201990,8.600,-3.765,3.490,-0.314517,0.288188,0.429505,100267.78,-114,-39,-252
201999,8.381,-4.065,3.504,-0.376419,0.295638,0.459657,100270.09,-114,-39,-252
202009,8.326,-4.174,3.860,-0.512639,0.285528,0.478813,100270.09,-113,-40,-251
202019,8.387,-3.866,3.771,-0.606291,0.279674,0.496905,100267.10,-114,-40,-250
202030,8.647,-3.441,3.603,-0.642474,0.291913,0.526171,100270.04,-115,-39,-250
202039,8.714,-2.640,3.979,-0.624915,0.282867,0.565015,100270.62,-115,-39,-250
202049,8.616,-2.793,4.058,-0.499337,0.244555,0.613969,100268.26,-115,-40,-250
202059,8.494,-3.209,3.609,-0.365777,0.241363,0.646960,100268.26,-115,-41,-249
202070,8.621,-3.698,3.684,-0.274254,0.241895,0.670905,100273.06,-116,-43,-249
202079,8.831,-3.927,3.646,-0.149741,0.232317,0.714538,100270.97,-116,-43,-249
202089,8.995,-5.422,3.641,-0.086420,0.220610,0.743272,100272.17,-115,-45,-249
202099,8.679,-6.473,3.320,-0.212530,0.203051,0.727309,100271.44,-116,-46,-249
202109,8.712,-6.222,3.888,-0.446658,0.231252,0.715602,100271.44,-115,-47,-248
202120,8.520,-5.173,4.415,-0.613740,0.283399,0.719859,100267.48,-115,-47,-248
202129,9.135,-4.811,3.834,-0.717502,0.289252,0.769877,100269.79,-114,-48,-247
202139,9.838,-5.403,3.358,-0.803703,0.289785,0.836391,100273.88,-115,-49,-247
202149,10.274,-5.824,2.783,-0.889373,0.283931,0.911951,100268.05,-114,-50,-248
202159,10.611,-5.835,2.657,-1.002180,0.279674,0.974740,100268.05,-114,-50,-248
202169,10.704,-5.230,2.582,-1.033575,0.244023,1.052960,100269.18,-114,-50,-247
202179,10.999,-5.355,2.808,-1.008034,0.196133,1.151400,100270.54,-115,-52,-247
202189,11.408,-5.398,3.117,-1.007501,0.155693,1.246116,100267.66,-114,-53,-248
202200,11.607,-5.311,3.326,-1.093171,0.162610,1.320079,100265.82,-114,-53,-248
202209,12.244,-4.869,3.115,-1.240566,0.164739,1.389253,100265.82,-112,-55,-247
202219,12.919,-4.161,2.964,-1.358162,0.125363,1.497272,100271.10,-112,-56,-248
202229,13.038,-3.580,2.851,-1.351777,0.063106,1.642005,100271.15,-111,-58,-249
202240,13.397,-3.443,2.747,-1.281538,0.008298,1.783547,100266.63,-111,-58,-249
202249,14.023,-3.537,2.657,-1.226731,-0.042784,1.917106,100266.84,-109,-61,-251
202259,14.659,-3.818,2.591,-1.215024,-0.086949,2.018207,100266.84,-106,-63,-252
202269,16.079,-3.513,2.895,-1.313465,-0.123133,2.062372,100267.73,-104,-67,-254
202279,17.528,-1.832,3.425,-1.461923,-0.143885,2.084721,100270.89,-104,-67,-254
202290,18.203,-0.300,3.860,-1.514602,-0.147078,2.136867,100266.64,-102,-68,-255
202299,18.176,1.542,4.016,-1.534822,-0.135371,2.185289,100266.33,-99,-71,-258
202309,16.909,3.088,4.916,-1.557703,-0.125793,2.225198,100266.33,-97,-73,-259
202319,15.583,2.385,5.546,-1.503428,-0.189114,2.409840,100269.96,-97,-73,-259
202330,13.826,-2.801,7.051,-1.028786,-0.325334,2.718995,100268.13,-93,-76,-262
202339,13.625,-8.963,7.124,-0.412603,-0.491353,3.048903,100268.24,-88,-82,-263
202349,15.584,-10.381,4.872,-0.626511,-0.614270,3.045711,100269.65,-83,-88,-264
202359,15.990,-7.615,4.981,-0.762199,-0.650985,2.892463,100269.65,-83,-88,-264
202370,15.406,-3.582,4.132,-0.409410,-0.815407,2.802537,100271.10,-79,-93,-267
202379,14.040,0.635,3.881,-0.306181,-0.916508,2.577454,100266.63,-73,-99,-269
202389,11.203,3.629,2.522,-0.231685,-0.934600,2.189546,100267.74,-67,-103,-271
202399,6.831,2.239,3.871,0.066296,-0.810618,1.935730,100268.68,-67,-103,-271
202409,2.356,-3.767,4.430,0.934699,-0.652050,1.777161,100268.68,-63,-108,-274
202420,2.137,-7.976,5.748,1.491818,-0.301922,1.481840,100270.13,-59,-114,-272
202429,5.713,-7.848,3.954,1.079965,-0.198692,0.955052,100268.66,-57,-118,-270
202439,7.214,-5.249,1.688,0.279140,-0.507848,0.371859,100267.57,-57,-118,-270
202449,5.949,-1.041,0.929,-0.588731,-0.729206,-0.248581,100266.68,-55,-118,-272
202460,4.627,5.215,-0.459,-0.975575,-0.767518,-0.844011,100266.68,-55,-114,-277
202469,3.114,8.639,-0.606,-0.311502,-0.743573,-1.302158,100270.16,-54,-109,-278
202479,2.141,8.708,3.097,0.258920,-0.315224,-1.689534,100269.27,-54,-109,-278
202489,2.756,3.331,3.440,0.919268,-0.347683,-1.635259,100268.74,-55,-107,-278
202500,1.800,-1.320,4.158,1.310369,-0.282233,-1.797020,100265.91,-57,-106,-279
202509,1.615,-3.659,3.871,1.161910,-0.127922,-2.192378,100265.91,-60,-104,-277
202519,2.769,-3.576,3.093,0.627140,0.055656,-2.728744,100268.30,-64,-99,-277
202529,4.311,-1.611,2.799,-0.025759,0.234445,-3.195405,100266.35,-64,-99,-277
202540,5.867,0.775,2.387,-0.406750,0.275950,-3.555111,100260.74,-68,-90,-278
202550,6.867,0.745,1.334,-0.375355,0.266904,-3.829679,100269.24,-74,-79,-278
202559,7.011,-1.356,0.475,-0.067264,0.275950,-4.120743,100269.24,-78,-69,-277
202569,7.043,-2.432,0.500,0.117379,0.367473,-4.457037,100263.27,-78,-69,-277
202579,8.151,-1.951,0.227,0.179103,0.391418,-4.701807,100260.22,-82,-58,-277
202590,9.868,-1.508,-0.054,0.340865,0.407913,-4.865165,100265.25,-86,-46,-277
202599,11.410,-2.482,0.415,0.598938,0.396739,-4.955624,100265.73,-90,-35,-275
202609,12.091,-4.108,1.030,0.805396,0.306812,-4.993936,100265.73,-90,-35,-275
202619,11.902,-5.462,1.952,0.887873,0.259454,-5.067899,100265.90,-93,-23,-275
202630,11.574,-6.125,3.261,0.881488,0.246152,-5.194009,100266.21,-93,-13,-274
202640,11.774,-5.992,4.060,0.842644,0.196665,-5.365880,100264.38,-94,+0,-274
202649,12.703,-5.140,4.012,0.891066,0.163675,-5.559036,100263.54,-94,+0,-274
202659,13.875,-4.372,3.907,1.073580,0.173252,-5.717605,100263.54,-93,+11,-274
202670,14.707,-4.479,3.936,1.344956,0.171656,-5.806467,100268.56,-92,+25,-274
202680,15.350,-5.599,3.801,1.588130,0.147711,-5.807531,100269.36,-90,+36,-274
202689,15.676,-7.480,4.077,1.743506,0.137069,-5.740486,100265.58,-90,+36,-274
202699,15.584,-10.265,4.032,1.791396,0.123766,-5.599476,100265.58,-87,+46,-274
202710,14.889,-12.899,3.817,1.747231,0.074812,-5.400467,100265.58,-82,+57,-276
202720,14.750,-15.323,3.972,1.734460,0.023198,-5.099293,100270.52,-78,+66,-277
202729,14.549,-16.704,4.133,1.661561,-0.041720,-4.796523,100270.00,-78,+66,-277
202739,13.183,-16.717,4.495,1.423708,-0.029481,-4.480450,100266.69,-73,+74,-279
202749,11.172,-16.268,4.896,1.075176,0.077473,-4.067000,100269.27,-68,+80,-280
202760,9.114,-17.282,5.838,0.751653,0.234977,-3.505625,100269.27,-65,+87,-280
202770,7.122,-19.638,6.423,0.557965,0.349913,-2.798983,100268.61,-65,+87,-280
202779,5.593,-20.882,5.894,0.288186,0.380243,-1.996561,100269.92,-62,+91,-281
202789,4.987,-21.266,4.684,-0.091741,0.414830,-1.071754,100268.03,-61,+93,-280
202800,5.216,-20.364,4.393,-0.536052,0.474427,-0.077773,100267.92,-62,+96,-279
202810,6.055,-18.240,4.600,-0.871813,0.453142,0.831070,100267.92,-62,+96,-279
202819,8.727,-15.673,4.344,-0.956951,0.381307,1.558996,100269.07,-64,+95,-277
202829,7.652,-13.669,3.590,-0.825520,0.254665,2.336408,100269.87,-66,+93,-275
202840,13.440,-4.273,1.850,-0.559997,-0.188050,2.939821,100267.51,-69,+88,-275
202850,22.219,15.379,-1.376,-0.780291,-0.822325,2.355564,100267.71,-69,+88,-275
202859,24.651,27.223,-8.133,-0.543502,-0.718563,1.388189,100267.71,-69,+86,-277
202869,21.080,10.377,-6.219,0.802204,-0.193371,2.361418,100275.34,-69,+81,-277
202880,15.214,-15.419,6.584,3.363780,-0.250307,3.969453,100267.52,-73,+64,-280
202890,12.961,-26.239,8.838,3.928881,-0.333316,4.154627,100269.62,-73,+64,-280
202900,11.453,-10.529,3.082,1.670607,0.177509,3.303252,100269.62,-74,+45,-281
202909,7.024,3.646,4.680,1.120405,0.450482,2.783913,100269.62,-77,+36,-281
202919,-1.574,1.849,10.620,2.523047,0.220078,2.596610,100271.66,-79,+23,-279
202930,-1.612,-5.716,8.728,2.744404,-0.046509,2.431656,100268.09,-79,+23,-279
202940,8.277,-11.119,3.998,1.244919,-0.021500,2.394408,100267.63,-78,+11,-280
202949,14.513,-13.845,1.036,-0.140695,0.098225,2.282665,100266.58,-79,+5,-280
202959,12.872,-10.414,1.749,-1.226199,0.386096,1.900079,100266.58,-80,+3,-279
202970,10.271,-5.218,1.996,-2.019574,0.536683,1.652115,100271.98,-81,+3,-279
202980,8.033,-3.598,1.111,-2.179207,0.547858,1.540372,100271.60,-81,+5,-277
202989,7.396,-1.545,1.143,-1.584841,0.537748,1.354666,100266.93,-82,+7,-277
202999,8.740,-0.276,1.622,-0.544034,0.428133,1.262611,100268.30,-83,+4,-277
203010,9.680,-0.613,1.892,0.519654,0.370133,1.311565,100268.30,-84,+0,-275
203020,9.092,-3.125,2.874,1.020901,0.429729,1.322207,100271.91,-84,+0,-275
203030,8.479,-6.070,3.065,0.796351,0.493583,1.221107,100270.77,-85,-5,-272
203039,8.479,-6.132,2.991,0.132810,0.576060,1.055620,100270.92,-85,-9,-272
203049,8.818,-4.845,3.577,-0.470071,0.657472,0.893859,100271.70,-87,-9,-270
203060,8.760,-4.684,4.422,-0.950034,0.733564,0.798079,100271.70,-87,-9,-270
203070,8.570,-4.074,4.787,-1.521520,0.809124,0.690061,100269.38,-90,-7,-269
203079,8.618,-2.286,4.824,-1.896657,0.824023,0.582043,100265.29,-91,-6,-267
203089,8.877,-1.186,3.730,-1.823226,0.734096,0.563951,100269.48,-93,-2,-266
203100,9.349,-0.936,2.475,-1.371465,0.612243,0.601731,100266.60,-93,-2,-266
203110,9.539,-1.542,1.690,-0.714841,0.491454,0.674630,100266.60,-94,-1,-265
203120,9.132,-3.309,1.958,-0.188052,0.396206,0.736887,100269.31,-95,-3,-264
203129,8.613,-5.121,3.170,-0.067264,0.384500,0.742208,100267.89,-95,-5,-263
203140,8.051,-5.331,4.308,-0.369502,0.429197,0.662923,100269.05,-95,-5,-263
203150,7.693,-4.448,4.610,-0.693025,0.488261,0.543199,100271.16,-96,-4,-262
203160,8.071,-4.326,3.730,-0.806364,0.562757,0.466575,100271.16,-97,-5,-260
203165,8.766,-4.620,3.184,-0.848401,0.641509,0.434116,100271.84,-97,-5,-260
203174,9.226,-4.401,3.153,-0.927685,0.696316,0.412300,100271.84,-99,-4,-260
203185,9.550,-3.448,3.257,-0.965997,0.701638,0.425070,100272.99,-101,-2,-258
203195,9.477,-2.876,3.651,-0.873942,0.667050,0.489988,100268.74,-101,-2,-258
203205,9.395,-3.204,4.061,-0.759006,0.619693,0.567676,100269.66,-102,-2,-256
203214,9.337,-3.695,3.783,-0.768584,0.518592,0.638978,100268.60,-102,-1,-255
203225,9.434,-4.207,3.603,-0.846272,0.479748,0.720923,100269.82,-104,-2,-254
203235,9.052,-4.566,3.566,-1.112859,0.507417,0.744336,100266.98,-105,-2,-252
203245,8.907,-4.064,3.137,-1.375189,0.565949,0.728905,100266.98,-105,-2,-252
203254,9.510,-3.811,3.152,-1.368272,0.589894,0.797015,100268.66,-106,-1,-252
203265,10.251,-4.137,3.189,-1.252804,0.581913,0.898116,100268.66,-107,-1,-250
203275,10.434,-5.030,3.091,-1.191079,0.563821,1.002941,100271.50,-108,-1,-249
203285,10.724,-5.293,3.117,-1.270896,0.532427,1.079565,100274.34,-108,-1,-249
203295,11.139,-4.516,3.003,-1.415630,0.478151,1.150336,100274.08,-109,-1,-248
203304,11.563,-3.512,3.095,-1.505556,0.335546,1.256226,100267.56,-109,-2,-247
203315,11.461,-1.716,3.483,-1.452877,0.123234,1.420648,100267.56,-109,-3,-246
203325,11.199,-1.132,3.868,-1.215024,-0.083757,1.628703,100274.48,-109,-3,-246
203335,11.457,-2.218,3.771,-0.908529,-0.225830,1.819198,100270.96,-109,-6,-247
203344,12.123,-3.579,3.809,-0.815942,-0.276380,1.983088,100266.71,-108,-11,-248
203355,13.076,-4.427,3.906,-1.001116,-0.353536,2.157088,100266.71,-106,-14,-249
203365,14.038,-4.145,3.744,-1.262382,-0.390784,2.289583,100266.71,-106,-14,-249
203375,14.483,-3.849,3.637,-1.531630,-0.385995,2.352372,100269.96,-105,-18,-250
203384,15.192,-3.806,3.055,-1.819501,-0.374821,2.348647,100266.18,-103,-21,-252
203395,16.540,-3.540,2.122,-2.194638,-0.310967,2.307675,100268.38,-102,-21,-254
203405,18.503,-1.010,1.639,-2.692161,-0.226894,2.288519,100267.38,-102,-21,-254
203415,20.336,3.024,1.852,-2.912454,-0.188050,2.347051,100267.38,-99,-21,-254
203425,21.910,6.554,2.188,-2.784748,-0.221573,2.497638,100269.33,-98,-22,-256
203435,22.367,7.712,3.123,-2.369703,-0.279573,2.749326,100273.22,-96,-24,-257
203445,20.958,4.750,5.140,-1.666785,-0.424839,3.061674,100266.28,-96,-24,-257
203455,18.191,-3.275,7.707,-0.778694,-0.745701,3.427766,100266.28,-92,-29,-259
203465,18.084,-10.539,8.980,-0.412071,-0.975040,3.691692,100269.77,-87,-38,-260
203474,19.905,-10.808,12.471,-0.146016,-0.873407,3.882720,100269.77,-83,-46,-263
203485,18.564,-6.348,13.059,0.369599,-0.890967,3.905068,100269.77,-83,-46,-263
203495,16.609,-0.597,11.084,0.760699,-0.887242,3.574628,100266.04,-76,-56,-263
203505,14.975,3.423,6.830,1.062405,-1.198527,3.045179,100272.24,-70,-66,-265
203515,10.923,3.775,4.308,1.455280,-1.357805,2.612219,100268.18,-63,-75,-266
203525,6.819,0.691,4.336,1.907396,-1.341132,2.314060,100268.18,-63,-75,-266
203535,3.167,-4.918,6.156,2.321909,-1.118178,1.979895,100270.49,-57,-83,-266
203545,3.850,-6.593,6.951,1.952093,-0.947371,1.196097,100269.18,-52,-91,-265
203555,4.591,-5.492,4.587,0.562754,-1.045811,0.335144,100267.51,-48,-93,-266
203565,3.921,-1.875,1.327,-0.710052,-1.058049,-0.386929,100267.11,-48,-93,-266
203575,2.991,0.864,-0.450,-1.551850,-0.865426,-0.852525,100272.25,-44,-89,-269
203585,2.108,2.541,-0.729,-1.713079,-0.790930,-1.180305,100269.47,-42,-82,-273
203595,1.311,3.198,-0.112,-1.196933,-0.718031,-1.481479,100269.47,-41,-75,-275
203604,1.122,2.723,1.193,-0.401428,-0.599371,-1.819901,100268.42,-41,-75,-275
203615,1.164,1.914,2.348,0.214223,-0.534453,-2.247717,100268.42,-40,-70,-276
203625,0.920,0.661,2.848,0.582975,-0.456765,-2.667552,100270.95,-39,-68,-277
203635,0.929,-1.050,3.316,0.692057,-0.331188,-3.074616,100269.68,-40,-63,-276
203645,1.680,-2.394,3.279,0.464846,-0.159848,-3.459331,100263.38,-40,-63,-276
203655,2.756,-2.846,3.113,-0.070456,0.004042,-3.805202,100262.96,-40,-57,-276
203665,3.383,-0.551,2.978,-0.695685,0.196665,-4.259624,100262.96,-41,-48,-276
203675,4.024,2.547,2.654,-0.818070,0.322775,-4.744376,100262.12,-45,-37,-277
203685,5.483,3.983,1.828,-0.265741,0.335546,-5.015220,100264.02,-45,-37,-277
203695,7.294,2.590,1.725,0.689929,0.347252,-5.167403,100262.35,-45,-27,-275
203705,8.739,-0.694,2.019,1.497671,0.374922,-5.327036,100262.35,-46,-22,-275
203715,9.693,-3.837,1.794,1.928148,0.348317,-5.484009,100262.35,-47,-16,-274
203725,10.210,-5.470,1.115,1.970185,0.368005,-5.652688,100263.63,-46,-16,-272
203735,10.522,-6.331,0.810,1.940387,0.452078,-5.749531,100265.36,-46,-11,-272
203745,10.938,-6.986,1.665,1.919634,0.481344,-5.766027,100263.69,-49,-5,-272
203750,11.615,-7.802,2.751,1.772772,0.409509,-5.781990,100263.73,-49,-5,-272
203760,12.693,-9.012,3.674,1.370497,0.322243,-5.787311,100263.73,-49,+0,-272
203770,13.270,-10.062,4.672,0.670773,0.315326,-5.826155,100266.33,-50,+7,-272
203780,12.954,-8.929,5.020,0.306810,0.419087,-5.978339,100266.27,-51,+17,-272
203790,13.092,-6.860,5.371,0.325433,0.621821,-6.064008,100264.95,-51,+17,-272
203800,13.261,-6.194,5.846,0.465910,0.805399,-5.976210,100261.44,-52,+26,-271
203810,13.562,-6.776,5.764,0.647360,0.902775,-5.760174,100261.44,-52,+36,-271
203820,14.765,-7.988,5.472,0.920864,1.035802,-5.497843,100271.41,-54,+44,-270
203830,16.777,-9.733,4.473,1.249176,1.101252,-5.291917,100265.27,-54,+44,-270
203840,18.090,-13.820,1.897,1.483304,0.946408,-5.066834,100269.61,-54,+51,-271
203850,17.755,-14.843,-0.978,1.250240,0.462720,-4.882193,100269.30,-54,+58,-271
203859,15.152,-15.424,1.382,1.238534,0.219014,-4.426175,100269.30,-51,+65,-271
203870,10.246,-18.669,6.069,1.482240,0.237106,-3.715276,100270.78,-51,+65,-271
203880,6.970,-23.613,8.311,1.373690,0.317454,-2.820267,100268.22,-51,+68,-273
203890,5.665,-25.399,6.823,0.745800,0.379179,-1.861405,100270.58,-52,+70,-274
203900,5.213,-23.064,5.330,0.133874,0.458463,-0.754617,100269.78,-52,+72,-272
203910,7.486,-21.703,4.619,0.038626,0.479216,0.555437,100269.78,-52,+72,-272
203920,9.559,-21.066,3.388,0.053525,0.323307,1.686703,100268.69,-54,+70,-272
203930,7.325,-20.184,2.937,0.342993,0.029051,2.882885,100267.53,-57,+64,-272
203940,16.276,-6.336,1.170,0.625011,-0.442931,3.605490,100270.05,-59,+54,-274
203950,28.368,21.959,-6.347,0.176975,-1.088912,2.695583,100268.58,-59,+54,-274
203960,27.300,27.742,-12.529,-0.127392,-0.596178,1.485033,100268.58,-57,+49,-276
203970,19.883,-3.797,-4.967,1.603029,-0.101848,3.015913,100274.58,-59,+43,-277
203980,16.077,-27.190,6.301,3.550551,-0.286490,4.319049,100273.27,-61,+24,-278
203990,11.209,-17.925,4.755,2.068093,-0.089078,3.783215,100267.64,-62,+13,-278
204000,7.133,2.679,6.225,1.270460,0.537216,2.961105,100267.86,-62,+13,-278
204010,2.196,4.760,10.711,3.283964,0.826151,2.922793,100267.86,-64,+2,-275
204020,0.096,-5.167,13.074,4.198128,0.450482,2.960573,100270.58,-66,-15,-274
204030,5.569,-16.025,6.420,2.427267,-0.177940,2.698243,100270.53,-66,-25,-273
204040,11.166,-16.237,3.382,0.000846,0.187619,2.355032,100267.28,-66,-25,-273
204050,12.301,-10.051,2.017,-1.873244,0.553179,1.973510,100268.64,-65,-29,-273
204060,11.837,-7.941,1.223,-3.156161,0.499968,1.788336,100268.64,-66,-24,-273
204070,9.926,-4.790,2.137,-3.276417,0.540940,1.578152,100270.10,-66,-19,-274
204080,8.165,-1.629,0.755,-2.604363,0.395142,1.262079,100269.52,-66,-19,-274
204090,8.813,1.562,0.418,-1.302290,0.253069,1.223235,100270.41,-67,-18,-273
204100,9.023,1.256,1.633,0.106204,0.244023,1.353602,100269.99,-67,-21,-272
204110,8.690,-1.384,2.990,0.965562,0.186555,1.464813,100269.99,-67,-26,-272
204121,8.829,-3.648,3.130,1.209800,0.111528,1.424372,100270.00,-67,-26,-272
204130,9.372,-4.565,2.796,0.994295,0.180170,1.316354,100272.94,-67,-33,-270
204140,9.212,-6.010,4.127,0.424406,0.358427,1.157253,100272.98,-67,-37,-270
204150,8.514,-7.650,5.717,-0.585538,0.551583,0.957180,100269.58,-67,-36,-270
204161,7.418,-5.732,6.067,-1.812052,0.743674,0.667180,100269.58,-67,-36,-270
204170,7.804,-1.776,4.771,-2.570840,0.792096,0.392612,100271.86,-69,-33,-269
204180,8.998,1.013,3.050,-2.339904,0.704830,0.332483,100271.50,-72,-26,-270
204190,10.025,1.703,1.834,-1.345923,0.510610,0.481474,100266.92,-72,-25,-268
204200,9.939,-0.484,1.491,-0.260952,0.298298,0.692189,100271.17,-72,-25,-268
204210,9.211,-3.906,1.955,0.325433,0.190280,0.818832,100271.17,-73,-28,-267
204220,8.596,-6.240,3.022,0.147709,0.215821,0.805529,100271.34,-72,-29,-267
204230,8.335,-5.681,3.991,-0.415263,0.295638,0.663456,100271.72,-73,-30,-267
204240,8.129,-4.131,4.625,-0.836694,0.336610,0.516593,100271.34,-73,-30,-267
204250,8.057,-2.769,4.873,-0.998988,0.318518,0.462318,100271.03,-73,-29,-266
204260,8.617,-1.784,4.453,-0.955355,0.259454,0.530960,100271.03,-74,-28,-267
204270,8.942,-1.709,3.681,-0.754217,0.196133,0.655474,100270.68,-74,-28,-266
204280,9.102,-2.396,3.177,-0.610548,0.172720,0.778923,100273.77,-74,-28,-266
204291,9.005,-2.602,3.231,-0.629704,0.178574,0.875767,100269.01,-74,-28,-266
204300,9.117,-2.334,3.097,-0.622254,0.186023,0.969951,100266.27,-73,-29,-266
204310,9.551,-3.246,3.085,-0.558933,0.197197,1.040189,100266.27,-73,-30,-266
204320,9.808,-4.722,2.830,-0.492951,0.232849,1.044446,100275.27,-73,-30,-266
204331,10.475,-5.809,2.050,-0.600438,0.295638,1.015712,100273.12,-74,-31,-266
204340,10.810,-5.394,2.001,-0.877135,0.341399,1.070519,100269.34,-76,-32,-265
204350,10.081,-3.637,2.230,-1.074015,0.332885,1.067859,100272.38,-75,-31,-265
204360,9.881,-2.391,2.579,-1.071887,0.291913,1.158850,100272.38,-75,-31,-265
204370,9.456,-1.557,2.589,-0.810089,0.236574,1.331785,100272.45,-74,-31,-265
204381,9.705,-1.817,2.316,-0.461557,0.189216,1.511639,100273.27,-75,-35,-265
204390,10.591,-2.923,2.291,-0.300328,0.127491,1.720225,100273.12,-75,-38,-265
204400,11.730,-3.539,2.647,-0.222107,0.075344,1.851657,100269.24,-75,-38,-265
204410,12.967,-4.067,3.283,-0.257227,0.021601,2.049601,100269.24,-74,-41,-264
204421,13.227,-4.036,3.698,-0.415795,-0.018307,2.247014,100269.77,-73,-46,-265
204430,13.116,-4.029,3.609,-0.523282,0.026390,2.341730,100267.98,-71,-50,-265
204440,13.827,-4.219,2.984,-0.665355,0.026390,2.428463,100270.97,-69,-50,-265
204450,14.228,-4.717,2.430,-0.854786,-0.017243,2.587564,100269.61,-69,-54,-265
204455,14.390,-4.929,2.401,-0.994199,-0.049169,2.686005,100269.61,-67,-58,-265
204465,14.498,-5.050,2.557,-1.142125,-0.047041,2.751986,100269.61,-67,-58,-265
204476,15.204,-5.189,3.148,-1.416162,0.039693,2.773803,100269.59,-64,-60,-267
204485,16.901,-4.187,3.787,-1.907299,0.193473,2.745601,100270.32,-62,-62,-269
204495,19.323,-1.199,4.932,-2.584143,0.383968,2.655142,100268.05,-62,-62,-269
204506,21.209,2.313,6.318,-3.212032,0.496243,2.593417,100267.34,-62,-62,-269
204516,21.891,4.929,7.144,-3.454142,0.577656,2.633858,100270.65,-61,-58,-271
204525,21.991,6.518,7.284,-3.296106,0.604261,2.736555,100271.96,-61,-57,-273
204535,19.703,4.048,7.573,-3.084326,0.585105,2.808390,100271.96,-59,-56,-274
204546,16.663,-4.429,6.373,-2.600638,0.339803,2.996757,100268.85,-59,-56,-274
204555,16.269,-11.666,5.141,-2.654381,0.211032,3.181399,100266.76,-57,-55,-276
204565,17.910,-9.156,8.316,-2.108969,0.158886,3.457032,100266.76,-56,-56,-277
204575,16.729,-3.917,9.422,-1.404988,-0.168894,3.422445,100268.20,-54,-60,-279
204585,13.944,1.388,9.247,-0.751557,-0.475921,2.914280,100266.73,-54,-60,-279
204596,11.534,5.962,5.555,0.148773,-0.939921,2.116115,100267.58,-50,-65,-280
204605,6.784,5.464,2.606,0.588828,-1.081994,1.625510,100267.58,-47,-69,-282
204615,1.273,-0.515,4.169,1.489157,-0.835628,1.753748,100268.75,-43,-77,-281
204625,-0.970,-5.966,7.375,2.454937,-0.288619,1.636684,100269.02,-43,-77,-281
204636,2.025,-5.775,8.005,2.327762,-0.188582,0.815639,100270.38,-42,-87,-279
204646,4.047,-4.333,5.107,1.502460,-0.546160,-0.043186,100269.33,-41,-92,-279
204655,3.795,-1.346,0.765,0.081195,-0.686637,-0.792397,100269.33,-41,-92,-280
204665,3.978,0.563,-1.586,-1.352309,-0.628105,-1.192011,100269.33,-41,-92,-280
204676,3.146,1.759,-3.072,-1.803006,-0.673334,-1.451681,100268.24,-41,-85,-284
204686,2.223,2.391,-2.610,-1.523116,-0.538710,-1.696983,100269.09,-41,-78,-288
204695,2.468,2.766,-0.750,-0.731869,-0.423243,-2.042855,100269.55,-43,-73,-289
204705,3.268,2.413,0.705,0.275947,-0.440270,-2.458965,100265.46,-44,-70,-290
204716,3.764,0.499,2.442,1.117213,-0.404087,-2.759607,100265.46,-44,-70,-290
204726,3.905,-1.740,3.559,1.468405,-0.324270,-3.019808,100266.07,-46,-68,-290
204736,4.355,-3.378,3.694,1.284295,-0.206674,-3.353441,100264.26,-48,-66,-290
204745,5.019,-3.970,3.015,0.761763,-0.061408,-3.692927,100263.87,-52,-60,-290
204755,5.488,-2.613,2.184,0.192938,0.081730,-3.999954,100263.87,-52,-60,-290
204766,6.096,-0.848,2.061,0.074810,0.233381,-4.231955,100263.87,-56,-51,-291
204775,6.926,-0.854,2.547,0.537213,0.375454,-4.393184,100264.32,-61,-44,-290
204785,7.379,-2.222,3.256,1.016644,0.454739,-4.508651,100264.32,-65,-38,-289
204795,8.264,-2.898,3.297,1.272057,0.509546,-4.710321,100263.05,-65,-38,-289
204806,9.168,-3.212,2.818,1.423176,0.569142,-4.851330,100262.79,-69,-31,-289
204815,9.611,-4.076,2.421,1.580680,0.620757,-4.865697,100262.79,-73,-25,-287
204825,9.716,-5.141,2.034,1.806295,0.638316,-4.908798,100266.17,-76,-18,-285
204835,9.947,-5.609,1.913,1.914313,0.634592,-4.995000,100262.50,-76,-18,-285
204846,10.553,-5.835,2.090,1.875469,0.615436,-5.097165,100265.23,-80,-11,-284
204856,11.216,-5.939,2.320,1.775432,0.580849,-5.212633,100260.25,-82,-3,-284
204865,11.770,-6.281,2.599,1.670075,0.563289,-5.338743,100264.34,-83,+5,-282
204875,12.443,-6.617,3.202,1.532790,0.572335,-5.463789,100261.88,-83,+5,-282
204886,13.529,-6.392,3.464,1.351341,0.569674,-5.610118,100261.88,-86,+15,-282
204896,14.836,-5.887,3.581,1.189580,0.543601,-5.743146,100262.77,-85,+25,-282
204905,16.068,-6.056,4.287,1.263543,0.532427,-5.780394,100262.34,-84,+37,-280
204915,16.577,-9.002,4.768,1.612075,0.532427,-5.701642,100262.34,-84,+37,-280
204926,17.145,-13.851,4.053,1.742264,0.449595,-5.565954,100265.44,-83,+46,-280
204936,17.569,-15.243,3.116,1.479047,0.329693,-5.398339,100265.44,-81,+56,-281
204946,17.473,-15.672,2.778,1.194369,0.272757,-5.062046,100268.55,-78,+66,-281
204955,15.087,-17.579,4.561,0.990571,0.277014,-4.590064,100267.19,-78,+66,-281
204965,9.635,-21.023,6.422,0.689397,0.306812,-3.893533,100268.63,-75,+74,-281
204976,4.588,-24.838,7.286,0.174314,0.451014,-2.882524,100269.37,-73,+79,-280
204986,2.907,-26.060,5.277,-0.543502,0.603197,-1.675699,100268.37,-73,+85,-278
204996,4.952,-23.886,3.330,-1.021336,0.645766,-0.370966,100266.59,-73,+85,-278
205005,10.104,-21.156,3.148,-0.798382,0.529766,0.898648,100266.59,-76,+88,-277
205016,9.126,-19.108,1.240,-0.206676,0.140794,1.961271,100266.59,-77,+85,-275
205026,9.053,-15.643,1.689,0.694718,-0.299261,3.237803,100272.13,-80,+76,-277
205035,18.184,4.960,3.180,1.090075,-0.743041,3.516096,100269.34,-80,+76,-277
205045,26.964,30.364,-3.766,0.765488,-1.009095,2.144317,100272.55,-81,+64,-279
205056,23.283,19.918,-10.963,0.894259,-0.554674,1.709583,100268.14,-80,+59,-281
205066,19.427,-15.787,-2.251,3.116349,-0.368967,3.987545,100268.14,-83,+41,-282
205076,16.961,-35.651,3.420,3.664954,-0.232215,4.699508,100269.42,-83,+41,-282
205085,11.570,-12.619,3.804,1.040057,0.326500,3.487362,100269.30,-85,+23,-284
205095,5.921,7.992,7.699,0.736222,0.726647,2.844573,100265.28,-86,+14,-282
205106,-3.089,5.164,13.404,2.256992,0.726115,2.813179,100265.28,-88,+2,-279
205116,-1.425,-5.216,10.963,2.443230,0.275950,2.750390,100267.95,-88,+2,-279
205125,6.820,-10.375,6.769,1.192772,0.022133,2.424206,100267.95,-89,-9,-277
205135,11.325,-11.268,3.520,0.110993,0.136005,2.153895,100269.09,-89,-17,-277
205146,12.535,-12.369,0.316,-0.984089,0.339271,2.059711,100268.10,-90,-20,-277
205156,13.083,-13.358,1.205,-2.125996,0.489326,2.024592,100269.30,-90,-20,-276
205165,11.888,-7.153,2.697,-2.635225,0.333950,1.724482,100269.30,-90,-20,-276
205175,7.093,-2.754,1.378,-2.263813,0.123766,1.300391,100272.71,-89,-16,-277
205186,6.880,0.075,-0.212,-1.270364,0.198794,1.242391,100273.40,-90,-16,-277
205196,7.937,-0.169,2.059,-0.150805,0.297766,1.301455,100271.51,-90,-19,-277
205206,8.664,-2.123,4.227,0.609580,0.202519,1.326996,100270.94,-90,-19,-277
205215,9.121,-5.156,3.644,0.835195,0.070023,1.247712,100271.45,-91,-25,-275
205225,9.355,-6.577,2.712,0.507415,0.077473,1.072116,100271.25,-90,-29,-274
205236,8.894,-5.459,3.780,-0.131649,0.134941,0.851290,100271.25,-90,-31,-275
205246,8.099,-4.016,4.442,-0.679190,0.192408,0.671437,100271.88,-90,-31,-275
205255,7.823,-4.858,5.107,-1.205446,0.341399,0.521914,100274.77,-90,-29,-275
205265,8.011,-4.388,4.966,-1.796088,0.454739,0.330887,100274.77,-92,-27,-274
205277,8.639,-2.073,3.975,-2.075446,0.485778,0.208147,100271.34,-93,-21,-274
205286,9.662,-1.101,3.502,-1.867923,0.424408,0.201052,100271.34,-93,-21,-274
205296,10.137,-0.161,2.625,-1.284199,0.267968,0.256924,100269.22,-92,-18,-275
205305,9.673,-0.402,2.187,-0.536584,0.133876,0.380373,100273.95,-93,-17,-274
205316,9.243,-2.191,2.317,0.032773,0.055656,0.509144,100273.95,-93,-19,-274
205326,8.962,-4.320,3.268,0.101415,0.086519,0.578850,100270.26,-93,-19,-274
205336,8.841,-5.230,4.269,-0.379612,0.217950,0.562887,100264.88,-93,-20,-272
205345,8.442,-3.544,5.030,-1.041557,0.339271,0.494777,100270.80,-94,-20,-272
205356,8.697,-1.310,5.115,-1.402327,0.386096,0.500098,100270.80,-95,-17,-272
205366,9.371,-0.254,4.300,-1.362419,0.366940,0.620355,100270.80,-95,-17,-272
205376,9.315,-0.139,3.435,-1.076676,0.328629,0.802868,100270.79,-95,-16,-271
205385,9.031,-1.211,2.751,-0.726548,0.310537,0.990703,100271.15,-96,-17,-271
205395,9.293,-3.007,2.105,-0.525942,0.298298,1.126923,100272.05,-95,-19,-271
205406,9.878,-4.388,2.290,-0.541905,0.287656,1.207804,100270.48,-95,-19,-271
205416,10.148,-4.530,2.510,-0.741979,0.265840,1.228024,100270.48,-97,-21,-270
205426,10.491,-4.380,2.364,-0.805832,0.261583,1.268464,100272.59,-96,-23,-270
205435,10.954,-4.542,2.475,-0.790933,0.253601,1.296666,100268.19,-97,-23,-269
205446,11.084,-4.466,2.265,-0.823391,0.232849,1.352006,100271.39,-97,-23,-269
205456,10.942,-4.042,2.556,-0.897887,0.221674,1.418519,100271.39,-96,-25,-269
205466,11.077,-3.374,2.679,-0.933006,0.124830,1.506317,100269.98,-97,-27,-268
205475,10.956,-2.896,2.652,-0.875006,0.044482,1.654776,100269.98,-97,-28,-269
205486,10.889,-2.902,2.815,-0.775502,-0.007665,1.805363,100270.34,-97,-28,-269
205496,11.172,-2.741,3.128,-0.697281,-0.080564,1.960207,100272.49,-95,-33,-269
205506,12.223,-3.257,3.534,-0.687703,-0.141756,2.126757,100268.66,-94,-36,-270
205511,12.972,-3.682,3.502,-0.737722,-0.165169,2.253932,100268.66,-94,-36,-270
205520,13.643,-3.793,3.146,-0.867557,-0.172087,2.380574,100269.28,-92,-40,-270
205531,14.573,-3.691,2.794,-1.083061,-0.185922,2.549252,100268.86,-89,-43,-271
205541,15.192,-3.713,2.608,-1.249611,-0.227958,2.710482,100267.75,-87,-48,-272
205551,16.232,-3.861,2.500,-1.434254,-0.248178,2.860537,100268.28,-87,-48,-272
205560,17.403,-3.775,3.118,-1.742345,-0.189646,2.985050,100268.28,-85,-51,-274
205571,19.302,-2.172,4.030,-2.178675,-0.098656,3.018041,100270.93,-81,-54,-274
205581,21.390,1.304,5.406,-2.701207,-0.002344,2.998353,100271.93,-79,-54,-276
205591,22.368,4.773,6.693,-3.080601,0.039693,3.022298,100269.41,-79,-54,-276
205600,21.959,7.232,7.917,-3.013555,0.035436,3.126059,100266.05,-77,-51,-278
205611,21.126,7.054,8.452,-2.600106,0.076409,3.210133,100266.05,-74,-52,-279
205621,17.869,0.815,10.206,-2.159519,0.076941,3.276646,100268.51,-71,-55,-280
205631,16.211,-9.388,7.168,-1.550786,-0.205078,3.450114,100271.13,-71,-55,-280
205641,18.505,-13.486,6.434,-1.653483,-0.245518,3.536316,100267.24,-68,-59,-282
205650,19.396,-7.954,9.498,-1.096896,-0.287555,3.520885,100267.35,-64,-64,-282
205661,17.519,-0.762,9.555,-0.514236,-0.632894,3.311234,100267.35,-61,-70,-283
205671,14.892,4.903,5.591,0.246149,-1.061774,2.724317,100272.33,-61,-70,-283
205681,8.936,7.569,2.805,0.492516,-1.052196,2.051730,100270.13,-55,-76,-284
205690,1.938,1.564,3.340,1.157121,-0.828710,1.753748,100265.83,-51,-83,-284
205701,-1.785,-5.281,5.912,2.074478,-0.432820,1.436611,100267.61,-50,-91,-282
205711,1.042,-6.842,9.189,2.158551,-0.317885,0.889070,100267.61,-50,-91,-282
205721,3.933,-5.481,7.589,1.716368,-0.748894,0.253731,100270.98,-49,-99,-279
205730,2.955,-2.765,2.200,0.708552,-0.997389,-0.607223,100267.41,-46,-101,-279
205741,2.525,-0.543,-0.128,-0.732933,-0.588197,-1.143589,100266.84,-48,-97,-282
205751,2.519,0.740,-2.016,-1.624749,-0.447187,-1.429332,100266.99,-48,-97,-282
205761,2.107,2.328,-2.792,-1.970088,-0.425903,-1.843314,100266.99,-48,-91,-286
205771,1.630,3.344,-1.379,-1.628474,-0.300857,-2.228561,100270.00,-49,-81,-288
205780,1.777,3.611,0.242,-0.595116,-0.263077,-2.632432,100266.91,-53,-74,-289
205791,2.407,2.868,1.166,0.349910,-0.239665,-3.059185,100266.11,-53,-74,-289
205801,2.821,0.888,2.168,0.895855,-0.080032,-3.392817,100263.81,-57,-70,-290
205811,3.318,-1.699,3.087,1.042185,0.159418,-3.627478,100263.81,-59,-66,-289
205820,4.158,-3.828,3.401,0.775598,0.385032,-3.798285,100264.23,-65,-61,-287
205831,4.163,-2.536,3.129,0.254131,0.601601,-4.053698,100268.59,-65,-61,-287
205841,4.612,0.629,3.036,0.062571,0.739949,-4.441606,100260.07,-71,-50,-287
205851,6.523,2.404,2.248,0.436112,0.698445,-4.769385,100264.80,-76,-41,-285
205860,8.799,1.910,1.334,1.181598,0.610115,-4.965201,100264.80,-80,-33,-284
205871,10.285,0.890,1.396,1.870680,0.561161,-5.085990,100261.96,-80,-33,-284
205881,11.117,-0.410,1.581,2.396405,0.501564,-5.175917,100264.57,-85,-25,-281
205891,11.370,-2.189,1.828,2.814111,0.453674,-5.223275,100267.26,-88,-20,-280
205901,11.651,-4.014,2.071,3.112092,0.411638,-5.253073,100265.37,-92,-15,-279
205911,12.522,-5.353,2.448,3.205211,0.359491,-5.339807,100265.37,-93,-15,-277
205921,14.117,-6.082,3.396,3.039193,0.245619,-5.453146,100269.02,-93,-9,-277
205931,15.754,-7.116,4.163,2.648093,0.008831,-5.603734,100265.51,-95,-1,-277
205941,16.794,-7.770,4.180,2.138331,-0.226362,-5.817109,100264.30,-95,+8,-277
205950,16.941,-8.046,5.310,1.884515,-0.257224,-5.964504,100264.84,-94,+19,-278
205961,16.660,-9.769,6.439,2.051597,-0.152399,-5.924595,100264.84,-94,+19,-278
205971,15.784,-11.679,7.482,2.288918,-0.134839,-5.823494,100268.04,-92,+29,-279
205981,14.836,-14.922,7.914,2.396759,-0.100252,-5.538284,100270.20,-90,+38,-279
205990,14.765,-18.243,7.245,2.288918,-0.044913,-5.283936,100268.93,-87,+46,-280
206001,14.727,-20.835,5.573,1.878662,0.079601,-5.046614,100270.20,-87,+46,-280
206011,12.733,-20.646,4.162,1.357726,0.234445,-4.741715,100270.20,-84,+55,-282
206021,10.103,-18.934,4.064,1.013983,0.314262,-4.171294,100270.86,-82,+63,-282
206031,8.238,-22.475,6.731,1.015580,0.435051,-3.243294,100267.50,-80,+69,-282
206041,5.412,-26.847,7.944,0.655874,0.413234,-2.293478,100268.33,-80,+69,-282
206051,4.103,-26.176,6.214,-0.343961,0.374922,-1.278745,100268.75,-80,+72,-281
206061,4.936,-23.730,4.050,-0.997923,0.464849,-0.020838,100268.75,-81,+76,-279
206071,5.772,-21.947,4.063,-0.937795,0.495711,1.238134,100270.88,-84,+74,-277
206081,9.015,-19.410,3.388,-0.547227,0.322243,2.254464,100268.59,-84,+74,-277
206091,9.508,-15.550,1.449,-0.242860,-0.032674,3.005803,100268.32,-87,+69,-276
206101,17.118,1.331,0.480,0.045012,-0.497738,3.447454,100268.79,-89,+60,-277
206111,28.673,28.301,-6.791,-0.489759,-1.135205,2.246482,100268.79,-88,+56,-280
206121,25.320,27.057,-13.555,-0.769648,-0.385995,1.079033,100275.88,-88,+56,-280
206131,20.328,-3.010,-4.155,1.077304,0.040757,3.117013,100271.48,-89,+54,-279
206141,15.737,-24.133,12.329,3.799578,-0.140160,4.456866,100268.54,-92,+33,-280
206151,8.025,-19.256,8.383,2.807193,0.127491,3.657637,100267.49,-92,+17,-280
206161,5.378,-0.890,5.412,1.248112,1.112958,2.823289,100267.49,-92,+17,-280
206171,3.156,-1.210,11.207,2.127157,1.325802,3.032408,100270.62,-97,+6,-275
206181,1.597,-8.231,11.393,2.609248,0.440904,2.823289,100270.35,-99,-7,-274
206191,6.477,-13.739,5.047,1.155525,-0.045977,2.497638,100268.84,-99,-16,-274
206201,13.057,-15.708,0.131,-0.799447,0.135473,2.279473,100269.84,-99,-16,-274
206211,13.139,-11.676,0.966,-2.022235,0.476555,1.899547,100269.84,-99,-19,-273
206217,11.162,-5.286,3.385,-2.551152,0.712812,1.624978,100271.01,-99,-17,-272
206226,8.749,-1.170,3.975,-2.704400,0.716537,1.494611,100271.01,-99,-17,-272
206236,7.440,-2.374,1.601,-2.329794,0.539876,1.450446,100271.01,-101,-15,-271
206246,8.585,-3.761,-0.626,-1.696584,0.507417,1.359455,100268.60,-101,-13,-270
206257,8.665,-0.666,1.169,-0.819667,0.646830,1.219510,100269.47,-103,-17,-269
206266,8.734,-0.132,3.021,0.296700,0.495179,1.191308,100269.47,-103,-17,-269
206276,9.708,-2.965,2.727,0.986846,0.353638,1.229088,100270.56,-102,-20,-268
206286,9.455,-5.417,2.636,0.951727,0.400463,1.168428,100266.36,-103,-27,-265
206296,8.531,-6.461,5.037,0.310534,0.476023,1.009859,100266.36,-104,-31,-265
206306,7.898,-6.722,7.510,-0.822859,0.549986,0.752318,100270.20,-104,-31,-265
206316,7.712,-5.523,7.119,-1.982859,0.632995,0.408043,100270.20,-106,-28,-264
206326,8.154,-2.814,5.340,-2.642675,0.632463,0.149437,100268.93,-107,-23,-264
206337,8.604,0.087,3.929,-2.555941,0.596812,0.079199,100267.99,-108,-17,-264
206346,9.201,1.370,2.565,-1.879629,0.487197,0.217548,100269.77,-108,-17,-264
206356,9.941,0.327,1.433,-0.956419,0.327564,0.453272,100267.57,-109,-15,-262
206366,10.255,-1.833,1.849,-0.211997,0.166867,0.648556,100267.57,-109,-15,-262
206376,9.250,-3.878,3.070,0.089177,0.081198,0.738483,100269.28,-109,-18,-262
206387,8.218,-4.714,4.029,-0.088016,0.074812,0.740079,100273.78,-109,-18,-262
206396,7.853,-4.037,4.703,-0.446126,0.090775,0.683676,100268.28,-108,-19,-262
206406,7.881,-3.165,4.910,-0.660034,0.097693,0.640043,100268.28,-109,-20,-261
206416,7.892,-2.878,4.749,-0.714309,0.098225,0.644832,100268.28,-109,-19,-262
206427,8.339,-3.009,4.321,-0.685575,0.102482,0.676758,100273.27,-109,-19,-262
206436,8.627,-3.279,3.695,-0.682914,0.070023,0.736355,100269.76,-109,-21,-261
206446,8.627,-3.239,3.100,-0.723887,0.050867,0.789033,100271.80,-109,-21,-262
206456,8.740,-3.199,2.721,-0.781355,0.056188,0.826813,100271.65,-109,-22,-262
206466,9.224,-3.306,2.556,-0.751557,0.042886,0.875767,100271.65,-109,-22,-262
206477,9.940,-3.781,2.565,-0.641410,0.022133,0.946006,100272.77,-108,-23,-261
206486,10.298,-4.332,2.365,-0.535520,0.030115,1.029015,100270.62,-108,-24,-262
206496,10.377,-4.878,2.382,-0.500401,0.063638,1.072116,100270.93,-108,-25,-262
206507,10.368,-4.997,2.154,-0.560529,0.087051,1.085419,100270.93,-108,-25,-262
206517,10.427,-4.527,1.950,-0.686639,0.124830,1.108299,100271.15,-108,-27,-262
206526,10.476,-3.562,2.025,-0.773373,0.141858,1.170556,100271.15,-108,-29,-262
206536,10.455,-2.459,2.186,-0.742511,0.118977,1.299327,100271.77,-108,-31,-261
206546,10.543,-1.778,2.554,-0.576493,0.055656,1.478116,100270.30,-108,-31,-261
206556,11.091,-1.803,2.880,-0.349814,-0.031610,1.698941,100272.09,-106,-34,-260
206566,12.085,-2.862,3.313,-0.179007,-0.114087,1.925620,100272.09,-105,-39,-261
206576,12.922,-3.898,3.518,-0.174750,-0.161445,2.125693,100270.12,-103,-44,-262
206586,13.288,-4.305,3.517,-0.310438,-0.152931,2.293840,100272.54,-102,-44,-262
206597,13.604,-4.878,3.524,-0.523282,-0.123133,2.430060,100271.63,-102,-50,-262
206607,14.027,-5.171,3.483,-0.816474,-0.102912,2.534353,100268.18,-100,-55,-263
206616,14.701,-5.129,3.232,-1.163410,-0.055023,2.593417,100271.98,-97,-58,-264
206626,15.888,-5.238,3.506,-1.552382,0.053528,2.625876,100272.40,-95,-62,-264
206637,17.629,-3.739,3.478,-2.071189,0.183895,2.614170,100269.62,-95,-62,-264
206646,19.791,-0.487,4.230,-2.659702,0.314262,2.602463,100269.62,-94,-62,-266
206656,21.231,3.302,5.512,-3.031115,0.322243,2.648225,100266.30,-92,-62,-268
206666,21.557,5.543,6.407,-3.067298,0.310005,2.780188,100266.30,-89,-62,-269
206676,20.968,6.041,6.981,-2.850198,0.310005,2.908959,100272.82,-89,-62,-269
206687,18.517,3.366,8.001,-2.680987,0.316922,2.973344,100267.37,-88,-62,-270
206696,15.385,-3.453,9.636,-2.135574,0.200922,3.106903,100269.24,-86,-64,-271
206706,15.609,-10.680,6.812,-2.057886,-0.077371,3.280903,100265.48,-82,-67,-272
206716,18.505,-10.621,8.996,-1.808859,-0.098123,3.455967,100265.48,-82,-67,-272
206727,18.792,-5.485,10.271,-1.015483,-0.326399,3.518224,100267.72,-78,-72,-273
206737,16.732,-0.004,9.580,-0.389190,-0.564252,3.163307,100268.92,-73,-79,-275
206746,14.173,5.641,6.275,0.353635,-0.959077,2.420482,100265.45,-67,-84,-276
206756,8.337,8.239,4.029,0.616498,-1.012288,1.770776,100265.45,-67,-84,-276
206767,1.278,3.151,5.215,1.397102,-0.775499,1.705859,100265.45,-66,-91,-276
206776,-2.737,-3.721,8.238,2.518790,-0.189646,1.571235,100268.62,-64,-99,-272
206786,-0.518,-7.353,10.953,2.776331,0.316922,1.013052,100268.46,-63,-109,-267
206796,2.872,-8.735,6.836,1.681249,-0.119940,0.162208,100263.48,-63,-109,-267
206807,3.742,-8.188,-0.610,-0.558933,-0.548288,-0.701938,100267.26,-64,-110,-267
206816,4.529,-5.852,-3.280,-2.769849,-0.506252,-1.176580,100267.26,-64,-101,-273
206826,3.968,-2.298,-3.742,-3.897390,-0.625444,-1.592690,100272.27,-64,-88,-280
206836,2.612,2.753,-2.460,-3.619096,-0.520087,-2.204616,100272.12,-64,-88,-280
206846,1.695,6.979,0.091,-2.408014,-0.250839,-2.656377,100266.95,-67,-74,-284
206857,1.760,8.638,1.526,-0.784015,-0.229022,-2.835698,100266.95,-70,-64,-287
206867,2.166,6.852,1.925,0.953323,-0.264142,-3.012359,100267.10,-72,-60,-286
206876,2.702,2.076,2.292,1.971249,-0.199224,-3.051203,100264.21,-72,-60,-286
206886,3.370,-1.768,2.013,1.888772,-0.050234,-3.198597,100264.21,-74,-58,-285
206897,4.327,-1.983,2.181,1.224167,0.115785,-3.657808,100269.88,-78,-54,-285
206906,5.707,1.038,2.326,0.775598,0.287124,-4.127661,100262.70,-82,-46,-283
206916,5.878,2.857,2.206,1.111892,0.413766,-4.380413,100262.70,-82,-46,-283
206926,5.875,1.781,2.661,2.020203,0.507950,-4.536321,100260.16,-87,-38,-282
206937,7.518,-0.734,2.590,2.677359,0.510078,-4.650725,100265.93,-90,-33,-280
206947,9.164,-2.222,1.521,2.910955,0.474427,-4.832174,100261.68,-95,-27,-279
206956,10.107,-3.214,0.504,2.907762,0.483472,-5.038633,100260.74,-95,-27,-279
206966,11.344,-3.537,-0.545,2.983322,0.475491,-5.149312,100265.91,-99,-21,-276
206977,12.019,-2.892,-0.308,3.200423,0.416959,-5.216889,100264.44,-101,-14,-274
206987,12.368,-4.418,1.439,3.222771,0.250408,-5.221679,100265.69,-102,-8,-274
206996,13.583,-9.163,3.433,2.755579,-0.018839,-5.314798,100265.69,-102,-8,-274
207006,14.610,-11.354,3.876,1.827047,-0.210931,-5.654816,100262.59,-104,+0,-274
207016,14.445,-8.137,3.793,0.946406,-0.150270,-6.079440,100262.59,-102,+14,-276
207027,15.048,-4.800,4.813,0.772938,0.048207,-6.271531,100269.45,-101,+30,-276
207036,16.486,-5.815,6.137,1.199158,0.163675,-6.231623,100266.71,-101,+30,-276
207046,17.610,-9.848,6.567,1.692955,0.204647,-6.067201,100265.73,-99,+43,-275
207056,18.051,-13.837,5.851,1.869084,0.271161,-5.820834,100265.30,-95,+55,-278
207067,18.048,-15.333,4.872,1.839818,0.321711,-5.547862,100265.30,-92,+65,-279
207077,17.971,-16.738,2.994,1.821726,0.266372,-5.149844,100270.03,-86,+74,-279
207086,16.342,-19.220,2.054,1.736056,0.136005,-4.621459,100267.22,-86,+74,-279
207096,11.831,-23.457,3.864,1.667946,0.121106,-3.918010,100265.98,-83,+81,-282
207107,6.610,-26.812,7.090,1.265671,0.166335,-3.092707,100265.98,-80,+85,-282
207117,2.920,-27.609,8.473,0.446222,0.197730,-2.054029,100265.98,-78,+89,-282
207126,2.487,-26.328,7.274,-0.356199,0.253601,-0.790268,100270.77,-78,+89,-282
207136,6.011,-24.353,6.736,-0.796254,0.362684,0.530428,100270.86,-79,+90,-282
207147,8.956,-22.542,5.359,-0.838823,0.275418,1.589859,100267.66,-81,+89,-280
207157,7.796,-19.148,4.332,-0.639282,0.063106,2.719527,100269.66,-84,+83,-280
207166,13.795,-5.718,3.170,-0.533924,-0.368967,3.350610,100269.66,-84,+83,-280
207176,24.858,21.098,-3.177,-1.088914,-1.016545,2.347051,100269.06,-85,+77,-280
207186,25.096,26.252,-14.376,-1.717336,-0.446655,0.890134,100271.11,-84,+79,-280
207197,21.877,-1.374,-5.022,-0.291282,0.261051,2.574261,100270.50,-87,+72,-280
207207,19.336,-20.324,12.082,2.610313,0.012023,4.134408,100270.50,-87,+72,-280
207216,9.927,-19.748,9.253,2.343726,-0.003940,3.498004,100272.94,-91,+53,-282
207226,7.493,-2.911,5.420,1.142754,0.664390,2.902041,100270.89,-94,+42,-280
207237,5.620,4.835,6.696,2.010093,0.661729,3.146280,100270.89,-97,+29,-279
207247,-1.379,-0.376,9.000,3.432422,0.254133,2.738151,100267.42,-97,+29,-279
207256,0.942,-8.718,7.610,3.042386,-0.092270,2.444427,100265.95,-98,+13,-278
207266,10.066,-16.938,1.496,1.140626,-0.146013,2.426867,100265.95,-97,+2,-279
207272,14.387,-18.411,-1.094,-0.623850,0.146647,2.186886,100270.98,-97,+2,-279
207282,14.214,-13.394,1.023,-1.872712,0.610115,1.772904,100269.20,-99,+1,-277
207292,11.323,-5.323,3.980,-2.737922,0.912885,1.383932,100270.73,-101,+3,-276
207301,8.110,-1.438,3.830,-3.042821,0.688867,1.247180,100271.09,-101,+3,-276
207311,6.795,-1.937,1.730,-2.573501,0.557968,1.121070,100271.09,-102,+7,-274
207322,7.925,-0.338,1.240,-1.723189,0.555307,1.000813,100272.44,-103,+9,-274
207332,9.546,1.273,2.153,-0.600970,0.559564,0.987510,100269.08,-104,+8,-271
207341,9.905,-0.513,3.753,0.402589,0.489326,1.040721,100268.08,-106,+5,-270
207351,9.554,-2.831,3.781,0.897451,0.287124,1.044978,100270.34,-106,+5,-270
207362,8.809,-4.097,2.588,0.872442,0.277014,0.961969,100270.34,-106,+0,-270
207372,8.599,-4.590,3.271,0.405250,0.468041,0.857143,100272.73,-108,-3,-268
207382,8.809,-4.989,4.822,-0.315759,0.580316,0.691125,100270.22,-109,-4,-267
207391,8.505,-5.695,6.237,-1.115520,0.615436,0.477749,100268.44,-109,-4,-267
207401,8.384,-5.332,5.922,-1.958382,0.610647,0.282465,100269.95,-109,-1,-266
207412,8.374,-2.676,4.968,-2.518693,0.677160,0.122300,100269.95,-111,+2,-264
207422,8.691,0.083,4.162,-2.453776,0.674500,0.101548,100268.90,-113,+9,-262
207431,9.457,1.637,2.752,-1.752455,0.512739,0.254263,100270.52,-113,+9,-262
207441,9.855,1.176,1.781,-0.754749,0.311069,0.488391,100272.26,-114,+10,-262
207452,9.469,-1.407,2.588,0.041287,0.158353,0.686336,100269.90,-114,+7,-261
207462,8.815,-3.999,3.699,0.212626,0.088647,0.794887,100269.90,-115,+5,-260
207472,8.116,-4.278,4.522,-0.154530,0.143986,0.822024,100270.17,-115,+5,-260
207481,8.005,-3.216,5.028,-0.642474,0.232317,0.786905,100270.11,-115,+4,-260
207492,8.424,-2.324,4.978,-0.981960,0.262647,0.777859,100270.69,-115,+3,-260
207502,8.811,-1.771,4.362,-1.075612,0.245087,0.843309,100270.75,-117,+3,-259
207507,9.026,-1.615,3.756,-1.014419,0.222207,0.919400,100270.75,-117,+3,-259
207516,9.046,-2.091,3.354,-0.873410,0.182830,1.003474,100270.75,-116,+3,-258
207526,9.228,-3.107,2.567,-0.646199,0.115785,1.105639,100270.81,-116,+3,-258
207537,9.323,-4.254,2.065,-0.575428,0.101418,1.183327,100268.34,-116,+0,-258
207547,9.538,-4.828,2.000,-0.625979,0.118445,1.228024,100268.72,-117,-1,-257
207557,9.705,-4.659,2.195,-0.716437,0.139197,1.253033,100266.70,-116,-3,-258
207566,10.003,-4.541,3.024,-0.802639,0.117913,1.266336,100271.58,-116,-5,-257
207577,10.183,-3.999,3.353,-0.884052,0.011491,1.290813,100273.27,-116,-5,-257
207587,10.231,-3.548,3.170,-0.856382,-0.015646,1.346684,100273.27,-117,-7,-257
207597,10.155,-3.713,2.608,-0.765392,0.002977,1.420648,100269.38,-116,-9,-257
207606,10.318,-4.176,2.596,-0.732933,-0.018307,1.506850,100270.80,-116,-11,-257
207617,10.669,-3.871,2.916,-0.779226,-0.113023,1.610611,100270.80,-116,-11,-257
207627,11.117,-2.973,3.780,-0.786144,-0.204013,1.737785,100272.61,-115,-15,-258
207637,11.946,-2.644,4.215,-0.693025,-0.306710,1.908592,100270.25,-114,-19,-259
207647,12.663,-3.396,4.052,-0.584474,-0.368435,2.077271,100269.30,-113,-23,-260
207656,13.105,-4.662,3.222,-0.660034,-0.373224,2.209766,100273.23,-113,-23,-260
207667,13.882,-5.133,2.542,-0.931942,-0.350343,2.314592,100270.33,-111,-28,-261
207677,14.873,-4.603,2.169,-1.252272,-0.362582,2.459326,100270.17,-108,-31,-263
207687,15.705,-3.825,2.699,-1.471501,-0.391316,2.624812,100269.02,-106,-36,-264
207696,16.508,-3.416,3.352,-1.610382,-0.392380,2.757839,100273.89,-106,-36,-264
207707,18.279,-2.131,3.884,-1.981262,-0.320013,2.787105,100273.89,-104,-39,-266
207717,20.505,0.561,4.939,-2.478785,-0.238600,2.812647,100273.89,-101,-40,-267
207727,22.084,3.520,6.210,-2.764528,-0.223701,2.889803,100268.73,-97,-42,-270
207736,22.444,5.377,7.112,-2.707592,-0.189646,3.016445,100271.00,-97,-42,-270
207742,21.656,5.792,7.762,-2.451115,-0.174747,3.127656,100270.31,-95,-43,-270
207752,19.780,4.705,8.308,-2.135042,-0.134307,3.204279,100267.00,-95,-43,-270
207762,16.484,-1.083,9.286,-1.706162,-0.122068,3.371894,100267.00,-91,-46,-272
207772,15.658,-9.544,9.216,-1.168199,-0.290215,3.616132,100268.23,-88,-52,-274
207781,18.261,-12.066,7.081,-1.263978,-0.375885,3.658169,100271.38,-84,-58,-275
207792,18.888,-6.716,9.207,-1.090511,-0.347683,3.490555,100265.29,-84,-58,-275
207802,17.004,-0.952,8.555,-0.354071,-0.541371,3.276114,100269.01,-80,-63,-276
207812,15.097,3.635,6.826,0.297764,-0.835628,2.757307,100269.01,-74,-71,-278
207821,11.266,6.568,2.322,0.705892,-1.147976,2.059711,100269.38,-69,-76,-279
207832,4.649,4.702,2.688,0.850626,-0.903738,1.669675,100268.38,-65,-81,-278
207842,-0.602,-2.299,4.123,1.647194,-0.597775,1.608482,100268.96,-65,-81,-278
207852,-0.798,-6.065,7.583,2.162276,-0.157720,1.269529,100271.85,-62,-89,-276
207861,2.554,-7.423,8.421,1.895689,-0.339169,0.629933,100271.85,-60,-96,-274
207872,3.436,-5.689,4.208,0.987910,-0.890967,-0.278911,100267.74,-57,-95,-275
207882,2.289,-3.282,0.377,-0.264144,-0.938325,-1.010562,100271.48,-57,-95,-275
207892,1.857,-1.034,-0.926,-1.412969,-0.611077,-1.339406,100268.12,-57,-89,-277
207902,1.692,0.566,-1.783,-1.923795,-0.481775,-1.601204,100265.23,-58,-81,-282
207911,1.403,2.179,-1.585,-1.957850,-0.379610,-2.036469,100265.23,-59,-70,-284
207922,0.983,3.941,0.265,-1.549189,-0.201885,-2.485038,100269.01,-59,-70,-284
207932,0.923,4.265,1.982,-0.608419,-0.083224,-2.832506,100269.01,-60,-60,-285
207942,1.782,3.154,2.637,0.451011,-0.017243,-3.175184,100264.60,-62,-54,-285
207951,2.648,1.302,3.074,1.108167,0.143454,-3.490193,100266.38,-64,-47,-285
207962,3.230,-1.235,3.449,1.245451,0.336078,-3.714211,100266.38,-64,-47,-285
207972,3.717,-2.910,3.261,0.964497,0.497839,-3.925991,100265.32,-67,-41,-284
207977,4.013,-2.863,2.755,0.622351,0.621289,-4.148413,100264.01,-70,-31,-283
207987,4.529,-1.577,2.530,0.330222,0.740481,-4.433092,100264.01,-70,-31,-283
207997,6.086,0.353,2.083,0.285525,0.829344,-4.771513,100263.60,-71,-20,-282
208007,7.948,1.043,1.550,0.737286,0.833601,-4.996064,100266.96,-74,-10,-281
208017,8.847,0.420,1.597,1.415726,0.841050,-5.155697,100266.96,-74,-10,-281
208027,9.479,-0.868,1.983,1.966992,0.842114,-5.305752,100266.46,-75,-2,-280
208037,10.254,-2.225,2.164,2.341065,0.787839,-5.451018,100266.20,-75,+4,-280
208047,11.048,-3.454,1.981,2.560294,0.700041,-5.565954,100267.66,-74,+11,-279
208057,11.789,-4.576,1.745,2.723120,0.621289,-5.681421,100267.66,-73,+11,-280
208067,13.015,-5.326,2.113,2.728973,0.557436,-5.802742,100267.66,-73,+15,-280
208077,14.713,-6.354,2.836,2.554441,0.433454,-5.916614,100269.30,-71,+20,-280
208087,16.354,-7.475,3.869,2.295836,0.305216,-5.987916,100264.10,-69,+25,-280
208097,17.525,-8.487,4.844,2.086185,0.226996,-6.057091,100267.26,-67,+30,-282
208107,18.503,-9.501,6.094,2.017010,0.153564,-6.122540,100262.90,-67,+30,-282
208117,18.776,-11.138,6.987,2.161212,0.075876,-6.090082,100262.90,-64,+36,-283
208128,18.992,-15.070,7.386,2.421946,0.051931,-5.850632,100269.27,-64,+40,-284
208137,18.596,-20.066,6.847,2.487395,0.070023,-5.474431,100267.29,-63,+42,-285
208147,16.377,-22.646,5.174,2.206441,0.126427,-5.026927,100266.55,-63,+42,-285
208157,12.250,-22.343,4.216,1.767983,0.283931,-4.415000,100266.55,-62,+46,-285
208167,9.102,-25.787,6.174,1.602497,0.554243,-3.506689,100267.41,-63,+47,-284
208177,4.791,-29.015,7.661,0.852754,0.535619,-2.506322,100267.41,-64,+50,-284
208187,2.628,-29.620,6.858,-0.353007,0.465381,-1.353773,100267.88,-64,+50,-284
208197,4.674,-26.889,5.571,-1.336877,0.591491,-0.150672,100273.34,-66,+52,-280
208207,7.121,-22.797,5.332,-1.551318,0.548390,1.138097,100267.20,-69,+55,-279
208212,8.622,-19.840,4.051,-1.196401,0.299895,2.082592,100267.20,-69,+55,-279
208222,12.498,-12.771,0.684,-0.981960,-0.075243,2.827014,100272.98,-71,+50,-279
208232,23.921,11.960,-2.154,-1.084125,-0.965462,2.895124,100267.37,-71,+45,-280
208242,29.712,35.786,-14.526,-0.953226,-1.077205,1.364776,100271.55,-71,+45,-280
208252,20.490,11.022,-10.652,0.116314,-0.006601,1.937326,100271.15,-70,+45,-280
208262,14.865,-16.528,10.164,3.729340,-0.211995,4.015747,100271.15,-73,+30,-282
208272,12.137,-26.023,11.000,4.493449,-0.543499,4.265306,100267.91,-74,+8,-282
208282,13.356,-15.037,2.978,2.225065,0.091308,3.589527,100270.69,-75,+8,-282
208292,11.050,1.905,2.692,2.134607,0.617564,3.460224,100272.00,-75,-5,-280
208302,-0.657,6.665,11.298,3.694752,0.452610,2.915876,100267.11,-76,-20,-277
208312,-6.752,-1.355,15.416,4.101284,-0.289683,2.638115,100267.11,-75,-37,-275
208322,3.436,-14.909,4.224,2.433652,-0.786673,2.752518,100274.09,-73,-48,-276
208332,13.708,-22.926,-0.620,-0.508382,-0.181133,2.602463,100271.20,-73,-48,-276
208342,15.640,-14.232,0.602,-2.632033,0.414298,1.751620,100272.09,-71,-49,-276
208352,12.969,-4.228,2.704,-3.864931,0.761766,1.350941,100269.00,-72,-42,-278
208362,7.487,-0.064,2.827,-3.811720,0.746335,1.332850,100269.00,-73,-37,-279
208372,6.108,-0.467,1.071,-2.607023,0.565417,1.229088,100268.62,-73,-37,-279
208382,8.230,1.485,1.428,-1.204914,0.464317,1.161510,100270.46,-74,-34,-279
208392,9.335,1.878,2.971,0.255195,0.367473,1.196630,100269.15,-74,-37,-277
208402,9.461,-1.156,3.650,1.294937,0.239766,1.255162,100268.10,-74,-44,-277
208412,9.199,-3.974,3.085,1.606222,0.156225,1.209932,100268.10,-74,-44,-277
208422,8.390,-5.526,2.171,1.244387,0.259454,1.114152,100271.88,-74,-50,-274
208432,8.756,-5.558,3.074,0.430791,0.456335,1.002409,100269.84,-74,-54,-272
208442,9.189,-5.702,5.120,-0.349282,0.569674,0.810318,100270.04,-75,-55,-272
208452,8.291,-6.692,6.531,-1.278877,0.667050,0.563419,100268.41,-75,-55,-272
208462,7.718,-5.072,6.289,-2.339904,0.772940,0.283529,100268.41,-77,-51,-272
208472,8.333,-1.210,5.095,-2.771445,0.784647,0.119107,100271.17,-78,-44,-272
208482,9.387,1.072,3.300,-2.342565,0.642573,0.187217,100272.42,-80,-40,-272
208492,10.635,1.347,1.419,-1.291648,0.415895,0.373456,100276.58,-80,-40,-272
208502,10.747,-0.359,0.965,-0.183796,0.198794,0.637382,100270.17,-80,-39,-272
208512,9.638,-3.279,2.080,0.427066,0.082794,0.814043,100270.17,-80,-43,-272
208522,8.970,-5.465,3.550,0.321709,0.094500,0.861400,100270.63,-80,-44,-270
208532,8.394,-5.556,4.814,-0.265208,0.217418,0.793822,100269.63,-80,-44,-270
208542,8.209,-4.018,5.467,-0.920235,0.347785,0.670373,100270.73,-80,-45,-270
208552,8.615,-2.264,5.036,-1.276217,0.393546,0.621419,100267.63,-80,-44,-270
208563,9.084,-1.600,4.059,-1.222296,0.383968,0.700526,100267.63,-81,-42,-270
208572,9.194,-2.161,3.161,-1.004309,0.349913,0.822556,100269.84,-81,-42,-270
208582,9.447,-3.263,2.083,-0.827116,0.297234,0.936428,100269.20,-81,-42,-270
208592,9.741,-3.946,1.691,-0.798914,0.261583,1.013052,100266.99,-81,-44,-270
208602,9.975,-3.822,1.920,-0.804768,0.239234,1.076373,100268.52,-81,-44,-269
208612,10.121,-3.999,2.287,-0.785612,0.209436,1.134905,100268.52,-81,-44,-269
208622,10.115,-4.114,2.526,-0.774970,0.192941,1.188648,100273.52,-81,-44,-270
208632,9.936,-4.336,2.977,-0.790933,0.191344,1.222171,100269.16,-81,-46,-270
208643,9.965,-4.432,3.067,-0.824988,0.190812,1.236538,100270.16,-81,-47,-270
208652,10.094,-4.243,2.899,-0.915446,0.201454,1.254629,100268.16,-81,-47,-270
208662,10.204,-3.297,2.773,-1.044217,0.173252,1.370629,100268.16,-80,-48,-270
208672,10.058,-2.277,3.070,-0.985153,0.107803,1.526005,100272.66,-80,-50,-270
208683,10.681,-1.952,3.602,-0.810443,-0.025047,1.737430,100268.20,-78,-51,-270
208692,11.489,-2.321,3.976,-0.690896,-0.141224,1.924024,100271.66,-78,-51,-270
208702,12.556,-3.263,3.897,-0.603098,-0.221573,2.070354,100266.95,-76,-54,-271
208712,13.000,-4.006,3.093,-0.713245,-0.277977,2.252867,100266.95,-74,-58,-272
208722,13.446,-4.164,2.730,-0.880327,-0.309903,2.395473,100270.23,-72,-62,-274
208732,13.874,-4.108,2.582,-0.996859,-0.364178,2.518390,100271.59,-72,-62,-274
208742,14.403,-4.298,3.093,-1.118712,-0.366307,2.594482,100270.08,-69,-64,-275
208752,15.439,-4.541,3.778,-1.390621,-0.296068,2.638647,100267.56,-66,-67,-277
208762,17.423,-3.730,4.455,-1.901446,-0.174747,2.660463,100267.56,-64,-70,-279
208773,19.453,-0.714,5.085,-2.584143,-0.049701,2.653546,100271.30,-61,-68,-281
208782,20.704,3.059,5.962,-3.088051,0.042353,2.704628,100269.74,-61,-68,-281
208792,21.466,6.182,6.826,-3.102950,0.092904,2.851491,100268.79,-59,-66,-284
208798,21.500,7.253,7.058,-2.818271,0.101950,2.971215,100269.32,-59,-66,-284
208807,20.705,5.960,7.522,-2.520290,0.103014,3.081894,100269.32,-57,-66,-286
208817,18.186,0.663,8.439,-1.966363,0.030647,3.240995,100269.32,-54,-67,-287
208827,16.520,-8.663,8.680,-1.284199,-0.184857,3.524077,100270.96,-50,-73,-289
208837,18.394,-12.939,7.156,-1.327832,-0.287555,3.627307,100267.07,-50,-73,-289
208847,18.561,-7.388,9.172,-1.345391,-0.300857,3.443729,100269.51,-47,-77,-291
208858,16.094,-1.750,9.180,-0.797318,-0.448784,3.284096,100269.51,-43,-80,-292
208868,14.101,2.627,7.813,-0.242328,-0.661096,2.816904,100272.25,-38,-87,-293
208877,11.330,5.874,2.752,0.452608,-1.060710,2.203913,100272.25,-38,-87,-293
208887,4.949,4.703,2.157,0.755910,-0.958013,1.795253,100267.20,-33,-93,-292
208898,-0.842,-3.375,3.589,1.498203,-0.540839,1.799510,100266.58,-31,-101,-292
208907,-0.647,-7.872,7.653,2.075010,-0.124729,1.469602,100270.72,-27,-111,-289
208917,2.925,-7.213,7.169,1.918038,-0.501463,0.566079,100270.72,-27,-111,-289
208927,3.296,-4.638,3.001,0.899580,-0.869683,-0.392782,100272.73,-26,-117,-287
208937,2.855,-2.244,-0.215,-0.579685,-0.732398,-1.114855,100268.38,-27,-116,-289
208948,2.427,0.192,-1.669,-1.740217,-0.482839,-1.626213,100270.42,-28,-109,-292
208958,1.809,2.540,-1.850,-2.096198,-0.366307,-1.946011,100267.56,-28,-109,-292
208967,1.079,3.909,-1.014,-1.439575,-0.256160,-2.232286,100268.19,-31,-101,-295
208977,1.163,4.724,0.304,-0.358328,-0.141224,-2.674469,100269.88,-34,-95,-297
208988,1.250,3.795,2.085,0.468039,0.006170,-3.085258,100262.20,-39,-91,-296
208997,1.211,1.552,2.943,0.891598,0.121106,-3.374726,100262.20,-39,-91,-296
209007,1.523,-0.740,2.511,0.913415,0.285528,-3.651423,100264.47,-44,-89,-294
209017,2.677,-2.082,2.348,0.586699,0.508482,-3.986120,100264.47,-50,-83,-294
209028,4.139,-2.078,1.880,0.045544,0.685674,-4.320284,100264.77,-57,-76,-292
209033,4.916,-0.871,1.585,-0.273722,0.790500,-4.598578,100268.55,-57,-76,-292
209042,5.444,0.740,1.557,-0.313630,0.872445,-4.889642,100265.46,-65,-65,-292
209052,6.389,1.722,1.821,-0.007667,0.944280,-5.199862,100264.30,-72,-54,-289
209062,7.335,1.200,1.977,0.557433,0.986848,-5.444100,100264.30,-72,-54,-289
209073,8.591,0.242,2.210,1.080497,1.108169,-5.657476,100265.87,-80,-44,-286
209082,10.122,-1.310,2.107,1.449249,1.178940,-5.823494,100267.23,-86,-34,-284
209092,11.473,-2.754,1.642,1.642405,1.181600,-5.986852,100265.96,-92,-23,-280
209102,12.278,-4.326,1.289,1.867487,1.115619,-6.057091,100267.02,-92,-23,-280
209113,13.728,-6.176,2.953,2.340001,1.076775,-5.983128,100267.02,-97,-13,-278
209123,16.075,-6.287,3.003,2.759303,0.877766,-6.020907,100267.63,-100,-2,-275
209132,17.691,-7.951,3.969,2.914147,0.716537,-6.064008,100265.91,-102,+5,-273
209142,19.129,-9.618,5.439,2.971083,0.515399,-5.990045,100266.74,-102,+5,-273
209153,19.306,-12.473,6.762,3.094532,0.383436,-5.897990,100266.12,-104,+15,-272
209163,19.313,-15.127,6.865,2.993964,0.241895,-5.867660,100266.12,-104,+23,-272
209172,18.955,-17.004,6.112,2.773138,0.128555,-5.737293,100269.95,-102,+32,-273
209182,17.308,-20.076,5.517,2.636918,0.116849,-5.348853,100273.05,-102,+32,-273
209192,13.534,-21.964,4.099,2.161744,0.272225,-4.730009,100266.75,-101,+40,-274
209203,8.569,-25.614,5.679,1.766387,0.609050,-3.915881,100268.89,-100,+47,-274
209212,5.570,-29.928,5.250,1.048038,0.778793,-2.971918,100268.89,-101,+53,-272
209222,2.870,-30.722,4.638,-0.224768,0.791564,-1.919405,100272.28,-101,+53,-272
209232,4.123,-28.240,4.412,-1.238969,0.746335,-0.713645,100270.77,-102,+59,-269
209243,5.610,-24.065,3.780,-1.650290,0.679821,0.557034,100270.55,-103,+62,-267
209253,8.161,-19.900,4.152,-1.314529,0.419619,1.872941,100271.55,-105,+60,-265
209262,14.312,-9.334,2.566,-0.784548,-0.064601,2.881821,100271.55,-108,+60,-265
209268,25.776,13.839,1.405,-0.752621,-0.827114,2.916940,100270.76,-108,+52,-265
209277,35.057,38.759,-15.105,-0.875538,-1.390086,1.485033,100270.76,-104,+52,-268
209288,25.216,15.641,-13.440,-0.445061,-0.024160,1.553143,100272.71,-104,+52,-268
209298,13.627,-19.238,11.597,3.648991,0.008298,4.213692,100272.91,-108,+42,-267
209307,9.797,-32.094,9.336,5.140495,-0.525408,4.507416,100265.99,-108,+16,-269
209317,11.931,-16.855,1.258,2.324570,0.211032,3.702866,100268.32,-109,+0,-268
209328,8.659,4.153,-0.622,1.564717,0.636188,3.299527,100273.30,-109,+0,-268
209338,-3.665,5.348,12.102,3.003010,0.966096,2.751986,100269.59,-110,-13,-264
209347,-5.387,-6.267,14.372,3.579817,-0.037463,2.557234,100269.59,-111,-27,-262
209357,7.789,-20.393,2.939,1.124662,-0.613206,2.728573,100263.29,-109,-39,-263
209368,16.615,-21.620,-0.699,-1.842382,0.009895,2.094299,100263.29,-109,-39,-263
209378,15.736,-8.137,3.036,-3.389225,0.484005,1.159914,100267.14,-108,-38,-264
209387,10.479,1.568,4.413,-3.740417,0.492518,1.057749,100267.92,-109,-31,-265
209397,7.440,1.809,2.168,-2.709721,0.430794,1.213125,100268.45,-109,-28,-265
209408,7.092,1.097,1.340,-1.434786,0.426005,1.183327,100267.98,-109,-28,-265
209418,7.752,0.727,2.684,-0.308309,0.327032,1.185987,100267.98,-109,-30,-264
209428,9.065,-1.147,2.973,0.786241,0.094500,1.199290,100268.41,-109,-33,-263
209437,10.275,-3.300,2.174,1.306112,0.014152,1.208336,100269.77,-109,-40,-263
209447,9.578,-5.178,2.151,1.165103,0.054592,1.204611,100269.55,-109,-40,-263
209458,8.732,-6.913,4.574,0.470699,0.176977,1.100850,100269.55,-108,-46,-260
209468,7.985,-7.621,6.954,-0.781887,0.397271,0.797547,100269.55,-109,-48,-260
209477,7.646,-5.475,6.964,-1.962638,0.602133,0.418153,100270.29,-109,-44,-260
209487,8.155,-2.766,4.813,-2.381941,0.669711,0.137731,100270.18,-110,-44,-260
209498,8.302,-0.537,2.366,-2.150473,0.646298,0.001511,100272.65,-110,-39,-260
209503,9.065,0.501,1.137,-1.689134,0.549986,0.052061,100270.29,-112,-35,-260
209512,10.295,0.224,0.991,-0.959612,0.380243,0.219144,100270.29,-112,-35,-260
209522,10.505,-2.165,1.658,-0.065667,0.191344,0.397933,100275.84,-113,-35,-260
209532,9.704,-4.964,3.111,0.205709,0.159418,0.466043,100269.33,-112,-37,-258
209543,9.097,-5.826,4.314,-0.185392,0.222207,0.453804,100271.91,-113,-37,-258
209553,8.811,-4.158,4.800,-0.785080,0.272225,0.364942,100269.23,-113,-37,-258
209562,8.600,-2.292,4.855,-1.114988,0.324372,0.327694,100269.23,-114,-36,-259
209572,8.687,-1.369,4.520,-1.189483,0.351509,0.391015,100270.74,-114,-36,-259
209583,8.724,-1.255,3.816,-1.092107,0.299363,0.516593,100272.59,-115,-33,-257
209593,8.585,-1.501,3.000,-0.907997,0.234445,0.670905,100272.74,-115,-33,-257
209602,8.719,-2.129,2.708,-0.724951,0.176977,0.796483,100269.16,-114,-33,-258
209612,9.115,-2.768,2.396,-0.619593,0.129619,0.900776,100269.16,-115,-35,-258
209623,9.599,-3.075,2.635,-0.594052,0.145051,0.984318,100272.34,-115,-37,-257
209633,9.995,-3.465,2.986,-0.575428,0.166867,1.046042,100272.30,-115,-37,-257
209643,10.318,-3.840,2.799,-0.604162,0.169528,1.101914,100266.11,-113,-38,-257
209652,9.888,-3.867,2.954,-0.686639,0.192408,1.158850,100270.20,-114,-40,-257
209662,9.630,-3.646,3.003,-0.802107,0.149308,1.213125,100270.20,-114,-41,-257
209673,9.545,-3.191,2.697,-0.898951,0.075344,1.292941,100270.97,-114,-41,-257
209683,9.444,-2.528,2.588,-0.881924,0.008298,1.419583,100272.70,-112,-43,-257
209692,9.405,-1.977,3.013,-0.754217,-0.049701,1.582409,100268.72,-111,-46,-258
209702,10.043,-1.996,3.876,-0.554144,-0.076839,1.739381,100270.45,-110,-50,-259
209713,11.391,-3.375,4.173,-0.382805,-0.082160,1.885712,100270.45,-110,-50,-259
209723,12.645,-5.182,3.809,-0.428566,-0.015114,1.972978,100274.01,-108,-54,-258
209732,13.263,-6.320,3.093,-0.764859,0.074812,2.026721,100269.18,-107,-58,-259
209738,13.722,-5.951,2.825,-1.145318,0.084922,2.061308,100274.74,-107,-58,-259
209747,13.824,-4.700,2.459,-1.497575,-0.005536,2.113455,100274.74,-106,-62,-260
209758,14.156,-3.007,2.741,-1.709354,-0.122068,2.218280,100272.12,-104,-64,-262
209768,14.835,-2.350,3.555,-1.747134,-0.272123,2.367803,100272.12,-101,-66,-263
209778,16.392,-1.776,4.397,-1.804602,-0.327463,2.502427,100271.16,-101,-66,-263
209787,18.506,-1.272,5.056,-2.116418,-0.277444,2.650353,100269.38,-97,-68,-266
209798,20.482,0.493,5.666,-2.589464,-0.204545,2.770078,100269.42,-94,-70,-269
209808,22.208,2.783,5.565,-2.965133,-0.124729,2.856812,100269.42,-91,-70,-272
209817,22.743,5.133,5.454,-3.068363,-0.028417,2.915876,100269.42,-91,-70,-272
209827,21.412,6.315,6.122,-2.848601,-0.000215,2.953124,100270.49,-88,-70,-275
209838,18.275,3.770,8.332,-2.303721,-0.024692,3.073913,100272.70,-85,-70,-277
209848,15.227,-4.087,8.995,-1.310272,-0.186454,3.300591,100267.20,-81,-76,-278
209858,14.892,-12.435,7.782,-0.498272,-0.399298,3.557600,100271.23,-81,-76,-278
209867,15.833,-12.411,7.553,-0.524346,-0.349811,3.451178,100271.23,-76,-83,-279
209878,14.707,-6.473,7.757,-0.541373,-0.346619,3.147876,100266.33,-72,-90,-280
209888,12.793,-0.910,5.905,-0.283300,-0.517958,2.744537,100269.63,-67,-94,-282
209898,9.683,3.505,4.209,-0.125264,-0.624912,2.132610,100269.55,-67,-94,-282
209908,4.090,4.247,3.708,0.068957,-0.596710,1.570703,100269.55,-64,-99,-282
209917,-2.514,-0.378,4.442,0.703763,-0.594050,1.265804,100267.40,-59,-103,-283
209928,-5.697,-4.261,6.561,1.466809,-0.241261,0.938556,100264.41,-57,-109,-280
209938,-2.261,-5.154,6.035,1.274717,-0.175812,0.217015,100264.41,-57,-109,-280
209948,0.982,-4.770,4.273,0.405782,-0.257756,-0.492819,100266.30,-58,-113,-279
209957,1.959,-2.705,1.260,-0.701006,-0.289683,-1.160617,100264.10,-59,-110,-280
209968,1.777,-0.494,-0.748,-1.810987,-0.269995,-1.717203,100264.10,-61,-102,-283
209973,1.463,1.358,-1.918,-2.425574,-0.250307,-2.006139,100265.93,-61,-102,-283
209983,1.129,3.185,-2.311,-2.566583,-0.177408,-2.182800,100267.09,-64,-90,-287
209993,0.915,4.491,-1.369,-1.816308,-0.036399,-2.402029,100268.60,-66,-79,-289
210002,1.304,5.066,0.189,-0.522749,0.060445,-2.714910,100265.46,-66,-79,-289
210013,1.504,3.880,2.008,0.587764,0.104610,-2.950634,100265.46,-69,-74,-289
210023,1.871,2.055,3.119,1.261415,0.140262,-3.173056,100267.17,-73,-68,-287
210033,3.054,0.566,2.688,1.400827,0.265840,-3.460395,100265.44,-78,-64,-285
210042,4.874,-0.682,2.389,1.121470,0.464317,-3.777533,100266.06,-78,-64,-285
210053,5.635,-1.411,2.880,0.742608,0.593087,-4.066468,100263.17,-83,-58,-284
210063,5.472,-0.339,2.807,0.693653,0.605326,-4.385734,100263.17,-87,-47,-282
210073,5.667,-0.003,2.590,1.010791,0.680885,-4.729477,100268.87,-92,-38,-280
210082,6.793,-0.930,3.024,1.363047,0.795821,-5.060981,100267.62,-92,-38,-280
210088,7.995,-1.357,2.995,1.522680,0.849032,-5.272229,100266.88,-97,-28,-278
210098,9.156,-1.341,2.703,1.612075,0.900647,-5.432394,100266.88,-101,-16,-276
210108,10.301,-1.939,2.255,1.740313,0.952793,-5.570210,100266.73,-101,-16,-276
210118,11.349,-3.234,1.895,2.032974,0.963968,-5.650027,100266.73,-104,-5,-273
210128,12.878,-4.436,2.368,2.371927,0.928848,-5.672376,100268.80,-108,+4,-271
210138,15.411,-6.369,3.105,2.622551,0.850096,-5.647898,100263.94,-109,+14,-269
210148,17.686,-9.229,4.476,2.817303,0.749527,-5.586174,100263.70,-109,+14,-269
210158,18.474,-11.469,6.119,2.964698,0.627674,-5.519660,100263.70,-109,+23,-269
210167,18.498,-13.826,7.204,3.169028,0.522317,-5.435054,100263.70,-108,+31,-269
210178,18.457,-17.496,7.286,3.320679,0.414830,-5.303092,100266.81,-107,+39,-270
210188,17.891,-20.640,6.290,3.225964,0.287656,-5.079605,100269.33,-107,+39,-270
210198,15.874,-22.494,4.980,2.966294,0.203583,-4.702339,100268.23,-104,+45,-271
210208,12.481,-22.518,4.279,2.536881,0.230720,-4.139899,100268.55,-103,+52,-272
210217,8.969,-21.011,4.259,2.030313,0.311069,-3.323111,100268.55,-102,+56,-274
210228,6.966,-22.183,5.243,1.779689,0.488794,-2.281240,100269.32,-102,+56,-274
210238,5.253,-24.753,5.883,1.277378,0.516995,-1.315993,100268.52,-102,+57,-272
210248,5.424,-25.158,5.546,0.372259,0.407913,-0.472067,100269.05,-102,+58,-272
210258,5.410,-22.505,3.218,-0.362584,0.321711,0.384098,100269.05,-104,+58,-271
210268,6.805,-19.419,1.595,-0.606823,0.297234,1.369565,100269.65,-104,+58,-271
210278,11.082,-12.312,-0.511,-0.783483,0.095032,2.142188,100266.96,-106,+54,-270
210288,19.263,7.284,-1.428,-1.166602,-0.540307,2.073014,100266.96,-106,+50,-270
210297,25.603,32.179,-10.419,-1.292180,-0.843609,0.795951,100269.54,-104,+52,-272
210308,18.460,20.032,-5.259,-0.552548,0.127491,0.770410,100268.07,-104,+52,-272
210318,12.954,-8.585,4.258,2.153763,0.040225,2.685472,100268.07,-106,+48,-272
210328,11.285,-23.120,9.402,4.188550,-0.204013,3.284628,100270.81,-107,+29,-272
210338,12.607,-16.152,3.098,2.847634,-0.133243,3.056353,100266.67,-108,+13,-273
210349,11.447,-1.220,-1.043,1.727010,-0.084289,2.730702,100268.03,-108,+13,-273
210358,4.388,3.382,4.009,2.843909,0.206775,2.458794,100269.86,-108,+1,-273
210368,1.591,-2.708,13.839,3.900679,0.009895,2.223601,100263.45,-109,-13,-271
210378,5.110,-13.397,5.654,2.358093,-0.473793,2.187950,100266.50,-106,-26,-272
210388,10.808,-16.378,1.324,-0.450383,0.029583,1.878262,100267.91,-106,-26,-272
210398,12.395,-9.747,2.121,-2.108969,0.433986,1.319015,100267.70,-106,-28,-270
210408,10.979,-2.345,3.875,-2.879996,0.634592,1.074244,100267.70,-108,-25,-271
210418,8.688,0.342,4.963,-2.757611,0.633527,1.096593,100267.70,-108,-21,-270
210428,7.608,-0.240,3.865,-2.107372,0.444096,1.051896,100270.64,-109,-21,-270
210438,9.010,0.373,2.330,-1.415098,0.266372,1.020501,100267.86,-109,-20,-270
210444,10.022,1.310,2.293,-0.679190,0.175381,1.032208,100271.33,-110,-20,-270
210453,9.625,0.019,2.131,0.154094,0.069491,1.042850,100269.02,-110,-20,-270
210463,9.519,-2.321,1.424,0.958112,-0.029481,1.048703,100269.02,-108,-25,-269
210473,8.853,-4.898,1.744,1.115084,0.038097,0.993364,100272.58,-108,-31,-269
210483,8.434,-6.125,3.344,0.630332,0.206775,0.830006,100268.58,-109,-34,-269
210493,8.093,-5.263,5.148,-0.212530,0.337142,0.657602,100269.06,-109,-34,-269
210503,7.908,-3.876,5.905,-0.968657,0.430262,0.485731,100267.38,-109,-35,-267
210513,8.117,-3.192,5.140,-1.431061,0.462720,0.321309,100267.38,-109,-33,-267
210523,8.664,-2.014,3.440,-1.539079,0.427069,0.228722,100270.41,-111,-29,-266
210533,9.127,-1.158,2.229,-1.245887,0.352041,0.213823,100271.52,-111,-29,-266
210543,9.588,-1.258,1.631,-0.710052,0.258390,0.246814,100265.38,-111,-27,-266
210553,9.696,-2.216,1.891,-0.243392,0.177509,0.339401,100267.73,-112,-27,-265
210558,9.414,-2.961,2.439,-0.044915,0.151968,0.392612,100267.73,-112,-27,-265
210568,9.049,-3.300,2.935,-0.026291,0.171656,0.413364,100267.73,-113,-27,-265
210578,8.734,-3.396,3.680,-0.170493,0.209968,0.409639,100271.38,-111,-29,-265
210588,8.634,-3.179,3.962,-0.404089,0.226996,0.395804,100267.81,-113,-29,-265
210598,8.518,-2.734,3.695,-0.610016,0.257326,0.400593,100267.50,-113,-29,-265
210609,8.879,-2.468,3.591,-0.727612,0.307344,0.386226,100268.13,-114,-28,-264
210618,9.222,-2.255,3.306,-0.746768,0.333418,0.466575,100272.16,-114,-28,-264
210628,9.613,-2.244,3.077,-0.653116,0.372262,0.569804,100272.00,-114,-28,-263
210638,9.850,-2.273,3.075,-0.714309,0.403656,0.708685,100272.00,-114,-28,-263
210648,9.444,-1.530,3.306,-0.828713,0.435583,0.837455,100263.92,-115,-29,-262
210658,9.116,-0.895,3.470,-0.730272,0.423344,0.973675,100267.33,-115,-30,-261
210668,8.979,-1.270,3.550,-0.618529,0.382904,1.143951,100267.33,-116,-31,-260
210678,8.857,-1.498,3.858,-0.566915,0.341931,1.319547,100272.16,-116,-31,-260
210689,9.017,-1.608,4.106,-0.546162,0.272225,1.495143,100272.53,-116,-34,-260
210698,9.393,-2.017,4.203,-0.536052,0.195069,1.657436,100269.33,-116,-37,-260
210708,9.692,-3.032,4.301,-0.580217,0.139730,1.802170,100268.48,-114,-41,-259
210718,10.011,-3.712,4.192,-0.679190,0.099289,1.944244,100270.11,-114,-41,-259
210728,10.661,-3.664,3.676,-0.763795,0.101418,2.100152,100270.27,-114,-46,-260
210739,11.584,-3.769,3.495,-0.754217,0.117913,2.250739,100268.38,-113,-51,-259
210748,12.295,-4.910,3.180,-0.695685,0.095564,2.334280,100267.00,-111,-56,-260
210758,12.506,-6.525,2.685,-0.793593,0.122702,2.293308,100267.00,-111,-56,-260
210768,12.844,-7.731,2.271,-1.122969,0.127491,2.124097,100267.00,-109,-60,-260
210778,14.588,-7.674,2.963,-1.487465,0.121106,2.085253,100274.49,-109,-62,-260
210788,16.522,-6.413,3.585,-1.950932,0.104078,2.092170,100271.29,-107,-63,-262
210794,17.732,-4.532,4.067,-2.325537,0.103014,2.104941,100266.84,-107,-63,-262
210803,18.516,-2.113,4.449,-2.637886,0.060445,2.192739,100269.15,-104,-63,-265
210813,20.529,-0.303,4.703,-2.751757,-0.047573,2.390684,100269.15,-101,-63,-267
210823,24.336,-0.359,4.245,-2.840620,-0.223701,2.587032,100269.47,-101,-63,-267
210833,26.234,1.989,3.393,-3.120509,-0.438142,2.737619,100269.27,-99,-63,-271
210843,25.177,5.560,3.281,-3.272693,-0.706325,2.881289,100271.20,-94,-62,-275
210853,22.491,8.087,4.107,-2.690032,-1.013352,2.921197,100268.89,-87,-62,-281
210863,17.883,6.937,5.128,-1.307079,-1.382636,2.935564,100268.89,-87,-62,-281
210873,11.563,0.459,5.133,0.916607,-1.669976,3.096793,100268.66,-80,-69,-284
210883,7.572,-8.968,4.870,1.666882,-1.592820,3.421912,100273.28,-73,-81,-286
210893,6.056,-12.401,6.784,1.860570,-1.545994,3.824187,100266.14,-64,-95,-287
210904,6.459,-11.492,9.696,2.003175,-1.626875,3.617729,100265.83,-64,-95,-287
210913,6.331,-1.997,7.254,1.501928,-1.788104,2.345986,100265.83,-55,-105,-287
210923,3.024,2.849,3.262,0.168993,-1.404985,0.995492,100271.31,-50,-108,-290
210933,3.968,2.637,0.124,-1.220878,-1.141591,0.421346,100267.11,-45,-106,-294
210944,3.013,1.608,-1.000,-1.553978,-1.269829,0.087713,100269.42,-45,-106,-294
210953,1.952,2.153,-0.502,-0.787740,-1.515132,-0.248581,100271.16,-41,-101,-299
210963,2.197,2.228,0.823,0.104076,-1.786508,-0.697149,100271.16,-36,-99,-301
210973,2.815,2.024,0.957,0.778259,-2.091939,-1.202121,100269.46,-31,-99,-304
210983,3.456,1.748,0.497,1.324203,-2.298398,-1.579387,100267.21,-31,-99,-304
210994,3.564,1.783,0.220,1.761065,-2.371829,-1.849167,100266.95,-27,-101,-306
211003,3.478,1.972,0.166,2.037230,-2.375021,-2.075846,100272.55,-24,-103,-307
211013,3.569,1.820,0.479,2.163341,-2.397902,-2.316359,100272.55,-19,-106,-307
211023,3.788,0.054,2.145,2.046808,-2.395241,-2.498341,100267.02,-19,-106,-307
211034,4.267,-2.042,3.968,1.905267,-2.408544,-2.666487,100263.81,-17,-108,-307
211043,4.299,-1.581,4.580,1.863763,-2.464416,-3.036304,100265.50,-13,-109,-309
211053,4.622,-0.032,4.425,2.122368,-2.493682,-3.477955,100264.30,-12,-111,-309
211063,6.091,-0.084,4.299,2.463983,-2.500067,-3.703569,100264.30,-12,-111,-309
211074,7.054,-1.862,4.509,2.728973,-2.517095,-3.788175,100265.98,-10,-113,-309
211083,7.759,-3.624,4.977,2.992368,-2.496342,-3.867991,100267.45,-10,-117,-307
211093,8.707,-4.844,5.314,3.213193,-2.475058,-3.984523,100269.59,-9,-120,-305
211103,9.844,-6.188,5.715,3.428165,-2.503792,-4.052101,100266.55,-9,-120,-305
211113,10.912,-7.772,5.929,3.648459,-2.594783,-4.029221,100266.55,-9,-125,-301
211124,11.418,-8.714,6.375,3.880991,-2.734195,-3.965367,100268.88,-9,-130,-300
211133,12.073,-8.790,7.411,4.153431,-2.871480,-3.786046,100268.81,-8,-136,-295
211143,13.265,-9.083,9.191,4.600403,-3.006635,-3.500836,100268.61,-7,-136,-295
211153,13.954,-10.118,10.950,5.220843,-3.126892,-3.167203,100265.94,-7,-145,-289
211164,12.917,-11.690,12.421,5.790733,-3.165204,-2.820799,100265.94,-5,-156,-282
211173,10.908,-12.714,13.365,6.108402,-3.055590,-2.438745,100266.91,-5,-168,-272
211183,9.341,-13.134,13.617,6.188219,-2.770911,-1.993901,100267.85,-3,-181,-261
211193,8.675,-13.219,13.502,6.095632,-2.395773,-1.529369,100266.54,-3,-181,-261
211204,7.993,-12.558,12.958,5.809357,-2.008398,-1.147846,100261.66,-2,-192,-250
211213,7.573,-11.857,12.311,5.382605,-1.599737,-0.823791,100261.66,-1,-202,-237
211223,7.215,-11.317,10.699,4.790366,-1.304416,-0.543902,100266.02,-2,-212,-226
211233,6.923,-10.092,8.934,3.965064,-1.168728,-0.312966,100267.06,-2,-212,-226
211244,6.932,-7.826,8.553,3.355798,-1.099022,-0.107039,100268.58,-1,-218,-217
211254,6.206,-7.220,10.042,3.332918,-0.964930,0.146245,100269.16,+0,-222,-210
211263,4.772,-7.687,10.550,3.360587,-0.809554,0.476685,100269.16,+3,-228,-200
211273,3.695,-8.376,9.817,3.192441,-0.591921,0.781584,100267.77,+3,-228,-200
211283,3.371,-10.078,11.665,2.877432,-0.233279,1.054556,100267.61,+6,-233,-192
211294,1.559,-13.725,12.348,3.038661,0.585105,1.339767,100266.92,+10,-239,-182
211303,5.292,-12.739,2.092,1.853121,0.534023,1.301987,100267.77,+12,-242,-178
211313,8.446,-15.116,2.456,0.165801,0.737821,1.756409,100267.77,+12,-242,-178
211323,9.615,-7.000,3.166,-1.111795,1.178940,1.126391,100272.29,+18,-243,-180
211334,8.172,-2.001,5.219,-2.052565,1.544499,0.544795,100266.79,+18,-241,-183
211343,5.825,-2.720,5.383,-1.853024,1.392316,0.506483,100268.26,+17,-241,-188
211353,6.936,-2.835,-0.045,-1.330492,1.104977,0.487859,100268.77,+17,-241,-188
211363,12.852,0.303,-6.692,-0.806896,0.772940,0.477749,100268.77,+17,-239,-190
211374,17.319,-1.280,-7.898,-0.092805,0.446225,0.564483,100274.00,+19,-239,-190
211384,18.731,-2.614,-5.130,1.354534,0.295106,0.734758,100267.48,+21,-243,-185
211393,16.013,-3.510,-1.998,2.459726,0.356830,0.756575,100272.53,+21,-243,-185
211403,11.129,-7.060,2.172,2.645432,0.492518,0.735290,100265.13,+24,-245,-176
211414,7.031,-7.918,6.372,2.039359,0.598940,0.593749,100265.13,+25,-249,-168
211424,6.090,-5.518,7.814,1.051231,0.546794,0.398465,100268.89,+25,-251,-166
211433,7.778,-5.201,6.797,0.129617,0.523381,0.201052,100266.44,+25,-251,-166
211443,10.009,-6.388,5.148,-0.686107,0.552647,-0.008067,100267.53,+26,-250,-167
211453,10.514,-4.631,3.549,-1.356033,0.515399,-0.153333,100268.48,+24,-249,-169
211464,10.353,-1.092,2.405,-1.432125,0.444096,-0.167700,100268.48,+23,-248,-174
211474,10.914,1.491,1.477,-0.861171,0.327032,-0.034140,100275.63,+23,-248,-174
211483,11.108,1.128,1.422,-0.005539,0.250408,0.177639,100270.59,+24,-247,-175
211493,10.383,-0.678,2.005,0.681947,0.144519,0.361217,100270.74,+24,-247,-173
211500,9.864,-1.932,2.688,0.904369,0.078537,0.442630,100268.49,+24,-247,-173
211509,9.327,-3.489,3.087,0.881488,0.034904,0.466575,100268.49,+24,-249,-170
211518,8.719,-5.364,2.890,0.586699,0.046078,0.466575,100268.49,+27,-249,-168
211528,8.782,-4.995,2.409,0.149305,0.083326,0.434648,100270.44,+28,-250,-168
211538,9.042,-3.606,2.855,-0.197098,0.112592,0.395272,100270.59,+28,-250,-168
211549,9.995,-2.951,1.832,-0.334915,-0.001812,0.382502,100268.28,+29,-251,-169
211559,10.226,-2.786,0.978,-0.177942,-0.083224,0.436245,100268.28,+31,-251,-170
211568,9.976,-3.265,0.580,0.099287,-0.163041,0.529364,100271.66,+33,-251,-168
211578,9.625,-3.544,0.062,0.329158,-0.273720,0.617694,100271.66,+33,-251,-168
211589,9.298,-3.927,0.737,0.505287,-0.337573,0.671969,100268.15,+36,-252,-168
211599,8.916,-4.402,1.783,0.601066,-0.367903,0.677822,100273.82,+38,-253,-167
211608,8.648,-4.532,2.145,0.557433,-0.389188,0.639511,100268.93,+41,-253,-165
211618,8.612,-4.702,2.441,0.525507,-0.369499,0.643767,100268.93,+41,-253,-165
211629,8.390,-4.960,2.301,0.427599,-0.351408,0.628868,100273.47,+44,-255,-163
211639,8.582,-5.079,1.917,0.270094,-0.341830,0.579382,100269.70,+47,-255,-162
211649,9.000,-4.621,1.707,0.145048,-0.390784,0.532557,100267.70,+47,-256,-163
211658,9.137,-3.989,1.885,0.150369,-0.447187,0.513401,100271.52,+47,-256,-163
211668,8.962,-4.125,1.826,0.237103,-0.486031,0.505951,100271.15,+49,-257,-162
211679,8.882,-4.515,1.823,0.278076,-0.499866,0.491052,100270.68,+52,-257,-162
211689,9.120,-4.789,1.896,0.230718,-0.501463,0.472428,100266.38,+55,-257,-161
211698,9.056,-4.702,1.799,0.141856,-0.480710,0.444226,100266.38,+55,-257,-161
211708,9.141,-4.392,1.692,0.045544,-0.470068,0.429327,100268.12,+57,-259,-162
211719,9.327,-4.059,1.500,0.002975,-0.503591,0.445823,100268.12,+58,-258,-160
211729,9.192,-3.745,1.368,0.031177,-0.548288,0.472428,100270.36,+59,-258,-161
211734,9.015,-3.495,1.343,0.057250,-0.588729,0.494777,100267.73,+59,-258,-161
211743,8.909,-3.679,1.388,0.075874,-0.631830,0.523511,100267.78,+63,-258,-160
211753,8.937,-3.877,1.454,0.099819,-0.683976,0.552777,100266.67,+66,-258,-160
211764,9.036,-3.983,1.668,0.110993,-0.735591,0.584703,100266.67,+66,-258,-160
211774,8.912,-4.174,1.589,0.148241,-0.782949,0.610777,100271.23,+67,-259,-160
211783,8.611,-4.244,1.793,0.155690,-0.797848,0.636850,100270.02,+71,-259,-160
211793,8.645,-4.444,2.168,0.138663,-0.799976,0.656006,100267.81,+74,-259,-159
211804,8.939,-4.697,2.054,0.116314,-0.794655,0.665052,100268.14,+74,-259,-159
211814,9.100,-5.143,1.728,0.057782,-0.785609,0.667180,100268.14,+76,-259,-160
211823,9.484,-5.461,1.575,-0.048640,-0.791995,0.656538,100271.73,+80,-259,-160
211833,9.982,-5.224,1.479,-0.193374,-0.802637,0.624611,100269.53,+83,-259,-161
211844,10.451,-4.923,1.491,-0.324273,-0.819664,0.611309,100269.89,+83,-259,-161
211854,10.807,-4.602,1.289,-0.454639,-0.846270,0.616630,100269.89,+85,-259,-162
211863,11.100,-4.087,1.088,-0.591392,-0.869683,0.645364,100269.89,+89,-259,-164
211873,11.044,-3.445,0.890,-0.667483,-0.923958,0.717731,100273.38,+92,-258,-167
211884,11.129,-3.071,0.973,-0.671740,-1.001646,0.825749,100271.48,+92,-258,-167
211894,11.387,-3.033,1.008,-0.675997,-1.078270,0.943345,100267.17,+97,-257,-169
211904,11.908,-2.695,1.263,-0.740914,-1.155958,1.035400,100268.70,+101,-256,-172
211913,12.823,-2.147,2.289,-0.777630,-1.235242,1.162575,100268.70,+107,-255,-173
211923,13.799,-1.960,3.517,-0.781887,-1.296435,1.243987,100267.76,+107,-255,-173
211934,15.056,-2.689,3.920,-0.854254,-1.304416,1.408409,100269.07,+112,-253,-176
211944,15.330,-1.987,4.525,-1.052731,-1.259719,1.511639,100267.71,+120,-252,-179
211953,14.706,0.396,6.275,-1.234180,-1.255994,1.524941,100266.96,+127,-249,-182
211963,13.422,2.304,8.168,-1.004309,-1.291113,1.655840,100266.96,+127,-249,-182
211970,12.395,2.237,8.707,-0.538713,-1.314526,1.817602,100271.84,+134,-248,-184
211979,11.742,0.471,6.611,-0.009796,-1.412967,2.002776,100271.84,+142,-246,-183
211989,11.119,-2.149,5.784,0.312663,-1.653480,2.153363,100270.59,+142,-246,-183
211999,10.214,-4.328,6.408,0.554773,-1.738618,2.218280,100268.16,+151,-245,-181
212008,10.370,-6.241,6.155,0.874571,-1.597077,2.366207,100270.16,+161,-245,-177
212019,12.315,-7.046,5.572,1.103378,-1.514068,2.518922,100267.90,+171,-243,-172
212029,13.537,-6.370,5.221,1.086882,-1.569939,2.489656,100266.21,+171,-243,-172
212039,12.435,-4.241,6.302,1.354534,-1.739682,2.393876,100261.49,+181,-241,-167
212048,10.261,-2.598,6.814,1.882919,-1.956251,2.374188,100261.49,+189,-240,-158
212059,8.045,-2.831,3.854,2.269230,-2.165902,2.324702,100265.27,+199,-239,-149
212069,7.560,-4.852,1.178,2.429928,-2.274452,2.187950,100265.27,+199,-239,-149
212079,8.151,-7.351,3.160,2.926386,-2.340434,2.080996,100267.34,+207,-237,-137
212088,9.417,-4.947,4.729,3.545762,-2.418654,1.842611,100261.58,+213,-236,-123
212099,8.634,-1.820,4.771,3.777761,-2.503260,1.448850,100264.98,+218,-236,-109
212109,7.570,0.476,5.960,3.940055,-2.567113,1.062538,100262.47,+218,-236,-109
212119,6.351,1.960,5.606,3.935798,-2.587865,0.638446,100262.47,+220,-234,-93
212129,4.907,1.839,4.787,3.868220,-2.428764,0.259584,100266.59,+221,-234,-78
212139,4.173,0.254,4.865,3.800642,-2.133976,-0.069260,100262.94,+219,-232,-63
212149,4.337,-1.486,5.001,3.586734,-1.947737,-0.331058,100263.05,+219,-232,-63
212159,5.010,-2.140,5.190,3.112624,-1.844508,-0.610947,100263.05,+216,-231,-50
212168,5.676,-2.333,4.951,2.652881,-1.790765,-0.929149,100263.05,+210,-230,-40
212178,6.265,-2.718,4.512,2.290515,-1.725315,-1.265974,100264.78,+205,-230,-31
212189,6.811,-2.740,4.350,1.939854,-1.642306,-1.570341,100263.58,+205,-230,-31
212199,6.987,-2.554,4.026,1.589726,-1.585370,-1.870451,100264.63,+196,-232,-24
212204,6.900,-2.427,3.751,1.373690,-1.522049,-2.120011,100261.53,+188,-234,-16
212213,6.825,-2.257,3.574,1.157653,-1.430526,-2.355203,100261.53,+188,-234,-16
212224,6.678,-2.407,3.535,0.920332,-1.307077,-2.612744,100267.23,+178,-235,-13
212234,6.414,-2.578,3.960,0.810718,-1.187884,-2.849001,100263.51,+166,-237,-10
212244,6.288,-2.750,4.788,0.851690,-1.087316,-3.101221,100258.99,+154,-239,-5
212254,7.043,-2.746,5.601,0.989506,-0.974508,-3.349184,100255.52,+154,-239,-5
212263,7.914,-2.886,6.030,1.190644,-0.824453,-3.559368,100255.52,+141,-240,-1
212274,8.333,-3.016,6.117,1.458827,-0.632894,-3.762101,100262.32,+127,-240,+2
212284,8.543,-2.876,5.974,1.732864,-0.433353,-3.955257,100262.43,+112,-240,+9
212294,8.709,-2.714,5.827,2.059047,-0.256160,-4.117019,100258.23,+112,-240,+9
212303,9.037,-2.664,5.666,2.407579,-0.065665,-4.245789,100257.98,+98,-236,+16
212314,9.632,-3.420,5.468,2.697579,0.093436,-4.325606,100257.98,+83,-232,+23
212324,10.292,-4.449,5.089,2.951927,0.223803,-4.400101,100266.36,+70,-225,+32
212334,11.004,-5.441,4.453,3.101450,0.340335,-4.484174,100269.09,+70,-225,+32
212343,11.975,-6.489,4.817,3.095065,0.443032,-4.603367,100262.80,+57,-218,+41
212354,13.086,-7.334,5.233,2.998221,0.499968,-4.719367,100262.80,+44,-207,+48
212364,14.125,-8.134,5.401,2.858808,0.544133,-4.805569,100262.80,+31,-199,+56
212374,14.469,-9.023,5.250,2.752918,0.504757,-4.838027,100264.97,+31,-199,+56
212384,13.556,-11.057,4.925,2.774734,0.435583,-4.787477,100265.70,+19,-187,+63
212393,12.937,-13.626,3.992,2.784845,0.254133,-4.687440,100269.55,+8,-174,+70
212404,12.765,-16.549,3.212,2.842313,0.042886,-4.490027,100262.52,-3,-161,+75
212414,12.489,-19.465,2.833,2.901909,-0.192839,-4.129789,100262.52,-3,-161,+75
212424,11.018,-21.662,3.750,2.784845,-0.257756,-3.665257,100269.49,-12,-148,+80
212433,8.643,-21.259,5.572,2.457597,-0.161445,-3.162946,100268.07,-19,-136,+85
212440,6.596,-19.713,7.175,2.090974,-0.014050,-2.735130,100269.59,-19,-136,+85
212449,5.111,-19.726,8.988,1.686038,0.155693,-2.233882,100269.59,-22,-126,+88
212459,3.567,-22.491,9.577,1.144882,0.244555,-1.517662,100269.54,-24,-120,+90
212469,2.444,-24.720,8.433,0.390883,0.389289,-0.830709,100269.54,-25,-118,+91
212480,2.966,-24.216,7.678,-0.462089,0.671307,-0.151205,100268.30,-25,-118,+91
212489,5.350,-21.360,7.000,-1.074015,0.868720,0.502758,100266.18,-22,-122,+91
212499,5.719,-18.128,5.314,-1.412969,0.791032,1.248776,100261.96,-17,-126,+90
212509,12.299,-8.663,2.420,-1.672639,0.319583,2.076207,100261.96,-13,-136,+86
212518,28.471,21.207,-3.704,-2.209538,-0.909059,1.730868,100261.96,-13,-136,+86
212529,30.177,32.904,-16.726,-2.111629,-0.210399,0.207437,100268.94,-14,-143,+81
212539,20.461,-0.405,-0.307,0.173250,0.622885,2.446555,100273.55,-8,-147,+81
212549,10.708,-19.950,12.967,4.489724,-0.161977,3.684242,100269.72,-1,-138,+91
212559,8.069,-22.975,3.305,3.634092,-0.151334,3.384665,100266.83,-1,-138,+91
212569,10.051,-5.060,-0.353,1.186919,0.564885,2.981858,100266.83,+5,-136,+95
212579,6.000,3.473,0.989,2.353304,0.891601,2.659399,100273.16,+12,-134,+99
212589,1.990,1.991,12.211,4.228991,0.735693,2.256592,100268.13,+18,-123,+106
212599,4.732,-9.907,9.606,3.665486,-0.241793,2.393344,100269.30,+18,-123,+106
212609,9.456,-22.464,2.025,1.011855,-0.100252,2.243821,100269.30,+22,-117,+110
212619,10.577,-15.425,0.966,-2.071189,0.722390,1.481840,100270.65,+26,-122,+108
212629,10.616,-2.629,3.816,-3.931445,1.215123,0.951327,100265.04,+32,-137,+103
212639,8.982,-0.205,4.196,-3.998491,1.099123,0.906630,100265.04,+32,-137,+103
212648,8.895,-1.656,1.933,-2.809757,0.810188,0.817235,100267.09,+36,-148,+97
212659,9.420,1.213,0.920,-1.532162,0.747931,0.726777,100267.30,+40,-154,+94
212669,9.542,2.170,3.179,-0.072053,0.694720,0.777859,100267.30,+43,-154,+95
212674,9.704,-0.062,3.589,0.832002,0.469106,0.905565,100271.52,+43,-154,+95
212684,9.685,-2.589,2.098,1.158717,0.370133,1.016244,100268.21,+47,-152,+98
212694,9.129,-4.763,1.941,1.125726,0.521252,1.031143,100266.48,+52,-150,+100
212704,8.947,-7.706,5.830,0.404718,0.710151,0.904501,100267.70,+52,-150,+100
212714,8.388,-8.754,8.530,-1.035171,0.780922,0.560758,100267.70,+55,-152,+99
212724,7.929,-4.807,7.213,-2.262748,0.811252,0.118575,100269.01,+57,-158,+95
212733,7.993,-0.429,4.968,-2.625115,0.884683,-0.110232,100269.52,+60,-165,+90
212744,9.024,1.446,2.836,-2.253703,0.816041,-0.064471,100267.23,+60,-165,+90
212754,10.742,1.534,1.765,-1.354969,0.618096,0.215419,100269.84,+61,-170,+86
212764,10.989,-1.083,2.702,-0.436016,0.491986,0.444758,100269.84,+64,-172,+86
212774,10.005,-4.581,3.194,-0.136970,0.406317,0.530428,100272.10,+67,-172,+85
212784,8.985,-5.317,3.781,-0.443465,0.393546,0.547988,100267.74,+67,-172,+85
212794,8.756,-3.513,4.052,-0.975575,0.445161,0.508079,100271.73,+68,-176,+85
212804,8.630,-2.159,4.627,-1.208107,0.506353,0.488391,100267.43,+71,-177,+82
212814,8.313,-1.259,4.843,-1.220878,0.507417,0.557034,100267.43,+74,-181,+79
212824,8.362,-0.761,4.609,-1.116052,0.474427,0.654410,100267.01,+74,-181,+79
212834,8.412,-1.295,4.217,-0.920768,0.431326,0.774666,100267.43,+77,-185,+77
212844,8.481,-2.588,4.035,-0.805832,0.402060,0.875767,100266.54,+80,-187,+75
212854,8.691,-3.817,3.567,-0.926621,0.394078,0.909290,100269.79,+84,-190,+73
212864,8.597,-3.986,4.010,-1.169795,0.438775,0.889602,100269.79,+84,-190,+73
212874,8.950,-2.469,4.099,-1.289520,0.487729,0.834795,100269.59,+87,-193,+70
212884,8.940,-3.048,3.629,-1.252272,0.480812,0.807657,100268.38,+90,-197,+66
212894,9.748,-2.643,3.544,-1.172456,0.497839,0.814575,100270.59,+94,-198,+64
212904,10.303,-3.289,3.340,-1.063373,0.488794,0.855547,100266.02,+94,-198,+64
212914,9.978,-4.172,3.220,-1.011758,0.451546,0.910887,100266.02,+98,-202,+61
212924,9.679,-4.172,2.411,-1.035703,0.377583,0.992831,100269.61,+102,-204,+59
212934,10.002,-3.965,2.049,-1.075612,0.360023,1.089675,100272.02,+106,-206,+55
212944,9.990,-3.436,2.131,-1.111795,0.314794,1.203015,100268.19,+106,-206,+55
212954,10.474,-2.348,2.679,-1.045813,0.219014,1.336574,100269.34,+110,-208,+53
212964,11.276,-1.923,3.760,-0.936199,-0.033206,1.586666,100269.34,+115,-210,+49
212974,11.550,-2.249,3.652,-0.682914,-0.267334,1.796849,100270.02,+119,-211,+48
212984,12.161,-3.218,4.032,-0.495080,-0.293408,1.939455,100268.91,+119,-211,+48
212995,12.728,-4.087,3.920,-0.573300,-0.283298,2.017143,100268.97,+124,-212,+47
213004,13.116,-3.653,3.444,-0.826052,-0.292344,2.125161,100265.77,+130,-212,+45
213014,13.615,-3.039,2.760,-1.013355,-0.297665,2.224665,100265.77,+136,-212,+43
213024,14.378,-2.889,2.415,-1.177245,-0.338637,2.342794,100268.84,+136,-212,+43
213035,15.145,-2.665,2.583,-1.387428,-0.380674,2.489656,100269.57,+142,-214,+40
213044,16.749,-1.619,2.691,-1.682217,-0.340766,2.604060,100269.15,+149,-216,+36
213054,18.782,0.001,2.955,-2.116418,-0.173151,2.667381,100271.87,+157,-217,+30
213064,19.994,2.723,2.720,-2.500069,-0.056087,2.717931,100271.87,+157,-217,+30
213074,21.104,5.544,2.529,-2.701207,0.004574,2.805729,100268.85,+165,-220,+23
213084,21.346,6.872,3.506,-2.531996,0.007766,2.937692,100270.05,+175,-220,+14
213094,19.314,4.392,5.299,-1.767354,-0.152399,3.140958,100266.07,+184,-220,+10
213104,16.751,-4.635,5.508,-0.627575,-0.525408,3.582078,100264.45,+195,-216,+10
213114,17.686,-11.970,9.244,0.026920,-0.828178,4.029049,100264.45,+195,-216,+10
213125,19.514,-10.684,12.578,-0.021502,-0.773371,3.960407,100266.27,+206,-211,+11
213134,17.405,-4.524,11.153,0.081195,-0.619059,3.649655,100265.06,+215,-204,+11
213144,14.909,-0.667,8.847,0.194889,-0.479824,3.297221,100264.28,+223,-199,+13
213154,13.564,1.892,7.201,0.406314,-0.668013,2.750922,100265.44,+223,-199,+13
213165,10.198,4.084,5.358,0.659598,-1.000050,2.107069,100265.44,+228,-194,+15
213174,5.211,3.279,5.012,0.942149,-1.029848,1.744703,100267.40,+231,-189,+20
213184,0.381,-2.385,4.188,1.407745,-0.890967,1.578152,100263.41,+235,-184,+25
213194,-1.316,-7.769,5.615,1.592919,-0.285958,1.165235,100263.57,+235,-184,+25
213204,1.802,-9.610,5.833,1.165635,-0.222105,0.429859,100266.04,+236,-179,+28
213214,2.712,-7.119,4.587,0.333415,-0.610013,-0.362984,100266.04,+233,-179,+30
213224,2.587,-3.476,1.460,-0.935135,-0.862765,-0.924892,100266.57,+230,-183,+28
213234,2.900,-0.834,-1.761,-2.210070,-0.906930,-1.335681,100268.30,+230,-183,+28
213244,2.258,2.115,-3.176,-2.784748,-0.813811,-1.895460,100271.20,+224,-191,+23
213255,1.961,4.747,-1.314,-2.532528,-0.430692,-2.292946,100266.46,+217,-198,+18
213264,2.226,6.153,-0.347,-1.392217,-0.441866,-2.514304,100266.46,+208,-206,+16
213274,2.909,5.911,0.804,-0.024163,-0.505187,-2.784084,100268.42,+208,-206,+16
213284,2.934,3.092,2.128,0.943745,-0.472729,-3.041625,100264.53,+198,-209,+18
213295,2.738,-0.487,3.172,1.361983,-0.394509,-3.250212,100263.59,+188,-211,+23
213304,3.198,-3.673,3.742,1.089543,-0.244986,-3.514670,100262.08,+177,-214,+26
213314,3.824,-3.903,3.760,0.386094,-0.068325,-3.881294,100262.08,+177,-214,+26
213324,4.044,-0.171,3.261,-0.149741,0.054592,-4.348486,100265.80,+164,-218,+26
213335,4.843,2.686,2.784,0.086516,0.123234,-4.656046,100261.80,+149,-222,+26
213344,6.162,2.500,2.802,0.938424,0.146647,-4.794394,100263.18,+134,-224,+30
213354,7.432,0.014,2.954,1.805763,0.132280,-4.940724,100264.59,+134,-224,+30
213364,8.837,-2.398,3.389,2.278276,0.138665,-5.117385,100264.59,+119,-222,+35
213374,9.692,-4.011,3.878,2.354368,0.116317,-5.298302,100263.20,+102,-218,+43
213385,9.750,-5.122,3.802,2.200588,0.015216,-5.477091,100263.94,+86,-215,+48
213394,9.384,-5.814,3.422,2.093102,-0.054490,-5.692595,100267.88,+86,-215,+48
213404,9.880,-5.633,3.640,1.970717,-0.026289,-5.844247,100262.25,+69,-208,+54
213414,11.910,-5.401,4.829,1.704662,0.031711,-5.913953,100262.25,+51,-202,+58
213425,14.460,-6.239,6.188,1.439139,0.122170,-5.933109,100263.41,+34,-195,+61
213434,16.166,-6.616,7.540,1.234277,0.200922,-6.044852,100263.41,+34,-195,+61
213444,17.016,-8.143,8.457,1.321011,0.344060,-6.130522,100261.48,+19,-186,+65
213454,17.778,-13.024,7.904,1.397102,0.445161,-6.129990,100263.10,+4,-176,+68
213465,18.112,-15.962,5.868,1.103378,0.399931,-6.129990,100263.10,-8,-166,+71
213475,18.449,-18.869,4.287,0.943213,0.385564,-5.861274,100269.84,-8,-166,+71
213484,17.168,-20.640,2.504,0.882020,0.375454,-5.408449,100268.01,-20,-154,+73
213494,13.666,-20.463,2.516,0.769568,0.436115,-4.733025,100267.79,-30,-144,+74
213505,10.825,-22.391,5.807,0.668644,0.608518,-3.980798,100264.38,-36,-135,+77
213514,5.875,-25.128,8.930,0.298828,0.698445,-3.008634,100264.38,-36,-135,+77
213524,2.147,-27.165,7.751,-0.455172,0.607454,-1.910359,100268.86,-40,-129,+78
213534,2.138,-26.926,4.121,-1.303355,0.657472,-0.606690,100266.70,-40,-131,+77
213544,7.075,-23.710,4.508,-1.695519,0.808059,0.697511,100266.44,-36,-136,+76
213555,10.016,-18.272,3.128,-1.558767,0.539876,1.690427,100266.19,-31,-136,+76
213564,12.079,-10.807,1.561,-1.187355,0.109931,2.792427,100266.19,-31,-144,+75
213574,20.399,10.357,1.616,-0.760603,-0.584472,2.990903,100267.20,-26,-151,+71
213584,28.294,38.118,-8.633,-0.665887,-1.032508,1.414262,100268.98,-26,-156,+70
213595,22.106,23.745,-15.855,-0.315759,-0.161445,1.117345,100271.70,-21,-157,+70
213605,17.082,-10.081,4.516,3.216386,-0.150270,3.689564,100268.55,-21,-157,+70
213614,12.287,-26.829,13.390,5.542769,-0.499866,4.391417,100268.55,-12,-150,+81
213624,10.961,-24.734,3.561,3.388789,-0.089078,3.739050,100273.52,-5,-146,+87
213635,13.718,-5.043,1.205,1.898882,0.590427,3.420848,100267.48,+3,-144,+91
213645,3.983,4.392,4.998,3.095597,0.781454,2.989307,100271.52,+3,-144,+91
213654,-3.767,-1.569,14.754,3.629835,0.418555,2.578518,100267.63,+10,-136,+99
213664,0.743,-14.123,6.207,2.279873,-0.450380,2.570537,100267.63,+14,-132,+102
213675,10.440,-21.169,-0.460,-0.555740,0.041289,2.316720,100267.42,+19,-137,+100
213685,14.929,-15.519,1.315,-2.768253,0.742610,1.568574,100268.58,+19,-137,+100
213694,14.284,-5.335,3.635,-3.856417,0.969289,1.106703,100273.72,+25,-149,+95
213704,9.134,0.869,3.540,-3.958582,0.896922,0.976868,100267.27,+29,-161,+88
213714,6.126,0.038,2.318,-2.935867,0.787307,0.919400,100267.27,+33,-169,+83
213725,7.401,1.642,1.203,-1.721593,0.661197,0.946006,100265.29,+33,-169,+83
213734,8.907,3.008,2.445,-0.322676,0.665986,0.974208,100268.96,+38,-173,+82
213744,9.590,-0.952,4.539,0.839984,0.485069,1.060941,100266.13,+41,-173,+83
213754,9.791,-3.698,3.550,1.275249,0.210500,1.084354,100268.65,+44,-170,+87
213765,8.988,-4.292,2.374,1.061873,0.284463,1.014648,100268.65,+44,-170,+87
213775,8.348,-5.795,3.726,0.448883,0.504757,0.904501,100267.48,+47,-168,+88
213784,8.375,-6.824,6.440,-0.577025,0.636720,0.680483,100268.10,+52,-169,+87
213794,7.822,-5.139,8.160,-1.757244,0.692592,0.370263,100268.10,+53,-174,+83
213805,7.792,-2.225,7.124,-2.489959,0.695784,0.120171,100266.54,+53,-174,+83
213815,8.291,-0.135,4.885,-2.531996,0.640445,0.006832,100266.54,+55,-183,+78
213824,8.973,1.472,3.074,-2.040859,0.503161,0.116979,100271.97,+57,-188,+73
213834,10.159,1.744,1.685,-1.119777,0.281803,0.401657,100269.97,+59,-191,+71
213844,10.445,-0.319,1.864,-0.123667,0.109931,0.646428,100268.19,+59,-191,+71
213855,9.624,-3.343,3.004,0.382369,0.027987,0.779988,100268.08,+61,-191,+72
213864,8.710,-4.846,4.106,0.226461,0.062574,0.817767,100268.08,+63,-190,+73
213874,8.041,-4.742,4.831,-0.291814,0.169528,0.771474,100268.79,+66,-191,+71
213884,7.944,-3.868,4.802,-0.828713,0.255730,0.710813,100269.43,+66,-191,+71
213895,8.493,-2.737,4.357,-1.195336,0.301491,0.706556,100266.23,+68,-195,+70
213905,8.961,-1.703,4.033,-1.253336,0.313729,0.784244,100267.74,+71,-198,+66
213914,9.072,-1.347,3.353,-1.041557,0.288720,0.912483,100267.74,+74,-200,+64
213924,9.155,-2.135,2.358,-0.701006,0.233913,1.031675,100271.83,+74,-200,+64
213935,9.431,-3.749,2.302,-0.437612,0.203583,1.122134,100266.83,+78,-202,+63
213945,9.641,-5.142,2.357,-0.389722,0.172188,1.126923,100269.67,+82,-204,+61
213954,10.270,-5.852,2.770,-0.523282,0.199326,1.096593,100270.45,+85,-204,+60
213964,10.813,-5.839,3.174,-0.754217,0.173785,1.082226,100270.45,+85,-204,+60
213975,10.258,-4.925,3.458,-0.961740,0.119509,1.070519,100265.87,+88,-206,+58
213985,9.757,-3.838,3.183,-1.142657,0.102482,1.042318,100270.16,+92,-209,+55
213995,9.966,-2.931,3.092,-1.116052,0.073748,1.117345,100269.07,+96,-212,+52
214004,10.386,-2.140,3.162,-1.006437,-0.015114,1.268996,100268.45,+96,-212,+52
214014,10.755,-1.455,3.557,-0.839887,-0.113023,1.477051,100268.45,+99,-214,+50
214025,11.261,-1.856,4.058,-0.629704,-0.215188,1.706391,100271.44,+105,-216,+48
214035,11.890,-2.605,4.297,-0.544034,-0.313628,1.904335,100269.13,+109,-216,+46
214044,12.670,-3.185,4.291,-0.579685,-0.344490,2.050666,100265.34,+115,-216,+46
214054,13.402,-3.944,3.605,-0.721226,-0.331720,2.208702,100270.59,+115,-217,+44
214065,13.759,-3.903,2.782,-0.928217,-0.333848,2.365142,100270.59,+121,-218,+42
214075,13.824,-4.128,2.098,-1.053263,-0.380674,2.571601,100274.21,+128,-218,+39
214084,13.772,-4.107,1.894,-1.153832,-0.393444,2.615234,100268.18,+135,-220,+36
214094,14.393,-4.467,2.369,-1.308143,-0.358325,2.644500,100271.48,+135,-220,+36
214105,16.153,-3.726,2.884,-1.695519,-0.295536,2.655674,100267.60,+142,-220,+32
214115,18.468,-1.073,3.828,-2.343629,-0.213059,2.654078,100267.60,+150,-223,+25
214125,19.999,2.221,5.080,-2.848069,-0.156656,2.692922,100271.30,+159,-226,+17
214134,21.495,4.827,5.839,-2.948106,-0.143885,2.790830,100270.51,+159,-226,+17
214145,21.803,6.196,6.435,-2.726748,-0.057151,2.889271,100264.59,+168,-228,+9
214155,19.545,4.601,7.545,-2.361721,0.014684,2.997289,100264.79,+177,-228,+2
214165,16.319,-0.467,8.244,-1.804070,-0.009261,3.161179,100264.79,+187,-227,-1
214174,15.056,-9.446,9.039,-1.108602,-0.204013,3.465013,100271.90,+187,-227,-1
214184,17.270,-13.746,7.769,-0.886713,-0.364710,3.669876,100263.96,+199,-223,-4
214195,17.993,-8.919,9.670,-1.034107,-0.258821,3.462353,100265.76,+208,-219,-8
214200,16.702,-3.830,10.036,-0.809025,-0.270527,3.258555,100265.54,+208,-219,-8
214209,15.244,-0.142,8.026,-0.381740,-0.407279,2.945142,100265.54,+218,-215,-8
214219,13.158,3.792,5.091,-0.165172,-0.597242,2.278409,100265.54,+224,-211,-8
214230,8.914,4.705,3.496,-0.089080,-0.634490,1.714372,100266.59,+224,-211,-8
214240,3.244,1.197,2.718,0.085452,-0.544031,1.472262,100267.84,+228,-208,-7
214250,-0.947,-4.872,4.636,0.580314,-0.072582,1.427565,100264.59,+232,-204,-6
214260,0.702,-6.315,6.930,0.731965,0.328629,0.940685,100264.59,+234,-202,-5
214269,3.504,-5.428,6.604,0.254663,0.075876,0.203713,100270.26,+233,-202,-5
214280,3.278,-3.056,3.064,-0.400896,-0.305114,-0.575296,100270.26,+233,-201,-5
214290,2.584,-1.133,0.190,-1.379446,-0.260949,-1.087186,100266.23,+231,-204,-8
214300,2.338,0.325,-1.296,-2.139299,-0.173683,-1.389956,100266.54,+226,-209,-12
214309,1.974,1.643,-2.572,-2.317556,-0.127922,-1.694855,100267.48,+219,-216,-18
214320,2.144,3.380,-2.052,-1.926987,0.000849,-2.059882,100267.48,+219,-216,-18
214330,2.435,4.685,0.195,-0.992602,0.122170,-2.446726,100266.24,+214,-220,-22
214340,3.034,4.532,1.127,0.230186,0.040757,-2.805368,100270.18,+203,-224,-21
214350,3.249,2.706,2.046,1.205543,0.049803,-3.100157,100262.20,+193,-228,-16
214360,3.223,-0.264,3.082,1.605157,0.179638,-3.289056,100262.72,+193,-228,-16
214370,3.114,-2.371,3.269,1.523212,0.337674,-3.529037,100260.67,+184,-232,-13
214380,3.286,-1.988,3.370,1.202882,0.532427,-3.907367,100263.03,+171,-233,-9
214390,4.424,-0.112,2.936,1.051231,0.626078,-4.326138,100264.77,+156,-237,-6
214400,6.159,1.303,2.108,1.244919,0.614904,-4.626248,100264.77,+156,-237,-6
214410,7.608,0.799,1.539,1.706790,0.595748,-4.829514,100262.19,+142,-239,-1
214420,8.356,-0.518,1.922,2.171322,0.621289,-5.080137,100262.19,+125,-236,+5
214430,8.764,-1.686,2.461,2.348515,0.652151,-5.280743,100263.97,+109,-235,+11
214435,9.103,-2.224,2.356,2.379377,0.635124,-5.393550,100265.06,+109,-235,+11
214445,9.535,-2.689,1.646,2.475157,0.611179,-5.499972,100264.48,+92,-232,+19
214455,9.960,-4.110,0.822,2.786973,0.626610,-5.580853,100258.03,+92,-232,+19
214465,10.948,-5.672,1.242,3.070588,0.705362,-5.587238,100258.03,+76,-226,+28
214475,12.992,-7.342,2.737,2.956716,0.703766,-5.660669,100264.99,+60,-218,+36
214484,15.217,-8.766,4.551,2.297964,0.557436,-5.825091,100265.15,+43,-210,+43
214495,16.125,-8.789,5.972,1.464680,0.473362,-6.049641,100262.15,+43,-210,+43
214505,17.119,-8.894,7.294,1.131048,0.511674,-6.309843,100266.09,+27,-202,+47
214515,18.165,-10.918,7.951,1.391781,0.651087,-6.442871,100266.09,+11,-193,+50
214524,17.592,-13.819,7.318,1.559396,0.676096,-6.404027,100265.08,-3,-181,+54
214535,17.381,-16.774,5.438,1.542368,0.637784,-6.142760,100266.55,-15,-181,+58
214545,18.474,-19.844,2.424,1.400295,0.614371,-5.634064,100271.11,-15,-169,+58
214555,17.940,-19.597,0.434,0.991103,0.528702,-5.004578,100264.39,-26,-157,+61
214564,14.190,-21.097,4.015,1.031543,0.510610,-4.170762,100264.39,-33,-148,+63
214575,8.552,-25.259,8.152,1.299194,0.442500,-3.203918,100266.29,-37,-139,+66
214585,2.635,-28.659,8.415,0.854351,0.358427,-2.095001,100265.40,-37,-139,+66
214595,0.577,-28.779,3.399,-0.209869,0.332353,-0.725883,100271.63,-40,-136,+67
214604,6.655,-24.641,3.386,-0.745171,0.547326,0.777859,100267.34,-36,-139,+66
214615,10.383,-18.574,1.928,-0.430162,0.304152,1.888372,100267.34,-31,-143,+67
214625,12.420,-12.533,1.496,0.282865,-0.207738,3.073913,100270.51,-31,-143,+67
214635,18.549,7.244,5.170,0.851158,-0.693554,3.375619,100266.52,-26,-148,+68
214645,25.150,33.188,-3.783,0.747397,-1.060710,1.856446,100267.93,-23,-150,+68
214654,20.356,21.728,-15.346,0.403121,-0.432820,1.234409,100272.29,-21,-150,+69
214665,18.090,-9.692,-1.661,2.950331,-0.287555,3.734261,100272.29,-21,-150,+69
214675,16.167,-26.846,11.243,4.942550,-0.369499,4.597875,100269.22,-11,-145,+78
214685,11.964,-24.565,4.835,3.134973,-0.085353,3.744903,100268.95,-3,-140,+84
214694,13.282,-4.504,3.616,1.743506,0.407381,3.410206,100268.42,+3,-140,+87
214705,4.225,5.304,6.264,2.806129,0.311069,3.254298,100266.02,+3,-140,+87
214715,-4.758,1.474,14.931,3.596844,0.161546,2.751986,100266.02,+10,-134,+94
214725,-1.324,-8.370,7.453,2.766221,-0.622784,2.629601,100270.59,+14,-128,+98
214735,7.894,-17.867,-0.563,0.537213,-0.462619,2.607785,100270.38,+18,-130,+97
214745,14.970,-19.243,0.491,-1.470969,0.184959,2.237968,100269.33,+18,-130,+97
214755,15.998,-11.154,1.819,-2.931610,0.584573,1.588262,100268.44,+23,-138,+95
214765,10.227,-2.657,2.658,-3.651023,0.786243,1.253033,100268.44,+27,-150,+88
214775,6.273,0.636,2.219,-3.147115,0.787839,1.199822,100267.74,+31,-159,+83
214785,6.405,0.317,1.490,-2.044584,0.689399,1.140226,100269.90,+31,-159,+83
214795,8.812,1.983,1.963,-0.699942,0.535619,1.114685,100269.10,+35,-165,+81
214805,9.509,0.703,3.591,0.737819,0.336078,1.172685,100268.37,+40,-165,+82
214815,9.941,-2.530,3.850,1.548222,0.139197,1.220042,100268.37,+43,-160,+85
214824,9.115,-5.531,2.664,1.449781,0.116849,1.181730,100270.97,+43,-160,+85
214835,8.269,-6.557,2.941,0.669708,0.293509,1.058281,100272.02,+46,-158,+88
214845,8.126,-6.248,4.921,-0.315759,0.470702,0.818299,100272.13,+50,-159,+88
214855,7.924,-6.457,5.986,-1.332088,0.596812,0.537878,100268.55,+53,-163,+86
214864,8.235,-5.139,5.485,-2.272859,0.698977,0.297364,100268.55,+53,-163,+86
214875,8.744,-1.751,4.430,-2.610748,0.712280,0.158483,100271.52,+55,-170,+81
214885,9.217,0.915,3.042,-2.156859,0.574995,0.209034,100272.16,+57,-177,+76
214895,9.776,1.562,1.713,-1.122437,0.327564,0.405382,100271.83,+59,-180,+73
214905,10.002,-0.448,1.404,0.065764,0.098757,0.652636,100271.16,+59,-180,+73
214915,9.685,-3.387,2.360,0.592553,0.023198,0.779988,100271.16,+60,-181,+75
214925,8.938,-5.772,3.408,0.468039,0.058849,0.794887,100272.70,+63,-179,+76
214935,8.127,-5.517,4.594,-0.148144,0.196133,0.698575,100267.35,+64,-179,+76
214945,7.914,-3.980,5.272,-0.832969,0.328096,0.585768,100265.46,+64,-179,+76
214955,8.531,-2.404,4.981,-1.223006,0.384500,0.547456,100266.98,+66,-182,+73
214965,9.230,-1.253,4.142,-1.238437,0.374390,0.629400,100266.98,+70,-185,+70
214975,9.355,-1.223,3.366,-0.962804,0.319583,0.771474,100267.50,+72,-188,+68
214985,9.143,-2.158,2.654,-0.578089,0.285528,0.918336,100270.53,+72,-188,+68
214995,9.083,-3.659,2.234,-0.451447,0.323307,1.017308,100266.59,+76,-190,+67
215005,9.609,-4.545,2.609,-0.613208,0.372262,1.047107,100265.55,+79,-191,+66
215015,10.200,-4.267,2.997,-0.797850,0.359491,1.067859,100265.55,+83,-193,+64
215021,10.494,-4.058,3.148,-0.815410,0.344592,1.101382,100270.79,+83,-193,+64
215030,10.743,-4.240,3.304,-0.789336,0.341931,1.147143,100270.79,+88,-196,+62
215041,10.608,-4.514,3.203,-0.818070,0.352041,1.214189,100267.95,+92,-197,+60
215050,10.231,-4.076,2.711,-0.934602,0.364812,1.278042,100268.16,+92,-197,+60
215060,10.507,-3.752,2.608,-1.014951,0.355234,1.376483,100265.23,+95,-198,+56
215070,10.911,-3.202,2.969,-1.053795,0.262115,1.501528,100268.79,+101,-202,+55
215080,10.659,-2.315,3.226,-0.972382,0.139730,1.663290,100270.05,+106,-203,+52
215091,10.792,-2.465,3.657,-0.810621,0.059381,1.822923,100268.01,+106,-203,+52
215100,11.940,-3.476,3.731,-0.716970,-0.004472,1.966060,100268.01,+111,-206,+50
215110,12.916,-4.369,3.464,-0.824456,-0.018839,2.104941,100271.05,+118,-207,+48
215120,13.419,-4.451,3.098,-1.066034,-0.002344,2.245950,100271.05,+124,-208,+45
215130,13.887,-3.834,2.751,-1.283134,-0.052894,2.394941,100268.02,+124,-208,+45
215140,14.569,-3.665,2.691,-1.371465,-0.148674,2.544463,100268.70,+132,-210,+41
215150,15.476,-3.879,3.128,-1.455006,-0.180600,2.647161,100268.39,+139,-212,+38
215160,17.006,-4.022,3.907,-1.733299,-0.138032,2.698243,100267.28,+147,-212,+32
215171,19.264,-2.165,4.623,-2.310638,-0.029481,2.671638,100267.28,+147,-212,+32
215180,20.860,1.319,5.637,-2.944913,0.064702,2.624280,100267.09,+155,-215,+26
215190,21.888,4.673,6.191,-3.262051,0.040757,2.666317,100267.97,+163,-218,+16
215200,22.065,6.917,6.680,-3.093904,0.024794,2.812647,100267.83,+173,-220,+7
