99892,9.150,-2.017,3.017,0.007273,0.001579,-0.004112,100277.13,-83,+195,-35
99902,9.094,-2.074,2.977,0.006209,-0.000550,0.003337,100279.43,-83,+194,-35
99912,9.112,-2.048,3.013,0.003549,-0.001614,0.003870,100279.43,-84,+194,-35
99922,9.152,-2.004,2.978,0.003016,-0.002146,0.002273,100281.93,-84,+194,-35
99932,9.196,-2.021,2.978,0.003016,-0.007999,0.000145,100280.99,-83,+194,-35
99942,9.134,-2.025,2.981,0.004081,-0.010660,0.010255,100283.51,-84,+194,-35
99952,9.094,-2.033,2.973,0.011530,-0.011724,0.007594,100276.34,-84,+194,-35
99962,9.106,-2.004,2.951,0.013126,-0.013320,0.009191,100276.34,-84,+194,-35
99973,9.161,-2.026,2.951,0.020044,-0.011192,0.012383,100279.69,-84,+195,-35
99982,9.145,-2.041,3.000,0.026429,-0.006403,0.010787,100278.44,-84,+194,-35
99992,9.158,-1.949,2.988,0.036007,-0.000550,0.015576,100282.41,-84,+195,-36
100002,9.120,-2.062,2.981,0.042393,0.001579,0.003337,100280.22,-84,+195,-36
100013,9.161,-2.112,2.892,0.041328,0.005303,0.002273,100280.22,-84,+194,-36
100022,9.136,-2.291,2.884,0.017915,0.011157,-0.003048,100282.34,-84,+194,-35
100032,9.082,-2.226,2.942,-0.020396,0.022863,-0.012094,100283.80,-84,+194,-35
100042,9.122,-2.144,2.929,-0.050549,0.033505,-0.022381,100276.74,-84,+194,-35
100052,9.220,-2.027,2.977,-0.059240,0.034569,-0.024332,100280.20,-84,+193,-35
100062,9.126,-1.951,3.002,-0.032635,0.032973,-0.014222,100280.20,-85,+193,-35
100072,9.108,-2.065,2.952,-0.011883,0.034037,-0.012094,100278.11,-84,+194,-35
100082,9.085,-2.244,2.871,-0.017736,0.032973,-0.020075,100276.02,-84,+194,-35
100092,9.205,-2.337,2.903,-0.040617,0.037762,-0.019011,100276.55,-82,+194,-34
100103,9.151,-2.257,2.953,-0.091167,0.048936,-0.030185,100277.80,-84,+193,-33
100112,9.200,-2.160,2.972,-0.126818,0.056918,-0.035507,100277.80,-83,+194,-33
100122,9.157,-2.093,2.995,-0.158213,0.057982,-0.049874,100285.66,-83,+194,-33
100132,9.161,-1.920,3.008,-0.149167,0.059046,-0.046149,100278.55,-83,+194,-33
100143,9.165,-1.979,2.928,-0.125222,0.054790,-0.042956,100278.76,-83,+194,-32
100152,9.084,-2.063,2.946,-0.112451,0.051597,-0.039231,100275.41,-83,+193,-32
100162,9.171,-2.244,2.910,-0.134268,0.061175,-0.045617,100275.41,-83,+193,-32
100172,9.249,-2.203,2.942,-0.159809,0.060643,-0.053598,100280.88,-82,+193,-31
100183,9.166,-2.042,3.046,-0.177369,0.064900,-0.063708,100279.21,-82,+194,-31
100193,9.039,-2.021,2.927,-0.184286,0.064368,-0.063708,100278.01,-82,+194,-30
100202,9.173,-2.069,2.854,-0.167791,0.062239,-0.057323,100277.34,-82,+194,-30
100212,9.203,-2.075,2.873,-0.161938,0.062239,-0.050938,100277.34,-82,+193,-30
100222,9.128,-2.034,2.990,-0.164066,0.063303,-0.044552,100281.29,-82,+193,-30
100233,9.117,-1.853,3.088,-0.143314,0.056386,-0.030185,100279.77,-81,+193,-30
100242,9.116,-1.875,3.131,-0.101809,0.050001,-0.033910,100279.30,-81,+193,-30
100252,9.086,-2.001,3.179,-0.089571,0.045212,-0.031250,100275.45,-81,+193,-28
100262,9.055,-2.030,3.225,-0.098617,0.046808,-0.030718,100275.45,-82,+193,-28
100273,9.140,-1.983,3.243,-0.115644,0.047340,-0.038699,100282.68,-82,+193,-28
100282,9.145,-1.936,3.189,-0.114048,0.042019,-0.029653,100279.63,-82,+193,-28
100292,9.067,-1.987,3.133,-0.106066,0.039890,-0.036039,100279.38,-80,+192,-28
100302,9.094,-1.910,3.153,-0.097552,0.039358,-0.029653,100279.12,-80,+194,-27
100313,9.047,-1.918,3.152,-0.092231,0.039890,-0.030185,100279.12,-81,+193,-27
100323,9.090,-1.934,3.175,-0.082121,0.038294,-0.028057,100281.31,-81,+193,-27
100332,9.146,-2.048,3.097,-0.074140,0.038826,-0.029653,100281.98,-80,+193,-26
100342,9.076,-2.184,3.055,-0.081589,0.037762,-0.032846,100281.47,-80,+193,-26
100353,9.111,-2.144,3.094,-0.107130,0.042019,-0.041360,100279.84,-80,+193,-26
100363,9.081,-2.046,3.172,-0.125754,0.048404,-0.049341,100279.84,-80,+193,-26
100372,9.104,-1.802,3.205,-0.112984,0.044679,-0.045085,100280.54,-80,+193,-26
100382,9.075,-1.680,3.206,-0.075204,0.035102,-0.030185,100277.09,-80,+194,-26
100392,8.994,-1.761,3.167,-0.030507,0.026588,-0.022736,100277.18,-80,+193,-25
100398,9.127,-1.834,3.154,-0.008690,0.021799,-0.007837,100279.74,-80,+193,-25
100407,9.062,-1.920,3.135,0.005145,0.020202,-0.004112,100279.74,-79,+192,-26
100417,9.172,-1.901,3.121,0.013126,0.019670,0.001741,100279.74,-80,+193,-25
100427,9.081,-1.913,3.135,0.018448,0.021267,0.008659,100277.79,-80,+193,-25
100438,9.122,-1.929,3.111,0.025365,0.014881,0.013448,100280.82,-79,+193,-25
100448,9.142,-1.899,3.153,0.033347,0.014881,0.017704,100278.15,-80,+193,-26
100458,9.091,-1.883,3.161,0.039200,0.017010,0.026750,100278.15,-80,+193,-26
100467,9.088,-1.838,3.133,0.048778,0.016478,0.035264,100284.27,-80,+193,-26
100477,9.146,-1.718,3.256,0.059952,-0.000018,0.049099,100284.27,-80,+193,-25
100488,9.057,-1.533,3.212,0.082301,-0.020238,0.065594,100281.39,-80,+193,-26
100498,8.978,-1.710,3.220,0.140301,-0.019706,0.086347,100281.08,-80,+193,-26
100507,9.102,-1.804,3.159,0.187658,-0.027155,0.107099,100278.09,-80,+193,-26
100517,8.990,-1.808,3.115,0.217989,-0.029816,0.123594,100278.09,-81,+192,-26
100528,9.194,-1.973,3.092,0.239273,-0.028752,0.134236,100278.75,-81,+192,-27
100538,9.317,-2.062,3.165,0.236080,-0.038862,0.156585,100279.13,-82,+193,-28
100548,9.272,-2.041,3.029,0.212668,-0.044715,0.159246,100280.59,-82,+193,-28
100557,9.291,-2.420,2.875,0.175952,-0.045779,0.160310,100274.48,-82,+193,-28
100568,9.330,-2.505,2.902,0.114759,-0.042054,0.161906,100279.87,-81,+192,-29
100578,9.175,-2.294,2.971,0.041328,-0.032476,0.156053,100281.07,-83,+192,-28
100588,8.945,-2.100,2.922,-0.000708,-0.018642,0.163502,100278.04,-83,+192,-28
100597,8.884,-2.033,3.043,0.001420,-0.013320,0.165631,100278.04,-83,+191,-28
100608,8.942,-1.902,3.086,0.003016,-0.018642,0.183191,100277.46,-84,+191,-29
100618,8.839,-1.902,2.856,0.010998,-0.006403,0.194897,100277.46,-84,+190,-29
100628,8.841,-1.837,2.786,0.023769,0.003707,0.210328,100279.77,-85,+190,-28
100637,8.853,-1.572,2.996,0.024833,0.004771,0.242255,100279.68,-85,+190,-28
100647,9.019,-1.795,3.037,0.082301,0.019138,0.275246,100278.99,-85,+189,-28
100658,9.102,-2.362,2.814,0.144558,0.030845,0.290145,100275.76,-86,+188,-29
100668,8.794,-2.803,2.593,0.128594,0.056918,0.297594,100275.76,-86,+187,-30
100678,8.408,-3.204,2.266,0.038136,0.097358,0.291741,100278.92,-86,+187,-30
100687,8.265,-2.958,2.167,-0.073075,0.144184,0.269392,100278.92,-86,+187,-28
100698,8.321,-2.246,2.337,-0.118837,0.196863,0.270457,100278.83,-88,+185,-28
100708,8.454,-1.686,2.915,-0.048598,0.226661,0.293337,100278.83,-87,+185,-28
100717,8.526,-1.682,3.665,0.123805,0.208037,0.318879,100278.83,-87,+185,-28
100727,8.868,-1.969,4.076,0.265879,0.171854,0.326860,100281.66,-89,+185,-26
100738,9.657,-2.532,4.545,0.255769,0.121835,0.299190,100278.15,-89,+185,-26
100748,10.254,-3.168,4.611,0.159457,0.089377,0.269924,100277.01,-90,+184,-28
100757,10.311,-3.564,4.236,0.017915,0.060643,0.231080,100276.74,-90,+184,-28
100767,9.567,-3.146,3.932,-0.117240,0.029780,0.198090,100276.74,-90,+183,-28
100777,8.932,-2.558,3.730,-0.189607,0.010092,0.170952,100280.26,-91,+183,-27
100788,8.940,-2.410,3.544,-0.163534,-0.002678,0.150732,100278.01,-92,+182,-26
100798,9.195,-2.617,3.286,-0.093828,-0.022366,0.137429,100280.26,-92,+182,-26
100807,9.467,-2.862,3.171,-0.058708,-0.034605,0.135301,100280.26,-91,+182,-26
100817,9.234,-3.012,3.181,-0.030507,-0.043119,0.128915,100281.59,-92,+182,-26
100828,8.825,-3.382,2.940,-0.001773,-0.038330,0.092200,100281.59,-91,+182,-26
100838,8.568,-3.607,2.829,-0.017204,-0.023431,0.031007,100281.85,-91,+182,-26
100847,8.590,-3.600,2.928,-0.070415,-0.003743,-0.047745,100280.71,-92,+181,-25
100857,8.745,-3.632,3.009,-0.112451,0.013817,-0.120112,100276.21,-91,+182,-26
100868,8.701,-3.559,3.195,-0.123626,0.020202,-0.186626,100276.21,-91,+182,-26
100878,8.565,-3.607,3.129,-0.159277,0.024991,-0.260057,100282.02,-91,+182,-26
100888,8.667,-3.757,2.841,-0.218341,0.047872,-0.334552,100278.52,-91,+182,-25
100897,8.800,-3.544,2.724,-0.233240,0.060643,-0.381378,100278.30,-90,+183,-25
100908,8.908,-2.798,2.831,-0.251332,0.068092,-0.416497,100280.23,-87,+184,-23
100918,9.008,-2.293,2.981,-0.194396,0.063303,-0.427139,100280.01,-87,+184,-23
100928,8.987,-2.126,3.001,-0.089571,0.044147,-0.427671,100280.59,-87,+184,-24
100938,9.067,-2.338,2.885,0.003016,0.030845,-0.426075,100279.90,-86,+186,-23
100947,9.093,-2.445,2.855,0.039200,0.013817,-0.434589,100279.90,-85,+186,-23
100958,9.099,-2.353,2.945,0.015787,0.013817,-0.417029,100280.59,-85,+186,-23
100968,8.976,-2.095,3.063,-0.050727,0.019138,-0.399470,100280.59,-84,+188,-23
100977,8.966,-1.934,3.337,-0.102341,0.026056,-0.372332,100278.18,-84,+189,-23
100988,9.031,-1.729,3.468,-0.134268,0.025346,-0.340228,100279.29,-82,+189,-23
100998,8.980,-1.817,3.604,-0.155020,0.021799,-0.313268,100279.29,-82,+189,-23
101008,8.940,-2.050,3.269,-0.184818,0.002111,-0.290387,100279.29,-81,+190,-23
101018,8.957,-2.001,3.237,-0.232176,-0.014917,-0.255800,100279.29,-81,+190,-22
101028,9.181,-1.570,3.165,-0.257185,-0.017577,-0.199929,100278.45,-80,+190,-22
101038,9.249,-1.245,3.167,-0.247075,-0.026091,-0.149378,100282.21,-80,+190,-22
101048,9.178,-1.013,3.334,-0.175772,-0.039926,-0.070626,100281.48,-80,+191,-21
101058,9.256,-0.854,3.538,-0.085314,-0.052164,0.008126,100281.48,-79,+191,-21
101067,9.286,-1.036,3.626,-0.039552,-0.056421,0.089007,100281.48,-80,+190,-22
101078,9.251,-1.226,3.613,-0.060837,-0.052164,0.170952,100283.18,-80,+190,-22
101088,9.302,-1.092,3.608,-0.138525,-0.048440,0.252365,100285.07,-81,+189,-20
101098,9.237,-0.672,3.779,-0.195993,-0.048972,0.352401,100278.90,-81,+189,-21
101107,9.552,-0.384,3.771,-0.195993,-0.056953,0.469466,100283.66,-83,+187,-20
101117,9.608,-0.474,3.728,-0.147571,-0.063871,0.591319,100283.66,-83,+187,-20
101128,9.461,-0.922,3.433,-0.108195,-0.068128,0.731264,100277.19,-84,+185,-20
101138,9.585,-1.366,3.249,-0.110855,-0.058550,0.852585,100281.94,-87,+183,-20
101148,9.764,-1.837,3.191,-0.192800,-0.038330,0.956878,100277.34,-89,+180,-18
101157,10.259,-2.145,3.064,-0.327956,-0.014385,1.080328,100277.34,-92,+176,-18
101168,10.815,-1.990,3.467,-0.470561,0.013817,1.210695,100282.36,-92,+176,-18
101178,11.180,-1.855,4.459,-0.608378,0.022863,1.314456,100279.38,-94,+172,-17
101188,11.823,-2.287,4.927,-0.794616,0.039890,1.425667,100279.38,-97,+167,-15
101197,13.574,-2.308,5.439,-1.180928,0.059046,1.517722,100277.39,-101,+161,-12
101208,15.584,-1.182,5.803,-1.736982,0.012753,1.651814,100278.75,-101,+161,-12
101218,17.480,1.014,5.309,-2.116377,-0.022366,1.841245,100278.75,-104,+153,-8
101223,18.965,1.585,4.947,-2.183955,-0.027155,1.996089,100283.13,-104,+153,-8
101233,21.744,0.057,3.949,-2.166395,-0.017577,2.083887,100282.50,-108,+143,-5
101242,25.102,-2.985,2.216,-2.227056,-0.054825,2.186584,100280.41,-112,+134,-1
101253,23.318,-3.581,1.277,-2.466505,-0.185192,2.067391,100279.89,-115,+123,+1
101263,17.886,-1.839,1.630,-2.297294,-0.424641,1.824217,100279.89,-115,+123,+1
101273,12.345,-1.136,3.779,-1.228286,-0.729540,1.713538,100278.45,-119,+115,+3
101282,9.322,-2.597,7.216,0.288759,-0.833302,1.865190,100280.90,-122,+110,+1
101293,9.827,-6.262,8.984,1.452483,-0.724751,2.082290,100274.73,-127,+105,-1
101303,9.731,-12.293,8.121,1.791969,-0.603962,2.100914,100279.70,-127,+105,-1
101313,8.680,-17.836,5.650,1.335951,-0.490091,2.055153,100279.70,-130,+101,-5
101323,6.683,-20.302,5.626,0.450521,-0.313430,2.056217,100281.44,-133,+96,-7
101332,6.334,-16.938,5.150,-0.399791,-0.095265,2.070584,100276.52,-135,+90,-6
101343,7.595,-11.856,3.232,-0.973228,-0.011547,2.058877,100280.55,-137,+90,-5
101353,7.098,-9.236,2.373,-0.956910,-0.026623,2.089740,100280.86,-137,+81,-5
101363,5.391,-7.678,1.903,-0.546653,-0.081431,2.246180,100280.86,-139,+72,-4
101372,3.601,-7.718,1.494,-0.070415,-0.133045,2.407409,100278.44,-140,+64,-5
101383,1.968,-7.408,1.160,0.280778,-0.149008,2.457428,100275.77,-140,+64,-5
101393,0.748,-6.287,0.578,0.432961,-0.116550,2.372290,100278.13,-143,+56,-4
101403,0.182,-5.075,0.103,0.486704,-0.053229,2.247244,100276.39,-144,+49,-5
101412,-0.226,-3.550,-0.315,0.538851,-0.000018,2.145079,100276.39,-145,+43,-3
101423,-0.876,-2.379,-0.538,0.626649,0.027120,2.045043,100279.55,-145,+37,-4
101433,-1.569,-1.555,-0.594,0.725089,0.042551,1.911483,100279.86,-145,+37,-4
101443,-2.025,-0.999,-0.818,0.775108,0.064368,1.738547,100278.92,-145,+33,-4
101453,-2.034,-0.601,-0.970,0.760741,0.084056,1.518786,100275.78,-147,+29,-3
101458,-1.990,-0.405,-1.031,0.717108,0.106936,1.353300,100275.78,-147,+29,-3
101468,-2.006,-0.299,-1.086,0.648998,0.109597,1.204309,100275.78,-145,+25,-3
101478,-2.110,-0.249,-1.246,0.537255,0.105340,1.024988,100281.59,-147,+23,-3
101488,-2.316,-0.340,-1.380,0.427108,0.092569,0.837686,100282.22,-147,+23,-3
101498,-2.517,-0.171,-1.572,0.318025,0.055322,0.648787,100278.45,-147,+21,-3
101508,-2.662,0.054,-1.657,0.232356,0.036698,0.463080,100278.61,-147,+20,-3
101518,-2.641,0.295,-1.529,0.184998,0.028184,0.244915,100279.23,-148,+20,-3
101528,-2.392,0.319,-1.501,0.145622,0.004771,0.001209,100277.56,-148,+20,-3
101538,-2.088,0.404,-1.402,0.116888,-0.033009,-0.253672,100277.56,-147,+20,-3
101548,-1.676,0.370,-1.261,0.099328,-0.088348,-0.514937,100280.44,-147,+21,-3
101558,-1.268,0.215,-1.052,0.115824,-0.150605,-0.774075,100278.23,-147,+25,-4
101568,-0.764,-0.205,-0.868,0.158392,-0.216586,-1.033212,100278.23,-147,+25,-4
101578,-0.206,-0.896,-0.649,0.206992,-0.293210,-1.308313,100280.63,-147,+28,-5
101587,0.265,-1.681,-0.281,0.268007,-0.360256,-1.530203,100280.63,-146,+33,-5
101598,0.730,-2.648,0.299,0.358466,-0.423045,-1.774973,100277.84,-147,+39,-7
101608,1.367,-3.684,0.874,0.408484,-0.476256,-2.040496,100277.41,-147,+39,-7
101618,2.484,-4.730,1.209,0.366447,-0.510311,-2.325707,100277.41,-146,+48,-9
101628,3.933,-5.582,1.749,0.243530,-0.555008,-2.590698,100280.03,-147,+56,-12
101638,5.618,-6.317,2.173,0.108906,-0.587999,-2.784918,100278.19,-145,+66,-13
101648,7.360,-7.008,2.398,0.005677,-0.605027,-2.912092,100275.69,-143,+76,-16
101658,9.032,-7.373,2.383,-0.035296,-0.603430,-2.991908,100275.69,-143,+76,-16
101667,10.479,-7.856,3.039,0.049310,-0.546494,-2.964239,100275.69,-141,+86,-20
101678,10.987,-8.550,3.507,0.162649,-0.500201,-2.876973,100283.40,-140,+97,-20
101688,10.709,-9.406,3.918,0.230759,-0.457100,-2.842918,100279.73,-135,+105,-23
101698,11.270,-9.883,4.015,0.230227,-0.406017,-2.880165,100281.46,-135,+105,-23
101708,13.070,-9.660,4.332,0.238741,-0.310770,-2.906771,100276.74,-133,+115,-24
101719,15.228,-8.986,4.643,0.298337,-0.217119,-2.805670,100276.74,-129,+125,-25
101728,15.979,-8.483,4.862,0.436154,-0.172421,-2.625817,100282.38,-124,+133,-27
101738,15.724,-8.058,4.658,0.573438,-0.104311,-2.434789,100280.98,-124,+133,-27
101748,11.841,-18.838,9.493,0.939530,0.221872,-2.011230,100277.67,-121,+142,-29
101758,17.763,-17.580,9.475,1.106080,0.601798,-1.270001,100277.67,-119,+147,-29
101768,19.337,-6.457,3.691,-0.395534,0.536881,-1.129524,100279.26,-115,+149,-26
101778,17.969,8.488,2.853,-1.850322,0.707156,-1.623322,100279.26,-115,+149,-26
101788,18.894,9.561,4.101,-1.661423,0.768349,-1.858515,100278.10,-111,+152,-21
101798,28.163,-2.707,-0.099,-0.794084,0.453340,-0.900717,100282.13,-109,+154,-18
101808,26.123,-2.239,-0.413,0.120613,0.106404,-0.004644,100278.37,-108,+155,-19
101814,12.400,-0.369,1.019,0.253108,0.030313,-0.429268,100278.37,-108,+155,-19
101823,2.945,-1.103,2.643,0.453181,0.113854,-0.541543,100283.90,-108,+157,-19
101833,0.302,-4.052,2.562,0.605365,0.179835,0.030475,100279.55,-108,+157,-19
101843,4.471,-6.538,3.079,0.485640,0.292643,0.108163,100279.29,-107,+157,-20
101853,7.591,-7.007,3.713,0.107310,0.363945,-0.231323,100278.24,-106,+158,-19
101863,7.998,-6.172,4.088,-0.242818,0.368734,-0.387763,100278.24,-105,+159,-17
101873,7.811,-4.706,3.937,-0.413626,0.316055,-0.433525,100279.17,-104,+159,-17
101883,7.899,-3.189,3.550,-0.335405,0.258056,-0.535158,100281.69,-104,+159,-15
101893,8.667,-2.447,3.019,-0.039020,0.180900,-0.605928,100279.22,-102,+161,-16
101903,9.463,-2.687,2.691,0.331860,0.079799,-0.608589,100280.11,-101,+163,-15
101913,9.494,-3.262,2.742,0.593658,0.000514,-0.603800,100280.11,-99,+166,-16
101923,9.155,-3.557,2.766,0.687842,-0.013853,-0.601139,100282.14,-99,+166,-16
101934,9.074,-3.519,2.412,0.688729,0.046631,-0.595286,100282.25,-98,+169,-18
101943,9.422,-3.322,2.252,0.626649,0.104276,-0.585708,100279.53,-97,+170,-20
101953,9.361,-2.895,2.516,0.521291,0.139395,-0.551653,100280.83,-96,+173,-20
101963,9.154,-2.445,3.232,0.432429,0.142588,-0.498442,100280.83,-96,+173,-20
101974,9.076,-1.972,3.852,0.420723,0.130881,-0.471304,100282.53,-94,+174,-21
101983,9.053,-1.996,3.920,0.469145,0.112257,-0.459066,100280.55,-92,+177,-21
101993,9.042,-2.214,3.813,0.553218,0.086184,-0.436185,100280.44,-92,+180,-22
102003,8.953,-2.639,3.565,0.600044,0.082991,-0.442571,100278.14,-92,+180,-22
102013,8.953,-3.328,3.369,0.563860,0.094698,-0.460662,100278.14,-90,+180,-24
102023,9.343,-3.675,3.136,0.382411,0.104276,-0.467048,100282.13,-89,+182,-25
102033,9.589,-3.315,3.254,0.142961,0.105340,-0.453745,100282.91,-88,+183,-24
102043,9.334,-2.258,3.418,-0.028910,0.104276,-0.425543,100280.25,-88,+183,-24
102053,9.155,-1.437,3.334,-0.097020,0.097358,-0.371800,100279.63,-86,+185,-23
102063,9.080,-1.073,3.467,-0.093828,0.090441,-0.288259,100279.63,-86,+185,-23
102073,8.878,-0.984,3.511,-0.089571,0.084588,-0.199396,100280.74,-85,+186,-23
102083,9.055,-1.369,3.487,-0.103406,0.084588,-0.126497,100280.16,-85,+186,-23
102093,9.212,-1.637,3.591,-0.133736,0.075010,-0.052002,100280.37,-85,+185,-23
102104,9.249,-1.580,3.567,-0.169387,0.055322,0.008126,100278.96,-85,+185,-21
102113,9.053,-1.467,3.770,-0.142250,0.034569,0.066126,100278.96,-85,+186,-21
102123,9.045,-1.675,3.694,-0.069351,-0.003743,0.110824,100281.65,-85,+186,-21
102133,9.044,-2.135,3.485,-0.021461,-0.038330,0.172016,100281.27,-86,+185,-22
102144,8.978,-2.398,3.492,-0.035296,-0.043119,0.207668,100282.43,-87,+183,-21
102153,8.798,-2.704,3.365,-0.099681,-0.047376,0.206603,100282.05,-87,+184,-21
102163,8.849,-2.666,3.276,-0.153424,-0.051632,0.223631,100282.05,-87,+184,-21
102169,8.921,-2.454,3.291,-0.181094,-0.049504,0.231613,100282.83,-87,+183,-21
102178,8.887,-2.397,3.250,-0.183222,-0.047376,0.234805,100282.83,-88,+182,-21
102189,8.818,-2.439,3.151,-0.164066,-0.044715,0.248108,100282.42,-88,+182,-21
102199,8.873,-2.330,3.187,-0.138525,-0.037265,0.270457,100281.47,-89,+181,-20
102208,9.108,-1.883,3.165,-0.111387,-0.027687,0.284291,100277.19,-89,+180,-20
102218,9.231,-1.673,3.345,-0.090103,-0.014385,0.287484,100279.06,-91,+180,-20
102228,9.086,-2.086,3.194,-0.060837,-0.020770,0.295998,100281.88,-91,+180,-20
102239,9.090,-2.069,3.336,-0.016672,-0.021302,0.314090,100279.27,-91,+179,-20
102248,9.002,-2.424,3.461,-0.034763,-0.025027,0.316218,100279.27,-92,+178,-21
102258,8.976,-3.004,3.266,-0.052323,-0.023963,0.311961,100276.81,-92,+176,-20
102268,8.794,-3.003,3.275,-0.089571,-0.021302,0.322071,100276.81,-92,+176,-20
102279,8.745,-2.906,3.197,-0.143846,-0.016513,0.310897,100281.10,-92,+176,-20
102288,8.850,-2.922,3.102,-0.156084,-0.023431,0.318879,100282.40,-94,+174,-20
102298,9.026,-3.007,3.031,-0.169387,-0.028752,0.348145,100278.96,-95,+174,-18
102308,9.157,-2.824,2.912,-0.188543,-0.027687,0.377943,100276.24,-95,+174,-18
102319,9.146,-2.452,3.080,-0.198121,-0.029816,0.418915,100276.24,-96,+172,-18
102329,9.088,-1.853,3.328,-0.177369,-0.033009,0.484365,100282.70,-96,+170,-18
102338,9.005,-1.586,3.524,-0.131075,-0.038330,0.553007,100280.04,-98,+168,-18
102348,9.024,-1.795,3.641,-0.084250,-0.043651,0.609943,100281.34,-98,+168,-18
102359,9.065,-2.491,3.469,-0.079993,-0.052164,0.665282,100281.34,-99,+166,-18
102368,8.835,-2.667,3.395,-0.107662,-0.070256,0.713704,100281.34,-100,+165,-18
102378,8.593,-2.209,3.467,-0.145442,-0.075577,0.774897,100281.53,-104,+162,-17
102388,8.865,-2.518,3.058,-0.140121,-0.065467,0.842475,100280.17,-104,+162,-17
102398,9.311,-3.605,2.702,-0.132672,-0.062275,0.902071,100278.02,-104,+160,-16
102404,9.364,-3.989,2.721,-0.148103,-0.069724,0.935062,100279.02,-107,+156,-17
102413,9.017,-3.709,2.861,-0.217277,-0.069192,0.957942,100279.02,-107,+156,-17
102423,8.885,-3.447,3.224,-0.329552,-0.057486,1.006896,100281.27,-109,+154,-16
102433,9.096,-3.248,3.349,-0.412561,-0.059614,1.061704,100281.27,-111,+151,-16
102444,9.106,-2.901,3.456,-0.466837,-0.065999,1.090438,100280.16,-113,+145,-15
102453,9.161,-3.308,3.307,-0.486525,-0.073449,1.130346,100280.31,-113,+145,-15
102463,9.418,-4.032,3.007,-0.507809,-0.118146,1.181428,100280.31,-115,+142,-15
102473,9.370,-4.218,2.963,-0.579644,-0.167632,1.214419,100280.44,-118,+136,-14
102483,9.087,-4.268,2.924,-0.669038,-0.193706,1.237832,100278.98,-120,+132,-13
102494,8.975,-4.180,3.096,-0.729699,-0.221375,1.277208,100283.84,-120,+132,-13
102503,9.203,-4.404,3.183,-0.792488,-0.257027,1.321373,100278.50,-122,+127,-12
102513,9.567,-4.517,2.967,-0.861130,-0.305449,1.360217,100278.50,-126,+123,-12
102523,9.953,-4.779,2.519,-0.926579,-0.332586,1.408107,100282.60,-127,+115,-11
102534,10.040,-4.353,2.481,-0.959038,-0.351742,1.445355,100282.65,-127,+115,-11
102543,10.451,-4.450,2.465,-0.949460,-0.365577,1.451740,100281.55,-130,+110,-11
102553,11.180,-5.088,2.176,-0.951056,-0.405485,1.494309,100282.45,-133,+105,-11
102563,11.724,-5.349,1.889,-1.020763,-0.454439,1.538474,100282.45,-136,+97,-11
102574,12.035,-4.765,1.748,-1.138891,-0.508715,1.574658,100285.88,-136,+97,-11
102583,12.698,-3.935,2.157,-1.196359,-0.588531,1.654474,100277.99,-140,+91,-10
102593,13.415,-2.953,2.505,-1.153790,-0.679522,1.781648,100277.88,-141,+83,-12
102603,13.610,-2.528,2.892,-0.994157,-0.768916,1.890731,100277.35,-144,+75,-12
102614,14.024,-4.043,2.006,-0.781313,-0.840219,1.980657,100277.35,-144,+75,-12
102624,14.455,-4.604,1.785,-0.713735,-0.862568,2.015244,100279.93,-149,+68,-14
102633,13.775,-3.681,2.492,-0.827075,-0.879595,1.997153,100281.76,-150,+60,-17
102643,13.330,-2.354,3.287,-0.902634,-0.866825,2.015244,100277.59,-153,+52,-19
102653,13.791,-1.488,4.402,-0.870708,-0.827981,2.073776,100276.63,-153,+52,-19
102664,14.196,-0.994,5.581,-0.827075,-0.753485,2.136565,100276.63,-155,+43,-20
102673,14.131,-0.823,6.215,-0.818561,-0.662494,2.230749,100277.91,-156,+34,-23
102683,13.332,-1.925,6.176,-0.799937,-0.597045,2.358455,100279.64,-158,+25,-23
102693,12.840,-5.091,5.894,-0.638176,-0.557137,2.550015,100279.58,-158,+25,-23
102704,13.997,-6.903,5.108,-0.480139,-0.497008,2.846932,100276.50,-160,+17,-23
102713,14.854,-5.749,4.769,-0.460451,-0.451247,2.986877,100276.50,-160,+5,-25
102723,13.888,-4.554,5.225,-0.636047,-0.461357,2.850125,100280.55,-160,-5,-26
102733,12.199,-3.894,5.801,-0.700965,-0.597045,2.685703,100277.00,-160,-5,-26
102744,11.321,-3.633,5.510,-0.561552,-0.718898,2.615996,100279.41,-161,-15,-28
102754,10.914,-3.396,5.061,-0.347112,-0.810953,2.546290,100275.22,-160,-25,-30
102759,9.764,-3.505,5.287,-0.088506,-0.862568,2.420712,100275.22,-160,-25,-30
102768,8.264,-3.034,4.390,0.258429,-0.866292,2.294602,100275.22,-160,-33,-33
102778,8.057,-2.202,2.638,0.574502,-0.891302,2.081226,100278.35,-160,-39,-35
102789,7.770,-4.159,2.307,0.675603,-0.956219,1.710878,100277.57,-160,-43,-37
102799,5.025,-8.600,3.664,0.865566,-0.933338,1.376181,100281.13,-160,-43,-37
102808,5.684,-4.409,3.177,1.028392,-0.826384,1.320309,100278.07,-161,-47,-38
102818,6.777,-1.076,2.332,0.684117,-0.806696,0.911649,100280.41,-160,-50,-40
102829,5.549,-0.268,2.061,0.443603,-0.889173,0.189576,100279.37,-160,-48,-43
102839,4.463,0.765,1.853,0.511713,-0.956751,-0.247286,100279.37,-160,-48,-43
102848,3.238,-0.106,1.757,0.722961,-1.026457,-0.495249,100279.68,-163,-47,-45
102858,2.101,-1.573,1.894,0.995401,-1.059448,-0.796424,100279.48,-164,-44,-48
102868,1.729,-2.652,1.866,1.085860,-1.007834,-1.215726,100279.48,-165,-38,-51
102879,1.943,-2.907,1.711,1.017218,-0.972714,-1.641946,100281.44,-165,-38,-51
102888,2.257,-2.343,1.602,0.933144,-0.997724,-2.028258,100279.92,-167,-29,-54
102898,2.655,-1.577,1.418,0.941126,-1.040292,-2.367743,100277.16,-168,-20,-57
102908,3.230,-1.160,1.398,1.089052,-1.080733,-2.674239,100276.16,-170,-9,-60
102919,3.916,-1.146,1.296,1.313071,-1.140861,-2.959982,100276.16,-170,-9,-60
102929,4.483,-1.374,1.478,1.567419,-1.197797,-3.214330,100276.29,-171,+2,-65
102938,4.803,-1.907,1.895,1.834006,-1.242494,-3.433559,100274.24,-171,+17,-69
102948,5.110,-2.515,2.265,2.068134,-1.269099,-3.645871,100274.93,-171,+32,-75
102959,5.527,-3.036,2.838,2.219254,-1.269099,-3.877339,100274.93,-171,+32,-75
102969,6.298,-3.490,3.285,2.319822,-1.259521,-4.091247,100274.93,-170,+47,-80
102978,7.220,-3.926,3.856,2.406024,-1.245155,-4.249816,100277.76,-168,+65,-87
102988,8.113,-4.443,4.548,2.527345,-1.218549,-4.349853,100279.12,-163,+82,-93
102999,9.126,-5.091,5.125,2.634299,-1.178641,-4.419027,100274.62,-163,+82,-93
103009,10.191,-5.769,5.581,2.670483,-1.133944,-4.465852,100273.57,-157,+99,-100
103019,10.901,-6.234,5.900,2.582152,-1.120109,-4.489797,100273.57,-151,+115,-108
103028,10.943,-6.339,6.350,2.366648,-1.121705,-4.512146,100278.70,-144,+132,-116
103038,10.786,-6.238,6.775,2.122410,-1.082861,-4.552586,100273.76,-144,+132,-116
103049,10.982,-6.418,7.285,1.915419,-0.963136,-4.585577,100278.63,-136,+148,-122
103059,11.341,-6.674,7.745,1.746740,-0.815742,-4.618568,100278.63,-127,+163,-128
103068,11.487,-7.285,7.793,1.588704,-0.637485,-4.656348,100277.93,-115,+178,-133
103078,11.446,-7.625,7.378,1.401401,-0.435284,-4.716476,100277.93,-115,+178,-133
103089,11.273,-7.328,6.767,1.216759,-0.208073,-4.767559,100277.09,-105,+191,-138
103099,11.363,-7.131,6.246,1.081071,0.037762,-4.806403,100275.26,-92,+205,-141
103108,11.888,-7.329,5.779,0.941126,0.235175,-4.802678,100277.40,-78,+216,-143
103114,12.165,-7.583,5.438,0.779897,0.342129,-4.801082,100277.40,-78,+216,-143
103123,12.317,-7.832,5.074,0.573970,0.420881,-4.778733,100280.84,-64,+229,-145
103134,12.479,-7.795,4.558,0.305787,0.512936,-4.712219,100279.17,-50,+240,-145
103144,13.013,-7.142,3.827,0.095603,0.579982,-4.609522,100275.20,-50,+240,-145
103153,13.568,-6.238,2.981,-0.031571,0.579982,-4.466917,100274.69,-36,+248,-143
103163,13.909,-5.024,2.578,-0.026782,0.498569,-4.270568,100274.69,-23,+257,-143
103174,13.894,-3.432,2.960,0.187658,0.395340,-4.003449,100280.34,-9,+264,-144
103184,13.312,-2.549,3.760,0.592594,0.334679,-3.689504,100280.25,-9,+264,-144
103193,12.390,-3.226,3.965,1.050740,0.343193,-3.362789,100276.95,+3,+269,-147
103203,11.592,-5.125,3.343,1.346593,0.385762,-3.037670,100277.27,+14,+274,-151
103214,10.576,-7.215,2.255,1.329034,0.400129,-2.702441,100277.27,+23,+276,-155
103224,9.105,-8.349,1.603,1.082667,0.396936,-2.309744,100278.78,+23,+276,-155
103233,7.881,-9.023,1.599,0.703273,0.421413,-1.888845,100277.31,+30,+277,-157
103243,6.819,-9.518,1.782,0.165842,0.437909,-1.432827,100280.56,+36,+280,-158
103254,6.054,-8.889,2.331,-0.478543,0.459193,-0.923598,100277.42,+40,+280,-156
103264,6.206,-6.949,3.306,-0.955845,0.485798,-0.355837,100277.42,+40,+280,-156
103274,6.938,-5.045,4.187,-1.076102,0.509211,0.247576,100280.59,+40,+281,-152
103283,7.453,-4.093,4.569,-0.907956,0.525707,0.822254,100279.75,+36,+281,-149
103293,7.603,-4.394,4.341,-0.565277,0.536881,1.341061,100280.33,+31,+281,-147
103304,7.629,-5.488,3.826,-0.196525,0.561890,1.842309,100278.81,+31,+281,-147
103314,8.007,-6.803,3.262,0.067934,0.605523,2.319079,100278.81,+23,+278,-145
103323,9.213,-6.992,2.633,0.202558,0.625211,2.748492,100280.91,+14,+275,-145
103333,13.534,1.259,-0.511,0.040796,0.513468,2.973574,100279.34,+3,+272,-144
103344,16.738,12.970,-1.119,-0.368396,0.266569,2.645262,100283.63,+3,+272,-144
103349,18.656,23.396,-2.063,-0.310928,0.133542,2.079098,100282.84,-5,+267,-142
103359,18.246,23.719,-5.212,-0.236965,0.037230,1.499630,100282.84,-10,+266,-142
103368,14.909,10.714,-3.078,1.225805,-0.242660,1.635318,100282.84,-10,+266,-142
103378,12.674,-2.633,1.472,3.481418,-0.416660,2.598969,100279.45,-16,+261,-150
103389,12.956,-8.287,0.592,4.313638,-0.523614,3.498234,100282.01,-28,+252,-165
103399,12.621,-9.133,-0.696,3.533565,-0.343761,3.477482,100280.46,-38,+243,-174
103409,11.183,-8.029,1.494,2.407088,0.047872,2.966657,100280.46,-38,+243,-174
103418,9.412,-4.429,5.138,1.611052,0.358624,2.785207,100281.13,-47,+235,-179
103429,7.544,-2.102,6.341,1.199199,0.504422,2.666547,100281.13,-56,+227,-181
103439,6.074,-2.661,9.110,1.101823,0.639578,2.401024,100276.25,-64,+222,-182
103449,7.187,-2.927,9.773,1.097566,0.805596,2.257886,100276.78,-64,+222,-182
103458,9.618,-3.879,7.774,0.731475,0.738551,2.278639,100280.28,-70,+215,-182
103469,9.565,-5.601,5.939,0.306851,0.574661,2.150400,100280.28,-76,+210,-181
103479,8.504,-6.372,4.229,-0.169919,0.489523,1.910951,100281.41,-83,+205,-180
103489,8.631,-6.900,1.942,-0.667974,0.455468,1.726841,100280.27,-83,+205,-180
103499,9.735,-6.886,0.506,-1.029276,0.452276,1.531025,100278.13,-87,+202,-177
103508,10.841,-5.566,0.475,-1.165497,0.461321,1.409703,100276.77,-92,+199,-173
103519,10.891,-3.860,0.856,-1.083020,0.461321,1.289979,100282.56,-94,+196,-169
103529,10.311,-2.908,1.205,-0.782378,0.467175,1.184089,100282.03,-94,+196,-169
103539,9.590,-2.388,1.739,-0.410433,0.486331,1.118107,100281.94,-98,+193,-167
103548,8.813,-2.773,2.370,-0.101809,0.504422,1.045740,100281.94,-102,+191,-165
103559,8.622,-3.459,3.228,0.006209,0.535285,0.937190,100279.94,-105,+188,-164
103569,8.909,-3.995,4.051,-0.117240,0.532624,0.823851,100279.94,-105,+188,-164
103579,8.968,-4.033,4.627,-0.460983,0.458661,0.685502,100278.02,-106,+185,-161
103584,8.827,-3.764,4.885,-0.807919,0.371927,0.590254,100281.63,-108,+185,-159
103593,8.725,-3.338,4.618,-1.110157,0.310202,0.499264,100280.89,-108,+185,-159
103604,9.051,-2.177,4.466,-1.303313,0.247945,0.424768,100276.45,-110,+183,-155
103614,9.256,-1.131,3.869,-1.262341,0.192074,0.407209,100276.45,-110,+183,-152
103624,9.318,-0.891,3.367,-1.045240,0.159083,0.410934,100281.97,-112,+183,-149
103633,9.451,-0.894,2.972,-0.762690,0.143652,0.431154,100280.03,-112,+183,-149
103644,9.273,-1.635,2.661,-0.541332,0.150569,0.442860,100282.44,-113,+182,-147
103654,9.161,-2.230,2.645,-0.430121,0.165468,0.439135,100283.38,-114,+181,-147
103664,9.021,-2.864,2.533,-0.412029,0.179835,0.425833,100283.38,-115,+180,-143
103673,9.106,-3.366,2.423,-0.471093,0.213890,0.400291,100279.98,-115,+180,-143
103684,9.279,-3.372,2.657,-0.577515,0.284129,0.391245,100279.45,-117,+180,-142
103694,9.059,-3.046,2.956,-0.736084,0.341065,0.370493,100281.49,-118,+178,-140
103704,8.969,-2.438,3.543,-0.865032,0.358802,0.361447,100278.20,-118,+176,-137
103713,9.002,-1.821,3.595,-0.894653,0.345322,0.373686,100278.20,-118,+176,-137
103724,9.116,-1.433,3.449,-0.807387,0.314991,0.416787,100278.46,-119,+176,-135
103734,9.181,-1.102,3.803,-0.647222,0.235707,0.463080,100278.77,-120,+175,-133
103744,8.877,-1.052,3.698,-0.515259,0.097358,0.532255,100276.95,-122,+174,-132
103754,8.426,-2.100,3.341,-0.320506,0.079267,0.579612,100276.46,-122,+174,-132
103763,8.423,-3.241,3.161,-0.210360,0.100019,0.598236,100276.46,-123,+172,-130
103774,8.681,-3.903,2.772,-0.305075,0.106404,0.566842,100281.18,-124,+170,-130
103784,9.100,-3.969,2.568,-0.493974,0.126624,0.547154,100279.82,-126,+169,-127
103794,9.219,-3.556,2.756,-0.650414,0.155890,0.538640,100281.76,-126,+169,-127
103803,9.238,-2.896,2.839,-0.739277,0.165468,0.555135,100280.18,-127,+167,-126
103814,9.103,-2.208,3.033,-0.764818,0.166533,0.599832,100280.18,-128,+165,-125
103824,8.965,-1.434,3.300,-0.725974,0.156955,0.682309,100282.25,-131,+164,-122
103834,8.678,-0.871,3.580,-0.614231,0.128221,0.818530,100282.61,-131,+164,-122
103843,8.550,-0.695,3.645,-0.413626,0.094698,0.964860,100283.50,-133,+161,-120
103854,8.649,-0.882,3.728,-0.200250,0.033505,1.131410,100276.44,-134,+157,-121
103864,8.678,-1.644,3.657,0.008870,-0.026623,1.287850,100276.44,-136,+152,-120
103874,8.945,-3.198,3.266,0.123805,-0.050568,1.398529,100282.46,-140,+152,-120
103883,9.424,-4.910,2.774,0.020576,-0.058018,1.451740,100280.15,-140,+148,-120
103894,9.727,-5.296,2.973,-0.243883,-0.009596,1.479942,100281.51,-142,+143,-120
103904,9.778,-4.862,3.017,-0.521112,0.030313,1.500162,100280.05,-145,+138,-120
103914,9.914,-3.858,3.289,-0.696176,0.037762,1.554437,100280.05,-148,+133,-117
103924,10.055,-3.094,3.675,-0.722249,0.012221,1.635318,100283.64,-148,+133,-117
103933,10.151,-2.891,3.683,-0.661589,-0.049504,1.730034,100279.88,-151,+128,-117
103940,10.262,-3.225,3.523,-0.588690,-0.091008,1.808786,100281.14,-151,+128,-117
103949,10.665,-3.517,3.212,-0.548249,-0.120275,1.881685,100281.14,-154,+119,-115
103959,11.333,-4.287,2.845,-0.500359,-0.178807,1.954052,100280.14,-156,+114,-115
103969,11.809,-5.379,2.228,-0.456194,-0.209137,2.020566,100280.14,-159,+107,-115
103980,12.055,-6.350,2.266,-0.550910,-0.229357,2.033868,100284.90,-159,+107,-115
103989,12.109,-6.228,2.149,-0.766946,-0.261284,2.013648,100280.63,-163,+100,-115
103999,12.473,-5.877,2.116,-0.988836,-0.276183,2.001942,100282.32,-165,+93,-115
104009,12.957,-5.721,2.493,-1.219240,-0.307577,1.991300,100282.32,-166,+86,-115
104018,13.824,-5.035,2.675,-1.424102,-0.325669,1.980657,100282.32,-166,+86,-115
104029,15.137,-3.625,3.184,-1.625772,-0.345889,2.025355,100285.11,-169,+78,-113
104039,16.391,-1.269,4.284,-1.839680,-0.391118,2.119538,100277.67,-170,+71,-113
104049,17.091,0.863,4.864,-1.874799,-0.427302,2.274914,100279.67,-172,+63,-113
104058,17.425,1.307,3.796,-1.734854,-0.388458,2.457428,100279.98,-172,+63,-113
104069,17.006,0.658,2.547,-1.644928,-0.317687,2.557997,100279.98,-174,+54,-113
104079,16.165,-0.139,1.890,-1.758799,-0.204880,2.501593,100279.97,-176,+44,-113
104089,15.045,-1.193,2.258,-1.925882,-0.144752,2.430822,100281.02,-177,+35,-112
104099,13.847,-2.932,3.220,-1.843937,-0.201155,2.455299,100279.80,-178,+35,-112
104109,13.791,-5.358,4.178,-1.442726,-0.274586,2.608015,100279.80,-178,+25,-112
104119,16.036,-5.181,5.540,-1.029809,-0.244788,2.787336,100278.25,-179,+16,-113
104129,17.078,-3.617,7.533,-0.828671,-0.257559,2.790528,100276.00,-178,+5,-113
104139,14.599,-3.150,8.059,-0.765350,-0.414531,2.702198,100276.00,-178,+165,-115
104148,11.291,-3.848,7.749,-0.688194,-0.617265,2.540969,100277.63,-178,-3,-115
104159,9.515,-3.529,7.350,-0.403515,-0.773705,2.363244,100277.25,-178,-13,-117
104169,8.799,-2.136,7.169,-0.120433,-0.838623,2.072180,100277.25,-177,-20,-119
104179,8.983,-0.905,4.682,0.117952,-0.932806,1.771538,100280.24,-177,-27,-122
104189,8.982,-2.872,2.715,0.407420,-1.078604,1.627869,100280.18,-177,-27,-122
104199,5.970,-10.757,4.591,0.717108,-1.081265,1.483135,100274.90,-175,-31,-125
104209,5.355,-12.973,4.471,0.775640,-0.924825,1.293704,100275.95,-174,-37,-127
104219,6.490,-7.197,4.311,0.486704,-0.750293,1.040419,100282.84,-174,-40,-131
104229,5.219,-3.024,3.254,-0.045938,-0.849265,0.361447,100275.62,-174,-40,-131
104239,3.280,-1.093,2.770,-0.291772,-0.822659,-0.323378,100280.32,-173,-39,-133
104249,2.792,-0.207,1.962,-0.068818,-0.874806,-0.435653,100277.45,-173,-37,-136
104259,2.275,-0.695,1.511,0.352080,-0.978036,-0.513341,100277.45,-173,-35,-139
104269,1.670,-1.640,1.298,0.710722,-1.035503,-0.833139,100277.45,-173,-35,-139
104279,1.619,-2.495,1.258,0.880997,-1.005173,-1.297671,100280.30,-173,-31,-142
104289,1.968,-2.908,1.489,0.949640,-0.954623,-1.752625,100279.41,-173,-25,-145
104295,2.275,-2.785,1.694,0.989548,-0.911522,-2.045817,100276.48,-173,-25,-145
104304,2.512,-2.507,1.855,1.017750,-0.855650,-2.333688,100272.81,-173,-18,-148
104314,2.813,-2.350,1.924,1.051273,-0.768916,-2.676367,100272.81,-172,-7,-150
104324,3.145,-2.211,2.059,1.107144,-0.708788,-2.971156,100280.84,-172,-7,-150
104334,3.468,-2.003,2.027,1.195474,-0.653449,-3.201027,100278.90,-173,+2,-153
104344,3.983,-1.922,2.067,1.316263,-0.592256,-3.386734,100274.40,-172,+15,-155
104354,4.663,-2.311,2.134,1.501437,-0.555008,-3.528275,100274.04,-171,+26,-158
104364,5.336,-3.000,2.151,1.692997,-0.541173,-3.675137,100274.04,-171,+26,-158
104374,5.620,-3.545,2.450,1.815914,-0.546494,-3.815082,100280.89,-168,+39,-160
104384,5.687,-3.862,2.851,1.868593,-0.560329,-3.942789,100277.64,-166,+52,-164
104394,5.796,-3.967,3.376,1.931382,-0.569907,-4.025797,100277.44,-163,+66,-168
104404,5.958,-4.163,3.902,2.044722,-0.560861,-4.100293,100278.95,-158,+79,-172
104414,6.317,-4.519,4.448,2.171896,-0.545430,-4.181174,100278.95,-158,+79,-172
104424,7.013,-4.907,4.818,2.243198,-0.528935,-4.285999,100275.50,-153,+92,-176
104434,7.678,-5.179,5.091,2.206483,-0.505522,-4.402531,100279.11,-146,+105,-180
104444,7.939,-5.255,5.341,2.076648,-0.478917,-4.504164,100278.84,-139,+119,-185
104454,8.119,-5.369,5.526,1.906373,-0.423577,-4.585577,100277.28,-139,+119,-185
104464,8.212,-5.605,5.593,1.715346,-0.342696,-4.657412,100277.28,-132,+132,-190
104474,8.355,-6.076,5.430,1.545070,-0.237871,-4.747870,100278.34,-122,+145,-192
104484,8.705,-6.587,5.279,1.319988,-0.099522,-4.842586,100280.90,-112,+159,-196
104494,9.439,-7.060,5.302,1.042759,0.061707,-4.900586,100280.52,-112,+159,-196
104504,10.298,-7.274,5.225,0.813420,0.211762,-4.967100,100274.77,-102,+172,-198
104514,11.143,-7.370,5.088,0.651126,0.327230,-5.037338,100274.77,-90,+185,-198
104524,12.017,-7.724,4.477,0.547897,0.404918,-5.067136,100278.47,-78,+198,-200
104535,13.009,-8.125,3.975,0.475530,0.464514,-5.067668,100279.20,-78,+198,-200
104544,13.590,-8.471,3.491,0.421787,0.469303,-5.026164,100278.27,-66,+211,-200
104554,13.682,-8.624,3.293,0.426576,0.429927,-4.945816,100278.11,-52,+221,-200
104564,13.837,-8.381,3.084,0.467016,0.376184,-4.796824,100278.11,-37,+230,-200
104574,14.222,-8.028,3.190,0.559071,0.283597,-4.556843,100281.68,-37,+230,-200
104584,14.424,-7.473,3.495,0.750098,0.175046,-4.229596,100279.54,-24,+238,-202
104594,14.195,-6.857,4.057,1.102887,0.086716,-3.796458,100276.24,-11,+243,-207
104604,13.414,-6.508,4.647,1.625951,0.042019,-3.292018,100276.93,-1,+246,-211
104614,12.033,-7.846,4.721,2.165510,0.046276,-2.737028,100276.93,-1,+246,-211
104624,10.183,-10.753,3.741,2.492226,0.073946,-2.115524,100283.02,+5,+246,-218
104634,7.975,-13.903,2.554,2.473070,0.108001,-1.400368,100281.61,+10,+244,-226
104644,6.200,-15.649,1.857,2.144758,0.169193,-0.575066,100280.45,+12,+242,-231
104649,5.523,-15.630,1.821,1.764300,0.228257,0.108163,100278.16,+12,+242,-231
104659,5.662,-14.419,2.112,1.418428,0.249542,0.825979,100278.16,+8,+239,-234
104670,6.636,-12.527,2.732,1.211438,0.230918,1.777391,100278.16,+3,+234,-238
104679,7.778,-11.024,3.640,1.305621,0.155890,2.680382,100282.22,+3,+234,-238
104689,9.244,-8.902,4.289,1.621162,0.116514,3.498234,100280.59,-7,+227,-240
104699,15.432,6.145,1.976,1.480685,0.100019,3.867518,100277.70,-19,+217,-245
104710,23.391,31.791,-2.952,0.352080,0.093101,2.706987,100277.70,-25,+213,-244
104719,23.387,35.685,-7.741,-0.834524,0.123432,0.836089,100283.66,-25,+213,-244
104729,13.548,9.547,-1.597,0.953897,-0.118678,0.792988,100283.66,-27,+213,-244
104739,9.574,-14.368,6.704,3.745876,-0.048972,2.103043,100283.02,-32,+204,-252
104750,13.285,-14.999,-1.258,4.241803,-0.309173,3.969151,100278.63,-41,+186,-261
104759,12.929,-6.471,-3.888,2.195309,-0.058550,3.307739,100280.36,-41,+186,-261
104769,12.450,-2.712,-0.224,1.260392,0.398532,2.427097,100280.36,-48,+178,-263
104779,10.689,-3.177,4.698,1.466850,0.476220,2.867684,100285.44,-55,+169,-265
104790,7.423,-4.182,5.037,1.764832,0.408643,2.975703,100278.91,-62,+158,-267
104800,6.383,-5.264,6.295,1.440245,0.634257,2.425501,100281.20,-62,+158,-267
104809,7.390,-5.977,10.271,0.944319,0.923193,2.161042,100279.85,-69,+151,-266
104819,10.958,-5.483,8.819,0.363255,1.064734,2.167960,100280.84,-74,+144,-264
104829,12.475,-6.538,5.432,-0.531754,0.807725,2.179666,100281.52,-79,+140,-262
104840,8.909,-6.090,4.403,-0.987240,0.626275,1.822089,100279.95,-79,+140,-262
104849,7.208,-3.708,3.758,-1.241056,0.644367,1.623080,100279.95,-84,+137,-259
104859,8.565,-2.285,2.805,-1.214983,0.583175,1.581575,100280.37,-89,+137,-255
104869,9.938,-2.197,2.460,-0.890396,0.494312,1.455997,100280.37,-92,+135,-253
104880,10.363,-2.642,2.350,-0.539736,0.402257,1.341061,100281.79,-92,+135,-253
104885,10.144,-3.048,2.058,-0.347112,0.353835,1.261777,100280.48,-95,+132,-251
104894,9.819,-3.268,1.949,-0.235901,0.342129,1.179300,100280.90,-98,+129,-250
104904,9.431,-3.050,2.034,-0.153956,0.345322,1.092566,100282.93,-98,+129,-250
104914,9.230,-2.951,2.543,-0.113516,0.337872,1.000511,100282.93,-101,+127,-249
104925,9.281,-3.228,2.805,-0.184286,0.316055,0.894621,100283.19,-102,+124,-247
104934,9.434,-3.299,3.179,-0.323699,0.257523,0.788731,100281.16,-104,+123,-247
104944,9.226,-2.941,3.366,-0.513130,0.188881,0.679649,100282.36,-104,+123,-247
104954,8.850,-2.403,3.386,-0.632323,0.158551,0.605154,100275.77,-105,+123,-245
104965,8.781,-1.427,3.106,-0.617956,0.160679,0.557264,100275.77,-106,+123,-244
104974,8.927,-1.142,2.553,-0.524836,0.176643,0.539172,100286.12,-108,+122,-243
104984,9.205,-1.410,2.009,-0.371057,0.197395,0.548750,100281.46,-108,+122,-243
104994,9.366,-1.734,1.676,-0.227387,0.217083,0.576420,100277.16,-108,+121,-241
105005,9.319,-1.981,1.709,-0.142782,0.221872,0.599300,100281.98,-110,+120,-241
105014,9.291,-2.001,1.961,-0.069351,0.208037,0.615796,100281.98,-111,+118,-241
105024,9.309,-2.057,2.322,-0.009754,0.194202,0.661557,100281.76,-111,+118,-241
105034,9.165,-2.113,2.630,-0.018800,0.198459,0.702530,100281.76,-113,+116,-239
105044,8.909,-2.385,2.826,-0.085314,0.216019,0.724346,100282.27,-115,+113,-239
105055,8.922,-2.356,2.930,-0.178965,0.227193,0.739777,100276.99,-117,+113,-237
105064,8.996,-2.602,2.842,-0.319974,0.252734,0.772768,100276.99,-117,+113,-237
105074,9.234,-3.010,2.637,-0.422671,0.282533,0.827043,100283.66,-118,+111,-236
105084,9.476,-2.946,2.370,-0.497699,0.291046,0.870144,100285.12,-119,+109,-235
105095,9.337,-2.961,2.180,-0.536011,0.305945,0.902071,100282.46,-122,+106,-233
105104,9.208,-3.017,2.084,-0.537075,0.314991,0.946768,100279.99,-122,+106,-233
105114,9.323,-2.987,2.179,-0.530690,0.311266,0.976034,100279.99,-122,+104,-231
105124,9.418,-3.018,2.417,-0.498231,0.303285,0.996254,100284.09,-126,+103,-230
105135,9.439,-3.226,2.806,-0.499295,0.298496,1.041484,100278.13,-127,+100,-229
105144,9.285,-3.339,3.013,-0.533350,0.288386,1.079795,100279.80,-127,+100,-229
105154,8.903,-3.135,2.837,-0.637112,0.261248,1.115979,100281.47,-129,+97,-227
105164,8.865,-2.596,2.788,-0.695112,0.241028,1.170254,100281.47,-131,+95,-225
105175,8.892,-1.977,2.829,-0.657332,0.184092,1.260181,100282.85,-133,+92,-225
105185,8.966,-2.144,2.628,-0.521112,0.134074,1.369263,100280.20,-133,+92,-225
105194,9.136,-2.898,2.420,-0.344451,0.088845,1.457061,100279.30,-134,+88,-224
105204,9.260,-3.900,2.522,-0.268360,0.062239,1.517190,100280.71,-137,+84,-222
105214,9.318,-4.476,2.851,-0.326892,0.028184,1.546456,100280.71,-138,+80,-223
105225,9.160,-4.649,3.196,-0.427460,0.000514,1.553373,100279.80,-138,+80,-223
105234,9.086,-4.762,3.274,-0.506745,-0.010660,1.552309,100281.05,-140,+76,-221
105244,9.438,-4.769,3.161,-0.557827,-0.020238,1.553905,100277.81,-141,+72,-221
105254,9.820,-4.683,2.886,-0.607846,-0.055889,1.569337,100276.81,-142,+67,-220
105265,10.476,-4.265,2.368,-0.617424,-0.102715,1.605520,100276.81,-142,+67,-220
105275,11.054,-4.512,1.866,-0.545057,-0.170293,1.666713,100284.95,-142,+62,-220
105284,11.384,-4.935,1.867,-0.471093,-0.221375,1.754511,100282.79,-144,+58,-221
105294,11.612,-5.194,2.009,-0.479075,-0.258091,1.816768,100280.45,-145,+52,-221
105305,11.921,-5.131,2.443,-0.562616,-0.287357,1.885410,100278.09,-145,+52,-221
105314,12.246,-5.039,2.923,-0.650946,-0.316091,1.962034,100278.09,-146,+47,-222
105324,12.760,-5.066,3.049,-0.767479,-0.333651,2.033336,100283.66,-147,+42,-221
105334,13.487,-4.841,3.328,-0.934561,-0.358128,2.084951,100283.45,-147,+36,-222
105345,14.977,-4.785,3.340,-1.098983,-0.386862,2.126455,100278.69,-147,+36,-222
105355,17.225,-4.105,3.917,-1.309698,-0.391118,2.156254,100277.53,-146,+31,-222
105364,18.852,-3.032,4.108,-1.569900,-0.360256,2.205740,100277.53,-147,+26,-224
105374,19.538,-1.595,3.633,-1.897680,-0.263944,2.272786,100282.48,-146,+22,-224
105384,19.611,1.004,3.341,-2.285056,-0.150073,2.321740,100281.48,-147,+18,-223
105395,19.357,3.802,3.975,-2.567074,-0.070256,2.390382,100278.30,-147,+18,-223
105404,18.696,4.597,5.217,-2.568670,0.002111,2.492015,100279.14,-147,+14,-223
105414,17.758,1.616,5.758,-2.240358,0.015413,2.722418,100279.14,-147,+9,-223
105424,17.544,-3.977,5.659,-1.661955,-0.099522,3.105537,100279.33,-147,+1,-223
105435,18.906,-5.593,6.305,-1.041515,-0.135706,3.433849,100277.77,-147,+1,-223
105445,19.057,-3.783,7.063,-0.893056,-0.113889,3.373188,100277.66,-147,-7,-222
105454,16.251,-1.416,8.067,-1.064396,-0.215522,3.011354,100277.77,-145,-15,-223
105464,12.817,-0.405,7.246,-1.228286,-0.535320,2.757538,100277.77,-143,-23,-226
105475,10.569,-0.326,5.935,-0.930836,-0.868421,2.626639,100281.66,-143,-23,-226
105485,7.611,-1.153,5.127,-0.248672,-1.022201,2.368565,100282.34,-140,-30,-228
105494,7.305,-0.839,2.527,0.432429,-1.081797,2.117942,100278.73,-137,-36,-231
105504,6.929,-4.828,2.519,0.836832,-1.100953,1.771538,100278.57,-133,-43,-232
105515,3.123,-12.747,4.367,1.172594,-0.978036,1.274016,100278.57,-133,-43,-232
105525,4.652,-7.025,3.262,1.219951,-0.885980,1.034566,100277.83,-131,-49,-234
105534,5.143,-2.181,2.897,0.845346,-0.928549,0.491282,100280.34,-129,-52,-235
105544,3.236,0.392,2.152,0.614411,-0.937595,-0.430332,100276.98,-127,-52,-237
105554,2.298,2.287,2.021,0.645805,-0.947705,-0.932644,100278.45,-127,-52,-237
105565,1.949,1.918,2.015,0.932080,-1.066366,-1.068332,100278.45,-126,-50,-239
105575,1.062,0.191,2.086,1.281676,-1.203118,-1.309377,100279.06,-125,-48,-242
105584,0.426,-1.141,2.288,1.509951,-1.253668,-1.691964,100277.23,-123,-46,-244
105594,0.444,-1.898,2.356,1.526447,-1.199925,-2.165542,100280.58,-123,-46,-244
105605,0.925,-2.148,2.423,1.441309,-1.150971,-2.625817,100274.83,-123,-43,-246
105615,1.395,-1.777,2.529,1.343401,-1.117980,-3.047780,100274.83,-122,-35,-249
105624,1.875,-1.505,2.521,1.265181,-1.075412,-3.447394,100276.86,-121,-27,-251
105634,2.513,-1.722,2.483,1.236979,-1.023265,-3.809761,100277.91,-121,-27,-251
105645,3.132,-1.946,2.395,1.259328,-0.965265,-4.115724,100276.28,-121,-19,-254
105655,3.781,-2.212,2.373,1.268373,-0.884384,-4.398807,100277.23,-120,-7,-257
105664,4.585,-2.660,2.422,1.256135,-0.797118,-4.661137,100277.23,-118,+3,-258
105674,5.353,-3.299,2.499,1.232722,-0.689100,-4.905375,100280.18,-118,+3,-258
105684,6.184,-3.728,2.734,1.211970,-0.576293,-5.111301,100274.95,-117,+15,-261
105695,7.228,-4.036,3.188,1.251346,-0.457632,-5.243797,100273.79,-114,+29,-262
105705,8.326,-4.374,3.753,1.351915,-0.345357,-5.317760,100274.01,-111,+40,-264
105714,9.335,-4.763,4.047,1.450355,-0.265541,-5.366714,100274.01,-111,+40,-264
105724,10.147,-5.022,4.375,1.534960,-0.188385,-5.414072,100275.36,-107,+53,-266
105735,11.040,-5.227,4.788,1.639254,-0.103247,-5.439613,100276.88,-103,+64,-268
105745,12.035,-5.673,5.356,1.737694,-0.016513,-5.422585,100277.39,-98,+75,-269
105754,12.902,-6.328,6.101,1.763768,0.045212,-5.393852,100276.14,-98,+75,-269
105764,13.212,-6.941,6.464,1.675437,0.081395,-5.397576,100276.14,-92,+86,-271
105775,13.092,-7.431,6.517,1.470043,0.153762,-5.435356,100276.52,-87,+97,-272
105785,13.156,-7.578,6.523,1.186428,0.271890,-5.462494,100278.66,-80,+107,-273
105794,13.463,-7.153,6.335,0.943254,0.432055,-5.456109,100274.70,-80,+107,-273
105804,14.229,-6.538,6.330,0.813952,0.601266,-5.376292,100278.82,-73,+119,-274
105815,14.996,-6.155,6.415,0.822998,0.734294,-5.249118,100278.82,-67,+130,-274
105825,15.746,-6.028,6.541,0.877805,0.860404,-5.130990,100281.31,-61,+139,-273
105830,16.252,-6.158,6.456,0.902282,0.938092,-5.033082,100275.61,-61,+139,-273
105839,16.597,-6.114,5.732,0.908667,0.990238,-4.929320,100275.61,-54,+148,-273
105849,16.715,-6.818,3.564,0.865566,0.981193,-4.756917,100276.77,-47,+156,-272
105860,16.876,-9.214,1.213,0.719236,0.774734,-4.473302,100277.92,-47,+156,-272
105870,15.627,-7.388,1.835,0.843750,0.479945,-4.023669,100277.92,-39,+164,-274
105880,14.183,-6.916,3.043,1.243896,0.431523,-3.598513,100280.05,-33,+168,-274
105889,11.961,-10.478,4.052,1.612116,0.451211,-3.010532,100279.27,-28,+170,-276
105900,7.812,-14.355,3.060,1.548263,0.456532,-2.430532,100280.05,-28,+170,-276
105910,4.706,-15.073,1.037,1.090117,0.502294,-1.644074,100280.05,-24,+170,-277
105920,4.782,-11.974,0.614,0.651126,0.518789,-0.541543,100280.05,-24,+170,-279
105929,6.592,-8.320,1.292,0.729878,0.421945,0.623777,100283.55,-26,+166,-280
105939,7.778,-7.640,2.432,1.206649,0.275083,1.632125,100279.63,-26,+166,-280
105950,7.809,-9.365,2.879,1.736098,0.145248,2.411666,100280.31,-31,+160,-282
105960,7.366,-10.870,2.351,2.094208,0.105340,2.970914,100280.36,-37,+150,-286
105970,7.459,-11.765,1.726,2.229896,0.169193,3.471097,100280.36,-45,+136,-287
105979,8.976,-10.735,1.809,2.228832,0.255395,3.960106,100282.37,-45,+136,-287
105990,14.826,2.831,0.114,1.684483,0.260716,4.035133,100281.13,-52,+123,-289
106000,19.405,21.445,-1.403,0.454245,0.144716,2.846932,100279.07,-57,+114,-291
106010,19.378,26.810,-5.927,-0.335405,0.048936,1.229318,100279.07,-59,+112,-290
106020,13.847,8.906,-3.277,0.761273,-0.222972,1.133539,100280.43,-59,+112,-290
106030,13.177,-8.826,1.600,2.839161,-0.194238,2.245648,100280.43,-61,+105,-292
106040,16.144,-13.153,-1.055,3.377124,-0.361852,3.619023,100277.82,-64,+88,-296
106050,12.850,-9.181,-1.798,2.133052,-0.184660,3.177372,100279.49,-67,+74,-298
106059,11.738,-4.723,0.822,1.173126,0.298496,2.529263,100275.10,-67,+74,-298
106065,11.602,-3.003,5.297,1.006575,0.507083,2.738914,100275.10,-70,+66,-296
106075,9.341,-3.638,10.825,1.387566,0.596477,2.954950,100280.30,-75,+55,-296
106085,8.557,-4.295,10.214,1.996832,0.891266,2.717097,100281.56,-75,+55,-296
106095,11.532,-7.652,5.973,1.673309,1.204147,2.520749,100280.05,-79,+43,-293
106104,10.981,-10.222,3.728,0.742117,0.890734,2.645795,100280.92,-83,+33,-291
106115,6.655,-6.272,6.166,0.067934,0.841248,2.322804,100280.92,-85,+28,-289
106125,5.455,-3.410,6.505,-0.688726,0.949266,1.979593,100282.37,-85,+28,-289
106135,6.949,-4.536,3.845,-1.418781,0.776863,1.727905,100281.63,-89,+25,-287
106144,8.629,-5.028,2.510,-1.688028,0.659798,1.542199,100282.10,-91,+26,-285
106155,9.761,-4.025,2.377,-1.719423,0.644367,1.392676,100280.23,-92,+28,-284
106165,10.412,-2.163,2.103,-1.539038,0.627340,1.266034,100280.23,-92,+28,-284
106175,10.648,-0.769,1.654,-1.059075,0.597542,1.170254,100278.71,-94,+27,-282
106185,10.424,-1.219,1.460,-0.485460,0.527835,1.103740,100280.38,-97,+26,-281
106194,9.861,-2.712,1.695,0.022172,0.440569,1.057979,100278.87,-98,+23,-279
106205,9.500,-3.921,2.228,0.253640,0.401193,0.954218,100277.82,-98,+23,-279
106215,9.432,-4.902,2.540,0.162649,0.363413,0.825447,100277.82,-99,+21,-278
106225,9.288,-5.051,3.008,-0.149699,0.324037,0.684970,100283.68,-100,+19,-277
106234,8.950,-4.153,3.522,-0.532286,0.293175,0.559924,100283.84,-101,+19,-277
106245,8.654,-2.654,3.750,-0.811644,0.259120,0.478511,100283.32,-101,+19,-277
106255,8.854,-1.640,3.596,-0.895185,0.227193,0.426365,100282.90,-102,+19,-276
106265,9.148,-1.328,3.152,-0.808451,0.203780,0.390181,100282.90,-103,+20,-275
106274,9.342,-1.467,2.726,-0.640304,0.180900,0.401356,100282.30,-103,+20,-274
106285,9.331,-1.601,2.468,-0.437038,0.169193,0.433282,100280.25,-103,+20,-274
106295,9.183,-1.960,2.406,-0.268360,0.171322,0.462548,100282.30,-103,+20,-274
106305,9.023,-2.345,2.490,-0.187479,0.179835,0.471594,100283.39,-105,+20,-274
106314,9.163,-2.617,2.711,-0.222598,0.179303,0.480108,100283.39,-105,+18,-273
106324,9.278,-2.642,2.902,-0.315717,0.181432,0.479576,100284.48,-105,+18,-273
106335,9.106,-2.326,3.457,-0.424800,0.178239,0.497667,100279.09,-105,+19,-271
106345,9.084,-1.941,3.579,-0.518983,0.154826,0.526401,100277.30,-105,+18,-272
106355,9.000,-1.686,3.632,-0.516323,0.142588,0.555135,100278.09,-105,+19,-271
106364,8.903,-1.785,3.372,-0.492378,0.123964,0.593447,100278.09,-105,+19,-271
106375,8.977,-2.136,3.087,-0.461515,0.134074,0.638676,100282.36,-105,+17,-270
106385,9.045,-2.354,3.013,-0.462580,0.138331,0.676456,100280.11,-106,+17,-271
106395,9.099,-2.464,2.837,-0.453534,0.146312,0.729135,100282.88,-107,+16,-270
106404,9.044,-2.694,2.766,-0.428525,0.154826,0.774897,100276.59,-107,+15,-269
106415,9.153,-2.852,2.730,-0.443956,0.158019,0.816401,100276.59,-107,+15,-269
106421,9.213,-3.015,2.685,-0.465240,0.170789,0.853117,100281.27,-109,+14,-269
106430,9.336,-2.987,2.673,-0.514194,0.176111,0.881851,100281.27,-109,+14,-269
106440,9.434,-2.932,2.669,-0.578580,0.183028,0.928676,100282.79,-109,+12,-269
106450,9.402,-2.397,2.683,-0.622745,0.177175,1.006364,100280.12,-109,+11,-269
106460,9.146,-1.643,2.687,-0.615295,0.172918,1.111722,100281.68,-110,+8,-267
106470,8.854,-1.391,2.703,-0.518983,0.156955,1.246878,100279.63,-110,+8,-267
106480,8.782,-1.476,2.736,-0.399791,0.088312,1.399061,100279.00,-110,+5,-267
106490,8.769,-1.839,2.917,-0.301883,-0.002678,1.541135,100278.58,-110,+3,-267
106500,8.878,-2.932,2.999,-0.158213,-0.008531,1.628933,100278.58,-110,+0,-266
106510,9.263,-4.027,3.105,-0.100745,-0.023431,1.687465,100279.36,-110,+0,-266
106520,9.242,-4.877,3.141,-0.158213,-0.046843,1.717795,100279.36,-109,-5,-267
106530,9.387,-5.334,3.285,-0.332213,-0.054825,1.732694,100281.60,-110,-9,-267
106540,9.962,-4.917,3.330,-0.575387,-0.083027,1.751850,100280.02,-110,-13,-267
106550,10.646,-4.631,2.961,-0.732891,-0.083027,1.761960,100283.12,-110,-13,-267
106560,11.581,-4.446,2.607,-0.829735,-0.142623,1.810914,100280.29,-109,-16,-266
106570,11.921,-4.347,2.309,-0.894653,-0.223504,1.884345,100280.29,-108,-19,-268
106580,11.787,-3.903,2.517,-0.926579,-0.293210,1.992364,100279.77,-106,-23,-269
106590,11.464,-3.259,3.082,-0.888800,-0.374623,2.107299,100281.87,-106,-23,-269
106600,11.492,-3.434,3.237,-0.683405,-0.408146,2.231281,100279.93,-103,-27,-270
106610,12.289,-5.112,2.429,-0.474818,-0.384733,2.331850,100279.93,-102,-31,-271
106619,13.392,-6.563,2.165,-0.563681,-0.352274,2.364308,100279.93,-101,-36,-272
106630,14.802,-6.510,2.145,-0.948928,-0.354403,2.338767,100280.38,-98,-36,-273
106640,16.700,-4.568,2.917,-1.409735,-0.357595,2.331850,100281.69,-98,-39,-273
106650,18.305,-2.120,3.580,-1.762524,-0.345357,2.388253,100280.06,-95,-41,-275
106660,19.039,-0.185,3.500,-1.960469,-0.269265,2.509574,100279.28,-93,-44,-277
106670,20.025,1.356,3.868,-2.166927,-0.122935,2.613868,100279.28,-91,-45,-277
106680,21.064,2.759,5.266,-2.351037,0.006368,2.670804,100278.35,-91,-45,-277
106690,21.002,2.826,6.286,-2.381367,0.073946,2.775097,100277.24,-89,-46,-279
106700,19.451,-1.376,6.711,-2.047735,0.011689,2.992198,100277.62,-87,-48,-281
106711,18.410,-7.019,6.919,-1.386322,-0.116018,3.344455,100277.62,-84,-53,-281
106720,18.524,-6.899,7.008,-0.786635,-0.132513,3.520583,100283.73,-84,-53,-281
106730,16.398,-4.233,7.490,-0.691919,-0.068128,3.230051,100275.15,-81,-60,-282
106740,13.115,-2.216,8.065,-0.821754,-0.117082,2.889501,100275.15,-78,-65,-281
106750,11.333,-1.282,6.862,-0.842506,-0.381008,2.651116,100277.91,-75,-68,-283
106760,9.118,-1.507,6.366,-0.581772,-0.623118,2.456363,100275.82,-75,-68,-283
106770,6.898,-1.668,4.441,-0.128947,-0.716237,2.199887,100275.82,-70,-74,-284
106775,6.804,-1.159,1.541,-0.012947,-0.751889,1.913079,100281.30,-70,-74,-284
106785,6.620,-3.066,0.132,0.097200,-0.873210,1.553373,100279.58,-67,-76,-284
106795,1.162,-12.663,4.019,0.633034,-0.774237,0.940915,100278.22,-63,-81,-286
106805,1.623,-7.956,3.908,0.709658,-0.508715,0.611007,100277.53,-61,-84,-285
106815,4.194,-1.179,1.882,0.175420,-0.631632,0.215649,100277.53,-61,-84,-285
106825,3.054,0.896,1.265,-0.218341,-0.691760,-0.679359,100277.72,-60,-84,-286
106835,2.072,2.854,1.326,-0.104470,-0.699210,-1.247120,100279.03,-59,-81,-287
106845,1.729,3.112,1.294,0.243530,-0.783815,-1.394515,100277.83,-61,-79,-289
106855,1.164,1.214,0.906,0.811823,-0.945577,-1.571707,100273.80,-61,-79,-289
106865,0.625,-0.593,1.051,1.345529,-1.012623,-1.911193,100273.80,-60,-77,-289
106875,0.828,-1.746,1.266,1.555713,-1.009430,-2.320386,100280.59,-60,-77,-289
106885,1.492,-2.206,1.377,1.504630,-1.016347,-2.715211,100274.68,-61,-75,-289
106895,2.139,-1.817,1.673,1.430135,-1.030182,-3.100991,100281.05,-61,-75,-290
106905,2.553,-1.471,2.036,1.413639,-1.021668,-3.476128,100278.91,-61,-72,-290
106915,2.892,-1.410,2.226,1.501437,-1.004641,-3.784220,100278.91,-63,-67,-291
106925,3.359,-1.607,2.339,1.660538,-0.985485,-4.021541,100277.37,-65,-63,-292
106935,3.953,-2.137,2.532,1.824960,-0.957283,-4.224275,100277.79,-67,-58,-292
106945,4.665,-2.654,2.598,1.933511,-0.918439,-4.412109,100276.63,-67,-58,-292
106955,5.624,-3.082,2.842,1.982465,-0.872678,-4.583448,100272.66,-68,-52,-294
106964,6.699,-3.319,3.185,2.051639,-0.850861,-4.691467,100272.66,-70,-47,-294
106975,7.641,-3.742,3.689,2.163914,-0.834366,-4.764898,100277.28,-71,-43,-295
106985,8.418,-4.403,4.136,2.305987,-0.813614,-4.821834,100272.31,-71,-43,-295
106995,9.280,-5.281,4.491,2.369308,-0.779026,-4.904843,100276.81,-73,-37,-296
107005,10.499,-5.986,4.880,2.308116,-0.724751,-4.975614,100276.33,-73,-33,-296
107015,11.350,-6.439,5.586,2.114428,-0.695485,-5.010201,100276.33,-75,-26,-298
107025,11.341,-6.384,6.248,1.843584,-0.702935,-5.057026,100277.84,-75,-26,-298
107035,11.135,-6.150,6.779,1.630208,-0.657705,-5.103852,100275.12,-74,-19,-299
107045,11.357,-6.443,7.307,1.516869,-0.529467,-5.129925,100276.01,-75,-11,-301
107055,11.786,-6.921,7.544,1.417364,-0.356531,-5.161852,100274.43,-74,-2,-302
107065,12.376,-7.222,7.447,1.283805,-0.156458,-5.184201,100274.43,-74,-2,-302
107075,13.001,-7.025,7.097,1.110337,0.043083,-5.167705,100280.97,-75,+5,-302
107085,13.424,-6.573,6.722,0.952300,0.244753,-5.127797,100279.13,-76,+15,-301
107096,13.862,-6.236,6.524,0.819273,0.441633,-5.091081,100272.59,-76,+25,-302
107105,14.505,-6.256,6.280,0.671878,0.616697,-5.036274,100277.52,-76,+25,-302
107115,15.021,-6.486,5.850,0.523420,0.775798,-4.930916,100277.52,-76,+36,-300
107125,15.149,-6.579,5.594,0.444667,0.946073,-4.780861,100281.50,-77,+46,-299
107136,15.164,-6.411,3.725,0.432429,1.083358,-4.558439,100277.84,-76,+56,-298
107145,15.456,-7.941,1.129,0.380814,1.064734,-4.250348,100279.45,-76,+56,-298
107155,15.340,-8.242,0.079,0.432961,0.679486,-3.783155,100280.08,-75,+65,-296
107165,13.666,-5.333,1.720,0.869291,0.435248,-3.244660,100280.08,-75,+72,-296
107175,11.386,-6.961,3.042,1.468447,0.388422,-2.654019,100280.37,-73,+74,-298
107185,8.328,-11.389,3.152,1.855823,0.371395,-1.996331,100282.20,-73,+74,-298
107195,5.334,-14.212,1.649,1.675437,0.344789,-1.244992,100281.30,-73,+72,-298
107205,4.863,-13.259,0.941,1.152906,0.372991,-0.287194,100279.26,-73,+70,-298
107215,6.206,-10.323,2.040,0.800649,0.383633,0.712640,100279.26,-76,+66,-298
107226,7.276,-8.788,3.646,0.825658,0.321909,1.535814,100280.14,-76,+66,-298
107235,7.056,-9.540,4.280,0.979970,0.252202,2.190841,100279.03,-77,+58,-298
107245,6.677,-10.668,4.015,1.078942,0.281468,2.740510,100281.02,-80,+50,-298
107255,7.926,-10.285,3.995,1.072025,0.398000,3.257189,100280.66,-84,+38,-297
107266,13.584,0.230,0.586,0.664961,0.417688,3.507812,100280.66,-84,+38,-297
107275,18.198,16.080,-1.772,-0.175240,0.229854,2.814473,100287.25,-85,+29,-296
107285,20.957,27.433,-6.921,-0.497167,0.069157,1.584768,100282.28,-87,+26,-296
107295,17.303,14.871,-6.087,0.348356,-0.166036,1.314456,100282.84,-86,+21,-296
107305,14.180,-3.524,-1.106,2.973785,-0.339504,2.266400,100281.70,-86,+21,-296
107315,14.821,-11.127,-0.763,4.487105,-0.453375,3.539739,100281.70,-85,+5,-296
107325,14.030,-9.870,-1.669,3.718207,-0.373559,3.819097,100280.73,-85,-17,-296
107335,10.465,-7.701,1.104,2.467749,0.007964,3.027849,100284.13,-84,-31,-294
107345,7.572,-4.101,9.822,1.992575,0.402257,2.739446,100278.48,-84,-31,-294
107356,6.378,-2.041,14.107,2.461895,0.846569,2.777758,100276.38,-84,-43,-291
107366,11.415,-4.682,8.753,2.424116,1.442532,2.623978,100276.38,-86,-57,-286
107375,14.389,-11.562,4.834,1.516337,1.186055,2.818730,100283.38,-87,-68,-282
107385,9.106,-10.797,4.793,0.407420,0.655541,2.708583,100279.92,-87,-68,-282
107396,4.718,-5.567,7.635,-0.754708,0.857743,2.247777,100281.02,-85,-75,-280
107405,5.417,-4.230,6.742,-2.061569,0.971083,1.993960,100281.22,-85,-77,-280
107415,6.784,-4.406,2.655,-2.860266,0.777395,1.713538,100281.22,-86,-74,-282
107425,8.131,-4.293,0.300,-2.670303,0.785376,1.444291,100279.83,-86,-69,-282
107436,11.090,-2.106,-0.592,-2.075404,0.778991,1.277740,100282.66,-86,-69,-282
107445,12.580,-1.159,0.312,-1.352267,0.694918,1.213355,100280.20,-86,-68,-282
107455,11.891,-1.327,1.810,-0.472690,0.586899,1.173447,100278.16,-87,-70,-281
107465,10.369,-2.545,2.429,0.080704,0.467175,1.184621,100278.16,-87,-74,-279
107475,8.991,-4.143,2.280,0.261622,0.402789,1.073410,100284.13,-87,-74,-279
107486,8.655,-4.815,2.388,0.166906,0.395340,0.866952,100281.30,-87,-76,-278
107495,8.995,-5.016,2.732,-0.129479,0.399065,0.685502,100276.53,-87,-79,-277
107505,9.116,-4.773,3.234,-0.470029,0.395872,0.539172,100280.31,-87,-78,-277
107515,9.035,-4.122,3.697,-0.794084,0.364477,0.413594,100280.31,-87,-78,-277
107526,8.972,-2.841,3.797,-0.981919,0.309670,0.337502,100280.65,-89,-76,-277
107535,9.084,-1.914,3.525,-0.972341,0.258056,0.293869,100280.18,-88,-74,-278
107545,9.242,-1.600,3.061,-0.838249,0.216551,0.271521,100280.65,-89,-73,-279
107555,9.393,-1.780,2.448,-0.653075,0.197395,0.268328,100278.77,-89,-73,-279
107566,9.517,-2.106,2.325,-0.491846,0.185689,0.300255,100278.77,-89,-73,-279
107576,9.547,-2.315,2.655,-0.404580,0.158019,0.324732,100282.22,-89,-73,-279
107585,9.175,-2.350,3.003,-0.402983,0.139927,0.324200,100279.28,-89,-72,-279
107595,8.722,-2.381,3.327,-0.501424,0.144716,0.325264,100280.33,-89,-72,-279
107601,8.674,-2.215,3.317,-0.615295,0.147377,0.323135,100279.23,-89,-72,-279
107611,8.780,-1.961,3.536,-0.692983,0.156955,0.324200,100279.23,-89,-72,-279
107620,8.890,-1.397,3.580,-0.734488,0.153762,0.357190,100279.23,-89,-71,-279
107630,8.890,-1.121,3.519,-0.679680,0.146845,0.404016,100283.23,-89,-70,-279
107640,8.841,-1.140,3.579,-0.557827,0.122900,0.460952,100282.34,-89,-70,-281
107651,8.764,-1.388,3.536,-0.437038,0.115450,0.541300,100278.73,-88,-70,-281
107661,8.714,-1.744,3.322,-0.376910,0.116514,0.606218,100278.73,-88,-70,-281
107671,8.686,-1.707,3.313,-0.359882,0.137799,0.676988,100280.23,-88,-71,-280
107680,8.771,-1.682,3.297,-0.341791,0.161744,0.758933,100280.23,-88,-72,-281
107691,8.927,-2.544,2.872,-0.341259,0.164936,0.842475,100281.33,-87,-73,-280
107701,9.324,-2.904,2.552,-0.397130,0.168129,0.915374,100279.19,-87,-73,-280
107710,9.458,-2.734,2.588,-0.515259,0.138863,0.988805,100278.81,-87,-75,-280
107720,9.292,-2.254,2.373,-0.570066,0.085120,1.079263,100278.81,-86,-74,-281
107730,9.088,-1.764,2.508,-0.460983,0.065432,1.177704,100281.10,-84,-77,-281
107741,9.027,-1.598,2.643,-0.262506,0.024459,1.286254,100281.93,-84,-77,-281
107751,8.824,-2.290,2.456,-0.001773,-0.007999,1.378309,100278.27,-84,-80,-281
107760,8.674,-3.289,2.574,0.152539,-0.023963,1.452804,100281.66,-81,-84,-281
107770,8.859,-4.465,2.338,0.130191,-0.040990,1.487924,100282.40,-80,-88,-281
107781,9.334,-5.326,2.231,-0.076268,-0.021834,1.499098,100279.48,-80,-88,-281
107791,9.750,-5.667,2.153,-0.358286,-0.000550,1.487924,100276.80,-78,-90,-281
107800,10.197,-5.088,2.443,-0.620084,0.005303,1.494309,100276.80,-77,-93,-282
107810,10.312,-4.084,2.718,-0.794616,-0.027155,1.536346,100280.51,-73,-94,-283
107821,10.434,-3.267,2.903,-0.861662,-0.094201,1.608713,100280.51,-73,-94,-283
107831,10.706,-2.458,2.933,-0.801534,-0.219247,1.715135,100282.41,-71,-95,-282
107840,10.773,-2.523,3.213,-0.558892,-0.324605,1.828474,100282.41,-67,-97,-285
107850,10.943,-3.588,3.376,-0.271552,-0.397504,1.952456,100280.63,-64,-101,-286
107860,11.070,-4.792,3.749,-0.159809,-0.450715,2.042914,100277.34,-64,-101,-286
107871,11.232,-5.745,3.761,-0.280066,-0.485834,2.081758,100277.34,-59,-105,-286
107881,11.705,-6.123,3.620,-0.544525,-0.465082,2.095061,100278.59,-56,-108,-289
107890,12.364,-5.720,3.501,-0.853148,-0.443265,2.098253,100278.73,-50,-110,-291
107900,13.197,-5.200,3.287,-1.094726,-0.438476,2.112621,100282.49,-50,-110,-291
107911,14.918,-4.856,2.866,-1.295331,-0.462421,2.123795,100282.49,-47,-111,-293
107920,16.739,-3.627,3.182,-1.551276,-0.486898,2.147740,100282.49,-42,-110,-297
107930,18.104,-1.452,3.694,-1.799239,-0.500201,2.232345,100281.57,-36,-109,-301
107940,18.949,0.635,4.239,-1.964725,-0.477320,2.380804,100280.99,-36,-109,-301
107951,18.883,2.327,4.507,-1.991331,-0.434751,2.572896,100277.07,-31,-108,-304
107961,18.664,3.303,5.182,-1.930138,-0.340568,2.749556,100277.13,-25,-107,-307
107970,18.161,3.279,6.769,-1.815735,-0.229357,2.887372,100277.13,-21,-105,-310
107980,16.987,-0.541,7.375,-1.545423,-0.201155,3.115115,100277.66,-21,-105,-310
107991,16.743,-6.336,7.605,-1.115478,-0.227229,3.475886,100280.73,-15,-107,-312
108001,18.886,-7.286,7.753,-0.679680,-0.175082,3.727574,100277.53,-7,-109,-313
108011,19.417,-4.943,8.465,-0.639772,-0.114421,3.534418,100277.53,-1,-112,-314
108020,16.397,-2.174,8.228,-0.730231,-0.127192,3.230051,100278.77,-1,-112,-314
108030,13.253,-1.433,7.187,-0.916469,-0.308641,2.985281,100275.48,+3,-113,-315
108041,10.858,-1.919,5.794,-0.830800,-0.590660,2.817134,100275.48,+9,-115,-318
108051,7.974,-2.508,4.892,-0.475350,-0.724751,2.595244,100277.04,+16,-115,-319
108060,6.753,-2.257,2.363,-0.186947,-0.746036,2.216382,100278.55,+16,-115,-319
108070,6.853,-4.370,1.031,-0.067754,-0.794990,1.689061,100278.55,+22,-117,-320
108081,1.516,-13.454,3.657,0.134448,-0.614072,0.939851,100282.03,+27,-117,-321
108091,2.325,-8.320,3.445,0.141365,-0.364513,0.665814,100280.67,+28,-119,-319
108101,4.609,-1.122,1.529,-0.268360,-0.445394,0.418383,100279.11,+28,-119,-319
108110,3.321,0.714,0.862,-0.615295,-0.445926,-0.442038,100279.16,+30,-118,-321
108121,2.168,2.618,0.492,-0.407772,-0.489027,-0.980534,100281.08,+31,-115,-323
108131,1.361,2.973,0.407,0.067402,-0.586403,-1.184332,100279.67,+31,-113,-323
108141,0.427,1.332,0.315,0.701144,-0.708788,-1.436019,100281.30,+30,-113,-323
108150,0.035,-0.173,0.467,1.236979,-0.748696,-1.867560,100281.30,+30,-115,-323
108161,0.291,-0.936,0.613,1.473236,-0.722091,-2.323579,100275.91,+29,-117,-321
108171,0.870,-0.999,0.904,1.557309,-0.703467,-2.693395,100275.91,+26,-119,-318
108181,1.450,-0.632,1.220,1.629144,-0.680054,-3.061083,100278.02,+23,-122,-317
108190,1.828,-0.645,1.354,1.723327,-0.649724,-3.435688,100276.72,+23,-122,-317
108200,2.370,-0.944,1.335,1.853162,-0.610348,-3.765064,100275.61,+19,-121,-316
108211,2.846,-1.329,1.298,1.982997,-0.585871,-4.057192,100275.09,+14,-123,-313
108221,3.445,-1.662,1.144,2.066006,-0.555008,-4.311008,100275.09,+7,-125,-310
108231,4.245,-2.165,1.132,2.124006,-0.522017,-4.544605,100275.09,+7,-125,-310
108240,5.321,-2.609,1.199,2.156997,-0.485834,-4.768623,100276.29,+1,-125,-308
108251,6.466,-3.101,1.380,2.215529,-0.471467,-4.931448,100274.40,-5,-124,-305
108261,7.487,-3.727,1.847,2.286299,-0.462953,-5.056494,100274.40,-12,-124,-302
108270,8.407,-4.221,2.240,2.311841,-0.468806,-5.162916,100274.40,-12,-124,-302
108280,9.404,-4.645,2.502,2.257033,-0.491687,-5.264549,100276.80,-19,-122,-300
108291,10.655,-5.017,3.021,2.140501,-0.484770,-5.354475,100276.48,-27,-120,-297
108301,11.979,-5.562,3.816,1.983529,-0.462421,-5.415136,100279.00,-34,-115,-296
108311,12.997,-5.994,4.719,1.788777,-0.463485,-5.452384,100275.70,-34,-115,-296
108320,13.272,-6.347,5.380,1.603603,-0.489027,-5.499209,100275.70,-40,-111,-295
108331,12.960,-6.427,5.984,1.422153,-0.481577,-5.600310,100280.85,-46,-105,-294
108341,12.992,-6.375,6.067,1.265181,-0.392715,-5.714714,100279.43,-53,-97,-293
108351,13.961,-6.231,6.080,1.144392,-0.244788,-5.735998,100275.82,-53,-97,-293
108361,15.300,-6.178,6.131,1.043291,-0.086220,-5.701411,100278.55,-58,-90,-292
108370,16.169,-6.231,6.267,0.932612,0.053193,-5.667356,100275.77,-64,-80,-292
108381,16.510,-6.508,6.329,0.806502,0.189413,-5.634898,100279.91,-70,-71,-291
108391,16.994,-6.902,6.316,0.627181,0.356496,-5.557209,100279.91,-70,-71,-291
108400,17.263,-7.487,6.869,0.500539,0.602863,-5.393852,100276.70,-77,-61,-289
108410,17.042,-8.284,5.231,0.420723,0.861468,-5.178879,100278.17,-83,-50,-286
108421,16.556,-11.325,1.154,-0.014011,0.883284,-4.935173,100278.17,-88,-39,-285
108431,15.760,-11.043,0.292,-0.176837,0.526239,-4.419559,100279.52,-88,-39,-285
108441,14.443,-7.959,1.971,0.092411,0.310202,-3.814550,100278.41,-91,-29,-284
108450,10.576,-9.904,3.142,0.596851,0.297964,-3.080771,100280.30,-93,-23,-282
108461,5.807,-14.176,2.371,0.851199,0.362349,-2.308679,100276.16,-94,-19,-281
108471,3.198,-14.612,1.180,0.634099,0.310734,-1.156662,100281.44,-94,-19,-281
108481,5.018,-10.275,1.081,0.471805,0.215487,0.257154,100281.39,-95,-20,-280
108491,7.907,-7.328,2.527,0.800117,0.101615,1.495905,100278.09,-95,-25,-279
108500,8.496,-7.901,4.016,1.407786,-0.044183,2.340896,100274.84,-95,-35,-278
108511,7.591,-10.185,4.132,1.828153,-0.098458,2.908125,100274.84,-95,-35,-278
108521,7.294,-11.533,4.160,1.886685,0.026056,3.380638,100274.84,-92,-50,-276
108530,10.727,-4.331,3.012,1.535492,0.217083,3.668509,100284.34,-90,-62,-274
108540,15.112,9.101,0.853,0.641016,0.222936,3.253464,100277.43,-88,-74,-272
108547,17.985,19.639,0.478,0.182869,0.193138,2.540969,100279.95,-88,-74,-272
108556,18.857,22.741,-3.903,-0.102873,0.098423,1.744401,100280.51,-85,-78,-272
108566,15.670,9.296,-3.626,0.786814,-0.177742,1.748657,100280.51,-83,-85,-270
108575,14.449,-4.828,-0.219,2.928024,-0.269797,2.774565,100280.55,-83,-85,-270
108585,15.413,-9.081,-2.538,3.783124,-0.392183,3.760032,100281.98,-78,-103,-264
108596,13.155,-9.713,-2.618,3.107877,-0.297467,3.676491,100285.16,-72,-119,-261
108606,9.870,-7.168,2.438,2.200098,0.056386,3.122033,100279.99,-67,-131,-256
108615,6.961,-3.940,11.952,1.971823,0.400661,2.975170,100279.99,-67,-131,-256
108625,7.292,-2.357,12.025,2.489565,0.877963,2.860235,100278.60,-64,-143,-250
108636,11.757,-6.024,6.716,2.396978,1.374954,2.747960,100281.90,-61,-155,-242
108646,12.542,-12.219,3.475,1.547199,1.006734,2.896418,100282.74,-57,-163,-237
108656,7.513,-9.704,4.701,0.619732,0.721523,2.549483,100280.49,-57,-163,-237
108665,5.243,-4.823,7.362,-0.400323,0.924789,2.137630,100280.49,-53,-170,-236
108676,6.481,-4.190,6.390,-1.482102,0.919468,1.927446,100278.60,-50,-171,-237
108686,7.554,-4.750,3.123,-2.112652,0.704496,1.690657,100282.20,-49,-169,-240
108696,8.582,-4.564,1.134,-2.071147,0.683211,1.463979,100280.37,-49,-169,-240
108705,10.774,-2.752,0.087,-1.834891,0.639046,1.290511,100282.46,-45,-168,-243
108716,11.996,-1.542,0.919,-1.371955,0.544863,1.221337,100282.46,-43,-166,-245
108726,11.557,-1.273,2.088,-0.695644,0.460257,1.161208,100283.11,-42,-168,-245
108736,10.247,-2.132,2.392,-0.215149,0.367138,1.134603,100276.52,-42,-168,-245
108746,9.072,-3.422,1.895,0.010998,0.318184,1.038823,100280.17,-41,-170,-245
108755,8.842,-4.177,1.833,0.050906,0.317120,0.870676,100279.77,-38,-172,-244
108766,9.139,-4.583,2.217,-0.075736,0.325101,0.727539,100279.77,-38,-172,-244
108776,9.298,-4.667,2.568,-0.302415,0.333615,0.613667,100282.53,-38,-172,-244
108786,9.085,-4.190,3.038,-0.605717,0.354367,0.491282,100279.39,-37,-173,-244
108795,9.054,-3.279,3.159,-0.873900,0.342661,0.404548,100279.45,-36,-172,-246
108806,9.025,-2.112,3.148,-0.984047,0.310202,0.374750,100274.89,-36,-170,-248
108816,9.122,-1.209,3.219,-0.912212,0.284129,0.376879,100274.89,-36,-170,-248
108826,9.188,-0.835,3.151,-0.718524,0.251670,0.402952,100281.45,-36,-170,-249
108835,9.166,-0.874,3.096,-0.478543,0.211762,0.456695,100282.92,-35,-168,-250
108846,9.027,-1.353,3.120,-0.265699,0.179835,0.518420,100278.20,-34,-169,-250
108856,8.903,-2.040,3.112,-0.163534,0.142056,0.535979,100278.27,-34,-169,-250
108866,8.807,-2.827,3.127,-0.184286,0.122900,0.546621,100278.27,-34,-170,-249
108876,8.905,-3.390,2.855,-0.330084,0.111725,0.548218,100283.33,-32,-170,-251
108886,9.110,-3.280,2.642,-0.552506,0.126624,0.542897,100277.89,-31,-169,-252
108896,9.242,-2.848,2.817,-0.696708,0.146845,0.538108,100280.72,-31,-169,-252
108902,9.148,-2.540,2.742,-0.734488,0.143120,0.561521,100276.80,-30,-169,-252
108911,9.129,-2.274,2.537,-0.713203,0.127689,0.603025,100276.80,-29,-168,-254
108921,9.161,-2.301,2.460,-0.624873,0.113322,0.657832,100276.80,-29,-168,-254
108931,9.159,-2.394,2.508,-0.520047,0.097890,0.702530,100281.98,-28,-168,-255
108941,9.155,-2.684,2.570,-0.455130,0.081395,0.754144,100279.80,-27,-169,-256
108951,9.053,-2.716,2.718,-0.430653,0.056386,0.807355,100278.72,-24,-168,-257
108961,8.977,-2.732,2.808,-0.412029,0.042019,0.866952,100278.72,-24,-168,-257
108972,9.041,-2.928,2.786,-0.375314,0.029248,0.924419,100278.74,-23,-168,-257
108981,9.182,-3.226,2.751,-0.363607,0.011689,0.979759,100278.74,-21,-170,-258
108991,9.314,-3.151,2.669,-0.408837,-0.019706,1.034566,100279.16,-17,-170,-259
109001,9.238,-2.637,2.540,-0.439699,-0.045779,1.123428,100280.95,-17,-170,-259
109010,9.134,-1.957,2.528,-0.404048,-0.096862,1.234639,100279.48,-15,-172,-260
109021,9.062,-2.084,2.242,-0.252396,-0.131449,1.347979,100279.48,-11,-173,-261
109031,9.377,-3.005,2.132,-0.043277,-0.151137,1.446419,100283.26,-7,-174,-261
109041,9.735,-4.018,2.215,0.041328,-0.170825,1.519318,100282.37,-7,-174,-261
109051,9.875,-4.645,2.461,-0.060837,-0.177210,1.558694,100277.82,-3,-176,-261
109061,9.853,-4.747,2.413,-0.247607,-0.185192,1.578382,100279.38,+0,-178,-261
109071,10.117,-4.341,2.486,-0.391277,-0.200091,1.601263,100282.72,+5,-180,-263
109081,10.683,-4.026,2.283,-0.462580,-0.213394,1.646492,100280.63,+5,-180,-263
109091,11.164,-3.905,2.250,-0.500892,-0.251174,1.718327,100282.36,+10,-180,-264
109101,11.182,-3.071,2.644,-0.554635,-0.359724,1.854547,100282.36,+15,-181,-265
109111,10.921,-2.823,3.064,-0.481203,-0.443797,2.012052,100279.22,+21,-182,-266
109121,11.242,-3.831,3.203,-0.320506,-0.503394,2.142419,100279.22,+21,-182,-266
109131,11.956,-5.399,3.357,-0.355093,-0.526806,2.220107,100280.05,+28,-183,-267
109136,12.615,-5.952,3.580,-0.576983,-0.530531,2.250437,100281.81,+35,-183,-269
109146,13.379,-5.655,3.578,-0.910084,-0.534256,2.268529,100275.59,+35,-183,-269
109156,14.945,-4.313,3.985,-1.335240,-0.547559,2.320143,100279.05,+42,-183,-273
109166,17.192,-2.531,4.627,-1.631093,-0.589595,2.422841,100279.05,+50,-182,-276
109176,19.309,-0.780,4.756,-1.796047,-0.570439,2.585666,100281.85,+57,-178,-281
109186,20.066,0.896,4.351,-1.923221,-0.519889,2.799042,100284.26,+57,-178,-281
109196,20.283,2.070,3.597,-1.994524,-0.458696,3.014547,100278.98,+66,-174,-284
109206,21.308,2.735,4.411,-1.997184,-0.343761,3.110326,100278.29,+75,-170,-289
109216,21.138,2.595,6.245,-1.891827,-0.225100,3.160877,100278.29,+84,-166,-294
109227,19.158,-0.814,7.714,-1.655038,-0.224036,3.286987,100279.62,+84,-166,-294
109236,17.547,-6.688,7.712,-1.134634,-0.369834,3.592418,100279.30,+92,-162,-296
109246,18.295,-7.516,7.738,-0.498763,-0.399100,3.863262,100277.88,+102,-162,-297
109256,18.104,-4.914,7.749,-0.417882,-0.372495,3.592418,100275.05,+112,-162,-297
109265,15.275,-2.500,7.330,-0.513662,-0.420917,3.203978,100275.05,+112,-162,-297
109276,12.695,-0.957,6.219,-0.564745,-0.619926,2.920363,100280.59,+120,-160,-298
109286,10.362,-0.867,5.140,-0.311993,-0.881724,2.750620,100276.25,+127,-158,-299
109296,6.724,-2.514,4.622,0.245658,-0.996659,2.544162,100277.45,+137,-158,-297
109306,5.332,-2.332,1.870,0.562796,-1.007301,2.151997,100276.25,+137,-158,-297
109316,4.727,-7.316,1.326,0.643144,-1.061577,1.548052,100276.25,+144,-159,-294
109326,-0.092,-14.007,5.487,0.803842,-0.678458,0.742438,100282.15,+147,-163,-291
109336,2.963,-6.016,2.543,0.594722,-0.593852,0.601961,100279.27,+151,-164,-289
109346,3.980,-1.073,1.058,-0.024653,-0.725283,0.093264,100278.18,+151,-164,-289
109356,2.424,0.801,1.197,-0.232708,-0.650256,-0.794827,100279.54,+152,-164,-289
109366,1.798,3.069,1.129,-0.024121,-0.678458,-1.172625,100279.54,+150,-166,-289
109376,1.074,2.742,1.002,0.413273,-0.791797,-1.331726,100281.37,+150,-170,-286
109386,0.157,0.991,0.996,1.017218,-0.901944,-1.608955,100278.96,+150,-170,-286
109396,-0.257,-0.496,1.099,1.437052,-0.918439,-2.031450,100275.26,+148,-174,-282
109406,0.121,-1.307,1.308,1.597217,-0.900880,-2.465120,100274.57,+143,-180,-277
109416,0.720,-1.414,1.558,1.621694,-0.904072,-2.837596,100274.57,+138,-187,-272
109426,1.245,-1.321,1.731,1.601474,-0.901412,-3.216459,100277.58,+131,-187,-267
109436,1.841,-1.335,1.919,1.599346,-0.871614,-3.586275,100275.80,+131,-194,-267
109446,2.398,-1.412,1.920,1.645107,-0.851925,-3.905009,100276.27,+122,-201,-262
109456,2.779,-1.456,1.945,1.736098,-0.846604,-4.171063,100273.70,+112,-207,-257
109466,3.044,-1.919,1.977,1.851034,-0.838091,-4.404660,100273.70,+101,-211,-251
109476,3.943,-2.604,1.966,1.918079,-0.788072,-4.629210,100275.55,+101,-211,-251
109486,4.994,-3.120,2.242,1.948410,-0.739118,-4.811724,100277.23,+87,-217,-246
109492,5.866,-3.474,2.498,1.988850,-0.722091,-4.893669,100274.93,+87,-217,-246
109501,6.636,-3.729,2.875,2.060685,-0.701338,-4.948476,100274.93,+72,-221,-239
109511,7.550,-4.003,3.401,2.161253,-0.665687,-5.042659,100275.09,+58,-223,-232
109521,8.558,-4.464,3.801,2.204886,-0.643871,-5.136311,100275.09,+42,-225,-227
109532,9.697,-4.983,4.114,2.179345,-0.628439,-5.210806,100273.49,+42,-225,-227
109541,10.740,-5.283,4.739,2.089951,-0.593320,-5.261356,100275.93,+26,-225,-220
109551,11.645,-5.442,5.574,1.943089,-0.555008,-5.314035,100274.80,+9,-223,-214
109561,12.279,-5.585,6.316,1.786116,-0.520953,-5.381613,100274.80,-6,-219,-209
109571,12.748,-5.979,6.821,1.680226,-0.464017,-5.469411,100274.80,-6,-219,-209
109581,13.254,-6.565,7.276,1.580722,-0.358660,-5.573173,100275.34,-22,-213,-205
109591,13.575,-7.070,7.351,1.428006,-0.237871,-5.660971,100278.64,-38,-205,-201
109601,13.999,-7.219,7.076,1.210373,-0.070788,-5.668952,100277.39,-54,-197,-198
109612,14.465,-7.319,7.029,0.977841,0.147909,-5.615210,100277.64,-54,-197,-198
109621,14.844,-7.124,7.086,0.726154,0.388422,-5.591265,100277.64,-70,-186,-195
109631,15.340,-6.899,7.100,0.395181,0.644899,-5.556677,100282.60,-84,-172,-192
109641,15.929,-6.815,7.118,0.120081,0.914679,-5.444934,100276.34,-98,-160,-191
109651,16.236,-6.817,6.530,0.003549,1.192440,-5.259760,100276.99,-110,-160,-187
109662,16.542,-7.409,2.386,-0.117240,1.378147,-5.017118,100276.99,-110,-145,-187
109671,16.528,-10.110,-0.708,-0.357222,1.076440,-4.624953,100279.73,-120,-131,-185
109681,15.499,-6.658,1.058,0.122741,0.603395,-3.933211,100281.40,-127,-119,-183
109691,12.913,-6.232,2.814,0.684117,0.422477,-3.249449,100281.40,-133,-110,-180
109701,8.613,-11.026,3.389,1.234318,0.467175,-2.512477,100279.82,-133,-110,-180
109711,3.958,-14.831,2.009,1.186961,0.502826,-1.646203,100278.57,-134,-105,-177
109721,3.496,-12.771,0.808,0.738392,0.449615,-0.414901,100278.57,-137,-104,-175
109731,6.577,-8.115,1.587,0.559603,0.388954,0.850988,100281.70,-134,-109,-172
109742,8.717,-6.182,2.956,0.952300,0.261780,1.807190,100280.39,-134,-109,-172
109752,8.474,-7.824,3.653,1.486538,0.137799,2.465941,100280.34,-131,-116,-169
109761,7.530,-10.435,3.391,1.826024,0.121303,2.980492,100277.00,-128,-127,-165
109771,7.633,-11.780,2.920,1.801015,0.250606,3.431189,100280.80,-120,-139,-161
109782,11.145,-6.925,2.436,1.453548,0.420881,3.785574,100280.38,-120,-139,-161
109792,17.283,9.047,-0.900,0.492557,0.316055,3.432785,100278.50,-113,-150,-159
109801,20.885,26.156,-1.675,-0.272084,0.212294,2.197758,100282.94,-110,-156,-157
109811,18.597,24.125,-6.670,-0.379038,0.008496,1.101612,100282.94,-107,-160,-157
109821,14.196,4.194,-2.467,1.720667,-0.310770,1.671502,100282.94,-107,-160,-157
109832,14.449,-9.397,0.596,4.186463,-0.382073,3.112987,100283.54,-101,-168,-150
109841,15.628,-10.004,-1.896,4.377491,-0.532127,4.095262,100285.68,-91,-180,-142
109847,13.130,-10.396,-2.302,3.338280,-0.382605,3.761629,100282.65,-91,-180,-142
109856,10.266,-8.958,1.727,2.447529,-0.049504,3.090106,100282.02,-83,-191,-135
109867,7.428,-4.907,12.115,2.102189,0.398000,2.822455,100282.02,-76,-197,-128
109877,6.883,-1.206,13.483,2.615675,0.888073,2.886308,100279.78,-76,-197,-128
109886,10.958,-3.299,7.287,2.440079,1.405284,2.738914,100277.94,-69,-205,-118
109896,12.762,-10.519,3.516,1.575401,1.030679,2.860767,100279.88,-61,-211,-111
109906,7.418,-8.816,4.657,0.867163,0.563486,2.726675,100280.03,-53,-217,-107
109917,4.191,-4.404,7.749,0.049842,0.765156,2.355795,100280.03,-53,-217,-107
109926,5.850,-4.455,6.753,-1.141020,0.838055,2.090804,100283.29,-47,-222,-107
109936,7.630,-5.382,2.876,-2.020597,0.619358,1.818896,100279.99,-40,-225,-111
109946,8.446,-5.745,-0.071,-2.265900,0.600202,1.570933,100280.62,-35,-227,-116
109957,10.677,-4.073,-1.009,-1.970047,0.645431,1.390015,100281.24,-31,-229,-120
109966,12.121,-2.046,-0.467,-1.423570,0.622019,1.263906,100281.24,-31,-229,-120
109976,11.807,-1.288,0.967,-0.608910,0.599138,1.192071,100278.17,-28,-230,-122
109986,10.697,-1.934,1.912,0.025365,0.541670,1.193667,100282.25,-24,-232,-121
109997,9.371,-3.502,2.132,0.289824,0.494312,1.143649,100281.69,-21,-234,-119
110006,8.596,-4.497,2.432,0.273328,0.486331,0.986144,100280.38,-21,-234,-119
110016,8.759,-4.684,3.128,0.021108,0.482606,0.802034,100280.38,-17,-235,-118
110026,9.213,-4.416,3.616,-0.309332,0.464514,0.664218,100282.85,-15,-237,-118
110036,9.236,-3.618,4.402,-0.632323,0.421413,0.559392,100284.21,-14,-238,-120
110047,8.807,-2.736,4.398,-0.854212,0.349046,0.483833,100283.01,-14,-238,-120
110056,8.786,-2.106,3.707,-0.918598,0.305413,0.438071,100280.07,-12,-238,-122
110066,9.251,-1.902,2.928,-0.818029,0.268698,0.401356,100280.07,-11,-238,-125
110076,9.698,-2.039,2.486,-0.624873,0.235707,0.409337,100280.20,-10,-238,-126
110082,9.809,-2.141,2.417,-0.463112,0.217615,0.437007,100281.14,-10,-238,-126
110091,9.810,-2.180,2.375,-0.346580,0.200588,0.473722,100281.14,-8,-239,-127
110101,9.580,-2.549,2.511,-0.255057,0.184092,0.502988,100281.56,-8,-239,-127
110111,9.217,-2.877,2.876,-0.293901,0.188881,0.482768,100279.78,-7,-238,-127
110121,8.886,-2.989,3.055,-0.461515,0.203780,0.457759,100279.78,-6,-239,-128
110132,8.966,-2.669,3.134,-0.643497,0.222404,0.464677,100280.76,-3,-240,-130
110142,9.120,-1.977,3.361,-0.708946,0.220276,0.493943,100277.35,-2,-240,-130
110151,9.059,-1.704,3.433,-0.660524,0.203248,0.545557,100277.66,-2,-241,-132
110161,8.923,-1.893,3.306,-0.564745,0.174514,0.606218,100277.66,+0,-241,-133
110172,8.847,-2.172,3.334,-0.479607,0.151634,0.669539,100277.66,+1,-240,-135
110181,8.753,-2.590,3.260,-0.425332,0.135670,0.722218,100278.03,+4,-242,-136
110191,8.810,-2.945,3.222,-0.412029,0.123964,0.771704,100284.11,+4,-242,-136
110201,8.812,-3.086,3.376,-0.449277,0.128753,0.804163,100278.19,+6,-243,-137
110212,8.784,-3.138,3.298,-0.520580,0.133010,0.825979,100278.19,+8,-243,-138
110222,8.903,-3.226,3.294,-0.572194,0.144716,0.850456,100278.19,+12,-244,-140
110232,9.081,-3.346,3.061,-0.612103,0.150569,0.882915,100281.06,+12,-244,-140
110241,9.226,-3.289,2.887,-0.654671,0.132478,0.904731,100278.80,+14,-244,-143
110252,9.111,-3.132,2.757,-0.663185,0.093101,0.936658,100277.09,+18,-246,-143
110262,8.872,-3.194,2.756,-0.582304,0.049468,0.970713,100277.09,+21,-246,-146
110272,8.939,-3.542,2.765,-0.488121,0.006900,0.990401,100279.47,+21,-246,-146
110281,9.053,-3.364,3.043,-0.473222,-0.088880,0.996786,100279.47,+24,-246,-147
110291,8.780,-3.207,3.152,-0.473222,-0.169761,1.018071,100275.55,+29,-246,-149
110302,8.517,-3.357,2.914,-0.422671,-0.169229,1.030309,100282.61,+31,-248,-150
110311,8.526,-3.550,2.662,-0.358286,-0.141027,1.046273,100279.89,+31,-248,-150
110317,8.693,-3.580,2.520,-0.317314,-0.130385,1.073410,100279.89,+36,-248,-152
110326,8.641,-3.626,2.473,-0.288048,-0.123999,1.117043,100281.45,+36,-248,-152
110337,8.648,-3.558,2.509,-0.272616,-0.110697,1.183557,100281.19,+40,-249,-152
110347,8.810,-3.554,2.748,-0.292837,-0.126128,1.267098,100282.70,+43,-249,-153
110356,9.395,-4.002,2.668,-0.240158,-0.145816,1.344786,100280.52,+49,-250,-154
110366,10.046,-4.804,2.356,-0.209295,-0.138366,1.408639,100280.52,+49,-250,-154
110376,10.466,-5.597,2.006,-0.278470,-0.122935,1.451740,100279.11,+55,-250,-155
110387,10.763,-5.435,1.998,-0.468965,-0.143155,1.500694,100281.27,+59,-250,-155
110397,10.813,-4.950,2.256,-0.673295,-0.168164,1.560823,100281.52,+65,-250,-159
110406,11.040,-4.627,2.645,-0.806855,-0.194238,1.633722,100278.48,+70,-250,-159
110416,11.297,-3.947,3.315,-0.961699,-0.251706,1.717263,100278.48,+70,-251,-161
110427,11.253,-3.137,4.027,-1.087809,-0.337375,1.816768,100284.35,+77,-250,-165
110437,11.380,-2.647,4.208,-1.111221,-0.396972,1.931171,100280.85,+84,-250,-169
110446,12.046,-2.378,4.560,-1.055882,-0.477852,2.041318,100278.40,+92,-248,-171
110456,13.400,-3.402,3.489,-0.831332,-0.564586,2.133373,100277.35,+92,-248,-171
110467,15.781,-4.613,2.723,-0.718524,-0.581082,2.155189,100277.35,+100,-248,-174
110477,16.812,-4.702,2.244,-0.912212,-0.568843,2.139226,100284.99,+108,-246,-177
110486,16.585,-3.510,1.709,-1.287350,-0.562990,2.139226,100279.18,+117,-243,-180
110496,16.493,-1.248,2.230,-1.582671,-0.535852,2.162107,100278.13,+117,-243,-180
110507,16.727,0.852,3.572,-1.653441,-0.462953,2.194566,100276.93,+124,-242,-186
110517,17.315,1.351,4.722,-1.551808,-0.374623,2.307905,100276.93,+133,-238,-190
110527,17.421,-0.455,5.691,-1.325130,-0.333651,2.536180,100281.20,+142,-234,-194
110536,16.601,-5.022,5.758,-0.931368,-0.398568,2.872473,100276.60,+142,-234,-194
110546,16.781,-6.493,6.237,-0.605717,-0.346421,3.183225,100277.63,+152,-232,-196
110557,17.311,-5.016,6.851,-0.579112,-0.224036,3.217813,100275.96,+163,-227,-199
110566,16.156,-3.638,8.222,-0.796745,-0.255963,3.003372,100275.96,+173,-223,-200
110576,14.264,-2.815,8.398,-0.883478,-0.457100,2.845868,100279.98,+173,-223,-200
110586,12.977,-2.762,7.317,-0.690323,-0.639614,2.774033,100279.30,+183,-219,-202
110597,11.114,-2.664,7.120,-0.145974,-0.693889,2.662290,100277.37,+192,-216,-202
110607,10.263,-1.424,4.404,0.341438,-0.735393,2.425501,100273.18,+200,-213,-199
110616,10.574,-2.025,1.634,0.475530,-0.853522,2.094529,100273.18,+200,-213,-199
110626,7.629,-8.624,3.141,0.681988,-0.903008,1.693318,100279.23,+208,-211,-197
110637,4.336,-11.425,4.512,0.900686,-0.818935,1.290511,100274.73,+213,-210,-194
110647,6.269,-4.476,2.973,0.762337,-0.692825,1.102676,100277.09,+216,-209,-191
110656,6.598,-0.212,2.253,0.192980,-0.716770,0.417851,100278.88,+216,-209,-191
110666,5.344,1.958,2.128,0.075915,-0.818935,-0.218020,100278.88,+218,-209,-190
110672,4.453,2.760,2.108,0.321218,-0.933870,-0.397341,100281.32,+219,-210,-187
110682,3.514,2.182,1.870,0.712319,-1.072751,-0.482479,100281.32,+219,-210,-187
110692,2.425,0.322,1.615,1.221016,-1.184494,-0.707561,100278.34,+217,-212,-182
110702,1.868,-1.485,1.685,1.512612,-1.216953,-1.125267,100277.09,+215,-217,-176
110711,1.759,-2.238,1.569,1.461529,-1.207907,-1.620129,100279.16,+211,-221,-170
110722,1.663,-2.015,1.537,1.259328,-1.202054,-2.086790,100278.81,+211,-221,-170
110732,1.528,-1.159,1.429,1.108208,-1.193008,-2.501835,100277.61,+205,-226,-165
110742,1.700,-0.638,1.501,1.086392,-1.171723,-2.872184,100273.69,+197,-232,-159
110751,2.081,-0.623,1.697,1.164612,-1.158421,-3.205284,100273.69,+186,-236,-155
110761,2.434,-0.845,1.784,1.295511,-1.158421,-3.522954,100275.20,+186,-236,-155
110772,2.788,-1.193,2.048,1.448759,-1.131815,-3.800715,100275.20,+175,-242,-149
110782,3.409,-1.591,2.187,1.524850,-1.104145,-4.086990,100276.05,+161,-248,-143
110791,4.243,-1.744,2.170,1.522190,-1.069558,-4.365816,100273.59,+147,-252,-137
110801,5.120,-1.876,2.347,1.532832,-1.030182,-4.597816,100272.70,+147,-252,-137
110812,5.956,-2.296,2.746,1.579126,-0.982292,-4.784054,100271.49,+130,-257,-130
110822,6.674,-2.745,3.322,1.684483,-0.937063,-4.918146,100271.49,+112,-260,-123
110832,7.445,-3.187,3.808,1.818575,-0.887577,-5.050109,100275.61,+94,-262,-118
110841,8.313,-3.544,4.172,1.910098,-0.826916,-5.185797,100275.42,+94,-262,-118
110852,9.112,-3.844,4.536,1.911694,-0.754017,-5.305521,100272.11,+75,-262,-110
110862,9.806,-4.245,4.913,1.809529,-0.680054,-5.436953,100272.11,+54,-261,-105
110871,10.493,-4.646,5.412,1.627015,-0.612476,-5.592861,100272.11,+35,-257,-100
110881,11.170,-5.300,5.808,1.447694,-0.547027,-5.742383,100278.39,+35,-257,-100
110892,12.015,-5.774,6.256,1.307750,-0.451247,-5.899356,100275.52,+14,-252,-97
110902,13.242,-6.135,6.635,1.192282,-0.288953,-6.055796,100274.31,-7,-245,-93
110907,14.564,-6.424,6.777,1.119383,-0.152733,-6.168603,100276.25,-7,-245,-93
110916,15.723,-6.535,6.979,1.041162,-0.013853,-6.256402,100276.25,-27,-235,-90
110926,16.879,-6.876,7.393,0.969328,0.145248,-6.293117,100277.26,-48,-225,-87
110937,16.968,-7.405,8.126,0.983695,0.291578,-6.259594,100277.62,-67,-212,-84
110947,16.639,-8.412,9.109,1.037438,0.506019,-6.180310,100276.57,-67,-212,-84
110957,17.052,-9.959,8.346,1.003383,0.839651,-5.987154,100273.43,-84,-197,-80
110966,17.767,-14.732,3.226,0.296209,1.085486,-5.784953,100273.43,-98,-183,-78
110977,17.240,-16.021,-0.596,-0.575387,0.681083,-5.364054,100281.12,-111,-170,-78
110987,15.512,-8.913,1.660,-0.515259,0.458661,-4.709558,100278.09,-111,-170,-78
110997,14.006,-7.429,6.113,0.264814,0.378844,-3.828385,100276.37,-121,-157,-77
111006,8.644,-13.012,7.892,0.994337,0.393743,-2.997229,100278.04,-126,-147,-75
111016,2.786,-19.915,3.993,0.991144,0.454404,-2.072955,100278.04,-130,-142,-73
111027,2.029,-18.091,1.385,0.373720,0.556037,-0.429623,100284.76,-130,-142,-73
111037,5.267,-12.802,1.890,0.097200,0.526771,1.109594,100277.32,-128,-142,-69
111047,8.168,-10.803,3.503,0.500007,0.347450,2.396767,100279.63,-123,-149,-69
111056,8.345,-12.321,3.603,1.040630,0.169193,3.263574,100276.12,-117,-158,-66
111067,10.761,-8.231,1.739,1.131621,0.210166,3.812179,100276.12,-117,-158,-66
111077,17.649,9.763,-2.964,0.255769,0.089909,3.620087,100277.61,-108,-169,-63
111087,24.476,31.396,-6.748,-0.754176,0.066496,2.263740,100279.66,-102,-176,-63
111096,21.961,24.276,-9.626,-0.898378,-0.149008,1.201649,100281.22,-99,-180,-67
111107,15.391,-0.267,-0.334,2.051639,-0.356531,2.013648,100278.81,-99,-180,-67
111117,13.842,-14.787,2.539,4.767527,-0.464017,3.716399,100278.81,-93,-184,-56
111127,15.224,-12.503,-2.157,4.525949,-0.559797,4.700802,100279.05,-82,-192,-47
111136,12.030,-10.632,-0.432,2.718373,-0.123467,3.677555,100277.95,-72,-199,-41
111147,9.084,-5.515,8.887,1.831878,0.385230,3.021996,100278.94,-72,-199,-41
111157,6.377,-1.711,15.416,2.147419,0.771009,3.108198,100275.91,-64,-203,-35
111167,8.079,-1.791,10.878,2.456574,1.240330,2.981556,100275.91,-54,-206,-26
111177,11.583,-9.826,5.953,1.651492,1.210000,2.999648,100277.93,-45,-211,-21
111186,8.595,-11.804,6.085,0.753823,0.672569,2.980492,100280.76,-45,-211,-21
111197,4.889,-6.902,9.020,-0.451937,0.808789,2.474455,100277.99,-36,-215,-18
111207,5.400,-5.647,5.778,-2.079661,0.789633,2.105703,100276.41,-28,-220,-22
111217,6.899,-5.817,1.281,-2.749055,0.662459,1.819960,100276.41,-22,-227,-29
111226,9.032,-4.349,0.200,-2.420743,0.593285,1.660859,100280.21,-22,-227,-29
111237,11.673,-1.973,0.033,-1.894487,0.391615,1.575722,100279.54,-15,-231,-35
111247,12.798,-0.978,1.193,-1.114414,0.279340,1.499630,100279.59,-10,-234,-38
111257,11.922,-0.960,1.810,-0.268892,0.197395,1.448548,100279.32,-5,-238,-38
111262,10.147,-1.966,1.675,0.174356,0.154826,1.416089,100279.32,-5,-238,-38
111271,8.860,-3.158,1.537,0.366447,0.153230,1.374584,100279.32,-1,-238,-36
111282,8.169,-4.078,1.889,0.409016,0.177175,1.250603,100280.55,+3,-240,-35
111292,8.248,-4.005,2.446,0.340906,0.233046,1.040951,100278.41,+3,-240,-35
111302,8.663,-4.337,3.066,0.164778,0.272955,0.840878,100278.15,+5,-240,-34
111312,9.144,-5.030,3.521,-0.131075,0.253267,0.698805,100278.95,+8,-241,-35
111322,9.006,-4.678,3.778,-0.519515,0.219744,0.584933,100281.87,+10,-242,-36
111332,8.769,-3.429,3.400,-0.862726,0.202716,0.477447,100279.57,+10,-242,-36
111342,8.912,-2.374,2.845,-0.980322,0.188349,0.421576,100279.57,+12,-244,-39
111351,9.269,-1.766,2.168,-0.869644,0.172386,0.418383,100276.54,+13,-245,-41
111362,9.640,-1.512,1.767,-0.644561,0.160679,0.455631,100281.91,+15,-246,-43
111372,9.662,-1.427,1.702,-0.350837,0.134606,0.509906,100281.91,+15,-246,-43
111382,9.388,-1.858,1.839,-0.051259,0.108533,0.585465,100281.52,+17,-246,-43
111392,9.123,-2.518,2.253,0.134980,0.097358,0.627502,100280.74,+20,-246,-43
111401,8.845,-3.023,2.657,0.152539,0.084056,0.626438,100279.18,+21,-248,-43
111412,8.707,-3.247,2.966,0.028026,0.078735,0.612603,100277.40,+21,-248,-43
111422,8.747,-3.146,3.043,-0.134800,0.077670,0.614731,100280.55,+24,-249,-42
111432,8.814,-2.777,2.892,-0.236433,0.076074,0.620053,100275.69,+26,-249,-43
111442,8.901,-2.648,2.721,-0.257185,0.075542,0.638676,100280.45,+28,-250,-45
111452,9.043,-2.805,2.265,-0.240158,0.085652,0.666878,100276.63,+28,-250,-45
111462,9.298,-3.145,2.047,-0.226323,0.103212,0.693484,100276.63,+30,-250,-45
111472,9.383,-3.424,2.094,-0.237497,0.113322,0.719557,100276.63,+33,-251,-45
111482,9.312,-3.624,2.188,-0.285387,0.125560,0.744566,100282.33,+35,-252,-46
111492,9.278,-3.704,2.370,-0.351369,0.147377,0.761062,100275.84,+35,-252,-46
111502,9.254,-3.820,2.490,-0.412029,0.169193,0.777557,100278.50,+38,-254,-48
111512,9.292,-3.918,2.545,-0.501956,0.193138,0.798309,100280.91,+42,-254,-48
111522,9.506,-4.121,2.539,-0.632855,0.216019,0.814273,100280.91,+45,-255,-50
111533,9.637,-3.382,2.690,-0.796745,0.210166,0.847263,100281.95,+45,-255,-50
111542,9.456,-2.576,2.525,-0.870176,0.202716,0.924419,100278.58,+47,-256,-53
111552,9.412,-1.730,2.635,-0.833992,0.160679,1.050529,100275.36,+51,-256,-56
111562,9.226,-1.146,2.654,-0.678084,0.077138,1.211227,100275.36,+56,-258,-58
111572,9.239,-1.475,2.824,-0.423736,0.009028,1.384694,100278.28,+56,-258,-58
111582,9.436,-2.594,2.758,-0.199717,-0.060146,1.526768,100278.28,+61,-259,-59
111592,9.814,-4.197,2.529,-0.102873,-0.077174,1.618823,100279.69,+68,-260,-60
111602,10.084,-5.196,2.234,-0.178965,-0.089412,1.652346,100278.86,+73,-260,-60
111611,10.374,-5.279,2.484,-0.392873,-0.097394,1.664052,100279.75,+73,-260,-60
111618,10.798,-4.863,2.165,-0.539736,-0.114421,1.680015,100279.75,+79,-260,-62
111627,11.161,-4.489,2.023,-0.625937,-0.156458,1.722584,100278.79,+85,-261,-63
111637,11.302,-4.002,2.277,-0.660524,-0.242660,1.815703,100278.37,+85,-261,-63
111647,11.566,-3.808,2.711,-0.648286,-0.326201,1.949795,100275.40,+91,-262,-66
111656,11.797,-3.825,3.421,-0.674891,-0.410806,2.083887,100277.80,+99,-262,-68
111667,12.082,-4.240,3.779,-0.716396,-0.463485,2.202015,100277.80,+106,-262,-72
111677,12.753,-4.802,3.987,-0.878689,-0.500733,2.283428,100280.66,+106,-262,-72
111687,13.791,-4.933,3.829,-1.110689,-0.516696,2.329721,100279.77,+115,-262,-75
111697,15.556,-4.645,3.440,-1.365570,-0.510311,2.371758,100279.23,+123,-262,-79
111707,17.913,-3.252,3.925,-1.655570,-0.538513,2.427097,100279.03,+132,-260,-85
111717,19.721,-1.092,4.518,-1.900872,-0.520953,2.542565,100279.03,+132,-260,-85
111727,20.560,1.054,4.224,-2.050395,-0.412403,2.730932,100279.88,+141,-259,-91
111737,20.837,2.935,4.173,-2.183955,-0.284164,2.922492,100275.59,+152,-257,-99
111747,20.849,4.297,5.559,-2.227588,-0.179339,3.007097,100279.30,+163,-254,-107
111757,20.024,3.468,7.651,-2.116377,-0.071853,3.093299,100276.16,+163,-254,-107
111767,18.761,-1.207,7.751,-1.849790,-0.091541,3.313592,100276.16,+174,-251,-113
111777,18.151,-7.214,7.418,-1.396432,-0.231485,3.654143,100279.70,+187,-246,-118
111787,19.058,-7.445,7.301,-0.929772,-0.286825,3.843574,100279.65,+198,-240,-122
111797,18.061,-4.421,7.361,-0.902634,-0.345357,3.564216,100277.29,+198,-240,-122
111807,15.001,-1.974,6.759,-0.868047,-0.498072,3.183758,100279.23,+211,-235,-123
111817,12.292,-0.741,5.621,-0.725974,-0.760403,2.810216,100279.23,+221,-229,-125
111827,9.003,-1.117,5.096,-0.257717,-1.073815,2.559593,100279.69,+228,-224,-125
111837,5.892,-2.819,3.967,0.507456,-1.203118,2.327593,100275.92,+228,-224,-125
111847,6.613,-3.825,2.283,1.038502,-1.296769,2.045575,100276.23,+236,-221,-121
111857,4.452,-11.814,3.746,1.259328,-1.243026,1.427795,100277.64,+241,-217,-116
111867,2.401,-12.589,5.696,1.458869,-0.876403,0.951025,100277.64,+243,-215,-111
111877,4.929,-4.021,2.502,1.301364,-1.000916,0.951557,100274.78,+243,-215,-111
111887,3.530,-1.324,2.352,0.776704,-1.082329,0.210860,100274.84,+246,-213,-107
111897,1.475,0.303,2.153,0.797456,-1.146714,-0.480350,100276.41,+245,-215,-103
111907,0.672,1.512,1.695,0.967731,-1.272292,-0.763965,100273.33,+242,-216,-97
111917,-0.399,0.279,1.566,1.287529,-1.418090,-0.943818,100273.33,+238,-216,-91
111927,-1.189,-1.401,1.535,1.652025,-1.464384,-1.239139,100276.91,+238,-218,-91
111937,-1.062,-2.472,1.648,1.759511,-1.399466,-1.686643,100272.88,+233,-220,-84
111947,-0.341,-2.793,1.983,1.661070,-1.338806,-2.170331,100275.91,+225,-223,-77
111958,0.216,-2.203,2.124,1.494520,-1.294641,-2.583248,100277.27,+216,-227,-71
111967,0.600,-1.760,2.071,1.374795,-1.233448,-2.970624,100277.27,+216,-227,-71
111973,0.941,-1.798,2.012,1.364153,-1.181834,-3.251578,100273.04,+203,-230,-66
111982,1.340,-1.845,1.882,1.392355,-1.135008,-3.502202,100273.04,+203,-230,-66
111992,1.847,-2.071,1.672,1.448226,-1.079136,-3.775174,100275.55,+192,-236,-59
112003,2.328,-2.452,1.745,1.510483,-1.023797,-4.000257,100271.32,+178,-240,-53
112012,2.969,-2.922,1.701,1.517933,-0.967925,-4.213100,100271.99,+162,-242,-48
112022,3.950,-3.146,1.821,1.454612,-0.924292,-4.431265,100273.70,+162,-242,-48
112032,4.938,-3.205,2.046,1.414704,-0.899815,-4.577595,100270.52,+146,-246,-43
112043,5.580,-3.188,2.428,1.441841,-0.877467,-4.651559,100272.30,+129,-248,-38
112052,5.989,-3.447,3.063,1.565823,-0.839687,-4.684549,100272.30,+112,-246,-33
112062,6.707,-3.960,3.567,1.713217,-0.772109,-4.744146,100269.78,+112,-246,-33
112072,7.635,-4.470,3.869,1.786116,-0.711448,-4.829815,100269.78,+95,-246,-28
112082,8.324,-4.599,4.159,1.803144,-0.672605,-4.883027,100275.99,+78,-242,-22
112092,8.854,-4.732,4.499,1.825492,-0.631632,-4.917614,100271.76,+61,-238,-18
112102,9.285,-5.036,4.928,1.886153,-0.558733,-4.962311,100273.85,+61,-238,-18
112112,9.767,-5.750,5.370,1.923401,-0.475724,-5.006476,100274.63,+44,-233,-11
112122,10.169,-6.564,5.626,1.884024,-0.386862,-5.075118,100274.63,+28,-227,-8
112133,10.441,-7.037,5.836,1.735034,-0.275118,-5.194843,100276.55,+14,-219,-3
112142,11.106,-7.198,5.930,1.513676,-0.128256,-5.322017,100276.23,-2,-211,+0
112152,12.353,-7.297,6.044,1.306153,0.043083,-5.401301,100275.65,-2,-211,+0
112162,14.053,-7.722,6.202,1.150245,0.242092,-5.423650,100275.65,-17,-201,+2
112173,15.117,-8.449,6.638,0.985291,0.418753,-5.438549,100275.65,-31,-191,+5
112182,14.758,-8.684,6.793,0.675603,0.504422,-5.470476,100272.33,-43,-182,+6
112192,14.589,-8.380,6.566,0.269603,0.647028,-5.455044,100278.86,-43,-182,+6
112202,15.376,-7.688,5.996,-0.057112,0.855615,-5.315632,100278.28,-55,-171,+7
112207,15.819,-7.793,5.026,-0.260910,0.968954,-5.156531,100278.19,-55,-171,+7
112217,16.148,-8.672,3.213,-0.478543,0.960440,-4.959118,100278.19,-63,-161,+8
112227,15.947,-7.437,1.810,-0.623277,0.806661,-4.553650,100277.25,-72,-152,+7
112237,15.579,-6.262,2.712,-0.220470,0.718863,-4.033779,100276.09,-79,-144,+8
112247,14.878,-7.930,3.935,0.391457,0.574661,-3.475596,100276.09,-79,-144,+8
112258,10.309,-11.600,5.207,0.675603,0.446422,-2.847174,100277.97,-84,-136,+10
112267,4.522,-15.728,2.999,0.489897,0.487395,-2.167138,100277.97,-89,-129,+11
112277,2.234,-16.302,1.347,-0.126286,0.639046,-1.038533,100279.17,-87,-127,+12
112287,3.953,-11.880,1.257,-0.708414,0.667248,0.346016,100280.17,-87,-127,+12
112297,7.101,-8.130,2.538,-0.655203,0.559230,1.583171,100279.08,-84,-131,+13
112307,8.696,-7.939,3.430,-0.130011,0.375120,2.546822,100278.28,-80,-137,+12
112317,8.906,-8.873,3.166,0.471273,0.251138,3.251868,100278.28,-72,-145,+14
112327,13.129,-0.288,0.755,0.664961,0.218147,3.726509,100280.91,-72,-145,+14
112337,19.965,18.992,-1.693,0.018980,0.136202,3.309335,100276.67,-64,-153,+16
112348,24.848,38.339,-3.781,-0.651479,0.155358,1.805061,100278.72,-59,-158,+15
112357,17.863,20.995,-6.493,-0.118837,-0.147412,1.006364,100277.05,-57,-161,+14
112367,12.562,-4.447,1.545,3.269638,-0.304917,2.138162,100277.05,-57,-161,+14
112377,14.352,-15.450,0.981,5.541747,-0.621522,4.095794,100281.64,-51,-159,+23
112388,14.438,-13.853,-3.976,4.294482,-0.686439,4.585335,100276.88,-42,-158,+32
112397,11.169,-10.821,-0.512,2.344299,-0.091541,3.325299,100279.17,-34,-160,+36
112407,8.291,-4.432,11.391,1.703639,0.456532,2.875666,100279.86,-26,-160,+40
112417,5.042,-0.068,16.063,2.237877,0.898184,2.994859,100279.86,-26,-160,+40
112428,8.083,-0.903,9.779,2.265015,1.323339,2.824583,100275.53,-17,-161,+47
112437,11.193,-8.926,6.535,1.836667,1.033340,2.844271,100279.03,-9,-161,+53
112447,8.227,-9.298,6.736,1.273695,0.488459,2.787868,100281.19,-1,-162,+55
112457,5.690,-6.415,7.221,0.159457,0.504422,2.382932,100278.72,-1,-162,+55
112467,6.284,-6.350,5.042,-1.024488,0.553376,2.014712,100278.72,+5,-167,+55
112478,8.128,-6.755,1.505,-1.918964,0.483670,1.763557,100277.73,+10,-172,+50
112487,9.561,-6.866,-0.382,-2.410101,0.404386,1.598603,100279.20,+14,-180,+46
112497,10.998,-5.336,-0.398,-2.274413,0.488991,1.478878,100278.82,+14,-180,+46
112507,12.300,-2.356,0.582,-1.831166,0.490055,1.396933,100277.57,+19,-186,+41
112518,11.944,-0.595,0.758,-1.172946,0.463450,1.307539,100277.57,+24,-191,+39
112527,10.635,-0.353,1.250,-0.374249,0.443762,1.273484,100282.65,+28,-191,+39
112537,8.860,-1.633,2.043,0.169035,0.446954,1.307006,100280.57,+28,-191,+39
112547,8.149,-3.457,3.039,0.335585,0.501230,1.165997,100275.45,+32,-193,+40
112558,8.763,-4.757,3.658,0.120613,0.503890,0.963796,100277.48,+36,-193,+41
112563,9.153,-5.430,4.406,-0.205571,0.491120,0.842475,100277.48,+36,-193,+41
112572,8.969,-5.668,4.987,-0.665313,0.483138,0.723814,100277.48,+40,-195,+40
112582,8.254,-4.554,5.236,-1.298524,0.432055,0.573227,100279.93,+42,-197,+36
112592,8.139,-2.453,4.317,-1.641735,0.385762,0.498732,100277.05,+42,-197,+36
112603,9.102,-1.070,3.248,-1.574157,0.348514,0.446053,100277.85,+44,-201,+33
112613,9.742,-0.689,2.683,-1.186781,0.289450,0.439667,100277.43,+47,-205,+30
112622,9.834,-1.078,2.404,-0.747790,0.247413,0.501924,100279.52,+48,-206,+28
112632,9.704,-1.765,2.443,-0.412561,0.211230,0.570034,100279.68,+50,-207,+26
112643,9.121,-2.707,2.784,-0.269424,0.191010,0.567374,100279.68,+50,-207,+26
112653,8.681,-3.744,3.045,-0.350837,0.218147,0.504585,100274.18,+51,-208,+26
112662,8.792,-4.078,3.082,-0.615295,0.262312,0.453502,100273.82,+52,-210,+25
112672,9.049,-3.420,3.380,-0.876029,0.288918,0.435943,100273.82,+55,-211,+23
112683,9.042,-2.586,3.528,-0.926047,0.266569,0.450842,100280.07,+55,-211,+23
112693,8.827,-2.300,3.524,-0.804726,0.233578,0.462016,100277.68,+57,-213,+20
112703,8.659,-2.666,3.440,-0.648286,0.200056,0.468401,100275.16,+59,-215,+19
112712,8.737,-3.238,3.402,-0.563681,0.168661,0.480108,100276.63,+61,-216,+17
112722,8.865,-3.596,3.292,-0.572194,0.161744,0.484897,100276.53,+61,-216,+17
112733,8.904,-3.677,3.401,-0.661589,0.177707,0.478511,100279.30,+61,-217,+16
112743,8.947,-3.559,3.503,-0.798341,0.183560,0.477979,100277.58,+64,-219,+14
112752,9.031,-3.009,3.412,-0.952121,0.175046,0.498199,100272.23,+66,-221,+11
112762,9.073,-2.366,3.280,-1.037790,0.162276,0.553539,100272.23,+66,-221,+11
112773,9.090,-1.644,3.151,-1.012249,0.117579,0.655172,100272.23,+68,-222,+8
112783,8.863,-1.187,2.903,-0.878689,0.056386,0.803098,100276.70,+71,-225,+6
112792,8.717,-1.081,2.850,-0.686598,-0.005871,0.976566,100279.51,+74,-226,+3
112802,8.737,-1.242,2.996,-0.514726,-0.070788,1.162273,100276.48,+74,-226,+3
112813,9.096,-2.022,2.865,-0.331681,-0.086752,1.311263,100275.80,+78,-226,+3
112823,9.730,-2.956,2.656,-0.203974,-0.099522,1.425135,100275.80,+81,-227,+2
112833,10.144,-3.564,2.618,-0.203974,-0.127724,1.518786,100280.93,+87,-227,+1
112842,10.342,-3.677,2.673,-0.269424,-0.142623,1.601263,100277.24,+87,-227,+1
112852,10.377,-3.335,2.748,-0.313589,-0.183596,1.694914,100275.07,+91,-228,+0
112863,10.283,-3.164,2.758,-0.279534,-0.229357,1.797612,100275.07,+97,-228,+0
112873,10.235,-3.309,2.716,-0.191736,-0.265008,1.918401,100274.20,+103,-229,+0
112882,10.580,-4.038,2.467,-0.119369,-0.285229,2.016841,100274.20,+103,-229,+0
112892,11.061,-4.598,2.192,-0.165130,-0.293210,2.104639,100277.45,+108,-228,-1
112903,11.558,-4.883,1.975,-0.309864,-0.300660,2.187116,100278.43,+116,-228,-2
112913,11.941,-4.857,1.931,-0.473222,-0.317687,2.266400,100276.35,+122,-228,-3
112922,12.165,-4.893,2.383,-0.638708,-0.334715,2.339299,100276.35,+122,-228,-3
112932,12.432,-5.211,2.697,-0.828671,-0.327265,2.391446,100277.66,+129,-229,-6
112943,13.179,-5.437,3.254,-1.203276,-0.275118,2.411134,100278.60,+137,-229,-9
112953,14.720,-4.167,4.274,-1.774230,-0.207008,2.423905,100279.18,+145,-230,-14
112963,16.982,-1.236,5.457,-2.274945,-0.187320,2.484033,100274.89,+145,-230,-14
112972,19.495,2.293,6.536,-2.438835,-0.211265,2.672932,100276.77,+152,-232,-22
112983,20.839,3.941,6.230,-2.251001,-0.181467,2.966125,100276.09,+162,-232,-29
112993,20.911,3.543,4.804,-1.989202,-0.046843,3.205574,100275.94,+172,-231,-34
113002,19.957,1.367,4.485,-1.824781,0.105872,3.263574,100275.94,+172,-231,-34
113012,18.732,-1.554,6.166,-1.793918,0.235175,3.294436,100274.63,+184,-230,-40
113022,18.093,-6.697,7.136,-1.606084,0.182496,3.516326,100274.63,+194,-228,-45
113033,19.361,-7.083,7.964,-1.230946,0.170789,3.774931,100276.46,+208,-223,-50
113042,19.446,-3.849,9.403,-0.896781,0.188881,3.589757,100275.57,+208,-223,-50
113052,16.572,-2.351,9.875,-0.738213,0.055322,3.280602,100275.16,+219,-219,-53
113062,13.665,-2.369,8.690,-0.744066,-0.292146,3.082124,100272.85,+228,-215,-55
113073,11.356,-2.319,6.981,-0.606249,-0.587467,2.923556,100272.85,+237,-210,-55
113083,7.626,-3.347,5.862,-0.309332,-0.752953,2.575556,100273.76,+237,-210,-55
113093,6.189,-2.895,2.695,-0.131607,-0.785412,2.059410,100277.05,+245,-207,-54
113102,6.111,-4.225,0.869,-0.214616,-0.934935,1.461318,100275.07,+249,-204,-54
113113,0.174,-14.019,4.604,0.099860,-0.778494,0.666878,100275.07,+251,-202,-51
113123,1.765,-7.695,3.242,0.139236,-0.674201,0.377411,100275.07,+251,-202,-51
113132,4.032,-0.802,1.598,-0.274745,-0.812549,0.000677,100274.13,+252,-203,-50
113142,2.890,0.837,0.937,-0.471626,-0.849265,-0.918277,100279.41,+250,-205,-49
113154,1.941,2.772,1.185,-0.165840,-0.911876,-1.445597,100273.73,+245,-209,-48
113163,1.723,2.584,0.949,0.262686,-1.039228,-1.626515,100273.73,+240,-213,-44
113172,1.015,0.609,0.898,0.835236,-1.209503,-1.888845,100273.73,+240,-213,-44
113182,0.424,-1.181,1.226,1.320520,-1.318586,-2.242166,100276.31,+233,-216,-38
113192,0.557,-2.303,1.501,1.524318,-1.346787,-2.651890,100273.02,+223,-220,-30
113203,1.156,-2.551,1.590,1.549859,-1.368072,-3.032349,100273.80,+211,-225,-23
113213,1.743,-2.039,1.688,1.559970,-1.380310,-3.402165,100273.80,+211,-225,-23
113223,2.289,-1.576,1.940,1.623823,-1.356898,-3.768256,100271.71,+198,-228,-16
113232,2.832,-1.497,2.326,1.769089,-1.314329,-4.069963,100271.71,+182,-231,-8
113243,3.354,-1.853,2.577,1.967566,-1.262714,-4.328568,100274.74,+166,-234,+0
113253,3.788,-2.574,2.741,2.175088,-1.220145,-4.548329,100268.84,+166,-234,+0
113262,4.373,-3.491,2.679,2.293749,-1.156824,-4.754788,100271.82,+148,-235,+9
113272,5.197,-4.038,2.759,2.335786,-1.097228,-4.925063,100271.82,+127,-233,+17
113283,6.288,-4.576,3.075,2.407088,-1.041889,-5.007008,100274.09,+108,-230,+25
113293,7.654,-5.349,3.652,2.542776,-0.976971,-5.066604,100270.48,+108,-230,+25
113303,9.008,-5.962,4.190,2.658776,-0.931210,-5.123008,100272.66,+89,-224,+33
113313,10.002,-6.557,4.500,2.651327,-0.895026,-5.155467,100269.62,+71,-217,+40
113323,10.671,-7.004,4.895,2.462960,-0.901944,-5.137375,100274.95,+51,-208,+45
113333,11.027,-7.136,5.370,2.182006,-0.881724,-5.116090,100273.12,+51,-208,+45
113343,11.091,-7.013,6.062,1.899988,-0.818403,-5.095870,100272.07,+34,-199,+48
113352,11.070,-6.910,6.804,1.687144,-0.718898,-5.074054,100272.07,+18,-189,+50
113362,11.322,-7.151,7.379,1.512612,-0.585338,-5.059687,100271.24,+1,-180,+51
113373,11.490,-7.402,7.635,1.338080,-0.427834,-5.051705,100271.24,+1,-180,+51
113383,11.613,-7.416,7.447,1.158227,-0.242128,-5.020843,100276.36,-12,-168,+52
113392,11.645,-7.262,6.914,0.981566,-0.023431,-4.945283,100274.94,-24,-158,+51
113402,11.570,-7.109,6.532,0.834704,0.222404,-4.863338,100276.56,-35,-147,+50
113413,11.588,-6.991,6.042,0.665493,0.460257,-4.794164,100274.84,-35,-147,+50
113423,11.677,-6.733,5.478,0.421255,0.696514,-4.738293,100274.84,-44,-138,+51
113433,11.903,-6.570,5.140,0.144025,0.920000,-4.643045,100276.93,-52,-129,+49
113442,12.286,-6.102,4.321,-0.074672,1.094532,-4.490329,100273.60,-59,-119,+50
113453,12.807,-5.388,2.277,-0.285919,1.155725,-4.308880,100273.45,-59,-119,+50
113463,13.556,-6.380,0.584,-0.358286,1.059413,-4.041229,100273.45,-63,-113,+50
113473,13.973,-5.671,0.043,-0.318378,0.673101,-3.669816,100273.45,-68,-105,+49
113482,13.094,-2.594,1.621,0.077512,0.431523,-3.264349,100277.54,-72,-99,+49
113492,12.195,-2.859,3.085,0.785218,0.366606,-2.833872,100276.80,-72,-99,+49
113503,10.802,-6.065,3.616,1.352447,0.320312,-2.324643,100276.18,-76,-91,+49
113513,8.404,-9.499,2.961,1.488135,0.284661,-1.830845,100276.07,-78,-84,+51
113522,6.713,-11.254,1.590,1.283273,0.305945,-1.231157,100276.07,-80,-78,+51
113532,6.183,-10.792,1.202,0.931548,0.358092,-0.455341,100277.27,-80,-78,+51
113543,6.534,-9.381,1.628,0.587805,0.369799,0.349209,100276.29,-80,-76,+53
113553,7.582,-8.412,2.563,0.414869,0.348514,1.109594,100276.96,-78,-77,+53
113563,8.163,-8.419,3.492,0.397310,0.307010,1.756639,100276.96,-77,-82,+55
113573,8.142,-8.726,3.649,0.479255,0.296899,2.281299,100277.56,-77,-82,+55
113583,8.291,-8.950,3.392,0.627713,0.323505,2.764455,100277.56,-73,-88,+56
113593,9.126,-8.934,3.117,0.852796,0.370863,3.269959,100276.73,-68,-92,+58
113603,14.096,0.203,1.986,0.854924,0.407046,3.644032,100278.52,-63,-99,+60
113612,20.265,20.907,-0.854,0.003549,0.229854,2.899079,100276.27,-59,-99,+60
113623,22.659,35.331,-3.909,-0.733956,0.167597,1.158016,100276.27,-59,-105,+61
113633,15.917,18.060,-5.154,-0.068818,-0.156458,0.626970,100282.14,-58,-109,+59
113643,12.858,-5.051,2.799,2.977510,-0.208073,1.735355,100279.48,-57,-106,+63
113653,15.682,-12.724,0.116,4.523289,-0.436348,3.504620,100275.41,-53,-103,+67
113662,14.314,-11.073,-3.814,3.195143,-0.452311,3.638179,100275.41,-53,-103,+67
113673,11.367,-8.284,-0.982,1.654685,0.068624,2.611207,100282.06,-49,-103,+70
113683,10.414,-3.729,6.805,1.117254,0.429395,2.602694,100278.56,-45,-106,+73
113693,7.860,-1.141,12.616,1.546667,0.551780,2.829372,100277.83,-38,-108,+77
113702,9.359,-1.181,9.886,2.091015,0.897119,2.592052,100277.83,-38,-108,+77
113713,12.131,-6.066,6.137,1.902116,0.992899,2.625574,100278.08,-32,-107,+80
113723,8.991,-8.474,5.230,1.251346,0.538477,2.684639,100278.08,-26,-107,+83
113733,5.405,-5.800,8.020,0.525548,0.551248,2.309501,100282.00,-21,-110,+85
113742,5.571,-5.204,6.305,-0.586561,0.657138,1.876896,100273.33,-21,-110,+85
113753,7.638,-6.673,2.333,-1.550212,0.578918,1.522511,100276.98,-16,-117,+84
113763,9.371,-5.844,0.588,-2.010487,0.506551,1.313392,100275.98,-14,-124,+81
113773,10.452,-3.466,0.946,-1.981753,0.504422,1.196860,100275.98,-10,-131,+79
113783,11.260,-1.476,1.277,-1.578946,0.468239,1.114915,100277.77,-10,-131,+79
113793,11.443,-0.740,1.432,-0.894121,0.405450,1.065961,100279.90,-6,-137,+78
113803,10.548,-0.932,1.520,-0.175772,0.338936,1.060640,100274.38,-4,-138,+78
113813,9.303,-1.667,1.718,0.331860,0.336808,1.045740,100274.38,-1,-138,+80
113823,8.717,-2.961,2.768,0.488300,0.385762,0.961667,100274.38,-1,-138,+80
113832,8.921,-3.843,3.090,0.274392,0.367670,0.841942,100280.46,+1,-138,+80
113843,9.086,-4.248,3.622,-0.145442,0.333615,0.707319,100277.63,+4,-140,+81
113853,8.969,-4.157,4.093,-0.656268,0.288918,0.570566,100277.57,+5,-142,+80
113863,8.816,-2.964,4.100,-1.104836,0.251138,0.452438,100277.95,+5,-142,+80
113872,8.804,-1.544,3.795,-1.358652,0.229854,0.365704,100277.95,+6,-147,+78
113883,9.080,-0.256,3.307,-1.357588,0.238367,0.329521,100274.33,+7,-151,+75
113893,9.681,0.564,2.735,-1.180396,0.276679,0.345484,100278.52,+8,-154,+74
113903,9.959,0.280,2.141,-0.891992,0.292111,0.397631,100272.81,+8,-154,+74
113913,9.953,-0.620,1.715,-0.503020,0.248478,0.489154,100275.31,+12,-157,+72
113923,9.813,-1.410,2.297,-0.185350,0.212826,0.581741,100278.09,+12,-158,+72
113933,9.412,-2.191,2.894,-0.089039,0.197927,0.614731,100281.33,+15,-159,+72
113943,8.975,-2.949,3.184,-0.208763,0.206973,0.613667,100281.33,+15,-159,+72
113953,8.833,-2.792,3.470,-0.431185,0.212294,0.597172,100275.00,+17,-161,+71
113963,8.826,-2.248,3.759,-0.617424,0.206973,0.594511,100277.09,+19,-163,+71
113973,8.898,-1.766,3.645,-0.644561,0.185689,0.614199,100277.09,+20,-165,+70
113983,9.097,-1.750,3.261,-0.573258,0.163340,0.653043,100280.11,+20,-165,+70
113993,9.227,-2.088,2.914,-0.475882,0.143652,0.686566,100281.58,+22,-167,+68
114003,9.135,-2.609,2.709,-0.405112,0.144716,0.729667,100274.94,+24,-169,+68
114013,9.105,-2.943,2.416,-0.414158,0.146312,0.754144,100274.52,+27,-170,+68
114023,9.153,-3.152,2.434,-0.472158,0.159615,0.784475,100278.23,+27,-170,+68
114033,9.324,-2.955,2.395,-0.557827,0.157487,0.817997,100280.10,+29,-172,+66
114043,9.282,-2.475,2.631,-0.592947,0.158019,0.861098,100276.45,+31,-175,+65
114053,9.127,-2.163,2.777,-0.594011,0.152166,0.921227,100276.29,+34,-177,+64
114063,9.057,-1.798,2.782,-0.576983,0.119175,0.997318,100276.29,+34,-177,+64
114073,9.042,-1.558,2.838,-0.501956,0.078735,1.101080,100276.29,+37,-180,+63
114083,8.890,-1.726,2.740,-0.373185,0.023927,1.211759,100275.24,+40,-182,+62
114093,8.820,-2.391,2.541,-0.266763,-0.022366,1.311263,100278.79,+43,-183,+61
114099,9.045,-3.065,2.388,-0.209828,-0.042054,1.363942,100275.80,+43,-183,+61
114108,9.345,-3.609,2.473,-0.210360,-0.062807,1.408107,100276.34,+47,-185,+61
114118,9.524,-4.136,2.592,-0.281662,-0.077174,1.448015,100276.34,+50,-187,+60
114128,9.598,-4.506,2.625,-0.391809,-0.083559,1.468236,100276.50,+50,-187,+60
114138,9.717,-4.477,2.691,-0.520047,-0.105908,1.479410,100276.45,+54,-189,+60
114148,9.770,-3.903,2.882,-0.665846,-0.156990,1.508676,100274.78,+57,-191,+56
114158,9.747,-3.340,2.812,-0.741405,-0.214458,1.559759,100273.83,+61,-193,+56
114168,9.985,-3.123,2.827,-0.706286,-0.282568,1.635318,100273.83,+61,-193,+56
114178,10.324,-3.340,2.928,-0.574855,-0.357595,1.707153,100277.05,+64,-196,+53
114188,10.693,-3.954,2.742,-0.432782,-0.423045,1.763024,100279.77,+69,-197,+52
114198,10.904,-4.649,2.545,-0.371057,-0.475724,1.801336,100278.30,+73,-199,+51
114208,10.878,-4.916,2.526,-0.385424,-0.515100,1.827942,100275.78,+73,-199,+51
114217,10.733,-4.980,2.473,-0.449809,-0.515632,1.857208,100275.78,+77,-200,+50
114228,10.690,-5.145,2.745,-0.543460,-0.494880,1.888602,100278.28,+81,-203,+48
114238,10.981,-5.396,2.649,-0.705222,-0.469339,1.918933,100281.42,+85,-205,+47
114248,11.343,-5.405,2.807,-0.968084,-0.443265,1.943410,100276.56,+85,-205,+47
114258,12.038,-4.863,2.796,-1.256487,-0.431559,1.974272,100275.83,+90,-207,+43
114268,13.432,-3.443,2.921,-1.554469,-0.435284,2.032272,100275.83,+95,-211,+40
114278,15.311,-1.577,3.485,-1.707184,-0.485302,2.114217,100280.43,+99,-215,+35
114288,17.425,-0.186,3.683,-1.664083,-0.541705,2.261611,100278.76,+99,-215,+35
114298,18.807,0.297,3.533,-1.567240,-0.506054,2.445189,100274.99,+106,-217,+31
114308,18.927,0.357,2.589,-1.569900,-0.436348,2.601629,100277.60,+113,-220,+26
114318,18.560,0.365,2.333,-1.657698,-0.396972,2.652180,100277.60,+120,-223,+21
114328,17.967,0.124,3.055,-1.659294,-0.369302,2.690492,100279.68,+120,-223,+21
114333,17.284,-0.927,3.683,-1.562451,-0.375155,2.792125,100272.84,+129,-225,+17
114342,17.034,-3.807,3.828,-1.284157,-0.442733,2.969317,100272.84,+137,-226,+15
114354,17.891,-4.592,5.134,-0.795680,-0.471999,3.203978,100274.77,+137,-226,+15
114363,18.981,-2.746,6.611,-0.500359,-0.441669,3.193336,100271.95,+147,-225,+12
114373,17.894,-1.220,7.824,-0.468965,-0.483173,2.962400,100271.95,+157,-224,+12
114383,15.180,-0.657,8.427,-0.491314,-0.699742,2.805428,100277.55,+164,-224,+11
114394,12.596,-1.159,7.697,-0.366800,-1.035503,2.719226,100274.13,+164,-224,+11
114403,10.131,-1.940,6.902,0.147750,-1.316457,2.608015,100273.18,+171,-223,+11
114413,7.524,-1.234,6.075,0.780429,-1.364879,2.314290,100273.18,+176,-219,+15
114423,7.319,0.069,2.422,1.039034,-1.429797,1.960437,100273.18,+179,-216,+19
114434,5.923,-3.284,1.031,1.190685,-1.546329,1.595942,100274.96,+179,-216,+19
114443,1.580,-12.610,3.305,1.541346,-1.501631,1.120236,100272.09,+181,-212,+25
114453,2.534,-9.791,4.046,1.532832,-1.400531,0.770640,100272.71,+181,-209,+31
114463,4.101,-4.046,3.653,1.097566,-1.251008,0.243319,100268.32,+179,-208,+35
114473,3.057,-0.863,2.514,0.603236,-1.326567,-0.540479,100268.32,+179,-208,+35
114484,1.953,1.101,2.448,0.446264,-1.330824,-1.159322,100275.94,+175,-208,+38
114493,1.858,1.485,2.381,0.579823,-1.381907,-1.357267,100276.14,+168,-209,+41
114503,1.511,0.481,2.147,0.880465,-1.555375,-1.473267,100274.03,+159,-209,+45
114513,1.088,-0.712,2.200,1.138006,-1.633063,-1.749964,100274.03,+159,-209,+45
114524,1.371,-1.626,2.277,1.193878,-1.614439,-2.176716,100275.91,+150,-209,+50
114533,1.882,-1.965,2.438,1.101823,-1.577191,-2.631670,100275.91,+139,-208,+55
114543,2.439,-1.664,2.643,1.025199,-1.529301,-3.031285,100277.21,+126,-208,+58
114553,3.045,-1.260,2.824,1.033713,-1.478751,-3.392587,100271.10,+126,-208,+58
114564,3.660,-1.497,2.970,1.153970,-1.426604,-3.709192,100270.99,+112,-207,+61
114569,4.087,-1.951,3.080,1.286465,-1.374457,-3.914587,100270.99,+97,-205,+66
114578,4.573,-2.652,3.178,1.389694,-1.314329,-4.109871,100276.02,+97,-205,+66
114588,5.167,-3.562,3.309,1.463126,-1.216421,-4.370605,100272.31,+81,-202,+71
114598,5.835,-4.210,3.475,1.454080,-1.115852,-4.620697,100271.42,+65,-197,+74
114608,6.490,-4.473,3.680,1.413107,-1.013155,-4.823962,100269.91,+49,-190,+77
114618,7.344,-4.617,4.002,1.404593,-0.890237,-4.987852,100269.91,+49,-190,+77
114628,8.363,-4.736,4.309,1.457804,-0.791797,-5.113430,100272.68,+33,-184,+82
114638,9.116,-4.907,4.600,1.515804,-0.709852,-5.186861,100269.49,+17,-176,+83
114649,9.958,-4.869,4.958,1.562630,-0.627375,-5.216659,100272.32,+3,-166,+87
114658,10.807,-4.736,5.337,1.610520,-0.554476,-5.216127,100273.46,+3,-166,+87
114668,11.420,-4.652,5.771,1.691401,-0.484238,-5.196971,100273.46,-10,-154,+90
114678,12.041,-4.680,6.319,1.812190,-0.385265,-5.189522,100274.34,-23,-140,+93
114689,13.015,-5.487,6.937,1.890942,-0.221553,-5.207968,100271.20,-34,-125,+96
114698,13.609,-6.475,7.425,1.827089,-0.094733,-5.260824,100272.25,-34,-125,+96
114708,13.343,-7.085,7.469,1.588704,0.018074,-5.347026,100270.20,-42,-111,+98
114718,13.191,-7.025,7.501,1.284869,0.206441,-5.400769,100270.20,-50,-95,+100
114728,13.645,-6.534,7.531,1.007107,0.432055,-5.351283,100269.58,-56,-82,+102
114738,14.120,-6.242,7.224,0.767658,0.654477,-5.237944,100270.31,-56,-82,+102
114748,14.402,-5.933,6.813,0.595255,0.860404,-5.134182,100273.14,-60,-68,+104
114758,14.885,-5.540,6.097,0.490429,1.041853,-5.018714,100269.84,-60,-54,+106
114768,15.632,-5.417,5.685,0.396778,1.172752,-4.816513,100269.84,-61,-43,+108
114779,15.547,-5.339,5.339,0.333989,1.216917,-4.605797,100276.59,-61,-43,+108
114788,15.075,-4.987,4.133,0.326007,1.208404,-4.360495,100276.17,-59,-31,+111
114798,14.904,-5.321,0.797,0.288227,1.079101,-4.086990,100276.55,-57,-21,+113
114808,14.716,-6.788,0.616,0.467016,0.719395,-3.701211,100277.84,-56,-11,+114
114819,12.896,-4.617,2.771,0.959218,0.413432,-3.245193,100277.84,-56,-11,+114
114828,9.624,-5.842,3.190,1.278484,0.424074,-2.822697,100275.73,-55,-1,+115
114838,7.270,-10.168,2.537,1.460997,0.595413,-2.229927,100277.09,-53,+9,+115
114848,5.073,-11.594,0.931,1.175254,0.635321,-1.398240,100277.35,-50,+15,+117
114859,5.466,-8.843,0.393,0.728282,0.576257,-0.409580,100276.66,-50,+15,+117
114868,7.368,-5.605,1.233,0.723493,0.465046,0.535447,100276.66,-49,+18,+118
114878,8.083,-4.295,2.248,1.151309,0.297432,1.268162,100280.37,-47,+19,+119
114888,7.559,-5.811,2.884,1.631804,0.197395,1.823153,100275.71,-47,+21,+118
114898,7.092,-8.168,3.002,1.997896,0.189413,2.318547,100280.41,-46,+21,+118
114909,7.120,-9.511,2.941,2.109107,0.262312,2.750620,100277.70,-46,+23,+120
114918,7.841,-9.709,2.930,2.024501,0.376716,3.128950,100277.70,-45,+25,+120
114924,8.722,-9.376,3.078,1.919676,0.459193,3.378510,100278.02,-45,+25,+120
114933,9.109,-8.891,3.474,1.798887,0.505486,3.586565,100278.02,-45,+25,+120
114944,12.026,-2.554,2.802,1.540814,0.535285,3.756308,100274.25,-43,+22,+121
114954,17.016,12.744,-1.694,0.595787,0.342661,3.261446,100274.41,-42,+17,+122
114963,20.790,26.911,-7.578,-0.308800,0.088312,1.937024,100276.39,-42,+17,+122
114973,16.927,18.637,-7.805,-0.064562,-0.101651,1.244217,100279.90,-43,+13,+122
114983,13.882,0.231,-2.911,2.210208,-0.373559,1.989171,100276.49,-45,+16,+122
114994,13.602,-14.228,1.201,4.112500,-0.504458,3.352968,100279.32,-45,+23,+120
115003,14.261,-13.816,-1.591,4.037473,-0.506586,4.159647,100279.32,-45,+23,+120
115013,11.274,-11.168,-0.740,2.312905,-0.106972,3.414161,100274.35,-47,+27,+119
115023,9.353,-6.613,4.939,1.251346,0.443230,2.744767,100274.35,-48,+25,+120
