40025,9.614,-2.340,1.097,0.048014,0.030144,-0.000400,99914.96,+85,+16,+168
40035,9.681,-2.269,1.069,0.043225,0.035997,-0.001464,99914.96,+86,+17,+173
40045,9.734,-2.194,1.083,0.042693,0.042914,-0.000400,99917.90,+87,+18,+169
40054,9.666,-2.183,1.084,0.051739,0.046639,0.000665,99917.43,+87,+18,+169
40065,9.621,-2.254,1.090,0.062381,0.049300,-0.001996,99916.02,+85,+17,+168
40075,9.593,-2.312,1.087,0.062913,0.046639,-0.001464,99916.18,+87,+16,+173
40085,9.575,-2.314,1.158,0.074620,0.045575,0.002793,99916.18,+87,+19,+168
40094,9.570,-2.322,1.156,0.092179,0.039190,0.009178,99919.79,+87,+19,+168
40104,9.585,-2.358,1.112,0.109739,0.037593,0.010243,99916.71,+86,+17,+169
40115,9.559,-2.389,1.120,0.102821,0.044511,0.005986,99916.02,+87,+17,+173
40125,9.499,-2.456,1.117,0.075684,0.054621,0.002793,99914.41,+87,+19,+169
40135,9.560,-2.409,1.120,0.047482,0.066859,-0.000932,99914.41,+87,+19,+169
40144,9.580,-2.426,1.164,0.013427,0.078034,-0.005721,99919.78,+87,+19,+170
40155,9.594,-2.419,1.153,0.000656,0.079098,-0.000400,99917.06,+87,+17,+173
40165,9.679,-2.262,1.280,0.002253,0.080694,0.007050,99915.44,+88,+19,+168
40175,9.670,-2.170,1.302,0.004913,0.080694,0.004389,99916.44,+87,+17,+168
40184,9.661,-2.090,1.358,0.004913,0.079098,0.007582,99916.44,+87,+17,+168
40195,9.620,-2.218,1.321,0.015023,0.078034,0.009711,99918.65,+89,+18,+174
40205,9.615,-2.399,1.254,0.018216,0.074309,0.010243,99915.46,+89,+19,+168
40215,9.614,-2.376,1.241,0.009702,0.069520,0.012903,99915.62,+87,+18,+168
40224,9.568,-2.293,1.255,0.023005,0.065795,0.017692,99913.26,+87,+18,+168
40235,9.541,-2.285,1.269,0.040564,0.063667,0.024078,99913.26,+89,+19,+173
40245,9.556,-2.302,1.257,0.050142,0.062602,0.028334,99917.01,+89,+19,+168
40255,9.565,-2.304,1.300,0.049078,0.064731,0.029931,99917.74,+89,+18,+170
40265,9.621,-2.327,1.281,0.039500,0.065263,0.028867,99916.96,+89,+18,+170
40274,9.656,-2.293,1.338,0.029390,0.068456,0.027270,99915.55,+89,+19,+173
40285,9.612,-2.308,1.378,0.020344,0.071116,0.026206,99915.55,+90,+20,+168
40295,9.602,-2.365,1.334,0.013959,0.071116,0.027270,99918.68,+89,+18,+169
40305,9.626,-2.479,1.346,0.008638,0.070584,0.024610,99916.96,+89,+18,+169
40314,9.637,-2.515,1.322,0.000124,0.070052,0.019821,99918.63,+90,+19,+173
40325,9.593,-2.474,1.310,-0.002536,0.070052,0.014500,99916.23,+90,+19,+168
40335,9.597,-2.435,1.299,0.004913,0.064731,0.015032,99916.23,+89,+17,+169
40345,9.612,-2.427,1.275,0.018748,0.062070,0.015032,99917.94,+89,+17,+169
40355,9.597,-2.414,1.288,0.030987,0.063135,0.018224,99915.53,+92,+19,+173
40365,9.560,-2.473,1.309,0.029390,0.063667,0.017160,99916.27,+90,+21,+167
40375,9.498,-2.492,1.323,0.019280,0.067924,0.013435,99917.67,+90,+18,+170
40385,9.495,-2.384,1.371,0.004381,0.072180,0.008646,99917.67,+90,+18,+170
40395,9.541,-2.267,1.376,-0.000940,0.072713,0.005986,99916.59,+92,+19,+173
40404,9.603,-2.239,1.434,0.007042,0.071648,0.005454,99915.86,+90,+21,+167
40415,9.661,-2.295,1.468,0.028326,0.068456,0.008646,99916.28,+90,+18,+171
40425,9.617,-2.402,1.397,0.048546,0.065795,0.010243,99915.55,+90,+18,+171
40435,9.585,-2.460,1.393,0.055464,0.067391,0.010775,99915.55,+92,+19,+173
40445,9.541,-2.474,1.355,0.047659,0.069875,0.007050,99917.47,+91,+21,+167
40455,9.532,-2.463,1.355,0.034179,0.073245,0.004922,99916.11,+90,+18,+170
40465,9.533,-2.412,1.390,0.024601,0.078034,0.002793,99916.20,+90,+18,+170
40475,9.568,-2.296,1.403,0.019280,0.081226,0.002793,99915.22,+92,+20,+172
40484,9.630,-2.256,1.469,0.023005,0.079630,0.004922,99915.22,+92,+21,+167
40495,9.659,-2.238,1.500,0.039500,0.076437,0.008114,99918.74,+92,+19,+171
40505,9.607,-2.323,1.511,0.053335,0.073777,0.013435,99917.38,+92,+19,+171
40515,9.535,-2.365,1.440,0.052803,0.074841,0.015032,99915.60,+94,+20,+173
40525,9.523,-2.352,1.504,0.046418,0.075905,0.013967,99916.45,+92,+21,+166
40535,9.551,-2.369,1.524,0.044821,0.075373,0.013967,99916.45,+92,+19,+171
40545,9.569,-2.401,1.485,0.049610,0.074309,0.016628,99919.95,+92,+19,+171
40555,9.570,-2.396,1.482,0.054931,0.072713,0.018756,99917.38,+94,+21,+172
40565,9.595,-2.412,1.511,0.062381,0.071116,0.020885,99914.82,+93,+21,+166
40574,9.581,-2.415,1.509,0.068234,0.069520,0.022481,99914.26,+92,+19,+171
40585,9.613,-2.497,1.472,0.062381,0.070052,0.022481,99914.26,+92,+19,+171
40595,9.552,-2.481,1.474,0.046418,0.072713,0.018224,99917.45,+95,+21,+173
40605,9.542,-2.366,1.506,0.030987,0.075905,0.016628,99920.21,+94,+21,+167
40615,9.568,-2.260,1.560,0.030454,0.074309,0.019289,99913.46,+94,+19,+171
40625,9.562,-2.230,1.620,0.044289,0.070052,0.027802,99913.26,+96,+22,+171
40635,9.580,-2.207,1.596,0.057060,0.064199,0.035784,99913.26,+96,+22,+171
40645,9.572,-2.306,1.630,0.073023,0.061538,0.044830,99919.45,+94,+22,+166
40655,9.526,-2.390,1.651,0.079941,0.060474,0.051747,99919.30,+94,+19,+171
40665,9.487,-2.393,1.633,0.073023,0.058878,0.060261,99914.13,+95,+22,+171
40675,9.486,-2.306,1.678,0.061849,0.059942,0.069307,99915.95,+95,+22,+171
40681,9.515,-2.257,1.664,0.055464,0.058878,0.077289,99915.95,+95,+21,+167
40690,9.566,-2.283,1.689,0.054931,0.057281,0.085802,99915.95,+95,+21,+167
40700,9.609,-2.335,1.688,0.054399,0.054621,0.097509,99915.98,+95,+21,+171
40710,9.568,-2.338,1.643,0.048546,0.052492,0.108683,99914.09,+97,+23,+171
40720,9.570,-2.292,1.670,0.048546,0.049832,0.118793,99916.72,+94,+23,+166
40730,9.520,-2.339,1.610,0.060253,0.049300,0.128903,99913.03,+94,+23,+166
40740,9.461,-2.407,1.571,0.073023,0.049300,0.142206,99917.11,+96,+21,+173
40751,9.491,-2.383,1.614,0.086858,0.045043,0.154444,99917.53,+97,+23,+171
40760,9.541,-2.262,1.697,0.102821,0.042914,0.164022,99917.53,+96,+23,+168
40770,9.506,-2.399,1.701,0.119849,0.045043,0.171472,99916.91,+96,+23,+168
40780,9.442,-2.482,1.630,0.121977,0.048236,0.173600,99914.34,+97,+23,+172
40790,9.509,-2.415,1.613,0.119317,0.054621,0.169876,99914.34,+98,+25,+171
40800,9.486,-2.625,1.610,0.128895,0.059410,0.166683,99918.16,+97,+24,+167
40810,9.325,-2.815,1.539,0.138473,0.067391,0.162426,99913.66,+97,+24,+167
40820,9.200,-2.703,1.667,0.139537,0.071648,0.154444,99914.97,+98,+24,+173
40830,9.219,-2.508,1.897,0.155500,0.064731,0.146463,99917.95,+99,+26,+171
40841,9.178,-2.630,1.898,0.187427,0.062602,0.139545,99914.64,+97,+25,+168
40850,9.178,-2.723,1.786,0.212436,0.063667,0.131032,99916.67,+98,+25,+173
40860,9.242,-2.569,1.697,0.222014,0.055153,0.122518,99916.31,+98,+25,+173
40870,9.277,-2.614,1.630,0.245427,0.056749,0.116665,99915.11,+99,+28,+170
40880,9.321,-2.766,1.515,0.274161,0.063135,0.111876,99915.11,+97,+27,+167
40890,9.263,-2.715,1.402,0.288528,0.079098,0.102298,99915.11,+99,+27,+173
40900,9.158,-2.918,1.217,0.284271,0.107832,0.092720,99917.03,+99,+27,+173
40910,9.187,-3.344,1.045,0.228931,0.143483,0.066646,99918.08,+101,+30,+170
40920,9.277,-3.409,1.193,0.143794,0.195630,0.028334,99917.08,+99,+29,+168
40930,9.068,-3.099,1.442,0.075684,0.244052,-0.007849,99917.92,+102,+29,+173
40940,8.985,-2.936,1.648,0.048014,0.272254,-0.034455,99917.92,+102,+29,+173
40950,9.303,-2.794,1.926,0.051739,0.285556,-0.057335,99917.37,+103,+31,+170
40961,9.535,-2.573,2.172,0.069831,0.291410,-0.073299,99917.12,+101,+29,+168
40971,9.544,-2.643,2.164,0.089519,0.291410,-0.077023,99915.18,+104,+29,+173
40980,9.514,-2.814,2.108,0.075152,0.294602,-0.082344,99915.18,+104,+29,+173
40990,9.680,-2.749,2.101,0.019280,0.303116,-0.094051,99917.66,+105,+31,+170
41000,9.746,-2.716,2.167,-0.026481,0.307905,-0.097244,99917.66,+104,+29,+168
41010,9.744,-2.758,2.183,-0.056279,0.299923,-0.098308,99916.20,+106,+29,+173
41020,9.933,-2.663,2.447,-0.077032,0.277575,-0.100436,99917.13,+106,+29,+173
41030,9.906,-2.757,2.768,-0.075435,0.250437,-0.102565,99916.09,+106,+31,+171
41040,9.670,-2.814,2.879,-0.089270,0.219043,-0.107886,99916.09,+105,+28,+168
41051,9.629,-2.747,2.833,-0.138756,0.184456,-0.117996,99917.20,+107,+29,+173
41060,9.736,-2.587,2.854,-0.190903,0.146144,-0.121188,99916.99,+107,+29,+173
41070,9.650,-2.253,2.860,-0.200481,0.105171,-0.109482,99916.57,+108,+29,+168
41080,9.497,-2.005,2.863,-0.165894,0.063135,-0.082344,99915.45,+106,+27,+168
41091,9.465,-2.053,2.930,-0.119601,0.010988,-0.046693,99918.01,+108,+27,+173
41100,9.437,-2.289,2.802,-0.096188,-0.028920,-0.018491,99916.49,+108,+27,+173
41110,9.344,-2.397,2.508,-0.100445,-0.051269,-0.004124,99916.49,+107,+29,+168
41120,9.283,-2.555,2.215,-0.108426,-0.059251,0.001197,99917.54,+105,+26,+168
41131,9.271,-2.632,1.952,-0.114812,-0.057654,0.001197,99915.71,+107,+26,+173
41140,9.228,-2.662,1.776,-0.114279,-0.045948,-0.001996,99915.71,+107,+26,+173
41150,9.216,-2.765,1.692,-0.107362,-0.028388,-0.006785,99917.35,+106,+27,+168
41160,9.234,-2.821,1.822,-0.102041,-0.015618,-0.016895,99918.20,+105,+26,+169
41170,9.241,-2.813,2.025,-0.098848,-0.007104,-0.031262,99917.09,+107,+25,+173
41181,9.174,-2.678,2.231,-0.092463,-0.002847,-0.042968,99917.46,+107,+25,+173
41190,9.165,-2.571,2.355,-0.090335,-0.008700,-0.046693,99917.46,+106,+27,+168
41200,9.240,-2.487,2.372,-0.088738,-0.017214,-0.045629,99918.87,+105,+25,+168
41210,9.201,-2.389,2.312,-0.087142,-0.019342,-0.032858,99915.65,+106,+24,+173
41221,9.279,-2.244,2.214,-0.095656,-0.019342,-0.009977,99918.59,+106,+24,+173
41230,9.490,-2.181,2.175,-0.098848,-0.024131,0.021417,99918.59,+106,+27,+168
41240,9.601,-1.984,2.251,-0.088738,-0.031581,0.059729,99918.59,+105,+24,+168
41250,9.552,-1.964,2.339,-0.054151,-0.045948,0.104958,99917.87,+107,+25,+173
41261,9.564,-2.198,2.282,-0.021160,-0.069361,0.149655,99915.77,+107,+25,+173
41271,9.572,-2.324,2.282,-0.019741,-0.093660,0.190451,99915.91,+105,+26,+168
41280,9.626,-2.269,2.367,-0.039252,-0.107673,0.224683,99915.91,+105,+24,+170
41290,9.662,-2.247,2.448,-0.053087,-0.125764,0.268316,99915.91,+106,+25,+172
41300,9.577,-2.245,2.567,-0.058940,-0.147581,0.316738,99918.33,+105,+25,+168
41311,9.602,-2.211,2.691,-0.073839,-0.176847,0.372077,99916.75,+105,+27,+168
41320,9.726,-2.232,2.636,-0.101509,-0.207709,0.442848,99916.00,+104,+25,+168
41330,9.655,-2.212,2.447,-0.157380,-0.233783,0.535435,99916.00,+105,+25,+173
41340,9.637,-1.972,2.238,-0.245178,-0.258792,0.661545,99915.04,+104,+27,+167
41351,9.800,-1.618,2.123,-0.329252,-0.294443,0.835013,99915.04,+104,+27,+167
41360,10.358,-1.312,2.009,-0.404279,-0.340737,1.070205,99915.20,+103,+25,+169
41370,11.809,-0.172,2.175,-0.505912,-0.404058,1.353820,99914.88,+105,+25,+173
41380,13.937,0.743,3.543,-0.550077,-0.531232,1.657654,99916.91,+103,+26,+166
41391,16.087,-0.170,4.199,-0.491545,-0.683415,1.962021,99916.91,+103,+26,+166
41401,18.004,-2.612,3.690,-0.402683,-0.814847,2.184975,99916.89,+101,+24,+170
41410,21.800,-5.055,3.373,-0.305839,-1.025562,2.279159,99915.53,+101,+26,+173
41420,28.117,-4.920,2.616,-0.113747,-1.188920,2.296186,99913.34,+97,+27,+168
41431,27.729,-4.036,0.601,0.012895,-1.047911,2.180718,99916.28,+97,+27,+168
41441,16.051,-6.244,-1.429,0.281610,-0.871782,2.079085,99917.28,+94,+23,+172
41450,6.212,-10.550,-0.050,0.548197,-0.783452,2.196150,99918.84,+93,+25,+176
41460,5.696,-12.257,0.632,0.759977,-0.938296,2.262131,99915.77,+88,+25,+171
41470,8.731,-13.085,0.800,1.138307,-1.139966,2.368553,99915.77,+88,+25,+171
41481,8.915,-14.254,2.186,1.480453,-1.111764,2.415379,99917.95,+84,+24,+176
41490,8.076,-11.928,2.707,1.469279,-0.942553,2.237654,99917.95,+81,+26,+179
41500,6.648,-9.596,2.288,1.020179,-0.798883,2.078553,99917.80,+77,+26,+174
41505,5.476,-7.934,2.105,0.705702,-0.711617,2.048223,99917.64,+77,+26,+174
41516,4.133,-6.915,2.378,0.602472,-0.594021,2.039709,99915.30,+74,+23,+179
41526,2.882,-6.478,2.639,0.509885,-0.464186,1.984902,99914.61,+74,+23,+179
41535,2.695,-5.886,2.797,0.343335,-0.363617,1.885397,99914.61,+72,+23,+182
41545,2.532,-4.726,2.663,0.057592,-0.283801,1.738003,99916.01,+69,+21,+176
41555,2.350,-3.726,2.141,-0.278169,-0.207177,1.562407,99915.27,+67,+17,+180
41566,2.046,-2.711,1.508,-0.541564,-0.145985,1.394260,99915.74,+66,+16,+182
41575,1.754,-2.097,0.768,-0.679380,-0.109269,1.230902,99913.02,+66,+16,+182
41585,1.542,-2.055,0.338,-0.696408,-0.094370,1.101600,99913.02,+63,+11,+176
41595,1.294,-1.986,0.052,-0.626169,-0.086388,0.964848,99920.09,+64,+7,+181
41606,1.009,-1.655,-0.255,-0.520811,-0.084260,0.800426,99917.37,+62,+7,+181
41616,1.075,-1.193,-0.495,-0.394169,-0.096498,0.636536,99915.07,+62,+7,+181
41625,1.420,-1.045,-0.664,-0.236665,-0.117783,0.490738,99912.60,+62,+5,+176
41635,1.724,-0.984,-0.918,-0.066390,-0.153966,0.359839,99912.60,+62,+3,+180
41646,1.579,-1.046,-0.856,0.112931,-0.177379,0.243307,99917.07,+61,+5,+181
41656,1.296,-1.245,-0.629,0.302895,-0.183764,0.117197,99915.49,+61,+5,+181
41665,1.146,-1.477,-0.389,0.469977,-0.181104,-0.030730,99915.45,+60,+5,+176
41675,1.039,-1.683,-0.155,0.587573,-0.172590,-0.189831,99916.29,+60,+6,+181
41686,1.002,-1.901,-0.099,0.656748,-0.155030,-0.351592,99916.29,+60,+10,+181
41696,1.088,-2.139,-0.020,0.661537,-0.129489,-0.516546,99920.48,+60,+10,+181
41705,1.378,-2.377,0.082,0.608326,-0.093306,-0.692142,99917.04,+60,+11,+176
41715,1.808,-2.481,0.229,0.517867,-0.058186,-0.876784,99916.51,+61,+14,+182
41725,2.271,-2.633,0.249,0.394417,-0.029985,-1.053977,99916.73,+62,+17,+181
41736,2.646,-2.839,0.307,0.288528,0.005135,-1.223188,99916.73,+62,+17,+181
41741,2.952,-3.024,0.494,0.225739,0.049300,-1.360472,99916.02,+62,+20,+176
41750,3.289,-3.225,0.722,0.162950,0.100382,-1.514252,99916.02,+62,+20,+176
41760,3.847,-3.462,0.817,0.034711,0.172217,-1.726564,99914.51,+64,+21,+181
41771,4.637,-3.450,0.861,-0.136628,0.223832,-1.933554,99915.82,+67,+25,+178
41781,5.544,-3.550,0.981,-0.264334,0.266401,-2.114472,99915.13,+67,+25,+174
41791,6.517,-3.775,1.138,-0.311160,0.304180,-2.281022,99916.06,+71,+27,+179
41800,7.510,-4.075,1.126,-0.306903,0.333446,-2.426820,99917.89,+71,+27,+179
41810,8.357,-4.428,1.150,-0.254224,0.375483,-2.538563,99915.59,+74,+31,+176
41821,9.302,-4.726,1.134,-0.169087,0.424437,-2.625297,99915.59,+76,+31,+172
41831,10.366,-5.160,1.401,-0.107362,0.487226,-2.693939,99915.13,+80,+33,+176
41840,11.582,-5.590,1.676,-0.125454,0.561189,-2.748746,99915.13,+80,+33,+176
41850,12.601,-5.943,1.929,-0.229747,0.668143,-2.775884,99917.53,+84,+36,+174
41861,13.572,-5.980,1.761,-0.422903,0.795318,-2.778013,99916.06,+88,+35,+170
41871,14.192,-5.602,1.905,-0.612334,0.944840,-2.743425,99916.44,+93,+34,+174
41881,13.991,-5.508,5.975,-0.667141,1.159281,-2.664141,99916.69,+93,+34,+174
41890,12.019,-8.862,22.622,-0.438866,1.865390,-2.598691,99916.69,+99,+36,+170
41901,33.675,-16.073,5.648,0.762637,0.950694,-1.304068,99914.49,+101,+37,+165
41911,57.648,-27.891,-25.655,1.215995,-1.226167,0.414646,99922.15,+100,+40,+170
41921,23.285,-0.998,-13.967,0.185830,0.656437,-1.241279,99919.37,+100,+40,+170
41930,-2.011,3.699,5.408,-2.548150,1.931372,-0.645317,99919.37,+102,+36,+167
41940,-4.399,10.792,8.283,-2.234205,1.171519,0.238518,99919.37,+103,+29,+166
41951,3.364,2.556,4.671,-0.815068,0.356859,0.086866,99915.02,+105,+27,+171
41961,6.821,-4.740,1.988,0.873316,0.131777,0.017160,99920.14,+105,+27,+171
41970,8.991,-6.946,4.525,1.164912,0.074309,0.261398,99915.48,+106,+32,+169
41976,8.861,-7.285,5.196,0.829151,0.048236,0.343343,99915.48,+105,+32,+166
41986,7.767,-5.479,4.286,0.477427,0.136566,0.217233,99915.48,+105,+34,+166
41996,7.236,-4.701,2.606,-0.030206,0.182859,0.060793,99919.54,+107,+34,+171
42006,8.491,-5.743,0.804,-0.367564,0.123795,-0.036583,99921.59,+108,+34,+167
42015,10.962,-4.506,0.209,-0.448444,0.189777,-0.128638,99920.16,+108,+34,+167
42025,11.844,-2.192,0.128,-0.221766,0.279703,-0.119592,99918.02,+106,+32,+166
42036,10.105,-1.508,0.200,0.237445,0.302584,-0.046161,99918.02,+108,+32,+171
42046,8.962,-2.734,1.162,0.574271,0.280768,0.009178,99918.82,+110,+34,+167
42055,9.715,-3.713,2.592,0.646637,0.240859,0.044830,99917.77,+108,+35,+166
42065,9.744,-3.805,3.416,0.583316,0.214254,0.053344,99917.15,+108,+35,+166
42076,8.451,-3.966,3.661,0.426876,0.200951,0.050151,99914.54,+111,+36,+172
42086,7.887,-4.131,3.052,0.202858,0.177006,0.034720,99914.54,+111,+37,+166
42095,8.763,-3.918,2.153,-0.013179,0.171153,0.013435,99919.24,+110,+36,+166
42105,9.709,-3.522,1.759,-0.188243,0.203612,0.023013,99918.09,+110,+36,+166
42116,9.818,-2.917,1.792,-0.321270,0.240859,0.076224,99916.79,+113,+36,+171
42126,9.644,-2.177,2.375,-0.381399,0.252034,0.153380,99916.68,+113,+36,+166
42135,9.441,-1.859,3.198,-0.321802,0.212125,0.241178,99916.68,+112,+35,+166
42145,9.062,-2.000,3.643,-0.145674,0.134437,0.328976,99916.95,+112,+35,+166
42156,8.821,-2.332,3.538,0.039500,0.051428,0.402408,99917.47,+114,+36,+171
42166,8.782,-2.972,3.113,0.147519,-0.014553,0.453490,99916.38,+113,+38,+166
42176,8.853,-3.358,2.806,0.194876,-0.056590,0.484352,99916.73,+113,+36,+167
42185,8.888,-3.386,2.700,0.214564,-0.099159,0.504573,99916.73,+113,+36,+167
42195,8.872,-3.678,2.240,0.249684,-0.115122,0.508829,99916.98,+115,+38,+171
42206,8.956,-4.197,1.935,0.261390,-0.116719,0.499784,99916.51,+114,+40,+166
42216,9.064,-4.282,1.877,0.204454,-0.101819,0.480628,99917.24,+112,+39,+167
42225,8.895,-4.151,2.131,0.136876,-0.083728,0.465197,99914.77,+112,+39,+167
42235,8.855,-4.091,2.359,0.077812,-0.081067,0.461472,99914.77,+115,+41,+171
42246,8.897,-4.002,2.641,0.029922,-0.087985,0.462004,99919.54,+113,+42,+166
42256,8.702,-4.002,2.747,-0.001472,-0.100755,0.476371,99915.66,+112,+40,+167
42266,8.533,-3.496,2.701,-0.024353,-0.117783,0.495527,99915.35,+112,+40,+167
42275,8.780,-2.654,2.695,-0.001472,-0.127893,0.518407,99914.37,+115,+42,+171
42286,9.193,-2.584,2.586,0.117188,-0.142260,0.549802,99914.37,+113,+43,+165
42296,9.456,-4.249,1.583,0.245959,-0.168333,0.579068,99917.95,+112,+43,+167
42306,9.328,-5.761,0.914,0.222546,-0.139067,0.558316,99917.68,+112,+43,+167
42315,8.811,-6.038,0.847,-0.013711,-0.049141,0.497655,99917.10,+113,+44,+170
42326,8.550,-5.454,1.037,-0.282426,0.050896,0.427949,99916.90,+113,+45,+165
42332,8.564,-4.965,1.406,-0.407472,0.099318,0.383784,99916.90,+113,+45,+165
42341,8.657,-4.427,2.019,-0.390977,0.109428,0.366224,99916.90,+112,+44,+167
42351,8.965,-3.756,2.486,-0.237197,0.090804,0.372609,99918.64,+115,+44,+170
42361,8.745,-3.893,2.725,-0.154188,0.082823,0.398151,99917.39,+113,+45,+165
42371,8.604,-4.166,2.821,-0.183454,0.070052,0.425820,99916.34,+113,+45,+165
42381,8.665,-3.510,3.187,-0.239857,0.025887,0.458279,99916.80,+113,+42,+168
42391,8.575,-3.071,3.121,-0.211656,-0.022003,0.517343,99918.16,+115,+44,+170
42401,8.606,-3.401,2.659,-0.107894,-0.065636,0.590242,99916.28,+113,+45,+164
42411,8.806,-3.560,2.563,-0.035527,-0.091709,0.662077,99916.28,+113,+45,+164
42421,8.706,-3.853,2.427,-0.016903,-0.095966,0.727527,99914.92,+114,+44,+167
42431,8.599,-4.368,2.138,-0.046169,-0.086388,0.778609,99918.05,+115,+45,+170
42440,8.714,-4.562,2.142,-0.114279,-0.077874,0.813728,99918.05,+113,+46,+164
42446,8.833,-4.467,2.282,-0.161637,-0.077342,0.833949,99916.27,+113,+46,+164
42456,8.870,-4.485,2.324,-0.176536,-0.085324,0.855765,99917.16,+113,+45,+167
42466,8.962,-4.784,2.201,-0.159509,-0.105544,0.884499,99916.18,+113,+45,+167
42476,9.107,-5.062,2.039,-0.149931,-0.131085,0.907912,99916.80,+116,+48,+169
42485,9.055,-5.013,2.023,-0.155252,-0.145452,0.923343,99916.80,+114,+48,+163
42496,8.762,-5.213,2.116,-0.168555,-0.150774,0.939838,99916.72,+114,+46,+167
42506,8.519,-5.548,2.111,-0.190903,-0.142792,0.948884,99916.88,+114,+46,+167
42516,8.524,-5.809,2.064,-0.216977,-0.138535,0.944627,99917.66,+115,+48,+170
42526,8.646,-6.062,2.143,-0.261674,-0.136939,0.935582,99914.31,+113,+49,+163
42535,8.904,-6.100,1.990,-0.347876,-0.129489,0.920682,99914.31,+113,+48,+167
42546,9.305,-6.166,2.246,-0.449509,-0.103416,0.919086,99918.53,+114,+49,+168
42556,10.111,-5.754,2.243,-0.565509,-0.086388,0.936114,99914.41,+114,+49,+168
42566,10.492,-5.361,2.321,-0.649405,-0.084792,0.976554,99916.75,+113,+48,+163
42575,10.578,-5.084,2.272,-0.657031,-0.105012,1.047325,99915.34,+113,+45,+168
42586,10.476,-4.770,2.231,-0.611270,-0.137471,1.129269,99915.34,+114,+46,+168
42596,10.434,-4.679,2.387,-0.511765,-0.207709,1.216003,99919.26,+114,+46,+168
42606,10.690,-4.847,2.438,-0.400554,-0.296572,1.306462,99918.15,+112,+44,+163
42615,10.672,-5.432,2.165,-0.297857,-0.356700,1.403838,99916.54,+112,+42,+168
42626,10.494,-6.119,1.773,-0.293068,-0.372131,1.463966,99916.54,+113,+44,+168
42636,10.635,-6.433,1.713,-0.411729,-0.374792,1.510260,99916.54,+113,+44,+168
42646,11.314,-6.124,1.909,-0.557527,-0.396608,1.545911,99917.83,+110,+43,+164
42656,11.627,-5.909,2.596,-0.652775,-0.407250,1.598058,99918.36,+111,+40,+168
42665,11.501,-5.857,3.088,-0.748022,-0.386498,1.669893,99913.70,+111,+39,+170
42676,11.527,-5.604,2.884,-0.901270,-0.356700,1.711930,99914.59,+111,+39,+170
42686,12.366,-5.420,2.653,-1.076866,-0.357764,1.740131,99914.59,+110,+36,+164
42696,13.808,-5.563,2.699,-1.200848,-0.430131,1.742792,99914.49,+111,+32,+170
42705,14.727,-4.835,2.434,-1.283325,-0.475360,1.749709,99915.02,+110,+31,+168
42716,14.532,-4.012,2.070,-1.363673,-0.458333,1.784297,99916.70,+110,+31,+168
42726,14.204,-3.704,1.621,-1.454664,-0.466847,1.860388,99916.54,+109,+25,+165
42736,14.605,-3.208,1.615,-1.495636,-0.530700,1.943930,99916.54,+112,+19,+169
42746,15.620,-3.237,1.984,-1.370591,-0.644039,2.041838,99914.86,+111,+17,+168
42756,16.873,-3.762,2.690,-1.102407,-0.761103,2.219562,99916.78,+111,+17,+168
42766,17.261,-3.876,3.310,-0.850187,-0.800480,2.365893,99913.59,+112,+12,+163
42776,16.198,-4.140,3.716,-0.701729,-0.759507,2.443048,99913.17,+115,+7,+168
42786,14.892,-4.901,3.848,-0.670866,-0.707360,2.452094,99913.17,+115,+4,+166
42796,14.126,-5.151,4.579,-0.633087,-0.658938,2.389838,99917.98,+115,+4,+166
42802,13.499,-5.027,5.141,-0.458554,-0.639250,2.378131,99918.60,+116,+0,+161
42811,13.262,-3.931,4.924,-0.196224,-0.637122,2.361636,99918.60,+121,-5,+166
42821,12.219,-1.680,4.917,0.177317,-0.594553,2.184443,99914.21,+121,-5,+166
42831,10.055,-0.367,3.953,0.416766,-0.559966,1.879544,99913.85,+122,-4,+164
42841,7.178,-1.974,2.216,0.491261,-0.540810,1.604976,99913.85,+124,-9,+160
42851,4.620,-6.213,1.573,0.406124,-0.468975,1.556021,99915.38,+127,-12,+165
42861,7.394,-6.555,0.757,-0.043509,-0.438113,1.444811,99915.05,+127,-12,+165
42871,8.003,-3.033,1.451,-0.327123,-0.318388,0.793508,99914.06,+128,-16,+162
42881,7.677,0.048,2.020,-0.311160,-0.317856,0.393362,99914.06,+129,-22,+158
42891,6.861,1.660,1.636,0.076216,-0.381709,0.123050,99914.06,+131,-27,+165
42901,6.006,1.620,1.001,0.542876,-0.449287,-0.173867,99917.70,+131,-27,+165
42911,5.408,0.343,0.580,0.972289,-0.462590,-0.428748,99916.66,+131,-30,+163
42920,5.065,-0.899,0.476,1.195775,-0.447691,-0.696399,99914.72,+130,-34,+161
42931,5.095,-1.783,0.418,1.212802,-0.429599,-1.015133,99914.41,+131,-38,+168
42941,5.433,-1.921,0.205,1.104784,-0.417893,-1.365793,99914.41,+131,-38,+168
42951,6.066,-1.686,0.269,0.989848,-0.405654,-1.696233,99917.48,+128,-41,+167
42961,6.523,-1.512,0.340,0.926527,-0.386498,-2.015499,99912.59,+125,-49,+165
42971,6.770,-1.734,0.289,0.886619,-0.382241,-2.321994,99914.61,+121,-56,+174
42981,7.086,-2.052,0.033,0.814252,-0.396076,-2.619444,99914.61,+121,-56,+174
42991,7.412,-2.052,-0.196,0.738160,-0.382241,-2.896141,99912.31,+115,-61,+173
43001,7.748,-1.874,-0.185,0.746674,-0.355104,-3.147829,99912.31,+107,-67,+173
43011,8.001,-1.867,-0.032,0.869059,-0.329030,-3.377700,99911.95,+99,-72,+182
43021,8.150,-2.103,-0.020,1.046784,-0.317324,-3.592140,99909.55,+99,-72,+182
43031,8.203,-2.758,-0.182,1.206417,-0.308810,-3.785828,99910.53,+87,-75,+183
43036,8.272,-3.296,-0.131,1.267610,-0.297636,-3.926305,99910.53,+76,-79,+186
43046,8.463,-3.745,-0.007,1.254839,-0.280608,-4.068378,99911.37,+76,-79,+186
43056,8.780,-4.009,0.351,1.171830,-0.249214,-4.265259,99910.27,+65,-79,+196
43066,9.143,-4.093,0.647,1.048912,-0.207709,-4.450965,99910.38,+51,-79,+196
43076,9.617,-4.138,1.035,0.936637,-0.157159,-4.616983,99907.76,+39,-77,+201
43086,10.221,-4.393,1.346,0.849371,-0.095434,-4.760653,99907.76,+39,-77,+201
43096,10.734,-4.901,1.499,0.742949,-0.033709,-4.888360,99911.13,+27,-75,+211
43106,11.296,-5.379,1.566,0.612050,0.027483,-5.000103,99911.82,+13,-69,+211
43116,11.702,-5.836,1.488,0.467317,0.093465,-5.089497,99914.07,+1,-65,+213
43126,11.865,-6.544,1.674,0.356638,0.178070,-5.113974,99913.02,+1,-65,+213
43136,12.127,-7.270,1.926,0.242766,0.276511,-5.116634,99913.02,-10,-58,+221
43146,12.575,-7.488,2.022,0.135812,0.373355,-5.142176,99912.62,-20,-46,+220
43156,12.976,-7.209,2.100,0.124106,0.468070,-5.177827,99914.02,-26,-35,+220
43166,13.297,-7.169,2.070,0.274693,0.554804,-5.142176,99911.37,-26,-35,+220
43176,13.517,-7.668,1.774,0.498711,0.622382,-5.032561,99910.79,-30,-23,+225
43186,13.585,-8.005,1.619,0.684417,0.671868,-4.905919,99910.79,-30,-8,+221
43196,13.514,-8.197,1.941,0.764766,0.687831,-4.762249,99911.71,-29,+2,+219
43206,13.404,-9.031,2.257,0.782325,0.650052,-4.554727,99914.63,-29,+2,+219
43216,13.323,-11.137,2.413,0.864802,0.584070,-4.284947,99913.70,-26,+15,+224
43226,12.991,-13.322,2.229,0.874380,0.522345,-3.986966,99916.37,-23,+27,+218
43236,12.192,-14.789,2.247,0.715812,0.505318,-3.667168,99916.37,-19,+34,+216
43246,10.797,-15.848,2.347,0.493922,0.525538,-3.280324,99918.67,-19,+34,+216
43256,9.301,-16.641,2.501,0.169335,0.588327,-2.788123,99918.20,-15,+42,+221
43267,8.549,-17.037,2.493,-0.189839,0.683575,-2.236857,99918.41,-8,+47,+215
43272,8.406,-17.070,2.251,-0.467068,0.736786,-1.812765,99916.63,-8,+47,+215
43281,7.826,-16.720,1.759,-0.699068,0.748492,-1.368986,99916.63,-3,+47,+215
43291,6.478,-15.726,1.286,-0.977362,0.702730,-0.761316,99916.63,+1,+46,+219
43301,6.097,-14.793,1.159,-1.113050,0.593116,-0.146198,99918.36,+7,+45,+214
43312,5.582,-14.237,0.996,-1.017802,0.427630,0.425820,99919.09,+7,+45,+214
43321,4.924,-13.729,1.509,-0.738976,0.255226,0.925471,99916.59,+10,+42,+213
43331,5.821,-11.591,2.677,-0.373417,0.104639,1.275600,99916.59,+13,+40,+217
43341,7.884,-8.443,8.475,0.122509,0.000878,1.528884,99920.29,+17,+42,+211
43352,14.783,0.076,13.316,0.239041,0.134437,1.433636,99920.29,+17,+42,+211
43361,33.985,8.251,-8.764,-0.883178,-0.733966,1.476737,99915.05,+19,+40,+210
43371,34.607,-9.763,-5.756,0.004381,-0.737158,2.941635,99920.34,+19,+36,+215
43381,19.755,-15.439,4.370,1.385206,-0.018278,3.861121,99919.24,+21,+40,+209
43392,9.639,-6.972,1.747,0.624821,-0.094725,3.564736,99923.78,+21,+40,+209
43401,0.539,0.720,0.164,-0.021160,-0.185893,3.307195,99923.78,+23,+38,+210
43411,-1.321,2.074,2.928,0.376326,-0.257195,3.009745,99920.97,+23,+37,+214
43421,4.258,-4.154,4.296,1.065408,-0.373728,2.730920,99918.67,+24,+40,+209
43431,9.253,-11.910,3.016,1.145224,-0.396608,2.610663,99916.26,+24,+40,+209
43442,14.768,-14.049,0.278,0.487537,-0.403526,2.603214,99920.07,+24,+40,+210
43451,14.503,-8.597,0.763,-0.257949,-0.161948,2.206792,99918.76,+24,+40,+213
43461,9.593,-4.903,0.550,-0.542096,0.098786,1.808241,99916.99,+24,+37,+207
43471,7.662,-4.136,0.652,-0.466004,0.103043,1.741196,99916.99,+24,+37,+207
43482,7.082,-3.204,1.282,-0.244114,0.123263,1.568260,99917.51,+27,+34,+209
43491,8.384,-3.575,0.892,-0.094059,0.136034,1.418205,99917.51,+28,+34,+213
43501,10.076,-4.455,0.727,-0.162701,0.169024,1.342113,99919.20,+28,+35,+207
43511,10.783,-4.114,1.139,-0.356921,0.263740,1.236224,99916.58,+28,+35,+207
43522,9.833,-3.738,1.613,-0.497931,0.357391,1.130334,99918.63,+30,+31,+209
43532,9.109,-3.184,1.836,-0.515490,0.364309,1.031361,99919.92,+30,+29,+213
43541,8.819,-3.504,1.897,-0.497931,0.352070,0.904719,99919.92,+32,+30,+207
43551,9.139,-3.976,1.598,-0.537839,0.357391,0.800426,99920.34,+32,+30,+207
43561,9.631,-3.757,1.741,-0.602756,0.401556,0.713692,99918.15,+34,+25,+210
43572,9.669,-3.304,2.228,-0.613931,0.429758,0.663141,99917.99,+35,+24,+213
43581,9.304,-2.982,2.478,-0.554866,0.426033,0.651435,99917.99,+36,+24,+208
43591,8.848,-2.299,2.834,-0.413857,0.420712,0.642389,99917.99,+36,+24,+208
43601,8.754,-2.291,3.273,-0.313288,0.385593,0.645050,99918.54,+38,+21,+210
43612,8.846,-2.952,3.191,-0.327123,0.335575,0.664206,99919.95,+40,+21,+213
43621,8.858,-3.165,3.198,-0.389380,0.287685,0.692939,99918.74,+40,+21,+208
43631,8.781,-2.467,3.248,-0.441527,0.238199,0.723802,99917.49,+40,+21,+208
43641,8.777,-1.479,3.520,-0.406408,0.197226,0.777545,99917.49,+42,+17,+210
43652,8.852,-1.024,3.519,-0.324995,0.142419,0.852572,99916.91,+42,+17,+213
43662,9.177,-1.148,3.286,-0.197289,0.089208,0.936646,99918.47,+42,+17,+207
43671,9.260,-2.069,3.125,-0.083417,0.045575,1.037215,99916.30,+42,+17,+207
43681,8.861,-2.171,3.312,-0.014775,0.032804,1.129269,99916.30,+44,+15,+211
43692,8.394,-2.078,3.582,0.045886,0.012052,1.214939,99915.59,+44,+15,+212
43701,8.427,-3.043,3.294,0.156564,-0.048076,1.337324,99915.59,+45,+17,+207
43711,8.782,-4.088,2.313,0.235317,-0.105012,1.440022,99917.27,+45,+17,+207
43721,9.325,-4.869,1.437,0.150179,-0.118315,1.499618,99917.31,+48,+15,+212
43731,10.104,-5.472,1.005,-0.069582,-0.096498,1.539526,99915.75,+47,+17,+212
43742,10.177,-4.941,1.341,-0.302114,-0.024131,1.553893,99915.75,+48,+16,+205
43751,9.770,-4.522,1.818,-0.435674,0.035997,1.586884,99919.35,+50,+13,+210
43761,9.542,-4.522,2.271,-0.435142,0.053557,1.635306,99918.84,+50,+13,+210
43771,9.388,-4.915,2.999,-0.426096,0.078566,1.658187,99920.04,+51,+13,+210
43782,9.344,-5.670,3.072,-0.489417,0.102511,1.666168,99917.27,+52,+12,+205
43792,9.438,-6.208,2.708,-0.607545,0.122731,1.647544,99918.80,+54,+9,+209
43801,9.800,-6.268,2.035,-0.746426,0.133905,1.620407,99918.74,+54,+9,+209
43811,10.641,-6.152,1.096,-0.841673,0.117410,1.615086,99916.34,+54,+7,+210
43822,11.338,-5.934,0.655,-0.866151,0.094529,1.643820,99916.34,+55,+5,+205
43832,11.794,-5.929,0.292,-0.842738,0.062070,1.699691,99915.55,+58,+0,+209
43841,12.058,-5.503,0.072,-0.806022,0.021630,1.768333,99915.55,+58,+0,+209
43851,12.266,-5.174,0.035,-0.774628,-0.045416,1.850810,99920.75,+59,+0,+209
43862,12.706,-4.993,0.614,-0.729930,-0.140131,1.971244,99919.13,+59,-3,+204
43871,13.206,-4.901,1.528,-0.698536,-0.219948,2.071104,99919.13,+62,-7,+209
43881,13.708,-4.947,2.190,-0.700664,-0.279544,2.180718,99916.88,+62,-7,+209
43891,13.953,-5.062,2.524,-0.790059,-0.280608,2.288737,99916.88,+62,-9,+209
43901,14.227,-5.001,2.804,-1.005031,-0.244957,2.393562,99917.79,+63,-12,+204
43912,14.433,-4.686,3.165,-1.321637,-0.186425,2.479232,99915.73,+67,-19,+209
43922,14.758,-4.236,3.352,-1.668040,-0.109801,2.540957,99918.60,+67,-19,+209
43931,15.765,-3.214,3.424,-2.040517,-0.016682,2.564369,99918.60,+68,-23,+208
43941,17.531,-1.953,3.391,-2.441728,0.029612,2.552131,99918.60,+71,-31,+202
43952,20.010,-0.486,3.788,-2.718957,-0.074150,2.523929,99916.71,+76,-41,+204
43962,22.102,-0.263,4.470,-2.607746,-0.321581,2.579268,99918.07,+76,-41,+204
43971,23.452,-0.575,5.452,-2.077232,-0.594553,2.867140,99915.98,+77,-49,+202
43981,22.664,-0.909,6.435,-1.362077,-0.820700,3.106589,99916.91,+80,-54,+197
43992,19.477,-3.724,6.267,-0.603288,-0.937764,3.301874,99916.91,+85,-60,+204
44002,16.586,-6.730,5.867,-0.160573,-0.899984,3.299213,99918.14,+85,-60,+204
44012,15.711,-5.616,5.712,-0.225490,-0.828149,2.999635,99914.42,+85,-62,+202
44021,15.445,-2.503,6.156,-0.264334,-0.840920,2.751672,99914.39,+88,-66,+199
44032,14.251,0.185,6.932,0.080473,-0.784516,2.466461,99914.39,+90,-71,+207
44042,11.269,2.331,3.662,0.381115,-0.772810,1.939673,99919.40,+90,-71,+207
44052,3.900,-3.150,2.820,0.504032,-0.661067,1.619343,99917.35,+87,-73,+206
44061,4.293,-9.814,5.300,0.325243,-0.501966,1.691710,99917.35,+87,-75,+205
44071,8.346,-2.947,3.344,-0.170151,-0.403526,0.466793,99917.98,+85,-82,+212
44082,7.249,1.075,2.312,-0.478243,-0.316260,-0.361702,99915.73,+85,-82,+212
44091,5.659,1.748,1.152,-0.512298,-0.293911,-0.617115,99915.73,+79,-85,+210
44097,4.738,1.909,0.439,-0.329784,-0.208241,-0.849647,99918.23,+74,-89,+207
44106,4.852,1.661,0.014,-0.023289,-0.127893,-1.088032,99916.72,+74,-89,+207
44116,4.859,1.194,0.097,0.408252,-0.017746,-1.416876,99915.05,+70,-95,+215
44127,4.753,0.867,0.474,0.755188,0.064199,-1.770729,99913.06,+61,-94,+215
44136,4.936,0.443,0.561,0.956325,0.091336,-2.092655,99913.06,+55,-94,+215
44146,5.327,-0.042,0.316,1.095738,0.117410,-2.419903,99912.35,+55,-94,+215
44156,5.883,-0.645,-0.124,1.168105,0.152529,-2.732783,99911.88,+48,-94,+224
44167,6.183,-1.057,-0.546,1.157995,0.196162,-3.049388,99910.21,+39,-90,+225
44177,6.583,-1.186,-0.337,1.112766,0.247245,-3.355884,99908.79,+32,-89,+226
44186,7.270,-1.065,-0.604,1.031353,0.264804,-3.628856,99908.79,+32,-89,+226
44196,7.753,-1.091,-1.029,1.039335,0.277575,-3.852874,99910.19,+23,-87,+236
44207,8.032,-1.654,-1.322,1.138307,0.293006,-4.024745,99908.98,+12,-83,+234
44217,8.215,-2.509,-1.398,1.247389,0.292474,-4.168947,99908.83,+4,-78,+238
44226,8.260,-3.413,-1.228,1.309646,0.279703,-4.331773,99909.94,+4,-78,+238
44236,8.418,-4.028,-0.816,1.277720,0.260547,-4.528121,99909.94,-3,-73,+247
44247,8.659,-4.332,-0.300,1.141500,0.251501,-4.745222,99911.61,-13,-65,+247
44257,9.068,-4.407,0.253,0.927059,0.264272,-4.958598,99912.77,-22,-61,+249
44266,9.741,-4.392,0.599,0.675903,0.291410,-5.150690,99910.05,-22,-61,+249
44276,10.507,-4.579,0.780,0.452417,0.330254,-5.295956,99910.47,-33,-54,+258
44286,11.223,-4.814,0.723,0.300234,0.368033,-5.416745,99910.47,-42,-46,+257
44297,11.983,-5.006,0.421,0.215629,0.402089,-5.517845,99916.72,-52,-40,+260
44307,12.781,-5.232,0.151,0.211904,0.419648,-5.579570,99911.44,-52,-40,+260
44316,13.374,-5.933,0.179,0.341739,0.423373,-5.599790,99913.73,-60,-29,+268
44326,13.830,-7.125,0.395,0.596619,0.410070,-5.583827,99911.80,-69,-17,+265
44337,14.219,-8.142,0.698,0.860546,0.377611,-5.567863,99911.80,-77,-3,+267
44347,14.562,-8.565,0.960,1.015922,0.325997,-5.568396,99914.08,-77,-3,+267
44356,15.049,-8.840,1.181,1.087224,0.270657,-5.520506,99914.97,-82,+15,+272
44366,15.650,-9.545,1.418,1.145756,0.212125,-5.363001,99914.66,-85,+34,+265
44377,15.859,-10.735,1.727,1.163316,0.149336,-5.117167,99912.72,-86,+54,+264
44387,15.415,-12.355,2.187,1.080839,0.112089,-4.836213,99912.72,-86,+54,+264
44397,14.045,-13.873,2.820,0.860013,0.150401,-4.527057,99916.72,-82,+71,+265
44406,11.967,-15.537,3.804,0.593959,0.313226,-4.146066,99917.81,-76,+85,+255
44417,9.978,-17.276,3.999,0.224142,0.542033,-3.698030,99914.41,-73,+93,+254
44427,8.513,-18.308,3.583,-0.252628,0.758602,-3.182416,99916.97,-73,+93,+254
44437,6.906,-19.030,2.641,-0.792187,0.909189,-2.620508,99916.97,-64,+99,+257
44446,6.380,-18.689,1.986,-1.399325,0.925685,-1.954839,99920.13,-57,+99,+251
44456,6.194,-18.077,1.454,-1.774462,0.810217,-1.194454,99918.30,-55,+94,+253
44467,5.596,-16.881,0.784,-1.836719,0.615997,-0.427684,99917.05,-55,+94,+253
44477,5.054,-15.344,0.446,-1.637710,0.394107,0.316206,99917.63,-50,+89,+258
44486,5.494,-12.843,1.322,-1.122627,0.161043,0.959526,99917.63,-51,+84,+251
44496,6.656,-9.584,7.863,-0.442059,0.103575,1.372444,99919.87,-53,+79,+253
44507,13.276,1.345,16.123,-0.100977,0.252566,1.211214,99915.79,-51,+78,+255
44517,30.653,5.539,-6.389,-1.622279,-0.713214,1.230902,99917.30,-51,+78,+255
44526,41.001,-11.577,-8.449,-0.662885,-1.305452,3.227378,99921.13,-57,+68,+249
44536,27.617,-19.813,4.328,1.737463,-0.335948,4.110681,99921.13,-61,+66,+251
44547,16.664,-16.596,3.503,1.034546,-0.208773,4.067580,99916.56,-58,+64,+252
44557,4.990,-5.976,2.502,-0.144078,-0.178975,3.988827,99917.77,-58,+64,+252
44567,-3.941,2.530,5.325,-0.375013,-0.180040,3.568461,99920.64,-61,+57,+246
44576,-3.589,-2.012,6.264,0.479023,-0.277416,3.064021,99917.98,-63,+51,+248
44587,7.439,-9.576,3.328,1.181408,-0.664792,2.996443,99917.98,-64,+52,+249
44597,14.925,-11.868,-0.525,1.036142,-0.987782,2.891617,99918.84,-64,+52,+249
44607,14.962,-9.472,-0.494,0.546069,-0.719067,2.487746,99917.33,-68,+50,+243
44616,11.830,-6.653,0.344,0.127298,-0.381709,2.214241,99917.80,-70,+45,+246
44626,8.914,-4.988,-0.004,-0.039784,-0.258260,2.067911,99917.64,-69,+42,+247
44637,7.307,-4.085,-0.122,-0.063729,-0.207709,1.893911,99917.64,-69,+42,+247
44647,7.276,-4.421,-0.287,-0.050426,-0.162480,1.732150,99919.52,-70,+39,+241
44657,8.752,-4.682,-0.197,-0.098848,-0.085856,1.566132,99919.20,-71,+35,+245
44666,10.324,-4.211,0.108,-0.278169,0.044511,1.412352,99918.89,-68,+33,+246
44677,10.632,-3.499,0.558,-0.353729,0.195098,1.278792,99916.91,-68,+33,+246
44687,9.828,-3.115,1.638,-0.410665,0.302052,1.207490,99916.91,-69,+29,+243
44697,9.062,-3.186,2.192,-0.579343,0.325465,1.113838,99918.14,-69,+26,+247
44706,9.044,-3.496,1.366,-0.731527,0.357923,0.979215,99918.56,-65,+22,+247
44717,9.778,-3.654,1.221,-0.856040,0.426566,0.873857,99919.50,-65,+22,+247
44727,10.311,-3.249,1.929,-0.899673,0.467538,0.805215,99915.89,-65,+18,+242
44737,9.909,-2.907,2.518,-0.803362,0.455832,0.788187,99915.89,-63,+13,+247
44746,9.164,-2.725,2.903,-0.621380,0.407942,0.778077,99918.64,-60,+11,+248
44756,8.670,-2.781,3.118,-0.449509,0.345153,0.769563,99916.97,-60,+11,+248
44767,8.454,-3.088,3.128,-0.329784,0.299923,0.770627,99920.36,-60,+9,+244
44777,8.349,-3.475,2.729,-0.328188,0.284492,0.758389,99917.23,-58,+5,+248
44786,8.434,-3.378,2.505,-0.393637,0.285024,0.737105,99917.23,-56,+4,+248
44796,8.610,-2.860,2.465,-0.386720,0.264804,0.736040,99919.43,-56,+4,+248
44807,8.651,-2.765,2.281,-0.270188,0.217446,0.774352,99918.59,-56,+1,+244
44817,8.587,-3.377,1.900,-0.140885,0.161575,0.827563,99918.16,-55,-1,+249
44827,8.352,-3.773,1.661,-0.063197,0.122199,0.857361,99920.05,-52,-1,+249
44836,8.124,-3.659,1.581,-0.047234,0.101979,0.884499,99920.05,-52,-1,+249
44847,8.341,-2.721,2.099,-0.024885,0.086015,0.916426,99919.23,-54,-3,+245
44857,8.846,-2.054,2.871,0.038436,0.039722,0.969104,99918.14,-53,-4,+249
44867,9.251,-2.326,3.256,0.168803,-0.004975,1.053710,99915.58,-49,-4,+249
44876,9.449,-3.794,2.905,0.267775,-0.043819,1.143636,99916.27,-49,-4,+249
44887,9.697,-5.144,1.824,0.195941,-0.064572,1.186205,99916.27,-52,-6,+245
44897,9.755,-4.953,1.712,-0.042977,0.014713,1.192590,99920.47,-49,-8,+251
44907,9.576,-4.890,1.834,-0.322334,0.087612,1.211214,99919.98,-48,-9,+249
44917,9.524,-4.579,1.916,-0.496866,0.124859,1.246334,99917.75,-48,-9,+249
44926,9.559,-4.373,2.105,-0.551142,0.138694,1.285178,99917.48,-49,-14,+246
44937,9.548,-4.520,2.105,-0.562848,0.133905,1.351691,99917.48,-46,-19,+250
44947,9.612,-4.648,2.393,-0.604885,0.114217,1.416609,99921.34,-43,-20,+248
44957,9.941,-4.452,3.063,-0.671398,0.058346,1.475141,99918.82,-43,-20,+248
44966,10.562,-4.271,3.417,-0.672463,-0.024664,1.546976,99916.16,-44,-27,+244
44977,11.279,-4.685,2.748,-0.633087,-0.105544,1.634242,99917.15,-40,-29,+248
44987,11.820,-5.099,2.091,-0.643197,-0.144388,1.723104,99917.15,-38,-32,+245
44997,12.243,-5.260,1.321,-0.712903,-0.173122,1.815691,99921.62,-39,-38,+241
45006,12.482,-4.770,0.826,-0.767178,-0.216223,1.921049,99920.41,-39,-38,+241
45017,12.663,-4.545,0.692,-0.753343,-0.290718,2.034920,99917.38,-35,-42,+245
45027,12.838,-4.370,0.716,-0.657031,-0.387562,2.161030,99916.55,-33,-46,+242
45037,12.971,-4.649,1.005,-0.564976,-0.491324,2.288204,99916.55,-33,-52,+238
45047,13.383,-4.636,1.609,-0.565509,-0.580718,2.411122,99920.18,-33,-52,+238
45057,14.005,-4.412,2.342,-0.640536,-0.629672,2.537232,99916.73,-30,-56,+241
45067,14.816,-4.052,2.927,-0.755472,-0.616902,2.657489,99917.05,-28,-60,+236
45077,15.892,-3.528,3.428,-0.957141,-0.531764,2.761250,99917.37,-25,-67,+231
45087,16.560,-3.551,3.838,-1.214150,-0.422149,2.846920,99917.37,-25,-67,+231
45096,16.881,-3.701,2.940,-1.556829,-0.283801,2.894810,99918.87,-19,-72,+234
45107,17.276,-3.095,1.673,-2.138957,-0.090645,2.849048,99917.77,-14,-79,+226
45117,18.879,-0.933,1.469,-2.726938,-0.040095,2.675581,99916.98,-10,-91,+221
45127,21.037,0.868,2.390,-2.778021,-0.222608,2.453691,99916.10,-10,-91,+221
45136,22.597,-0.978,3.883,-2.022957,-0.535489,2.632479,99916.10,-4,-99,+220
45147,23.351,-3.903,6.754,-1.084316,-0.820168,3.080516,99914.69,+0,-102,+213
45157,22.988,-4.867,7.592,-0.460683,-1.035140,3.275800,99915.52,+4,-106,+210
45167,20.438,-2.715,6.890,-0.261142,-1.221378,3.132131,99914.00,+4,-106,+210
45177,16.796,-1.071,6.692,0.267243,-1.358131,3.035819,99915.98,+9,-108,+213
45187,15.165,-1.967,6.349,0.889812,-1.479452,3.061360,99915.98,+12,-104,+209
45197,12.804,-1.363,7.285,1.328270,-1.407085,2.723470,99917.15,+13,-103,+209
45207,10.117,0.939,4.840,1.372967,-1.323011,1.959893,99915.15,+13,-103,+209
45217,3.903,-1.812,0.808,1.118619,-1.325672,1.359673,99915.68,+15,-100,+215
45227,2.725,-10.112,2.499,0.708362,-1.121342,1.495893,99918.02,+15,-97,+210
45237,5.720,-5.425,3.128,0.330564,-0.968094,0.603013,99918.02,+12,-98,+209
45247,5.327,0.450,3.618,0.148051,-0.828681,-0.405867,99916.92,+12,-98,+209
45257,3.663,2.667,2.747,0.092711,-0.832406,-0.835812,99917.03,+10,-97,+214
45266,2.159,2.256,1.595,0.176252,-0.751525,-1.180087,99916.50,+4,-95,+208
45277,2.310,0.642,1.176,0.374729,-0.652553,-1.520105,99916.92,-1,-93,+207
45287,2.438,-0.268,1.257,0.512014,-0.556773,-1.892582,99916.92,-1,-93,+207
45297,2.761,-0.158,1.287,0.535427,-0.473232,-2.283150,99916.90,-7,-90,+213
45307,3.362,-0.238,1.403,0.575335,-0.394480,-2.634875,99915.32,-14,-86,+207
45317,4.261,-0.589,1.174,0.620564,-0.347122,-2.977021,99914.70,-23,-83,+209
45327,5.029,-1.131,0.377,0.716876,-0.292847,-3.277131,99913.29,-23,-83,+209
45337,5.718,-1.483,-0.531,0.857353,-0.217287,-3.509131,99913.29,-29,-75,+213
45347,6.362,-1.876,-0.767,0.998362,-0.150774,-3.684727,99911.98,-38,-67,+209
45357,6.812,-2.320,-0.449,1.105316,-0.123636,-3.842764,99910.77,-47,-58,+211
45367,7.175,-2.830,-0.026,1.197903,-0.130553,-4.035388,99908.68,-47,-58,+211
45377,7.271,-3.731,0.389,1.236215,-0.119911,-4.250892,99909.21,-52,-46,+217
45387,7.196,-4.757,0.811,1.151078,-0.081067,-4.442451,99909.21,-60,-32,+212
45396,7.164,-5.145,1.315,0.970692,-0.014021,-4.590910,99912.86,-67,-20,+213
45407,7.673,-4.915,1.825,0.803078,0.058878,-4.718616,99911.19,-67,-20,+213
45417,8.524,-4.859,1.833,0.709426,0.128584,-4.843130,99910.45,-69,-5,+218
45427,9.466,-5.433,1.476,0.639188,0.200951,-4.936249,99910.88,-72,+10,+213
45436,10.462,-6.176,1.145,0.455610,0.268529,-4.992653,99910.88,-72,+26,+216
45447,11.328,-6.442,0.932,0.203390,0.320144,-5.046396,99914.46,-72,+26,+216
45457,11.704,-6.381,0.947,0.045886,0.372290,-5.067148,99913.62,-69,+42,+221
45467,11.969,-6.360,0.852,0.083133,0.411667,-5.011809,99911.85,-62,+59,+216
45477,12.431,-6.721,0.946,0.276289,0.444125,-4.919754,99912.57,-55,+73,+220
45487,12.822,-7.476,1.308,0.524252,0.469134,-4.833552,99912.57,-40,+87,+225
45497,13.026,-8.201,1.727,0.745078,0.493611,-4.733516,99913.52,-40,+87,+225
45507,12.872,-8.881,2.504,0.936637,0.522345,-4.620708,99914.83,-29,+100,+221
45517,12.554,-9.689,2.810,1.071261,0.521813,-4.503112,99913.16,-16,+110,+223
45527,12.553,-9.970,2.768,1.066472,0.539905,-4.374341,99914.05,-2,+119,+226
45537,12.709,-10.365,2.632,0.938766,0.550015,-4.219498,99914.05,-2,+119,+226
45547,12.303,-10.957,2.413,0.671647,0.542033,-4.043901,99915.61,+11,+127,+221
45557,11.583,-11.535,2.026,0.243298,0.537776,-3.852342,99916.66,+24,+131,+224
45568,11.067,-11.558,1.849,-0.270720,0.563850,-3.642691,99916.61,+38,+132,+227
45577,10.555,-11.480,2.101,-0.649582,0.630896,-3.382489,99917.08,+38,+132,+227
45587,10.145,-11.407,1.911,-0.858701,0.701134,-3.068012,99917.08,+51,+131,+222
45597,9.747,-11.470,1.674,-0.893288,0.743703,-2.676379,99916.70,+64,+129,+225
45607,9.433,-11.550,1.144,-0.806022,0.725611,-2.222490,99919.27,+77,+126,+228
45617,8.919,-11.869,0.790,-0.682573,0.662290,-1.714325,99917.81,+77,+126,+228
45628,8.143,-12.327,0.519,-0.567460,0.542388,-1.124570,99917.02,+85,+123,+222
45637,7.577,-12.695,0.549,-0.511765,0.420712,-0.618711,99917.02,+96,+119,+225
45647,6.764,-13.104,0.600,-0.433545,0.279703,-0.100436,99918.27,+103,+116,+228
45657,5.986,-13.038,0.467,-0.249435,0.129116,0.377931,99920.63,+103,+116,+228
45667,5.831,-12.204,0.696,0.108675,-0.053930,0.843527,99918.48,+108,+118,+222
45677,6.048,-10.794,2.627,0.567353,-0.219948,1.203765,99916.71,+113,+118,+224
45687,6.668,-9.894,10.090,0.979738,-0.166737,1.473544,99916.71,+118,+122,+223
45698,11.354,-6.219,16.281,0.953665,0.064199,1.441086,99915.64,+118,+122,+223
45707,28.952,-2.351,-2.339,-0.227087,-0.673305,1.756095,99915.08,+122,+126,+217
45717,39.174,-8.478,-9.714,0.015023,-1.103250,2.975690,99922.02,+121,+126,+221
45727,22.749,-14.495,-0.180,1.193646,-0.314663,3.658919,99919.52,+119,+131,+221
45737,11.491,-8.342,1.472,0.636527,-0.056590,3.707873,99919.52,+119,+131,+221
45747,0.495,0.996,2.739,-0.120665,-0.054994,3.473213,99918.77,+116,+134,+215
45757,-4.306,4.088,3.707,0.276821,-0.222608,3.033690,99914.59,+114,+135,+219
45767,0.847,-4.673,5.849,1.360729,-0.246021,2.777213,99916.47,+113,+141,+217
45777,10.004,-13.893,2.354,1.836967,-0.402461,2.858094,99914.53,+113,+141,+217
45787,16.300,-14.416,-1.073,1.107445,-0.563691,2.703782,99914.53,+110,+149,+210
45797,13.862,-10.298,-1.114,0.111335,-0.138535,2.168480,99919.34,+109,+151,+214
45807,10.683,-6.721,0.832,-0.582536,0.130713,1.951911,99918.87,+108,+151,+215
45817,8.089,-3.987,1.604,-0.759197,0.128052,1.822608,99916.98,+108,+151,+215
45828,7.075,-2.806,1.434,-0.569765,0.065263,1.644352,99914.99,+106,+151,+211
45837,7.815,-3.213,1.062,-0.235600,0.009392,1.521966,99914.99,+105,+150,+216
45847,9.684,-3.577,1.039,-0.034463,0.014713,1.441086,99921.64,+104,+151,+216
45857,10.485,-3.952,1.312,0.099629,0.101446,1.356480,99916.42,+104,+151,+216
45868,9.834,-4.004,1.761,0.193280,0.186052,1.280921,99918.83,+103,+152,+211
45877,8.703,-3.750,2.219,0.262986,0.206804,1.162260,99916.11,+102,+153,+215
45887,8.239,-3.827,2.337,0.265115,0.184988,1.042004,99916.11,+101,+155,+214
45897,8.791,-3.944,1.895,0.091647,0.163703,0.920150,99917.38,+101,+155,+214
45907,9.607,-3.605,1.713,-0.107362,0.205740,0.833949,99918.63,+101,+156,+210
45918,9.806,-3.148,1.813,-0.237197,0.241923,0.802554,99919.20,+101,+155,+215
45927,9.582,-2.518,1.803,-0.236133,0.262144,0.807875,99916.59,+101,+155,+215
45937,9.314,-2.247,1.676,-0.165362,0.266401,0.835013,99916.59,+101,+155,+215
45947,9.186,-2.482,1.651,-0.094591,0.266401,0.869068,99919.91,+100,+155,+211
45958,9.135,-3.204,1.746,-0.073307,0.273850,0.903123,99917.66,+101,+155,+215
45967,9.000,-3.687,2.031,-0.128646,0.285556,0.917490,99917.28,+101,+156,+214
45977,8.807,-3.735,2.272,-0.255289,0.298327,0.918554,99917.55,+100,+155,+211
45987,8.837,-3.437,2.296,-0.385655,0.305777,0.926004,99917.55,+100,+155,+211
45998,9.159,-3.191,2.086,-0.470793,0.299923,0.958994,99916.06,+100,+155,+217
46007,9.479,-2.954,2.091,-0.481967,0.293538,1.006884,99919.72,+100,+154,+215
46017,9.520,-2.909,2.486,-0.440463,0.285556,1.075526,99915.80,+99,+154,+212
46027,9.360,-3.282,2.573,-0.415986,0.264272,1.160132,99914.86,+99,+154,+212
46038,9.199,-3.771,2.565,-0.411729,0.258419,1.227178,99914.86,+100,+153,+218
46048,9.151,-4.053,2.541,-0.471325,0.239795,1.290499,99917.73,+99,+153,+217
46057,9.184,-4.036,2.532,-0.555931,0.233942,1.348499,99918.84,+97,+152,+213
46067,9.212,-4.191,2.483,-0.641068,0.233942,1.402774,99915.38,+97,+152,+213
46077,9.102,-4.626,2.505,-0.690554,0.245116,1.458645,99914.34,+98,+151,+220
46088,8.971,-4.965,2.695,-0.733123,0.249905,1.495893,99914.34,+97,+149,+218
46097,8.844,-5.361,2.730,-0.804958,0.238731,1.500150,99917.73,+95,+147,+217
46107,9.212,-5.578,2.401,-0.887435,0.262144,1.504939,99919.20,+95,+147,+217
46117,9.995,-5.672,2.105,-0.983747,0.290345,1.517177,99916.17,+96,+145,+223
46128,10.859,-5.622,1.880,-1.062499,0.300456,1.552829,99916.42,+94,+143,+221
46137,11.641,-5.251,1.389,-1.065692,0.272254,1.620407,99916.42,+92,+139,+220
46147,12.127,-4.869,1.063,-0.997582,0.223832,1.724700,99918.20,+92,+139,+220
46157,12.520,-4.585,1.363,-0.877325,0.175942,1.848150,99920.50,+93,+137,+227
46168,12.850,-4.641,1.921,-0.801233,0.084419,1.980113,99918.41,+91,+135,+224
46178,13.246,-4.863,1.930,-0.771435,-0.028388,2.116865,99914.23,+88,+133,+223
46187,13.514,-5.023,1.921,-0.770903,-0.108737,2.242975,99914.23,+88,+133,+223
46197,13.792,-5.086,1.760,-0.833160,-0.198663,2.363764,99919.33,+87,+129,+230
46208,14.260,-4.610,1.460,-0.947563,-0.269434,2.480296,99919.27,+84,+126,+227
46218,14.980,-4.047,1.333,-1.035894,-0.322645,2.587250,99917.81,+81,+122,+227
46227,15.420,-3.941,1.355,-1.100279,-0.354572,2.678241,99916.19,+81,+122,+227
46237,15.718,-4.187,0.953,-1.246077,-0.334883,2.733580,99916.19,+80,+116,+234
46247,17.085,-3.395,0.880,-1.598866,-0.280608,2.693672,99917.39,+78,+111,+232
46258,20.189,-1.112,1.232,-2.044774,-0.306682,2.528186,99918.02,+77,+102,+233
46267,24.330,1.340,1.400,-2.314553,-0.473764,2.267452,99917.48,+77,+102,+233
46277,27.304,2.277,2.281,-2.068719,-0.723324,2.244571,99917.28,+78,+93,+241
46287,25.163,1.035,4.586,-1.202444,-0.943085,2.598424,99917.28,+76,+87,+238
46298,20.948,-1.965,6.744,-0.103105,-1.108039,3.072002,99918.99,+76,+84,+238
46308,17.641,-4.899,6.991,0.489665,-1.168700,3.301874,99915.49,+76,+84,+238
46317,15.163,-6.040,6.394,0.506160,-1.090479,3.195984,99917.70,+77,+83,+244
46327,14.304,-5.778,5.860,0.246491,-1.015984,2.985268,99915.96,+76,+83,+240
46338,13.450,-5.903,7.185,0.325243,-0.902113,2.835746,99915.96,+78,+81,+239
46348,11.933,-3.665,8.037,0.233720,-0.707892,2.464333,99920.63,+78,+81,+239
46357,8.115,2.032,1.977,-0.387784,-0.723324,1.533673,99916.55,+80,+77,+244
46367,0.594,-4.322,4.257,-0.682041,-0.289654,1.154279,99916.55,+83,+73,+240
46377,6.047,-8.808,2.750,-0.642132,-0.243361,1.076591,99913.57,+87,+67,+239
46388,6.372,-3.271,2.584,-1.237563,0.024823,0.075160,99913.57,+87,+67,+239
46397,4.656,1.116,3.240,-1.467435,0.144547,-0.511225,99916.59,+92,+59,+246
46407,2.849,3.467,3.229,-1.389214,0.172749,-0.894876,99916.59,+96,+52,+241
46417,2.727,4.039,2.300,-0.994389,0.223832,-1.302472,99915.66,+101,+44,+241
46428,2.695,2.804,1.758,-0.425564,0.300456,-1.585022,99914.66,+101,+44,+241
46437,3.127,1.086,1.615,0.091115,0.356859,-1.854270,99914.66,+107,+39,+246
46447,3.662,0.150,1.329,0.426876,0.397300,-2.164490,99913.89,+112,+38,+241
46457,3.985,-0.520,1.117,0.587041,0.418584,-2.440655,99912.44,+117,+35,+241
46468,4.517,-0.733,0.738,0.736032,0.437740,-2.736508,99911.91,+122,+32,+246
46478,5.203,-0.470,0.332,0.896197,0.474455,-3.074398,99908.25,+122,+32,+246
46487,5.738,-0.549,0.120,1.079775,0.514364,-3.348434,99908.25,+126,+31,+241
46497,6.262,-1.040,-0.189,1.247389,0.516492,-3.565003,99909.31,+131,+27,+243
46508,6.758,-1.882,-0.281,1.375096,0.494676,-3.752306,99908.47,+136,+26,+248
46518,7.067,-2.915,0.039,1.462362,0.471263,-3.920984,99910.45,+136,+26,+248
46527,7.384,-3.538,0.485,1.450123,0.448914,-4.093388,99908.73,+139,+23,+243
46537,7.821,-3.756,0.914,1.311243,0.424969,-4.279094,99908.73,+142,+17,+246
46547,8.217,-4.145,1.219,1.121812,0.429758,-4.459479,99911.97,+143,+11,+252
46558,8.564,-4.676,1.443,0.899922,0.464345,-4.643057,99912.23,+143,+11,+252
46568,8.973,-5.245,1.500,0.661537,0.539905,-4.797369,99911.03,+143,+4,+248
46577,9.462,-5.424,1.530,0.423151,0.624510,-4.913369,99914.11,+142,-5,+252
46587,10.070,-5.329,1.564,0.281610,0.694749,-4.997974,99914.11,+140,-14,+258
46598,10.706,-5.429,1.535,0.274161,0.724547,-5.081515,99914.81,+140,-14,+258
46608,11.163,-5.379,1.250,0.400271,0.718694,-5.166121,99913.19,+135,-21,+254
46617,11.786,-5.249,1.006,0.610986,0.679318,-5.217735,99912.88,+131,-29,+260
46627,12.454,-5.329,0.814,0.842986,0.605354,-5.234763,99910.73,+126,-31,+266
46638,12.973,-5.747,0.938,1.060619,0.509043,-5.223588,99910.73,+126,-31,+266
46648,13.476,-6.330,1.309,1.286766,0.403685,-5.191662,99912.17,+121,-32,+264
46657,14.072,-7.071,1.549,1.486307,0.291942,-5.132066,99912.84,+116,-33,+270
46667,14.701,-7.843,1.818,1.624655,0.199355,-5.043203,99914.78,+113,-31,+277
46678,15.220,-8.776,2.292,1.698086,0.127520,-4.909112,99914.20,+113,-31,+277
46688,15.494,-10.041,2.902,1.696135,0.085483,-4.704604,99914.20,+108,-29,+274
46698,15.071,-11.333,3.377,1.601242,0.103575,-4.480231,99916.73,+104,-28,+281
46707,13.811,-12.563,3.951,1.413408,0.175942,-4.173204,99916.79,+103,-27,+286
46717,12.092,-14.221,4.426,1.258032,0.316419,-3.783700,99914.32,+103,-27,+286
46728,10.796,-16.323,4.434,0.964307,0.525538,-3.325553,99916.79,+99,-27,+283
46738,9.919,-17.868,3.942,0.388564,0.789464,-2.862086,99916.79,+99,-29,+288
46747,8.250,-18.014,3.462,-0.443655,1.044877,-2.408728,99916.82,+102,-34,+290
46757,7.281,-16.985,3.638,-1.256187,1.181097,-1.884068,99915.04,+102,-34,+290
46768,7.177,-16.176,3.359,-1.764884,1.133739,-1.260968,99920.59,+103,-43,+285
46778,7.087,-15.366,2.798,-1.872370,0.981024,-0.591573,99914.79,+106,-53,+288
46787,6.861,-13.946,1.895,-1.740939,0.769776,0.068243,99914.79,+110,-60,+287
46797,6.621,-12.688,0.896,-1.422737,0.539373,0.692407,99917.61,+110,-60,+287
46808,6.135,-12.292,-0.162,-0.918297,0.329722,1.241013,99919.91,+113,-67,+280
46818,6.886,-10.347,0.269,-0.388316,0.146676,1.630517,99916.25,+119,-70,+286
46828,8.903,-5.881,4.158,0.132619,0.006731,1.777911,99915.88,+124,-67,+286
46837,14.445,3.769,10.086,0.488069,-0.029985,1.678939,99915.88,+124,-67,+286
46848,30.449,17.708,-5.788,-0.301050,-0.842516,1.406499,99917.20,+127,-67,+282
46858,31.197,-1.920,-8.541,1.022307,-1.193709,2.555856,99918.04,+126,-66,+290
46868,22.434,-17.553,1.423,3.324746,-0.644571,3.817488,99917.09,+131,-50,+296
46877,13.109,-15.423,1.062,2.293517,-0.330094,3.541855,99918.35,+131,-50,+296
46887,2.989,-6.168,0.546,0.592894,-0.143324,3.182149,99918.35,+133,-40,+292
46898,-1.366,-5.200,5.707,0.292785,-0.007636,2.987929,99921.66,+136,-36,+299
46908,5.618,-10.509,5.503,0.858417,-0.140663,2.862351,99916.95,+140,-29,+299
46917,14.071,-11.990,1.980,0.618968,-0.641911,2.807544,99916.17,+140,-29,+299
46923,14.717,-10.240,-0.289,0.168271,-0.605195,2.555856,99915.53,+140,-27,+296
46932,12.280,-7.314,0.363,-0.200481,-0.306682,2.299379,99915.53,+140,-24,+301
46943,9.691,-5.090,1.138,-0.564976,-0.161948,2.195085,99915.53,+140,-24,+301
46953,7.663,-4.146,0.846,-0.568701,-0.150241,1.996076,99919.72,+142,-23,+300
46963,7.397,-3.658,0.777,-0.292004,-0.101287,1.729489,99919.14,+144,-24,+295
46972,8.496,-3.257,0.950,0.046418,-0.066168,1.534737,99918.63,+145,-21,+302
46983,9.593,-3.464,1.089,0.278950,-0.000719,1.392132,99918.63,+145,-21,+302
46993,10.089,-4.037,0.980,0.355041,0.103043,1.310719,99921.64,+148,-18,+300
47002,9.795,-4.023,1.545,0.238509,0.190841,1.250058,99921.64,+149,-17,+296
47012,9.056,-3.415,2.310,0.020344,0.223832,1.161196,99920.17,+150,-14,+302
47023,8.709,-3.550,2.557,-0.197821,0.204676,1.056370,99917.23,+150,-14,+302
47033,9.084,-3.694,2.391,-0.376610,0.208401,0.956866,99917.88,+153,-13,+299
47043,9.505,-3.318,2.302,-0.555398,0.231281,0.871196,99917.88,+154,-15,+296
47053,9.612,-2.551,2.040,-0.655435,0.256290,0.823306,99919.92,+156,-16,+301
47063,9.580,-1.953,1.830,-0.633087,0.280235,0.819049,99917.89,+156,-16,+301
47073,9.437,-1.794,1.699,-0.550609,0.302052,0.855765,99915.91,+159,-17,+298
47083,9.351,-2.024,1.693,-0.468132,0.314823,0.908976,99918.41,+159,-19,+293
47093,9.438,-2.517,1.978,-0.442591,0.323336,0.957398,99920.22,+162,-19,+299
47102,9.369,-3.123,2.308,-0.525068,0.345153,0.991453,99919.91,+162,-19,+299
47113,9.181,-3.417,2.574,-0.682573,0.373355,1.009545,99917.81,+165,-19,+295
47123,9.050,-3.292,2.861,-0.836884,0.381336,1.022315,99917.81,+167,-23,+291
47133,9.115,-2.840,2.817,-0.891692,0.361116,1.053710,99916.19,+169,-24,+296
47142,9.315,-2.704,2.926,-0.835820,0.320676,1.111178,99916.19,+171,-24,+296
47153,9.411,-2.945,3.009,-0.737380,0.264804,1.177691,99917.68,+171,-25,+293
47158,9.359,-3.153,3.139,-0.679912,0.236602,1.227710,99916.43,+174,-27,+289
47168,9.226,-3.422,3.344,-0.655967,0.208401,1.276132,99917.48,+174,-27,+289
47178,9.023,-3.686,3.452,-0.647986,0.175942,1.323490,99915.02,+175,-27,+294
47187,8.871,-3.720,3.466,-0.653839,0.155722,1.361801,99915.02,+178,-27,+290
47198,8.915,-3.765,3.302,-0.657031,0.132841,1.408627,99917.52,+179,-29,+288
47208,9.076,-3.966,3.083,-0.654371,0.119538,1.457049,99917.84,+179,-29,+288
47218,9.120,-4.307,2.906,-0.651710,0.113685,1.504407,99918.21,+182,-27,+293
47227,9.037,-4.740,2.553,-0.643729,0.103043,1.544847,99916.95,+184,-27,+288
47238,9.073,-5.211,2.134,-0.649050,0.095593,1.575710,99916.95,+185,-29,+286
47248,9.184,-5.508,1.743,-0.693215,0.100382,1.592205,99918.13,+185,-29,+286
47258,9.662,-5.354,1.381,-0.749086,0.089208,1.602315,99919.13,+188,-28,+290
47267,10.276,-5.097,1.248,-0.761325,0.055153,1.628921,99916.83,+189,-27,+285
47278,10.637,-4.940,1.338,-0.710774,0.016309,1.683728,99916.88,+190,-29,+283
47288,10.921,-4.690,1.517,-0.620848,-0.030517,1.756627,99916.88,+190,-29,+283
47298,11.073,-4.823,1.850,-0.529325,-0.087452,1.850278,99920.09,+192,-27,+290
47308,11.182,-5.226,2.284,-0.484096,-0.136407,1.938076,99917.48,+193,-25,+284
47318,11.269,-5.662,2.541,-0.509637,-0.169929,2.010975,99917.68,+194,-26,+284
47328,11.552,-5.792,2.452,-0.589453,-0.209306,2.071104,99913.66,+194,-26,+284
47338,12.037,-5.679,2.299,-0.691086,-0.229526,2.138682,99913.66,+194,-24,+290
47348,12.591,-5.662,2.022,-0.777288,-0.243893,2.218498,99918.54,+195,-23,+285
47357,13.168,-5.230,1.591,-0.862426,-0.254003,2.289801,99916.55,+195,-25,+284
47368,13.834,-4.859,1.681,-0.966719,-0.247085,2.366957,99917.02,+195,-25,+284
47378,14.887,-4.229,2.234,-1.165728,-0.233251,2.458480,99914.79,+195,-25,+290
47388,16.087,-4.000,3.070,-1.421673,-0.209838,2.556920,99914.79,+195,-27,+285
47397,17.939,-3.353,3.550,-1.684535,-0.182700,2.622370,99916.45,+196,-33,+285
47408,20.753,-2.232,3.787,-2.030939,-0.192278,2.602149,99915.20,+197,-33,+289
47418,23.769,-0.480,4.358,-2.332645,-0.277416,2.553195,99916.71,+197,-38,+289
47428,24.139,-0.325,5.377,-2.256553,-0.405122,2.617580,99913.04,+195,-44,+282
47437,20.667,-3.080,6.580,-1.589288,-0.571672,2.962388,99913.04,+195,-52,+283
47448,18.071,-5.822,6.904,-0.640536,-0.741415,3.356681,99918.31,+194,-50,+290
47458,16.435,-7.218,7.134,-0.226022,-0.722259,3.431708,99916.64,+194,-50,+290
47468,15.745,-5.692,6.756,-0.377142,-0.654682,3.204498,99913.77,+195,-48,+285
47478,14.536,-3.978,7.005,-0.329252,-0.582315,2.948021,99915.13,+194,-50,+287
47488,12.682,-1.984,8.044,-0.054151,-0.475893,2.581929,99915.13,+193,-49,+293
47498,10.500,1.784,5.535,0.109207,-0.441305,1.913067,99917.88,+193,-49,+293
47508,5.579,1.292,2.702,0.056528,-0.422149,1.305398,99914.94,+190,-49,+288
47513,0.917,-6.524,1.355,-0.227619,-0.284865,1.366058,99914.00,+190,-49,+288
47522,3.341,-7.007,0.393,-0.961930,-0.244957,1.055306,99914.00,+190,-54,+292
47533,7.461,-0.959,1.461,-1.670168,-0.017746,0.013435,99916.05,+186,-62,+295
47543,6.934,3.131,1.205,-1.718058,0.028015,-0.649573,99916.05,+184,-73,+286
47553,5.587,4.697,0.126,-1.235967,-0.012425,-0.969904,99914.80,+184,-73,+286
47563,5.303,3.544,-0.535,-0.448444,-0.054994,-1.185940,99914.95,+179,-84,+290
47574,5.755,1.985,-0.917,0.431133,-0.127361,-1.459977,99913.16,+173,-88,+296
47583,6.097,1.117,-0.876,1.099463,-0.214095,-1.784564,99913.16,+166,-89,+293
47593,6.016,0.265,-0.247,1.487903,-0.292847,-2.072435,99913.16,+166,-89,+293
47603,5.730,-0.421,0.023,1.714582,-0.343929,-2.396490,99913.39,+158,-91,+301
47612,5.551,-1.018,-0.024,1.842288,-0.353507,-2.708838,99915.95,+147,-87,+311
47623,5.573,-1.333,-0.270,1.874215,-0.338608,-2.971168,99910.83,+137,-85,+309
47633,5.900,-1.653,-0.548,1.897627,-0.348186,-3.196783,99912.08,+126,-82,+319
47643,6.550,-2.232,-0.684,1.939132,-0.385966,-3.406434,99912.08,+126,-82,+319
47653,7.347,-3.094,-0.507,1.942325,-0.451948,-3.595333,99909.40,+113,-74,+327
47663,7.947,-3.964,-0.190,1.864637,-0.524847,-3.782104,99908.35,+103,-68,+325
47673,8.362,-4.477,0.415,1.674674,-0.567415,-3.969406,99906.95,+90,-62,+332
47683,8.713,-4.601,1.183,1.401701,-0.565819,-4.139681,99906.95,+90,-62,+332
47693,8.862,-4.659,1.979,1.129793,-0.521122,-4.290800,99910.78,+80,-52,+337
47704,8.988,-4.855,2.567,0.891940,-0.448223,-4.388709,99909.63,+71,-47,+332
47713,9.325,-5.244,2.812,0.691335,-0.357764,-4.474910,99909.63,+64,-40,+335
47723,9.708,-5.833,2.858,0.516271,-0.250278,-4.567497,99909.78,+64,-40,+335
47733,9.939,-6.483,2.815,0.414638,-0.134810,-4.638268,99911.20,+61,-35,+335
47742,10.206,-6.538,2.535,0.400803,-0.035838,-4.693075,99911.20,+57,-34,+328
47749,10.549,-6.478,2.476,0.457739,0.030144,-4.725534,99914.26,+57,-34,+328
47758,10.955,-6.365,2.502,0.585445,0.089740,-4.746819,99911.38,+54,-31,+330
47768,11.384,-6.097,2.555,0.801481,0.148272,-4.756928,99910.45,+52,-25,+329
47778,11.780,-5.713,2.670,1.020179,0.182859,-4.751075,99912.16,+52,-25,+329
47788,12.079,-5.822,2.726,1.198967,0.199887,-4.716488,99912.16,+48,-24,+322
47798,12.017,-6.375,2.565,1.349022,0.227557,-4.670727,99919.04,+45,-15,+326
47808,12.030,-7.115,2.260,1.406490,0.265336,-4.620708,99915.23,+46,-8,+327
47818,12.369,-7.713,2.006,1.343169,0.298859,-4.569626,99911.40,+46,-8,+327
47828,12.858,-8.162,1.912,1.198967,0.327061,-4.498855,99912.09,+44,-2,+322
47838,13.174,-8.776,1.791,0.975481,0.337171,-4.408397,99912.09,+46,+5,+327
47848,13.190,-9.597,1.500,0.699316,0.345153,-4.290268,99916.03,+49,+8,+328
47858,12.874,-10.155,1.402,0.403995,0.357391,-4.148727,99913.00,+49,+8,+328
47868,12.153,-10.703,1.573,0.202326,0.379740,-3.929498,99912.69,+51,+8,+324
47878,11.692,-11.041,1.399,0.128363,0.410602,-3.627260,99915.08,+54,+9,+328
47888,11.428,-11.685,1.124,0.109207,0.433483,-3.269682,99915.08,+59,+7,+328
47898,10.702,-12.927,0.945,0.144858,0.427630,-2.838141,99918.27,+58,+3,+324
47908,9.624,-14.578,0.879,0.132087,0.402621,-2.342215,99917.95,+58,+3,+324
47918,8.463,-15.998,1.160,-0.015839,0.369630,-1.786160,99915.03,+62,+3,+329
47928,7.315,-16.122,1.761,-0.213252,0.327061,-1.182747,99915.70,+64,-1,+329
47938,5.637,-15.885,2.102,-0.363839,0.274914,-0.573482,99915.70,+62,-7,+325
47948,4.846,-15.484,2.280,-0.434610,0.201483,0.058133,99919.43,+62,-7,+325
47959,4.857,-15.295,2.422,-0.378738,0.126988,0.623233,99917.80,+67,-9,+332
47968,5.029,-14.833,2.478,-0.260610,0.041850,1.082444,99918.38,+69,-14,+330
47978,5.180,-15.317,3.902,-0.111087,0.010988,1.506535,99916.13,+71,-17,+328
47984,7.121,-10.786,9.572,-0.114812,0.082291,1.647012,99916.13,+71,-17,+328
47993,12.739,-1.423,16.544,-0.257417,0.320144,1.353820,99916.13,+77,-18,+333
48004,32.409,13.099,-3.943,-1.848425,-0.429599,0.967508,99918.43,+77,-18,+333
48013,38.515,-8.081,-6.992,-1.370591,-0.657874,2.706975,99917.49,+76,-31,+332
48023,22.816,-20.550,5.827,1.223444,0.044511,4.027671,99919.16,+77,-28,+328
48033,12.156,-12.861,2.627,0.635463,0.008859,3.619011,99916.52,+83,-24,+335
48044,0.826,0.836,1.126,-0.622976,0.038658,3.297085,99917.63,+83,-24,+335
48054,-2.821,5.739,4.438,-0.243582,-0.109801,2.999103,99917.88,+84,-27,+332
48063,2.372,-0.273,4.880,1.014857,-0.377452,2.727727,99917.88,+83,-25,+330
48073,8.821,-8.509,3.108,1.487371,-0.549856,2.590975,99916.63,+87,-15,+336
48083,12.754,-12.988,1.431,1.090949,-0.415232,2.558516,99914.38,+87,-15,+336
48093,14.703,-10.818,0.952,0.367280,-0.198131,2.414847,99914.38,+88,-12,+335
48103,12.007,-6.331,0.799,-0.199417,-0.019342,2.129636,99918.55,+88,-13,+332
48113,8.420,-4.143,0.679,-0.390444,0.060474,1.924241,99917.87,+92,-12,+336
48123,6.590,-3.754,1.249,-0.268591,0.061006,1.782168,99919.60,+93,-12,+333
48134,7.228,-4.176,1.005,-0.054151,0.044511,1.594866,99918.29,+93,-13,+333
48143,9.193,-5.023,0.516,0.034711,0.053025,1.449600,99918.29,+92,-13,+330
48153,10.459,-5.120,0.948,-0.025417,0.137630,1.334132,99916.95,+97,-11,+336
48163,10.288,-4.235,1.581,-0.145142,0.247245,1.236756,99917.60,+99,-13,+333
48174,9.169,-3.191,2.179,-0.152059,0.296199,1.138847,99916.80,+99,-13,+333
48183,8.339,-3.147,2.081,-0.107894,0.271722,1.034554,99916.80,+99,-13,+330
48193,8.530,-3.933,1.801,-0.115344,0.243520,0.963251,99916.80,+103,-12,+336
48203,9.389,-4.210,1.488,-0.238261,0.246712,0.893545,99917.54,+105,-14,+332
48214,9.893,-3.601,1.519,-0.434077,0.303116,0.812132,99918.12,+105,-14,+332
48219,9.943,-2.966,1.736,-0.576683,0.349410,0.779673,99918.63,+104,-16,+330
48228,9.811,-2.329,1.834,-0.648518,0.377079,0.782866,99915.93,+104,-16,+330
48238,9.504,-1.902,1.995,-0.620316,0.403685,0.798297,99915.93,+109,-17,+334
48248,9.351,-2.104,2.280,-0.537307,0.400492,0.838738,99919.81,+111,-20,+330
48259,9.229,-2.588,2.557,-0.462811,0.385061,0.893545,99919.50,+111,-23,+328
48268,9.182,-3.047,2.724,-0.405876,0.346217,0.956866,99918.45,+111,-23,+328
48278,9.077,-3.229,2.802,-0.416518,0.302052,1.015398,99913.64,+116,-21,+333
48288,8.980,-3.166,2.683,-0.468665,0.285024,1.062224,99913.64,+117,-25,+328
48299,9.007,-3.076,2.518,-0.529857,0.288217,1.109049,99915.38,+119,-25,+327
48308,9.200,-3.050,2.367,-0.579876,0.298327,1.167049,99918.10,+119,-25,+327
48318,9.512,-2.837,2.306,-0.605949,0.297263,1.239416,99915.76,+124,-27,+332
48328,9.676,-2.346,2.599,-0.583600,0.289281,1.332003,99917.37,+125,-29,+327
48338,9.595,-2.105,3.102,-0.528793,0.266401,1.450132,99917.37,+126,-31,+325
48349,9.340,-2.227,3.558,-0.461747,0.239263,1.581031,99916.01,+126,-31,+325
48358,9.029,-2.797,3.887,-0.405343,0.213722,1.698627,99916.49,+132,-30,+330
48368,8.631,-3.766,3.502,-0.385655,0.187648,1.790682,99915.70,+133,-32,+324
48378,8.385,-4.784,2.852,-0.405343,0.169557,1.858260,99915.07,+135,-31,+324
48389,8.369,-5.628,2.170,-0.466536,0.161575,1.879544,99915.07,+141,-31,+327
48398,8.755,-6.155,1.344,-0.597435,0.142419,1.880076,99917.59,+141,-30,+327
48408,9.380,-5.877,1.001,-0.724077,0.115281,1.883269,99916.08,+142,-32,+321
48418,9.817,-5.527,0.950,-0.752811,0.087612,1.909342,99916.75,+143,-33,+320
48429,10.094,-5.608,0.659,-0.691086,0.027483,1.968939,99916.91,+148,-33,+324
48438,10.494,-5.607,0.289,-0.604885,-0.066168,2.038113,99916.91,+148,-33,+324
48448,10.901,-5.516,0.570,-0.502720,-0.152370,2.115801,99919.46,+147,-34,+319
48454,11.157,-5.525,1.078,-0.431949,-0.211434,2.179122,99916.07,+147,-34,+319
48463,11.214,-5.867,1.692,-0.409068,-0.263049,2.232865,99916.07,+149,-34,+319
48474,11.299,-6.301,2.469,-0.402683,-0.300296,2.280755,99917.90,+150,-32,+322
48484,11.452,-6.690,2.824,-0.451105,-0.306150,2.306296,99915.38,+149,-34,+317
48493,11.634,-7.131,2.515,-0.529857,-0.300828,2.312682,99915.38,+149,-34,+317
48503,12.062,-7.047,1.912,-0.657031,-0.280608,2.307360,99918.75,+149,-34,+318
48514,12.608,-6.852,1.707,-0.786334,-0.244425,2.296718,99916.86,+151,-34,+320
48524,13.422,-6.591,1.203,-0.901270,-0.210370,2.302572,99916.81,+149,-38,+314
48533,14.646,-6.100,0.842,-1.053453,-0.168333,2.319067,99916.81,+149,-38,+314
48543,16.172,-5.757,0.658,-1.309930,-0.119911,2.345140,99916.81,+150,-41,+314
48553,18.546,-4.354,0.233,-1.743600,-0.059251,2.369085,99917.88,+152,-46,+315
48564,20.690,-2.020,0.683,-2.280498,0.004603,2.394094,99917.30,+151,-57,+307
48573,20.891,-0.577,0.698,-2.514094,-0.031049,2.411122,99916.89,+151,-57,+307
48583,20.181,0.436,0.055,-2.449177,-0.151306,2.281287,99915.31,+152,-66,+306
48593,18.749,-0.214,0.557,-1.966554,-0.354572,2.075361,99915.31,+153,-75,+304
48604,17.817,-3.217,3.154,-0.988004,-0.679691,2.150388,99918.92,+149,-81,+298
48614,17.228,-6.986,5.685,0.098564,-1.005874,2.492535,99916.95,+149,-81,+301
48623,15.183,-8.613,6.465,0.743481,-1.218186,2.648975,99915.42,+149,-80,+301
48633,13.465,-8.066,6.556,0.921206,-1.341103,2.687287,99915.42,+146,-75,+305
48644,12.900,-6.524,6.581,0.812124,-1.366112,2.578737,99918.14,+142,-74,+299
48653,11.052,-4.217,7.136,0.683353,-1.239470,2.256278,99918.14,+140,-71,+303
48663,9.378,0.431,5.229,0.393353,-1.071855,1.632113,99915.84,+140,-71,+303
48673,4.686,-0.244,2.876,0.007042,-0.898920,1.059031,99916.84,+136,-73,+305
48684,1.126,-6.371,4.242,-0.226022,-0.620626,1.217068,99915.69,+133,-77,+298
48689,5.847,-5.619,3.206,-0.455362,-0.641379,0.857361,99915.69,+133,-77,+298
48699,6.690,-2.740,2.463,-0.657031,-0.475360,0.185307,99919.46,+130,-81,+299
48708,5.987,-0.145,3.041,-0.949160,-0.350315,-0.327647,99916.07,+128,-89,+299
48718,4.394,1.154,2.943,-1.154554,-0.340737,-0.646913,99916.80,+128,-89,+299
48729,3.839,2.201,2.008,-1.069949,-0.291783,-1.084307,99915.65,+122,-99,+289
48739,3.589,1.809,1.468,-0.646389,-0.193342,-1.429114,99915.65,+117,-109,+291
48748,3.851,0.595,1.305,-0.138224,-0.128425,-1.715389,99915.34,+112,-114,+291
48758,4.317,-0.611,0.932,0.287463,-0.120975,-1.981444,99916.96,+112,-114,+291
48769,4.474,-1.946,0.477,0.632803,-0.109269,-2.253884,99915.40,+105,-121,+285
48779,4.708,-2.328,-0.134,0.883426,-0.068297,-2.597095,99913.30,+97,-125,+290
48788,5.098,-1.524,-0.749,1.053169,-0.025196,-2.956801,99913.30,+88,-127,+293
48798,5.561,-1.169,-0.982,1.234619,0.018969,-3.213278,99915.60,+88,-127,+293
48808,6.115,-1.830,-0.859,1.403298,0.038125,-3.380361,99913.35,+74,-129,+288
48819,6.252,-3.516,-0.385,1.477261,0.039722,-3.512324,99912.26,+62,-131,+294
48829,6.181,-4.950,0.243,1.390527,0.066327,-3.685792,99907.40,+48,-131,+298
48838,6.189,-5.327,0.998,1.146821,0.117942,-3.908214,99907.40,+48,-131,+298
48848,6.418,-5.123,1.807,0.923867,0.181795,-4.116268,99913.45,+31,-131,+293
48859,7.039,-5.060,2.148,0.757316,0.230749,-4.297185,99910.52,+14,-129,+299
48869,7.991,-5.099,2.004,0.617371,0.280768,-4.456286,99912.09,-2,-127,+299
48878,9.041,-5.247,1.719,0.503500,0.340364,-4.576543,99913.71,-19,-122,+294
48888,9.984,-5.560,1.436,0.436454,0.391446,-4.654763,99913.71,-19,-122,+294
48899,10.665,-5.816,1.106,0.444436,0.427630,-4.698396,99915.58,-36,-116,+300
48909,10.999,-6.215,1.000,0.530638,0.462749,-4.702653,99912.59,-51,-105,+301
48918,11.161,-6.999,1.254,0.644509,0.489887,-4.671259,99912.23,-65,-93,+296
48928,11.179,-8.055,1.725,0.684949,0.521813,-4.638800,99911.97,-65,-93,+296
48939,11.199,-8.569,2.122,0.580656,0.569703,-4.640928,99911.97,-74,-81,+302
48949,11.258,-8.375,2.384,0.373133,0.638877,-4.672855,99913.73,-83,-65,+304
48959,11.370,-7.605,2.359,0.150179,0.717097,-4.698928,99914.04,-89,-52,+299
48968,11.597,-6.808,2.264,0.028326,0.784143,-4.678176,99915.71,-89,-52,+299
48978,11.933,-6.778,2.150,0.024069,0.842675,-4.612727,99912.77,-92,-39,+307
48989,12.279,-7.405,1.776,0.000124,0.893226,-4.520140,99912.77,-91,-26,+306
48999,12.508,-7.553,1.333,-0.164298,0.942180,-4.446177,99916.48,-92,-15,+302
49008,12.563,-7.242,1.202,-0.373949,0.995923,-4.350397,99917.73,-92,-15,+302
49018,12.420,-6.975,1.135,-0.547949,1.034235,-4.215773,99914.02,-89,-6,+309
49029,12.008,-6.925,1.093,-0.677784,1.069886,-4.041241,99914.54,-85,+0,+309
49039,11.479,-7.087,0.982,-0.762389,1.106070,-3.828929,99914.54,-81,+5,+305
49048,11.190,-7.340,0.840,-0.817196,1.147574,-3.590012,99917.70,-81,+5,+305
49058,10.913,-7.683,0.811,-0.852316,1.195996,-3.323957,99916.97,-76,+9,+311
49069,10.506,-7.986,0.732,-0.841673,1.223666,-3.023847,99915.19,-70,+13,+309
49079,10.261,-8.206,0.260,-0.802297,1.206106,-2.684893,99916.97,-67,+16,+304
49088,10.060,-8.512,-0.271,-0.736316,1.140657,-2.319334,99916.97,-67,+16,+304
49098,9.724,-8.741,-0.586,-0.654903,1.017740,-1.933022,99919.83,-60,+17,+312
49108,9.429,-8.919,-0.680,-0.568701,0.857042,-1.524362,99917.38,-55,+19,+309
49119,9.151,-8.935,-0.603,-0.464940,0.684107,-1.094949,99917.38,-51,+21,+304
49129,8.831,-8.929,-0.434,-0.307967,0.501593,-0.676179,99917.48,-51,+21,+304
49138,8.245,-8.834,-0.086,-0.154188,0.306841,-0.263262,99917.48,-48,+21,+310
49148,8.185,-8.974,0.300,0.048014,0.113685,0.153912,99919.25,-44,+23,+307
49159,7.829,-9.385,0.535,0.301830,-0.049141,0.525325,99919.41,-44,+24,+303
49169,7.165,-9.926,0.614,0.493922,-0.176315,0.866407,99918.89,-44,+24,+303
49178,6.516,-10.379,0.647,0.653555,-0.266241,1.175031,99918.09,-43,+25,+308
49188,6.286,-10.237,1.244,0.837133,-0.341269,1.455985,99918.09,-44,+29,+304
49199,7.011,-8.546,4.177,1.079775,-0.356168,1.628388,99917.59,-46,+32,+302
49209,7.525,-7.183,13.218,1.298472,-0.097030,1.730554,99917.02,-46,+32,+302
49219,16.820,6.012,13.378,0.551922,0.119006,1.352224,99913.36,-44,+36,+310
49228,32.334,16.696,-4.940,-0.835288,-0.600938,1.039875,99915.70,-44,+33,+306
49239,27.814,-6.993,-6.289,0.932913,-0.743012,2.557452,99915.70,-46,+33,+302
49249,20.234,-20.040,-0.231,2.447297,-0.498241,3.588681,99921.63,-46,+33,+302
49259,11.613,-12.575,-0.128,0.883426,-0.218351,3.109782,99919.91,-45,+37,+307
49268,4.041,-0.269,2.407,-0.401619,-0.103948,2.770296,99917.04,-44,+32,+302
49280,1.446,1.652,4.163,0.205164,-0.230235,2.561532,99918.71,-45,+29,+299
49289,4.861,-2.881,4.086,0.890876,-0.310939,2.382388,99918.71,-45,+29,+299
49299,8.900,-8.036,4.073,0.899390,-0.302957,2.281819,99919.44,-43,+31,+305
49308,12.423,-9.491,2.681,0.427940,-0.343397,2.252553,99916.94,-44,+31,+299
49318,12.456,-7.913,1.206,-0.116940,-0.325306,2.043966,99918.23,-46,+27,+298
49329,9.942,-5.658,0.761,-0.445252,-0.192278,1.728425,99917.03,-46,+27,+298
49339,8.339,-3.650,1.073,-0.527197,-0.116719,1.516645,99917.03,-44,+23,+304
49349,8.659,-2.358,1.099,-0.389380,-0.077342,1.390003,99921.78,-44,+19,+299
49358,9.633,-2.589,1.079,-0.107894,-0.024664,1.352224,99916.66,-44,+16,+297
49369,10.312,-3.079,1.379,0.043225,0.045043,1.352756,99917.59,-43,+16,+304
49379,9.892,-3.633,2.013,-0.042977,0.108896,1.303269,99916.03,-43,+15,+304
49389,8.900,-4.631,2.105,-0.282426,0.128584,1.204829,99916.03,-42,+13,+299
49394,8.665,-4.862,1.844,-0.490481,0.134437,1.110646,99920.29,-42,+13,+299
49403,9.103,-4.332,1.704,-0.712903,0.144015,0.997306,99920.29,-40,+8,+297
49414,9.875,-3.173,1.559,-0.936921,0.176474,0.865875,99919.35,-39,+3,+304
49424,10.172,-2.163,1.856,-0.975765,0.234474,0.808407,99920.29,-38,+0,+298
49434,9.870,-1.782,2.221,-0.845398,0.258951,0.811600,99916.99,-38,+0,+298
49444,9.564,-1.861,2.495,-0.633619,0.247245,0.833416,99918.22,-37,-5,+296
49454,9.225,-2.364,2.791,-0.468132,0.221703,0.849912,99918.69,-35,-7,+303
49464,8.959,-2.784,2.994,-0.434610,0.199887,0.846187,99918.95,-34,-9,+298
49474,8.861,-2.897,3.107,-0.491013,0.189777,0.823306,99918.95,-34,-9,+298
49483,8.876,-2.594,2.994,-0.527729,0.174878,0.810004,99916.13,-33,-14,+297
49494,8.992,-2.254,2.931,-0.492609,0.148804,0.818517,99916.13,-31,-15,+302
49504,9.120,-2.140,2.881,-0.395766,0.120070,0.852572,99917.28,-31,-17,+295
49514,9.305,-2.167,2.864,-0.312756,0.085483,0.903123,99917.03,-31,-17,+295
49523,9.345,-2.233,2.776,-0.289876,0.059410,0.948884,99917.03,-30,-21,+297
49533,9.201,-2.305,2.776,-0.248903,0.048768,1.001031,99917.11,-28,-23,+301
49544,9.099,-2.642,2.940,-0.208995,0.025887,1.072334,99917.11,-27,-25,+294
49554,8.952,-2.973,2.948,-0.203674,0.010456,1.136187,99918.95,-27,-25,+294
49564,8.886,-3.190,2.979,-0.252096,0.016841,1.192590,99918.29,-26,-28,+296
49574,8.939,-3.311,2.956,-0.351068,0.038125,1.243673,99919.84,-23,-28,+300
49584,9.097,-3.227,2.919,-0.470793,0.064731,1.297948,99919.84,-23,-32,+294
49594,9.171,-3.385,2.860,-0.554334,0.090804,1.368187,99919.84,-23,-32,+294
49604,9.131,-3.804,2.659,-0.599031,0.120602,1.445875,99914.98,-20,-38,+294
49613,9.263,-3.933,2.507,-0.637875,0.132309,1.520902,99918.84,-16,-39,+299
49624,9.313,-4.192,2.402,-0.680976,0.126456,1.585820,99917.43,-15,-43,+291
49634,9.369,-4.471,2.345,-0.725674,0.126456,1.653930,99917.32,-12,-49,+293
49644,9.499,-4.443,2.465,-0.766646,0.122731,1.717251,99917.32,-12,-49,+293
49654,9.680,-4.222,2.495,-0.783141,0.084951,1.781636,99919.02,-7,-52,+296
49664,9.892,-4.219,2.345,-0.732059,0.034401,1.860388,99917.13,-5,-56,+288
49674,10.180,-4.750,2.003,-0.647986,-0.028920,1.948186,99916.58,-3,-62,+290
49684,10.807,-4.996,1.661,-0.603288,-0.081599,2.032792,99916.58,-3,-62,+290
49694,11.526,-5.036,1.551,-0.662353,-0.144920,2.118462,99918.91,+1,-64,+293
49704,11.988,-5.278,1.637,-0.720885,-0.199728,2.225415,99918.64,+2,-69,+285
49714,12.648,-5.097,1.439,-0.746958,-0.267306,2.334498,99918.64,+7,-73,+285
49724,12.984,-4.972,1.518,-0.775692,-0.337012,2.441984,99917.97,+7,-73,+285
49734,12.718,-5.757,1.503,-0.750683,-0.378516,2.550003,99916.97,+10,-76,+286
49743,12.394,-6.287,1.541,-0.761857,-0.366278,2.602681,99916.97,+13,-79,+277
49750,12.429,-6.222,1.466,-0.850187,-0.347654,2.596296,99920.10,+13,-79,+277
49759,12.678,-5.986,1.394,-0.972040,-0.343929,2.590975,99918.70,+17,-85,+278
49769,12.989,-5.735,1.454,-1.092829,-0.332755,2.594168,99917.65,+23,-88,+278
49779,12.953,-5.716,1.551,-1.180627,-0.293911,2.579801,99916.82,+23,-88,+278
49788,13.292,-5.520,1.584,-1.348774,-0.237507,2.540957,99916.82,+26,-93,+267
49799,14.786,-4.445,1.771,-1.677618,-0.182700,2.474975,99916.75,+32,-100,+267
49809,16.499,-3.492,2.128,-2.013379,-0.180572,2.415911,99918.73,+37,-104,+264
49819,18.899,-2.406,2.368,-2.248039,-0.281140,2.338755,99918.22,+37,-104,+264
49829,21.474,-1.893,2.849,-2.308700,-0.458865,2.266388,99916.02,+40,-111,+251
49839,23.214,-1.229,4.051,-1.980920,-0.715342,2.316938,99916.02,+46,-119,+248
49849,22.327,-1.312,6.216,-1.129545,-0.989911,2.484021,99918.13,+49,-120,+246
49859,18.701,-3.531,6.503,-0.158977,-1.187855,2.684094,99915.92,+51,-117,+238
49869,14.616,-6.113,5.318,0.493922,-1.259158,2.719746,99917.66,+51,-117,+238
49879,12.412,-6.955,5.262,0.692399,-1.203287,2.592039,99913.73,+56,-114,+241
49889,11.769,-5.317,5.333,0.604601,-1.121874,2.366425,99913.73,+58,-107,+241
49899,10.513,-2.684,6.429,0.432729,-0.962773,2.001930,99919.34,+61,-103,+233
49909,9.214,1.285,4.394,0.239574,-0.895195,1.436297,99917.05,+61,-103,+233
49918,4.081,1.288,2.363,0.053335,-0.860608,0.912169,99917.56,+62,-102,+238
49929,-0.168,-7.367,3.355,0.132087,-0.656278,1.090958,99916.47,+62,-98,+237
49939,6.183,-6.737,2.776,-0.004665,-0.578058,0.547674,99916.47,+62,-96,+229
49949,7.567,-0.089,2.890,-0.253692,-0.481214,-0.321262,99917.60,+62,-96,+229
49958,5.471,3.667,3.684,-0.079160,-0.440773,-0.872527,99914.57,+62,-96,+233
49969,4.155,4.312,3.562,0.339078,-0.418957,-1.155078,99915.71,+58,-93,+232
49979,4.073,3.067,2.733,0.929720,-0.411507,-1.461573,99914.98,+55,-88,+227
49989,4.328,0.247,2.565,1.394784,-0.364682,-1.691444,99914.98,+55,-88,+227
49999,4.437,-1.770,2.344,1.497481,-0.307746,-1.958031,99917.77,+53,-82,+234
50009,4.695,-2.767,2.086,1.276655,-0.232718,-2.302306,99916.52,+48,-75,+236
50019,5.187,-2.953,1.552,0.904711,-0.162480,-2.685425,99916.52,+44,-73,+231
50029,5.908,-2.394,0.904,0.559904,-0.099691,-3.041407,99910.71,+44,-73,+231
50039,6.821,-1.369,0.176,0.296509,-0.034774,-3.350563,99910.71,+42,-69,+236
50049,7.622,-0.572,-0.628,0.208179,0.016309,-3.611829,99911.69,+37,-66,+234
50059,8.361,-0.494,-1.126,0.284271,0.037593,-3.820948,99908.59,+32,-64,+229
50069,9.117,-1.448,-1.407,0.416766,0.018969,-3.967810,99912.20,+32,-64,+229
50079,9.527,-2.878,-1.254,0.571610,-0.001251,-4.076892,99910.95,+29,-60,+235
50088,9.399,-4.125,-0.511,0.728582,-0.004975,-4.183314,99910.95,+23,-56,+234
50099,9.108,-4.577,0.331,0.869059,0.006731,-4.323791,99913.64,+21,-52,+230
50105,8.976,-4.609,0.853,0.956857,0.025887,-4.450965,99911.72,+21,-52,+230
50114,9.097,-4.660,1.349,0.999958,0.051960,-4.560580,99911.72,+18,-46,+236
50124,9.545,-4.818,1.686,0.995701,0.083887,-4.671259,99909.20,+16,-39,+234
50135,10.279,-5.056,1.743,0.955793,0.116346,-4.760121,99910.61,+16,-39,+234
50144,10.859,-5.582,1.588,0.907371,0.162107,-4.826635,99914.34,+13,-35,+230
50154,11.193,-6.298,1.317,0.810527,0.219043,-4.863350,99912.98,+14,-31,+235
50164,11.604,-6.718,1.134,0.609922,0.287153,-4.905919,99912.46,+13,-29,+233
50174,12.019,-6.652,1.214,0.375262,0.360584,-4.952213,99910.59,+13,-29,+233
50184,12.511,-6.605,1.291,0.262986,0.419648,-4.963919,99910.59,+12,-32,+229
50194,12.824,-6.694,1.194,0.290124,0.457428,-4.943699,99910.59,+12,-32,+235
50204,12.934,-6.878,1.282,0.451353,0.497336,-4.898469,99915.12,+7,-34,+234
50214,13.012,-7.145,1.250,0.668454,0.527666,-4.819185,99916.26,+7,-34,+234
50220,12.974,-7.309,1.226,0.824894,0.540969,-4.743626,99915.27,+1,-35,+233
50229,12.945,-7.407,1.327,0.947280,0.532455,-4.645718,99913.34,+1,-35,+233
50239,13.031,-7.875,1.612,1.080307,0.499465,-4.479699,99913.34,-2,-32,+241
50249,12.976,-8.668,1.972,1.149481,0.436676,-4.279094,99916.58,-11,-27,+241
50259,12.699,-9.421,2.226,1.103720,0.343556,-4.050287,99915.22,-18,-22,+241
50269,12.200,-10.195,2.343,0.989848,0.274914,-3.795938,99915.69,-18,-22,+241
50279,11.469,-11.002,2.520,0.821702,0.272254,-3.494764,99915.73,-21,-14,+250
50289,10.568,-11.905,2.477,0.592894,0.335043,-3.161664,99915.73,-26,-7,+249
50299,9.729,-12.962,2.413,0.302895,0.451043,-2.813132,99917.98,-27,-3,+249
50309,8.922,-14.353,2.347,-0.087674,0.596309,-2.441187,99916.63,-27,-3,+249
50319,8.087,-15.172,2.244,-0.616591,0.731997,-2.032527,99918.05,-24,+0,+255
50329,7.596,-15.190,2.203,-1.130077,0.811281,-1.588215,99914.70,-25,+0,+254
50339,7.019,-14.910,2.237,-1.534126,0.806669,-1.045463,99914.70,-24,-7,+253
50350,6.723,-14.518,2.276,-1.721251,0.735189,-0.536234,99921.59,-19,-11,+259
50359,6.741,-14.027,2.026,-1.727104,0.614400,0.032591,99918.80,-19,-11,+259
50369,6.890,-13.449,1.482,-1.565875,0.463813,0.601417,99918.13,-19,-17,+256
50379,7.753,-11.652,1.045,-1.218939,0.272786,1.093618,99917.13,-17,-25,+255
50390,8.418,-10.278,2.518,-0.727270,0.103575,1.516113,99917.13,-14,-28,+260
50399,10.575,-2.748,9.721,-0.187711,0.034933,1.657654,99918.16,-14,-28,+260
50409,19.596,10.566,8.108,-0.186646,-0.138535,1.297416,99915.55,-14,-29,+259
50419,31.853,10.020,-8.566,-0.527729,-0.954791,1.530480,99919.01,-14,-34,+257
50429,27.584,-15.392,-3.075,1.487371,-0.827085,3.270479,99917.18,-11,-30,+264
50439,19.664,-20.210,0.397,2.256269,-0.391819,3.687653,99917.18,-11,-30,+264
50449,9.323,-10.607,-0.025,0.715280,-0.145985,3.141709,99918.04,-11,-27,+261
50459,1.643,-0.544,1.346,-0.076500,-0.048076,2.836810,99918.35,-7,-31,+260
50469,0.680,0.711,4.021,0.367280,-0.131085,2.546278,99915.32,-3,-31,+265
50480,5.197,-5.019,5.928,1.004747,-0.153434,2.376003,99917.10,-3,-31,+265
50489,12.029,-9.049,3.345,0.972821,-0.327966,2.421764,99917.10,-5,-29,+263
50499,14.599,-8.393,1.309,0.431133,-0.364150,2.366425,99919.14,-1,-30,+263
50509,11.650,-6.348,1.245,-0.065325,-0.186957,2.116333,99920.08,+0,-30,+267
50520,8.762,-4.886,1.407,-0.293600,-0.140663,1.913599,99918.19,+0,-30,+267
50529,7.422,-3.586,1.117,-0.248371,-0.156095,1.701288,99915.42,-1,-33,+263
50539,8.580,-2.779,0.653,-0.157912,-0.153434,1.566664,99915.42,+1,-36,+263
50549,9.753,-2.860,0.267,-0.041913,-0.064572,1.498554,99919.24,+4,-36,+267
50560,10.404,-2.966,0.591,-0.021692,0.067924,1.474609,99918.71,+4,-36,+267
50569,10.025,-3.331,1.171,-0.100445,0.166364,1.432040,99918.82,+3,-36,+263
50579,9.098,-4.093,1.505,-0.227087,0.209465,1.326682,99917.30,+7,-40,+264
50589,8.782,-4.150,1.624,-0.404279,0.241391,1.178756,99917.30,+10,-40,+267
50599,9.125,-3.622,1.673,-0.624041,0.285024,1.027104,99919.60,+10,-40,+267
50610,9.754,-3.020,1.798,-0.786866,0.328657,0.933985,99917.66,+10,-44,+262
50619,9.978,-2.584,2.016,-0.812940,0.351538,0.907912,99915.32,+14,-49,+262
50629,9.759,-2.126,2.268,-0.723545,0.349942,0.911105,99918.30,+17,-50,+265
50639,9.661,-1.698,2.682,-0.597967,0.327593,0.934517,99918.30,+17,-50,+265
50650,9.638,-1.850,3.007,-0.498463,0.294070,0.972297,99918.34,+16,-53,+260
50659,9.577,-2.480,2.998,-0.459087,0.261612,1.005288,99918.09,+21,-56,+262
50669,9.406,-3.088,2.836,-0.481435,0.244052,1.023912,99915.62,+24,-57,+264
50679,9.193,-3.188,2.634,-0.527729,0.229685,1.024976,99916.20,+24,-57,+264
50690,8.941,-3.146,2.606,-0.552738,0.217446,1.029765,99916.20,+23,-60,+259
50699,8.860,-3.083,2.548,-0.551142,0.199355,1.053178,99916.79,+29,-62,+260
50709,9.067,-2.760,2.622,-0.546353,0.186584,1.081912,99916.48,+30,-64,+262
50719,9.253,-2.663,2.931,-0.546353,0.183924,1.120756,99916.74,+30,-64,+262
50729,9.359,-3.019,3.216,-0.554334,0.179135,1.165985,99914.49,+30,-67,+257
50740,9.257,-3.422,3.328,-0.589453,0.185520,1.203233,99914.49,+35,-69,+257
50749,9.056,-3.568,3.286,-0.647986,0.197226,1.237288,99918.80,+37,-72,+260
50759,8.949,-3.608,3.039,-0.700132,0.197226,1.274003,99917.80,+37,-72,+260
50769,8.906,-3.840,2.617,-0.726738,0.186052,1.318168,99915.61,+39,-74,+255
50780,8.918,-4.078,2.092,-0.734719,0.175410,1.368719,99916.02,+44,-77,+255
50789,9.116,-3.964,1.755,-0.709178,0.156786,1.412352,99916.02,+46,-79,+257
50799,9.194,-3.858,1.624,-0.645325,0.112089,1.473012,99920.51,+47,-79,+252
50809,9.178,-3.926,1.589,-0.503252,0.036529,1.546621,99918.84,+47,-82,+252
50820,9.257,-3.992,1.619,-0.344151,-0.046480,1.607636,99918.37,+53,-84,+254
50829,9.313,-4.459,1.704,-0.162701,-0.138535,1.678407,99915.70,+54,-83,+255
50839,9.497,-5.320,1.533,-0.040316,-0.218351,1.737471,99915.70,+55,-84,+251
50849,9.846,-5.688,1.478,-0.037124,-0.244957,1.769397,99922.27,+55,-84,+251
50860,10.274,-5.640,1.572,-0.132371,-0.237507,1.801856,99917.19,+60,-84,+254
50870,10.792,-5.476,1.461,-0.292536,-0.232718,1.853471,99917.19,+60,-85,+255
50879,11.449,-5.221,1.439,-0.461747,-0.254003,1.926902,99917.56,+62,-87,+250
50889,12.054,-4.832,1.712,-0.564976,-0.289122,2.019489,99917.56,+62,-87,+250
50899,12.351,-4.765,1.982,-0.605417,-0.329030,2.126443,99917.53,+67,-88,+252
50910,12.601,-5.081,1.862,-0.624573,-0.367874,2.246168,99919.72,+69,-89,+252
50919,13.007,-5.213,1.703,-0.681508,-0.396076,2.347269,99915.55,+71,-93,+246
50929,13.577,-5.304,1.792,-0.802830,-0.410443,2.440920,99916.48,+71,-93,+246
50939,14.284,-5.176,1.652,-0.928940,-0.411507,2.521269,99916.48,+76,-94,+249
50950,15.304,-4.921,1.284,-1.110921,-0.399801,2.589911,99919.62,+78,-98,+248
50959,16.818,-4.348,0.842,-1.402517,-0.391819,2.660149,99917.05,+81,-102,+241
50969,19.049,-2.056,0.989,-1.780847,-0.373195,2.733048,99917.52,+81,-102,+241
50979,21.744,0.703,1.869,-2.128847,-0.417361,2.830424,99916.38,+88,-106,+241
50990,23.157,1.452,2.199,-2.290608,-0.581782,2.951213,99916.38,+89,-115,+238
51000,22.417,0.859,1.196,-2.175141,-0.781324,2.970901,99918.07,+93,-122,+230
51009,20.458,-0.525,1.819,-1.589820,-0.973415,2.891617,99916.60,+93,-122,+230
51019,18.780,-4.146,4.267,-0.473454,-1.210204,2.986332,99916.98,+98,-122,+232
51030,17.818,-8.383,6.133,0.551922,-1.395910,3.269415,99916.40,+98,-122,+234
51040,16.648,-9.356,6.996,0.852564,-1.402296,3.298149,99916.40,+101,-119,+233
51045,16.099,-7.381,7.444,0.827023,-1.349085,3.195452,99921.45,+101,-119,+233
51054,15.257,-4.327,8.124,0.870656,-1.252241,2.964516,99921.45,+105,-115,+239
51064,12.900,-0.854,8.780,0.996766,-1.085690,2.507434,99917.74,+103,-113,+242
51075,10.049,1.774,5.562,0.905243,-1.012259,1.821544,99917.37,+103,-113,+242
51085,2.694,-3.780,3.450,0.441775,-0.843048,1.367123,99915.49,+101,-111,+239
51095,0.295,-11.139,5.274,-0.362243,-0.556241,1.487379,99919.55,+104,-111,+244
51104,5.791,-3.094,3.880,-1.258848,-0.482278,0.331637,99916.52,+97,-119,+242
51115,5.481,1.153,3.986,-1.710077,-0.265177,-0.688417,99916.37,+97,-119,+242
51125,4.231,1.633,3.015,-1.835122,-0.272095,-0.979482,99916.37,+93,-125,+236
51134,3.586,2.185,0.996,-1.714866,-0.239104,-1.315243,99915.16,+89,-131,+238
51144,3.923,1.549,0.410,-1.333343,-0.134810,-1.648343,99915.16,+78,-139,+235
51154,4.143,0.520,0.349,-0.788995,-0.045416,-1.924508,99919.72,+78,-139,+235
51165,4.604,0.646,0.235,-0.250500,-0.002315,-2.242710,99917.00,+73,-141,+233
51174,5.032,0.828,0.683,0.285335,0.018437,-2.522600,99910.36,+66,-143,+241
51184,5.618,0.808,0.767,0.831812,-0.003911,-2.786526,99911.92,+53,-145,+244
51194,5.823,0.217,0.781,1.312839,0.001942,-3.008416,99911.92,+53,-145,+244
51205,5.902,-0.589,1.079,1.630508,0.020034,-3.175498,99914.75,+44,-138,+247
51215,6.050,-1.161,1.341,1.839095,0.030144,-3.356948,99909.97,+35,-134,+259
51225,6.376,-1.496,1.560,2.016288,0.038125,-3.573517,99908.34,+18,-128,+266
51234,7.022,-1.718,1.569,2.187627,0.043979,-3.762948,99908.34,+18,-128,+266
51245,7.639,-1.986,1.626,2.357370,0.049832,-3.916195,99908.34,+10,-116,+272
51255,8.103,-2.552,1.451,2.459535,0.026951,-4.042837,99907.63,+0,-104,+286
51264,8.473,-3.537,1.073,2.360563,0.008327,-4.152984,99908.32,-15,-92,+292
51274,8.940,-4.739,0.728,1.998728,0.011520,-4.281754,99908.74,-15,-92,+292
51284,9.273,-5.648,0.800,1.433628,0.057281,-4.470654,99908.37,-21,-76,+297
51295,9.528,-6.017,1.351,0.800949,0.145079,-4.654763,99908.37,-28,-65,+307
51305,9.819,-5.992,1.867,0.212436,0.269593,-4.827699,99916.62,-38,-56,+311
51314,10.208,-5.717,2.271,-0.260078,0.410070,-4.987332,99912.54,-38,-56,+311
51324,10.687,-5.390,2.322,-0.555398,0.541501,-5.121424,99914.10,-38,-46,+312
51335,11.439,-5.241,2.385,-0.591050,0.661758,-5.209754,99914.10,-40,-40,+320
51345,12.232,-5.293,2.006,-0.371821,0.743171,-5.234763,99915.77,-44,-32,+319
51354,12.869,-5.661,1.480,0.023005,0.787336,-5.175699,99915.77,-44,-32,+319
51364,13.462,-6.635,1.079,0.562032,0.801703,-5.066084,99913.83,-39,-22,+317
51375,13.954,-7.658,0.838,1.027628,0.759666,-4.964451,99913.09,-36,-9,+319
51385,14.164,-8.407,0.679,1.300600,0.666015,-4.852708,99915.66,-35,+3,+311
51394,14.276,-9.381,0.567,1.416068,0.545758,-4.689351,99915.66,-35,+3,+311
51404,14.212,-10.576,0.892,1.408087,0.444125,-4.476507,99917.06,-27,+12,+304
51415,13.682,-11.633,1.359,1.276123,0.382933,-4.238122,99917.69,-24,+17,+300
51425,12.839,-12.479,2.013,1.060619,0.367501,-3.957168,99914.19,-25,+21,+291
51435,11.927,-13.091,2.632,0.890876,0.397832,-3.623535,99916.59,-25,+21,+291
51445,10.882,-13.923,2.974,0.775940,0.443061,-3.270746,99916.93,-20,+20,+286
51454,9.884,-15.199,2.430,0.653023,0.476584,-2.859957,99917.66,-22,+18,+288
51465,9.042,-16.180,1.760,0.450289,0.498933,-2.344875,99917.15,-26,+16,+285
51475,8.132,-16.394,1.415,0.237977,0.453703,-1.729224,99917.15,-26,+16,+285
51484,7.389,-16.287,0.968,0.102821,0.349410,-1.089628,99916.20,-24,+12,+284
51494,6.582,-15.839,0.671,-0.042977,0.220639,-0.478766,99916.20,-29,+9,+289
51505,5.962,-15.411,0.676,-0.092463,0.092933,0.114004,99919.84,-35,+5,+286
51515,5.288,-14.829,1.582,0.003849,-0.016150,0.670591,99918.21,-35,+5,+288
51524,5.503,-14.052,3.224,0.100693,-0.069361,1.098407,99919.41,-35,+1,+288
51534,7.013,-10.769,8.533,0.172528,-0.044884,1.404370,99915.60,-40,-2,+294
51545,10.704,-6.811,15.484,0.004381,0.262144,1.391600,99915.60,-42,-6,+293
51555,25.665,-3.174,-1.324,-1.180095,-0.450883,1.732682,99915.55,-44,-17,+294
51565,33.252,-5.518,-6.351,-1.009820,-0.951599,2.738901,99919.31,-44,-17,+294
51574,23.066,-9.683,2.457,0.699848,-0.323177,3.374773,99916.91,-47,-21,+299
51585,15.437,-8.616,1.758,0.982931,-0.243893,3.833451,99916.91,-48,-23,+296
51595,5.001,-3.744,2.058,0.710491,-0.217287,3.747782,99916.91,-42,-25,+299
51605,-1.970,-0.400,4.133,0.833940,-0.158223,3.319433,99917.75,-42,-25,+299
51614,1.212,-4.422,2.943,1.494820,-0.357232,3.075195,99918.73,-43,-25,+303
51624,7.854,-11.213,0.012,1.773114,-0.594021,2.935250,99919.42,-46,-21,+301
51635,12.645,-13.304,-1.382,1.175022,-0.622223,2.749012,99919.63,-42,-20,+303
51645,13.592,-11.292,-1.427,0.167739,-0.296572,2.409526,99919.63,-42,-20,+303
51655,11.781,-7.652,-0.899,-0.644261,0.033869,2.092920,99917.98,-44,-25,+306
51664,8.842,-4.647,-0.019,-0.897013,0.227024,1.854535,99916.53,-42,-31,+302
51675,7.321,-2.745,0.798,-0.748554,0.287153,1.634242,99916.61,-37,-35,+304
51685,7.507,-2.498,1.306,-0.460683,0.281300,1.491636,99916.61,-37,-35,+304
51695,8.951,-3.459,1.567,-0.219105,0.266401,1.399049,99917.66,-36,-39,+306
51704,10.016,-4.530,1.743,-0.140885,0.293006,1.289967,99918.29,-35,-42,+302
51715,10.037,-4.656,1.968,-0.224426,0.333978,1.155343,99918.29,-30,-44,+305
51725,9.402,-4.193,2.095,-0.315949,0.366969,1.024444,99917.66,-30,-44,+305
51735,9.010,-3.698,2.239,-0.315417,0.363245,0.906848,99914.99,-30,-47,+307
51744,9.005,-3.425,2.311,-0.288279,0.339300,0.815857,99914.99,-28,-49,+303
51755,9.234,-3.222,2.217,-0.274977,0.321740,0.749875,99917.29,-23,-50,+306
51765,9.408,-3.182,1.921,-0.263270,0.306309,0.724334,99918.40,-23,-50,+306
51775,9.309,-3.206,1.751,-0.240922,0.300988,0.714756,99920.07,-23,-53,+307
51785,9.150,-3.201,1.824,-0.238261,0.304180,0.708371,99916.88,-21,-56,+303
51794,9.085,-3.137,2.075,-0.266463,0.308969,0.704646,99918.31,-17,-56,+305
51805,9.086,-3.070,2.293,-0.311160,0.300988,0.702517,99918.14,-17,-56,+305
51815,8.991,-3.100,2.389,-0.343087,0.291942,0.711563,99917.16,-17,-59,+307
51825,8.750,-3.010,2.571,-0.332977,0.296199,0.721673,99915.64,-16,-62,+302
51834,8.557,-2.833,2.760,-0.284555,0.280235,0.746150,99915.64,-11,-62,+306
51845,8.452,-2.767,2.917,-0.206867,0.237134,0.787123,99915.64,-11,-62,+306
51855,8.534,-2.919,3.039,-0.112151,0.182327,0.832884,99919.30,-12,-65,+307
51865,8.600,-3.208,3.004,-0.030206,0.128052,0.879178,99917.43,-9,-67,+304
51874,8.679,-3.498,2.776,0.000124,0.096658,0.930793,99916.80,-7,-65,+307
51885,8.949,-3.815,2.286,-0.017435,0.095061,0.988793,99917.07,-7,-65,+307
51895,9.368,-4.188,1.593,-0.092463,0.115281,1.050517,99917.07,-7,-68,+309
51905,9.575,-4.138,1.267,-0.235068,0.181795,1.110114,99919.09,-4,-69,+304
51915,9.691,-4.269,1.462,-0.360114,0.239795,1.179820,99919.22,+0,-71,+307
51924,9.578,-4.376,1.850,-0.438334,0.282364,1.248994,99916.84,+0,-71,+307
51935,9.284,-4.398,2.521,-0.509637,0.316419,1.308590,99916.84,+0,-75,+309
51945,8.987,-4.729,3.151,-0.563380,0.325465,1.354352,99916.84,+3,-77,+304
51955,9.107,-5.171,3.584,-0.659692,0.332382,1.382022,99918.59,+10,-80,+307
51964,9.577,-5.288,3.752,-0.821453,0.351538,1.397453,99918.01,+10,-80,+307
51975,10.152,-5.133,3.690,-0.981618,0.366437,1.429379,99917.96,+10,-87,+307
51985,10.813,-4.988,3.125,-1.096022,0.347281,1.493232,99917.74,+15,-91,+302
51995,11.683,-4.527,2.181,-1.162004,0.273318,1.595930,99917.74,+21,-95,+303
52005,12.268,-4.090,1.922,-1.176903,0.194566,1.743324,99919.80,+23,-95,+302
52015,12.533,-4.263,1.654,-1.110921,0.120070,1.929030,99918.02,+23,-101,+302
52025,12.771,-4.704,1.033,-1.039618,0.039722,2.114737,99917.20,+28,-104,+296
52035,13.253,-4.998,0.881,-1.030040,-0.056590,2.269581,99915.84,+33,-108,+298
52045,14.043,-5.260,1.048,-1.059306,-0.161416,2.416975,99919.02,+33,-115,+296
52055,14.735,-5.214,1.533,-1.107728,-0.238572,2.545746,99919.96,+33,-115,+296
52065,14.816,-5.281,2.002,-1.165196,-0.268370,2.652700,99919.96,+37,-117,+290
52075,14.539,-5.286,1.986,-1.226921,-0.254535,2.730920,99920.18,+43,-122,+290
52085,14.348,-5.279,1.645,-1.361013,-0.213562,2.764975,99916.37,+44,-127,+287
52094,14.740,-4.534,1.486,-1.606315,-0.152902,2.761250,99916.37,+44,-127,+287
52106,15.542,-3.743,2.043,-1.948817,-0.085147,2.723648,99918.65,+49,-131,+278
52115,17.136,-2.401,2.751,-2.182058,-0.100223,2.635140,99918.65,+55,-138,+278
52125,19.810,-0.378,4.030,-2.368296,-0.209838,2.450498,99914.79,+56,-148,+268
52135,22.021,0.168,4.822,-2.233673,-0.371599,2.349397,99916.46,+56,-148,+268
52145,21.379,-1.029,5.869,-1.626535,-0.570608,2.554791,99916.46,+58,-151,+262
52155,17.953,-3.561,7.380,-0.807618,-0.740351,2.843195,99917.28,+60,-153,+264
52165,15.439,-6.756,7.844,-0.126518,-0.851030,3.041140,99918.77,+60,-151,+260
52175,14.725,-7.774,7.851,0.155500,-0.808993,2.990057,99916.67,+60,-151,+260
52185,14.536,-6.008,7.940,0.025133,-0.640315,2.780406,99916.67,+62,-145,+258
52195,13.953,-2.670,8.375,-0.107362,-0.470039,2.431874,99916.67,+64,-141,+260
52205,11.677,0.057,8.239,-0.021692,-0.201324,1.988627,99916.91,+64,-139,+257
52215,8.956,3.711,3.393,-0.196756,-0.158223,1.341581,99916.64,+64,-139,+257
52220,2.507,-1.003,1.846,-0.393637,-0.027324,1.156407,99915.19,+62,-134,+254
52230,0.180,-9.114,2.311,-0.847527,0.175410,1.468223,99914.97,+62,-134,+254
52240,7.102,-3.362,2.334,-1.637178,0.339300,0.557784,99914.97,+64,-134,+254
52250,7.928,1.899,2.514,-1.832462,0.522345,-0.389904,99918.39,+62,-137,+246
52260,5.447,3.957,0.822,-1.491379,0.548951,-0.850711,99914.31,+58,-136,+241
52270,4.171,3.942,-0.613,-0.941710,0.612272,-1.182747,99916.16,+55,-136,+241
52280,4.585,2.217,-0.727,-0.205270,0.693685,-1.414215,99914.69,+55,-135,+244
52290,5.442,1.316,-0.803,0.506160,0.692088,-1.657921,99914.69,+50,-131,+240
52300,5.943,0.737,-0.932,1.072857,0.614400,-1.897371,99916.27,+44,-122,+242
52310,6.013,0.260,-1.179,1.518765,0.519685,-2.174068,99913.49,+40,-110,+248
52320,6.350,0.097,-1.182,1.814086,0.455299,-2.514086,99915.01,+40,-110,+248
52330,6.835,-0.105,-0.853,2.033315,0.401024,-2.833884,99911.15,+34,-99,+248
52340,7.394,-0.483,-1.214,2.155523,0.317128,-3.122465,99911.15,+28,-83,+251
52350,8.042,-1.107,-1.817,2.134416,0.249905,-3.324489,99914.45,+26,-67,+257
52360,8.568,-2.037,-2.399,2.049811,0.193501,-3.519773,99913.88,+26,-67,+257
52370,8.931,-3.073,-2.528,1.883261,0.130180,-3.669296,99910.43,+23,-54,+254
52380,9.109,-4.211,-2.345,1.652325,0.045575,-3.807645,99908.91,+20,-40,+255
52390,9.146,-4.978,-1.624,1.377756,-0.024131,-3.985902,99908.91,+23,-27,+258
52400,9.083,-5.224,-0.632,1.050509,-0.047012,-4.204598,99912.02,+23,-27,+258
52410,9.091,-5.050,0.467,0.742417,-0.015086,-4.425424,99913.33,+23,-19,+254
52420,9.381,-4.622,1.294,0.488069,0.037061,-4.618048,99911.81,+26,-11,+253
52430,9.937,-4.251,1.634,0.282142,0.087080,-4.765974,99911.30,+32,-6,+257
52440,10.534,-4.251,1.387,0.184234,0.139226,-4.871864,99911.30,+32,-6,+257
52450,11.067,-4.603,0.772,0.234785,0.197226,-4.916561,99914.63,+35,-7,+253
52460,11.698,-5.195,0.230,0.366216,0.259483,-4.926672,99912.84,+40,-5,+253
52470,12.202,-5.733,0.048,0.500839,0.319079,-4.944763,99913.05,+46,-6,+256
52480,12.730,-5.929,0.421,0.632271,0.364309,-4.961791,99914.72,+46,-6,+256
52490,13.264,-5.962,1.202,0.812656,0.378676,-4.968176,99914.72,+46,-11,+254
52500,13.390,-6.427,1.873,1.031885,0.379208,-4.962855,99914.81,+44,-12,+256
52510,13.308,-7.399,2.126,1.146289,0.381336,-4.925607,99915.44,+44,-13,+260
52520,13.350,-7.826,1.764,1.132454,0.399960,-4.893681,99916.55,+44,-13,+260
52530,13.875,-7.590,1.792,1.056362,0.429226,-4.837809,99913.14,+39,-16,+258
52540,14.412,-8.158,2.046,0.960582,0.424969,-4.705314,99913.14,+36,-16,+260
52550,14.222,-9.673,2.114,0.801481,0.398896,-4.535038,99916.99,+32,-17,+264
52560,13.234,-11.274,2.107,0.589702,0.430822,-4.345608,99914.59,+32,-17,+264
52570,12.311,-12.238,1.959,0.397610,0.521813,-4.092855,99915.79,+23,-20,+262
52576,11.718,-12.854,1.739,0.299170,0.599501,-3.835847,99915.68,+19,-17,+264
52585,11.107,-13.772,1.446,0.248619,0.659097,-3.501150,99915.68,+19,-17,+264
52595,10.440,-15.127,0.717,0.203922,0.681446,-3.007884,99915.68,+15,-19,+266
52605,9.855,-16.541,0.379,0.098032,0.637813,-2.490673,99920.49,+8,-19,+262
52616,8.745,-17.364,0.758,-0.089270,0.534584,-1.928233,99917.77,+6,-16,+264
52625,7.275,-17.602,1.199,-0.304243,0.411667,-1.329078,99917.70,+6,-16,+264
52635,6.248,-17.113,1.863,-0.506444,0.295134,-0.705977,99917.70,+5,-17,+265
52645,5.840,-15.925,2.098,-0.494206,0.171685,-0.098308,99919.83,+1,-19,+262
52655,5.609,-14.444,2.414,-0.273380,0.030676,0.462004,99919.83,+1,-18,+264
52665,5.669,-13.125,2.945,0.067702,-0.111397,0.911105,99919.41,+1,-18,+264
52675,5.706,-12.452,6.596,0.415170,-0.159287,1.280921,99918.00,+3,-19,+265
52685,8.092,-7.386,16.362,0.535427,0.092401,1.316040,99917.63,+1,-18,+263
52695,20.650,-2.202,6.066,-0.265399,-0.127361,1.305930,99917.63,+3,-19,+264
52706,37.497,-2.472,-12.362,-0.893820,-1.149544,2.053544,99920.08,+3,-19,+264
52715,29.093,-12.201,-1.442,0.638656,-0.623287,3.054975,99921.44,+4,-23,+264
52725,17.670,-12.252,0.480,0.880766,-0.169929,3.482259,99919.19,+3,-22,+263
52736,7.038,-5.361,0.249,0.299702,-0.112462,3.365727,99917.90,+7,-22,+262
52746,-0.447,1.758,1.688,0.202326,-0.155030,3.101800,99918.70,+7,-22,+262
52755,0.865,1.572,3.136,0.697720,-0.277948,2.718149,99919.05,+11,-24,+264
52765,6.475,-3.719,3.369,1.048912,-0.358296,2.508498,99917.80,+10,-22,+262
52775,10.376,-8.479,3.094,0.803078,-0.325306,2.373874,99917.80,+13,-19,+264
52785,12.821,-10.792,1.808,0.175720,-0.226865,2.336627,99916.07,+13,-19,+264
52795,13.487,-8.971,0.703,-0.361178,-0.165140,2.190828,99916.07,+16,-21,+265
52805,10.291,-5.490,1.069,-0.614463,-0.008168,1.854003,99920.00,+16,-26,+262
52810,8.442,-3.404,1.643,-0.671398,0.047171,1.693838,99918.39,+16,-26,+262
52820,7.822,-2.333,1.929,-0.556463,0.034401,1.648609,99917.66,+18,-26,+264
52830,8.277,-2.026,1.743,-0.282958,-0.002847,1.632113,99919.48,+22,-30,+264
52840,9.594,-2.869,1.275,-0.126518,-0.017214,1.640095,99919.48,+20,-31,+261
52850,10.293,-3.878,1.352,-0.176004,0.011520,1.616150,99920.87,+20,-31,+261
52860,9.918,-4.331,1.440,-0.280298,0.053025,1.511324,99920.51,+24,-31,+262
52871,8.994,-4.361,1.494,-0.336701,0.091869,1.354352,99917.41,+26,-34,+262
52880,8.572,-4.140,1.456,-0.370224,0.118474,1.199508,99918.68,+26,-35,+260
52890,8.964,-3.856,1.267,-0.414921,0.145079,1.072334,99918.68,+26,-35,+260
52900,9.510,-3.626,1.144,-0.467600,0.186052,0.990389,99919.91,+30,-35,+262
52911,9.734,-3.391,1.332,-0.502187,0.227024,0.940371,99919.22,+32,-40,+262
52920,9.659,-3.089,1.654,-0.506444,0.263740,0.912701,99917.30,+32,-42,+259
52930,9.467,-2.844,1.946,-0.493674,0.281300,0.902591,99915.83,+32,-42,+259
52940,9.261,-2.656,2.171,-0.471325,0.280768,0.904719,99915.83,+35,-42,+260
52951,9.196,-2.438,2.494,-0.428224,0.266933,0.911637,99921.02,+38,-45,+260
52960,9.129,-2.538,2.612,-0.367032,0.244052,0.931325,99918.88,+37,-47,+259
52970,9.046,-2.691,2.532,-0.305307,0.217979,0.951545,99918.30,+37,-47,+259
52980,8.998,-2.541,2.568,-0.239857,0.187648,0.972829,99918.15,+41,-46,+260
52990,8.853,-2.463,2.781,-0.165362,0.150401,1.012205,99918.15,+44,-49,+259
53001,8.843,-2.796,2.773,-0.097252,0.109428,1.081380,99920.37,+43,-49,+257
53010,8.846,-2.713,2.914,-0.059472,0.080694,1.140444,99914.99,+43,-49,+257
53020,8.813,-2.502,3.185,-0.053087,0.051428,1.206425,99918.13,+47,-48,+259
53030,8.827,-2.630,3.192,-0.031270,0.016841,1.291563,99919.27,+49,-50,+259
53041,8.856,-3.082,2.903,-0.018500,-0.016150,1.378829,99919.27,+50,-50,+257
53046,8.804,-3.335,2.687,-0.049894,-0.041159,1.436297,99918.04,+50,-50,+257
53055,8.709,-3.586,2.709,-0.076500,-0.050205,1.500150,99918.04,+53,-49,+260
53065,8.880,-4.137,2.403,-0.105766,-0.078939,1.593269,99918.09,+56,-51,+259
53075,9.099,-4.491,1.857,-0.175472,-0.087452,1.651801,99916.41,+56,-51,+259
53086,9.259,-4.878,1.681,-0.289876,-0.069361,1.697563,99918.82,+56,-52,+257
53096,9.449,-5.159,1.658,-0.405343,-0.037434,1.735875,99918.73,+60,-51,+258
53105,9.524,-5.296,1.929,-0.506444,0.012584,1.756095,99919.31,+64,-54,+256
53115,9.530,-5.582,2.166,-0.592114,0.037061,1.767269,99917.22,+64,-54,+256
53126,9.548,-5.765,2.339,-0.656499,0.050364,1.781104,99917.22,+64,-56,+254
53135,9.819,-5.915,2.112,-0.734187,0.050896,1.785893,99918.02,+69,-57,+256
53145,10.523,-5.916,1.911,-0.817729,0.033336,1.810370,99918.02,+72,-61,+253
53155,11.384,-5.791,1.852,-0.877857,0.003538,1.865709,99921.08,+72,-61,+253
53166,12.069,-5.851,1.722,-0.901270,-0.035306,1.948719,99918.27,+73,-63,+251
53175,12.640,-5.742,1.637,-0.907123,-0.086388,2.043434,99918.58,+77,-65,+252
53185,12.846,-5.798,1.485,-0.901802,-0.141728,2.143471,99917.53,+80,-69,+249
53195,12.864,-6.010,1.171,-0.889563,-0.186957,2.237654,99917.53,+80,-69,+249
53206,12.833,-6.114,0.842,-0.923086,-0.210902,2.301507,99918.63,+82,-72,+247
53216,12.903,-6.198,0.890,-1.007160,-0.225801,2.354186,99916.79,+86,-73,+247
53226,13.285,-5.960,0.989,-1.132738,-0.232718,2.398351,99917.62,+89,-79,+243
53235,13.507,-6.126,1.359,-1.302481,-0.209838,2.432406,99917.62,+89,-79,+243
53245,14.373,-5.667,1.432,-1.563214,-0.163012,2.446241,99917.62,+90,-83,+239
53256,15.972,-4.820,1.998,-1.921856,-0.137471,2.430278,99919.66,+95,-87,+238
53265,18.322,-3.841,2.175,-2.254957,-0.201856,2.392498,99920.70,+99,-97,+232
53275,21.466,-2.237,2.409,-2.593379,-0.327434,2.305764,99918.03,+99,-97,+232
53285,24.366,-0.269,2.817,-2.795048,-0.567948,2.205195,99916.98,+100,-105,+226
53296,24.622,0.282,3.982,-2.369893,-0.931911,2.278095,99916.98,+102,-113,+223
53306,20.982,-2.239,5.325,-1.196591,-1.301727,2.636736,99918.42,+103,-120,+220
53315,16.538,-6.120,6.224,-0.200481,-1.467213,2.953874,99916.59,+103,-120,+220
53325,14.904,-6.250,6.763,0.221482,-1.456039,2.888424,99915.55,+103,-120,+218
53336,14.253,-4.052,7.202,0.311940,-1.337910,2.647379,99915.55,+105,-119,+222
53346,13.613,-1.392,7.470,0.387500,-1.192644,2.372278,99919.43,+105,-123,+220
53356,12.145,1.242,6.526,0.448693,-0.996828,1.963085,99917.18,+105,-123,+220
53365,9.851,3.537,3.923,0.464656,-0.901048,1.427783,99917.18,+103,-124,+220
53376,4.379,-0.214,2.322,0.460931,-0.821232,1.057435,99916.29,+101,-126,+224
53386,2.379,-10.666,2.438,0.118785,-0.724388,1.313379,99916.20,+101,-130,+223
53395,6.872,-10.231,3.306,-0.517619,-0.542406,0.691875,99916.20,+101,-130,+223
53405,7.710,-3.144,3.938,-0.894352,-0.367342,-0.102032,99919.11,+96,-135,+220
53415,5.685,1.705,3.748,-0.862426,-0.315728,-0.647445,99915.41,+92,-142,+220
53426,4.115,3.369,2.699,-0.652775,-0.284333,-0.986931,99913.20,+85,-149,+217
53436,3.884,2.870,1.814,-0.177601,-0.208241,-1.235958,99913.58,+85,-149,+217
53445,3.739,1.588,1.214,0.446564,-0.093838,-1.504674,99916.63,+76,-151,+217
53455,3.926,0.426,0.914,0.908968,0.025355,-1.788288,99912.24,+69,-153,+222
53466,4.238,-0.360,1.075,1.095738,0.140291,-2.053811,99914.85,+60,-153,+222
53476,4.743,-0.897,0.902,1.142564,0.196694,-2.346472,99914.85,+60,-153,+222
53485,5.166,-1.464,0.444,1.145756,0.247245,-2.667866,99911.40,+51,-152,+226
53495,5.618,-1.594,-0.111,1.071793,0.306841,-2.996177,99911.40,+41,-151,+232
53506,6.092,-1.276,-0.654,1.005812,0.371758,-3.288838,99913.97,+30,-149,+233
53516,6.711,-0.818,-0.917,0.997830,0.416455,-3.536269,99914.22,+17,-144,+236
53525,7.518,-0.622,-1.202,1.095738,0.419116,-3.732617,99912.19,+17,-144,+236
53535,8.115,-0.957,-1.618,1.297408,0.404217,-3.884801,99908.95,+6,-138,+243
53545,8.435,-2.066,-1.500,1.488967,0.383465,-3.997076,99908.95,-5,-133,+244
53556,8.592,-3.223,-1.184,1.602839,0.341960,-4.129039,99911.28,-16,-122,+249
53566,8.847,-4.047,-0.786,1.587940,0.305245,-4.320599,99911.22,-16,-122,+249
53575,9.432,-4.344,-0.395,1.440545,0.285024,-4.539296,99910.70,-28,-112,+255
53585,10.000,-4.297,0.298,1.261756,0.289281,-4.750543,99910.70,-38,-100,+256
53596,10.762,-4.236,0.721,1.103188,0.306309,-4.922946,99910.70,-48,-87,+259
53606,11.540,-4.361,0.838,0.978674,0.332382,-5.052782,99914.27,-48,-87,+259
53615,12.351,-4.920,0.734,0.877041,0.363245,-5.154946,99916.26,-56,-75,+264
53625,12.849,-5.721,0.502,0.763702,0.409538,-5.232635,99913.70,-62,-62,+261
53636,13.172,-6.644,0.289,0.592894,0.467183,-5.271124,99909.56,-68,-47,+260
53646,13.358,-7.090,0.097,0.441775,0.517024,-5.274671,99909.56,-68,-47,+260
53656,13.823,-7.061,0.102,0.303959,0.565446,-5.275203,99915.42,-72,-34,+262
53665,14.510,-6.998,0.589,0.247555,0.598437,-5.275735,99913.64,-73,-21,+256
53676,14.738,-7.125,1.104,0.264583,0.615465,-5.268818,99915.00,-73,-7,+253
53686,14.198,-7.863,1.529,0.310344,0.657501,-5.195387,99913.91,-73,-7,+253
53696,13.512,-8.960,1.980,0.346528,0.714437,-5.033626,99918.79,-71,+4,+254
53705,13.132,-9.372,2.724,0.375794,0.799574,-4.809608,99913.71,-67,+14,+247
53715,13.055,-9.100,3.650,0.471573,0.879391,-4.555259,99913.71,-61,+25,+244
53726,13.182,-8.862,3.634,0.580656,0.912914,-4.284947,99913.87,-61,+25,+244
53736,12.967,-9.606,2.955,0.652491,0.945373,-4.031663,99913.71,-55,+32,+243
53745,12.551,-11.392,1.676,0.508289,0.946437,-3.784232,99913.71,-49,+38,+236
53755,11.248,-13.102,0.934,0.113464,0.936859,-3.475076,99918.99,-44,+41,+233
53766,9.928,-14.263,1.140,-0.362775,0.952290,-3.085572,99917.63,-44,+41,+233
53776,8.800,-15.455,1.395,-0.813472,0.959207,-2.592838,99918.57,-39,+42,+233
53786,7.804,-16.038,0.904,-1.192866,0.908657,-1.999004,99918.46,-37,+37,+227
53795,7.816,-14.901,0.429,-1.289710,0.750088,-1.274270,99919.77,-33,+34,+226
53806,7.702,-13.278,0.091,-1.033233,0.436144,-0.429280,99919.51,-33,+34,+226
53816,6.836,-12.602,0.330,-0.516022,0.062070,0.453490,99918.99,-32,+31,+226
53826,5.602,-13.456,1.244,0.075152,-0.204517,1.227710,99919.09,-33,+28,+221
53835,6.107,-12.250,2.496,0.564160,-0.364682,1.753434,99919.09,-32,+27,+221
53846,7.330,-8.206,8.803,0.960050,-0.289654,1.920517,99919.09,-32,+27,+221
53856,11.303,-2.085,20.168,0.891940,0.287153,1.768865,99916.13,-30,+28,+221
53866,26.222,3.674,2.611,-1.322701,-0.128425,1.602315,99918.22,-30,+23,+217
53871,36.184,-0.383,-12.277,-2.052755,-1.100057,2.465397,99918.27,-30,+23,+217
53880,29.947,-11.402,-6.596,-0.126518,-0.911690,3.298149,99920.20,-32,+15,+217
53891,23.295,-15.986,-0.729,1.148949,-0.606792,3.912736,99920.20,-32,+14,+217
53901,13.617,-9.780,0.715,0.332693,-0.417361,3.910075,99922.50,-32,+9,+213
53911,3.240,2.369,3.001,-0.083949,-0.256663,3.572185,99917.33,-32,+9,+213
53920,-3.531,5.272,4.231,0.474234,-0.397140,3.244406,99918.33,-30,+6,+213
53931,-0.714,-1.776,5.116,1.450655,-0.430663,2.935250,99917.33,-29,+6,+213
53941,8.384,-10.956,3.207,1.855059,-0.548792,2.866076,99917.33,-30,+7,+210
53951,15.148,-14.175,0.368,1.362325,-0.764828,2.882571,99920.41,-30,+7,+210
53960,15.540,-11.424,-0.506,0.420491,-0.518461,2.506370,99921.35,-30,+7,+212
53970,11.629,-7.768,0.649,-0.403747,-0.164076,2.132828,99918.38,-28,+4,+212
53981,8.197,-5.312,0.846,-0.796976,-0.086920,1.973196,99917.12,-28,+0,+208
53991,7.097,-4.049,0.583,-0.833692,-0.132150,1.803452,99917.12,-28,+0,+208
54001,7.639,-3.693,0.453,-0.698536,-0.133746,1.639563,99917.88,-26,-4,+209
54010,9.059,-3.748,0.638,-0.528793,-0.095434,1.525159,99919.33,-26,-7,+210
54021,10.245,-3.650,0.866,-0.390444,-0.027856,1.443214,99918.28,-25,-11,+206
54031,9.975,-3.876,1.071,-0.216977,0.070052,1.341049,99915.00,-25,-11,+206
54041,9.198,-3.973,1.348,-0.099380,0.133905,1.237820,99915.00,-24,-11,+209
54050,8.815,-3.885,1.612,-0.123325,0.147208,1.110114,99920.84,-23,-13,+210
54061,8.880,-4.046,1.536,-0.251564,0.150933,0.992517,99916.49,-21,-15,+207
54071,9.196,-4.148,1.650,-0.411729,0.174346,0.889820,99915.87,-21,-15,+207
54081,9.442,-3.737,1.912,-0.532518,0.212657,0.791380,99917.91,-20,-17,+209
54090,9.378,-2.872,2.399,-0.526665,0.236070,0.728591,99917.91,-19,-19,+209
54100,9.098,-2.363,2.519,-0.413857,0.215318,0.711031,99919.02,-17,-21,+206
54111,8.880,-2.182,2.569,-0.223362,0.185520,0.726995,99917.61,-17,-21,+206
54121,8.691,-2.345,2.684,-0.052555,0.143483,0.756793,99917.61,-17,-22,+209
54130,8.647,-2.682,2.645,0.059720,0.100382,0.788719,99919.80,-15,-22,+209
54140,8.759,-2.844,2.554,0.074087,0.073777,0.816921,99919.80,-14,-24,+206
54151,9.029,-2.535,2.591,0.005977,0.065795,0.842994,99919.44,-14,-24,+206
54161,9.499,-1.981,2.594,-0.100977,0.049300,0.883967,99919.55,-13,-23,+209
54171,10.028,-2.230,2.245,-0.177068,0.002474,0.969637,99918.59,-12,-25,+208
54180,10.255,-2.830,1.384,-0.212720,-0.040627,1.054242,99918.97,-11,-27,+205
54191,10.192,-2.910,1.217,-0.269123,-0.021471,1.141508,99918.97,-11,-27,+205
54201,9.860,-3.046,1.604,-0.326591,0.009924,1.237820,99918.50,-10,-29,+208
54211,9.471,-3.449,1.825,-0.399490,0.030676,1.341581,99918.92,-8,-31,+207
54220,9.061,-3.791,2.147,-0.488885,0.058346,1.425122,99919.13,-6,-34,+204
54231,8.661,-4.100,2.356,-0.579343,0.086547,1.479398,99917.34,-6,-34,+204
54241,8.482,-4.164,2.379,-0.671398,0.097722,1.532609,99917.34,-5,-35,+207
54251,8.267,-4.099,2.513,-0.701729,0.107832,1.582627,99920.77,-3,-38,+205
54261,8.144,-3.787,2.787,-0.653839,0.103575,1.627324,99917.89,-1,-42,+202
54270,7.997,-3.988,3.175,-0.536775,0.090804,1.662443,99918.30,+0,-43,+205
54281,8.075,-4.689,2.899,-0.417582,0.054621,1.688517,99916.95,+0,-43,+205
54291,8.291,-5.608,2.288,-0.335637,0.026419,1.690645,99916.95,+3,-46,+203
54301,8.538,-6.116,1.959,-0.333509,0.017905,1.664040,99917.78,+5,-50,+200
54310,8.600,-6.225,1.749,-0.397362,0.016309,1.633710,99919.03,+7,-50,+202
54321,8.700,-6.022,1.804,-0.431949,0.014713,1.617746,99919.14,+7,-50,+202
54331,9.000,-5.771,1.815,-0.449509,-0.018810,1.617746,99919.14,+10,-52,+201
54341,9.509,-5.504,1.922,-0.466536,-0.051269,1.650737,99919.14,+12,-56,+198
54350,10.184,-6.004,2.180,-0.475050,-0.068829,1.713526,99919.65,+14,-56,+201
54361,10.947,-6.541,1.952,-0.492077,-0.082131,1.776315,99919.12,+14,-56,+201
54371,11.732,-6.804,1.397,-0.570830,-0.100755,1.839104,99917.35,+17,-58,+199
54381,12.565,-6.737,1.318,-0.675123,-0.114590,1.907214,99917.51,+19,-62,+195
54390,13.146,-6.555,1.389,-0.735784,-0.123636,1.995012,99917.51,+22,-64,+196
54401,13.255,-6.615,1.461,-0.756536,-0.127893,2.099306,99918.02,+22,-64,+196
54411,13.208,-6.873,1.375,-0.810279,-0.129489,2.185507,99918.82,+24,-67,+194
54421,13.754,-7.060,1.205,-0.935857,-0.116186,2.260535,99918.13,+28,-71,+190
54431,15.057,-6.872,1.218,-1.142848,-0.102352,2.328645,99916.04,+31,-73,+191
54440,17.367,-6.245,1.510,-1.444554,-0.118315,2.409526,99916.04,+31,-73,+191
54451,21.181,-4.488,2.276,-1.782976,-0.220480,2.506902,99918.94,+35,-78,+187
54461,25.235,-2.527,3.377,-2.042645,-0.389691,2.610663,99917.98,+39,-85,+181
54471,27.626,-0.581,3.033,-2.151728,-0.554113,2.710700,99917.73,+42,-89,+179
54480,25.938,1.172,2.213,-2.166095,-0.696186,2.712828,99917.31,+42,-89,+179
54491,19.403,-0.324,1.591,-1.796811,-0.868590,2.696865,99917.31,+46,-94,+174
54501,14.309,-4.509,1.966,-0.967251,-1.044186,2.787856,99919.27,+49,-97,+170
54511,13.038,-6.557,3.513,-0.181857,-1.112296,2.810736,99914.78,+53,-96,+171
54521,13.148,-5.373,5.125,0.206051,-1.047911,2.658553,99917.17,+53,-96,+171
54531,12.994,-3.240,6.290,0.444968,-0.984590,2.497856,99917.39,+58,-96,+168
54541,12.152,-1.639,7.122,0.660472,-0.857415,2.299911,99917.39,+61,-93,+167
54551,10.495,-0.190,6.363,0.777004,-0.705764,1.951911,99918.11,+63,-91,+171
54561,8.552,1.754,3.215,0.746674,-0.666920,1.442150,99916.91,+63,-91,+171
54571,3.015,-3.201,0.786,0.454014,-0.638718,1.145765,99919.00,+67,-89,+169
54577,0.781,-9.311,2.490,0.059720,-0.432792,1.357545,99915.61,+69,-89,+168
54586,5.345,-6.384,2.842,-0.560720,-0.355636,0.819049,99915.61,+69,-89,+168
54596,7.740,-0.185,3.600,-1.017802,-0.177911,-0.172271,99915.61,+70,-89,+168
54606,6.459,2.038,3.905,-0.947563,-0.145985,-0.643720,99920.10,+70,-91,+164
54617,5.178,2.788,2.841,-0.742169,-0.175251,-0.919353,99916.13,+71,-93,+161
54626,4.934,2.408,1.220,-0.392041,-0.171526,-1.257243,99915.37,+71,-93,+161
54636,4.578,0.674,0.720,-0.008390,-0.065636,-1.527022,99915.37,+68,-91,+165
54646,4.554,-0.415,0.693,0.264051,0.017905,-1.817022,99917.22,+67,-91,+162
54656,4.777,-0.590,0.981,0.452950,0.059410,-2.159701,99917.22,+65,-89,+162
54666,5.325,-0.538,1.309,0.610454,0.080162,-2.489077,99916.17,+65,-89,+162
54676,5.848,-0.531,1.227,0.781261,0.099850,-2.810471,99917.95,+63,-87,+166
54686,6.074,-0.492,1.018,0.927591,0.132841,-3.130801,99915.81,+61,-85,+164
54695,6.195,-0.675,0.822,1.016986,0.179667,-3.395260,99915.81,+57,-83,+166
54706,6.495,-1.241,0.683,1.069133,0.230749,-3.619810,99915.01,+57,-83,+166
54716,6.917,-1.923,0.529,1.109041,0.280235,-3.817755,99912.45,+55,-79,+170
54726,7.286,-2.510,0.302,1.129261,0.321740,-3.990691,99906.60,+52,-77,+168
54736,7.583,-3.161,0.131,1.125004,0.350474,-4.140213,99907.90,+48,-75,+170
54747,8.089,-3.943,0.116,1.040399,0.378676,-4.285479,99913.50,+48,-75,+170
54756,8.714,-4.668,0.385,0.835536,0.428162,-4.426488,99913.23,+46,-71,+173
54766,9.559,-4.817,1.080,0.525849,0.488822,-4.576011,99909.69,+45,-73,+171
54776,10.342,-4.688,1.612,0.232124,0.543630,-4.721809,99909.69,+40,-75,+171
54786,10.973,-4.796,1.749,0.061849,0.604822,-4.832488,99910.47,+40,-75,+171
54796,11.330,-5.464,1.672,0.042693,0.684107,-4.876653,99910.47,+37,-75,+172
54806,11.540,-6.295,1.500,0.128363,0.774565,-4.859094,99912.45,+32,-79,+168
54816,11.816,-6.785,1.457,0.269904,0.862363,-4.830359,99913.74,+24,-81,+168
54827,12.128,-6.773,1.469,0.426344,0.932070,-4.816525,99915.63,+24,-81,+168
54836,12.600,-6.660,1.276,0.554582,0.951226,-4.797901,99914.01,+18,-81,+170
54846,12.888,-6.659,0.951,0.649830,0.945373,-4.761185,99914.01,+9,-82,+166
54856,12.822,-6.926,0.661,0.732839,0.938987,-4.707442,99915.31,+0,-79,+168
54866,12.669,-7.131,0.574,0.781261,0.930474,-4.648910,99913.39,+0,-79,+168
54877,12.650,-6.979,0.655,0.777004,0.920896,-4.601020,99914.42,-7,-76,+170
54886,12.830,-6.731,0.866,0.765298,0.904400,-4.544617,99914.42,-16,-73,+168
54896,13.198,-6.873,0.925,0.765830,0.866088,-4.442451,99914.42,-25,-67,+170
54906,13.449,-7.646,0.923,0.763702,0.827244,-4.306231,99918.33,-25,-67,+170
54916,13.370,-8.883,0.842,0.720601,0.777758,-4.121057,99913.05,-30,-62,+173
54926,12.919,-10.167,0.710,0.625353,0.739978,-3.898636,99916.86,-38,-57,+171
54932,12.532,-10.956,0.575,0.532234,0.724015,-3.694305,99913.52,-38,-57,+171
54941,12.066,-11.863,0.559,0.439115,0.711776,-3.423994,99913.52,-42,-51,+174
54951,10.999,-13.508,0.703,0.372069,0.692088,-2.983407,99918.84,-46,-46,+176
54961,9.436,-15.315,0.585,0.295445,0.658565,-2.476838,99916.69,-49,-44,+174
54971,8.338,-16.564,0.512,0.149115,0.601630,-1.912802,99917.27,-49,-44,+174
54981,7.172,-16.878,0.576,-0.033399,0.505850,-1.309390,99916.33,-50,-41,+178
54991,6.359,-16.405,0.936,-0.178133,0.361648,-0.656491,99916.33,-49,-41,+178
55002,6.115,-15.841,1.366,-0.166958,0.202547,0.010775,99916.79,-51,-42,+176
55011,6.108,-16.099,1.751,-0.031270,0.062602,0.641325,99917.95,-51,-42,+176
55021,6.310,-16.184,3.151,0.076748,-0.040095,1.226646,99917.37,-50,-44,+179
55031,7.711,-13.316,9.083,0.058124,-0.014021,1.603379,99916.27,-48,-48,+179
55042,14.095,-7.273,11.466,-0.251564,0.021630,1.731086,99916.27,-48,-52,+176
55051,31.581,4.291,-5.883,-1.418481,-0.827085,1.803985,99919.43,-48,-52,+176
55061,33.842,-5.594,-6.195,-0.933196,-0.953727,2.718149,99920.26,-47,-60,+175
55071,21.849,-15.356,0.747,0.572142,-0.478553,3.847286,99918.59,-44,-64,+176
55081,13.269,-9.651,0.343,0.366216,-0.315728,3.876020,99917.38,-40,-69,+175
55091,2.210,3.052,0.598,-0.329252,-0.187489,3.401910,99917.38,-40,-69,+175
55101,-3.842,6.690,2.312,-0.078628,-0.289122,2.987397,99917.80,-36,-73,+176
55111,0.684,0.145,3.325,0.944087,-0.429599,2.705911,99919.27,-33,-76,+177
55121,7.663,-10.119,4.126,1.550692,-0.401929,2.580333,99915.20,-31,-76,+176
55131,14.333,-15.740,1.928,1.319224,-0.459929,2.668663,99916.18,-31,-76,+176
55141,17.043,-12.501,0.397,0.423684,-0.413104,2.482957,99916.18,-27,-77,+179
55151,11.809,-7.283,0.984,-0.278169,-0.103948,2.003526,99919.78,-24,-79,+180
55161,7.768,-3.955,2.519,-0.497931,-0.043287,1.864113,99917.02,-22,-83,+177
55166,6.168,-2.408,2.909,-0.331912,-0.126296,1.815159,99918.69,-22,-83,+177
55176,6.272,-2.032,2.192,-0.025949,-0.231122,1.700223,99918.69,-19,-84,+179
55186,7.779,-3.459,1.105,0.328968,-0.313067,1.600719,99914.81,-17,-85,+179
55196,9.602,-4.990,0.772,0.424216,-0.263581,1.536866,99914.81,-17,-85,+179
55206,10.729,-5.332,0.879,0.193812,-0.148113,1.453324,99919.54,-16,-87,+178
55217,9.906,-4.910,1.084,-0.098848,-0.019875,1.325618,99919.43,-13,-88,+179
55226,8.643,-4.167,1.253,-0.245711,0.073245,1.184609,99918.13,-11,-89,+179
55236,8.283,-3.642,1.371,-0.268059,0.113685,1.060095,99918.13,-11,-89,+179
55246,8.758,-3.560,1.371,-0.295729,0.146676,0.968040,99918.13,-9,-91,+178
55257,9.408,-3.457,1.545,-0.368096,0.205208,0.908444,99918.75,-7,-92,+179
55266,9.681,-3.206,1.821,-0.434077,0.258951,0.878646,99918.91,-5,-93,+178
55276,9.495,-2.901,2.166,-0.451105,0.285024,0.868536,99919.89,-5,-93,+178
55286,9.133,-2.611,2.499,-0.410665,0.281832,0.865343,99920.89,-3,-96,+176
55297,9.022,-2.384,2.837,-0.328720,0.250437,0.874921,99920.89,-1,-97,+178
55307,9.151,-2.595,2.879,-0.266995,0.195098,0.911105,99918.16,+1,-98,+176
55316,9.415,-3.279,2.505,-0.259545,0.124859,0.948352,99919.77,+1,-98,+176
55326,9.463,-3.556,2.040,-0.312224,0.096125,0.968040,99917.48,+3,-100,+174
55336,9.350,-3.433,1.816,-0.371288,0.114749,0.984536,99917.48,+5,-100,+177
55347,9.259,-3.161,1.826,-0.416518,0.129116,1.027637,99917.04,+7,-102,+174
55356,9.321,-2.949,2.014,-0.429821,0.132841,1.087765,99917.82,+7,-102,+174
55366,9.410,-2.952,2.221,-0.417582,0.129648,1.158003,99917.82,+9,-104,+173
55376,9.496,-2.936,2.523,-0.408004,0.115813,1.237288,99917.40,+12,-106,+175
55387,9.354,-2.788,2.992,-0.381399,0.081758,1.321361,99917.09,+15,-108,+173
55396,9.060,-2.831,3.430,-0.326059,0.026951,1.415012,99917.09,+15,-108,+173
55406,8.795,-3.100,3.674,-0.254756,-0.031049,1.502810,99918.83,+17,-109,+171
55416,8.621,-3.788,3.535,-0.193564,-0.078939,1.573049,99918.14,+21,-110,+173
55427,8.797,-4.737,2.938,-0.168023,-0.115654,1.635306,99917.16,+24,-112,+172
55437,9.149,-5.385,2.389,-0.237197,-0.117251,1.674150,99917.83,+26,-112,+171
55446,9.459,-5.559,2.338,-0.412793,-0.065636,1.706077,99918.73,+26,-112,+171
55456,9.817,-5.485,2.113,-0.600096,-0.002847,1.753434,99918.73,+30,-114,+172
55467,10.200,-5.383,1.761,-0.754408,0.054089,1.805581,99915.48,+33,-117,+170
55477,10.583,-5.333,1.395,-0.848059,0.066859,1.872627,99916.33,+37,-120,+166
55486,10.936,-5.245,1.328,-0.884242,0.050896,1.963085,99916.33,+37,-120,+166
55496,11.312,-5.521,1.467,-0.891692,0.029080,2.062058,99916.33,+42,-121,+167
55506,11.888,-5.748,1.299,-0.902866,0.000346,2.163691,99919.98,+46,-123,+163
55517,12.175,-5.814,1.463,-0.941710,-0.013489,2.253085,99917.84,+49,-126,+162
55526,11.910,-6.284,1.430,-0.946499,-0.022535,2.336627,99920.09,+49,-126,+162
55536,11.423,-6.742,1.230,-0.962995,-0.013489,2.376535,99918.58,+56,-127,+162
55546,11.515,-7.316,0.866,-1.068352,-0.008168,2.364828,99918.58,+60,-128,+158
55557,12.625,-6.897,0.508,-1.226921,-0.012957,2.337159,99920.72,+64,-130,+155
55567,14.294,-5.936,0.446,-1.372187,-0.042223,2.335562,99918.86,+64,-130,+155
55576,15.535,-5.247,0.462,-1.428059,-0.098095,2.385581,99917.63,+69,-133,+155
55586,16.180,-5.127,0.401,-1.487655,-0.141728,2.456883,99917.63,+74,-134,+149
55597,17.533,-4.448,0.541,-1.689856,-0.173654,2.473911,99917.63,+78,-137,+145
55607,20.558,-2.764,1.140,-2.050627,-0.254003,2.418571,99917.10,+78,-137,+145
55616,24.479,-0.571,2.055,-2.370957,-0.413636,2.311085,99916.95,+83,-139,+144
55626,26.435,0.662,2.877,-2.332113,-0.624883,2.212645,99915.74,+86,-142,+137
