40014,9.585,-1.523,1.734,0.006692,0.003038,0.007762,100155.31,-22,-235,-29
40025,9.597,-1.509,1.716,0.001903,0.005699,0.000844,100153.71,-23,-235,-29
40035,9.592,-1.480,1.734,-0.000757,0.008359,-0.004477,100158.15,-23,-235,-29
40045,9.575,-1.486,1.729,-0.002886,0.012084,-0.011926,100156.54,-23,-235,-28
40054,9.572,-1.458,1.732,-0.007142,0.014745,-0.015119,100156.54,-22,-234,-30
40065,9.574,-1.430,1.758,-0.009803,0.019002,-0.016715,100154.54,-23,-235,-30
40075,9.598,-1.344,1.772,-0.012464,0.021130,-0.015119,100156.43,-23,-235,-29
40085,9.611,-1.363,1.801,-0.005546,0.022194,-0.012991,100156.43,-23,-234,-29
40094,9.608,-1.444,1.744,0.003500,0.023259,-0.016183,100157.16,-23,-235,-30
40104,9.567,-1.411,1.783,0.006160,0.025387,-0.020972,100155.34,-23,-235,-29
40115,9.557,-1.421,1.784,0.006692,0.026451,-0.023101,100154.45,-23,-234,-29
40125,9.590,-1.458,1.752,0.004032,0.025919,-0.023633,100155.02,-23,-234,-29
40135,9.589,-1.438,1.813,-0.003950,0.025919,-0.023633,100159.13,-23,-234,-30
40144,9.532,-1.408,1.836,-0.009271,0.024855,-0.021504,100156.73,-23,-234,-29
40155,9.580,-1.394,1.857,-0.006078,0.022726,-0.020440,100156.57,-23,-235,-29
40165,9.591,-1.387,1.864,-0.003950,0.019534,-0.017247,100152.90,-23,-235,-29
40175,9.584,-1.364,1.841,-0.002886,0.018470,-0.012458,100152.90,-23,-234,-30
40184,9.590,-1.381,1.825,-0.000757,0.017937,-0.009798,100152.90,-23,-234,-29
40195,9.607,-1.448,1.817,-0.000225,0.016341,-0.008202,100156.64,-23,-234,-29
40205,9.617,-1.443,1.794,-0.006078,0.015809,-0.009266,100155.70,-23,-234,-29
40210,9.596,-1.407,1.818,-0.006610,0.016341,-0.011394,100153.19,-23,-234,-28
40220,9.589,-1.414,1.808,-0.000757,0.016873,-0.012991,100156.84,-23,-234,-28
40229,9.568,-1.481,1.805,0.008821,0.017937,-0.017247,100156.84,-24,-234,-29
40240,9.542,-1.492,1.764,0.007757,0.020598,-0.024165,100157.27,-23,-234,-29
40250,9.534,-1.420,1.764,-0.000225,0.021130,-0.026293,100157.11,-23,-235,-29
40260,9.592,-1.351,1.821,0.007757,0.024323,-0.025229,100156.00,-23,-235,-29
40269,9.581,-1.347,1.814,0.012546,0.025919,-0.022036,100153.70,-23,-234,-28
40280,9.584,-1.370,1.812,0.007757,0.025387,-0.019908,100153.70,-23,-235,-28
40290,9.583,-1.334,1.868,0.005096,0.025919,-0.018312,100159.08,-24,-234,-29
40300,9.580,-1.323,1.892,0.005096,0.025387,-0.017247,100158.66,-23,-234,-29
40310,9.623,-1.354,1.843,0.010949,0.025387,-0.019376,100155.11,-23,-234,-29
40320,9.607,-1.401,1.794,0.016802,0.025387,-0.019376,100154.53,-24,-234,-30
40330,9.583,-1.388,1.782,0.021059,0.028047,-0.019376,100154.53,-23,-234,-28
40340,9.573,-1.388,1.782,0.024252,0.030708,-0.020440,100159.27,-24,-234,-28
40350,9.589,-1.391,1.813,0.021059,0.033901,-0.022036,100157.80,-24,-234,-28
40359,9.567,-1.408,1.813,0.008821,0.034965,-0.022569,100156.64,-23,-234,-28
40370,9.557,-1.374,1.896,-0.001821,0.034965,-0.023101,100155.48,-23,-235,-28
40380,9.578,-1.377,1.858,-0.006078,0.034433,-0.019908,100155.48,-23,-234,-28
40390,9.577,-1.348,1.921,-0.005014,0.032836,-0.015119,100155.05,-23,-234,-28
40399,9.585,-1.280,1.893,0.001371,0.028580,-0.009798,100156.84,-24,-234,-27
40410,9.635,-1.284,1.924,0.021059,0.025387,-0.007669,100157.21,-23,-234,-28
40420,9.579,-1.225,1.984,0.042876,0.021130,-0.009266,100157.15,-24,-234,-28
40430,9.538,-1.332,1.940,0.058839,0.016341,-0.005541,100157.15,-24,-234,-28
40440,9.611,-1.460,1.802,0.061500,0.014213,-0.006605,100158.43,-23,-234,-27
40450,9.622,-1.409,1.784,0.056711,0.015809,-0.009798,100155.87,-23,-234,-27
40460,9.605,-1.419,1.801,0.048729,0.018470,-0.010330,100155.18,-24,-234,-28
40470,9.591,-1.379,1.811,0.039683,0.020066,-0.008734,100154.45,-24,-234,-28
40480,9.542,-1.376,1.861,0.031169,0.020598,-0.005541,100154.45,-24,-233,-27
40489,9.507,-1.370,1.869,0.019463,0.021130,-0.002348,100158.88,-23,-234,-27
40500,9.534,-1.265,1.934,0.014674,0.019534,0.001909,100154.70,-23,-234,-28
40510,9.566,-1.253,1.948,0.022124,0.016873,0.005633,100153.91,-23,-234,-28
40520,9.563,-1.318,1.878,0.027977,0.016873,0.010954,100154.54,-23,-234,-27
40529,9.624,-1.278,1.886,0.039683,0.017405,0.013083,100154.54,-23,-234,-27
40540,9.575,-1.332,1.892,0.057243,0.016341,0.012551,100155.51,-24,-233,-27
40550,9.532,-1.431,1.854,0.067353,0.017937,0.010422,100154.57,-24,-233,-27
40560,9.532,-1.455,1.854,0.063628,0.022726,0.005633,100158.60,-23,-233,-27
40565,9.522,-1.405,1.863,0.056179,0.025919,0.001376,100153.57,-23,-234,-26
40574,9.495,-1.418,1.844,0.050325,0.028580,0.003505,100153.57,-23,-234,-26
40585,9.530,-1.407,1.817,0.043408,0.032836,0.001376,100153.57,-23,-234,-26
40595,9.532,-1.239,1.815,0.043940,0.038158,0.003505,100158.61,-23,-233,-25
40605,9.530,-1.318,1.785,0.048197,0.040818,0.007230,100155.00,-23,-233,-26
40615,9.553,-1.458,1.724,0.038619,0.046139,0.008826,100156.20,-23,-233,-26
40625,9.556,-1.279,1.831,0.017867,0.052525,0.009890,100156.20,-24,-233,-26
40635,9.477,-1.242,1.983,0.018399,0.056781,0.015211,100159.05,-23,-234,-26
40645,9.402,-1.435,1.856,0.024784,0.061570,0.015211,100159.05,-23,-234,-25
40655,9.362,-1.582,1.778,0.007224,0.074341,0.008826,100155.40,-23,-234,-25
40665,9.334,-1.581,1.765,-0.031087,0.088708,0.004569,100157.60,-22,-234,-25
40675,9.364,-1.447,1.763,-0.057161,0.104671,-0.001284,100155.13,-23,-234,-25
40685,9.426,-1.490,1.796,-0.057693,0.119570,-0.006605,100155.13,-23,-234,-26
40695,9.391,-1.311,1.953,-0.051840,0.134469,-0.015119,100156.58,-23,-234,-26
40706,9.451,-1.297,2.013,-0.022574,0.139258,-0.019376,100158.31,-22,-233,-25
40715,9.532,-1.357,2.072,0.022656,0.138726,-0.028422,100153.66,-22,-233,-25
40725,9.433,-1.369,2.228,0.059371,0.138726,-0.043321,100154.72,-21,-234,-24
40735,9.350,-1.427,2.385,0.088637,0.138194,-0.051302,100154.88,-21,-234,-24
40745,9.431,-1.426,2.433,0.088637,0.126488,-0.061413,100157.39,-21,-234,-24
40755,9.501,-1.328,2.312,0.081188,0.113717,-0.068862,100155.25,-23,-233,-24
40765,9.355,-1.177,2.378,0.096087,0.106800,-0.070991,100155.25,-23,-234,-24
40775,9.474,-1.091,2.512,0.138123,0.088708,-0.061413,100152.58,-23,-234,-24
40785,9.964,-1.388,2.276,0.163665,0.063167,-0.056091,100152.58,-23,-232,-22
40795,10.178,-1.599,2.000,0.131738,0.044543,-0.065137,100157.13,-23,-232,-22
40805,10.054,-1.297,2.073,0.080124,0.027515,-0.073119,100154.88,-23,-232,-22
40815,9.890,-1.012,2.288,0.072674,0.009424,-0.073119,100156.59,-23,-232,-22
40825,9.827,-1.165,2.392,0.090766,-0.011861,-0.066734,100151.94,-23,-232,-21
40836,9.569,-1.283,2.550,0.093426,-0.029952,-0.065669,100151.94,-23,-232,-22
40845,9.409,-1.087,2.706,0.089169,-0.051769,-0.063541,100156.83,-24,-231,-22
40855,9.536,-1.158,2.600,0.107261,-0.077842,-0.059284,100156.75,-24,-231,-22
40865,9.592,-1.389,2.384,0.112582,-0.095402,-0.061413,100153.30,-24,-231,-20
40876,9.514,-1.338,2.244,0.099279,-0.104448,-0.068330,100153.30,-24,-231,-20
40885,9.478,-1.311,2.103,0.092894,-0.109769,-0.069926,100153.30,-24,-231,-20
40895,9.469,-1.503,1.926,0.087041,-0.104448,-0.074715,100158.34,-24,-231,-20
40905,9.464,-1.589,1.787,0.053518,-0.097530,-0.085357,100156.51,-24,-230,-20
40915,9.499,-1.488,1.787,0.005628,-0.085292,-0.099192,100154.52,-24,-230,-21
40925,9.425,-1.323,1.854,-0.025234,-0.072521,-0.110899,100154.99,-26,-230,-21
40935,9.404,-1.268,1.896,-0.036941,-0.061347,-0.115156,100154.99,-26,-230,-21
40945,9.456,-1.117,1.876,-0.049179,-0.052833,-0.117284,100156.89,-26,-230,-22
40955,9.562,-1.017,2.020,-0.048647,-0.047512,-0.113027,100156.16,-26,-230,-22
40966,9.529,-1.043,2.112,-0.030023,-0.048576,-0.111963,100154.78,-26,-229,-21
40975,9.428,-1.031,2.181,-0.005014,-0.050705,-0.110367,100154.78,-26,-229,-21
40985,9.541,-1.102,2.098,0.022124,-0.054962,-0.106642,100158.70,-27,-229,-22
40995,9.611,-1.194,1.887,0.018399,-0.059218,-0.106110,100158.70,-27,-229,-22
41006,9.544,-1.169,1.799,-0.010335,-0.060283,-0.104513,100157.09,-28,-230,-22
41015,9.501,-1.083,1.870,-0.023106,-0.053897,-0.096000,100155.30,-28,-230,-22
41025,9.587,-1.072,1.854,-0.022574,-0.047512,-0.088018,100155.66,-28,-229,-22
41035,9.806,-1.061,2.147,-0.037473,-0.047157,-0.076666,100157.93,-29,-228,-22
41044,9.759,-0.835,2.373,-0.063546,-0.061879,-0.067798,100157.93,-29,-228,-22
41056,9.561,-0.618,2.279,-0.064078,-0.080503,-0.048110,100155.73,-29,-229,-23
41065,9.523,-0.763,2.076,-0.040665,-0.090613,-0.021504,100156.15,-29,-229,-23
41075,9.559,-0.862,1.933,-0.030555,-0.093806,0.001909,100153.32,-29,-228,-23
41085,9.543,-0.952,1.887,-0.024702,-0.098595,0.019468,100157.30,-30,-230,-23
41096,9.554,-1.125,1.839,-0.031620,-0.100723,0.033835,100156.56,-30,-228,-23
41105,9.557,-1.227,1.841,-0.061950,-0.102852,0.041817,100155.20,-30,-228,-23
41115,9.632,-1.192,1.843,-0.106647,-0.109237,0.050330,100155.20,-29,-229,-23
41125,9.684,-1.044,1.938,-0.146555,-0.122540,0.063633,100153.80,-29,-230,-25
41135,9.630,-0.716,2.124,-0.153473,-0.137971,0.083853,100153.80,-29,-230,-25
41145,9.599,-0.557,2.219,-0.112500,-0.159787,0.115780,100155.16,-29,-230,-25
41155,9.650,-0.648,2.139,-0.065142,-0.184264,0.154092,100156.16,-30,-230,-25
41165,9.760,-0.837,1.951,-0.045454,-0.212466,0.192936,100153.96,-29,-231,-25
41176,9.847,-0.932,1.916,-0.057161,-0.232154,0.224330,100153.85,-28,-231,-27
41185,9.833,-0.972,1.887,-0.074188,-0.248650,0.252532,100153.85,-28,-231,-27
41195,9.857,-1.122,1.726,-0.094941,-0.264081,0.279670,100156.44,-28,-231,-26
41205,9.917,-1.376,1.471,-0.155069,-0.272062,0.306807,100155.36,-27,-232,-28
41216,10.032,-1.638,1.293,-0.282775,-0.277383,0.340330,100154.66,-26,-233,-30
41226,9.980,-1.233,1.613,-0.433362,-0.287494,0.384495,100154.66,-26,-233,-30
41235,9.718,-0.348,2.449,-0.506793,-0.320484,0.461651,100154.66,-25,-234,-31
41245,9.671,0.724,2.895,-0.465289,-0.374760,0.581376,100159.14,-23,-236,-32
41255,9.865,2.466,4.010,-0.281711,-0.430099,0.730899,100155.89,-22,-236,-34
41266,10.696,1.490,3.617,0.067885,-0.558337,0.905431,100155.36,-22,-236,-34
41271,12.052,0.015,2.981,0.341389,-0.653053,0.986844,100151.97,-19,-238,-34
41280,13.116,-0.551,2.890,0.529224,-0.771713,1.012917,100151.97,-16,-238,-33
41290,13.830,-0.145,3.364,0.795279,-0.940392,1.060807,100157.20,-16,-238,-33
41300,14.139,-0.404,3.295,0.871903,-1.084062,1.147541,100156.73,-14,-239,-32
41311,15.142,-0.581,3.175,0.718123,-1.179842,1.297596,100154.38,-10,-240,-32
41320,17.765,0.601,2.323,0.541463,-1.224539,1.401889,100153.90,-7,-242,-31
41330,19.973,1.333,1.088,0.506343,-1.269236,1.504054,100153.90,-7,-242,-31
41340,19.303,0.905,1.311,0.416949,-1.185163,1.681247,100157.70,-3,-244,-31
41351,16.707,-1.299,0.453,0.181756,-1.018612,1.875999,100153.72,+1,-244,-32
41360,14.706,-4.819,-0.410,-0.044922,-0.876539,1.890366,100155.81,+6,-248,-33
41370,14.868,-4.942,-1.225,-0.117821,-0.833438,1.860036,100154.77,+6,-248,-33
41380,15.290,-7.153,-1.779,0.012546,-0.835567,1.984550,100154.77,+12,-250,-35
41391,14.972,-11.549,-1.179,0.250931,-0.825989,2.238898,100154.86,+19,-251,-34
41400,15.891,-9.756,-0.452,0.363738,-0.817475,2.196861,100155.44,+26,-252,-34
41410,14.582,-6.787,-0.798,0.535609,-0.821200,2.022329,100157.00,+26,-252,-34
41420,10.709,-7.278,0.392,0.486123,-0.785548,2.036696,100152.67,+33,-253,-33
41431,8.857,-7.098,1.272,0.437701,-0.741383,1.981357,100152.67,+39,-254,-32
41441,8.417,-7.612,0.894,0.266362,-0.705732,1.898348,100155.27,+45,-256,-32
41450,7.145,-7.510,0.205,-0.034280,-0.685512,1.798311,100153.96,+45,-256,-32
41460,5.697,-6.491,0.228,-0.331197,-0.611016,1.640274,100152.18,+51,-256,-33
41470,4.714,-5.398,0.373,-0.528610,-0.527475,1.523210,100153.96,+56,-256,-35
41481,4.068,-4.571,0.119,-0.609491,-0.454044,1.421045,100153.96,+60,-258,-37
41490,3.445,-3.942,-0.187,-0.621197,-0.377420,1.313027,100154.74,+60,-258,-37
41500,2.647,-3.550,-0.361,-0.586078,-0.300264,1.202880,100152.65,+64,-259,-39
41510,1.851,-3.301,-0.611,-0.519564,-0.241732,1.089541,100151.66,+69,-260,-40
41521,1.089,-3.061,-0.767,-0.416867,-0.197567,0.979394,100151.40,+72,-260,-42
41530,0.498,-2.999,-0.810,-0.290225,-0.161384,0.868183,100151.40,+72,-260,-42
41540,0.031,-2.834,-0.848,-0.171032,-0.139567,0.740477,100154.80,+74,-260,-44
41550,-0.276,-2.580,-0.924,-0.046519,-0.132118,0.616495,100153.19,+76,-260,-43
41561,-0.412,-2.500,-0.987,0.100344,-0.130521,0.507945,100153.50,+79,-260,-43
41571,-0.493,-2.668,-0.977,0.255188,-0.122007,0.404183,100151.14,+79,-260,-43
41580,-0.586,-2.733,-0.998,0.375977,-0.106044,0.294569,100151.14,+80,-259,-43
41590,-0.535,-2.674,-1.034,0.444619,-0.090613,0.184422,100156.39,+80,-259,-40
41601,-0.322,-2.650,-0.965,0.456857,-0.074118,0.074808,100156.13,+80,-259,-38
41611,0.005,-2.658,-0.953,0.389279,-0.070393,-0.033743,100156.55,+80,-259,-38
41620,0.273,-2.765,-0.904,0.265830,-0.075182,-0.131651,100151.42,+80,-258,-38
41626,0.424,-2.879,-0.830,0.160472,-0.076246,-0.207211,100151.42,+80,-258,-38
41635,0.530,-3.004,-0.762,0.067885,-0.067200,-0.293412,100151.42,+80,-258,-38
41646,0.816,-3.094,-0.587,-0.034812,-0.049641,-0.429100,100155.47,+78,-258,-37
41656,1.187,-3.009,-0.417,-0.125803,-0.033145,-0.586073,100154.58,+76,-259,-38
41665,1.441,-2.796,-0.274,-0.191785,-0.008136,-0.749963,100149.98,+73,-259,-38
41675,1.654,-2.581,0.065,-0.225307,0.041350,-0.915981,100152.86,+73,-259,-38
41686,2.000,-2.544,0.319,-0.229564,0.095625,-1.079339,100155.73,+69,-258,-39
41696,2.510,-2.520,0.268,-0.262555,0.141387,-1.242164,100154.53,+66,-258,-40
41705,3.123,-2.423,0.284,-0.317362,0.191937,-1.399669,100154.53,+60,-260,-40
41715,3.805,-2.359,0.406,-0.330665,0.263772,-1.555577,100153.91,+60,-260,-40
41725,4.622,-2.504,0.478,-0.291289,0.351038,-1.719467,100155.27,+55,-258,-41
41736,5.770,-2.738,0.616,-0.237014,0.444157,-1.889210,100155.27,+48,-259,-42
41745,7.251,-2.992,0.829,-0.175289,0.537277,-2.061613,100158.26,+42,-258,-43
41755,8.742,-3.155,1.120,-0.098133,0.641038,-2.254237,100155.96,+42,-258,-43
41765,10.206,-3.158,1.459,-0.052372,0.742139,-2.451650,100153.45,+34,-256,-42
41776,11.563,-3.070,1.700,-0.053968,0.833130,-2.623521,100152.82,+25,-254,-41
41786,12.719,-2.851,2.031,-0.112500,0.931038,-2.746439,100152.82,+16,-252,-41
41796,14.129,-2.337,2.415,-0.209876,1.025753,-2.810292,100154.79,+16,-252,-41
41805,15.622,-1.801,2.406,-0.349821,1.116212,-2.802310,100153.87,+7,-250,-42
41816,17.455,-2.279,2.895,-0.397179,1.239129,-2.743246,100154.24,-1,-246,-41
41826,19.400,-2.708,3.010,-0.380684,1.349808,-2.670879,100154.24,-8,-244,-41
41835,20.330,-2.149,3.659,-0.395583,1.438671,-2.568714,100154.24,-8,-244,-41
41845,21.010,0.439,9.111,-0.300335,1.478579,-2.451650,100156.62,-16,-241,-39
41856,34.096,5.840,-0.341,0.243481,1.010854,-1.832806,100154.99,-21,-238,-37
41866,45.930,1.946,-15.956,0.525499,-0.225237,-0.752091,100154.63,-24,-236,-37
41876,23.028,-16.111,-9.474,0.556894,0.367001,-0.724953,100158.18,-24,-236,-37
41885,12.803,-9.297,-3.573,-0.818610,0.907625,-0.748898,100158.18,-26,-236,-35
41895,5.031,4.740,1.558,-2.467618,0.737882,-0.671742,100158.45,-27,-235,-40
41906,-4.245,8.732,4.406,-2.644811,0.401589,-0.230623,100154.84,-28,-238,-47
41916,0.190,7.116,3.594,-1.137876,0.272286,-0.130587,100153.52,-28,-238,-47
41925,7.117,1.790,2.896,0.468032,0.361148,-0.117284,100153.52,-28,-238,-48
41935,9.195,-5.586,2.699,1.234270,0.444157,0.083853,100155.20,-29,-237,-45
41946,10.878,-8.863,3.791,1.193297,0.431387,0.261578,100155.20,-26,-237,-40
41956,11.639,-7.054,5.049,0.529224,0.231313,0.262110,100156.09,-26,-237,-40
41965,10.630,-3.066,4.662,-0.118886,0.031772,0.006697,100155.52,-26,-236,-38
41975,9.225,-0.971,2.722,-0.402500,-0.073053,-0.160385,100153.73,-26,-236,-40
41986,8.961,-1.468,0.609,-0.373766,-0.122007,-0.116220,100153.73,-27,-237,-42
41996,9.832,-2.025,-0.512,-0.234885,-0.119879,-0.056091,100158.98,-26,-237,-42
42006,10.629,-0.697,-0.785,-0.215197,-0.107108,0.009358,100153.70,-26,-237,-42
42015,10.735,1.444,-0.582,-0.106647,-0.052833,0.072679,100155.75,-26,-237,-44
42025,10.635,2.220,-0.325,0.341389,0.039222,0.131211,100155.83,-26,-237,-42
42036,10.279,0.737,-0.101,0.970343,0.118506,0.195064,100159.13,-26,-237,-38
42046,9.629,-1.232,0.597,1.334306,0.179167,0.240826,100156.61,-26,-237,-38
42055,9.311,-2.434,1.260,1.298123,0.196726,0.272752,100156.61,-25,-236,-34
42065,9.519,-2.938,1.629,1.047499,0.191405,0.297229,100155.94,-24,-235,-30
42076,9.852,-3.525,2.181,0.669701,0.138194,0.265303,100155.45,-22,-235,-29
42086,9.948,-4.418,1.759,0.172179,0.061570,0.187615,100155.45,-22,-235,-29
42095,9.912,-3.608,1.366,-0.226372,0.043479,0.101945,100154.05,-21,-234,-30
42105,9.645,-2.226,1.116,-0.486041,0.028580,0.059908,100156.81,-22,-236,-30
42116,9.304,-1.013,0.538,-0.521160,0.058378,0.045542,100155.41,-21,-235,-32
42126,9.346,-0.108,0.464,-0.293418,0.129148,0.057248,100152.84,-21,-235,-32
42136,9.480,-0.494,0.841,0.031169,0.169589,0.077468,100152.84,-21,-235,-32
42145,9.640,-1.089,1.237,0.291903,0.180231,0.092367,100155.32,-21,-236,-32
42156,9.627,-1.505,1.794,0.451004,0.179167,0.088642,100154.95,-20,-236,-30
42166,9.480,-1.994,1.934,0.433444,0.149369,0.094496,100155.37,-20,-236,-30
42176,9.645,-2.167,1.769,0.315848,0.115314,0.099817,100155.37,-20,-235,-27
42185,9.853,-2.105,1.498,0.173243,0.088176,0.090771,100155.37,-19,-235,-27
42195,9.699,-1.906,1.205,0.041812,0.075405,0.081193,100157.00,-19,-236,-27
42206,9.507,-1.578,1.125,-0.042794,0.079662,0.071083,100155.11,-19,-236,-27
42216,9.419,-1.599,1.157,-0.035876,0.094561,0.067358,100153.70,-18,-236,-27
42225,9.512,-1.903,1.021,0.008289,0.113185,0.061505,100152.45,-18,-236,-27
42235,9.505,-2.276,1.106,0.015206,0.131277,0.047670,100152.45,-17,-236,-27
42246,9.519,-2.195,1.335,-0.009803,0.141387,0.034367,100156.96,-17,-236,-27
42256,9.605,-1.846,1.398,-0.030555,0.146708,0.031707,100157.85,-17,-235,-27
42266,9.587,-1.783,1.347,-0.072060,0.148836,0.039156,100155.41,-17,-236,-27
42275,9.615,-1.680,1.387,-0.118886,0.147240,0.055119,100155.41,-17,-236,-26
42286,9.690,-1.437,1.484,-0.140702,0.142983,0.076404,100156.45,-17,-236,-26
42296,9.675,-1.297,1.498,-0.122610,0.137130,0.099285,100156.45,-17,-236,-27
42306,9.589,-1.274,1.631,-0.088023,0.129148,0.125358,100153.73,-16,-237,-27
42315,9.563,-1.340,1.795,-0.036941,0.120635,0.151431,100155.83,-16,-237,-27
42326,9.556,-1.374,1.923,0.022124,0.106268,0.170055,100155.45,-16,-237,-27
42336,9.471,-1.627,1.800,0.054582,0.089772,0.183890,100155.45,-15,-238,-27
42346,9.626,-1.832,1.558,0.065757,0.078066,0.188147,100157.41,-14,-237,-27
42356,9.699,-2.000,1.308,0.060968,0.078598,0.186018,100155.54,-13,-238,-26
42365,9.593,-2.247,1.174,0.033830,0.080726,0.184954,100157.15,-13,-238,-26
42376,9.549,-2.082,1.018,-0.025234,0.087644,0.183890,100155.01,-12,-238,-27
42386,9.597,-1.925,1.125,-0.067271,0.108928,0.189743,100159.60,-11,-238,-26
42396,9.541,-1.949,1.369,-0.077913,0.124891,0.201450,100155.32,-11,-238,-27
42405,9.449,-1.898,1.665,-0.068867,0.127020,0.209963,100155.48,-11,-238,-27
42416,9.392,-1.759,1.879,0.024252,0.126488,0.220606,100155.48,-10,-238,-25
42426,9.364,-1.769,1.890,0.138123,0.124359,0.228055,100153.90,-9,-239,-25
42436,9.378,-2.026,1.941,0.154087,0.109460,0.239229,100153.90,-8,-240,-25
42445,9.567,-1.881,2.129,0.125885,0.087644,0.255193,100157.27,-8,-240,-24
42451,9.735,-1.670,2.249,0.110454,0.067424,0.269560,100154.08,-8,-240,-24
42461,9.719,-1.674,2.266,0.116307,0.044011,0.288716,100154.34,-6,-240,-25
42471,9.696,-1.772,2.140,0.125885,0.010488,0.313193,100157.58,-6,-240,-25
42480,9.711,-1.819,2.062,0.109390,-0.022503,0.338202,100157.58,-5,-240,-23
42490,9.742,-1.882,1.981,0.089702,-0.049108,0.366404,100157.90,-4,-240,-24
42501,9.832,-2.012,1.758,0.066821,-0.077842,0.393009,100156.23,-2,-240,-23
42511,9.951,-2.271,1.546,-0.011399,-0.112962,0.407376,100157.21,-2,-240,-23
42521,10.063,-2.675,1.071,-0.117821,-0.125732,0.397266,100153.02,-1,-242,-24
42530,9.930,-2.590,1.201,-0.206152,-0.101255,0.380239,100153.02,-1,-242,-25
42541,9.657,-2.765,1.314,-0.297142,-0.098595,0.362679,100158.24,+0,-243,-26
42551,9.553,-2.614,1.198,-0.328537,-0.084760,0.335009,100155.73,+0,-243,-26
42561,9.490,-2.553,1.460,-0.287032,-0.061879,0.306807,100155.52,+1,-244,-27
42570,9.358,-2.511,1.621,-0.208812,-0.051237,0.285523,100156.77,+1,-244,-27
42580,9.246,-2.431,1.589,-0.127399,-0.044319,0.265835,100156.77,+2,-244,-27
42591,9.331,-2.443,1.860,-0.000757,-0.040063,0.244018,100156.41,+2,-244,-27
42601,9.368,-2.500,1.795,0.091830,-0.050173,0.223266,100154.63,+3,-244,-28
42611,9.352,-2.543,1.665,0.113646,-0.051769,0.214752,100154.63,+3,-245,-27
42620,9.399,-2.541,1.619,0.101408,-0.053365,0.216349,100154.89,+4,-245,-27
42631,9.444,-2.438,1.661,0.066289,-0.054962,0.218477,100154.89,+4,-245,-27
42641,9.422,-2.482,1.700,0.018399,-0.056558,0.226459,100159.42,+4,-246,-27
42651,9.419,-2.585,1.758,-0.034812,-0.065604,0.242422,100153.36,+6,-246,-27
42660,9.368,-2.468,1.853,-0.093876,-0.081035,0.263707,100157.86,+7,-246,-27
42671,9.381,-2.464,1.833,-0.140702,-0.099127,0.290312,100151.94,+7,-246,-27
42681,9.389,-2.463,1.827,-0.161454,-0.118815,0.320110,100151.94,+8,-246,-27
42691,9.410,-2.476,1.795,-0.167840,-0.140099,0.348844,100157.22,+8,-247,-29
42700,9.433,-2.445,1.819,-0.157197,-0.158723,0.381303,100159.00,+10,-248,-29
42711,9.523,-2.681,1.748,-0.149216,-0.190650,0.421211,100153.52,+11,-248,-30
42721,9.585,-2.653,1.699,-0.176885,-0.225769,0.455798,100154.56,+11,-248,-30
42731,9.620,-2.024,1.732,-0.229032,-0.238539,0.494110,100154.56,+12,-248,-31
42741,9.771,-2.301,1.435,-0.251913,-0.273659,0.537211,100157.73,+14,-250,-32
42750,9.926,-2.709,1.188,-0.244463,-0.272062,0.555303,100156.75,+16,-251,-33
42761,9.725,-3.020,1.070,-0.256702,-0.260888,0.552642,100154.13,+16,-251,-33
42771,9.464,-3.072,1.001,-0.264151,-0.248117,0.549449,100154.66,+17,-252,-33
42781,9.450,-3.314,0.979,-0.210941,-0.236943,0.543596,100154.66,+19,-252,-35
42790,9.413,-3.387,0.915,-0.135913,-0.218319,0.524972,100157.50,+21,-253,-35
42801,9.189,-3.340,1.011,-0.095473,-0.195971,0.513266,100156.92,+21,-253,-35
42807,9.119,-3.248,1.179,-0.060886,-0.187989,0.506881,100154.88,+22,-253,-36
42816,9.087,-3.194,1.229,-0.012996,-0.184796,0.504752,100154.88,+22,-253,-36
42826,9.158,-3.228,1.291,0.059903,-0.183200,0.502624,100153.73,+24,-254,-36
42835,9.127,-3.355,1.234,0.108857,-0.189053,0.501560,100153.73,+26,-254,-35
42846,9.127,-3.377,1.206,0.133867,-0.198099,0.508477,100156.58,+28,-255,-36
42856,9.166,-3.181,1.530,0.145573,-0.210870,0.522312,100156.88,+28,-255,-36
42866,9.075,-2.941,1.829,0.149830,-0.231090,0.543064,100153.23,+29,-254,-35
42876,9.031,-2.914,1.833,0.163665,-0.239604,0.570202,100153.23,+30,-256,-35
42886,9.152,-3.018,1.706,0.176968,-0.247585,0.600532,100153.23,+32,-255,-34
42896,9.335,-3.327,1.528,0.206234,-0.265145,0.638844,100156.51,+32,-255,-34
42906,9.692,-3.901,1.080,0.231243,-0.304521,0.672367,100154.26,+35,-256,-33
42916,9.996,-4.021,0.902,0.176968,-0.334851,0.695248,100154.84,+37,-256,-33
42926,10.138,-4.158,0.708,0.051922,-0.362521,0.724514,100159.12,+39,-257,-33
42936,10.071,-3.944,0.687,-0.067271,-0.371035,0.745266,100159.12,+41,-257,-34
42946,9.939,-3.732,0.835,-0.135913,-0.374227,0.771871,100157.89,+41,-257,-34
42956,9.869,-3.913,1.028,-0.134849,-0.377952,0.792091,100157.27,+43,-258,-35
42967,9.818,-4.375,1.349,-0.113032,-0.380081,0.803266,100157.08,+46,-258,-35
42976,9.545,-5.466,2.732,-0.159326,-0.341237,0.813908,100157.08,+48,-259,-37
42986,9.882,-4.954,2.293,-0.324812,-0.338576,0.799541,100156.30,+48,-259,-37
42996,10.155,-4.601,1.819,-0.426977,-0.355072,0.792624,100157.66,+51,-260,-37
43005,10.926,-4.620,1.460,-0.475399,-0.367842,0.814440,100157.66,+53,-261,-39
43016,11.686,-3.972,0.326,-0.490830,-0.405622,0.827211,100156.24,+56,-261,-40
43026,11.691,-3.871,-0.414,-0.491894,-0.439677,0.846899,100153.90,+56,-261,-40
43036,11.804,-3.763,-0.946,-0.479656,-0.481182,0.904899,100153.90,+59,-262,-43
43041,11.947,-3.569,-1.175,-0.447197,-0.520026,0.960238,100159.50,+59,-262,-43
43051,12.057,-3.503,-1.119,-0.406225,-0.561530,1.010256,100157.14,+62,-263,-44
43061,12.256,-3.461,-0.561,-0.345564,-0.617402,1.092734,100156.98,+66,-264,-46
43071,12.476,-3.433,0.104,-0.298207,-0.675934,1.176275,100155.98,+69,-264,-47
43081,12.389,-4.268,0.614,-0.268408,-0.725952,1.250238,100155.98,+69,-264,-47
43091,12.284,-4.077,1.098,-0.338115,-0.757347,1.284293,100158.45,+73,-265,-49
43101,12.117,-4.323,1.425,-0.484445,-0.783952,1.308238,100157.71,+77,-265,-50
43111,12.247,-4.091,1.492,-0.614812,-0.813750,1.341229,100154.15,+83,-266,-52
43121,12.891,-3.799,1.538,-0.752628,-0.866961,1.355596,100155.24,+83,-266,-52
43131,13.679,-3.118,1.474,-0.885124,-0.932943,1.353467,100155.24,+87,-266,-55
43141,14.039,-1.679,1.554,-0.997399,-0.985622,1.325265,100158.02,+90,-267,-59
43151,13.625,-0.801,1.881,-1.013362,-1.018612,1.336972,100156.23,+94,-267,-62
43161,13.023,-0.366,1.967,-0.963344,-1.059940,1.408984,100154.78,+99,-267,-66
43171,13.013,-0.241,1.948,-0.911729,-1.092044,1.469999,100155.14,+99,-267,-66
43181,13.508,-0.660,1.777,-0.884591,-1.136741,1.590256,100155.14,+105,-268,-67
43191,14.132,-1.241,1.490,-0.900555,-1.184098,1.747761,100155.00,+110,-268,-71
43201,14.910,-2.082,1.223,-0.863839,-1.219218,1.989338,100155.16,+117,-268,-74
43211,15.597,-2.711,1.400,-0.764867,-1.241566,2.244219,100154.22,+117,-268,-74
43220,15.857,-2.538,2.007,-0.778702,-1.280410,2.337338,100154.58,+126,-266,-76
43231,15.010,-2.047,3.224,-0.787748,-1.267640,2.332549,100154.58,+133,-266,-78
43241,14.151,-2.433,3.928,-0.576500,-1.217621,2.322971,100155.51,+142,-264,-79
43251,13.620,-2.912,4.127,-0.323216,-1.160686,2.248476,100153.52,+142,-264,-79
43261,12.668,-2.185,4.098,-0.191785,-1.084594,2.128751,100152.90,+149,-262,-79
43271,11.417,-0.516,4.205,-0.023638,-0.968062,1.932403,100154.57,+156,-261,-79
43281,9.802,0.155,3.742,0.287646,-0.897824,1.667412,100154.57,+161,-258,-77
43291,7.728,-0.514,2.410,0.511665,-0.895163,1.309302,100155.70,+161,-258,-77
43301,5.241,-5.823,1.270,0.560087,-0.878135,1.160311,100156.26,+165,-258,-76
43311,7.940,-7.201,0.776,0.222197,-0.897824,1.125192,100156.68,+168,-256,-74
43321,8.988,-2.083,1.451,-0.032684,-0.780759,0.687798,100153.23,+170,-256,-72
43331,7.831,1.035,1.693,0.155151,-0.665292,0.224863,100153.23,+170,-256,-72
43341,6.183,2.446,1.129,0.564343,-0.601438,-0.010330,100154.41,+169,-256,-71
43352,5.404,2.296,0.754,0.949059,-0.542374,-0.250844,100153.30,+167,-256,-68
43361,5.038,1.525,0.809,1.390178,-0.400301,-0.595119,100153.10,+165,-256,-62
43371,5.253,1.035,1.171,1.690288,-0.238007,-0.915981,100152.21,+165,-256,-62
43381,5.402,0.426,1.220,1.809480,-0.129457,-1.188953,100152.21,+161,-255,-55
43392,5.429,-0.680,1.341,1.836618,-0.033677,-1.451283,100155.20,+155,-255,-51
43397,5.619,-1.350,1.291,1.789792,0.016341,-1.664127,100152.41,+155,-255,-51
43406,6.019,-1.277,0.511,1.598765,0.023259,-1.913155,100152.41,+148,-256,-45
43416,5.947,-1.239,0.357,1.329517,0.094561,-2.207943,100153.20,+140,-257,-41
43426,6.201,-1.389,0.949,1.137426,0.198323,-2.448457,100149.90,+131,-258,-37
43437,6.365,-0.847,0.724,0.945866,0.253130,-2.748035,100149.90,+131,-258,-37
43447,6.735,-0.351,0.436,0.863921,0.321772,-2.990145,100152.02,+120,-258,-35
43456,7.281,-0.435,0.138,0.915004,0.393607,-3.166805,100152.92,+108,-258,-32
43466,7.516,-0.865,0.130,1.069316,0.476084,-3.350383,100150.67,+96,-257,-29
43476,7.631,-1.312,0.319,1.233205,0.566543,-3.535557,100150.67,+96,-257,-29
43486,7.799,-1.761,0.683,1.355591,0.669772,-3.710621,100150.67,+84,-256,-24
43496,8.066,-2.129,1.126,1.429022,0.772469,-3.877704,100153.61,+71,-254,-20
43506,8.579,-2.481,1.473,1.423169,0.865588,-4.043190,100148.53,+57,-251,-15
43516,9.259,-2.903,1.687,1.312490,0.941148,-4.190584,100150.27,+57,-251,-15
43526,9.985,-3.395,1.700,1.117206,1.008194,-4.317226,100151.00,+44,-246,-11
43536,10.582,-3.980,1.551,0.869774,1.081093,-4.425777,100151.00,+30,-242,-8
43546,11.041,-4.776,1.465,0.607444,1.173148,-4.506125,100155.50,+16,-237,-4
43556,11.450,-5.594,1.642,0.370123,1.276909,-4.568382,100152.44,+16,-237,-4
43567,11.893,-5.883,1.787,0.129078,1.369496,-4.639153,100152.20,+2,-232,-3
43576,12.549,-5.654,1.970,-0.083766,1.466340,-4.708859,100152.20,-10,-226,-1
43586,13.211,-5.136,1.893,-0.238610,1.556267,-4.777502,100155.99,-23,-218,+0
43596,13.581,-4.923,1.525,-0.285968,1.636083,-4.803042,100155.99,-23,-218,+0
43607,13.851,-4.900,1.050,-0.222647,1.705258,-4.784951,100153.26,-35,-211,+1
43616,14.242,-4.813,0.405,-0.145491,1.743037,-4.747171,100150.45,-46,-203,+3
43626,14.865,-4.564,-0.234,-0.094941,1.760065,-4.690235,100151.96,-56,-195,+5
43636,15.711,-4.523,-0.593,-0.020977,1.757936,-4.614676,100151.96,-56,-195,+5
43646,16.462,-4.773,-0.924,0.059903,1.722817,-4.531667,100152.77,-65,-184,+10
43657,16.677,-5.094,-1.432,0.096087,1.645661,-4.435355,100154.08,-73,-174,+11
43666,16.532,-5.515,-1.797,0.125885,1.535514,-4.274658,100156.80,-80,-164,+15
43676,16.139,-6.489,-1.247,0.244013,1.431221,-4.029355,100152.74,-80,-164,+15
43686,15.593,-8.001,-0.388,0.393004,1.355129,-3.731374,100157.91,-86,-153,+18
43697,14.794,-10.056,0.418,0.425995,1.323203,-3.400401,100158.34,-91,-144,+23
43706,13.996,-12.331,0.584,0.226454,1.318946,-3.036970,100157.29,-95,-136,+26
43716,13.225,-14.435,-0.082,-0.192317,1.284359,-2.587337,100157.29,-95,-136,+26
43726,12.593,-15.779,-1.212,-0.753160,1.158249,-2.027558,100155.73,-96,-130,+28
43737,12.249,-15.788,-2.123,-1.297509,0.892194,-1.357632,100155.73,-98,-129,+28
43746,12.185,-14.429,-2.313,-1.660407,0.494176,-0.618531,100159.22,-98,-131,+26
43752,11.973,-12.768,-2.082,-1.728518,0.175974,-0.070991,100156.92,-98,-131,+26
43761,11.326,-11.095,-1.423,-1.569417,-0.073053,0.413229,100156.08,-97,-134,+23
43771,10.230,-9.869,-0.319,-1.115527,-0.278980,0.982055,100156.97,-95,-140,+20
43782,9.361,-8.854,0.280,-0.479656,-0.369438,1.432752,100156.97,-95,-140,+20
43791,9.535,-5.525,0.951,0.206234,-0.401897,1.706256,100159.44,-93,-143,+20
43801,9.152,-4.262,8.488,0.947995,-0.182668,1.933467,100156.45,-90,-146,+21
43811,12.337,5.813,15.972,0.823481,0.302616,1.732862,100153.78,-85,-150,+23
43822,20.358,21.229,3.453,0.005628,-0.063475,1.209265,100155.94,-85,-150,+23
43831,19.219,5.840,-8.601,0.814435,-0.778099,2.144714,100155.94,-83,-153,+23
43841,21.200,-10.577,-1.872,2.944470,-0.419457,2.734824,100159.73,-78,-153,+27
43851,19.899,-10.884,-1.785,2.306471,-0.419989,2.619889,100161.77,-74,-156,+31
43862,11.239,-4.308,-3.771,0.541463,-0.464154,2.185687,100156.12,-74,-156,+31
43872,5.924,0.888,-1.076,-0.232757,-0.445530,2.216549,100158.95,-70,-160,+29
43881,4.795,0.167,3.352,-0.124739,-0.363585,2.350641,100158.95,-66,-166,+28
43891,8.132,-2.231,4.929,0.150362,-0.311439,2.255393,100159.75,-61,-171,+28
43901,11.124,-5.272,3.836,0.114711,-0.429035,2.253265,100157.75,-61,-171,+28
43912,12.158,-5.519,2.171,-0.058757,-0.492356,2.059045,100157.44,-57,-175,+28
43921,11.734,-3.269,1.040,-0.116757,-0.464686,1.756806,100155.45,-53,-179,+27
43931,10.524,-1.899,0.372,-0.030555,-0.414136,1.556733,100155.45,-50,-182,+26
43941,9.962,-1.874,0.234,-0.002353,-0.381677,1.516293,100158.33,-50,-182,+26
43952,9.756,-2.239,0.126,-0.146023,-0.346026,1.517357,100159.38,-48,-185,+25
43961,10.405,-2.561,0.130,-0.336518,-0.303457,1.490752,100157.66,-43,-189,+23
43971,10.502,-1.814,1.201,-0.528078,-0.243861,1.419981,100156.81,-41,-193,+22
43981,9.565,-1.479,1.794,-0.660573,-0.208741,1.307174,100156.81,-41,-193,+22
43987,9.088,-1.668,1.686,-0.632371,-0.211402,1.253963,100156.13,-37,-196,+20
43997,9.018,-1.506,1.606,-0.519564,-0.210338,1.191706,100156.13,-34,-199,+19
44007,9.501,-1.114,1.651,-0.383344,-0.195439,1.090605,100156.45,-34,-199,+19
44016,10.045,-1.109,1.553,-0.313106,-0.179475,1.015578,100156.28,-32,-201,+18
44026,10.211,-1.309,1.529,-0.265748,-0.157659,0.968752,100155.77,-30,-203,+18
44037,9.917,-1.180,1.641,-0.215730,-0.129989,0.911816,100161.27,-28,-206,+17
44047,9.468,-1.133,1.728,-0.184335,-0.115622,0.879890,100154.84,-28,-206,+17
44056,9.310,-1.391,1.970,-0.177418,-0.111897,0.878293,100159.49,-25,-207,+16
44066,9.329,-1.472,2.131,-0.218390,-0.108705,0.875101,100159.49,-22,-209,+16
44077,9.419,-1.351,2.266,-0.317895,-0.118283,0.883082,100158.87,-20,-211,+14
44087,9.556,-1.236,2.177,-0.400372,-0.129989,0.896385,100158.87,-20,-211,+14
44096,9.480,-0.910,2.339,-0.377491,-0.127329,0.911284,100158.39,-17,-212,+13
44106,9.243,-0.816,2.529,-0.301399,-0.136374,0.938954,100158.66,-15,-214,+11
44116,9.088,-1.419,2.503,-0.212537,-0.161916,0.985247,100156.98,-12,-216,+11
44127,9.295,-2.093,2.092,-0.182739,-0.201824,1.023559,100154.69,-12,-216,+11
44137,9.550,-2.305,1.705,-0.199234,-0.225769,1.052825,100154.69,-10,-218,+11
44146,9.656,-2.152,1.620,-0.265748,-0.236411,1.083156,100157.70,-7,-220,+9
44156,9.654,-1.939,1.739,-0.365252,-0.236943,1.128385,100156.42,-3,-221,+8
44167,9.554,-1.734,1.873,-0.385473,-0.234283,1.174678,100157.06,-3,-221,+8
44177,9.385,-1.891,2.131,-0.329069,-0.235879,1.216715,100157.06,+0,-224,+8
44186,9.330,-2.306,2.250,-0.291821,-0.240136,1.249174,100157.06,+2,-226,+6
44196,9.336,-2.624,2.170,-0.263619,-0.247053,1.264073,100161.38,+6,-227,+5
44207,9.379,-3.054,2.131,-0.267344,-0.252906,1.274183,100155.20,+6,-227,+5
44217,9.395,-3.586,1.777,-0.246592,-0.264613,1.270990,100157.19,+10,-229,+4
44226,9.270,-3.552,1.350,-0.212537,-0.272595,1.256091,100156.97,+14,-231,+3
44236,9.227,-3.351,1.100,-0.217326,-0.293347,1.256091,100156.97,+17,-233,+3
44247,9.482,-3.079,1.040,-0.223179,-0.311439,1.280568,100160.66,+17,-233,+3
44257,9.883,-2.824,1.237,-0.243931,-0.318888,1.310898,100159.25,+20,-235,+1
44267,10.218,-2.835,1.542,-0.295546,-0.336448,1.361449,100157.83,+24,-236,+0
44276,10.427,-3.005,1.750,-0.341307,-0.353475,1.422642,100157.83,+29,-238,-1
44286,10.397,-3.400,1.692,-0.396647,-0.356136,1.476385,100160.87,+29,-238,-1
44297,10.667,-3.680,1.381,-0.444005,-0.354539,1.528531,100160.40,+33,-240,-1
44306,11.239,-3.522,1.201,-0.475931,-0.357732,1.569504,100160.40,+38,-242,-3
44316,11.804,-3.379,0.938,-0.494023,-0.391255,1.620586,100157.57,+43,-244,-5
44326,12.247,-3.515,0.523,-0.511050,-0.443402,1.684972,100158.62,+43,-244,-5
44337,12.495,-3.265,0.223,-0.477527,-0.497145,1.747761,100158.62,+48,-245,-7
44347,12.554,-2.725,0.302,-0.388133,-0.547695,1.829173,100160.22,+53,-246,-8
44357,12.843,-2.459,0.780,-0.253509,-0.599842,1.934531,100155.97,+59,-248,-9
44366,13.409,-2.890,1.049,-0.167308,-0.680191,2.053192,100156.97,+66,-250,-10
44377,13.792,-3.289,1.084,-0.213601,-0.769053,2.153760,100157.59,+66,-250,-10
44387,13.952,-3.337,1.079,-0.363124,-0.839291,2.263375,100160.91,+72,-250,-11
44397,14.173,-2.923,1.000,-0.560004,-0.903677,2.375118,100157.82,+80,-252,-13
44406,14.594,-2.896,1.112,-0.762206,-0.960080,2.502824,100156.41,+87,-252,-16
44417,15.434,-2.143,1.242,-0.964940,-0.993603,2.615632,100156.41,+87,-252,-16
44427,16.436,-1.411,1.437,-1.213435,-1.009034,2.700769,100156.68,+95,-254,-20
44436,17.941,-0.868,1.365,-1.497582,-1.057456,2.772072,100156.68,+104,-256,-25
44446,20.641,2.102,1.557,-1.872719,-1.194209,2.773136,100158.72,+112,-258,-31
44456,22.046,4.472,1.400,-2.160059,-1.325640,2.713540,100155.58,+112,-258,-31
44467,20.291,5.296,-0.251,-1.971160,-1.412374,2.547522,100156.47,+121,-258,-37
44477,18.344,3.578,-0.119,-1.219821,-1.483144,2.478347,100155.27,+128,-258,-42
44486,17.531,-1.722,1.768,0.045004,-1.585309,2.817833,100155.27,+137,-256,-39
44496,17.039,-5.025,3.514,0.979921,-1.649695,3.064732,100159.65,+137,-256,-39
44507,16.704,-6.744,5.439,1.167224,-1.633731,3.099851,100155.66,+147,-252,-35
44517,16.256,-5.074,6.024,0.984178,-1.668850,2.951925,100153.21,+156,-249,-30
44527,14.682,-2.213,6.470,0.922985,-1.576795,2.667778,100153.21,+162,-246,-26
44536,11.387,0.081,6.959,1.075169,-1.369805,2.193136,100153.21,+162,-246,-26
44547,8.273,2.229,2.868,1.093793,-1.408649,1.406678,100156.55,+167,-244,-21
44557,3.986,-4.311,0.593,0.839976,-1.341071,0.899046,100158.53,+168,-242,-18
44567,2.570,-10.531,1.739,0.284454,-1.197933,0.984715,100156.81,+170,-240,-16
44577,4.215,-3.208,2.909,-0.770720,-0.980123,0.042526,100157.24,+170,-240,-16
44587,4.980,0.670,3.163,-1.404995,-0.900484,-0.532862,100157.24,+168,-242,-19
44597,3.567,3.418,2.529,-1.523655,-0.914319,-0.879797,100158.24,+164,-245,-23
44607,2.667,4.352,1.800,-1.260793,-0.798319,-1.214494,100156.87,+160,-247,-25
44617,2.492,3.180,0.853,-0.753160,-0.638686,-1.487467,100155.65,+160,-247,-25
44626,2.625,1.271,0.400,-0.280647,-0.471604,-1.737026,100155.65,+152,-249,-27
44637,3.082,0.109,-0.054,0.043408,-0.324741,-2.028090,100155.31,+144,-251,-27
44647,3.228,-0.269,0.113,0.254123,-0.184264,-2.290420,100155.94,+136,-252,-25
44656,3.418,-0.027,0.324,0.485059,-0.031549,-2.584145,100155.94,+136,-252,-25
44666,3.962,0.325,0.467,0.805389,0.127020,-2.897026,100155.31,+126,-253,-23
44677,4.646,0.117,0.543,1.159774,0.256855,-3.141264,100152.13,+116,-253,-20
44687,5.483,-0.304,0.448,1.459352,0.341992,-3.331227,100152.13,+105,-253,-15
44697,6.501,-0.156,0.438,1.724875,0.432983,-3.517998,100152.58,+105,-253,-15
44706,7.471,-0.029,0.697,1.998379,0.526634,-3.688273,100156.09,+92,-251,-8
44717,8.358,-0.909,0.916,2.232507,0.576121,-3.822364,100149.81,+80,-247,-1
44727,9.070,-2.507,0.749,2.277737,0.571864,-3.930915,100151.95,+66,-243,+4
44737,9.428,-4.367,0.883,2.054251,0.572928,-4.029887,100151.95,+66,-243,+4
44747,9.597,-5.574,1.228,1.624838,0.599001,-4.164511,100152.45,+54,-238,+10
44756,10.006,-5.605,1.706,1.113481,0.647955,-4.320419,100152.68,+41,-234,+15
44767,10.837,-5.688,2.301,0.573921,0.688928,-4.443336,100149.79,+27,-228,+16
44777,11.555,-6.092,2.647,0.085445,0.731497,-4.541777,100149.79,+27,-228,+16
44786,11.952,-6.526,2.380,-0.255106,0.804928,-4.633300,100149.79,+14,-225,+16
44796,11.956,-6.872,1.860,-0.390261,0.917735,-4.692896,100156.61,+0,-221,+16
44807,11.982,-7.042,1.468,-0.357271,1.045974,-4.687575,100154.56,-10,-214,+16
44817,12.340,-6.963,1.151,-0.282243,1.154524,-4.635428,100154.30,-10,-214,+16
44827,12.893,-6.843,0.801,-0.241271,1.246047,-4.593391,100152.31,-23,-209,+18
44836,13.163,-6.862,0.554,-0.251381,1.327460,-4.558804,100152.31,-35,-202,+19
44847,13.058,-6.766,0.306,-0.292885,1.396102,-4.518364,100155.36,-44,-194,+19
44857,13.027,-6.250,0.033,-0.396115,1.442395,-4.457704,100154.08,-53,-186,+20
44867,13.146,-5.411,-0.098,-0.528610,1.473790,-4.370438,100154.36,-53,-186,+20
44876,13.593,-4.472,0.088,-0.631839,1.490285,-4.267208,100154.36,-62,-179,+22
44887,14.208,-4.310,0.314,-0.712720,1.489753,-4.140566,100157.34,-69,-171,+23
44897,14.298,-5.332,0.256,-0.751564,1.494010,-4.019245,100157.34,-76,-163,+25
44907,13.898,-6.921,0.354,-0.693564,1.514230,-3.874511,100154.41,-76,-163,+25
44916,13.537,-8.311,0.515,-0.644078,1.517955,-3.656878,100159.64,-81,-155,+26
44926,13.343,-8.519,0.884,-0.710592,1.530193,-3.472768,100159.80,-85,-148,+27
44937,12.990,-7.580,0.994,-0.859582,1.539239,-3.311539,100159.80,-90,-141,+30
44947,12.325,-6.822,0.533,-1.014426,1.495074,-3.079007,100159.87,-90,-141,+30
44957,12.177,-7.098,-0.263,-1.124573,1.408872,-2.777301,100155.10,-92,-136,+30
44966,12.240,-8.339,-0.620,-1.230463,1.308304,-2.451118,100158.51,-94,-132,+32
44977,12.040,-9.851,-0.828,-1.416701,1.179001,-2.121209,100157.91,-96,-130,+32
44987,11.604,-10.907,-1.186,-1.677435,1.027882,-1.780127,100159.67,-96,-130,+32
44997,11.236,-11.285,-1.610,-1.925930,0.849093,-1.360825,100159.89,-96,-129,+31
45006,10.941,-11.127,-2.012,-2.009472,0.631992,-0.843614,100159.89,-97,-130,+28
45017,10.849,-10.392,-2.240,-1.860481,0.400524,-0.265743,100160.05,-96,-133,+27
45027,10.701,-9.254,-2.286,-1.528444,0.175442,0.282862,100160.05,-96,-133,+27
45037,10.395,-7.875,-2.623,-0.968133,-0.024099,0.761229,100160.05,-95,-137,+27
45046,9.842,-7.114,-3.303,-0.197638,-0.178943,1.162972,100156.88,-94,-140,+24
45057,9.312,-6.687,-3.165,0.659059,-0.294943,1.480641,100160.70,-91,-143,+25
45067,8.848,-4.944,1.496,1.438068,-0.290154,1.699871,100161.80,-91,-143,+25
45077,8.303,-3.142,16.953,1.749352,0.303148,1.840348,100156.88,-88,-144,+28
45087,16.431,18.562,18.016,0.462710,0.761295,0.980990,100156.88,-83,-145,+32
45097,22.923,23.632,-4.135,-0.662170,-0.478521,1.013449,100159.39,-83,-149,+28
45107,19.635,-7.211,-6.854,1.794581,-0.730741,2.595943,100159.67,-83,-149,+28
45117,24.545,-15.261,-0.833,3.469663,-0.324741,2.503356,100159.63,-77,-149,+35
45127,16.973,-9.733,-4.225,1.167756,-0.482246,2.137265,100159.63,-74,-149,+36
45136,9.024,-1.536,-4.297,-0.530738,-0.501934,2.114384,100159.63,-70,-155,+34
45147,5.327,1.952,0.412,-0.484977,-0.432227,2.320311,100163.30,-70,-155,+34
45157,6.079,-0.816,3.500,-0.006610,-0.276319,2.229320,100160.33,-66,-162,+34
45167,9.972,-4.206,4.290,0.117903,-0.284301,2.278274,100159.22,-62,-167,+33
45176,12.375,-5.867,3.487,-0.073656,-0.470539,2.268696,100158.33,-57,-171,+33
45187,11.881,-4.466,2.573,-0.314702,-0.524815,1.945173,100158.33,-57,-171,+33
45197,10.032,-2.798,1.776,-0.401436,-0.480649,1.623779,100161.05,-53,-175,+31
45207,9.288,-1.921,1.012,-0.230629,-0.457237,1.491816,100159.57,-50,-178,+29
45217,9.884,-1.620,0.384,-0.099197,-0.451383,1.466807,100161.21,-48,-182,+28
45227,10.437,-1.235,0.327,-0.164647,-0.400833,1.426366,100161.21,-48,-182,+28
45237,10.483,-0.883,0.684,-0.258298,-0.312503,1.370495,100161.22,-44,-185,+27
45247,10.221,-0.545,1.098,-0.272133,-0.252374,1.321541,100161.22,-42,-189,+26
45257,9.826,-1.382,1.600,-0.282243,-0.240136,1.268862,100157.83,-39,-191,+25
45266,9.704,-1.934,1.872,-0.322151,-0.236411,1.199687,100158.97,-39,-191,+25
45277,9.523,-1.985,1.940,-0.389729,-0.217787,1.096990,100158.34,-37,-194,+25
45287,9.536,-1.751,1.886,-0.424849,-0.195439,1.010789,100158.34,-34,-197,+22
45297,9.785,-1.554,1.673,-0.401436,-0.175751,0.948532,100159.27,-32,-199,+22
45307,9.844,-1.480,1.570,-0.364188,-0.156595,0.891596,100159.54,-30,-199,+21
45317,9.718,-1.670,1.813,-0.363656,-0.136374,0.851156,100158.23,-30,-201,+21
45327,9.619,-1.326,2.309,-0.417399,-0.125732,0.818697,100158.12,-27,-203,+19
45337,9.574,-1.176,2.546,-0.471142,-0.134246,0.802202,100160.93,-25,-205,+18
45347,9.355,-1.314,2.602,-0.492959,-0.135310,0.795816,100160.10,-23,-207,+16
45357,9.099,-1.399,2.722,-0.519032,-0.136907,0.789431,100158.01,-23,-207,+16
45367,9.125,-1.482,2.728,-0.536060,-0.166705,0.804862,100158.01,-21,-209,+15
45377,9.220,-1.515,2.828,-0.523289,-0.189053,0.826679,100158.43,-20,-211,+13
45387,9.086,-1.577,2.689,-0.504133,-0.199163,0.839449,100158.43,-17,-213,+11
45396,8.939,-1.746,2.566,-0.481784,-0.206613,0.858605,100158.96,-17,-213,+11
45403,8.880,-1.807,2.627,-0.471674,-0.205017,0.879358,100158.48,-14,-215,+11
45412,8.985,-1.512,2.602,-0.466353,-0.209273,0.892660,100158.16,-14,-215,+11
45422,9.031,-1.746,2.449,-0.426445,-0.219384,0.915541,100159.52,-12,-217,+8
45432,9.209,-2.238,2.178,-0.398243,-0.236943,0.941614,100159.52,-10,-219,+7
45442,9.469,-2.354,1.933,-0.418995,-0.241200,0.958642,100159.23,-8,-222,+6
45452,9.551,-2.589,1.624,-0.453050,-0.239072,0.984183,100159.74,-8,-222,+6
45462,9.496,-2.744,1.267,-0.473803,-0.232154,1.005467,100159.02,-5,-223,+5
45472,9.456,-2.654,1.024,-0.478060,-0.230558,1.031541,100160.48,-1,-225,+3
45481,9.368,-2.420,0.998,-0.438683,-0.236411,1.064532,100160.48,+1,-227,+1
45492,9.360,-2.349,1.140,-0.356739,-0.253971,1.108697,100162.29,+1,-227,+1
45502,9.498,-2.238,1.434,-0.267876,-0.272062,1.159247,100160.30,+3,-229,+0
45512,9.474,-1.929,1.981,-0.209876,-0.284833,1.215651,100159.77,+7,-231,+0
45522,9.389,-1.786,2.652,-0.151876,-0.311439,1.284825,100157.37,+10,-233,-1
45532,9.481,-2.130,3.147,-0.058225,-0.338576,1.360385,100157.37,+10,-233,-1
45542,9.668,-3.055,3.162,0.012013,-0.366778,1.435412,100156.25,+14,-234,-1
45552,10.217,-4.584,2.318,-0.033748,-0.408282,1.496073,100158.72,+19,-236,-1
45562,11.199,-4.747,1.156,-0.290757,-0.417860,1.531192,100158.56,+24,-238,-3
45572,12.019,-3.814,0.573,-0.567454,-0.394448,1.574293,100157.14,+28,-240,-5
45582,12.312,-2.981,-0.029,-0.695692,-0.411475,1.642403,100157.14,+28,-240,-5
45592,12.403,-2.336,-0.259,-0.640885,-0.463622,1.727540,100161.84,+33,-242,-7
45602,12.659,-2.211,-0.201,-0.500940,-0.533860,1.836623,100160.48,+39,-244,-9
45612,13.270,-2.454,-0.020,-0.389197,-0.596649,1.957944,100160.33,+45,-246,-11
45622,13.938,-2.191,0.403,-0.358335,-0.634429,2.085650,100157.23,+45,-246,-11
45632,14.464,-1.857,1.278,-0.348225,-0.678594,2.224531,100157.23,+52,-248,-13
45638,14.774,-1.804,1.796,-0.325876,-0.739255,2.329889,100159.41,+52,-248,-13
45647,15.045,-1.906,2.117,-0.331729,-0.835035,2.426733,100159.41,+59,-250,-13
45658,15.378,-2.045,2.396,-0.404096,-0.953163,2.553375,100160.51,+67,-251,-15
45667,16.219,-2.032,2.431,-0.532335,-1.081933,2.679485,100157.63,+74,-253,-18
45677,17.266,-2.057,2.070,-0.736133,-1.216025,2.780586,100156.43,+74,-253,-18
45687,19.393,-0.495,2.106,-1.025601,-1.367676,2.824219,100159.60,+83,-254,-21
45698,22.071,2.123,3.077,-1.329435,-1.556575,2.845503,100159.60,+91,-254,-25
45707,23.470,4.386,4.007,-1.477894,-1.660337,2.869980,100156.66,+101,-257,-29
45717,23.201,5.369,4.114,-1.450224,-1.673107,2.861998,100156.66,+101,-257,-29
45727,21.374,3.995,3.148,-1.209710,-1.668318,2.906163,100158.24,+109,-258,-34
45736,19.271,0.425,3.819,-0.630243,-1.588502,3.107833,100158.24,+117,-258,-37
45747,18.408,-2.951,5.526,-0.201363,-1.495383,3.238200,100159.91,+128,-256,-37
45757,17.268,-3.690,6.718,-0.382812,-1.429933,3.097191,100157.60,+128,-256,-37
45767,15.702,-2.194,7.925,-0.513179,-1.332557,3.016310,100160.34,+138,-255,-37
45777,14.545,1.485,8.279,-0.248720,-1.228264,2.811448,100156.71,+147,-253,-38
45788,11.771,3.885,7.734,0.193995,-1.048411,2.308604,100156.71,+155,-250,-37
45797,9.330,3.766,2.349,0.637242,-1.188887,1.667412,100157.30,+158,-249,-33
45807,5.177,-6.520,2.040,0.802197,-1.054264,1.425302,100158.85,+158,-249,-33
45817,5.941,-9.765,2.446,-0.081106,-0.865897,1.076770,100156.95,+162,-247,-32
45828,8.363,1.570,1.340,-1.267710,-0.805768,-0.050238,100156.95,+161,-248,-35
45837,6.780,4.528,2.476,-1.503435,-0.608356,-0.598843,100156.95,+158,-250,-39
45847,4.408,5.768,2.246,-1.039435,-0.470007,-0.811155,100156.54,+158,-250,-39
45857,3.299,6.093,1.377,-0.282775,-0.268338,-1.211834,100157.91,+154,-251,-40
45868,2.909,3.487,1.361,0.491444,-0.027824,-1.546531,100160.10,+148,-252,-39
45877,3.349,1.222,0.877,1.037921,0.121167,-1.840255,100156.54,+141,-252,-35
45887,3.761,-0.225,0.637,1.270985,0.224928,-2.167503,100156.54,+141,-252,-35
45897,3.852,-0.996,0.928,1.200747,0.323901,-2.551686,100156.98,+133,-253,-31
45907,4.068,-0.756,1.068,1.004930,0.428194,-2.960346,100154.93,+123,-253,-27
45918,4.600,0.232,1.286,0.905958,0.540469,-3.309411,100153.76,+112,-253,-25
45927,5.680,1.021,1.163,0.889462,0.593148,-3.573869,100153.76,+112,-253,-25
45937,6.690,1.112,0.743,0.981517,0.629332,-3.787245,100158.13,+99,-252,-23
45947,7.543,0.504,0.295,1.146472,0.677754,-3.981997,100154.26,+85,-251,-18
45957,8.024,-0.727,0.009,1.306637,0.743735,-4.155997,100154.26,+73,-247,-13
45967,7.852,-2.161,-0.179,1.419976,0.824084,-4.340107,100151.70,+73,-247,-13
45977,7.640,-2.857,0.120,1.448710,0.918799,-4.541777,100153.95,+58,-244,-8
45987,8.074,-2.939,0.752,1.300251,0.990634,-4.720034,100153.95,+43,-239,-3
45992,8.700,-3.119,1.380,1.058673,1.020964,-4.807832,100155.56,+43,-239,-3
46002,9.237,-3.607,1.662,0.721316,1.035331,-4.876474,100155.88,+30,-234,+0
46012,9.963,-3.828,1.371,0.262637,1.082157,-4.988749,100152.84,+15,-229,+1
46022,10.666,-3.877,1.080,-0.052372,1.218909,-5.115923,100151.53,+15,-229,+1
46032,10.947,-4.469,0.654,-0.158794,1.379606,-5.172859,100151.53,+1,-222,+2
46043,11.281,-5.470,0.112,-0.106115,1.541368,-5.154767,100157.69,-11,-216,+3
46052,12.143,-5.891,-0.266,-0.005546,1.685037,-5.155831,100155.23,-24,-209,+6
46062,13.097,-5.602,-0.580,0.093426,1.781349,-5.189887,100155.02,-35,-199,+10
46072,14.054,-5.591,-1.259,0.189206,1.814872,-5.173923,100154.19,-35,-199,+10
46083,14.868,-6.338,-2.040,0.290839,1.800505,-5.116455,100154.19,-45,-190,+13
46092,15.470,-7.653,-2.392,0.390344,1.748358,-5.030253,100156.56,-55,-180,+16
46102,15.775,-8.163,-2.430,0.435041,1.661625,-4.943520,100158.03,-62,-169,+20
46112,16.201,-7.983,-2.051,0.397261,1.554670,-4.879666,100157.45,-62,-169,+20
46123,16.614,-7.871,-1.615,0.319041,1.411533,-4.751428,100158.08,-71,-157,+23
46132,16.736,-8.410,-1.590,0.247738,1.239129,-4.530070,100158.08,-77,-147,+27
46142,16.590,-9.308,-1.290,0.213683,1.102377,-4.269869,100156.53,-83,-137,+29
46152,16.223,-10.482,-0.769,0.198252,1.028946,-3.980933,100160.72,-83,-137,+29
46162,15.616,-12.207,-0.175,0.107261,1.017772,-3.610053,100159.09,-88,-128,+31
46173,14.812,-14.391,0.196,-0.138574,1.032671,-3.165209,100161.30,-91,-120,+33
46182,14.059,-15.886,-0.320,-0.520628,1.004469,-2.658640,100161.30,-93,-115,+34
46192,13.126,-17.339,-0.981,-0.939399,0.915607,-2.104182,100164.56,-93,-115,+34
46202,12.135,-18.441,-1.489,-1.404995,0.702231,-1.467247,100162.63,-94,-114,+35
46213,11.778,-17.972,-1.460,-1.832811,0.382965,-0.760605,100159.06,-93,-115,+32
46222,11.630,-16.437,-0.973,-2.019050,0.039754,-0.003945,100161.78,-93,-119,+29
46232,11.190,-14.368,-0.703,-1.850371,-0.225769,0.709615,100161.78,-93,-119,+29
46242,10.441,-11.554,-1.012,-1.300169,-0.389127,1.318348,100161.85,-93,-125,+27
46253,9.524,-9.823,-1.791,-0.385473,-0.541310,1.847265,100160.34,-91,-130,+24
46262,8.493,-7.194,1.361,0.683536,-0.614741,2.262311,100157.46,-87,-134,+25
46272,7.186,2.408,20.205,1.224692,0.031772,2.214421,100156.26,-87,-134,+25
46282,15.165,39.270,26.761,0.413224,1.162506,0.306807,100156.26,-82,-137,+30
46292,28.497,42.325,-8.937,-2.676737,-0.956888,0.512734,100158.26,-83,-140,+24
46303,29.895,-23.614,-11.046,1.416251,-1.350649,4.683410,100163.65,-75,-148,+27
46312,28.442,-23.443,0.203,4.988304,-0.380613,3.035998,100158.41,-75,-148,+27
46322,12.414,-11.734,-6.562,0.469628,-0.523218,1.748293,100161.49,-71,-145,+32
46332,3.819,1.140,-1.703,-1.509288,-0.513640,2.200054,100161.49,-68,-153,+28
46343,0.076,5.984,5.526,-0.545105,-0.389659,2.757705,100160.72,-62,-161,+26
46352,4.929,1.497,5.256,1.058141,-0.316760,2.575723,100158.69,-62,-161,+26
46362,11.424,-7.656,4.429,1.459352,-0.507255,2.730035,100158.31,-57,-162,+29
46372,14.470,-11.816,2.482,0.594674,-0.671145,2.608182,100157.58,-53,-166,+29
46383,13.731,-7.391,1.041,-0.335454,-0.617402,2.062770,100157.58,-49,-172,+27
46393,10.983,-1.631,-0.424,-0.670683,-0.515769,1.557797,100162.09,-49,-172,+27
46402,9.118,0.355,0.299,-0.344500,-0.379016,1.383798,100160.84,-46,-175,+26
46412,8.037,0.093,0.939,0.113646,-0.293347,1.416256,100158.05,-43,-179,+25
46423,8.631,-0.938,0.616,0.385022,-0.233218,1.386990,100158.16,-41,-181,+25
46432,10.032,-1.476,0.880,0.518050,-0.162980,1.300788,100158.16,-41,-181,+25
46442,10.520,-1.578,1.395,0.491976,-0.117218,1.208733,100161.09,-37,-181,+27
46452,10.017,-1.391,2.225,0.371720,-0.104448,1.142220,100157.21,-35,-183,+28
46462,8.765,-1.869,2.307,0.189738,-0.113494,1.045908,100160.55,-32,-185,+28
46473,8.305,-1.687,2.096,0.034362,-0.090081,0.946935,100157.84,-32,-185,+28
46482,8.922,-1.395,1.797,-0.025234,-0.075182,0.908624,100157.84,-30,-186,+28
46492,9.820,-1.087,1.334,0.050857,-0.073053,0.894789,100161.21,-28,-187,+28
46502,10.108,-1.087,0.866,0.194527,-0.051769,0.871908,100160.37,-24,-189,+28
46513,9.905,-1.085,0.733,0.314252,-0.006540,0.859137,100160.27,-23,-189,+28
46522,9.494,-1.113,0.870,0.299885,0.028047,0.870312,100160.79,-23,-189,+30
46532,9.268,-1.419,1.162,0.151426,0.042414,0.916073,100160.79,-21,-190,+30
46542,9.480,-1.241,1.729,-0.029491,0.030176,1.013981,100159.98,-17,-191,+30
46553,9.557,-0.540,2.244,-0.242335,-0.009200,1.082623,100160.60,-14,-195,+29
46563,9.731,-0.996,2.109,-0.412078,-0.069861,1.156054,100158.98,-14,-195,+29
46572,10.049,-1.217,1.814,-0.476995,-0.099659,1.204476,100158.77,-11,-196,+28
46582,9.973,-1.261,1.854,-0.489234,-0.110833,1.223100,100158.77,-8,-199,+26
46593,9.741,-1.084,1.963,-0.418463,-0.116154,1.241192,100161.90,-5,-201,+25
46603,9.538,-1.199,1.881,-0.239142,-0.114026,1.257155,100159.48,-5,-201,+25
46612,9.403,-1.763,1.902,-0.086427,-0.125200,1.282697,100160.90,-1,-203,+25
46622,9.578,-2.359,2.037,-0.068867,-0.139035,1.314091,100159.07,+1,-205,+25
46632,9.808,-2.660,2.100,-0.140702,-0.154998,1.334843,100159.07,+5,-207,+24
46643,9.799,-2.786,1.905,-0.254573,-0.170429,1.346018,100161.45,+5,-207,+24
46652,9.917,-2.870,1.513,-0.372170,-0.175751,1.360385,100160.56,+8,-209,+23
46662,10.170,-2.441,1.845,-0.435491,-0.167237,1.375284,100160.03,+12,-211,+22
46672,10.325,-2.256,2.155,-0.433362,-0.184264,1.402421,100158.89,+16,-214,+20
46683,10.496,-2.871,2.176,-0.404628,-0.199695,1.431155,100158.89,+16,-214,+20
46693,10.234,-4.081,4.052,-0.494023,-0.171494,1.445522,100162.36,+20,-216,+20
46703,10.808,-3.946,3.860,-0.854439,-0.163157,1.477449,100160.27,+24,-219,+16
46712,10.988,-3.229,3.180,-0.998995,-0.199695,1.507247,100159.38,+28,-222,+13
46723,11.581,-2.918,2.667,-1.138940,-0.256631,1.573229,100159.53,+28,-222,+13
46733,12.091,-2.101,1.595,-1.158096,-0.318888,1.651449,100159.53,+33,-225,+10
46742,12.395,-1.814,0.428,-1.072958,-0.392319,1.762660,100161.47,+38,-228,+6
46752,12.878,-1.900,-0.331,-0.944720,-0.463090,1.886109,100160.20,+44,-231,+3
46763,13.355,-1.909,-0.682,-0.841491,-0.530136,2.020733,100157.91,+44,-231,+3
46773,13.671,-2.075,-0.568,-0.771784,-0.605163,2.160146,100158.64,+49,-234,+1
46782,14.154,-2.067,0.104,-0.738793,-0.681255,2.295301,100158.64,+56,-236,-1
46792,14.680,-1.995,0.994,-0.740922,-0.740319,2.423540,100163.38,+63,-239,-5
46802,14.997,-2.211,1.760,-0.774445,-0.778099,2.541136,100160.19,+63,-239,-5
46813,15.335,-2.322,2.155,-0.921307,-0.808429,2.645962,100157.98,+71,-240,-6
46823,15.915,-1.934,2.895,-1.202261,-0.845677,2.748659,100156.83,+80,-244,-11
46832,16.839,-1.212,3.883,-1.583252,-0.894099,2.860934,100156.83,+87,-245,-16
46842,18.120,0.249,4.120,-2.033949,-0.959548,2.938090,100160.74,+87,-245,-16
46853,20.270,4.007,3.804,-2.508059,-1.055860,2.853485,100157.18,+96,-248,-24
46863,23.204,8.743,3.297,-2.724095,-1.200062,2.705558,100157.09,+105,-251,-33
46872,23.201,8.221,2.756,-2.300004,-1.341603,2.964696,100155.98,+114,-252,-41
46882,20.335,1.921,1.636,-1.406591,-1.440043,3.388787,100155.98,+114,-252,-41
46893,18.119,-3.411,2.768,-0.732940,-1.387364,3.632493,100160.07,+126,-252,-44
46903,16.903,-2.003,4.585,-0.595124,-1.231988,3.481906,100158.76,+139,-250,-45
46912,16.054,-2.088,5.914,-0.549362,-1.102686,3.184989,100157.24,+148,-248,-48
46922,14.840,-0.440,6.464,-0.614812,-1.073952,2.871576,100156.45,+148,-248,-48
46932,14.288,0.964,6.885,-0.376427,-1.027658,2.662989,100156.45,+158,-246,-49
46939,13.592,1.035,6.994,-0.096005,-0.993603,2.473558,100160.84,+166,-244,-50
46948,11.655,1.927,6.119,0.093426,-0.987218,2.082990,100160.84,+166,-244,-50
46958,6.113,3.324,2.986,0.231243,-1.045750,1.230550,100159.12,+171,-242,-49
46967,2.259,-8.155,2.717,0.414821,-0.804704,1.041119,100156.23,+174,-240,-47
46978,6.372,-7.780,2.177,0.015738,-0.625915,0.548385,100158.45,+174,-240,-48
46988,7.870,-1.876,2.433,-0.660573,-0.419989,0.008294,100158.80,+174,-240,-48
46998,4.933,1.992,1.600,-0.959619,-0.403493,-0.577559,100158.02,+174,-241,-52
47007,2.056,3.869,0.293,-1.047949,-0.328998,-1.048476,100156.04,+171,-242,-55
47017,1.763,4.082,-0.412,-0.769656,-0.150209,-1.367210,100156.04,+167,-246,-58
47028,2.620,3.450,-0.402,-0.148684,0.062635,-1.636990,100155.62,+167,-246,-58
47038,3.632,2.063,0.082,0.501022,0.245148,-1.942953,100155.62,+161,-247,-59
47047,3.713,0.574,0.578,0.978857,0.390414,-2.189852,100160.23,+155,-248,-57
47057,3.609,-0.103,0.849,1.208196,0.513864,-2.485173,100157.24,+146,-249,-54
47068,3.933,0.143,0.853,1.251297,0.610708,-2.831576,100152.79,+146,-249,-54
47078,4.424,0.397,0.701,1.297591,0.692653,-3.107741,100155.15,+136,-251,-51
47088,5.091,-0.059,0.344,1.358251,0.752249,-3.341869,100155.15,+126,-252,-48
47097,5.801,-0.907,0.074,1.422104,0.812909,-3.543539,100156.66,+114,-252,-45
47108,6.640,-1.071,-0.240,1.456692,0.886873,-3.742548,100155.16,+114,-252,-45
47118,7.559,-0.846,-0.344,1.434343,0.951258,-3.935704,100151.44,+101,-252,-41
47128,8.269,-1.078,-0.230,1.393903,0.983185,-4.102254,100151.44,+87,-251,-37
47137,8.679,-1.986,-0.145,1.336967,0.992230,-4.232089,100151.44,+74,-249,-34
47148,8.952,-3.207,-0.022,1.242783,1.034799,-4.366180,100158.63,+74,-249,-34
47158,9.203,-4.158,0.576,1.027811,1.114084,-4.503465,100157.16,+60,-247,-32
47168,9.469,-4.742,1.156,0.723976,1.193368,-4.610419,100156.58,+46,-244,-30
47173,9.718,-4.840,1.430,0.513793,1.249772,-4.691832,100155.33,+46,-244,-30
47182,10.144,-4.710,1.440,0.365866,1.308304,-4.790272,100155.33,+30,-239,-28
47193,10.740,-4.357,1.264,0.277004,1.385460,-4.931813,100155.03,+15,-236,-28
47203,11.379,-3.986,0.927,0.240821,1.419515,-5.016951,100155.30,+0,-228,-27
47213,12.442,-4.007,0.189,0.143977,1.396102,-4.995667,100153.83,+0,-228,-27
47222,13.295,-4.454,-0.444,0.004032,1.398762,-4.983428,100158.17,-14,-222,-27
47233,13.933,-4.929,-0.529,-0.022574,1.440267,-4.969061,100158.17,-28,-214,-27
47243,15.033,-5.526,-0.463,0.089169,1.477515,-4.945648,100160.97,-41,-207,-24
47253,16.264,-5.727,-0.454,0.280197,1.486560,-4.932345,100158.98,-41,-207,-24
47262,17.179,-6.143,-0.857,0.491976,1.456762,-4.871153,100157.83,-53,-197,-22
47272,17.401,-7.363,-1.214,0.641499,1.390781,-4.731208,100158.34,-65,-187,-18
47283,17.164,-8.925,-1.015,0.712270,1.304579,-4.500804,100158.34,-74,-176,-16
47293,16.513,-10.295,-0.195,0.712802,1.197625,-4.196970,100161.38,-74,-176,-16
47302,15.615,-11.593,1.216,0.701096,1.097588,-3.829282,100156.99,-84,-165,-12
47312,14.692,-12.293,1.900,0.656931,1.036928,-3.442970,100155.37,-89,-155,-8
47323,13.843,-12.624,1.951,0.504747,1.034267,-3.088053,100156.37,-96,-147,-6
47333,12.944,-13.487,1.461,0.173243,1.011918,-2.690567,100156.37,-96,-147,-6
47343,11.716,-14.917,0.798,-0.339711,0.951790,-2.220714,100160.63,-99,-141,-3
47352,10.860,-16.051,0.092,-0.949509,0.863460,-1.714678,100158.06,-103,-137,-3
47363,10.769,-16.040,-0.602,-1.504499,0.693185,-1.156494,100160.63,-104,-137,-5
47373,10.983,-14.349,-1.377,-1.715747,0.473955,-0.586073,100161.16,-104,-137,-5
47383,11.401,-13.080,-2.298,-1.533765,0.249937,0.047138,100161.16,-105,-138,-7
47392,11.594,-12.422,-3.307,-1.067105,0.016873,0.680881,100160.66,-104,-141,-9
47403,11.342,-10.877,-0.973,-0.342372,-0.151806,1.269926,100161.15,-102,-145,-10
47413,12.932,-6.483,8.387,0.429188,-0.092741,1.705192,100157.48,-102,-145,-10
47423,25.873,12.621,1.133,0.641499,-0.489695,1.846201,100158.84,-98,-149,-8
47432,34.637,13.048,-8.437,0.835187,-0.989346,2.216017,100158.84,-96,-153,-10
47442,25.953,-14.880,-2.088,1.976563,-0.589200,3.850126,100161.26,-89,-160,-6
47453,16.807,-18.894,-1.930,1.755205,-0.385934,3.248310,100158.38,-89,-160,-6
47463,5.839,-5.691,1.145,-0.416867,-0.178411,2.064366,100160.32,-84,-165,-5
47473,-3.511,2.930,4.292,-1.589637,-0.260888,2.140990,100155.82,-80,-171,-9
47482,-0.726,-0.958,6.899,-0.523821,-0.258760,2.617760,100155.82,-73,-179,-10
47493,11.123,-6.857,3.203,0.867114,-0.427438,2.822622,100159.77,-67,-184,-8
47503,17.907,-8.892,-0.873,1.030472,-0.659970,2.625210,100159.86,-67,-184,-8
47513,16.890,-8.324,-0.940,0.284986,-0.477457,2.066494,100157.72,-62,-187,-8
47522,13.971,-6.082,-0.805,-0.534463,-0.342833,1.782348,100160.33,-58,-192,-10
47533,9.721,-1.989,-0.258,-0.737729,-0.238007,1.447651,100160.33,-55,-195,-12
47543,7.040,0.616,0.706,-0.465289,-0.131053,1.179467,100159.05,-55,-195,-12
47553,6.628,0.141,0.730,-0.052904,-0.147549,1.230018,100159.01,-52,-198,-13
47563,8.418,-1.911,0.775,0.150894,-0.130521,1.230550,100161.05,-49,-201,-12
47572,10.905,-3.000,1.187,-0.065142,-0.092209,1.180532,100157.49,-46,-203,-13
47583,11.711,-3.121,1.789,-0.460500,-0.046448,1.056018,100157.49,-46,-203,-13
47593,10.582,-1.637,2.689,-0.655784,-0.008136,0.857009,100158.91,-42,-205,-14
47603,8.994,-0.640,2.638,-0.621197,-0.029952,0.734092,100159.54,-41,-207,-16
47612,8.523,-0.479,2.413,-0.417931,-0.048044,0.680881,100155.26,-39,-209,-18
47623,9.127,-0.757,2.244,-0.252977,-0.059218,0.664917,100158.60,-39,-209,-18
47633,9.620,-1.091,2.021,-0.218922,-0.060815,0.661193,100158.60,-37,-211,-18
47643,9.875,-1.402,1.875,-0.297674,-0.057622,0.664385,100160.46,-35,-212,-18
47652,9.761,-1.372,1.975,-0.426445,-0.060283,0.675559,100159.37,-34,-214,-20
47663,9.352,-0.867,2.194,-0.507858,-0.070925,0.692587,100158.79,-34,-214,-20
47673,8.972,-0.612,2.252,-0.481252,-0.086356,0.735688,100154.80,-32,-216,-21
47683,8.796,-0.520,2.424,-0.341307,-0.101255,0.793156,100154.80,-29,-218,-23
47693,8.534,-0.457,2.690,-0.131124,-0.110301,0.846899,100159.74,-27,-218,-23
47703,8.333,-0.806,2.621,0.116307,-0.131585,0.903302,100159.70,-27,-218,-23
47713,8.532,-1.715,2.213,0.346178,-0.156595,0.952789,100156.82,-24,-220,-22
47723,8.947,-2.174,1.771,0.443554,-0.174686,0.985247,100156.66,-21,-221,-22
47733,9.470,-1.788,1.732,0.373316,-0.185329,1.028348,100156.66,-18,-222,-21
47742,10.009,-1.448,1.817,0.245078,-0.200228,1.099651,100162.37,-18,-222,-21
47753,10.327,-1.555,1.762,0.178564,-0.205549,1.161908,100158.54,-15,-223,-20
47763,10.107,-1.958,1.309,0.122515,-0.185506,1.203235,100160.59,-11,-225,-21
47773,9.742,-2.171,1.117,0.070013,-0.166705,1.232678,100158.49,-8,-226,-20
47782,9.573,-2.399,1.243,0.002968,-0.169365,1.279504,100158.49,-8,-226,-20
47793,9.699,-2.319,1.485,-0.087491,-0.175218,1.328458,100159.52,-5,-228,-20
47803,9.999,-2.282,1.929,-0.149216,-0.193310,1.378476,100161.57,+0,-230,-21
47813,10.319,-2.612,2.202,-0.183271,-0.218319,1.417320,100160.26,+3,-232,-22
47823,10.363,-3.195,2.391,-0.259362,-0.238007,1.430623,100158.27,+3,-232,-22
47833,10.297,-3.515,2.816,-0.394518,-0.249182,1.430091,100158.27,+8,-235,-23
47843,10.400,-3.873,3.485,-0.570647,-0.272595,1.449779,100161.00,+12,-236,-25
47853,10.952,-3.860,3.214,-0.751032,-0.267273,1.484366,100158.22,+17,-238,-27
47863,11.570,-3.603,2.056,-0.909601,-0.274723,1.522678,100159.16,+17,-238,-27
47873,12.037,-3.618,1.044,-1.074023,-0.309842,1.582807,100158.06,+22,-242,-30
47883,12.638,-3.206,-0.108,-1.212371,-0.360925,1.661559,100158.06,+26,-244,-35
47893,13.224,-1.482,-0.418,-1.258665,-0.469475,1.751485,100161.55,+32,-247,-38
47903,13.449,-0.823,-0.130,-1.021344,-0.567915,1.904733,100160.30,+32,-247,-38
47912,13.905,-0.877,-0.339,-0.589803,-0.642411,2.050531,100157.52,+38,-248,-41
47923,14.126,-1.772,-0.071,-0.369509,-0.711053,2.171852,100159.26,+45,-252,-44
47933,14.263,-2.265,-0.003,-0.305124,-0.778631,2.306476,100159.26,+53,-253,-44
47943,14.403,-2.421,0.151,-0.333326,-0.846209,2.433650,100160.73,+53,-253,-44
47953,14.675,-2.326,0.574,-0.433362,-0.939328,2.544861,100160.78,+60,-254,-45
47963,14.917,-1.690,1.414,-0.577564,-1.017016,2.651283,100159.11,+69,-255,-48
47973,15.415,-1.467,2.148,-0.699417,-1.090979,2.763558,100159.38,+77,-256,-50
47983,16.203,-0.755,2.584,-0.913325,-1.146319,2.835393,100159.38,+86,-258,-54
47993,16.977,0.688,2.823,-1.240041,-1.187291,2.894457,100159.32,+86,-258,-54
47998,17.726,2.302,2.922,-1.458206,-1.235181,2.950329,100158.27,+96,-258,-58
48008,19.056,4.125,2.741,-1.574206,-1.343199,2.983851,100158.27,+96,-258,-58
48018,20.900,6.663,2.503,-1.494921,-1.500704,2.895521,100156.71,+105,-258,-64
48028,22.620,5.823,2.203,-0.984096,-1.637988,3.030677,100156.40,+116,-259,-66
48038,21.993,1.434,2.402,-0.305656,-1.708759,3.393044,100156.40,+127,-258,-67
48049,18.890,-1.063,3.697,0.052454,-1.640117,3.421778,100159.42,+127,-258,-67
48058,16.786,-2.931,5.267,0.303078,-1.508153,3.278640,100159.88,+138,-256,-66
48068,16.576,-4.403,5.623,0.331811,-1.412374,3.189246,100157.52,+148,-254,-64
48078,15.696,-2.263,6.034,-0.018849,-1.300631,3.045576,100157.52,+158,-252,-63
48088,14.596,-0.307,7.253,0.071610,-1.094704,2.892861,100157.52,+158,-252,-63
48098,11.674,1.534,8.183,0.392472,-0.889310,2.391081,100157.67,+166,-249,-61
48108,6.518,1.910,4.250,0.436105,-0.929750,1.454036,100156.47,+172,-248,-59
48118,1.438,-9.065,4.996,0.124821,-0.734466,1.266201,100160.13,+174,-246,-58
48128,5.497,-4.174,3.849,-0.491894,-0.597181,0.612770,100157.56,+174,-246,-58
48138,6.895,1.517,2.965,-1.264518,-0.443402,-0.252972,100157.56,+175,-246,-59
48148,3.984,2.438,0.948,-1.664664,-0.423182,-0.787742,100161.50,+172,-248,-65
48158,2.010,2.634,-0.027,-1.808866,-0.279512,-1.086788,100158.59,+168,-250,-71
48168,2.316,2.333,-0.350,-1.519930,-0.044319,-1.397008,100155.44,+326,-250,-71
48178,2.951,2.527,-0.263,-0.914390,0.198323,-1.799283,100155.44,+162,-252,-74
48188,3.495,2.783,-0.330,-0.227436,0.377112,-2.214861,100158.52,+154,-254,-76
48198,3.550,2.343,-0.524,0.375977,0.499497,-2.529338,100158.52,+145,-257,-76
48208,3.511,1.875,-0.676,0.856472,0.619754,-2.818805,100159.31,+135,-258,-72
48218,3.908,1.801,-0.750,1.176270,0.733093,-3.149246,100158.69,+135,-258,-72
48228,4.540,1.404,-0.321,1.275242,0.817166,-3.458401,100155.91,+122,-259,-69
48238,5.523,0.581,-0.090,1.317811,0.885808,-3.690401,100155.91,+110,-260,-65
48248,6.118,-0.269,-0.332,1.291205,0.926781,-3.909098,100154.17,+94,-260,-60
48259,6.525,-1.220,-0.884,1.295462,0.968285,-4.124071,100154.70,+94,-260,-60
48268,6.847,-1.729,-1.106,1.316747,1.018304,-4.366180,100154.50,+80,-260,-56
48278,7.210,-2.152,-1.056,1.301848,1.051827,-4.574768,100153.98,+63,-258,-52
48288,7.846,-2.856,-0.720,1.150728,1.074175,-4.724823,100158.10,+48,-255,-49
48299,8.940,-3.541,0.044,0.803793,1.093863,-4.869024,100155.38,+48,-255,-49
48309,10.155,-3.808,0.580,0.348839,1.117276,-5.064309,100153.82,+30,-252,-46
48318,11.442,-4.123,0.284,-0.059289,1.151863,-5.248418,100153.82,+12,-246,-45
48328,12.410,-5.256,-0.572,-0.274794,1.242322,-5.318657,100156.34,-4,-240,-45
48338,12.794,-6.928,-1.290,-0.222647,1.399827,-5.285666,100156.34,-4,-240,-45
48348,13.222,-8.222,-1.692,-0.076849,1.526469,-5.237776,100156.84,-21,-234,-44
48354,13.661,-8.508,-1.802,0.019995,1.585001,-5.200529,100157.89,-21,-234,-44
48363,14.033,-8.380,-1.529,0.143977,1.620120,-5.139868,100156.91,-37,-225,-41
48373,14.490,-8.681,-1.422,0.389811,1.638744,-5.031318,100155.70,-50,-215,-38
48384,15.055,-9.059,-1.477,0.588820,1.621716,-4.938731,100155.70,-64,-205,-35
48393,15.560,-9.347,-1.896,0.614894,1.569569,-4.850933,100159.64,-64,-205,-35
48403,15.952,-10.166,-1.930,0.490380,1.509973,-4.739722,100160.38,-76,-194,-30
48413,16.981,-11.633,-1.565,0.305738,1.422707,-4.560933,100159.06,-86,-183,-27
48423,17.110,-13.571,-0.629,0.170050,1.320542,-4.306584,100159.06,-96,-172,-25
48433,15.969,-14.871,0.240,0.211023,1.237001,-3.971355,100159.06,-96,-172,-25
48443,15.013,-15.995,0.963,0.560087,1.193368,-3.540346,100159.20,-103,-163,-20
48453,14.116,-17.185,0.738,0.827738,1.121001,-3.023135,100159.56,-109,-153,-17
48463,12.835,-17.629,0.133,0.700031,1.008726,-2.499540,100159.25,-113,-144,-13
48474,12.199,-17.844,-0.156,0.321701,0.849625,-1.901980,100156.95,-115,-140,-11
48483,11.764,-18.684,-1.089,-0.277454,0.624010,-1.233650,100156.95,-115,-140,-11
48493,10.753,-19.274,-2.264,-0.824995,0.389350,-0.535522,100160.97,-116,-138,-11
48503,10.637,-15.486,-2.720,-1.165013,0.156286,0.122165,100161.50,-116,-139,-13
48514,10.421,-12.751,-0.204,-1.040500,0.014745,0.785174,100158.09,-114,-144,-14
48523,9.395,-9.022,7.314,-0.405693,0.133937,1.336440,100155.84,-114,-144,-14
48533,12.687,-1.899,13.193,0.120032,0.351038,1.574825,100155.84,-110,-149,-13
48543,23.628,19.490,2.914,-0.027895,-0.290686,1.247045,100156.55,-108,-152,-14
48553,25.303,11.197,-0.546,0.324894,-0.391255,1.750953,100160.20,-105,-157,-13
48563,22.291,-16.664,1.495,2.280397,-0.176815,3.517025,100159.42,-105,-157,-13
48573,17.879,-22.261,-4.572,2.805058,-0.458301,2.953521,100159.16,-97,-163,-8
48583,10.389,-9.807,-5.584,0.789426,-0.475860,2.062770,100159.16,-93,-166,-6
48589,5.930,-0.717,-2.034,-0.504665,-0.394448,2.134072,100159.69,-93,-166,-6
48599,5.410,0.737,-0.216,-0.727619,-0.472668,2.509210,100159.69,-88,-173,-9
48609,7.896,-0.042,0.725,-0.059821,-0.501934,2.405980,100160.06,-82,-179,-10
48618,9.040,-1.883,1.291,0.477077,-0.393916,2.164402,100157.39,-82,-179,-10
48628,10.008,-3.490,1.116,0.497298,-0.369438,1.898348,100157.92,-79,-183,-10
48638,10.150,-2.786,0.807,0.396729,-0.318356,1.605155,100159.88,-75,-186,-8
48649,9.897,-1.797,1.139,0.443022,-0.248117,1.332183,100158.58,-72,-189,-8
48658,9.562,-1.229,1.171,0.569665,-0.214062,1.153926,100156.42,-69,-189,-6
48668,8.964,-1.267,0.982,0.638839,-0.162980,1.031009,100156.42,-69,-190,-6
48678,8.960,-0.767,1.562,0.578178,-0.076778,0.951724,100157.63,-66,-192,-5
48689,9.233,-0.683,2.667,0.401518,-0.019842,0.888936,100157.63,-64,-193,-5
48698,9.429,-1.075,2.956,0.287114,-0.000154,0.824018,100160.79,-62,-194,-3
48709,9.428,-1.200,2.511,0.324362,-0.021616,0.713694,100157.57,-62,-194,-3
48718,9.385,-1.178,1.587,0.389279,-0.052301,0.664385,100157.57,-60,-196,-2
48729,9.639,-1.271,0.854,0.447279,-0.043787,0.636715,100160.63,-58,-196,-2
48739,9.885,-1.673,0.365,0.440362,-0.010264,0.613835,100160.63,-57,-196,-1
48748,9.780,-1.917,0.076,0.342986,0.026451,0.596807,100161.80,-57,-196,-1
48758,9.695,-1.854,-0.047,0.176435,0.063699,0.581376,100159.42,-56,-197,+0
48769,9.666,-1.621,0.473,0.036491,0.089240,0.592018,100156.80,-55,-198,+0
48779,9.687,-1.609,1.086,-0.052372,0.091369,0.617027,100156.80,-51,-201,+0
48788,9.774,-1.196,1.503,-0.144427,0.077002,0.647358,100156.80,-51,-201,+0
48798,9.638,-0.395,1.891,-0.229032,0.049332,0.686202,100159.56,-50,-201,-1
48808,9.609,-0.263,2.212,-0.232225,0.007827,0.761761,100159.67,-48,-203,+0
48819,9.738,-0.886,2.080,-0.107179,-0.023035,0.814440,100157.05,-45,-205,-1
48828,9.805,-1.453,1.754,0.018399,-0.046448,0.837321,100157.31,-45,-205,-1
48838,9.671,-1.816,1.560,0.047665,-0.069329,0.851156,100157.31,-44,-207,-1
48848,9.656,-2.044,1.315,-0.005546,-0.090081,0.869780,100159.94,-41,-208,-1
48859,9.666,-2.039,1.090,-0.118886,-0.108173,0.897981,100159.09,-39,-210,-1
48869,9.741,-1.715,1.338,-0.204023,-0.120411,0.923523,100158.58,-39,-210,-1
48878,9.736,-1.310,1.691,-0.196574,-0.132650,0.948532,100158.58,-36,-212,-2
48888,9.681,-1.296,1.724,-0.124739,-0.151273,0.984715,100158.88,-33,-214,-3
48899,9.756,-1.601,1.689,-0.063014,-0.167769,1.021431,100159.97,-31,-215,-3
48908,9.941,-2.256,1.436,-0.059821,-0.184796,1.051229,100159.97,-31,-215,-3
48918,9.958,-2.454,1.165,-0.127931,-0.193842,1.062935,100160.34,-28,-217,-3
48928,9.741,-2.219,1.267,-0.214133,-0.203420,1.074110,100160.70,-25,-219,-5
48939,9.506,-2.250,1.510,-0.234885,-0.214595,1.103908,100160.70,-21,-221,-5
48949,9.480,-2.369,1.460,-0.214133,-0.214595,1.129449,100158.45,-21,-221,-5
48959,9.483,-2.444,1.435,-0.209344,-0.212998,1.156587,100160.92,-18,-223,-6
48968,9.633,-2.630,1.412,-0.243931,-0.222576,1.206073,100157.56,-15,-225,-7
48978,9.921,-2.657,1.487,-0.296610,-0.238007,1.264073,100159.39,-12,-228,-8
48989,10.011,-2.689,1.740,-0.350885,-0.253971,1.328990,100160.15,-12,-228,-8
48999,10.279,-3.257,1.906,-0.398243,-0.285897,1.395504,100160.04,-7,-229,-9
49008,10.477,-3.896,1.633,-0.514243,-0.334319,1.436476,100157.43,-3,-233,-11
49018,10.500,-4.467,1.813,-0.694096,-0.347090,1.473724,100159.10,+1,-235,-13
49029,10.577,-4.970,1.578,-0.945784,-0.347090,1.514164,100159.10,+1,-235,-13
49038,11.250,-4.712,0.520,-1.231527,-0.374760,1.550348,100159.10,+5,-238,-17
49048,11.983,-3.213,0.757,-1.546536,-0.428503,1.590788,100159.29,+9,-242,-22
49058,12.378,-2.203,0.568,-1.553985,-0.517897,1.712109,100159.60,+14,-246,-28
49069,13.533,-1.205,0.635,-1.315068,-0.605695,1.819063,100156.77,+14,-246,-28
49079,14.270,-0.722,0.925,-1.021344,-0.732337,1.958476,100156.62,+20,-249,-32
49088,14.663,-1.633,0.657,-0.620133,-0.823860,2.135136,100156.62,+27,-252,-35
49098,15.177,-3.671,0.169,-0.528078,-0.893035,2.231981,100161.13,+33,-254,-37
49108,16.277,-4.036,-0.228,-0.810628,-0.979236,2.326164,100157.58,+33,-254,-37
49119,17.773,-3.071,-0.866,-1.277821,-1.084594,2.465577,100157.27,+42,-256,-40
49129,19.149,-1.219,-2.105,-1.655618,-1.183566,2.604457,100157.27,+49,-260,-46
49138,20.136,0.759,-4.218,-1.913692,-1.328832,2.725246,100157.27,+59,-263,-54
49148,21.257,3.472,-5.609,-2.089288,-1.504429,2.791228,100160.22,+67,-263,-60
49159,22.601,7.094,-5.504,-1.937637,-1.740153,2.751320,100157.61,+67,-265,-60
49169,23.286,9.927,-3.574,-1.141600,-1.971621,2.720989,100158.77,+76,-266,-67
49178,22.673,8.164,-0.970,0.133335,-2.140300,2.890200,100156.88,+86,-266,-66
49188,20.481,2.370,1.849,1.237994,-2.281841,3.113154,100156.88,+96,-267,-60
49199,17.639,-2.557,4.048,1.821187,-2.368043,3.183393,100161.05,+96,-267,-60
49209,15.380,-5.186,5.707,2.089902,-2.375492,3.208402,100157.50,+106,-265,-55
49219,13.921,-5.614,6.768,2.241021,-2.352080,3.121668,100157.66,+116,-263,-47
49228,11.869,-3.978,7.546,2.241021,-2.287162,2.807723,100157.79,+123,-260,-38
49239,8.524,-1.180,8.051,2.004232,-2.168502,2.153228,100156.16,+123,-260,-38
49249,5.745,0.915,4.198,1.659957,-2.207346,1.369963,100156.26,+126,-258,-32
49258,1.655,-3.664,-0.204,1.302380,-2.387731,0.935761,100156.26,+128,-257,-27
49268,-0.797,-10.105,6.166,0.930967,-2.142960,0.958110,100158.51,+129,-256,-23
49278,2.413,-3.021,5.689,0.393004,-2.183401,0.173248,100154.27,+129,-256,-23
49289,3.868,1.174,4.666,-0.075253,-2.144025,-0.534990,100154.27,+123,-255,-22
49299,3.312,1.029,3.720,-0.110372,-2.158391,-0.716440,100160.29,+119,-256,-22
49308,2.055,-0.435,2.354,-0.063014,-2.153603,-0.969724,100157.21,+113,-257,-22
49318,2.098,-1.593,1.656,-0.027895,-2.105713,-1.351779,100156.73,+113,-257,-22
49329,2.734,-1.215,1.492,0.002436,-2.072190,-1.708824,100155.05,+104,-258,-20
49339,3.056,-0.540,1.624,0.062564,-2.031217,-2.021705,100157.73,+94,-258,-20
49349,3.166,-0.038,1.900,0.280729,-1.974281,-2.309044,100155.73,+83,-258,-18
49358,3.816,0.081,1.966,0.693646,-1.905639,-2.565521,100154.38,+83,-258,-18
49369,5.044,-0.336,2.005,1.186912,-1.827419,-2.790071,100155.16,+72,-257,-15
49379,6.269,-1.187,2.161,1.589187,-1.756649,-3.000787,100155.16,+58,-255,-11
49388,7.097,-1.845,2.573,1.839278,-1.677364,-3.190750,100155.16,+45,-250,-6
49398,7.581,-1.864,3.580,2.034563,-1.572006,-3.367410,100156.95,+45,-250,-6
49409,8.002,-1.702,4.360,2.297957,-1.473566,-3.484475,100159.42,+30,-245,+0
49419,8.351,-1.909,5.079,2.718324,-1.365548,-3.554181,100155.34,+15,-238,+6
49429,8.773,-2.730,5.822,3.188709,-1.252208,-3.561099,100153.50,+1,-230,+15
49438,9.660,-4.049,6.556,3.491479,-1.178777,-3.524915,100153.50,+1,-230,+15
49448,10.801,-5.110,7.541,3.532984,-1.151108,-3.500438,100155.48,-11,-218,+23
49459,11.688,-5.331,8.700,3.453167,-1.109071,-3.553117,100153.73,-24,-207,+32
49469,12.344,-5.099,9.665,3.397296,-1.058521,-3.635594,100150.87,-37,-193,+38
49478,12.799,-5.402,10.277,3.405809,-1.006906,-3.674970,100150.87,-37,-193,+38
49488,13.191,-6.436,10.268,3.391974,-0.958484,-3.673374,100152.27,-49,-181,+44
49499,13.098,-7.507,10.180,3.254158,-0.860576,-3.656346,100152.27,-60,-165,+50
49509,12.387,-7.949,10.176,3.040250,-0.698814,-3.630805,100150.17,-70,-149,+54
49518,11.621,-7.539,10.213,2.864122,-0.515769,-3.598346,100150.11,-70,-149,+54
49528,11.257,-6.886,9.916,2.781645,-0.339640,-3.553649,100149.59,-77,-135,+59
49534,11.083,-6.578,9.546,2.774195,-0.207145,-3.516933,100149.59,-85,-120,+62
49544,11.091,-6.550,9.058,2.783773,-0.069329,-3.490860,100156.06,-85,-120,+62
49554,11.624,-6.476,8.433,2.750782,0.097222,-3.494053,100154.44,-89,-103,+67
49563,12.442,-6.335,7.964,2.645425,0.236635,-3.486603,100150.50,-92,-88,+69
49573,12.688,-6.042,7.480,2.510801,0.365937,-3.478089,100154.95,-96,-72,+73
49584,12.408,-5.612,7.087,2.377773,0.500561,-3.463190,100154.95,-96,-72,+73
49594,11.904,-5.331,6.797,2.258049,0.629864,-3.421686,100157.42,-96,-57,+76
49604,11.628,-5.264,6.464,2.137792,0.740010,-3.368475,100156.48,-97,-42,+80
49613,11.661,-5.281,6.008,1.998379,0.835258,-3.305686,100157.00,-96,-27,+82
49624,11.869,-5.312,5.295,1.857370,0.924652,-3.246089,100153.92,-96,-27,+82
49634,11.992,-5.258,4.487,1.715829,1.016175,-3.204585,100153.92,-94,-14,+84
49644,11.958,-5.079,3.943,1.620049,1.102377,-3.168401,100155.49,-93,-1,+88
49653,12.102,-4.935,3.522,1.639737,1.164634,-3.119979,100154.24,-89,+11,+89
49664,12.440,-4.869,3.088,1.721150,1.192836,-3.053466,100153.20,-89,+11,+89
49674,12.599,-4.997,2.729,1.828636,1.222102,-2.969392,100154.82,-85,+23,+91
49684,12.495,-5.427,2.455,1.930801,1.273716,-2.866163,100154.82,-81,+37,+94
49693,12.277,-6.593,1.293,1.923884,1.283827,-2.748567,100156.33,-76,+49,+94
49703,11.751,-7.075,0.624,1.661022,1.232212,-2.651723,100157.53,-76,+49,+94
49714,11.000,-7.007,0.812,1.346013,1.184322,-2.492622,100157.44,-71,+61,+96
49724,10.620,-7.290,0.968,1.105499,1.109827,-2.271796,100155.66,-66,+70,+97
49733,10.427,-8.159,0.995,0.952784,1.037992,-2.025430,100155.66,-61,+78,+99
49743,10.579,-9.141,0.880,0.759096,0.986377,-1.776935,100159.79,-61,+78,+99
49754,10.632,-9.936,0.623,0.432380,0.951790,-1.516733,100159.16,-57,+84,+99
49764,10.424,-10.282,0.426,-0.001821,0.923588,-1.218751,100156.24,-53,+88,+101
49769,10.127,-10.148,0.202,-0.329069,0.902836,-0.983027,100156.96,-53,+88,+101
49778,9.820,-9.475,0.048,-0.624390,0.873038,-0.761137,100156.96,-49,+88,+103
49788,9.828,-8.202,-0.221,-0.863839,0.801203,-0.447192,100156.96,-46,+86,+105
49799,9.968,-7.091,-0.720,-0.887252,0.684671,-0.134312,100160.23,-44,+84,+107
49809,9.902,-6.499,-0.928,-0.704738,0.562818,0.138661,100159.23,-44,+84,+107
49819,9.939,-5.668,-1.268,-0.413142,0.420212,0.363211,100155.88,-43,+81,+109
49828,10.112,-6.352,-1.878,-0.028959,0.264836,0.621284,100155.88,-42,+80,+109
49839,10.643,-7.278,-1.291,0.428123,0.164268,0.963431,100161.67,-44,+80,+108
49849,12.278,-7.201,2.409,0.894251,0.197258,1.318348,100161.67,-44,+80,+108
49859,18.189,3.444,2.358,0.903829,0.104139,1.466807,100159.00,-44,+80,+109
49868,23.342,13.760,-3.562,0.390344,-0.127329,1.134770,100157.48,-46,+80,+108
49879,20.378,0.367,-5.660,0.711206,-0.035274,1.837155,100160.09,-48,+78,+107
49889,16.750,-10.044,-4.429,1.530123,0.179167,2.282531,100160.09,-48,+78,+107
49899,11.254,-8.423,-2.504,0.731426,0.238231,1.843008,100162.30,-49,+80,+106
49909,5.408,-1.772,-0.550,-0.729748,0.148304,1.676990,100159.32,-50,+74,+108
49918,5.002,1.895,3.188,-1.019747,0.069020,1.807357,100158.34,-51,+67,+108
49929,7.358,0.128,8.028,-0.232225,0.194598,1.869614,100158.31,-51,+67,+108
49939,10.650,-3.110,7.536,0.681940,0.215350,1.956880,100157.53,-52,+65,+108
49949,12.432,-3.348,4.611,1.025683,-0.041127,1.823320,100157.80,-53,+62,+108
49959,10.441,-3.500,2.706,0.813903,-0.169365,1.477981,100156.70,-54,+63,+107
49969,9.699,-3.017,1.237,0.529224,-0.251310,1.348678,100156.70,-54,+63,+107
49979,9.824,-1.955,-0.709,0.468032,-0.272062,1.289082,100159.27,-56,+61,+106
49989,10.739,-1.702,-2.789,0.518050,-0.242264,1.230550,100159.27,-58,+59,+106
49998,10.896,-2.352,-3.352,0.420142,-0.151806,1.278972,100159.79,-59,+59,+106
50004,11.107,-1.852,-2.638,0.277536,-0.041127,1.270990,100160.68,-59,+59,+106
50014,10.878,-0.704,-1.607,0.170582,0.055717,1.303449,100156.65,-60,+57,+105
50024,9.537,-0.394,-0.311,0.002968,0.137130,1.298660,100159.01,-60,+54,+106
50034,9.028,-1.770,0.827,-0.107711,0.142451,1.256091,100159.01,-60,+54,+106
50043,9.536,-3.631,1.581,-0.291821,0.118506,1.190642,100160.18,-60,+51,+107
50054,9.865,-3.717,1.921,-0.550427,0.117442,1.027284,100160.02,-61,+47,+107
50064,9.856,-2.347,1.711,-0.718041,0.105203,0.885211,100158.45,-61,+41,+108
50074,9.721,-0.719,1.607,-0.625986,0.100947,0.794220,100159.87,-61,+41,+108
50083,9.646,0.256,1.601,-0.357271,0.104671,0.769743,100159.87,-62,+39,+108
50094,9.793,0.043,1.501,-0.050775,0.077534,0.791027,100160.02,-62,+37,+108
50104,10.015,-0.662,1.414,0.220601,0.054121,0.818165,100157.93,-62,+36,+108
50114,10.095,-1.199,1.495,0.315848,0.036561,0.826147,100157.93,-62,+36,+108
50124,10.017,-1.876,1.359,0.226986,0.012084,0.840514,100155.52,-62,+35,+108
50134,9.583,-2.185,1.303,0.062564,0.000910,0.847963,100155.52,-62,+33,+108
50144,9.019,-2.058,1.151,-0.101858,0.002506,0.843174,100161.63,-62,+31,+108
50154,9.154,-2.024,1.004,-0.168904,-0.009732,0.850624,100158.38,-62,+31,+108
50164,9.640,-2.478,0.874,-0.152941,-0.036870,0.846899,100159.06,-63,+29,+109
50173,9.875,-2.565,0.810,-0.190720,-0.034741,0.808587,100158.59,-64,+26,+108
50184,9.711,-2.301,1.077,-0.250849,-0.028888,0.767614,100158.59,-62,+23,+109
50194,9.433,-2.053,1.498,-0.268940,-0.042191,0.749523,100159.02,-62,+23,+109
50204,9.185,-1.971,1.801,-0.228500,-0.059751,0.744734,100158.65,-64,+21,+109
50213,9.113,-1.769,1.851,-0.140170,-0.075714,0.754312,100161.54,-64,+19,+108
50224,9.346,-1.897,1.863,-0.061950,-0.085824,0.764954,100158.23,-65,+17,+108
50234,9.623,-2.380,1.423,-0.017253,-0.083163,0.774532,100158.23,-65,+17,+108
50244,9.642,-2.488,1.280,-0.013528,-0.064007,0.762293,100159.47,-65,+15,+108
50253,9.468,-2.597,1.347,-0.063014,-0.060815,0.769743,100159.31,-65,+13,+109
50264,9.408,-2.832,1.449,-0.137509,-0.064540,0.788367,100156.64,-66,+11,+108
50274,9.431,-2.318,1.696,-0.219986,-0.069861,0.806458,100156.27,-66,+11,+108
50284,9.415,-2.007,1.903,-0.234885,-0.099659,0.836257,100156.27,-66,+9,+108
50294,9.404,-2.025,2.057,-0.184867,-0.132118,0.878825,100160.07,-66,+5,+108
50304,9.259,-2.094,2.100,-0.135381,-0.161384,0.932568,100161.85,-67,+4,+108
50314,9.246,-2.271,1.884,-0.103454,-0.203420,0.994825,100155.57,-67,+4,+108
50324,9.407,-2.623,1.408,-0.064610,-0.245457,1.062403,100156.84,-67,+1,+108
50334,9.470,-3.110,1.350,-0.008739,-0.261952,1.118807,100156.84,-68,+0,+107
50343,9.727,-3.371,1.283,0.014142,-0.283769,1.159779,100160.51,-69,-3,+106
50354,10.192,-4.329,1.061,-0.030023,-0.320484,1.186385,100159.46,-69,-5,+106
50364,11.053,-5.041,0.782,-0.217326,-0.346558,1.192770,100157.74,-69,-5,+106
50374,11.630,-5.076,0.454,-0.538188,-0.369971,1.164036,100157.32,-71,-9,+105
50384,12.041,-4.676,-0.056,-0.880867,-0.398172,1.145412,100157.32,-72,-16,+104
50394,12.550,-3.650,-0.457,-1.115527,-0.434888,1.165632,100160.23,-73,-21,+103
50404,12.741,-2.896,-0.608,-1.202261,-0.480117,1.209798,100160.07,-73,-21,+103
50414,13.112,-2.611,-1.195,-1.177252,-0.554081,1.294403,100159.34,-74,-28,+101
50424,13.559,-2.058,-1.334,-1.083068,-0.624319,1.389119,100157.71,-75,-35,+99
50434,13.829,-1.500,-1.046,-0.946848,-0.705200,1.503522,100157.71,-78,-41,+98
50444,13.950,-1.279,-0.380,-0.730280,-0.786080,1.624311,100159.72,-78,-41,+98
50454,14.085,-1.129,0.580,-0.509454,-0.866429,1.755742,100159.92,-78,-47,+95
50464,14.267,-1.271,1.683,-0.340243,-0.947310,1.867485,100156.47,-80,-53,+94
50475,14.370,-1.559,2.343,-0.252445,-1.042557,1.971779,100156.94,-82,-59,+91
50484,14.517,-1.879,2.595,-0.289161,-1.150576,2.074476,100156.94,-82,-59,+91
50494,14.984,-1.414,2.831,-0.477527,-1.259658,2.171852,100161.33,-82,-64,+88
50504,16.122,-0.078,3.332,-0.709527,-1.373530,2.285723,100159.48,-84,-71,+84
50514,17.574,1.187,3.572,-0.882995,-1.494318,2.390549,100159.59,-86,-80,+79
50524,18.592,2.961,3.736,-1.026133,-1.570942,2.429393,100157.77,-86,-80,+79
50534,18.347,4.752,3.674,-1.028261,-1.618300,2.408641,100157.77,-87,-88,+76
50544,17.852,4.225,3.080,-0.784023,-1.672575,2.472494,100158.15,-89,-96,+70
50554,18.066,-0.279,2.248,-0.354078,-1.715676,2.795485,100157.15,-90,-104,+66
50564,18.408,-3.179,2.169,-0.069399,-1.733236,3.103044,100160.91,-90,-104,+66
50574,18.020,-2.203,3.579,-0.103454,-1.666190,3.080163,100158.77,-89,-112,+62
50584,17.053,-1.765,5.057,-0.257766,-1.628942,2.988641,100158.77,-89,-120,+59
50594,15.752,-1.792,5.804,-0.156133,-1.588502,2.922127,100160.76,-87,-127,+54
50604,14.439,-0.791,6.560,-0.021509,-1.422484,2.814641,100157.93,-87,-127,+54
50614,12.814,1.702,6.891,0.077995,-1.224007,2.515595,100157.62,-86,-134,+52
50624,10.194,4.525,5.165,0.369591,-1.113860,1.990935,100156.10,-83,-138,+50
50634,6.027,3.477,1.694,0.863389,-1.178245,1.348146,100156.10,-84,-138,+49
50644,2.850,-9.118,2.337,1.103903,-1.022337,1.228421,100161.05,-84,-138,+49
50654,7.452,-9.517,2.166,0.461646,-0.905273,0.901174,100156.61,-84,-138,+48
50664,8.785,-2.338,1.455,-0.539252,-0.828117,0.312128,100158.80,-85,-140,+45
50674,6.479,1.502,1.580,-0.822867,-0.721695,-0.144422,100156.03,-87,-141,+42
50684,3.865,3.469,1.171,-0.662170,-0.647200,-0.458899,100156.03,-87,-141,+42
50694,3.057,3.337,0.594,-0.221583,-0.526411,-0.761669,100157.78,-90,-140,+40
50704,3.236,1.971,0.484,0.446215,-0.351879,-1.038366,100158.20,-93,-137,+39
50714,3.850,0.652,0.898,1.041114,-0.197567,-1.402861,100155.95,-96,-131,+40
50724,4.458,0.186,0.663,1.464673,-0.106576,-1.742347,100155.48,-96,-131,+40
50734,4.677,0.226,0.840,1.774893,-0.021439,-2.037136,100155.48,-99,-122,+42
50744,5.004,0.367,1.037,2.052122,0.044011,-2.361723,100161.27,-103,-112,+45
50754,5.533,0.338,0.898,2.237296,0.098818,-2.685778,100155.73,-107,-99,+47
50764,5.979,-0.886,1.140,2.285718,0.160011,-2.916713,100155.37,-107,-99,+47
50775,6.039,-1.636,1.078,2.196856,0.220139,-3.154567,100156.57,-110,-85,+51
50784,6.106,-2.008,1.096,2.003700,0.295167,-3.379117,100156.57,-112,-70,+52
50794,6.382,-2.286,1.089,1.849921,0.370726,-3.547264,100156.19,-115,-55,+55
50804,6.745,-2.258,0.998,1.769040,0.436708,-3.729777,100155.45,-116,-55,+55
50814,7.162,-2.328,1.156,1.723811,0.509075,-3.917080,100150.48,-116,-39,+57
50824,7.919,-2.408,1.466,1.664746,0.579313,-4.114492,100151.00,-117,-23,+57
50830,8.576,-2.580,1.679,1.573756,0.619754,-4.254437,100151.00,-117,-23,+57
50839,9.168,-2.769,1.819,1.443921,0.663919,-4.378951,100151.00,-117,-7,+59
50849,9.868,-3.143,2.107,1.225756,0.740010,-4.533795,100149.23,-114,+8,+60
50860,10.318,-3.843,2.456,0.963426,0.832597,-4.666822,100151.95,-112,+25,+62
50870,10.494,-4.429,2.669,0.683536,0.937423,-4.791336,100154.16,-112,+25,+62
50879,10.533,-4.752,2.605,0.431316,1.052359,-4.909464,100153.20,-107,+40,+64
50889,10.866,-4.778,2.558,0.262637,1.194964,-4.982896,100159.37,-102,+55,+66
50899,11.680,-4.786,2.215,0.162601,1.325331,-5.013758,100155.45,-94,+69,+67
50909,12.814,-4.956,1.684,0.093426,1.446120,-5.023868,100155.45,-94,+69,+67
50919,13.741,-5.331,1.139,0.000307,1.545092,-5.029189,100155.40,-85,+82,+71
50929,14.162,-5.549,0.822,-0.128996,1.612670,-5.036107,100153.24,-76,+94,+74
50939,14.372,-5.414,0.649,-0.307784,1.641404,-5.036107,100153.24,-65,+106,+77
50950,14.782,-5.334,0.334,-0.517436,1.669783,-4.974914,100154.45,-65,+106,+77
50959,15.438,-5.185,-0.288,-0.649931,1.717496,-4.877538,100154.45,-53,+116,+81
50969,16.395,-6.023,-0.228,-0.666426,1.823386,-4.758878,100153.41,-41,+123,+85
50979,17.594,-7.681,-0.426,-0.538188,1.851056,-4.604033,100152.41,-28,+130,+88
50990,17.596,-9.503,-0.871,-0.506793,1.806890,-4.435887,100152.41,-28,+130,+88
51000,16.723,-10.779,-1.049,-0.578096,1.738780,-4.201227,100157.91,-15,+136,+93
51009,15.740,-11.907,-1.137,-0.654188,1.656836,-3.815447,100156.17,-3,+140,+94
51019,14.797,-13.206,-1.268,-0.789344,1.546689,-3.355172,100158.27,+6,+142,+98
51030,14.340,-14.238,-1.770,-0.893105,1.407276,-2.861374,100158.27,+6,+142,+98
51039,13.977,-15.802,-2.849,-0.906940,1.216249,-2.280842,100158.27,+16,+143,+101
51049,13.510,-17.655,-3.956,-0.940995,0.943808,-1.586971,100160.47,+21,+141,+103
51059,12.839,-18.255,-4.244,-1.015490,0.599533,-0.800513,100160.78,+26,+141,+105
51069,11.466,-16.233,-3.858,-1.011766,0.219607,0.006165,100158.80,+25,+136,+107
51080,11.502,-12.937,-2.215,-0.646206,-0.065072,0.780917,100158.95,+25,+136,+107
51089,11.072,-11.604,0.130,0.075867,-0.278980,1.474788,100158.95,+22,+134,+107
51099,10.081,-8.701,8.657,0.893187,-0.171494,1.948898,100160.06,+17,+136,+106
51109,16.045,5.821,10.886,0.928839,-0.047512,2.010623,100155.31,+14,+136,+104
51120,27.938,25.043,-5.868,0.439830,-0.828649,1.530660,100160.42,+14,+136,+104
51129,25.500,-1.815,-9.558,1.260343,-1.178245,2.841246,100160.42,+7,+134,+103
51139,23.766,-18.833,-2.908,3.085479,-0.571640,3.587796,100160.58,+0,+139,+97
51149,16.484,-12.572,-1.089,1.829700,-0.412539,2.805595,100160.58,-6,+140,+94
51160,6.550,-3.503,0.475,-0.204555,-0.415200,2.336806,100160.42,-6,+140,+94
51169,0.920,1.228,4.364,-0.520628,-0.437016,2.469834,100157.92,-10,+134,+94
51179,2.861,-1.437,6.336,0.273811,-0.376356,2.603925,100158.48,-16,+130,+94
51184,8.511,-4.160,3.700,0.851151,-0.502998,2.592751,100158.48,-16,+130,+94
51194,12.926,-5.912,0.597,0.802729,-0.713181,2.556567,100159.09,-22,+128,+91
51205,13.772,-6.860,-0.418,0.144509,-0.673273,2.254861,100157.93,-28,+126,+91
51214,12.780,-5.033,0.338,-0.608959,-0.521090,1.947834,100159.62,-28,+126,+91
51224,10.719,-2.447,-0.108,-0.897362,-0.439145,1.691357,100158.24,-32,+119,+91
51234,8.583,-0.069,0.232,-0.602041,-0.319952,1.420513,100158.24,-35,+114,+92
51245,7.686,0.548,0.763,-0.105583,-0.230026,1.321009,100162.21,-37,+111,+92
51255,8.572,-0.646,0.567,0.388747,-0.192246,1.340697,100160.12,-37,+111,+92
51264,9.941,-2.174,0.755,0.602123,-0.128393,1.278972,100159.43,-40,+110,+92
51274,10.331,-3.047,1.350,0.543591,-0.024099,1.136366,100157.96,-42,+110,+91
51284,9.951,-2.863,1.929,0.355756,0.013681,0.999614,100157.96,-43,+108,+90
51295,9.172,-2.451,2.085,0.119500,-0.033145,0.899046,100160.74,-44,+106,+89
51304,9.020,-2.089,1.827,-0.118886,-0.075182,0.840514,100160.48,-44,+106,+89
51314,9.578,-0.984,1.699,-0.279583,-0.071989,0.822954,100159.16,-46,+104,+89
51324,9.865,0.476,1.697,-0.337050,-0.040595,0.816036,100155.04,-46,+102,+89
51335,9.535,0.630,1.486,-0.234885,0.000378,0.817101,100155.04,-48,+100,+91
51344,9.460,-0.358,1.100,0.002968,0.046139,0.827211,100160.51,-48,+100,+91
51354,9.947,-1.772,1.175,0.148766,0.042947,0.831468,100159.88,-48,+98,+91
51364,10.070,-2.945,0.833,-0.031620,-0.008668,0.838385,100158.30,-49,+97,+91
51375,9.869,-2.799,0.812,-0.392922,0.009956,0.834660,100157.99,-51,+92,+91
51384,9.634,-2.252,1.611,-0.716977,0.026451,0.844770,100157.99,-51,+92,+91
51394,9.344,-1.549,2.263,-0.867564,0.008892,0.876697,100159.81,-51,+89,+92
51404,9.264,-0.937,2.218,-0.834041,-0.015053,0.905963,100158.08,-53,+84,+93
51415,9.437,-0.712,2.228,-0.679729,-0.036870,0.945339,100158.72,-55,+80,+94
51420,9.768,-0.856,2.323,-0.568518,-0.053897,0.980458,100157.30,-55,+80,+94
51429,10.072,-1.172,1.936,-0.517436,-0.077842,1.006532,100157.30,-55,+76,+95
51439,10.081,-1.758,1.947,-0.472739,-0.085824,1.021963,100157.30,-55,+76,+95
51449,9.779,-2.290,1.948,-0.462628,-0.113494,1.028880,100159.91,-57,+73,+94
51460,9.601,-2.381,1.880,-0.475399,-0.143292,1.029412,100158.13,-57,+69,+96
51470,9.370,-2.393,1.952,-0.471142,-0.174154,1.028348,100158.60,-60,+66,+94
51479,9.238,-2.196,1.894,-0.433894,-0.206081,1.040055,100158.60,-60,+66,+94
51489,9.396,-2.031,1.856,-0.358867,-0.236943,1.070385,100160.05,-61,+63,+96
51500,9.712,-2.064,1.770,-0.294482,-0.253971,1.096458,100160.05,-61,+59,+94
51510,10.033,-2.380,1.562,-0.264151,-0.257163,1.127321,100157.12,-64,+55,+94
51519,10.290,-2.896,1.337,-0.267344,-0.263017,1.156587,100159.48,-65,+55,+94
51529,10.292,-3.319,1.170,-0.325344,-0.263549,1.168825,100157.02,-65,+53,+94
51539,10.069,-3.642,1.309,-0.437619,-0.252374,1.177339,100157.02,-67,+48,+94
51550,9.869,-3.689,1.645,-0.555748,-0.232154,1.199155,100159.76,-68,+44,+94
51560,9.893,-3.464,1.589,-0.662170,-0.223640,1.226825,100161.60,-69,+39,+93
51569,10.107,-2.635,1.422,-0.668023,-0.239604,1.255027,100159.82,-69,+39,+93
51579,10.003,-2.435,1.718,-0.586078,-0.279512,1.313027,100157.26,-70,+34,+93
51590,9.979,-2.626,1.753,-0.464225,-0.325273,1.396568,100158.78,-72,+29,+93
51600,10.210,-2.743,1.484,-0.366317,-0.371567,1.484898,100161.61,-73,+24,+93
51609,10.863,-3.091,1.137,-0.300335,-0.425842,1.585999,100158.31,-73,+24,+93
51619,11.415,-3.336,1.005,-0.273197,-0.475328,1.674862,100158.31,-75,+20,+92
51630,11.906,-3.507,0.982,-0.308849,-0.537585,1.750953,100157.84,-78,+14,+90
51640,12.435,-3.166,0.921,-0.336518,-0.577493,1.845137,100157.84,-78,+9,+89
51649,12.917,-2.737,1.046,-0.331729,-0.599310,1.944109,100159.12,-78,+9,+89
51659,13.201,-2.797,0.835,-0.283840,-0.648796,2.053192,100159.32,-80,+3,+88
51670,13.386,-2.603,0.851,-0.248188,-0.704668,2.158549,100159.68,-82,-1,+86
51680,13.930,-2.432,1.305,-0.224243,-0.796191,2.285192,100159.48,-85,-8,+85
51690,14.801,-2.681,1.872,-0.226372,-0.902080,2.426733,100159.48,-85,-8,+85
51699,15.740,-2.853,2.773,-0.353014,-0.984557,2.548054,100160.51,-86,-15,+83
51709,16.543,-3.295,3.672,-0.625454,-1.027126,2.657668,100161.43,-89,-23,+81
51720,17.525,-2.660,3.943,-1.050610,-1.048943,2.736953,100158.18,-90,-33,+78
51730,19.389,-0.731,4.234,-1.552921,-1.138337,2.795485,100158.18,-90,-33,+78
51739,21.512,1.993,4.563,-2.035013,-1.272961,2.794420,100158.18,-91,-45,+74
51749,22.370,6.707,4.468,-2.360664,-1.368208,2.625210,100161.31,-93,-59,+70
51760,21.902,11.170,4.220,-2.151013,-1.484208,2.493246,100162.36,-94,-70,+64
51770,20.755,6.842,2.805,-1.195876,-1.666722,2.987044,100160.16,-94,-70,+64
51775,18.933,-0.270,2.175,-0.415271,-1.743878,3.483503,100156.50,-95,-80,+60
51784,17.492,-3.198,2.043,-0.072060,-1.719401,3.498934,100156.50,-94,-90,+57
51794,16.229,-5.019,3.615,0.077463,-1.502832,3.251503,100158.69,-94,-90,+57
51805,16.235,-6.138,5.131,-0.157730,-1.292117,3.012053,100157.95,-93,-97,+54
51815,15.803,-3.210,5.547,-0.550427,-1.212832,2.738017,100156.69,-92,-105,+50
51824,14.837,-0.574,5.675,-0.513711,-1.077144,2.529430,100154.81,-91,-113,+47
51834,12.311,0.273,6.728,-0.222647,-0.833438,2.195265,100154.81,-91,-113,+47
51845,8.071,4.071,1.753,-0.258830,-1.017548,1.367834,100160.41,-89,-118,+45
51855,1.403,-5.678,0.409,-0.459436,-0.926557,1.003871,100158.84,-89,-120,+42
51864,5.627,-9.180,0.924,-0.490830,-0.582282,0.997486,100158.16,-90,-123,+41
51874,7.412,-2.290,1.888,-1.167674,-0.290154,0.296697,100158.21,-90,-123,+41
51885,5.438,1.744,2.179,-1.377857,-0.215659,-0.332789,100158.21,-90,-126,+38
51895,2.190,4.170,0.903,-1.082536,-0.144888,-0.796256,100158.45,-91,-127,+36
51905,1.830,4.349,0.168,-0.438151,0.032836,-1.114458,100157.77,-93,-125,+35
51914,2.563,3.169,0.037,0.448876,0.216946,-1.378916,100154.16,-93,-125,+35
51924,3.540,1.799,0.101,1.176802,0.360616,-1.687008,100154.26,-95,-119,+38
51935,3.888,0.379,0.124,1.576948,0.459589,-1.991375,100154.26,-98,-110,+40
51945,3.931,-0.796,0.173,1.703590,0.558029,-2.292549,100156.85,-99,-101,+44
51954,4.165,-1.213,0.156,1.647187,0.636249,-2.603833,100152.66,-99,-101,+44
51964,4.501,-1.125,0.048,1.524269,0.688928,-2.893301,100154.71,-101,-88,+48
51975,4.755,-1.141,-0.201,1.407205,0.738414,-3.142328,100154.60,-103,-77,+51
51985,5.229,-0.958,-0.315,1.328985,0.795350,-3.347723,100154.60,-104,-65,+53
51994,5.992,-0.866,-0.300,1.280031,0.844836,-3.538218,100157.67,-104,-65,+53
52004,6.809,-0.880,-0.211,1.259811,0.888469,-3.733502,100153.59,-105,-53,+55
52011,7.316,-1.187,-0.069,1.231077,0.906029,-3.867062,100151.81,-106,-38,+59
52020,7.639,-1.911,0.116,1.172545,0.915607,-3.983594,100151.81,-106,-38,+59
52030,8.085,-3.130,0.477,1.008123,0.940616,-4.146419,100151.14,-105,-25,+62
52040,8.534,-3.793,0.943,0.737279,0.995423,-4.338511,100151.14,-103,-10,+64
52049,8.941,-3.726,1.202,0.425995,1.075772,-4.531135,100152.22,-102,+1,+66
52060,9.404,-3.525,1.165,0.173775,1.157717,-4.690767,100153.19,-102,+1,+66
52070,10.101,-3.526,0.707,0.036491,1.233276,-4.808896,100152.22,-98,+16,+69
52080,10.705,-3.853,0.184,0.002968,1.320542,-4.873813,100152.22,-93,+29,+72
52089,11.278,-4.300,-0.303,-0.021509,1.399827,-4.921703,100152.22,-88,+41,+75
52100,12.068,-4.298,-0.647,-0.114629,1.465276,-4.995667,100156.93,-88,+41,+75
52110,12.884,-3.868,-0.509,-0.191785,1.551478,-5.101556,100157.13,-81,+55,+78
52120,13.432,-3.575,0.137,-0.128463,1.661625,-5.190951,100159.34,-72,+67,+82
52129,13.723,-3.539,0.939,0.014142,1.753680,-5.244694,100158.45,-62,+80,+86
52140,13.923,-3.690,1.508,0.140784,1.776028,-5.233520,100158.45,-62,+80,+86
52150,14.241,-4.241,1.436,0.272215,1.746230,-5.169134,100157.30,-52,+92,+88
52160,14.917,-4.683,1.285,0.388215,1.713239,-5.065373,100159.03,-41,+104,+90
52170,16.273,-5.362,1.115,0.487188,1.672267,-4.895630,100154.78,-29,+113,+93
52179,17.385,-6.071,0.648,0.501554,1.608946,-4.732272,100154.35,-29,+113,+93
52190,17.647,-7.059,0.388,0.430252,1.604689,-4.566786,100155.13,-16,+124,+94
52200,17.321,-9.365,0.311,0.292967,1.680248,-4.376823,100157.34,-5,+132,+96
52209,16.884,-11.860,-0.464,-0.083234,1.689826,-4.133116,100157.34,+7,+137,+98
52219,15.464,-13.027,-1.741,-0.632904,1.674927,-3.755851,100156.07,+7,+137,+98
52230,14.819,-13.324,-2.708,-1.144261,1.612138,-3.280677,100153.24,+19,+140,+102
52240,14.524,-14.601,-3.818,-1.485343,1.376414,-2.665026,100153.24,+28,+138,+105
52245,13.893,-15.892,-4.606,-1.520995,1.098652,-2.135576,100161.11,+28,+138,+105
52254,13.279,-16.863,-4.644,-1.281545,0.784708,-1.559302,100161.00,+34,+136,+108
52264,12.154,-16.902,-3.861,-0.837766,0.350506,-0.699412,100157.92,+37,+133,+110
52275,10.671,-15.670,-2.495,-0.311509,-0.012925,0.242422,100155.92,+35,+132,+110
52285,9.891,-14.007,-0.658,0.290839,-0.255035,1.058146,100155.92,+35,+132,+110
52295,9.669,-13.106,1.993,0.847958,-0.372631,1.607284,100160.01,+32,+132,+110
52304,9.410,-14.633,14.140,1.092196,-0.050705,1.964861,100160.59,+29,+134,+107
52315,20.025,-5.733,13.134,-0.215730,-0.103384,2.176641,100156.35,+23,+132,+108
52325,33.552,18.192,-11.235,-1.691270,-1.428869,2.184091,100160.43,+23,+132,+108
52335,26.982,5.695,-6.118,-0.232757,-1.057456,2.810384,100160.43,+15,+123,+109
52344,23.796,-8.825,-0.542,1.968581,-0.750961,3.714970,100161.42,+8,+124,+105
52355,12.097,-10.749,-0.788,2.047865,-0.708392,2.893393,100159.13,+1,+126,+102
52365,1.124,-2.571,1.259,0.933805,-0.495903,2.168127,100160.64,+1,+126,+102
52375,-1.795,-1.092,3.771,0.862325,-0.490227,2.566145,100157.92,-2,+126,+100
52384,5.504,-4.925,2.254,1.768508,-0.528007,2.913613,100157.92,-8,+126,+98
52395,14.681,-8.092,-1.782,2.044141,-0.730741,2.755044,100161.29,-15,+128,+94
52405,17.341,-9.453,-1.697,1.117738,-0.660503,2.513467,100161.98,-15,+128,+94
52415,15.130,-7.551,0.090,-0.096005,-0.424778,2.222934,100157.63,-19,+127,+93
52425,11.710,-4.736,-0.447,-0.822867,-0.398172,1.893559,100157.52,-24,+120,+93
52434,8.056,-1.892,0.420,-0.899491,-0.361457,1.634953,100157.52,-28,+115,+94
52445,6.341,0.140,1.096,-0.608959,-0.325273,1.505651,100161.08,-28,+115,+94
52455,7.173,-0.445,1.009,-0.130592,-0.290154,1.432220,100159.19,-30,+110,+95
52465,9.410,-1.514,1.255,0.267958,-0.207145,1.325798,100159.55,-33,+109,+93
52474,10.931,-2.039,1.273,0.313720,-0.137971,1.234275,100159.61,-35,+108,+93
52485,10.923,-1.885,1.604,0.173775,-0.096998,1.156054,100159.61,-35,+108,+93
52495,9.781,-2.238,1.764,0.002436,-0.084228,1.043779,100159.45,-37,+106,+93
52505,8.900,-2.629,1.556,-0.131124,-0.082631,0.955449,100160.39,-38,+104,+93
52514,8.983,-2.524,1.414,-0.292885,-0.089017,0.869247,100158.36,-40,+101,+93
52525,9.617,-2.022,1.040,-0.456243,-0.082099,0.806458,100158.09,-40,+101,+93
52535,9.931,-1.551,0.761,-0.531803,-0.044852,0.764954,100158.09,-41,+98,+94
52545,9.816,-1.251,0.932,-0.507326,0.008359,0.731963,100160.56,-42,+95,+94
52555,9.560,-0.998,1.338,-0.433894,0.045075,0.718128,100160.67,-42,+92,+95
52564,9.174,-1.109,1.660,-0.364720,0.050396,0.735688,100159.36,-42,+92,+95
52575,9.196,-1.529,1.890,-0.334390,0.032836,0.778257,100159.47,-42,+90,+95
52585,9.381,-1.852,1.930,-0.359399,0.005699,0.821890,100159.47,-44,+87,+96
52595,9.487,-1.557,2.212,-0.423252,-0.016650,0.874036,100162.56,-45,+84,+96
52600,9.397,-0.933,2.390,-0.474867,-0.041127,0.928312,100160.11,-45,+84,+96
52610,9.358,-0.524,2.456,-0.468482,-0.074118,0.983119,100160.11,-47,+80,+97
52620,9.477,-0.604,2.354,-0.354610,-0.116154,1.048568,100159.69,-48,+77,+97
52630,9.624,-1.043,2.086,-0.177418,-0.144356,1.094862,100157.06,-48,+77,+97
52640,9.695,-1.642,1.851,-0.036941,-0.170429,1.130513,100157.06,-49,+76,+98
52651,9.665,-2.051,1.631,0.019995,-0.195971,1.159247,100158.81,-51,+72,+96
52660,9.545,-2.105,1.785,-0.011931,-0.209806,1.194366,100156.34,-53,+70,+96
52670,9.522,-2.322,1.876,-0.075253,-0.239604,1.256623,100157.23,-53,+70,+96
52680,9.756,-2.487,1.588,-0.151876,-0.273659,1.326330,100157.23,-55,+67,+97
52689,10.032,-2.208,1.552,-0.232225,-0.283237,1.378476,100157.23,-57,+63,+96
52700,9.947,-2.298,1.643,-0.268940,-0.299200,1.429027,100163.09,-58,+60,+95
52710,9.806,-2.505,1.411,-0.262555,-0.308778,1.471596,100161.51,-58,+60,+95
52720,9.888,-2.818,1.502,-0.250317,-0.310374,1.503522,100161.55,-60,+55,+95
52729,10.000,-3.084,1.920,-0.235418,-0.311439,1.531724,100159.15,-62,+51,+94
52740,9.859,-3.763,2.100,-0.224243,-0.318356,1.551944,100159.15,-64,+47,+94
52750,9.505,-4.956,3.545,-0.313106,-0.272062,1.565779,100161.38,-64,+47,+94
52760,10.236,-4.715,2.853,-0.585546,-0.279512,1.579614,100159.67,-65,+41,+94
52770,10.600,-4.249,2.019,-0.711124,-0.334851,1.625907,100159.75,-67,+37,+94
52780,11.304,-3.884,1.606,-0.845215,-0.389659,1.672733,100159.75,-69,+30,+93
52790,12.249,-3.276,0.755,-0.864903,-0.457769,1.730201,100162.07,-69,+30,+93
52800,12.994,-2.524,-0.069,-0.749968,-0.531732,1.817999,100162.07,-71,+24,+93
52810,13.691,-2.724,-0.877,-0.577564,-0.592925,1.919100,100159.24,-73,+17,+92
52819,14.261,-2.811,-1.228,-0.424849,-0.638686,2.018072,100163.34,-75,+11,+91
52830,14.479,-3.242,-0.874,-0.375895,-0.690833,2.127687,100158.88,-75,+11,+91
52840,14.762,-3.178,-0.215,-0.370573,-0.758411,2.242623,100158.88,-77,+5,+89
52850,15.282,-2.848,0.661,-0.416335,-0.794594,2.357026,100162.53,-78,-1,+88
52860,15.932,-2.173,1.191,-0.491362,-0.797255,2.489522,100163.58,-81,-9,+86
52870,16.484,-1.638,2.385,-0.645674,-0.799383,2.640641,100161.44,-81,-9,+86
52880,16.875,-1.348,2.688,-0.884591,-0.829713,2.808255,100161.55,-82,-17,+84
52890,17.771,-1.028,3.380,-1.220353,-0.854723,2.933833,100161.23,-83,-27,+82
52900,19.787,0.189,4.184,-1.580591,-0.937200,2.982787,100159.83,-85,-39,+79
52911,22.168,3.312,4.496,-1.947215,-1.010099,2.823154,100161.23,-85,-39,+79
52920,23.291,5.542,3.752,-2.174958,-1.059053,2.507081,100161.23,-85,-51,+76
52930,23.382,2.515,2.868,-1.924334,-1.200062,2.726843,100159.19,-87,-63,+73
52940,21.593,-1.928,3.259,-1.233123,-1.316062,3.237136,100159.19,-86,-75,+68
52951,19.056,-0.379,5.045,-0.661637,-1.306484,3.272787,100156.80,-85,-75,+66
52960,16.335,-0.406,6.302,-0.366849,-1.253273,3.231282,100156.44,-85,-84,+66
52970,15.065,-2.529,6.331,-0.110372,-1.229328,3.160512,100157.95,-84,-92,+63
52980,14.315,-1.253,6.119,-0.088023,-1.183034,2.896585,100158.31,-83,-98,+60
52990,12.788,2.370,6.114,-0.018317,-1.030851,2.448017,100158.31,-82,-103,+58
53000,8.438,5.682,3.663,0.386619,-0.969658,1.748293,100158.55,-82,-103,+58
53010,2.122,-3.958,1.604,0.539866,-1.004778,1.127321,100157.22,-83,-104,+58
53020,5.824,-13.720,-1.135,0.270087,-0.908466,1.366770,100157.91,-82,-107,+56
53030,8.219,-3.671,1.614,-0.801582,-0.522154,0.592018,100157.91,-82,-110,+54
53040,6.016,1.529,3.234,-1.190022,-0.336448,-0.113559,100157.91,-82,-110,+54
53050,2.413,4.306,2.792,-0.810628,-0.215659,-0.636623,100157.55,-83,-110,+52
53060,1.376,3.893,1.624,-0.359399,-0.108705,-0.920238,100160.69,-85,-110,+51
53070,1.761,1.919,0.192,0.126949,-0.008136,-1.185760,100155.67,-87,-105,+52
53080,2.702,0.113,-0.166,0.391408,0.116910,-1.507155,100153.83,-87,-105,+52
53090,3.238,-0.762,-0.084,0.313188,0.214286,-1.883356,100153.83,-89,-100,+53
53100,3.361,-0.660,0.005,0.046069,0.290910,-2.223375,100158.37,-91,-94,+54
53110,3.397,-0.336,-0.478,-0.125271,0.349442,-2.509650,100155.29,-94,-87,+54
53121,3.766,0.161,-1.503,-0.071528,0.413295,-2.750163,100154.48,-94,-87,+54
53130,4.299,0.159,-2.210,0.197720,0.510671,-2.969392,100154.48,-95,-78,+56
53140,4.985,0.033,-2.129,0.565940,0.609111,-3.196603,100155.76,-97,-69,+58
53150,5.568,-0.302,-1.560,0.919793,0.681478,-3.448291,100155.76,-99,-57,+59
53160,5.911,-1.048,-0.750,1.146472,0.741075,-3.701576,100156.18,-99,-57,+59
53170,6.064,-1.678,0.248,1.232673,0.799607,-3.938364,100157.54,-98,-42,+63
53180,6.320,-1.760,0.977,1.166160,0.838983,-4.130456,100154.71,-98,-27,+64
53191,6.796,-1.736,1.681,1.070025,0.898224,-4.288847,100154.99,-97,-13,+67
53200,7.528,-2.003,1.704,0.974068,0.950726,-4.393318,100154.99,-97,-13,+67
53211,8.566,-2.780,1.174,0.892655,1.026818,-4.483777,100152.05,-94,+1,+69
53220,9.663,-3.503,0.743,0.745261,1.111423,-4.568914,100151.74,-91,+15,+71
53230,10.514,-4.212,0.827,0.479206,1.180597,-4.621061,100154.41,-87,+29,+74
53240,11.196,-5.213,1.304,0.198252,1.231148,-4.655116,100154.94,-87,+29,+74
53251,11.727,-5.982,1.726,-0.017785,1.293937,-4.746639,100159.70,-80,+42,+76
53260,11.950,-5.885,2.062,-0.136977,1.392909,-4.889777,100156.61,-73,+53,+79
53270,12.158,-5.422,2.044,-0.130060,1.515294,-4.996199,100156.61,-65,+65,+82
53280,12.512,-5.104,1.815,-0.015656,1.641936,-5.036639,100156.50,-65,+65,+82
53291,12.956,-4.622,1.414,0.153023,1.757936,-5.036639,100156.50,-55,+76,+84
53300,13.326,-4.006,1.181,0.340325,1.859037,-4.994070,100157.20,-43,+88,+88
53310,13.907,-4.238,1.303,0.553701,1.924487,-4.908401,100156.31,-31,+100,+90
53320,14.961,-5.124,1.295,0.689921,1.926615,-4.823795,100154.64,-31,+100,+90
53330,16.382,-6.054,1.259,0.667041,1.900542,-4.765263,100156.16,-18,+109,+92
53341,17.789,-7.343,1.055,0.460050,1.835624,-4.710455,100156.16,-5,+118,+94
53350,18.309,-9.144,0.526,0.098747,1.759533,-4.623189,100158.33,+7,+124,+96
53360,17.868,-11.560,0.361,-0.351950,1.697276,-4.436951,100159.38,+7,+124,+96
53370,16.575,-13.643,0.788,-0.842555,1.634487,-4.129392,100155.97,+19,+128,+98
53381,15.184,-14.047,1.377,-1.246958,1.614267,-3.762768,100155.97,+32,+128,+102
53390,14.225,-13.698,1.071,-1.501307,1.605753,-3.311539,100155.97,+42,+126,+106
53400,13.733,-13.160,-0.202,-1.586976,1.567973,-2.782622,100160.17,+42,+126,+106
53410,13.782,-13.815,-1.759,-1.619967,1.418982,-2.174953,100160.13,+51,+123,+110
53421,13.830,-15.297,-3.203,-1.690206,1.140157,-1.504494,100161.95,+58,+118,+113
53426,13.154,-15.930,-3.835,-1.813655,0.878359,-1.021339,100159.75,+58,+118,+113
53435,12.340,-15.011,-4.037,-1.874316,0.605919,-0.518495,100159.75,+61,+112,+115
53445,11.573,-12.751,-3.743,-1.698719,0.282396,0.177505,100164.20,+63,+105,+117
53455,11.178,-10.895,-3.519,-1.134683,0.026983,0.842642,100159.66,+62,+101,+119
53466,10.789,-9.687,-4.093,-0.307252,-0.174154,1.387522,100161.48,+62,+101,+119
53475,9.944,-8.459,-5.157,0.591481,-0.339108,1.773834,100161.17,+59,+100,+118
53485,9.378,-4.819,-2.713,1.418380,-0.419989,2.013815,100161.17,+57,+102,+116
53495,7.801,2.097,13.152,2.053186,0.046139,2.024990,100162.52,+54,+109,+114
53506,13.416,25.803,17.715,1.462013,0.703827,0.866587,100157.07,+54,+109,+114
53515,24.017,33.141,-7.413,0.289243,-0.598778,0.713871,100158.54,+56,+111,+115
53525,22.392,-11.576,-10.362,2.637443,-1.082466,3.007264,100162.46,+48,+114,+111
53535,28.900,-23.939,-2.269,4.662653,-0.343897,2.733760,100162.46,+44,+127,+105
53545,17.015,-11.673,-5.727,0.527273,-0.373873,1.888592,100162.80,+44,+127,+105
53555,7.631,-2.411,-3.111,-1.838664,-0.397108,1.963797,100164.05,+41,+124,+106
53565,3.243,1.456,4.299,-1.673178,-0.348154,2.400127,100161.96,+37,+114,+109
53575,5.702,-0.047,7.966,-0.603105,-0.228429,2.347448,100160.20,+32,+110,+110
53585,11.012,-3.269,5.802,0.037023,-0.490759,2.494311,100160.20,+32,+110,+110
53596,11.838,-4.947,3.952,0.091830,-0.724888,2.349045,100160.33,+26,+107,+109
53605,10.229,-5.162,3.209,-0.130592,-0.695622,1.899412,100159.55,+21,+106,+108
53615,9.457,-2.379,1.967,-0.211473,-0.655181,1.647724,100159.34,+17,+102,+107
53625,9.263,-0.204,0.566,0.061500,-0.581218,1.465742,100160.80,+17,+102,+107
53636,9.027,-0.059,0.143,0.416417,-0.483310,1.415724,100160.80,+14,+102,+106
53645,9.358,-0.763,0.173,0.586160,-0.370503,1.405082,100163.55,+12,+102,+105
53655,10.198,-1.473,0.494,0.614362,-0.256099,1.342293,100160.67,+9,+102,+105
53665,10.198,-1.946,1.216,0.486123,-0.166705,1.282165,100162.45,+9,+102,+105
53676,9.556,-1.740,2.134,0.261041,-0.119879,1.227357,100159.05,+7,+101,+105
53685,8.929,-1.927,2.468,0.079591,-0.136907,1.168825,100159.05,+5,+100,+104
53695,9.172,-2.708,1.977,-0.060353,-0.203420,1.116146,100161.11,+3,+98,+104
53705,9.784,-2.547,1.368,-0.276390,-0.224173,1.057614,100160.89,+2,+96,+104
53715,10.078,-2.047,1.169,-0.471674,-0.178943,0.948532,100159.59,+2,+96,+104
53726,10.083,-1.772,1.138,-0.583949,-0.114026,0.879358,100159.28,+0,+92,+105
53735,9.731,-1.492,1.138,-0.664830,-0.059218,0.843706,100159.28,+0,+90,+105
53745,9.437,-1.254,1.478,-0.719105,-0.030485,0.852752,100160.63,-1,+86,+107
53755,9.560,-0.988,2.286,-0.686114,-0.032081,0.891064,100162.15,-1,+86,+107
53766,9.803,-0.878,2.980,-0.625986,-0.064007,0.914477,100163.82,-2,+82,+107
53775,9.559,-1.053,3.260,-0.583949,-0.106576,0.930440,100161.48,-3,+79,+108
53781,9.352,-1.316,3.240,-0.558940,-0.139035,0.943211,100161.48,-3,+79,+108
53790,9.353,-1.470,3.059,-0.533399,-0.173090,0.953321,100161.48,-5,+76,+108
53800,9.609,-1.538,2.638,-0.517436,-0.210338,0.966623,100162.53,-7,+72,+108
53811,9.808,-1.669,2.172,-0.487105,-0.231622,0.976201,100161.53,-7,+72,+108
53821,9.915,-2.056,1.674,-0.415271,-0.253439,0.978330,100160.02,-8,+69,+108
53830,9.908,-2.105,1.598,-0.355142,-0.259292,0.973541,100157.20,-10,+67,+108
53840,9.777,-2.075,1.812,-0.368445,-0.259824,0.977266,100161.14,-12,+64,+108
53851,9.730,-2.097,1.999,-0.374298,-0.266741,0.993229,100160.72,-12,+64,+108
53860,9.755,-2.225,2.185,-0.387601,-0.270998,1.002275,100160.72,-14,+61,+108
53870,9.650,-2.410,2.401,-0.441344,-0.260888,1.003339,100158.56,-15,+59,+108
53880,9.343,-2.749,2.950,-0.510518,-0.240136,1.009724,100159.67,-16,+55,+108
53891,9.396,-2.869,2.629,-0.596188,-0.238539,1.016110,100159.67,-16,+55,+108
53901,9.483,-3.144,2.181,-0.652059,-0.248117,1.016642,100160.20,-17,+51,+109
53910,9.614,-3.240,1.758,-0.689307,-0.263549,1.025688,100157.21,-19,+47,+108
53920,9.547,-2.941,1.559,-0.707399,-0.276851,1.043247,100161.24,-21,+43,+108
53931,9.444,-2.528,1.551,-0.664830,-0.291750,1.084752,100160.71,-22,+39,+109
53941,9.676,-2.188,1.891,-0.552555,-0.315163,1.143284,100162.21,-22,+39,+109
53951,9.943,-2.219,2.269,-0.440280,-0.344429,1.209798,100160.48,-23,+35,+108
53960,10.138,-2.401,2.637,-0.374298,-0.375824,1.282697,100158.65,-25,+31,+108
53970,10.224,-2.668,2.773,-0.366849,-0.421053,1.361981,100160.79,-28,+29,+107
53981,10.404,-3.078,2.613,-0.405693,-0.487567,1.436476,100160.79,-28,+29,+107
53990,10.717,-3.254,2.388,-0.455179,-0.558870,1.517357,100160.79,-28,+25,+107
54000,11.293,-3.295,2.257,-0.542445,-0.626447,1.597706,100162.16,-32,+21,+106
54010,12.187,-3.160,1.862,-0.651527,-0.687640,1.696678,100159.48,-33,+15,+105
54021,13.066,-2.919,1.164,-0.725491,-0.744044,1.808953,100158.75,-33,+15,+105
54031,13.806,-2.640,0.436,-0.761674,-0.787677,1.927614,100160.95,-35,+9,+104
54040,14.490,-2.126,0.011,-0.778170,-0.829713,2.058513,100160.95,-39,+3,+103
54050,14.953,-1.772,-0.260,-0.741986,-0.870154,2.204311,100161.66,-41,-3,+102
54061,15.210,-1.591,-0.286,-0.673344,-0.913255,2.334146,100159.72,-41,-3,+102
54071,15.327,-1.790,-0.127,-0.658445,-0.987750,2.445889,100158.89,-42,-10,+100
54081,15.573,-1.685,0.473,-0.748371,-1.053732,2.546989,100158.89,-46,-17,+98
54090,16.027,-1.687,1.171,-0.943124,-1.128759,2.631063,100161.03,-48,-27,+96
54100,16.811,-1.595,2.080,-1.271967,-1.199530,2.699705,100161.03,-48,-27,+96
54111,18.074,0.140,2.973,-1.716279,-1.289988,2.708219,100161.45,-51,-37,+94
54121,19.486,3.038,3.872,-2.090884,-1.414502,2.622017,100161.98,-53,-47,+90
54130,20.013,6.919,4.376,-2.178150,-1.520924,2.392145,100160.25,-55,-60,+86
54140,20.112,6.163,3.922,-1.660407,-1.603933,2.417155,100160.25,-55,-60,+86
54151,19.780,-0.933,3.248,-0.742518,-1.660869,3.018439,100160.89,-56,-70,+83
54161,18.527,-3.776,4.146,-0.258830,-1.593291,3.302053,100160.73,-57,-77,+80
54171,17.722,-3.485,5.903,-0.226904,-1.455474,3.239264,100160.38,-56,-86,+77
54180,16.933,-3.732,6.582,-0.406225,-1.402264,3.135503,100159.52,-56,-86,+77
54191,15.430,-2.374,6.697,-0.548298,-1.319254,3.005136,100163.15,-55,-94,+74
54201,14.516,-0.375,6.921,-0.532335,-1.152704,2.886476,100156.91,-54,-102,+72
54210,11.992,1.920,7.170,-0.292885,-0.970723,2.490054,100156.91,-52,-108,+70
54220,8.716,3.749,2.803,-0.022574,-1.057989,1.653045,100156.13,-52,-108,+70
54231,3.300,-7.426,2.707,0.075867,-0.959548,1.353999,100159.43,-52,-111,+68
54241,6.061,-12.151,3.228,-0.171564,-0.820668,1.256623,100159.43,-51,-115,+68
54251,8.152,-4.105,1.576,-0.953766,-0.748833,0.580312,100157.91,-52,-119,+65
54260,6.556,0.464,1.525,-1.381582,-0.640282,-0.011926,100159.00,-52,-119,+65
54270,3.333,2.478,1.174,-1.256536,-0.522154,-0.334917,100158.84,-53,-123,+63
54281,2.128,4.684,-0.446,-0.736133,-0.400833,-0.616403,100160.47,-55,-125,+61
54291,2.284,4.776,0.232,0.329151,-0.117218,-0.929816,100160.47,-57,-122,+62
54301,3.609,4.449,0.404,1.334306,-0.002815,-1.231522,100157.42,-57,-122,+62
54310,4.176,2.474,0.545,1.941976,0.058378,-1.556641,100158.30,-58,-116,+64
54321,4.115,-0.859,0.196,2.224526,0.162671,-1.801412,100156.56,-60,-108,+68
54331,3.884,-2.571,-0.195,2.284654,0.306873,-2.112164,100156.56,-62,-98,+72
54340,4.229,-2.445,0.058,2.190471,0.396800,-2.412273,100156.56,-62,-98,+72
54350,4.860,-1.425,0.144,2.072342,0.429790,-2.719833,100157.81,-64,-87,+76
54361,5.553,-1.320,0.099,2.052122,0.456928,-2.978438,100154.50,-66,-75,+80
54371,5.834,-2.915,-0.043,2.038110,0.479631,-3.185606,100154.88,-67,-64,+83
54380,6.275,-4.298,0.025,1.862159,0.498433,-3.334420,100154.88,-67,-64,+83
54390,6.929,-4.449,0.412,1.493939,0.535148,-3.508420,100154.88,-69,-52,+86
54401,7.193,-3.836,1.021,1.103371,0.592084,-3.701043,100153.30,-69,-40,+88
54411,6.944,-3.592,1.390,0.827206,0.641038,-3.894199,100153.56,-69,-29,+90
54421,6.999,-3.720,1.484,0.654802,0.687331,-4.071924,100151.16,-69,-19,+92
54430,7.460,-4.118,1.575,0.481866,0.743735,-4.231025,100151.16,-69,-19,+92
54440,8.061,-4.434,1.638,0.297224,0.808653,-4.393850,100159.05,-68,-8,+94
54451,8.637,-4.344,1.558,0.143977,0.866652,-4.548162,100159.05,-66,+0,+96
54461,9.001,-3.790,1.291,0.087041,0.944873,-4.663098,100157.63,-63,+11,+98
54470,9.428,-3.520,1.189,0.121628,1.046506,-4.725887,100158.36,-63,+11,+98
54480,9.960,-3.857,1.329,0.240289,1.156120,-4.741850,100156.38,-59,+22,+101
54491,10.495,-4.613,1.788,0.325958,1.264671,-4.761006,100156.38,-54,+33,+103
54501,10.980,-5.143,2.234,0.330747,1.373221,-4.812621,100156.55,-48,+43,+106
54511,11.547,-5.429,2.499,0.316380,1.491349,-4.875410,100157.96,-48,+43,+106
54520,12.193,-5.708,2.608,0.347775,1.612670,-4.932878,100156.40,-40,+53,+108
54531,12.901,-5.852,2.300,0.373848,1.715900,-4.997262,100153.72,-31,+63,+111
54541,13.644,-6.064,1.802,0.311059,1.794652,-5.023868,100155.66,-21,+73,+113
54551,14.440,-6.519,1.303,0.147169,1.843074,-4.990877,100155.30,-21,+73,+113
54561,15.378,-7.260,1.017,-0.135913,1.857441,-4.906804,100157.50,-10,+81,+116
54571,16.176,-7.962,0.877,-0.492959,1.854780,-4.805171,100157.50,+0,+86,+119
54581,16.754,-8.396,0.746,-0.856390,1.840945,-4.671611,100154.72,+10,+90,+122
54591,16.602,-9.056,0.130,-1.171399,1.817001,-4.469942,100154.72,+10,+90,+122
54601,16.005,-9.419,-0.767,-1.407655,1.804762,-4.175153,100157.52,+21,+89,+126
54610,15.555,-9.916,-1.639,-1.495453,1.787735,-3.767557,100157.94,+31,+88,+128
54621,14.997,-11.345,-2.662,-1.432132,1.720689,-3.305686,100157.94,+40,+86,+132
54631,14.403,-13.780,-3.828,-1.350188,1.598303,-2.798585,100155.53,+40,+86,+132
54641,13.775,-15.547,-5.154,-1.318793,1.394505,-2.219650,100155.53,+48,+83,+134
54650,12.790,-15.077,-6.243,-1.251215,1.092267,-1.610916,100162.15,+53,+80,+135
54661,12.129,-14.011,-6.600,-0.898426,0.684671,-0.871816,100161.82,+56,+77,+137
54671,11.306,-14.706,-6.065,-0.205619,0.269625,0.023193,100159.26,+56,+77,+137
54681,10.446,-15.550,-5.631,0.517518,-0.043787,0.897981,100159.26,+55,+77,+136
54690,9.891,-13.639,-2.512,0.960765,-0.216191,1.573761,100159.26,+53,+80,+137
54701,8.828,-11.511,13.470,1.099114,0.036029,2.047870,100161.59,+51,+82,+135
54711,17.863,12.418,16.771,-0.131124,0.288781,1.572164,100159.28,+51,+82,+135
54721,30.561,32.818,-9.980,-1.801417,-1.075548,0.957578,100155.98,+50,+78,+136
54730,28.039,-5.590,-7.716,0.188142,-1.288392,3.240329,100161.95,+42,+72,+137
54740,30.741,-18.602,-0.866,2.765681,-0.768521,3.705392,100161.95,+37,+79,+133
54751,15.169,-11.385,-2.038,0.882013,-0.699347,2.516659,100161.26,+37,+79,+133
54761,2.826,0.334,1.973,-0.720170,-0.632301,2.123430,100161.41,+33,+78,+133
54771,-2.825,2.831,7.041,-0.202427,-0.644007,2.750255,100159.59,+28,+73,+132
54780,3.877,-2.791,4.933,1.198618,-0.736594,2.921595,100159.59,+23,+74,+131
54791,12.182,-7.997,1.146,1.593976,-1.010631,2.876365,100162.72,+23,+74,+131
54801,14.852,-9.659,0.348,0.602123,-0.999989,2.600200,100162.72,+17,+76,+129
54811,13.738,-6.770,0.512,-0.532335,-0.824924,2.215485,100159.94,+12,+72,+128
54820,10.898,-3.278,-0.652,-0.963344,-0.714246,1.831302,100161.52,+8,+66,+129
54831,8.998,-0.916,-0.272,-0.681858,-0.570576,1.570036,100159.53,+8,+66,+129
54841,7.943,-0.254,0.391,-0.250317,-0.457769,1.499265,100159.53,+5,+62,+128
54851,7.946,-1.204,0.294,0.035958,-0.383273,1.429027,100162.84,+3,+59,+128
54861,9.573,-2.021,0.345,0.148234,-0.302393,1.379009,100162.27,+1,+59,+127
54871,10.641,-2.948,1.034,0.071078,-0.226833,1.286421,100161.95,+1,+59,+127
54881,10.441,-3.573,1.407,-0.161986,-0.164576,1.141688,100161.42,-1,+57,+128
54891,9.586,-3.164,1.705,-0.452518,-0.114558,0.978330,100161.04,-1,+55,+127
54901,9.047,-2.601,1.910,-0.666426,-0.087952,0.845302,100160.04,-1,+51,+128
54910,9.301,-1.796,1.952,-0.710059,-0.072521,0.762825,100159.41,-2,+47,+128
54921,9.518,-1.182,1.933,-0.586610,-0.061879,0.698972,100159.41,-2,+47,+128
54931,9.532,-1.135,1.875,-0.362592,-0.056558,0.648954,100160.37,-3,+45,+128
54941,9.453,-1.515,1.766,-0.151344,-0.056026,0.614899,100160.37,-4,+43,+128
54950,9.282,-1.919,1.768,-0.063014,-0.048044,0.588826,100158.71,-5,+41,+128
54961,9.338,-2.047,1.951,-0.133785,-0.035806,0.580312,100160.27,-5,+41,+128
54971,9.590,-1.960,2.086,-0.286500,-0.032081,0.596807,100160.34,-4,+40,+128
54981,9.617,-1.506,2.098,-0.393986,-0.028888,0.619156,100159.07,-5,+38,+129
54991,9.528,-1.121,2.216,-0.386537,-0.034209,0.642569,100159.07,-6,+37,+129
55001,9.398,-1.145,2.251,-0.288629,-0.049641,0.675027,100159.84,-6,+37,+129
55011,9.237,-1.357,2.210,-0.170500,-0.073053,0.704293,100160.48,-6,+34,+130
55021,9.148,-1.601,2.152,-0.096537,-0.098063,0.724514,100158.70,-7,+33,+128
55031,9.104,-1.808,2.149,-0.074188,-0.120411,0.743670,100158.70,-7,+31,+128
55041,9.093,-1.942,2.172,-0.071528,-0.140099,0.766550,100158.70,-7,+31,+128
55051,9.042,-1.752,2.330,-0.058757,-0.161916,0.793688,100162.94,-8,+29,+129
55061,9.040,-1.494,2.348,-0.046519,-0.190650,0.845302,100160.22,-8,+28,+128
55071,9.422,-1.608,2.398,-0.015124,-0.229494,0.922458,100160.28,-9,+27,+128
55080,9.991,-2.347,2.006,0.065224,-0.268338,0.995357,100156.56,-9,+27,+128
55091,10.237,-2.411,1.576,0.096619,-0.267806,1.036330,100156.56,-11,+25,+128
55101,9.938,-2.368,1.404,0.024252,-0.256631,1.067724,100160.09,-11,+25,+127
55111,9.585,-2.140,1.623,-0.072060,-0.242796,1.114550,100161.83,-13,+21,+127
55121,9.492,-2.269,1.887,-0.126335,-0.245457,1.183192,100157.83,-13,+21,+127
55131,9.530,-2.686,2.042,-0.143895,-0.251310,1.230550,100157.83,-14,+19,+127
55141,9.541,-2.905,2.238,-0.152408,-0.249182,1.265137,100163.41,-15,+17,+127
55151,9.562,-3.285,2.289,-0.174757,-0.249182,1.299192,100160.48,-16,+15,+127
55160,9.763,-3.671,2.161,-0.246592,-0.251842,1.326862,100160.48,-16,+15,+127
55171,10.017,-3.725,2.252,-0.368445,-0.253439,1.340165,100159.80,-17,+12,+126
55181,10.199,-3.668,2.257,-0.505197,-0.270998,1.363577,100159.70,-18,+7,+125
55191,10.273,-3.482,2.178,-0.613215,-0.296007,1.398165,100159.70,-19,+3,+126
55201,10.320,-3.418,2.192,-0.686114,-0.326338,1.447119,100162.02,-19,+3,+126
55212,10.609,-3.653,2.137,-0.712188,-0.374760,1.501394,100161.45,-21,-1,+125
55221,11.145,-3.869,1.796,-0.729215,-0.427971,1.554605,100159.99,-21,-5,+125
55231,11.566,-3.982,1.277,-0.778170,-0.477989,1.601962,100160.40,-23,-11,+123
55241,11.645,-3.999,0.647,-0.832977,-0.516833,1.655173,100161.89,-23,-11,+123
55251,11.707,-3.764,0.142,-0.873417,-0.554613,1.723284,100163.73,-23,-17,+123
55261,12.094,-3.343,0.063,-0.846280,-0.617402,1.817999,100158.86,-25,-22,+122
55271,12.821,-3.096,0.441,-0.765399,-0.692961,1.944641,100158.86,-26,-29,+120
55281,13.643,-3.427,1.013,-0.708995,-0.767457,2.072880,100158.28,-26,-29,+120
55291,14.267,-4.111,1.435,-0.744647,-0.828117,2.183558,100158.28,-28,-35,+119
55301,14.970,-4.376,1.687,-0.921307,-0.858447,2.274549,100161.16,-30,-41,+118
55311,15.660,-4.153,1.881,-1.234188,-0.873879,2.345852,100161.70,-31,-50,+116
55321,16.259,-3.397,1.862,-1.615710,-0.873879,2.418219,100159.38,-31,-50,+116
55331,16.685,-2.419,1.843,-1.996701,-0.864301,2.465044,100159.07,-32,-60,+113
55341,17.955,-0.646,1.693,-2.318627,-0.921768,2.533687,100159.07,-33,-72,+110
55351,20.007,2.164,1.949,-2.542645,-1.053732,2.608714,100163.47,-33,-84,+105
55361,21.950,5.856,2.453,-2.620866,-1.223475,2.565081,100161.13,-33,-84,+105
55371,22.514,8.691,2.780,-2.338848,-1.373530,2.439503,100156.25,-33,-96,+100
55382,22.105,5.336,2.130,-1.492793,-1.492722,2.688531,100156.25,-35,-108,+95
55391,20.632,-1.941,1.999,-0.538188,-1.572006,3.233943,100156.25,-34,-114,+92
55401,18.930,-3.421,4.122,-0.161986,-1.537951,3.295136,100159.30,-33,-120,+89
55411,17.609,-2.963,6.267,-0.170500,-1.488997,3.187649,100157.95,-33,-120,+89
55421,16.103,-3.427,5.830,-0.201895,-1.508153,3.115815,100158.95,-33,-126,+86
55432,14.486,-3.571,4.962,-0.131124,-1.361114,2.988641,100158.01,-30,-132,+84
