140007,9.499,-1.913,2.045,-0.001180,-0.000530,-0.004936,100036.72,-80,-200,-6
140016,9.512,-1.868,2.080,-0.003308,0.000002,-0.004404,100036.72,-79,-200,-6
140026,9.514,-1.816,2.085,-0.001712,-0.000530,-0.003340,100041.56,-80,-200,-6
140037,9.538,-1.798,2.120,0.004142,-0.001594,-0.002275,100041.56,-80,-200,-6
140047,9.530,-1.846,2.076,0.009995,-0.002658,0.000385,100043.25,-81,-200,-6
140056,9.538,-1.855,2.074,0.013720,-0.002126,0.000917,100040.41,-80,-200,-6
140066,9.518,-1.831,2.054,0.016380,-0.002658,0.000917,100041.30,-80,-200,-6
140077,9.511,-1.840,2.085,0.016735,-0.001949,0.000740,100041.84,-80,-200,-6
140087,9.516,-1.863,2.084,0.016380,-0.002658,0.000917,100041.84,-80,-200,-6
140097,9.510,-1.821,2.076,0.017976,-0.004787,0.001449,100040.53,-80,-200,-6
140106,9.549,-1.806,2.069,0.019041,-0.005851,0.001981,100042.31,-79,-200,-6
140116,9.540,-1.858,2.039,0.019041,-0.005851,0.004110,100039.22,-79,-200,-6
140127,9.535,-1.866,2.063,0.016380,-0.004255,0.005706,100040.80,-80,-200,-6
140137,9.519,-1.801,2.091,0.012123,-0.003190,0.006770,100040.76,-80,-200,-6
140146,9.543,-1.858,2.061,0.012123,-0.003723,0.008899,100037.76,-80,-200,-6
140156,9.543,-1.848,2.091,0.011059,-0.003190,0.007835,100037.76,-80,-200,-6
140167,9.499,-1.818,2.068,0.013720,-0.003723,0.008899,100038.76,-80,-200,-6
140176,9.492,-1.843,2.099,0.014784,-0.003723,0.007303,100038.76,-80,-200,-5
140186,9.501,-1.843,2.088,0.018509,-0.004255,0.006770,100039.92,-81,-200,-6
140196,9.535,-1.863,2.037,0.023298,-0.005319,0.008367,100043.39,-81,-200,-6
140207,9.526,-1.877,2.060,0.022765,-0.005851,0.006770,100038.92,-79,-200,-6
140217,9.530,-1.891,2.076,0.020105,-0.006383,0.007303,100036.98,-79,-200,-5
140226,9.573,-1.873,2.076,0.018509,-0.004255,0.008899,100036.98,-80,-200,-5
140236,9.560,-1.901,2.063,0.012655,-0.002658,0.007835,100042.05,-80,-200,-5
140247,9.534,-1.819,2.042,0.003609,-0.002658,0.006770,100039.97,-80,-200,-5
140257,9.483,-1.810,2.069,0.004674,-0.002126,0.011027,100040.45,-80,-200,-6
140267,9.534,-1.802,2.088,0.012655,-0.004255,0.015816,100040.45,-79,-200,-5
140276,9.587,-1.813,2.091,0.023830,-0.007447,0.020073,100040.45,-79,-200,-5
140286,9.577,-1.837,2.114,0.028087,-0.007979,0.022734,100040.45,-79,-201,-5
140297,9.599,-1.873,2.081,0.023298,-0.011172,0.022734,100041.39,-79,-200,-6
140307,9.536,-1.897,2.029,0.013720,-0.011704,0.021137,100040.72,-80,-200,-5
140316,9.482,-1.869,1.981,0.003077,-0.007447,0.020605,100039.72,-80,-200,-5
140326,9.477,-1.842,2.013,-0.002776,-0.006915,0.020605,100039.72,-79,-201,-5
140337,9.497,-1.844,2.021,0.000949,-0.004787,0.023266,100041.15,-79,-200,-5
140347,9.500,-1.840,2.036,0.007334,-0.001594,0.025926,100040.68,-79,-200,-5
140357,9.461,-1.886,2.005,0.011591,0.001599,0.026991,100038.57,-79,-200,-5
140366,9.495,-1.851,2.020,0.007866,0.006920,0.028055,100038.57,-79,-201,-6
140377,9.546,-1.855,2.030,0.004142,0.006388,0.033376,100041.65,-79,-200,-6
140387,9.538,-1.845,2.043,0.003609,0.012241,0.029651,100041.65,-79,-200,-6
140396,9.526,-1.852,2.068,0.006802,0.011177,0.033376,100042.01,-79,-200,-6
140406,9.517,-1.863,2.031,0.014252,0.014369,0.035504,100040.23,-79,-201,-5
140417,9.505,-1.947,1.990,0.012123,0.018626,0.032844,100041.23,-79,-201,-5
140427,9.465,-1.940,1.982,0.005738,0.022883,0.031247,100041.23,-79,-200,-5
140437,9.456,-1.888,1.978,-0.004904,0.030332,0.029651,100039.82,-79,-201,-5
140446,9.461,-1.911,1.970,-0.002244,0.036186,0.031247,100042.13,-79,-201,-5
140456,9.423,-1.868,1.971,0.004674,0.041507,0.028587,100037.35,-79,-201,-5
140467,9.574,-1.833,2.026,0.015316,0.042571,0.033908,100038.41,-78,-202,-5
140477,9.556,-1.888,2.056,0.031811,0.042571,0.034972,100042.65,-77,-201,-5
140487,9.462,-1.942,2.055,0.046178,0.050021,0.029651,100040.80,-77,-201,-5
140496,9.470,-2.070,2.057,0.041921,0.051617,0.028055,100039.29,-79,-201,-5
140507,9.463,-2.055,2.086,0.027022,0.050553,0.021137,100039.29,-78,-200,-5
140517,9.444,-2.027,2.074,0.015316,0.052149,0.013688,100040.34,-79,-202,-5
140526,9.492,-2.021,1.968,0.009463,0.055874,0.007303,100040.34,-79,-202,-5
140536,9.517,-2.030,1.965,0.000949,0.056938,-0.003340,100041.14,-78,-201,-5
140548,9.470,-2.092,1.911,-0.021932,0.072192,-0.016642,100040.33,-79,-201,-4
140557,9.445,-2.077,1.751,-0.051730,0.086204,-0.023560,100040.33,-79,-201,-4
140567,9.458,-2.180,1.642,-0.082060,0.101103,-0.035798,100041.61,-79,-201,-4
140576,9.412,-1.991,1.725,-0.104941,0.120791,-0.046973,100041.61,-78,-201,-4
140587,9.146,-1.857,1.745,-0.082592,0.141011,-0.053890,100041.39,-79,-200,-5
140597,9.052,-1.917,1.867,-0.033106,0.158571,-0.055486,100038.77,-79,-202,-4
140607,9.145,-1.868,2.161,0.020637,0.160167,-0.054422,100040.23,-79,-202,-4
140617,9.122,-1.887,2.287,0.073848,0.161764,-0.057083,100040.23,-79,-201,-3
140626,9.372,-2.064,2.302,0.110031,0.162828,-0.056551,100040.23,-80,-200,-3
140637,9.682,-1.949,2.650,0.115353,0.150589,-0.065064,100041.06,-81,-200,-2
140647,9.567,-1.663,2.765,0.128655,0.126644,-0.075707,100041.33,-81,-200,-2
140657,9.403,-1.508,2.746,0.177609,0.111213,-0.071982,100040.06,-80,-200,-2
140662,9.388,-1.515,2.758,0.222839,0.099507,-0.060275,100037.28,-81,-200,-1
140672,9.483,-1.608,2.747,0.245187,0.090993,-0.046973,100037.28,-81,-200,-1
140682,9.558,-1.886,2.518,0.240398,0.083011,-0.041119,100042.82,-81,-200,+0
140692,9.535,-2.092,2.194,0.196233,0.090993,-0.044312,100042.77,-81,-200,+0
140701,9.596,-2.245,2.226,0.118013,0.102167,-0.046441,100040.35,-81,-201,+0
140711,9.821,-2.125,2.355,0.021169,0.106956,-0.059743,100041.51,-81,-201,+0
140722,9.838,-1.918,2.396,-0.035235,0.106956,-0.085817,100041.51,-81,-200,+0
140732,9.686,-1.685,2.519,-0.035235,0.102699,-0.092734,100040.72,-83,-200,+1
140742,9.713,-1.584,2.898,0.003609,0.084076,-0.090606,100038.31,-82,-200,+0
140751,9.724,-1.660,2.996,0.049371,0.055342,-0.091670,100040.14,-82,-200,+0
140762,9.637,-1.801,2.986,0.060013,0.026076,-0.091138,100037.09,-82,-200,+1
140772,9.550,-1.814,2.986,0.021169,-0.002126,-0.087413,100037.09,-83,-200,+1
140782,9.519,-1.655,2.871,-0.022464,-0.025539,-0.084220,100040.60,-83,-200,+1
140791,9.556,-1.551,2.883,-0.040556,-0.047888,-0.069853,100039.80,-83,-200,+1
140802,9.663,-1.517,2.805,-0.037895,-0.068640,-0.054954,100037.09,-83,-199,+1
140812,9.640,-1.703,2.591,-0.031510,-0.085667,-0.043780,100040.13,-83,-200,+0
140822,9.457,-1.748,2.436,-0.034170,-0.095778,-0.040587,100040.13,-83,-199,+0
140832,9.338,-1.777,2.345,-0.033638,-0.100034,-0.037927,100040.28,-83,-199,+0
140841,9.364,-1.834,2.226,-0.025657,-0.100567,-0.035798,100039.86,-83,-199,+0
140852,9.365,-1.820,2.155,-0.027785,-0.095245,-0.039523,100038.75,-83,-200,+0
140862,9.358,-1.786,2.110,-0.034702,-0.087264,-0.044844,100041.53,-84,-199,+0
140871,9.397,-1.801,2.072,-0.037895,-0.080346,-0.048037,100041.53,-84,-199,+0
140881,9.335,-1.759,2.027,-0.038959,-0.074493,-0.048037,100040.73,-83,-198,+0
140892,9.315,-1.690,2.012,-0.034170,-0.065447,-0.044844,100039.31,-83,-198,+0
140898,9.397,-1.661,2.054,-0.022996,-0.061190,-0.038991,100039.09,-83,-198,+0
140907,9.452,-1.650,2.075,-0.011822,-0.055869,-0.033138,100039.09,-84,-199,-1
140917,9.396,-1.630,2.080,-0.004904,-0.049484,-0.031541,100040.05,-83,-199,-1
140926,9.394,-1.627,2.061,0.000949,-0.040970,-0.025688,100040.05,-84,-199,+0
140937,9.499,-1.685,2.026,0.001481,-0.029796,-0.018239,100042.62,-84,-199,+0
140947,9.573,-1.779,2.021,-0.004372,-0.014897,-0.020367,100040.46,-84,-198,+0
140957,9.634,-1.883,2.007,-0.028317,0.000534,-0.024624,100040.10,-84,-198,-1
140966,9.671,-1.894,2.141,-0.064501,0.010644,-0.032606,100040.10,-85,-199,-1
140977,9.583,-1.741,2.300,-0.086317,0.015966,-0.041652,100040.10,-85,-199,-1
140987,9.535,-1.697,2.371,-0.096427,0.014901,-0.043780,100043.68,-85,-198,-1
140997,9.552,-1.535,2.334,-0.104941,0.001599,-0.040055,100043.73,-85,-198,-1
141006,9.598,-1.406,2.458,-0.086849,-0.010108,-0.031541,100040.43,-85,-198,-1
141017,9.479,-1.460,2.468,-0.057583,-0.019686,-0.015046,100037.90,-85,-198,-1
141027,9.522,-1.600,2.337,-0.043748,-0.031392,-0.000147,100037.90,-85,-198,-2
141037,9.582,-1.718,2.345,-0.061308,-0.039374,0.011027,100040.30,-85,-198,-2
141047,9.517,-1.663,2.307,-0.099620,-0.043099,0.020073,100040.93,-85,-197,-3
141057,9.530,-1.625,2.254,-0.135271,-0.047888,0.036569,100039.85,-85,-197,-3
141067,9.622,-1.679,2.033,-0.154427,-0.044163,0.056789,100039.85,-84,-198,-3
141077,9.690,-1.867,1.555,-0.196464,-0.012236,0.074348,100041.16,-85,-198,-3
141087,9.866,-1.867,1.695,-0.301289,0.022883,0.090312,100039.27,-84,-199,-4
141096,9.876,-1.284,2.674,-0.412500,0.008516,0.114789,100039.27,-84,-199,-4
141107,9.678,-0.769,2.791,-0.397601,-0.018090,0.141926,100041.94,-83,-198,-5
141117,9.473,-0.860,2.922,-0.269895,-0.062255,0.181302,100038.42,-83,-198,-7
141127,9.362,-1.239,3.155,-0.148042,-0.119190,0.229192,100038.42,-81,-199,-8
141132,9.555,-1.541,3.045,-0.092170,-0.150585,0.254734,100039.26,-81,-199,-8
141142,9.692,-1.831,2.720,-0.083124,-0.177722,0.265908,100040.84,-81,-199,-8
141152,9.627,-1.913,2.625,-0.135271,-0.204860,0.287192,100039.37,-79,-200,-10
141162,9.621,-1.646,2.590,-0.228390,-0.228273,0.328697,100039.95,-79,-200,-10
141172,9.735,-1.250,2.402,-0.295968,-0.249025,0.374990,100039.95,-78,-199,-11
141182,9.980,-0.907,2.352,-0.329491,-0.273502,0.443633,100041.91,-77,-200,-11
141192,10.238,-0.418,2.655,-0.300225,-0.322988,0.538880,100041.48,-75,-202,-13
141202,10.570,-0.355,3.128,-0.195932,-0.412383,0.653284,100041.59,-75,-202,-13
141212,11.151,-0.640,3.631,-0.070354,-0.517741,0.764495,100037.59,-72,-202,-13
141221,11.609,-0.866,4.400,-0.005968,-0.667796,0.864531,100037.59,-68,-203,-15
141232,11.924,-1.012,4.601,-0.004372,-0.807740,0.960311,100041.45,-65,-205,-15
141242,12.538,-1.444,3.983,-0.049601,-0.880107,1.050238,100041.07,-65,-205,-15
141252,13.472,-1.748,2.974,-0.170923,-0.914694,1.137504,100038.87,-61,-205,-17
141262,15.003,-1.406,2.273,-0.360886,-0.926933,1.242329,100042.07,-56,-207,-20
141272,17.184,-0.946,1.910,-0.517858,-0.949282,1.378549,100042.07,-51,-209,-22
141282,20.880,0.800,2.092,-0.653014,-1.005153,1.550953,100041.06,-51,-209,-22
141292,24.311,3.152,3.066,-0.839785,-1.023777,1.771778,100039.50,-44,-210,-25
141302,22.915,3.623,3.010,-1.042518,-1.009410,1.853191,100037.44,-37,-211,-30
141312,19.113,2.177,0.802,-1.003674,-0.984933,1.664824,100037.81,-29,-211,-34
141322,16.300,0.098,0.545,-0.786041,-1.018988,1.639283,100037.81,-29,-211,-34
141332,14.599,-1.771,1.246,-0.223069,-1.119557,1.759008,100040.70,-22,-212,-35
141342,12.625,-3.879,2.178,0.570839,-1.130199,1.814347,100039.86,-14,-214,-35
141352,10.691,-5.761,2.833,1.323774,-1.095080,1.821797,100042.70,-7,-216,-31
141362,8.441,-8.800,2.208,1.698911,-0.987061,1.680788,100037.50,-7,-216,-31
141372,7.297,-13.264,0.920,1.595150,-0.864144,1.599375,100037.50,-1,-218,-27
141382,6.503,-17.630,-0.739,1.130086,-0.851905,1.615870,100039.38,+5,-220,-23
141392,6.665,-16.330,-0.429,0.226031,-0.852970,1.539247,100041.95,+11,-222,-24
141402,7.624,-11.179,-1.244,-0.751454,-0.914162,1.277981,100040.01,+11,-222,-24
141412,5.149,-9.037,-0.016,-1.165436,-0.808272,1.020972,100039.16,+16,-220,-27
141422,3.053,-6.586,0.386,-1.219711,-0.785392,1.084293,100039.16,+20,-220,-32
141432,2.307,-5.985,-0.165,-0.829674,-0.759318,1.159320,100039.58,+26,-219,-35
141442,1.815,-5.524,-0.465,-0.453473,-0.697062,1.124733,100037.95,+26,-219,-35
141452,1.081,-4.729,-0.621,-0.218812,-0.648107,1.069394,100038.22,+31,-219,-35
141462,0.541,-4.133,-0.569,-0.093234,-0.580530,0.988513,100039.16,+35,-219,-35
141472,-0.042,-3.476,-0.499,-0.025124,-0.520401,0.910825,100039.16,+39,-219,-37
141483,-0.134,-2.984,-0.551,-0.010757,-0.461337,0.816109,100041.20,+39,-219,-37
141492,0.045,-2.644,-0.680,-0.013950,-0.404933,0.711816,100037.73,+42,-219,-37
141502,-0.006,-2.117,-0.788,-0.017675,-0.370878,0.633064,100036.89,+45,-220,-37
141512,-0.251,-1.782,-0.907,0.029151,-0.342144,0.565486,100036.84,+47,-219,-37
141522,-0.521,-1.791,-0.957,0.151536,-0.293722,0.496843,100036.84,+47,-219,-37
141532,-0.678,-2.019,-0.951,0.277114,-0.235190,0.419155,100039.09,+49,-218,-35
141542,-0.754,-2.158,-0.872,0.332453,-0.179319,0.316458,100039.67,+51,-217,-35
141552,-0.828,-2.354,-0.660,0.321279,-0.115466,0.194605,100037.05,+52,-220,-34
141562,-0.770,-2.295,-0.460,0.273921,-0.053741,0.055192,100040.78,+52,-220,-34
141572,-0.614,-2.185,-0.378,0.178141,0.013305,-0.097523,100040.78,+51,-220,-33
141582,-0.274,-2.225,-0.294,0.053096,0.087800,-0.245982,100038.06,+51,-220,-32
141592,0.162,-2.183,-0.218,-0.110262,0.158039,-0.398697,100039.91,+49,-220,-33
141602,0.600,-2.192,-0.199,-0.291534,0.218345,-0.555847,100039.33,+47,-220,-34
141613,1.015,-2.273,-0.431,-0.406647,0.267121,-0.689761,100037.91,+47,-220,-34
141622,1.405,-2.713,-0.586,-0.454537,0.313947,-0.827046,100037.91,+45,-218,-35
141632,1.721,-3.051,-0.697,-0.405583,0.371415,-0.951559,100039.44,+39,-219,-37
141642,2.223,-3.234,-0.673,-0.294372,0.450699,-1.102678,100037.13,+35,-218,-37
141652,2.959,-3.200,-0.489,-0.217748,0.527855,-1.270293,100038.66,+35,-218,-37
141662,3.622,-3.197,-0.500,-0.163473,0.606607,-1.420348,100035.92,+30,-218,-39
141672,4.120,-3.453,-0.537,-0.134739,0.695470,-1.548054,100035.92,+23,-217,-38
141682,4.825,-3.622,-0.516,-0.152299,0.785928,-1.674164,100039.01,+16,-218,-38
141692,5.754,-3.630,-0.404,-0.218812,0.875855,-1.808256,100038.54,+16,-218,-38
141702,6.754,-3.574,-0.240,-0.289583,0.974295,-1.953522,100042.32,+8,-216,-39
141712,7.774,-3.514,-0.230,-0.356629,1.063690,-2.104109,100038.59,+0,-216,-39
141722,9.154,-3.729,-0.165,-0.434849,1.146699,-2.249907,100038.59,-9,-213,-40
141732,10.841,-4.304,-0.289,-0.518922,1.198313,-2.391448,100039.42,-9,-213,-40
141743,12.501,-5.241,-0.358,-0.563619,1.250460,-2.531925,100036.89,-18,-212,-41
141752,14.427,-5.749,-0.222,-0.587564,1.286644,-2.629833,100040.89,-29,-208,-42
141762,15.893,-5.775,0.041,-0.577986,1.308992,-2.689962,100038.42,-40,-206,-42
141772,16.649,-5.105,0.402,-0.507748,1.345176,-2.695815,100038.42,-40,-206,-42
141783,17.077,-4.341,0.565,-0.460922,1.387212,-2.569173,100037.90,-51,-202,-42
141792,16.012,-10.588,5.280,-0.211895,1.545249,-2.184990,100041.05,-60,-198,-41
141802,21.981,-11.730,15.860,0.187187,1.722441,-1.496440,100036.74,-66,-197,-39
141812,48.448,-13.914,7.432,0.527738,1.489377,-0.397101,100035.48,-66,-197,-39
141822,50.741,11.906,-9.940,-2.007765,-0.299576,-1.211229,100035.48,-67,-197,-39
141833,11.262,18.587,-2.595,-2.326499,0.783800,-3.163540,100045.91,-77,-190,-47
141838,-2.241,6.221,6.481,-1.706591,1.324423,-2.149338,100040.77,-77,-190,-47
141847,-4.686,2.706,5.014,-1.336243,0.703451,-0.267798,100040.77,-82,-186,-49
141857,2.610,0.587,1.618,-0.467840,0.407066,0.235045,100039.46,-81,-186,-49
141868,8.571,-2.079,-1.030,0.883719,0.464002,-0.354000,100037.09,-83,-186,-45
141878,11.206,-2.399,-1.210,1.762764,0.326718,-0.097523,100037.09,-83,-186,-45
141887,11.761,-4.555,1.646,1.882489,0.223488,0.320715,100041.60,-83,-188,-39
141897,8.657,-6.046,4.819,1.204049,0.236259,0.214293,100040.73,-83,-190,-35
141907,5.566,-4.960,5.852,0.144619,0.315011,-0.186918,100036.84,-83,-189,-35
141917,5.905,-2.542,3.848,-0.664188,0.355452,-0.322606,100036.84,-83,-189,-35
141927,8.195,-1.466,1.057,-0.841913,0.361305,-0.203413,100036.84,-85,-188,-37
141937,9.751,-2.223,-0.119,-0.602464,0.355452,-0.114551,100043.06,-85,-188,-39
141947,10.724,-2.415,0.357,-0.361950,0.336828,-0.078367,100042.22,-85,-187,-39
141958,11.626,-1.326,1.124,-0.193803,0.328314,-0.090074,100041.17,-85,-187,-39
141968,11.897,0.247,1.368,-0.037363,0.326718,-0.101780,100040.64,-86,-187,-39
141977,10.957,1.156,1.746,0.194105,0.322461,-0.033670,100040.64,-88,-187,-38
141987,10.155,0.493,2.369,0.446857,0.296919,0.117981,100041.06,-86,-187,-35
141998,10.012,-1.127,2.959,0.586270,0.222424,0.235578,100038.38,-86,-187,-35
142008,9.825,-2.385,2.808,0.557004,0.129305,0.247816,100038.33,-86,-188,-34
142017,9.463,-2.841,2.480,0.389921,0.083011,0.221743,100038.33,-85,-190,-33
142027,9.195,-2.753,2.446,0.160050,0.063855,0.213229,100040.65,-85,-190,-32
142038,9.028,-2.292,2.506,-0.062904,0.056406,0.200458,100040.65,-85,-190,-32
142048,9.007,-1.946,2.353,-0.222537,0.052149,0.185559,100040.34,-85,-190,-32
142057,9.195,-1.644,2.121,-0.263510,0.034589,0.196202,100039.87,-83,-190,-34
142067,9.261,-1.199,1.781,-0.189546,0.020754,0.232917,100037.18,-84,-190,-34
142077,9.461,-0.733,1.581,-0.025124,0.032993,0.276018,100037.18,-84,-190,-34
142088,9.744,-0.623,1.544,0.181334,0.045232,0.322844,100040.05,-82,-191,-34
142098,9.894,-0.889,1.808,0.379811,0.050021,0.368073,100040.52,-81,-192,-32
142107,9.781,-1.769,1.599,0.486233,0.036718,0.395743,100039.05,-80,-193,-30
142117,9.562,-2.627,1.623,0.438875,0.041507,0.395743,100038.07,-80,-193,-30
142128,9.243,-3.248,1.642,0.282967,0.039378,0.389357,100042.07,-79,-194,-30
142138,9.380,-3.187,1.768,0.104178,0.032461,0.367009,100040.23,-78,-196,-28
142147,9.688,-2.765,1.952,-0.025124,0.029800,0.338275,100040.23,-77,-194,-29
142157,9.626,-2.317,2.090,-0.068757,0.028736,0.306880,100039.76,-77,-194,-29
142168,9.519,-1.837,2.206,-0.046941,0.013837,0.291981,100037.55,-76,-195,-29
142177,9.467,-1.545,2.214,0.047775,-0.008512,0.295174,100037.55,-75,-196,-29
142187,9.353,-1.652,2.047,0.197297,-0.004255,0.314330,100040.23,-74,-197,-28
142197,9.210,-2.456,1.751,0.338307,0.010112,0.333486,100041.77,-74,-197,-28
142208,9.390,-3.228,1.416,0.318086,0.018094,0.332422,100040.81,-73,-198,-28
142218,9.704,-3.386,1.320,0.100986,0.043103,0.306880,100039.61,-73,-198,-27
142228,9.783,-2.961,1.453,-0.165069,0.076626,0.272825,100039.61,-71,-199,-27
142237,9.646,-2.666,1.388,-0.308739,0.115470,0.246220,100040.77,-69,-199,-28
142247,9.565,-2.507,1.395,-0.306078,0.146332,0.236110,100040.20,-69,-199,-28
142258,9.346,-2.554,1.819,-0.245418,0.171342,0.230789,100040.20,-69,-200,-28
142267,9.082,-2.699,2.211,-0.192207,0.179855,0.220146,100040.20,-69,-200,-28
142277,9.095,-2.930,2.504,-0.166134,0.176663,0.208972,100040.20,-69,-199,-29
142287,9.280,-2.973,2.568,-0.174647,0.162828,0.199394,100043.38,-69,-199,-29
142298,9.446,-2.854,2.577,-0.212427,0.150589,0.191945,100041.80,-68,-200,-30
142308,9.544,-2.750,2.448,-0.266170,0.139415,0.193541,100038.91,-68,-200,-31
142317,9.740,-2.250,2.238,-0.332152,0.131965,0.206844,100038.55,-68,-199,-30
142327,9.960,-2.210,2.322,-0.381106,0.128241,0.226000,100038.55,-68,-199,-30
142338,10.083,-2.579,2.136,-0.395473,0.107488,0.232917,100040.30,-66,-200,-32
142348,10.030,-2.671,2.014,-0.355565,0.085140,0.234513,100042.61,-65,-200,-33
142358,9.699,-2.684,2.318,-0.323106,0.073965,0.231321,100039.11,-65,-200,-34
142367,9.437,-2.963,2.464,-0.230519,0.021287,0.257394,100039.11,-65,-200,-34
142377,9.468,-2.815,2.439,-0.201253,-0.010640,0.244623,100040.41,-64,-199,-35
142388,9.352,-2.949,2.343,-0.257124,-0.045227,0.242495,100040.41,-63,-200,-35
142397,9.386,-2.586,2.462,-0.346519,-0.076089,0.257926,100040.21,-62,-199,-37
142407,9.395,-2.371,2.264,-0.382170,-0.095778,0.266972,100039.05,-62,-199,-37
142417,9.380,-2.458,2.117,-0.358757,-0.099502,0.287724,100038.32,-61,-199,-37
142423,9.354,-2.726,2.207,-0.334812,-0.109080,0.312201,100038.32,-61,-199,-37
142433,9.173,-3.128,2.545,-0.338005,-0.101099,0.336678,100041.79,-60,-199,-39
142442,9.130,-3.070,2.373,-0.427932,-0.111741,0.349981,100039.52,-58,-200,-40
142452,9.119,-2.966,2.440,-0.524243,-0.123447,0.345724,100040.57,-57,-199,-42
142462,9.394,-2.818,2.480,-0.563087,-0.150585,0.375522,100037.95,-57,-199,-42
142473,9.426,-2.574,2.422,-0.559363,-0.164952,0.405321,100037.95,-56,-199,-44
142483,9.280,-2.511,2.223,-0.532225,-0.181447,0.438311,100042.60,-54,-199,-45
142492,9.188,-2.757,1.929,-0.486464,-0.209649,0.484605,100040.45,-52,-199,-47
142502,9.103,-2.967,1.625,-0.452409,-0.239979,0.520256,100039.34,-51,-200,-49
142513,8.966,-2.974,1.402,-0.447620,-0.263924,0.555376,100037.82,-51,-200,-49
142523,8.952,-2.909,1.465,-0.466243,-0.280420,0.599009,100037.82,-48,-200,-50
142532,9.100,-2.781,1.606,-0.440170,-0.301172,0.642642,100043.30,-45,-200,-52
142542,9.337,-2.776,1.867,-0.373656,-0.318199,0.689467,100040.98,-43,-200,-54
142553,9.579,-2.978,2.043,-0.326831,-0.334163,0.726715,100040.88,-43,-200,-54
142563,9.607,-3.309,2.015,-0.307143,-0.343741,0.745339,100041.67,-40,-201,-55
142572,9.425,-3.483,1.776,-0.325766,-0.352787,0.751192,100041.67,-37,-202,-56
142582,9.274,-3.516,1.511,-0.361950,-0.371410,0.761834,100039.07,-35,-202,-57
142593,9.151,-3.284,1.514,-0.367803,-0.397484,0.781522,100041.13,-35,-202,-57
142603,9.076,-3.236,1.674,-0.333216,-0.435796,0.806531,100037.55,-31,-201,-59
142613,9.001,-3.492,1.897,-0.269895,-0.461869,0.836862,100038.49,-27,-203,-61
142622,8.978,-3.726,2.001,-0.235840,-0.484750,0.856550,100038.49,-23,-203,-61
142632,9.008,-3.705,2.130,-0.240097,-0.510823,0.868788,100040.63,-23,-203,-61
142643,9.129,-3.595,2.226,-0.226262,-0.548071,0.893265,100039.53,-19,-203,-62
142653,9.288,-3.661,2.111,-0.159748,-0.587447,0.924128,100041.94,-16,-204,-63
142658,9.409,-3.828,1.879,-0.093234,-0.610328,0.945412,100038.69,-16,-204,-63
142667,9.623,-4.151,1.452,-0.055455,-0.636933,0.966164,100038.69,-13,-204,-64
142678,9.889,-4.543,1.001,-0.056519,-0.674181,0.993834,100038.69,-7,-205,-64
142688,10.209,-4.727,0.416,-0.116647,-0.736438,1.020440,100040.51,-3,-205,-66
142698,10.662,-4.906,-0.212,-0.170923,-0.769428,1.051834,100038.46,-3,-205,-66
142708,11.277,-4.625,-0.502,-0.235840,-0.808272,1.090678,100039.18,+1,-205,-66
142717,11.540,-3.987,-0.600,-0.313528,-0.854566,1.132183,100039.18,+6,-206,-69
142728,11.486,-3.667,-0.269,-0.310335,-0.894474,1.189650,100041.99,+11,-206,-70
142738,11.444,-3.616,-0.020,-0.242757,-0.950346,1.243394,100041.99,+11,-206,-70
142747,11.339,-3.537,0.424,-0.131014,-0.992382,1.289687,100041.20,+18,-206,-70
142757,11.231,-3.768,1.108,-0.004372,-1.026970,1.332256,100040.37,+23,-206,-70
142768,11.278,-4.260,1.215,0.093004,-1.079116,1.365247,100041.77,+30,-206,-70
142778,11.551,-4.582,1.357,0.107903,-1.116364,1.406751,100041.77,+30,-206,-70
142788,12.197,-4.940,1.381,-0.015014,-1.169575,1.444531,100042.10,+37,-207,-71
142797,13.209,-4.886,1.734,-0.217216,-1.248859,1.465815,100040.37,+44,-206,-71
142808,14.521,-4.303,2.331,-0.422610,-1.333997,1.458898,100040.68,+51,-206,-73
142818,15.360,-3.552,2.919,-0.575858,-1.352089,1.427503,100038.51,+51,-206,-73
142828,15.247,-3.116,2.758,-0.677491,-1.346236,1.404623,100042.20,+58,-205,-74
142838,14.692,-2.942,2.341,-0.856280,-1.347300,1.422714,100038.51,+65,-203,-78
142848,14.692,-2.262,2.218,-1.171821,-1.352089,1.460494,100038.77,+71,-200,-81
142858,15.415,-1.390,2.178,-1.502261,-1.359006,1.516898,100038.77,+71,-200,-81
142868,16.184,-0.690,2.051,-1.701802,-1.376034,1.606825,100037.30,+78,-197,-85
142877,16.468,-0.441,2.209,-1.656041,-1.419667,1.764329,100037.30,+86,-193,-90
142887,16.916,-0.343,2.363,-1.300059,-1.496290,1.978769,100040.09,+96,-188,-93
142894,16.881,-0.617,2.777,-0.930775,-1.548969,2.097962,100037.98,+96,-188,-93
142903,16.547,-1.547,3.210,-0.664188,-1.581428,2.151705,100037.78,+106,-186,-93
142913,15.295,-3.582,3.670,-0.578519,-1.603777,2.151173,100038.05,+106,-186,-93
142922,14.012,-5.022,3.914,-0.397601,-1.566529,2.193209,100038.05,+116,-182,-93
142932,13.713,-4.917,4.094,-0.066629,-1.529281,2.258127,100037.91,+126,-180,-93
142943,12.905,-3.297,3.649,0.290949,-1.489905,2.141062,100038.96,+136,-179,-91
142953,11.037,-1.818,1.991,0.586802,-1.430841,1.749430,100036.54,+143,-179,-87
142963,8.757,-2.091,1.139,0.681517,-1.293025,1.344494,100035.45,+143,-177,-87
142972,7.229,-4.128,-0.014,0.535187,-1.223850,1.117283,100035.45,+148,-176,-84
142983,7.203,-5.021,1.347,0.409077,-1.096676,1.075779,100039.61,+153,-176,-83
142993,8.102,-2.199,2.934,0.343096,-1.078052,0.826219,100040.77,+156,-176,-80
143003,7.101,1.339,2.424,0.312233,-1.094548,0.138734,100037.41,+156,-176,-80
143012,6.006,2.803,2.240,0.622985,-1.063153,-0.310367,100038.56,+157,-176,-77
143023,4.635,1.611,2.773,1.111462,-0.992915,-0.447651,100038.56,+157,-178,-72
143033,3.953,0.120,2.670,1.482875,-0.866272,-0.657302,100038.02,+156,-182,-68
143043,4.112,-1.151,2.213,1.573333,-0.762511,-0.972844,100037.55,+156,-182,-68
143052,4.402,-2.257,1.841,1.437113,-0.695997,-1.317119,100031.30,+153,-186,-62
143063,5.010,-2.174,0.986,1.138067,-0.673117,-1.683742,100037.13,+147,-190,-57
143073,5.498,-1.582,0.635,0.886380,-0.657685,-2.010458,100037.13,+142,-193,-55
143083,5.704,-1.128,1.101,0.833169,-0.626823,-2.289815,100037.63,+142,-193,-55
143093,6.188,-0.569,1.084,0.909260,-0.573612,-2.581944,100034.06,+134,-197,-51
143102,6.561,-0.519,0.944,1.044416,-0.525190,-2.866090,100036.05,+124,-202,-47
143113,6.966,-1.165,1.047,1.217352,-0.499117,-3.090641,100033.38,+114,-206,-44
143123,7.315,-1.373,1.104,1.408379,-0.468787,-3.319980,100033.38,+114,-206,-44
143128,7.520,-1.443,1.431,1.588232,-0.412383,-3.495576,100034.75,+102,-210,-37
143137,7.810,-1.748,2.031,1.802140,-0.359172,-3.642971,100034.75,+102,-210,-37
143148,8.016,-2.076,2.679,2.096397,-0.314475,-3.797814,100031.66,+88,-214,-30
143158,8.058,-2.320,3.133,2.415663,-0.231466,-3.923392,100027.50,+75,-218,-24
143168,8.117,-2.872,3.594,2.674268,-0.108548,-4.057484,100030.45,+60,-222,-14
143178,8.157,-3.483,3.912,2.785479,0.018626,-4.200089,100030.62,+43,-225,-5
143187,8.267,-3.723,4.266,2.742378,0.157507,-4.337374,100030.40,+43,-225,-5
143198,8.613,-3.878,4.465,2.596580,0.304901,-4.464016,100029.98,+26,-225,+2
143208,9.157,-4.165,4.298,2.380544,0.451763,-4.578951,100029.98,+9,-225,+11
143218,9.887,-4.564,4.372,2.090012,0.611928,-4.680052,100033.24,-7,-223,+17
143227,10.667,-4.995,4.522,1.730838,0.757727,-4.792327,100033.24,-7,-223,+17
143238,11.245,-5.095,4.556,1.341333,0.897671,-4.925355,100034.80,-26,-218,+22
143248,11.456,-5.205,4.450,0.995462,1.059433,-5.053594,100034.22,-44,-213,+27
143258,11.662,-5.547,4.121,0.777297,1.243011,-5.111593,100035.16,-62,-206,+30
143268,12.162,-6.060,3.919,0.692160,1.454258,-5.110529,100036.47,-62,-206,+30
143278,12.705,-6.278,3.766,0.646930,1.654331,-5.090841,100036.47,-80,-199,+34
143288,13.107,-5.876,3.312,0.620325,1.838974,-5.058915,100034.97,-96,-190,+38
143298,13.557,-5.472,3.075,0.644270,2.017230,-4.980694,100035.86,-110,-179,+43
143308,14.715,-6.138,2.919,0.707059,2.127909,-4.833832,100033.08,-110,-179,+43
143318,15.616,-7.166,1.448,0.543169,2.108221,-4.732199,100033.08,-124,-168,+49
143328,15.909,-7.841,0.520,0.247316,2.116735,-4.637484,100033.08,-136,-157,+54
143338,16.320,-9.104,0.499,-0.008097,2.124717,-4.456566,100036.16,-147,-147,+57
143348,16.222,-10.328,0.327,-0.423143,2.055542,-4.279374,100036.38,-147,-147,+57
143357,14.892,-10.409,-0.063,-0.890867,1.982111,-4.112291,100037.00,-155,-135,+61
143364,14.123,-10.445,-0.317,-1.070188,1.941671,-3.899980,100036.73,-164,-125,+63
143373,13.520,-11.428,-0.725,-1.037729,1.876221,-3.565814,100036.73,-164,-125,+63
143383,12.705,-13.744,-1.371,-0.825418,1.707010,-2.952824,100041.24,-168,-116,+64
143393,12.354,-15.128,-2.021,-0.684941,1.437231,-2.257889,100038.46,-172,-109,+66
143403,11.775,-14.515,-2.239,-0.728041,1.095084,-1.633724,100039.20,-175,-106,+68
143413,11.182,-13.528,-2.050,-0.789234,0.742295,-0.965926,100036.41,-175,-106,+68
143423,10.973,-13.158,-2.012,-0.786574,0.360241,-0.160312,100036.41,-175,-105,+68
143433,10.244,-12.814,-2.130,-0.707289,0.029800,0.572403,100039.54,-174,-108,+66
143442,9.491,-11.957,-2.252,-0.556170,-0.221888,1.144421,100038.23,-171,-111,+64
143453,9.169,-10.550,-2.967,-0.314060,-0.420897,1.618531,100038.70,-171,-111,+64
143463,9.032,-9.077,-3.042,0.046178,-0.547539,2.005907,100034.29,-169,-116,+63
143473,9.465,-3.849,1.077,0.370765,-0.662474,2.195870,100034.29,-164,-123,+63
143483,10.709,11.106,15.386,0.512839,-0.490071,1.948439,100039.22,-160,-127,+63
143493,18.973,29.980,16.796,0.016380,-0.079282,0.770348,100035.55,-160,-127,+63
143503,29.611,15.983,-10.047,-1.128720,-0.583190,0.659669,100037.17,-160,-128,+60
143513,28.340,-13.113,-1.861,3.329295,-0.530511,3.616071,100041.16,-153,-135,+65
143523,18.849,-13.620,3.512,4.839955,-0.920016,3.500071,100041.16,-145,-141,+73
143533,8.195,-8.852,-3.228,2.191113,-1.050915,2.157026,100040.34,-145,-141,+73
143543,2.624,-1.085,-0.999,0.681517,-0.682162,1.511577,100042.07,-142,-143,+73
143553,1.800,-0.770,4.699,0.585738,-0.572016,2.502897,100036.98,-137,-149,+73
143563,6.085,-3.269,4.601,0.893829,-0.381520,2.742347,100035.18,-130,-155,+75
143572,13.500,-4.268,0.210,0.748031,-0.560309,2.541741,100035.18,-130,-155,+75
143583,15.914,-6.557,-0.145,0.346820,-0.818383,2.635925,100040.96,-122,-161,+75
143593,13.219,-6.721,1.028,-0.281069,-0.788052,2.323576,100037.38,-117,-167,+73
143599,11.633,-5.099,-0.463,-0.782849,-0.810401,1.893632,100035.29,-117,-167,+73
143608,10.289,-3.352,-1.831,-0.943014,-0.796566,1.628641,100035.29,-111,-170,+69
143619,8.320,-0.929,-0.801,-0.794023,-0.626823,1.543503,100037.38,-109,-174,+66
143628,7.588,-0.117,-0.344,-0.466776,-0.449631,1.592458,100037.38,-104,-177,+64
143638,8.597,-0.559,0.398,-0.109198,-0.300640,1.652054,100038.27,-104,-177,+64
143648,9.957,-0.964,1.158,0.055224,-0.227209,1.669613,100037.09,-99,-179,+64
143659,10.276,-2.069,1.497,0.108967,-0.166016,1.520623,100036.04,-94,-184,+64
143668,10.050,-2.828,1.729,0.057353,-0.171869,1.350880,100036.04,-90,-186,+64
143678,9.431,-3.125,1.843,-0.052794,-0.222952,1.204017,100036.04,-90,-186,+64
143688,9.028,-3.139,1.407,-0.223069,-0.250089,1.057687,100038.99,-86,-187,+64
143698,9.392,-2.550,0.925,-0.381638,-0.245832,0.933706,100040.15,-85,-189,+62
143708,9.917,-1.923,0.756,-0.404519,-0.212842,0.813981,100039.26,-82,-191,+61
143718,10.044,-1.123,0.553,-0.300225,-0.164952,0.746403,100038.79,-82,-191,+61
143728,9.917,-1.145,0.605,-0.149106,-0.109080,0.738421,100038.79,-80,-192,+59
143738,9.646,-1.913,0.845,-0.016079,-0.064915,0.735229,100043.61,-77,-193,+59
143749,9.335,-2.298,0.808,-0.033106,-0.031392,0.733100,100039.83,-75,-195,+59
143758,9.559,-1.526,1.128,-0.185822,0.000002,0.738421,100037.39,-75,-195,+59
143768,9.787,-1.961,1.402,-0.330023,-0.000530,0.749596,100037.39,-73,-196,+59
143778,9.974,-1.863,1.182,-0.417821,-0.001594,0.754385,100039.83,-69,-198,+57
143789,9.921,-1.758,1.262,-0.443363,-0.004255,0.738953,100039.30,-69,-199,+56
143798,9.474,-1.631,1.314,-0.386959,-0.003190,0.733632,100039.30,-69,-199,+56
143808,9.305,-1.534,1.011,-0.317253,-0.012236,0.759706,100037.03,-66,-199,+56
143818,9.508,-1.754,1.149,-0.270959,-0.015961,0.791100,100041.39,-63,-201,+55
143828,9.645,-1.909,1.571,-0.253932,-0.038310,0.821431,100041.39,-60,-202,+54
143838,9.671,-1.899,2.047,-0.243822,-0.074493,0.844843,100037.73,-60,-202,+54
143848,9.483,-1.815,2.184,-0.229455,-0.125576,0.863999,100041.66,-58,-203,+52
143858,9.323,-1.728,2.152,-0.198060,-0.172401,0.892733,100038.20,-54,-205,+52
143868,9.635,-2.050,1.896,-0.186354,-0.217099,0.935302,100037.51,-52,-205,+51
143879,10.156,-2.135,1.531,-0.212427,-0.248493,0.970953,100041.50,-52,-205,+51
143888,10.260,-2.082,1.440,-0.254464,-0.261264,0.994366,100038.66,-48,-207,+51
143898,10.044,-2.366,1.444,-0.251803,-0.283612,1.017247,100037.66,-45,-208,+49
143908,9.869,-2.561,1.594,-0.255528,-0.298511,1.052366,100037.66,-41,-210,+47
143919,9.677,-3.053,1.636,-0.286922,-0.316071,1.080036,100037.08,-41,-210,+47
143928,9.653,-3.235,1.623,-0.404519,-0.332034,1.098660,100037.08,-38,-210,+46
143938,9.765,-3.219,1.648,-0.575326,-0.342676,1.136972,100041.25,-34,-212,+45
143948,9.864,-2.980,2.036,-0.735491,-0.353319,1.192311,100040.77,-30,-213,+42
143959,10.135,-3.057,2.612,-0.858940,-0.383649,1.259357,100037.41,-30,-213,+42
143969,10.673,-3.053,2.413,-0.933436,-0.460805,1.320017,100037.05,-26,-214,+38
143978,11.060,-2.889,2.553,-0.965894,-0.543814,1.369503,100037.05,-20,-215,+35
143988,11.072,-2.992,2.118,-0.937693,-0.631612,1.416861,100039.05,-15,-217,+32
143998,11.251,-3.136,1.164,-0.877564,-0.709832,1.465283,100041.62,-15,-217,+32
144009,11.342,-3.495,0.666,-0.832867,-0.761447,1.512109,100039.15,-10,-218,+30
144018,11.761,-3.792,0.173,-0.869051,-0.819979,1.559467,100039.15,-5,-220,+25
144028,12.285,-3.641,-0.166,-0.962702,-0.881704,1.613742,100039.15,+0,-219,+22
144038,12.725,-3.539,-0.463,-1.033472,-0.953538,1.658439,100038.59,+7,-219,+22
144049,13.225,-3.409,-0.556,-1.067527,-1.036548,1.715907,100040.90,+7,-220,+18
144058,13.965,-3.113,-0.465,-1.112225,-1.136052,1.798384,100040.23,+14,-222,+15
144068,14.733,-2.729,-0.391,-1.200555,-1.247263,1.898953,100037.60,+21,-221,+10
144078,15.820,-1.682,-0.065,-1.300059,-1.387740,2.035705,100037.60,+30,-221,+5
144089,16.465,-0.632,0.816,-1.444793,-1.542052,2.181503,100040.19,+30,-221,+5
144099,16.403,-0.722,1.151,-1.504390,-1.672951,2.364549,100040.41,+39,-220,+0
144108,17.146,-0.595,1.455,-1.497472,-1.786822,2.499172,100039.03,+49,-220,-5
144118,18.754,-0.510,1.635,-1.530463,-1.854932,2.512475,100039.03,+58,-218,-10
144129,19.584,1.138,2.031,-1.665087,-1.862914,2.399668,100039.32,+58,-218,-10
144139,18.545,2.838,2.784,-1.697545,-1.896437,2.216090,100038.96,+69,-216,-15
144148,17.256,2.682,2.949,-1.227160,-1.980510,2.143191,100038.96,+77,-214,-18
144158,17.172,-1.660,2.906,-0.167198,-2.109813,2.375191,100039.16,+87,-212,-18
144168,16.905,-5.005,4.244,0.707591,-2.250290,2.559833,100038.01,+87,-212,-18
144179,15.166,-5.058,5.312,0.877334,-2.318932,2.404989,100038.01,+98,-212,-13
144184,13.788,-3.983,6.306,0.893297,-2.292859,2.261852,100039.27,+98,-212,-13
144193,12.975,-3.434,6.847,1.056655,-2.269446,2.198530,100036.33,+107,-210,-8
144203,12.579,-2.894,6.780,1.411040,-2.191226,2.126163,100037.11,+117,-209,-3
144214,11.869,-1.536,6.451,1.607920,-2.070969,1.839889,100037.84,+124,-208,+3
144223,9.858,-0.455,5.712,1.725517,-1.875153,1.385467,100037.84,+124,-208,+3
144233,7.451,-0.908,3.128,1.694654,-1.707006,0.852825,100037.93,+128,-206,+10
144243,6.102,-3.974,-2.147,1.453076,-1.838437,0.475027,100040.04,+131,-206,+16
144253,5.791,-10.552,0.550,1.270031,-1.469153,0.655412,100038.24,+133,-206,+22
144264,6.337,-8.719,2.843,0.395774,-1.351025,0.513339,100038.30,+133,-206,+22
144273,6.191,-1.543,2.023,-0.789766,-1.445208,-0.440202,100038.30,+135,-204,+23
144283,4.711,1.855,2.331,-0.969087,-1.228639,-1.158550,100036.99,+132,-205,+20
144293,3.163,3.422,1.716,-0.517326,-1.091887,-1.374586,100039.41,+127,-206,+20
144304,3.006,3.465,1.323,0.100986,-0.906181,-1.503889,100035.95,+122,-208,+21
144313,3.091,1.288,1.268,0.835297,-0.714621,-1.643302,100035.84,+122,-208,+21
144323,3.372,-0.474,1.043,1.337609,-0.553924,-1.827944,100035.84,+116,-208,+26
144333,3.958,-1.661,0.782,1.489260,-0.446970,-2.047173,100038.55,+109,-210,+31
144344,4.330,-1.959,0.554,1.480746,-0.363429,-2.337705,100037.03,+101,-213,+35
144354,4.788,-1.704,0.433,1.407847,-0.283612,-2.643668,100035.66,+101,-213,+35
144363,5.289,-1.375,0.378,1.372196,-0.218695,-2.883118,100031.67,+92,-214,+40
144373,5.782,-1.141,0.484,1.420086,-0.158566,-3.060843,100031.67,+81,-216,+44
144384,6.367,-1.029,0.690,1.527040,-0.102163,-3.212494,100034.04,+70,-217,+49
144394,6.971,-1.405,1.180,1.685608,-0.059594,-3.337007,100033.29,+70,-217,+49
144403,7.398,-1.977,1.842,1.857480,-0.031392,-3.461521,100030.93,+59,-217,+55
144413,7.872,-2.177,2.341,1.978269,0.006920,-3.589227,100031.66,+46,-216,+60
144419,8.131,-2.437,2.810,2.069260,0.075030,-3.688200,100031.66,+46,-216,+60
144429,8.393,-2.715,3.379,2.176214,0.133030,-3.774934,100031.66,+34,-216,+67
144439,8.748,-2.996,3.794,2.358195,0.219231,-3.874438,100030.31,+21,-215,+74
144449,9.313,-3.515,4.096,2.571039,0.333635,-3.937227,100030.83,+21,-215,+74
144458,10.022,-4.403,4.422,2.735993,0.444846,-3.977135,100034.19,+8,-211,+83
144468,10.592,-5.180,4.717,2.753021,0.537965,-4.033007,100032.28,-3,-207,+91
144479,11.111,-5.647,4.922,2.643938,0.625763,-4.121869,100033.33,-16,-203,+99
144489,11.441,-5.864,5.100,2.478452,0.724736,-4.239466,100033.38,-29,-203,+108
144498,11.526,-6.154,5.105,2.265608,0.823708,-4.348016,100033.38,-29,-198,+108
144508,11.321,-6.695,4.961,2.025627,0.937048,-4.409740,100034.80,-41,-192,+114
144519,11.151,-7.179,4.803,1.746801,1.074864,-4.450181,100034.28,-53,-186,+120
144528,11.304,-7.111,4.644,1.419021,1.231836,-4.483172,100034.28,-63,-186,+126
144538,11.797,-6.705,4.563,1.121572,1.412754,-4.489025,100035.80,-63,-180,+126
144548,12.340,-6.240,4.471,0.894893,1.603249,-4.480511,100031.34,-74,-174,+131
144559,12.894,-5.875,4.176,0.723554,1.770863,-4.451777,100034.48,-83,-168,+135
144569,13.526,-5.755,3.782,0.594251,1.904955,-4.383667,100033.70,-93,-162,+141
144579,14.049,-5.958,3.326,0.500600,1.995414,-4.299594,100036.53,-93,-162,+141
144588,14.078,-6.197,2.889,0.404820,2.065652,-4.209135,100035.75,-100,-156,+146
144599,13.840,-6.248,2.450,0.312233,2.133230,-4.085686,100035.95,-107,-150,+152
144609,13.771,-6.422,1.847,0.227628,2.178459,-3.929245,100033.70,-113,-144,+158
144618,13.641,-6.416,1.349,0.103646,2.190166,-3.799411,100033.70,-113,-144,+158
144628,13.719,-6.647,0.812,-0.017143,2.164625,-3.664255,100033.70,-117,-138,+164
144638,13.316,-7.166,0.112,-0.214556,2.089597,-3.508879,100036.20,-122,-133,+170
144649,12.633,-8.163,-0.145,-0.373656,2.002331,-3.285925,100037.29,-126,-129,+174
144659,12.013,-9.074,-0.496,-0.525840,1.891652,-2.970384,100034.66,-126,-129,+174
144668,11.528,-9.657,-1.028,-0.655675,1.768735,-2.595778,100032.93,-128,-124,+180
144678,11.121,-9.493,-2.009,-0.717931,1.604845,-2.181265,100032.93,-129,-123,+183
144689,11.374,-9.320,-3.433,-0.605124,1.338790,-1.682146,100040.34,-129,-121,+187
144699,11.445,-9.847,-4.366,-0.274684,0.971103,-1.085119,100037.45,-129,-121,+187
144709,11.125,-10.325,-4.614,0.151536,0.544351,-0.398165,100035.98,-129,-121,+190
144718,10.730,-9.999,-4.441,0.542105,0.133562,0.323908,100035.98,-128,-120,+193
144729,10.003,-9.107,-4.026,1.003976,-0.194750,0.970421,100040.20,-125,-120,+197
144739,9.182,-8.412,-3.968,1.562159,-0.448566,1.513173,100040.20,-125,-120,+197
144748,8.350,-7.749,-2.213,2.181535,-0.623630,1.965466,100039.09,-122,-119,+200
144758,7.303,-6.027,5.562,2.766323,-0.545942,2.250145,100038.04,-119,-118,+206
144769,9.661,4.902,21.438,2.626379,-0.025007,2.191613,100038.10,-112,-115,+212
144779,19.422,25.458,15.510,1.067297,0.211250,0.851761,100038.10,-112,-115,+212
144789,28.940,8.078,-14.341,-0.708885,-0.431539,0.861339,100037.00,-111,-115,+212
144798,31.352,-17.123,-2.228,2.653516,-0.483686,3.630970,100040.25,-105,-118,+216
144808,19.631,-13.020,-0.540,2.303388,-0.903520,3.387796,100037.20,-101,-117,+219
144819,10.554,-6.596,-3.270,-0.017143,-0.696529,2.242163,100036.39,-101,-117,+219
144829,4.842,0.129,-1.566,-0.515730,-0.519337,1.976641,100039.70,-98,-121,+217
144839,2.722,1.441,1.391,-0.175712,-0.512419,2.588035,100042.28,-94,-127,+216
144848,4.689,0.743,2.224,0.370233,-0.271906,2.466182,100042.28,-88,-131,+219
144859,9.295,-1.842,3.100,0.754416,-0.072365,2.368273,100039.28,-88,-131,+219
144869,13.076,-8.319,4.089,0.748031,-0.121319,2.586971,100038.50,-83,-132,+221
144878,15.827,-9.331,3.244,0.219114,-0.447502,2.494383,100038.50,-77,-135,+221
144889,13.249,-5.544,0.407,-0.443363,-0.684823,1.763797,100038.16,-75,-139,+219
144899,9.373,-2.000,-0.351,-0.580115,-0.548603,1.263614,100038.16,-75,-139,+219
144909,7.137,-0.635,0.430,-0.504555,-0.427282,1.312568,100039.20,-73,-143,+218
144919,7.689,-0.520,0.661,-0.266170,-0.335759,1.463155,100037.31,-70,-145,+218
144928,9.887,-0.245,0.920,-0.006501,-0.226677,1.451448,100037.31,-68,-147,+217
144939,10.491,-1.248,1.015,0.172288,-0.139943,1.375889,100039.37,-64,-150,+217
144949,10.537,-1.850,1.179,0.042986,-0.083539,1.278513,100037.66,-64,-150,+217
144959,9.990,-2.239,0.831,-0.128354,-0.073429,1.145485,100038.66,-62,-150,+217
144968,9.184,-2.464,0.706,-0.211363,-0.040438,0.998623,100038.66,-59,-152,+216
144978,9.088,-2.085,1.104,-0.274152,-0.027135,0.916146,100038.66,-56,-154,+216
144989,9.423,-2.038,1.532,-0.366207,-0.032456,0.858146,100041.21,-56,-154,+216
144999,9.789,-1.958,1.344,-0.484867,-0.012768,0.772476,100040.48,-54,-157,+215
145008,10.038,-1.388,1.231,-0.563087,0.028204,0.704898,100039.59,-52,-160,+214
145018,9.875,-0.965,1.338,-0.530629,0.060131,0.662330,100039.32,-51,-161,+213
145029,9.729,-0.624,1.595,-0.414097,0.072901,0.647431,100039.32,-51,-161,+213
145039,9.494,-0.729,1.847,-0.253400,0.083011,0.670843,100039.11,-49,-164,+212
145049,9.378,-0.998,1.634,-0.179436,0.087800,0.709687,100039.16,-46,-165,+212
145059,9.487,-1.034,1.624,-0.251271,0.095250,0.735761,100038.73,-43,-167,+212
145069,9.696,-1.338,1.583,-0.386959,0.090993,0.757577,100038.73,-43,-167,+212
145079,9.865,-1.510,1.693,-0.500831,0.087268,0.774073,100039.66,-41,-169,+211
145089,9.751,-1.425,1.727,-0.591821,0.069709,0.775669,100039.66,-39,-171,+209
145098,9.585,-1.090,1.788,-0.628537,0.046828,0.779394,100037.04,-37,-174,+208
145108,9.441,-0.881,1.921,-0.562555,0.025011,0.827284,100038.98,-37,-174,+208
145119,9.476,-0.876,2.031,-0.441766,-0.007447,0.886880,100039.20,-34,-176,+209
145124,9.586,-1.010,2.286,-0.348647,-0.036713,0.931577,100039.20,-31,-176,+209
145134,9.677,-1.104,2.238,-0.272555,-0.068640,0.981063,100037.98,-31,-177,+207
145143,9.670,-1.351,2.482,-0.210299,-0.109612,1.049706,100038.45,-28,-180,+206
145154,9.467,-1.625,2.682,-0.211895,-0.176658,1.115155,100037.51,-26,-181,+205
145164,9.263,-1.157,2.888,-0.214023,-0.221355,1.167834,100035.82,-26,-181,+205
145174,9.366,-1.178,2.910,-0.168794,-0.279355,1.231155,100035.82,-22,-182,+206
145184,9.705,-1.575,2.443,-0.056519,-0.338952,1.291816,100036.17,-19,-183,+204
145193,9.899,-2.100,1.820,0.046710,-0.375667,1.321082,100037.02,-16,-184,+204
145204,10.053,-2.808,1.413,0.067463,-0.384713,1.337577,100037.75,-13,-185,+204
145214,9.914,-3.425,1.096,-0.002244,-0.386842,1.343962,100038.48,-13,-185,+204
145223,9.761,-3.604,0.878,-0.119308,-0.377264,1.327999,100038.48,-10,-186,+204
145233,9.658,-3.528,1.082,-0.217748,-0.380456,1.313100,100040.30,-7,-187,+203
145244,9.371,-3.516,1.419,-0.249675,-0.401741,1.302990,100039.63,-3,-188,+202
145254,9.092,-3.458,1.653,-0.218280,-0.410787,1.293412,100038.72,-3,-188,+202
145264,9.148,-3.668,1.738,-0.182097,-0.415043,1.285430,100037.98,-1,-189,+201
145273,9.412,-3.825,1.933,-0.212959,-0.415576,1.280641,100037.98,+2,-190,+200
145284,9.904,-4.010,2.142,-0.283730,-0.423025,1.291816,100039.70,+4,-192,+199
145294,10.358,-4.039,2.176,-0.375785,-0.433135,1.303522,100038.55,+4,-192,+199
145304,10.568,-4.054,2.651,-0.492849,-0.420364,1.320549,100039.70,+7,-193,+198
145313,10.838,-4.329,2.300,-0.629069,-0.423025,1.357797,100037.13,+11,-196,+197
145324,11.249,-4.244,1.443,-0.744005,-0.440585,1.389724,100037.13,+14,-198,+194
145334,11.673,-4.187,1.131,-0.867986,-0.470915,1.430696,100039.45,+14,-198,+194
145344,12.034,-3.820,0.841,-0.971748,-0.514016,1.484971,100038.25,+17,-200,+191
145354,12.319,-3.598,0.766,-1.005803,-0.564566,1.557338,100041.14,+20,-202,+187
145363,12.710,-3.594,0.585,-1.001014,-0.625759,1.643008,100039.63,+24,-205,+185
145374,13.018,-3.474,0.521,-1.036665,-0.678970,1.734531,100039.63,+24,-205,+185
145384,13.394,-3.624,0.369,-1.104775,-0.734841,1.828182,100041.38,+29,-207,+182
145394,13.792,-3.583,0.247,-1.175546,-0.784860,1.913320,100040.33,+32,-210,+177
145403,14.223,-3.506,0.251,-1.251637,-0.833282,1.988347,100036.97,+37,-212,+174
145414,14.854,-3.259,0.584,-1.339436,-0.902456,2.057521,100037.70,+37,-212,+174
145424,16.176,-2.897,1.417,-1.450647,-1.021116,2.120310,100037.70,+41,-216,+170
145434,18.271,-2.062,2.469,-1.606555,-1.159465,2.171925,100038.95,+45,-220,+165
145443,20.600,-0.257,3.469,-1.799178,-1.271208,2.197998,100037.32,+49,-222,+159
145454,21.214,1.593,3.903,-1.990206,-1.350492,2.182567,100039.90,+49,-222,+159
145464,19.866,3.116,3.348,-2.092903,-1.415410,2.157558,100036.80,+52,-225,+153
145474,18.673,3.495,2.199,-2.004573,-1.503740,2.183631,100036.80,+55,-228,+147
145484,18.640,0.867,1.193,-1.358059,-1.694235,2.461393,100038.49,+58,-229,+143
145494,18.720,-2.059,0.658,-0.672170,-1.931024,2.674237,100039.59,+58,-229,+143
145504,17.153,-3.532,1.711,-0.277877,-2.068308,2.708824,100036.91,+62,-228,+142
145514,15.784,-3.051,3.307,0.048307,-2.072033,2.732236,100035.96,+65,-226,+141
145524,14.479,-1.996,5.889,0.362784,-1.964547,2.714677,100035.96,+67,-223,+142
145533,12.556,0.256,7.833,0.665022,-1.786822,2.441172,100037.56,+67,-223,+142
145544,10.618,3.080,7.058,1.012490,-1.545245,1.830843,100036.92,+69,-218,+143
145554,8.122,2.926,1.556,1.153499,-1.490437,1.073118,100037.19,+68,-213,+144
145564,2.527,-7.679,0.293,0.937994,-1.245667,0.954458,100035.72,+65,-208,+143
145573,4.189,-5.671,3.711,0.470802,-1.092951,1.298201,100035.72,+65,-208,+143
145584,6.552,1.276,2.467,0.201022,-1.036548,0.467577,100038.88,+66,-205,+139
145594,6.327,2.188,3.554,0.412270,-0.705575,-0.347083,100035.62,+62,-203,+136
145604,4.393,1.802,2.755,0.887444,-0.636933,-0.493945,100034.51,+60,-199,+133
145614,3.297,-0.604,2.487,1.288655,-0.486346,-0.570037,100032.84,+60,-199,+133
145624,3.491,-2.109,2.993,1.523847,-0.321392,-0.846734,100032.84,+57,-196,+132
145634,2.979,-2.279,3.374,1.553645,-0.214970,-1.213889,100033.86,+54,-192,+132
145644,2.675,-2.019,3.203,1.396673,-0.081411,-1.614568,100036.91,+51,-190,+131
145654,3.015,-1.324,2.226,1.214159,0.019158,-1.988109,100033.28,+47,-190,+131
145664,3.756,-1.036,1.371,1.098159,0.104828,-2.256292,100030.23,+47,-190,+131
145674,4.690,-1.279,0.934,0.950765,0.170277,-2.490953,100030.23,+42,-189,+131
145684,5.511,-1.561,0.548,0.698545,0.206461,-2.762861,100037.38,+36,-188,+131
145694,6.190,-1.528,0.075,0.420251,0.225085,-3.048604,100034.96,+28,-190,+129
145704,6.616,-1.406,-0.263,0.238802,0.287874,-3.311466,100032.49,+28,-190,+129
145714,6.888,-1.256,0.017,0.197830,0.371415,-3.506218,100028.98,+20,-190,+127
145724,6.741,-1.365,0.173,0.259554,0.437929,-3.658402,100028.98,+11,-190,+127
145734,6.492,-1.893,0.767,0.610215,0.557653,-3.804732,100030.30,+1,-189,+128
145744,6.767,-2.413,1.297,1.088049,0.672589,-3.957979,100030.24,+1,-189,+128
145754,7.443,-2.792,1.679,1.509480,0.772093,-4.129319,100030.82,-8,-187,+131
145764,8.425,-3.053,1.782,1.797884,0.846057,-4.311300,100028.93,-19,-183,+136
145774,9.699,-3.072,1.504,1.941021,0.866809,-4.450713,100028.93,-31,-178,+143
145784,10.488,-3.745,1.537,2.028819,0.883304,-4.500731,100032.42,-31,-178,+143
145794,11.378,-4.699,1.649,1.958049,0.902460,-4.531594,100032.53,-42,-172,+148
145804,12.000,-5.787,1.953,1.732434,0.922681,-4.610346,100034.16,-54,-164,+154
145814,12.177,-6.588,2.169,1.465847,0.933323,-4.698676,100030.73,-65,-156,+159
145824,12.130,-6.766,2.172,1.240233,0.958332,-4.772639,100030.73,-65,-156,+159
145829,12.395,-6.452,1.984,1.152966,0.999837,-4.809887,100035.04,-77,-149,+163
145839,12.938,-5.968,1.825,1.202453,1.058368,-4.821062,100035.04,-87,-149,+163
145849,13.716,-5.709,1.525,1.446691,1.127011,-4.760933,100035.87,-87,-139,+169
145859,13.858,-5.919,1.649,1.830874,1.206827,-4.643337,100031.88,-96,-129,+173
145869,13.829,-6.310,1.730,2.168764,1.265891,-4.519887,100032.93,-103,-115,+180
145880,13.792,-6.905,1.906,2.323608,1.281322,-4.429961,100036.60,-109,-103,+187
145889,14.213,-7.065,1.857,2.307113,1.255249,-4.333117,100034.07,-109,-103,+187
145899,14.961,-7.233,1.805,2.162379,1.203634,-4.240530,100032.87,-115,-88,+194
145909,15.607,-7.748,1.605,1.963902,1.134460,-4.118677,100032.87,-120,-74,+199
145920,15.329,-8.494,1.369,1.704232,1.071139,-3.973411,100033.87,-123,-61,+204
145929,14.072,-9.267,1.523,1.458398,1.059433,-3.773870,100033.87,-123,-61,+204
145939,12.845,-9.990,1.958,1.204581,1.105726,-3.471099,100035.62,-125,-49,+208
145949,11.882,-11.138,2.106,0.869884,1.172772,-3.058714,100034.93,-128,-38,+211
145959,11.423,-12.231,1.871,0.422912,1.250460,-2.615999,100036.24,-126,-32,+214
145970,11.188,-13.112,1.242,-0.168794,1.271212,-2.192439,100035.09,-126,-32,+214
145979,10.621,-13.260,0.721,-0.852555,1.200974,-1.789100,100035.09,-126,-28,+217
145989,10.408,-12.292,0.203,-1.488958,1.036020,-1.345320,100038.04,-124,-29,+218
145999,10.654,-10.792,-0.287,-1.864628,0.790185,-0.863229,100038.20,-123,-33,+218
146010,10.521,-9.086,-0.812,-1.873142,0.512424,-0.362514,100037.40,-123,-33,+218
146019,10.076,-7.389,-1.196,-1.606555,0.283085,0.149376,100037.40,-122,-38,+219
146029,9.875,-6.221,-1.670,-1.184592,0.085672,0.644770,100037.40,-122,-43,+216
146039,9.408,-5.028,-1.818,-0.637583,-0.095245,1.039595,100038.84,-120,-47,+216
146050,8.767,-2.712,-1.169,0.033940,-0.231998,1.262550,100038.74,-120,-47,+216
146059,8.803,-2.494,1.774,0.938526,-0.257539,1.489228,100039.79,-120,-50,+217
146069,9.145,-3.072,10.243,1.864397,0.067580,1.796256,100038.68,-117,-48,+219
146079,16.087,5.419,9.305,1.442966,0.122920,1.657375,100038.68,-115,-48,+221
146089,24.477,9.248,-3.018,0.586270,-0.303832,1.204017,100036.38,-115,-48,+221
146100,25.789,-2.016,-3.489,1.315260,-0.362897,2.082530,100040.48,-115,-48,+221
146109,20.548,-8.582,-1.595,1.877700,-0.382053,2.618365,100038.95,-113,-49,+223
146119,12.526,-7.219,-1.802,0.972581,-0.324053,2.157558,100038.95,-111,-51,+223
146129,5.317,-2.420,-1.080,-0.154959,-0.312878,1.799448,100039.75,-111,-51,+223
146140,2.545,1.024,1.904,-0.311399,-0.270310,1.952696,100036.23,-110,-55,+222
146149,5.328,-1.120,5.230,0.404820,-0.048952,2.132549,100036.23,-107,-60,+223
146159,11.356,-3.790,4.893,1.014086,0.010644,2.203319,100038.19,-104,-62,+224
146169,15.198,-5.011,2.904,0.936930,-0.234658,2.219283,100037.66,-104,-62,+224
146180,13.586,-6.096,2.167,0.572435,-0.331502,2.007503,100037.66,-102,-63,+224
146190,11.915,-4.669,1.352,-0.051730,-0.450695,1.702604,100037.41,-102,-66,+224
146199,9.427,-2.676,1.586,-0.491253,-0.529979,1.472201,100035.68,-100,-71,+223
146209,7.254,-0.557,1.292,-0.647161,-0.517741,1.318953,100038.93,-100,-71,+223
146220,7.850,0.328,0.666,-0.522115,-0.478364,1.331724,100037.09,-100,-75,+221
146230,9.744,0.384,1.010,-0.241161,-0.393227,1.382806,100037.80,-99,-79,+220
146239,10.860,0.294,1.276,-0.043216,-0.312346,1.378017,100039.12,-98,-83,+219
146249,10.159,-0.316,1.247,0.173352,-0.240511,1.331724,100037.45,-98,-83,+219
146259,9.354,-0.868,1.159,0.257958,-0.188897,1.273192,100037.45,-96,-84,+221
146270,9.031,-2.204,0.818,0.177077,-0.148989,1.189650,100036.13,-94,-85,+219
146279,9.530,-3.201,0.561,-0.091638,-0.105356,1.090678,100036.13,-92,-88,+220
146289,10.022,-3.090,0.742,-0.464647,-0.062255,0.964568,100040.52,-92,-92,+219
146299,9.897,-1.925,0.816,-0.793136,-0.014010,0.823027,100038.20,-92,-92,+219
146309,9.688,-0.680,0.730,-0.874372,0.018094,0.754917,100038.20,-90,-95,+217
146320,9.467,-0.134,0.936,-0.725913,0.053213,0.744275,100035.27,-88,-99,+216
146329,9.513,-0.181,1.271,-0.489656,0.078222,0.783651,100035.27,-86,-103,+215
146339,9.561,-0.759,1.861,-0.297565,0.079287,0.824623,100039.50,-86,-103,+215
146350,9.480,-1.576,1.994,-0.255528,0.076626,0.838990,100039.09,-85,-103,+214
146360,9.683,-1.778,1.905,-0.382170,0.060663,0.820898,100036.78,-82,-107,+214
146369,9.813,-2.115,1.981,-0.524776,0.032993,0.800146,100036.78,-82,-109,+214
146379,9.799,-1.675,2.081,-0.627473,-0.001594,0.783651,100036.78,-82,-109,+214
146390,9.570,-1.153,2.211,-0.605124,-0.041502,0.782586,100037.38,-80,-112,+213
146400,9.395,-0.949,2.225,-0.450812,-0.085135,0.803871,100038.95,-79,-115,+212
146409,9.373,-1.286,2.037,-0.268299,-0.120787,0.847504,100040.33,-77,-117,+211
146419,9.477,-1.740,1.812,-0.191143,-0.146328,0.879430,100037.17,-77,-117,+211
146429,9.717,-2.015,1.745,-0.227858,-0.178787,0.899651,100037.17,-75,-119,+211
146440,9.902,-1.692,1.713,-0.287987,-0.221888,0.917742,100039.62,-74,-121,+210
146450,9.694,-1.460,1.810,-0.251271,-0.251154,0.947541,100039.55,-73,-123,+209
146459,9.315,-1.514,1.784,-0.109198,-0.285741,0.991706,100037.49,-73,-123,+209
146469,9.123,-1.546,1.899,0.031811,-0.313410,1.039595,100037.49,-71,-125,+209
146480,9.297,-1.997,1.850,0.097793,-0.337355,1.080036,100037.70,-70,-127,+209
146490,9.710,-2.396,1.600,0.096197,-0.355979,1.105045,100040.55,-68,-128,+209
146499,9.939,-2.678,1.408,0.044050,-0.367154,1.109834,100040.55,-68,-128,+209
146509,9.817,-2.824,1.250,0.009463,-0.379392,1.094935,100039.66,-66,-129,+208
146520,9.637,-2.857,1.188,-0.019803,-0.386842,1.086421,100039.02,-65,-130,+207
146530,9.572,-2.980,1.198,-0.044280,-0.388970,1.088017,100039.02,-63,-133,+207
146539,9.687,-3.025,1.134,-0.069822,-0.391098,1.092274,100036.33,-63,-133,+207
146549,9.766,-3.016,1.164,-0.099088,-0.400144,1.096531,100038.38,-62,-135,+206
146560,9.808,-3.075,1.256,-0.110794,-0.401741,1.119944,100039.02,-60,-136,+205
146570,9.835,-3.297,1.453,-0.129418,-0.405998,1.144953,100039.06,-58,-137,+205
146580,9.798,-3.771,1.738,-0.192207,-0.409722,1.165705,100039.77,-58,-137,+205
146589,9.854,-4.127,1.789,-0.311399,-0.419300,1.180072,100038.46,-56,-141,+204
146599,10.077,-4.130,1.939,-0.480078,-0.420897,1.186990,100039.30,-54,-143,+202
146610,10.059,-4.188,2.597,-0.647693,-0.410787,1.197632,100039.30,-53,-146,+200
146619,10.516,-3.908,2.147,-0.780188,-0.435264,1.219981,100036.99,-53,-146,+200
146629,10.925,-3.886,1.922,-0.846702,-0.470915,1.240201,100036.99,-52,-150,+198
146639,11.394,-3.844,1.489,-0.910555,-0.535832,1.276384,100039.78,-49,-154,+195
146650,12.071,-3.691,1.102,-0.946739,-0.599685,1.321082,100039.63,-47,-158,+193
146660,12.737,-3.647,0.646,-0.961638,-0.647575,1.373760,100036.89,-47,-158,+193
146669,12.993,-3.611,-0.027,-0.977069,-0.677373,1.430696,100037.11,-45,-161,+190
146679,13.055,-3.529,-0.419,-1.058482,-0.719410,1.487632,100037.11,-43,-166,+187
146690,13.118,-3.289,-0.630,-1.139362,-0.788052,1.552017,100038.90,-39,-170,+183
146700,13.482,-3.016,-0.540,-1.181931,-0.873722,1.628641,100038.99,-39,-170,+183
146710,14.375,-2.896,-0.204,-1.174482,-0.993447,1.701008,100038.48,-37,-174,+180
146719,15.869,-2.502,0.743,-1.148940,-1.129667,1.765393,100038.48,-34,-179,+175
146729,17.388,-2.062,1.842,-1.158518,-1.248327,1.817540,100038.48,-32,-184,+170
146740,18.123,-1.474,2.784,-1.195234,-1.316437,1.857448,100038.11,-28,-184,+170
146749,18.085,-0.525,3.701,-1.320812,-1.355814,1.877668,100038.91,-28,-188,+166
146759,17.417,0.466,4.188,-1.483105,-1.372309,1.903742,100037.28,-25,-192,+161
146769,16.502,1.531,4.098,-1.628903,-1.348364,1.929815,100036.22,-21,-196,+154
146780,15.963,1.443,3.390,-1.709784,-1.321759,1.987815,100036.22,-18,-200,+149
146790,15.972,0.073,2.361,-1.618793,-1.348896,2.100090,100038.38,-18,-200,+149
146799,16.316,-2.240,2.239,-1.333582,-1.444144,2.306017,100038.42,-13,-206,+144
146809,15.489,-2.605,2.643,-1.302188,-1.560676,2.292714,100035.88,-7,-209,+139
146820,13.524,-1.857,3.965,-1.170225,-1.543116,2.168200,100035.88,-3,-212,+135
146830,12.368,-2.331,4.262,-0.661528,-1.497887,2.184164,100037.71,-3,-212,+135
146840,12.058,-2.797,4.350,-0.135803,-1.421795,2.187888,100038.71,+2,-214,+134
146849,11.075,-1.876,4.740,0.247316,-1.344639,2.030916,100038.71,+6,-215,+134
146860,8.972,-0.239,4.526,0.595316,-1.247795,1.670146,100038.40,+9,-214,+136
146870,5.177,-4.097,2.720,0.918838,-1.091887,1.269467,100035.98,+9,-214,+136
146879,2.969,-10.061,3.361,0.873077,-0.821575,1.280109,100035.98,+12,-214,+138
146889,6.002,-4.729,2.936,-0.266702,-0.649172,0.775137,100041.11,+14,-213,+138
146899,7.652,-0.940,2.673,-1.194170,-0.512419,0.039761,100041.06,+13,-216,+134
146910,5.417,1.532,2.202,-1.470867,-0.427814,-0.531193,100035.81,+13,-216,+134
146920,4.372,2.949,0.665,-1.538445,-0.433667,-0.726477,100036.33,+9,-218,+129
146930,4.381,2.844,0.119,-1.277711,-0.343209,-0.881853,100039.32,+5,-218,+125
146939,4.646,3.316,0.173,-0.829674,-0.276163,-1.067559,100037.32,+1,-219,+122
146950,4.760,3.906,-0.187,-0.293308,-0.255943,-1.284128,100034.54,+1,-219,+122
146960,4.466,3.013,-0.269,0.429297,-0.177722,-1.530495,100033.54,-4,-219,+123
146969,4.372,1.354,-0.095,1.140728,-0.069172,-1.769944,100033.54,-11,-215,+127
146979,4.439,0.262,0.296,1.736691,0.054277,-1.981192,100033.54,-18,-211,+132
146990,4.779,-0.214,1.035,2.171957,0.186241,-2.203614,100036.83,-18,-211,+132
147000,5.289,-0.556,1.581,2.523681,0.276699,-2.439870,100034.05,-26,-206,+141
147009,5.872,-1.068,1.873,2.819002,0.330974,-2.671338,100033.84,-34,-198,+149
147019,6.866,-1.685,1.811,3.049938,0.376736,-2.897485,100032.36,-43,-188,+158
147030,7.845,-1.687,1.333,3.147846,0.399617,-3.135338,100032.36,-43,-188,+158
147040,8.031,-1.771,1.719,3.229791,0.462938,-3.317852,100033.28,-53,-178,+168
147050,8.156,-2.055,2.032,3.169662,0.510296,-3.447154,100034.20,-62,-168,+177
147059,8.590,-3.403,2.143,2.866892,0.543818,-3.528567,100031.34,-70,-156,+185
147069,9.452,-4.867,2.519,2.297003,0.574149,-3.655209,100031.34,-70,-156,+185
147080,9.841,-5.622,2.711,1.678691,0.620442,-3.874438,100031.34,-79,-145,+190
147090,9.744,-5.815,2.621,1.225866,0.718883,-4.101117,100031.45,-87,-135,+194
147099,9.777,-5.673,2.418,0.974178,0.851910,-4.235741,100034.87,-95,-125,+197
147109,10.373,-5.272,2.270,0.861370,0.991855,-4.302255,100033.96,-95,-125,+197
147120,11.402,-4.980,2.178,0.855517,1.117433,-4.340566,100032.55,-102,-115,+200
147130,12.250,-5.146,2.029,0.928948,1.237157,-4.325667,100032.55,-107,-105,+205
147140,12.639,-5.421,1.849,1.064104,1.355818,-4.269796,100032.30,-112,-93,+209
147149,12.944,-5.220,2.061,1.258856,1.475543,-4.208071,100035.71,-112,-93,+209
147160,13.259,-4.962,2.276,1.511608,1.580368,-4.159649,100034.24,-116,-81,+214
147170,13.615,-4.954,2.263,1.722856,1.649010,-4.112291,100032.35,-119,-65,+219
147180,14.174,-5.146,1.672,1.820764,1.662845,-4.055888,100035.20,-120,-51,+224
147190,14.299,-5.928,1.332,1.884617,1.685726,-3.978200,100034.24,-120,-51,+230
147200,14.025,-6.678,1.377,1.877700,1.697432,-3.835594,100034.24,-120,-37,+230
147210,13.638,-6.966,1.590,1.837260,1.691047,-3.667980,100031.73,-119,-22,+235
147220,13.516,-6.673,1.747,1.846838,1.675084,-3.515264,100032.73,-117,-8,+238
147229,13.429,-6.965,1.504,1.948471,1.654331,-3.336475,100032.73,-113,-165,+243
147240,13.272,-7.904,0.965,1.975608,1.616374,-3.119907,100036.09,-113,+6,+243
147250,13.038,-8.679,0.574,1.775003,1.563341,-2.978365,100036.09,-109,+20,+246
147260,12.477,-9.429,0.640,1.447223,1.493102,-2.824054,100035.39,-105,+31,+248
147270,11.636,-9.547,0.802,1.106141,1.385616,-2.603760,100035.92,-101,+40,+251
147279,11.278,-9.082,0.843,0.888508,1.280790,-2.350476,100040.43,-101,+40,+251
147290,10.911,-9.150,0.758,0.785279,1.194057,-2.096128,100036.74,-96,+48,+253
147300,10.452,-10.063,0.008,0.694820,1.111579,-1.775265,100038.12,-93,+54,+255
147310,10.160,-11.332,-0.827,0.521352,1.031231,-1.386825,100037.07,-89,+59,+257
147319,9.860,-12.672,-1.277,0.231352,0.912038,-0.937724,100037.07,-89,+59,+257
147330,9.367,-13.273,-1.342,-0.143253,0.741231,-0.458293,100037.07,-86,+62,+258
147340,9.038,-12.563,-1.432,-0.410904,0.527323,-0.010257,100041.01,-83,+60,+258
147350,9.573,-9.978,-1.714,-0.444959,0.281488,0.406385,100044.05,-83,+58,+259
147359,10.258,-8.661,-1.438,-0.084189,0.051617,0.873045,100041.63,-83,+58,+259
147369,10.965,-7.102,1.787,0.609683,-0.134622,1.399302,100038.32,-83,+56,+260
147380,14.728,-1.916,7.635,1.189150,-0.139411,1.856384,100038.32,-85,+58,+258
147390,27.897,13.345,-2.349,0.504325,-0.873722,1.741980,100038.66,-88,+56,+257
147400,28.444,6.636,-6.655,0.734728,-0.746016,1.887778,100041.52,-88,+56,+257
147409,20.303,-8.251,-1.305,1.816507,-0.317135,2.809392,100037.66,-89,+56,+256
147420,14.147,-9.568,-1.008,1.465315,-0.394823,2.824824,100037.66,-91,+57,+255
147430,5.384,-5.974,-0.400,0.191976,-0.503906,2.357099,100043.93,-94,+52,+254
147440,0.106,-0.442,1.719,-0.446555,-0.400676,1.954292,100043.93,-94,+52,+254
147449,3.290,-0.706,4.592,-0.010757,-0.130365,2.175650,100042.77,-95,+47,+254
147460,9.729,-3.739,4.909,0.705994,0.006388,2.381044,100037.37,-94,+44,+255
147470,14.514,-5.105,2.070,0.707591,-0.273502,2.240035,100039.21,-96,+42,+254
147480,14.103,-5.902,1.211,0.305316,-0.379392,1.932476,100039.21,-96,+42,+254
147490,11.594,-4.215,1.951,-0.283730,-0.348530,1.557338,100040.21,-96,+40,+253
147500,9.687,-1.929,1.207,-0.602464,-0.462401,1.314696,100039.05,-98,+35,+252
147510,7.922,-0.334,0.830,-0.434849,-0.477832,1.176880,100038.59,-100,+32,+252
147520,8.080,0.374,0.742,0.019041,-0.386842,1.174751,100036.76,-100,+32,+252
147530,9.556,-0.073,1.076,0.502728,-0.351722,1.239137,100041.63,-100,+30,+250
147539,10.385,-1.045,1.127,0.738453,-0.288401,1.219981,100037.01,-101,+30,+252
147550,10.504,-1.713,1.140,0.692692,-0.196346,1.135907,100037.01,-102,+29,+251
147560,9.953,-1.851,1.762,0.564453,-0.141007,1.048109,100038.96,-102,+29,+251
147570,9.149,-1.948,1.909,0.385664,-0.121319,0.956054,100036.70,-102,+28,+252
147579,9.113,-1.947,1.716,0.134508,-0.110145,0.901247,100036.70,-102,+28,+250
147590,9.608,-1.772,1.367,-0.172519,-0.115998,0.865596,100039.74,-102,+25,+250
147600,10.101,-1.312,1.211,-0.425803,-0.114401,0.835265,100037.70,-102,+25,+250
147610,10.143,-0.622,1.289,-0.524243,-0.101631,0.823559,100042.05,-103,+22,+250
147620,9.663,-0.400,1.241,-0.439638,-0.076089,0.813981,100038.80,-103,+18,+250
147630,9.512,-0.413,1.169,-0.277344,-0.037245,0.830476,100038.80,-102,+16,+250
147640,9.706,-0.506,1.340,-0.169326,-0.027135,0.865596,100038.86,-102,+16,+250
147650,9.647,-1.126,1.274,-0.133675,-0.021814,0.878898,100038.83,-102,+14,+250
147660,9.644,-1.541,1.369,-0.151767,-0.028200,0.891669,100039.78,-102,+12,+250
147670,9.609,-1.998,1.613,-0.195400,-0.043631,0.892733,100039.78,-102,+9,+250
147680,9.584,-1.860,1.783,-0.265106,-0.070236,0.875174,100039.78,-102,+9,+250
147690,9.440,-1.552,1.708,-0.302886,-0.089924,0.863999,100043.17,-102,+7,+250
147700,9.421,-1.362,1.563,-0.302354,-0.094181,0.869320,100041.44,-102,+5,+250
147709,9.584,-1.479,1.513,-0.286390,-0.103227,0.889541,100037.72,-101,+1,+250
147720,9.779,-1.520,1.516,-0.273088,-0.101631,0.903907,100038.86,-102,+0,+248
147730,9.742,-1.563,1.411,-0.265106,-0.102163,0.918807,100038.86,-102,+0,+248
147740,9.757,-1.984,1.441,-0.281601,-0.109080,0.937430,100038.80,-101,-4,+249
147750,9.756,-2.241,1.784,-0.327363,-0.121851,0.956586,100037.73,-101,-7,+248
147760,9.712,-1.991,1.910,-0.412500,-0.145264,0.972550,100035.18,-101,-10,+247
147770,9.875,-1.917,1.942,-0.449748,-0.179319,0.993834,100035.18,-101,-10,+247
147780,10.074,-1.912,2.006,-0.413032,-0.213374,1.028421,100041.63,-100,-13,+248
147789,9.990,-1.976,2.017,-0.360354,-0.245300,1.059816,100041.63,-102,-16,+246
147800,9.810,-2.510,1.723,-0.309271,-0.269245,1.080036,100038.31,-101,-20,+246
147810,9.765,-3.015,1.490,-0.318317,-0.281484,1.097063,100039.89,-101,-20,+246
147820,9.706,-3.095,1.356,-0.403987,-0.296383,1.098128,100037.00,-101,-24,+246
147825,9.567,-3.078,1.309,-0.472097,-0.299576,1.092274,100037.00,-101,-24,+246
147835,9.625,-2.876,1.471,-0.510941,-0.316071,1.098660,100038.32,-101,-28,+245
147845,9.599,-2.318,2.142,-0.508812,-0.375135,1.118880,100039.63,-100,-30,+243
147855,9.335,-2.229,2.361,-0.385895,-0.432603,1.153467,100037.52,-101,-34,+242
147865,9.473,-2.940,1.837,-0.199124,-0.469319,1.203485,100038.74,-101,-34,+242
147875,9.725,-3.567,1.528,-0.169326,-0.493264,1.225302,100038.74,-101,-38,+242
147885,9.895,-4.206,1.216,-0.293308,-0.505502,1.235944,100042.12,-102,-41,+240
147895,10.217,-4.328,0.841,-0.456665,-0.500181,1.246586,100041.32,-102,-44,+239
147905,10.558,-4.371,0.743,-0.606720,-0.473043,1.240733,100039.59,-102,-44,+238
147915,10.897,-4.292,0.377,-0.730170,-0.460273,1.234880,100037.85,-102,-49,+238
147924,11.157,-3.910,-0.042,-0.831271,-0.489539,1.224770,100037.85,-102,-54,+236
147935,11.175,-3.455,-0.138,-0.891931,-0.547007,1.224770,100042.46,-101,-60,+233
147945,11.271,-2.895,-0.033,-0.828610,-0.616713,1.262550,100041.93,-102,-64,+231
147955,11.692,-2.792,-0.159,-0.640775,-0.722071,1.318421,100041.57,-102,-64,+231
147965,12.122,-2.948,-0.169,-0.431124,-0.815722,1.390788,100038.41,-102,-68,+229
147975,12.384,-3.324,-0.139,-0.327363,-0.874254,1.459430,100038.41,-103,-72,+228
147985,12.607,-3.490,-0.090,-0.348647,-0.934382,1.518494,100041.09,-103,-77,+226
147995,12.980,-3.704,0.190,-0.427399,-1.018456,1.589265,100037.79,-103,-77,+226
148005,13.617,-3.523,0.665,-0.565216,-1.103593,1.666953,100036.88,-104,-80,+223
148015,14.417,-3.276,1.453,-0.742940,-1.180217,1.745173,100038.62,-104,-87,+219
148025,15.149,-3.170,1.927,-0.925454,-1.244603,1.828182,100038.62,-104,-93,+216
148035,16.077,-2.636,2.336,-1.132445,-1.309520,1.902678,100041.35,-104,-93,+216
148045,17.365,-2.205,2.923,-1.359124,-1.390401,1.967063,100040.93,-105,-100,+211
148055,18.646,-1.211,3.369,-1.628371,-1.443079,1.991540,100036.41,-105,-108,+206
148065,19.183,0.671,3.924,-1.921031,-1.464896,1.949503,100036.10,-104,-117,+199
148075,18.798,3.371,4.259,-2.109398,-1.473942,1.863834,100036.10,-104,-117,+199
148085,18.314,4.996,3.959,-1.976371,-1.505868,1.869155,100038.43,-104,-125,+193
148096,19.066,2.746,2.918,-1.323472,-1.606969,2.118182,100035.54,-103,-133,+186
148105,20.152,-0.725,3.415,-0.493913,-1.817685,2.525246,100038.16,-102,-138,+183
148115,18.824,-2.120,4.764,-0.314060,-2.050749,2.561429,100035.12,-102,-138,+183
148125,16.230,-1.755,6.163,-0.180501,-2.112473,2.491723,100035.12,-100,-144,+178
148135,15.308,-1.978,6.300,0.386196,-2.115666,2.544934,100038.59,-98,-147,+175
148145,14.140,-2.517,6.961,0.839022,-2.051813,2.523649,100035.91,-98,-150,+173
148155,12.222,-0.702,6.386,1.083792,-1.956565,2.263448,100036.55,-98,-150,+173
148165,10.769,1.124,2.179,1.384434,-1.893244,1.810090,100037.64,-96,-151,+173
148175,5.671,-3.383,3.211,1.725517,-1.665501,1.454109,100037.64,-96,-150,+174
148186,4.296,-8.711,3.386,1.595682,-1.445208,1.371632,100039.97,-95,-147,+175
148195,8.261,-3.433,3.087,0.514435,-1.312181,0.793229,100037.03,-95,-147,+175
148205,7.148,-1.322,2.713,-0.102280,-1.227575,0.089247,100039.03,-97,-147,+173
148215,5.350,0.466,2.195,-0.170390,-1.100401,-0.363046,100039.13,-100,-147,+170
148226,4.499,0.624,1.606,-0.134739,-1.036016,-0.583871,100039.13,-103,-146,+168
148235,3.928,0.723,1.235,0.118013,-0.915227,-0.883449,100037.59,-103,-146,+168
148245,3.925,0.800,1.365,0.491554,-0.765704,-1.197926,100036.43,-108,-143,+167
148255,4.240,1.597,1.362,0.813481,-0.668328,-1.483137,100035.16,-113,-138,+166
148265,4.107,1.417,1.441,1.221077,-0.579997,-1.794421,100034.96,-119,-131,+168
148275,3.987,-0.320,1.613,1.588232,-0.500713,-2.098256,100034.96,-119,-131,+168
148285,3.960,-1.526,1.527,1.936764,-0.407594,-2.363246,100033.13,-124,-122,+171
148295,4.384,-2.219,1.941,2.142691,-0.261264,-2.617063,100035.39,-132,-112,+174
148305,4.675,-2.517,2.420,2.170892,-0.167612,-2.850127,100034.13,-136,-100,+176
148315,4.707,-2.578,2.522,2.127792,-0.083007,-3.086916,100030.08,-136,-100,+176
148325,5.074,-2.203,2.501,2.043718,0.005855,-3.350310,100030.08,-141,-87,+180
148335,5.292,-2.601,3.111,2.040526,0.120791,-3.551448,100036.34,-147,-72,+182
148345,5.751,-2.720,3.438,1.926122,0.195286,-3.755246,100032.81,-153,-58,+184
148356,6.368,-2.577,3.603,1.642508,0.277231,-3.990970,100034.39,-156,-43,+186
148365,7.439,-2.572,3.434,1.355168,0.386314,-4.171355,100032.66,-156,-43,+186
148375,8.314,-3.142,2.894,1.183297,0.536901,-4.281502,100032.66,-159,-27,+187
148385,9.006,-4.139,2.773,1.131150,0.753470,-4.336842,100034.37,-160,-12,+190
148396,9.693,-4.913,3.125,1.003444,0.939708,-4.374621,100032.26,-161,+2,+192
148405,10.142,-5.430,3.290,0.826251,1.085506,-4.449649,100030.16,-161,+2,+192
148415,10.563,-5.476,3.462,0.734196,1.239818,-4.557135,100031.26,-160,+17,+194
148425,10.882,-5.246,3.172,0.761334,1.406900,-4.654511,100031.26,-156,+32,+197
148435,11.271,-5.375,2.858,0.933205,1.605377,-4.692823,100036.33,-153,+48,+201
148446,11.716,-5.815,2.565,1.154563,1.784166,-4.668878,100037.86,-153,+48,+201
148455,12.044,-6.085,2.472,1.364746,1.939010,-4.664621,100033.61,-146,+64,+204
148465,12.730,-5.486,2.402,1.429664,2.039579,-4.681649,100034.59,-138,+81,+207
148475,13.494,-5.597,1.654,1.480214,2.093322,-4.642272,100034.59,-130,+97,+211
148486,14.073,-7.244,0.847,1.630801,2.143872,-4.525741,100035.01,-130,+97,+211
148495,14.566,-8.805,0.235,1.566948,2.114074,-4.402291,100036.68,-120,+111,+215
148505,15.020,-9.186,0.061,1.311003,2.027873,-4.285759,100036.79,-109,+125,+216
148515,15.207,-9.205,0.320,0.989609,1.909744,-4.161777,100033.70,-99,+136,+218
148526,14.815,-9.232,0.374,0.711848,1.772460,-4.019704,100033.70,-99,+136,+218
148531,14.360,-9.408,0.337,0.589994,1.709671,-3.882952,100038.83,-88,+146,+221
148540,14.032,-10.145,0.213,0.579352,1.679341,-3.677558,100038.83,-88,+146,+221
148550,13.557,-11.807,0.169,0.661829,1.661249,-3.325301,100039.88,-78,+154,+222
148560,13.308,-13.431,-0.176,0.632563,1.625065,-2.935797,100036.31,-68,+162,+223
148571,12.834,-13.859,-0.556,0.430362,1.544717,-2.578751,100037.79,-59,+167,+224
148581,12.071,-13.107,-0.703,0.154197,1.437231,-2.225430,100037.79,-52,+171,+226
148590,11.317,-12.808,-0.595,-0.082060,1.280790,-1.784311,100041.15,-52,+171,+226
148600,10.786,-13.103,-0.753,-0.256060,1.072735,-1.281467,100039.37,-46,+173,+227
148611,10.549,-13.702,-0.855,-0.406115,0.858827,-0.759468,100039.37,-41,+172,+228
148620,10.004,-14.470,-1.570,-0.537014,0.649176,-0.237468,100038.73,-40,+170,+231
148630,9.877,-14.303,-2.467,-0.629601,0.429415,0.327633,100038.73,-40,+170,+231
148640,10.648,-12.558,-2.760,-0.638647,0.155378,0.884752,100042.78,-41,+168,+232
148651,11.680,-10.252,-1.807,-0.410904,-0.180383,1.369503,100041.38,-43,+164,+233
148661,12.706,-4.278,6.411,0.177609,-0.262860,1.818072,100038.69,-47,+162,+231
148670,21.591,13.122,6.325,-0.130482,-0.617245,1.726549,100036.02,-47,+162,+231
148680,29.007,19.105,-5.647,-0.232647,-1.061025,1.226898,100036.02,-52,+158,+230
148690,22.967,1.258,-3.103,2.251773,-0.662474,2.534824,100042.52,-58,+160,+227
148701,16.103,-7.948,-0.187,3.747534,-0.682162,3.159521,100040.77,-65,+167,+221
148711,7.409,-8.624,-0.658,2.699810,-0.676841,2.489594,100041.55,-65,+167,+221
148720,1.098,-3.393,0.181,1.243425,-0.511887,1.919173,100041.55,-69,+170,+218
148730,1.848,-1.056,3.393,0.713976,-0.401741,2.223540,100041.55,-74,+167,+216
148741,6.518,-3.103,5.835,0.749095,-0.267117,2.390090,100039.64,-79,+165,+214
148750,12.796,-5.654,3.337,0.604894,-0.376732,2.382108,100041.69,-79,+165,+214
148760,16.680,-7.752,-0.003,0.176545,-0.779539,2.391154,100038.58,-85,+162,+214
148770,14.521,-7.703,-0.295,-0.276812,-0.810401,2.039430,100041.53,-90,+157,+212
148781,11.406,-4.365,-1.031,-0.695583,-0.724199,1.515302,100041.53,-94,+152,+212
148791,9.482,-0.972,-0.739,-0.682812,-0.632676,1.341834,100043.44,-94,+152,+212
148801,7.677,0.496,0.141,-0.367271,-0.494328,1.413669,100040.70,-98,+147,+211
148810,7.775,0.113,-0.124,-0.037363,-0.362897,1.495081,100041.59,-102,+144,+211
148820,9.356,-1.303,0.289,0.123866,-0.238383,1.525944,100041.59,-103,+141,+211
148831,10.589,-2.432,0.967,-0.032574,-0.173998,1.480714,100042.73,-103,+141,+211
148840,10.423,-3.199,1.272,-0.275748,-0.145796,1.323742,100042.73,-106,+138,+211
148850,9.762,-3.103,1.340,-0.515730,-0.120255,1.143357,100039.48,-108,+133,+211
148860,9.382,-2.757,1.593,-0.723252,-0.111741,1.008201,100036.28,-109,+130,+212
148871,9.494,-2.188,1.499,-0.883417,-0.130897,0.903907,100038.58,-109,+130,+212
148881,9.803,-1.350,1.618,-0.893528,-0.163001,0.814513,100041.57,-111,+125,+212
148890,9.813,-0.915,1.564,-0.774867,-0.181979,0.765559,100041.57,-113,+121,+213
148900,9.586,-0.711,1.290,-0.572133,-0.160695,0.740018,100040.73,-113,+118,+214
148911,9.440,-1.037,1.288,-0.377381,-0.116530,0.738953,100038.95,-113,+118,+214
148921,9.550,-1.400,1.171,-0.305014,-0.083539,0.760238,100038.79,-115,+115,+214
148931,9.796,-0.960,1.217,-0.365143,-0.059594,0.786843,100041.30,-116,+113,+214
148940,9.850,-1.025,1.425,-0.393876,-0.056401,0.813449,100041.88,-117,+109,+214
148951,9.686,-1.050,1.614,-0.342262,-0.064383,0.838990,100038.56,-117,+109,+214
148961,9.453,-0.992,2.029,-0.239033,-0.067576,0.856018,100038.56,-117,+107,+215
148970,9.239,-1.435,2.364,-0.129418,-0.091521,0.882091,100038.88,-119,+104,+214
148980,9.251,-1.897,2.382,-0.091638,-0.130897,0.908696,100038.88,-120,+102,+215
148990,9.713,-2.275,1.837,-0.150170,-0.186768,0.918807,100040.95,-121,+100,+215
149001,10.120,-2.160,1.474,-0.260317,-0.229337,0.928385,100042.21,-121,+100,+215
149010,10.060,-1.948,1.495,-0.353436,-0.254878,0.955522,100041.05,-122,+97,+215
149020,9.705,-1.764,1.480,-0.360354,-0.282016,0.984788,100039.95,-124,+93,+214
149030,9.471,-1.753,1.447,-0.292244,-0.317667,1.028953,100039.95,-126,+90,+214
149041,9.457,-1.777,1.610,-0.222537,-0.351190,1.089614,100041.70,-126,+90,+214
149051,9.426,-2.032,1.815,-0.177308,-0.383117,1.150806,100040.04,-128,+87,+213
149061,9.585,-2.452,1.758,-0.182629,-0.411851,1.197100,100041.20,-129,+83,+212
149070,9.766,-2.762,1.561,-0.233179,-0.437924,1.224770,100041.20,-132,+79,+212
149081,9.772,-3.052,1.392,-0.281601,-0.466658,1.242861,100041.20,-132,+79,+212
149091,9.708,-3.249,1.170,-0.321510,-0.496988,1.250311,100040.80,-133,+76,+210
149100,9.675,-3.339,1.380,-0.374721,-0.516676,1.254036,100041.31,-135,+70,+210
149110,9.537,-3.729,1.419,-0.419418,-0.535300,1.256164,100039.73,-137,+66,+209
149121,9.603,-4.068,1.236,-0.483271,-0.534236,1.252972,100040.80,-137,+66,+209
149131,9.839,-4.029,1.179,-0.615234,-0.543282,1.242861,100040.80,-139,+62,+208
149141,9.967,-3.892,1.273,-0.739216,-0.562970,1.237540,100039.98,-141,+56,+206
149150,10.148,-3.564,1.435,-0.805197,-0.586383,1.250311,100041.19,-143,+51,+206
149160,10.549,-3.472,1.334,-0.792959,-0.625759,1.280109,100040.45,-143,+51,+206
149171,11.099,-3.644,1.120,-0.750922,-0.664071,1.324806,100040.45,-145,+45,+206
149181,11.498,-4.051,0.756,-0.779124,-0.688548,1.370568,100041.42,-146,+40,+204
149191,11.907,-4.068,0.136,-0.902573,-0.725795,1.405155,100040.27,-148,+34,+201
149200,12.362,-3.500,-0.356,-1.032940,-0.790181,1.444531,100040.27,-148,+34,+201
149211,12.714,-2.932,-0.603,-1.066463,-0.875318,1.498274,100041.89,-150,+28,+200
149221,12.976,-2.873,-0.763,-0.994096,-0.972162,1.574366,100039.22,-152,+20,+197
149230,13.277,-2.951,-0.798,-0.920133,-1.073263,1.654714,100039.22,-155,+14,+194
149240,13.873,-2.877,-0.360,-0.910555,-1.191924,1.733999,100041.55,-155,+14,+194
149251,14.638,-3.042,0.466,-0.923326,-1.326548,1.807430,100043.70,-157,+6,+191
149261,15.808,-3.189,1.381,-0.937161,-1.462235,1.881393,100040.91,-159,-1,+187
149271,17.545,-2.930,2.419,-1.014849,-1.585153,1.923430,100040.66,-162,-9,+183
149280,19.443,-1.873,3.460,-1.170757,-1.689978,1.945246,100041.41,-162,-9,+183
149291,20.515,-0.166,4.515,-1.333582,-1.791611,1.955889,100038.94,-165,-16,+178
149301,20.485,2.522,5.208,-1.446922,-1.889520,1.968659,100039.03,-168,-26,+172
149311,19.121,4.720,5.155,-1.367637,-1.928896,1.988879,100039.03,-170,-34,+166
149320,18.045,4.060,4.066,-0.937161,-1.955501,2.104347,100039.41,-170,-34,+166
149330,17.818,-0.345,2.944,-0.305546,-2.026272,2.356567,100039.41,-170,-42,+160
149341,17.371,-3.842,2.847,0.021701,-2.141740,2.525246,100041.59,-172,-50,+154
149351,15.198,-4.020,4.150,-0.088446,-2.135886,2.375191,100038.19,-172,-56,+149
149360,13.641,-3.551,5.267,0.091940,-2.041703,2.319319,100037.81,-172,-56,+149
149370,12.741,-3.640,6.163,0.442068,-1.885795,2.340072,100036.92,-173,-62,+144
149381,11.916,-1.979,7.274,0.738453,-1.660712,2.244292,100036.92,-171,-68,+141
149391,10.671,1.756,6.329,1.063040,-1.499483,1.856384,100037.83,-171,-71,+139
149401,8.171,3.226,3.215,1.402526,-1.419134,1.285430,100038.69,-171,-71,+139
149410,3.590,-3.723,0.581,1.715939,-1.275465,1.033210,100037.72,-171,-72,+138
149421,4.636,-10.657,1.982,1.478618,-0.941300,1.324274,100037.72,-171,-72,+137
149431,7.445,-4.663,2.196,0.325536,-0.841795,0.796953,100037.72,-171,-75,+136
149441,6.936,-0.787,2.758,-0.275748,-0.589043,-0.043780,100041.12,-171,-75,+136
149450,5.369,1.128,2.619,-0.206042,-0.435796,-0.514697,100038.74,-173,-75,+134
149460,4.244,2.124,1.817,-0.067693,-0.347998,-0.789266,100036.12,-174,-72,+133
149471,4.021,1.829,1.211,0.342031,-0.197943,-1.064899,100035.60,-177,-70,+133
149481,4.479,0.859,0.972,0.811352,-0.069704,-1.295834,100035.60,-179,-64,+135
149491,4.649,0.243,0.962,1.100288,0.009048,-1.532091,100041.08,-179,-64,+135
149500,4.841,0.061,0.773,1.239168,0.084076,-1.815705,100036.14,-180,-56,+137
149511,5.153,-0.094,0.742,1.309407,0.166553,-2.095063,100037.05,-183,-47,+138
149521,5.146,-0.221,0.693,1.403590,0.250626,-2.351540,100037.05,-184,-38,+141
149531,5.189,-0.515,0.731,1.506287,0.341085,-2.587797,100035.46,-184,-38,+141
149540,5.541,-1.164,0.961,1.624948,0.432075,-2.792127,100038.09,-186,-26,+143
149551,5.976,-1.617,1.231,1.728709,0.531580,-2.991668,100038.09,-188,-14,+146
149561,6.431,-1.849,1.505,1.763296,0.630020,-3.200255,100033.73,-188,+0,+148
149571,6.844,-1.834,1.752,1.745737,0.717818,-3.429062,100034.52,-188,+0,+148
149580,7.288,-1.571,1.643,1.695719,0.804552,-3.697246,100034.52,-188,+14,+151
149591,7.903,-1.449,1.405,1.623884,0.898203,-3.944677,100036.97,-188,+30,+154
149601,8.571,-2.018,0.934,1.616966,0.984405,-4.081961,100032.19,-185,+46,+158
149611,9.202,-2.869,0.817,1.638251,1.090295,-4.176677,100033.88,-185,+46,+158
149621,9.676,-3.705,1.107,1.566948,1.198846,-4.283631,100034.14,-183,+63,+161
149630,9.905,-4.136,1.553,1.422746,1.288240,-4.406016,100035.22,-177,+81,+161
149641,10.175,-4.067,1.953,1.311003,1.371781,-4.545429,100036.84,-171,+97,+165
149651,10.627,-4.050,2.014,1.335480,1.470754,-4.683777,100034.48,-171,+97,+165
149661,11.256,-4.336,1.877,1.456801,1.575579,-4.779557,100035.84,-164,+114,+169
149670,11.978,-4.964,1.490,1.565884,1.656992,-4.829043,100035.84,-155,+131,+171
149681,12.808,-5.600,0.896,1.575994,1.712331,-4.860437,100035.84,-144,+148,+173
149691,13.688,-5.921,0.618,1.515333,1.734148,-4.876401,100038.95,-144,+148,+173
149701,14.226,-6.183,0.529,1.465847,1.728827,-4.874804,100036.95,-133,+165,+175
149710,14.611,-6.314,0.715,1.446159,1.690515,-4.840218,100040.10,-121,+181,+176
149721,15.013,-6.414,0.493,1.424343,1.629854,-4.763594,100037.84,-107,+196,+177
149731,15.598,-6.841,0.264,1.463187,1.603781,-4.639080,100037.84,-107,+196,+177
149741,16.233,-7.656,0.223,1.511608,1.576111,-4.457098,100041.63,-93,+209,+176
149751,16.270,-8.641,0.135,1.543535,1.553763,-4.251172,100038.50,-79,+220,+175
149761,16.176,-9.900,0.278,1.640379,1.517579,-3.999484,100038.27,-65,+232,+174
149771,15.511,-11.198,-0.071,1.693590,1.435102,-3.675429,100038.27,-65,+232,+174
149781,14.648,-12.180,-0.473,1.677627,1.359543,-3.272090,100038.27,-53,+241,+172
149791,13.598,-13.409,-0.580,1.543003,1.253121,-2.752219,100040.25,-42,+250,+169
149800,12.282,-14.782,-0.082,1.257260,1.080185,-2.173283,100041.98,-34,+255,+168
149811,10.937,-15.814,0.671,0.894361,0.880112,-1.606586,100040.83,-34,+255,+168
149821,9.887,-16.204,0.900,0.543169,0.656626,-1.055321,100038.27,-27,+259,+166
149831,9.534,-15.842,0.648,0.184527,0.423029,-0.409872,100038.27,-24,+261,+166
149841,9.391,-15.302,0.038,-0.074079,0.167617,0.278146,100041.38,-24,+260,+167
149851,9.084,-14.224,-0.581,-0.080464,-0.048952,0.863467,100041.85,-24,+260,+167
149861,9.629,-12.821,-1.413,0.052031,-0.225612,1.333852,100040.27,-28,+259,+167
149871,10.333,-12.684,1.422,0.290417,-0.328310,1.820733,100039.70,-34,+257,+166
149881,12.227,-6.801,11.384,0.282435,-0.065447,2.230457,100039.12,-39,+255,+165
149891,22.414,12.561,7.712,-1.253234,-0.274034,1.826054,100037.34,-39,+255,+165
149901,27.103,16.742,-5.741,-2.048206,-0.748676,1.217852,100037.34,-45,+250,+171
149911,20.458,0.234,-1.745,0.616600,-0.558181,2.517264,100042.48,-51,+245,+170
149921,14.940,-7.212,2.740,2.768984,-0.658218,3.158456,100039.38,-61,+247,+163
149931,6.736,-7.104,-0.998,2.548691,-0.708768,2.414035,100039.38,-68,+247,+163
149941,3.539,-2.112,-1.528,1.597278,-0.470383,1.795723,100041.81,-68,+247,+157
149951,3.940,-2.134,2.534,1.216820,-0.324585,2.230457,100040.81,-75,+247,+153
149961,6.899,-4.461,4.841,1.225333,-0.138346,2.429466,100039.55,-82,+245,+149
149971,12.024,-5.585,3.213,0.962471,-0.109612,2.203319,100038.13,-86,+242,+148
149981,14.566,-6.225,0.800,0.476655,-0.354915,2.011760,100041.61,-86,+242,+148
149991,13.480,-5.573,0.217,0.039261,-0.452823,1.789338,100038.63,-92,+239,+147
150001,12.123,-4.194,-1.250,-0.214556,-0.487942,1.527540,100042.30,-98,+235,+146
150011,10.364,-3.306,-2.004,-0.248078,-0.450695,1.359393,100040.19,-102,+232,+146
150021,9.007,-2.216,-0.970,-0.218280,-0.345337,1.351412,100040.19,-102,+232,+146
150031,8.960,-1.486,0.404,-0.214023,-0.275099,1.365247,100040.19,-105,+229,+146
150041,9.537,-1.445,0.579,-0.284262,-0.201135,1.318421,100041.77,-110,+225,+147
150051,10.071,-1.318,0.814,-0.355565,-0.120787,1.265742,100041.20,-113,+222,+148
150056,10.070,-1.472,1.084,-0.395473,-0.069704,1.194439,100040.46,-113,+222,+148
150066,9.920,-1.600,1.139,-0.384299,-0.044163,1.113027,100040.35,-115,+218,+148
150076,9.681,-1.956,1.221,-0.316188,-0.019686,1.007669,100040.35,-115,+218,+148
150086,9.554,-2.270,1.274,-0.320445,0.008516,0.885284,100042.73,-118,+215,+149
150096,9.465,-2.243,1.175,-0.429528,0.025011,0.757577,100039.89,-120,+213,+149
150106,9.354,-1.646,0.997,-0.537546,0.052149,0.655944,100041.78,-122,+210,+151
150116,9.289,-0.822,1.240,-0.518390,0.099507,0.603265,100040.38,-122,+210,+151
150126,9.239,-0.294,1.798,-0.368335,0.145800,0.589431,100040.38,-122,+208,+153
150136,9.256,-0.428,2.221,-0.153895,0.162296,0.603798,100042.73,-124,+206,+153
150146,9.103,-0.890,2.682,0.021169,0.124516,0.626146,100040.41,-124,+204,+153
150156,9.019,-1.289,2.729,0.111096,0.057470,0.640513,100041.63,-126,+204,+154
150166,9.208,-1.583,2.534,0.156325,0.000002,0.644770,100039.37,-126,+204,+154
150176,9.413,-1.792,1.760,0.163242,-0.026071,0.655412,100039.37,-128,+203,+153
150187,9.789,-1.497,1.353,0.096197,-0.034585,0.676165,100043.04,-129,+200,+153
150196,10.094,-1.445,1.015,-0.010757,-0.053741,0.708091,100041.51,-130,+199,+153
150206,10.123,-1.239,0.773,-0.090574,-0.056401,0.748531,100040.26,-130,+199,+153
150216,9.853,-1.073,0.920,-0.091638,-0.060126,0.790036,100039.15,-132,+197,+153
150225,9.681,-1.107,1.606,-0.028849,-0.086732,0.832073,100039.15,-134,+194,+153
150236,9.512,-1.292,1.944,0.062142,-0.134622,0.886880,100042.84,-136,+192,+153
150246,9.377,-1.740,2.030,0.181334,-0.171337,0.931045,100040.11,-136,+192,+153
150256,9.385,-2.338,1.867,0.247848,-0.202732,0.962440,100039.64,-138,+191,+152
150266,9.591,-2.205,1.628,0.191444,-0.222420,0.990109,100040.95,-141,+188,+151
150276,9.860,-1.786,1.839,0.085554,-0.243704,1.034806,100040.95,-143,+186,+151
150286,10.045,-1.929,1.686,0.012123,-0.277759,1.081100,100039.63,-143,+186,+151
150292,10.115,-1.883,1.719,-0.013418,-0.294254,1.101852,100038.63,-146,+182,+150
150301,9.977,-2.010,1.802,-0.005436,-0.319796,1.111962,100038.63,-146,+182,+150
150311,9.659,-2.204,1.859,0.040325,-0.347998,1.128990,100040.36,-148,+180,+149
150322,9.458,-2.482,1.717,0.115353,-0.374071,1.153467,100041.31,-151,+176,+149
150331,9.541,-2.682,1.630,0.168031,-0.386309,1.174219,100041.31,-154,+174,+147
150341,9.667,-3.003,1.382,0.143022,-0.383649,1.185926,100040.85,-154,+174,+147
150351,9.671,-3.103,1.103,0.043518,-0.376199,1.187522,100039.51,-157,+170,+146
150362,9.507,-3.008,1.059,-0.054390,-0.366089,1.192843,100041.13,-160,+166,+145
150371,9.529,-3.125,1.288,-0.101216,-0.364493,1.221577,100041.13,-163,+163,+145
150381,9.835,-3.613,1.325,-0.132611,-0.373539,1.241265,100041.13,-163,+163,+145
150391,10.180,-4.023,1.435,-0.245950,-0.357043,1.237008,100042.23,-166,+159,+144
150402,10.300,-4.488,1.624,-0.414629,-0.340548,1.223173,100042.91,-168,+156,+144
150411,10.056,-4.819,2.809,-0.648225,-0.293722,1.215192,100039.59,-170,+150,+144
150421,10.648,-4.164,2.228,-0.911087,-0.327245,1.212531,100039.70,-173,+145,+144
150431,11.116,-3.488,2.185,-1.013784,-0.391098,1.234348,100039.70,-173,+145,+144
150441,11.722,-3.379,2.064,-1.016977,-0.462933,1.305118,100041.77,-175,+139,+145
150452,12.343,-3.259,1.860,-0.996225,-0.542218,1.387063,100039.54,-178,+133,+144
150461,12.866,-3.309,1.587,-1.010592,-0.626291,1.475393,100039.15,-181,+126,+144
150471,13.425,-3.406,1.168,-1.024427,-0.691740,1.580751,100039.15,-181,+126,+144
150481,13.871,-3.394,0.878,-1.097858,-0.751337,1.675999,100043.77,-184,+119,+143
150491,14.345,-3.547,0.653,-1.202683,-0.829557,1.754751,100043.77,-187,+112,+142
150501,15.160,-3.377,0.541,-1.321876,-0.913630,1.845742,100040.45,-190,+103,+141
150511,16.459,-3.227,0.615,-1.458096,-0.996107,1.930879,100043.23,-190,+103,+141
150521,17.833,-3.113,0.774,-1.620922,-1.080713,2.000053,100041.03,-194,+95,+139
150526,18.474,-2.506,1.192,-1.778958,-1.138181,2.023466,100041.03,-194,+95,+139
150536,18.550,-1.324,1.792,-1.989674,-1.189263,2.008567,100041.67,-197,+84,+137
150546,18.612,0.429,2.489,-2.180169,-1.240878,2.024530,100039.84,-200,+74,+134
150556,18.867,2.624,3.167,-2.219013,-1.291960,2.074017,100041.52,-204,+63,+132
150566,18.928,4.261,3.408,-2.108334,-1.348896,2.134677,100037.42,-204,+63,+132
150576,18.642,3.605,2.823,-1.817270,-1.444144,2.230457,100037.42,-206,+53,+128
150586,18.290,0.282,2.280,-1.409674,-1.608034,2.406053,100042.07,-208,+42,+124
150596,17.089,-1.324,2.807,-1.227692,-1.781501,2.471503,100041.54,-211,+32,+119
150606,15.120,-0.762,3.997,-0.876500,-1.818217,2.468310,100041.90,-213,+32,+119
150617,13.733,-0.884,4.364,-0.253932,-1.779373,2.468310,100038.91,-213,+22,+114
150626,12.142,-1.885,4.727,0.223371,-1.652731,2.404989,100038.91,-215,+15,+108
150636,10.903,-0.980,4.903,0.438343,-1.484052,2.186292,100040.58,-215,+8,+103
150646,9.839,1.388,3.934,0.570839,-1.348896,1.765925,100038.78,-215,+4,+100
150657,7.393,1.920,1.339,0.728343,-1.324951,1.210403,100038.73,-215,+4,+100
150666,2.209,-4.733,2.440,0.988013,-1.024309,1.003412,100036.58,-217,+1,+97
150676,4.213,-7.148,1.446,0.597976,-0.893942,0.974678,100036.58,-216,-1,+94
150686,7.811,-3.349,1.358,-0.293308,-0.805612,0.593155,100044.29,-217,-2,+92
150696,6.914,0.470,2.249,-0.345987,-0.719410,-0.018771,100039.55,-217,-2,+92
150707,5.097,2.637,2.189,0.121738,-0.602878,-0.487027,100038.55,-219,-2,+90
150716,4.345,1.976,1.465,0.596380,-0.512419,-0.704128,100037.88,-219,+2,+90
150726,4.382,0.858,1.402,0.966728,-0.459209,-0.918036,100037.88,-219,+6,+88
150736,4.524,0.240,1.561,1.249278,-0.424089,-1.161210,100038.56,-219,+6,+88
150747,4.476,0.103,1.958,1.434453,-0.337887,-1.441632,100034.56,-220,+12,+88
150756,4.788,-0.498,2.307,1.574397,-0.238915,-1.726311,100038.88,-221,+22,+87
150766,5.340,-1.180,2.165,1.665920,-0.160695,-2.004072,100035.36,-221,+30,+87
150776,5.679,-1.338,1.811,1.645168,-0.105356,-2.267467,100035.36,-221,+30,+87
150787,5.867,-1.283,1.636,1.551517,-0.041502,-2.533522,100035.77,-222,+41,+87
150796,6.203,-1.199,1.638,1.431792,0.031397,-2.786806,100037.23,-221,+53,+86
150806,6.598,-1.188,1.680,1.335480,0.092057,-3.013485,100037.88,-220,+66,+87
150816,6.898,-1.182,1.696,1.266306,0.152186,-3.234842,100031.72,-220,+66,+87
150827,7.228,-1.317,1.810,1.263645,0.225085,-3.441833,100031.72,-219,+80,+86
150837,7.463,-1.607,1.790,1.336544,0.302773,-3.616897,100034.09,-216,+94,+86
150846,7.777,-1.575,2.157,1.448287,0.416644,-3.763759,100034.35,-212,+109,+86
150856,8.169,-1.546,2.479,1.588232,0.526259,-3.907961,100034.88,-212,+109,+86
150866,8.547,-1.860,2.662,1.776599,0.640662,-4.045246,100035.24,-207,+125,+86
150877,9.052,-2.435,2.840,1.964966,0.745488,-4.159649,100035.24,-200,+141,+86
150886,9.523,-2.882,3.094,2.127259,0.845525,-4.270860,100036.86,-193,+160,+85
150896,10.210,-3.374,3.421,2.248049,0.943433,-4.355465,100035.28,-193,+160,+85
150906,11.260,-3.856,3.627,2.260819,1.012075,-4.415062,100036.97,-185,+176,+85
150917,12.087,-4.652,3.639,2.210801,1.067946,-4.479979,100035.13,-175,+192,+83
150926,12.601,-5.434,3.718,2.114489,1.129671,-4.563520,100035.13,-164,+209,+82
150936,12.888,-5.936,3.744,1.955920,1.194589,-4.638016,100040.20,-164,+209,+82
150946,13.157,-6.073,3.922,1.759572,1.273873,-4.678456,100036.48,-152,+225,+81
150957,13.674,-6.080,3.950,1.571205,1.353689,-4.689631,100033.01,-138,+239,+80
150967,14.257,-5.967,3.793,1.430728,1.434570,-4.678988,100035.99,-123,+253,+79
150976,14.583,-5.840,3.558,1.374856,1.521836,-4.626309,100035.99,-123,+253,+79
150986,14.900,-5.791,3.416,1.418489,1.613359,-4.532126,100036.65,-109,+265,+79
150996,15.325,-5.989,3.545,1.596746,1.690870,-4.356884,100038.65,-94,+277,+78
151007,15.500,-6.533,3.191,1.789370,1.720313,-4.186787,100039.54,-78,+287,+74
151016,15.245,-7.730,2.590,1.951663,1.738405,-4.033539,100038.02,-78,+287,+74
151026,14.880,-8.488,1.865,1.861205,1.705946,-3.888273,100038.02,-63,+295,+71
151036,14.533,-9.124,1.328,1.663260,1.641029,-3.644035,100039.63,-49,+303,+68
151047,14.074,-10.317,1.049,1.463187,1.544185,-3.313062,100039.21,-35,+309,+64
151056,13.548,-12.315,1.113,1.214159,1.460643,-2.944843,100041.99,-24,+309,+63
151066,13.032,-14.691,0.843,0.782618,1.405304,-2.553742,100038.37,-24,+314,+63
151076,11.990,-16.640,0.332,0.091408,1.340919,-2.092403,100038.37,-14,+316,+63
151087,11.126,-16.462,-0.542,-0.766885,1.195653,-1.508678,100041.61,-8,+318,+67
151097,10.367,-13.796,-0.810,-1.526206,0.947158,-0.886110,100041.23,-3,+317,+73
151106,9.591,-10.722,-0.868,-1.808224,0.641727,-0.281101,100039.67,-3,+317,+73
151116,8.844,-8.748,-1.401,-1.544830,0.351195,0.278679,100037.41,-4,+316,+79
151127,7.877,-8.333,-1.638,-0.968555,0.181452,0.754385,100037.41,-7,+314,+82
151137,7.420,-8.137,-2.174,-0.384299,0.081415,1.102917,100040.11,-11,+313,+83
151146,8.116,-3.948,-2.501,0.045114,-0.119722,1.240201,100039.80,-11,+313,+83
151156,8.875,-1.650,4.349,0.891701,-0.177722,1.387595,100039.22,-16,+312,+82
151166,15.038,5.146,12.774,1.385499,0.147929,1.620127,100037.75,-21,+312,+76
151177,29.037,12.876,-3.917,0.304251,-0.529979,1.433357,100037.75,-27,+311,+75
151187,28.511,0.859,-5.416,1.289719,-0.431539,2.019742,100042.38,-27,+311,+75
151196,21.122,-7.688,0.064,2.998323,-0.299043,2.864200,100039.38,-36,+309,+66
151206,14.734,-8.829,-2.608,2.329993,-0.418236,2.656677,100041.11,-45,+307,+59
151217,6.811,-7.755,-3.392,0.989077,-0.434731,2.106475,100040.00,-54,+304,+56
151226,3.481,-5.235,1.583,0.061609,-0.205392,2.104347,100040.00,-54,+304,+56
151236,8.350,-4.355,5.798,-0.326299,-0.017025,2.549191,100040.90,-61,+301,+57
151246,12.907,-2.490,4.970,-0.294904,-0.161759,2.538548,100037.59,-71,+297,+57
151257,11.935,-1.551,2.814,-0.125161,-0.379924,2.205980,100036.65,-78,+293,+58
151267,9.475,-2.583,2.742,-0.062904,-0.451227,1.997925,100038.12,-78,+293,+58
151276,9.593,-3.477,1.519,-0.094299,-0.558181,1.867558,100038.12,-85,+288,+57
151286,9.917,-3.148,-0.542,-0.100684,-0.583190,1.596714,100038.45,-90,+285,+57
151297,9.598,-1.696,-1.005,-0.136335,-0.472511,1.433357,100041.23,-96,+283,+56
151307,9.805,-0.822,-0.453,-0.141124,-0.315539,1.437081,100037.71,-96,+283,+56
151317,10.879,-0.179,0.197,-0.153895,-0.193154,1.436549,100039.98,-101,+279,+56
151326,10.597,-0.361,0.708,-0.138996,-0.110145,1.382274,100039.98,-105,+275,+56
151336,9.786,-0.744,1.218,-0.141656,-0.048420,1.304586,100039.37,-108,+273,+57
151347,9.252,-1.899,1.757,-0.129418,-0.030860,1.210403,100042.95,-108,+273,+57
151357,9.250,-2.939,1.780,-0.202317,-0.031924,1.086953,100037.85,-113,+270,+57
151366,9.416,-3.070,1.473,-0.434849,-0.028732,0.946476,100039.37,-115,+267,+58
151376,9.672,-2.422,1.276,-0.687601,-0.002126,0.812917,100039.37,-118,+265,+61
151387,9.935,-1.294,1.231,-0.784977,0.022883,0.721926,100040.71,-118,+265,+61
151397,9.771,-0.322,1.279,-0.662060,0.055874,0.683082,100040.60,-120,+263,+63
151406,9.450,-0.052,1.574,-0.401858,0.106424,0.700109,100039.07,-122,+261,+64
151416,9.560,-0.840,2.015,-0.228922,0.134094,0.737889,100039.07,-124,+259,+66
151427,9.881,-1.643,2.135,-0.304482,0.115470,0.737889,100039.07,-124,+259,+66
151437,10.130,-1.803,1.826,-0.539142,0.084608,0.698513,100042.13,-126,+257,+66
151446,10.197,-1.453,2.036,-0.721124,0.078754,0.669779,100039.87,-128,+255,+68
151456,9.943,-0.951,2.498,-0.754647,0.054810,0.676165,100039.76,-130,+253,+71
151467,9.315,-0.733,2.754,-0.634567,0.006920,0.694966,100036.88,-131,+250,+71
151477,8.976,-0.747,2.619,-0.472629,-0.048420,0.707027,100036.88,-131,+250,+71
151487,8.730,-0.840,2.487,-0.282666,-0.087796,0.720330,100042.94,-135,+248,+73
151496,8.708,-1.168,2.543,-0.131546,-0.113869,0.747999,100040.36,-136,+246,+73
151506,8.728,-1.443,2.616,-0.036831,-0.162291,0.777797,100040.14,-138,+246,+72
151517,8.642,-1.655,2.461,0.053096,-0.212842,0.802275,100038.58,-138,+244,+72
151527,8.705,-1.968,2.223,0.113224,-0.251154,0.833669,100038.58,-141,+242,+72
151536,8.899,-1.905,2.087,0.110564,-0.285741,0.871981,100041.28,-144,+241,+72
151546,9.221,-1.218,2.522,0.048307,-0.329374,0.922531,100039.86,-147,+237,+70
151557,9.696,-1.041,2.706,0.060545,-0.426750,0.988513,100041.06,-147,+237,+70
151567,9.955,-0.971,2.242,0.206343,-0.462401,1.049706,100041.91,-149,+235,+69
151576,10.138,-1.788,1.528,0.397371,-0.443777,1.085357,100041.91,-153,+231,+66
151582,10.321,-2.686,0.936,0.469738,-0.442181,1.102917,100043.11,-153,+231,+66
151591,10.206,-3.052,0.803,0.421316,-0.440585,1.107173,100043.11,-156,+229,+65
151602,9.737,-3.102,1.139,0.251573,-0.445374,1.105045,100041.02,-159,+226,+63
151612,9.359,-2.827,1.268,0.110031,-0.450163,1.110898,100040.44,-159,+226,+63
151622,9.487,-2.574,1.361,0.069059,-0.456548,1.127394,100038.70,-162,+223,+63
151631,9.826,-2.847,1.521,0.085022,-0.458144,1.144421,100039.74,-165,+219,+61
151642,10.076,-3.302,1.374,0.083426,-0.448566,1.137504,100037.37,-168,+216,+60
151652,10.318,-3.561,1.355,-0.003308,-0.417704,1.118348,100039.05,-168,+216,+60
151662,10.528,-3.685,1.423,-0.152831,-0.399080,1.103449,100039.05,-171,+213,+59
151671,10.447,-3.702,1.855,-0.307143,-0.373539,1.093871,100036.90,-173,+210,+58
151682,10.448,-3.674,2.081,-0.466776,-0.350126,1.102917,100036.90,-176,+206,+59
151692,10.769,-3.473,2.148,-0.613106,-0.351722,1.133247,100039.87,-176,+206,+59
151702,11.137,-3.278,2.247,-0.762629,-0.373007,1.181669,100039.49,-179,+202,+60
151711,11.285,-3.167,1.704,-0.837124,-0.425686,1.229027,100039.49,-182,+198,+59
151721,11.727,-3.028,1.030,-0.900977,-0.492199,1.285430,100039.45,-185,+192,+60
151732,12.366,-2.773,0.669,-0.932904,-0.564034,1.368439,100039.45,-187,+188,+60
151742,12.783,-2.563,0.402,-0.942482,-0.642786,1.450916,100041.80,-187,+188,+60
151752,12.912,-2.387,0.360,-0.926518,-0.744951,1.533925,100041.50,-191,+183,+59
151761,13.294,-2.340,0.586,-0.861069,-0.862016,1.637687,100038.19,-194,+176,+59
151772,13.781,-2.482,1.309,-0.798280,-0.983869,1.745173,100038.19,-198,+170,+57
151782,14.148,-2.683,1.848,-0.776463,-1.093483,1.841485,100038.19,-198,+170,+57
151792,14.275,-2.703,2.223,-0.845106,-1.167979,1.934072,100039.89,-202,+164,+55
151801,14.236,-2.585,2.515,-1.005271,-1.228107,2.020806,100039.05,-205,+156,+53
151812,14.085,-2.578,2.505,-1.191509,-1.263759,2.117118,100040.14,-209,+147,+51
151822,14.098,-2.628,2.234,-1.379344,-1.265887,2.204916,100039.36,-209,+147,+51
151832,14.874,-2.456,2.160,-1.615068,-1.287171,2.252806,100039.36,-213,+139,+49
151842,16.598,-1.285,2.173,-1.933802,-1.313777,2.262384,100040.64,-216,+130,+47
151852,18.129,0.645,1.963,-2.291380,-1.293025,2.239503,100041.11,-220,+121,+46
151862,18.788,2.820,1.839,-2.578719,-1.296749,2.188952,100037.48,-220,+121,+46
151872,19.171,3.802,1.684,-2.462187,-1.407960,2.220879,100037.48,-222,+113,+44
151882,19.825,2.114,1.891,-1.758738,-1.638364,2.484805,100041.44,-225,+103,+40
151891,18.608,-0.005,2.597,-1.131381,-1.893244,2.602934,100038.70,-228,+93,+35
151902,16.292,-1.040,4.072,-0.544464,-1.994345,2.564090,100038.70,-228,+93,+35
151912,14.906,-2.525,4.635,0.138233,-2.039042,2.569943,100038.08,-229,+84,+28
151922,13.963,-3.417,5.534,0.683646,-2.015097,2.565154,100039.08,-230,+75,+22
151931,12.513,-2.292,6.892,1.052398,-1.908143,2.394879,100039.08,-231,+66,+16
151942,10.671,0.001,6.689,1.496177,-1.745318,1.984622,100040.09,-231,+66,+16
151952,8.431,1.922,4.708,1.859608,-1.674547,1.390788,100036.57,-231,+60,+10
151962,3.705,-2.998,0.915,2.173553,-1.667630,0.858678,100036.24,-231,+56,+5
151972,2.103,-11.111,2.346,1.883553,-1.313777,0.912421,100035.84,-230,+52,+0
151982,5.322,-5.566,3.204,0.680985,-1.231300,0.662862,100037.63,-230,+52,+0
151992,6.080,-0.224,2.592,-0.381638,-1.085502,-0.221505,100035.80,-230,+52,-3
152002,5.692,1.822,3.119,-0.496042,-0.847116,-0.824917,100036.84,-230,+54,-6
152011,4.436,2.154,1.847,-0.432188,-0.835410,-1.024458,100036.84,-229,+59,-9
152022,4.244,1.369,0.986,-0.268831,-0.689080,-1.231981,100034.80,-229,+59,-9
152032,4.737,0.560,1.150,0.062674,-0.503906,-1.509210,100034.80,-228,+64,-11
152042,5.158,0.823,1.388,0.328196,-0.388438,-1.825283,100038.34,-227,+70,-12
152052,5.254,1.526,1.219,0.596380,-0.325472,-2.185522,100034.16,-226,+80,-14
152061,5.377,1.441,1.222,0.952893,-0.250621,-2.468072,100034.16,-226,+80,-14
152072,5.777,0.674,1.392,1.442434,-0.182511,-2.703797,100033.30,-224,+88,-15
152082,6.145,-0.196,1.522,1.913351,-0.146860,-2.912384,100033.30,-221,+99,-17
152092,6.610,-0.715,1.756,2.331590,-0.114933,-3.146512,100033.66,-218,+109,-20
152102,7.135,-1.047,2.164,2.676929,-0.084603,-3.379576,100033.54,-218,+109,-20
152112,7.302,-1.393,2.497,2.990342,-0.063851,-3.562622,100030.26,-215,+121,-23
152122,7.216,-1.905,2.771,3.232984,-0.031392,-3.687136,100030.26,-210,+131,-27
152132,7.476,-3.016,3.209,3.300561,0.010112,-3.793558,100030.26,-205,+142,-31
152142,8.054,-4.315,3.691,3.135607,0.053213,-3.941484,100033.84,-205,+142,-31
152152,8.739,-5.413,4.204,2.733865,0.110681,-4.134108,100031.53,-200,+154,-34
152162,9.382,-6.377,4.410,2.187388,0.179855,-4.329392,100032.95,-193,+168,-38
152172,9.689,-6.974,4.456,1.620159,0.287341,-4.532658,100032.63,-185,+181,-39
152182,9.996,-6.946,4.408,1.134875,0.437396,-4.699208,100032.63,-175,+194,-41
152193,10.463,-6.438,4.186,0.819334,0.600754,-4.808291,100032.86,-175,+194,-41
152202,10.933,-5.849,4.107,0.773572,0.777947,-4.855649,100033.44,-166,+210,-40
152212,11.475,-5.211,4.108,0.966196,0.940240,-4.850860,100033.47,-155,+223,-41
152222,11.799,-4.888,4.102,1.304618,1.092424,-4.808823,100033.47,-143,+235,-42
152232,12.022,-4.803,3.956,1.688269,1.241414,-4.739117,100034.32,-143,+235,-42
152242,12.207,-5.282,3.841,2.022434,1.383488,-4.643337,100034.15,-132,+247,-43
152252,12.451,-5.888,4.030,2.219847,1.496827,-4.561924,100034.15,-120,+255,-45
152262,13.059,-6.176,4.195,2.245388,1.575579,-4.514034,100033.95,-108,+265,-49
152272,13.944,-6.124,4.280,2.144819,1.620808,-4.475722,100035.73,-108,+265,-49
152282,14.581,-6.278,4.170,2.025627,1.653799,-4.424108,100035.73,-96,+272,-51
152288,14.887,-6.571,4.017,1.958581,1.680937,-4.359722,100038.72,-96,+272,-51
152297,15.007,-7.403,3.807,1.893131,1.721377,-4.254897,100036.83,-85,+279,-53
152307,14.892,-8.726,3.420,1.634526,1.752240,-4.111759,100037.09,-72,+285,-56
152316,14.107,-9.502,3.239,1.135407,1.770331,-3.989374,100035.36,-62,+291,-57
152327,13.188,-9.759,3.038,0.640545,1.795873,-3.776530,100035.36,-62,+291,-57
152337,12.714,-10.234,2.753,0.185591,1.836845,-3.485998,100039.35,-50,+295,-56
152347,12.531,-11.205,2.068,-0.301289,1.879414,-3.154494,100036.09,-41,+301,-52
152357,12.356,-12.058,0.998,-0.921197,1.904955,-2.758072,100036.93,-34,+306,-47
152367,12.243,-12.273,-0.054,-1.634224,1.850680,-2.280770,100036.66,-34,+306,-47
152377,11.735,-11.518,-1.096,-2.305215,1.658588,-1.763027,100036.66,-28,+310,-39
152387,11.405,-9.531,-1.630,-2.761233,1.309524,-1.193669,100038.25,-24,+314,-31
152397,11.139,-6.683,-1.976,-2.775600,0.889690,-0.611541,100039.20,-22,+316,-20
152407,10.010,-4.274,-1.522,-2.263710,0.553928,-0.081560,100039.36,-22,+316,-13
152417,8.739,-2.668,-1.834,-1.385729,0.292663,0.378715,100036.94,-22,+316,-13
152427,8.214,-1.558,-3.227,-0.372060,0.088332,0.724054,100036.94,-25,+316,-11
152437,8.291,-2.290,-4.020,0.616068,-0.040970,1.000219,100040.63,-30,+316,-13
152448,7.792,-3.826,-3.658,1.408911,-0.123447,1.213063,100041.98,-34,+312,-19
152457,7.050,-4.309,-3.179,1.883553,-0.168677,1.299265,100040.52,-34,+312,-19
152467,6.415,-4.023,-1.315,2.218782,-0.189429,1.333320,100039.63,-37,+311,-26
152477,7.114,-3.482,3.487,2.614672,-0.161759,1.413136,100039.63,-43,+307,-34
152487,9.335,-1.165,19.164,3.063241,0.309158,1.665889,100039.02,-49,+302,-42
152497,23.439,15.901,12.491,1.687205,0.318736,1.249247,100034.97,-49,+302,-42
152507,40.318,8.224,-16.440,-0.359289,-0.678970,0.879963,100043.31,-51,+301,-42
152517,29.347,-13.039,-3.946,2.066599,-0.451759,2.632732,100040.53,-59,+295,-49
152522,17.367,-12.246,-2.713,1.572269,-0.547539,2.385301,100040.53,-59,+295,-49
152531,11.992,-8.709,-3.913,-0.141656,-0.417172,1.853191,100040.53,-66,+291,-50
152543,5.371,-2.150,-3.558,-1.117546,-0.314475,1.689834,100042.20,-71,+290,-46
152552,4.724,0.563,0.179,-0.751986,-0.317667,2.277283,100041.00,-71,+290,-46
152562,7.004,0.222,3.797,-0.189546,-0.080346,2.177246,100036.64,-78,+286,-46
152572,9.226,-1.381,6.773,-0.027785,0.133562,1.987283,100038.14,-85,+282,-46
152583,11.125,-5.958,6.878,-0.145381,-0.027667,2.099558,100038.61,-91,+278,-45
152592,12.289,-6.944,4.430,-0.442831,-0.335759,1.943118,100038.56,-91,+278,-45
152602,11.104,-4.181,2.215,-0.704629,-0.456016,1.416861,100038.56,-96,+275,-44
152612,9.419,-0.231,2.276,-0.601931,-0.373007,1.057155,100037.67,-100,+273,-42
152622,8.708,1.368,1.902,-0.177308,-0.355979,1.098128,100038.72,-103,+271,-43
152632,9.161,0.666,0.847,0.261683,-0.316603,1.196568,100038.72,-105,+271,-45
152642,10.187,-0.573,0.904,0.453242,-0.233062,1.218916,100041.88,-105,+269,-45
152652,10.759,-1.664,1.121,0.343628,-0.194750,1.188054,100041.09,-109,+266,-45
152663,10.413,-2.166,1.328,0.131848,-0.161227,1.097063,100039.46,-112,+263,-46
152672,9.665,-2.032,1.660,-0.109198,-0.127704,0.989045,100039.73,-116,+260,-46
152682,9.249,-1.458,1.509,-0.370464,-0.119722,0.907632,100040.98,-116,+260,-46
152692,9.570,-0.763,1.242,-0.599271,-0.099502,0.870917,100036.62,-117,+259,-46
152702,10.003,-0.531,1.274,-0.771674,-0.056401,0.849100,100039.20,-120,+257,-43
152713,10.125,-0.140,1.565,-0.842445,-0.019686,0.800146,100036.99,-122,+255,-41
152722,9.775,-0.155,1.994,-0.749326,0.008516,0.759174,100036.99,-122,+255,-41
152732,9.528,-0.158,2.706,-0.516262,-0.031392,0.766623,100036.99,-124,+255,-39
152742,9.050,-0.463,3.093,-0.275748,-0.095778,0.752256,100039.20,-127,+254,-38
152752,8.711,-0.957,2.950,-0.118244,-0.104291,0.730972,100041.30,-129,+251,-39
152758,8.961,-1.268,2.631,-0.092170,-0.098438,0.738953,100040.41,-129,+251,-39
152767,9.373,-1.306,2.379,-0.152831,-0.100567,0.738421,100040.04,-131,+250,-39
152777,9.589,-1.037,2.505,-0.258189,-0.088860,0.729908,100040.04,-131,+250,-39
152787,9.799,-0.593,2.403,-0.350776,-0.100567,0.742678,100037.22,-133,+248,-38
152797,10.027,-0.334,2.074,-0.338537,-0.118126,0.770880,100040.95,-135,+246,-37
152807,9.936,-0.246,2.214,-0.227326,-0.119190,0.815045,100037.53,-136,+244,-37
152817,9.513,-0.680,2.406,-0.125693,-0.130897,0.858678,100037.73,-136,+244,-37
152827,9.270,-1.259,2.612,-0.095363,-0.155374,0.892201,100037.73,-139,+242,-37
152838,9.305,-1.515,2.736,-0.124629,-0.197411,0.917742,100043.01,-141,+240,-37
152847,9.470,-1.470,2.624,-0.182097,-0.251154,0.938495,100039.85,-143,+238,-37
152857,9.683,-1.206,2.618,-0.212959,-0.319796,0.966696,100039.12,-146,+238,-37
152867,9.689,-1.011,2.740,-0.186886,-0.404401,1.002348,100038.49,-146,+235,-37
152878,9.383,-0.921,2.567,-0.110794,-0.456016,1.036403,100038.49,-149,+233,-37
152887,9.112,-1.242,2.432,-0.011822,-0.488475,1.083761,100039.41,-150,+229,-39
152897,9.075,-1.334,2.273,0.059481,-0.514016,1.139632,100038.56,-153,+227,-40
152907,9.255,-1.345,2.462,0.099921,-0.520401,1.192843,100038.63,-153,+227,-40
152918,9.635,-1.794,2.250,0.161114,-0.545410,1.235412,100037.05,-156,+223,-41
152927,10.058,-2.258,1.746,0.220710,-0.581594,1.253504,100037.05,-158,+220,-44
152937,10.236,-2.708,1.301,0.228160,-0.612456,1.246054,100039.38,-161,+216,-46
152947,10.053,-2.834,1.270,0.155261,-0.609263,1.230091,100039.00,-161,+216,-46
152957,9.653,-2.870,1.364,0.095132,-0.607135,1.223705,100038.06,-163,+212,-47
152968,9.413,-2.662,1.436,0.083958,-0.616181,1.225834,100041.05,-165,+208,-49
152977,9.349,-2.823,1.777,0.116417,-0.612988,1.244990,100041.05,-168,+204,-51
152987,9.629,-3.251,1.720,0.122270,-0.606071,1.269467,100037.22,-168,+204,-51
152993,9.921,-3.370,1.611,0.069591,-0.594364,1.279577,100037.48,-169,+200,-52
153003,10.157,-3.571,1.544,-0.025124,-0.585851,1.281173,100037.48,-169,+200,-52
153013,10.500,-3.685,1.657,-0.156556,-0.563502,1.293412,100040.31,-171,+196,-53
153022,10.810,-3.945,2.060,-0.308739,-0.525190,1.313100,100037.53,-173,+193,-54
153032,11.229,-3.747,1.509,-0.447087,-0.519337,1.323210,100042.83,-175,+189,-54
153042,11.368,-3.544,1.181,-0.549253,-0.542750,1.340770,100039.47,-177,+189,-54
153053,11.766,-3.424,0.660,-0.628005,-0.606071,1.385999,100039.31,-177,+186,-55
153063,12.201,-2.998,0.420,-0.690262,-0.685355,1.441338,100035.11,-179,+182,-56
153072,12.480,-2.441,0.612,-0.722720,-0.779006,1.523283,100035.11,-181,+178,-56
153082,12.888,-2.245,1.039,-0.652482,-0.880639,1.638219,100035.11,-183,+178,-58
153093,13.443,-2.403,1.771,-0.565216,-0.965777,1.756879,100039.88,-183,+173,-58
153102,14.007,-3.055,2.639,-0.543931,-1.039740,1.861173,100040.23,-186,+169,-60
153112,14.468,-3.610,2.987,-0.658335,-1.096144,1.949503,100038.45,-187,+163,-62
153122,14.792,-3.792,3.141,-0.896188,-1.120089,2.010696,100038.19,-188,+158,-64
153133,15.137,-3.508,3.062,-1.205876,-1.145630,2.053797,100038.19,-188,+158,-64
153143,15.779,-2.677,3.193,-1.537912,-1.177557,2.101686,100041.49,-190,+153,-65
153152,16.946,-1.484,3.670,-1.855582,-1.216933,2.169796,100039.01,-192,+147,-66
153162,17.646,-0.704,3.675,-2.134940,-1.221722,2.247484,100037.60,-193,+143,-67
153172,17.840,0.561,3.157,-2.433453,-1.207355,2.289521,100037.60,-193,+143,-67
153183,17.743,2.187,2.461,-2.723985,-1.228107,2.290053,100040.82,-195,+139,-67
153192,17.801,3.458,1.446,-2.777728,-1.306859,2.307081,100040.82,-196,+135,-68
153202,18.359,1.963,0.933,-2.395674,-1.480859,2.447026,100041.65,-197,+129,-69
153212,18.102,-0.300,1.586,-2.007765,-1.708602,2.551851,100039.82,-197,+129,-69
153223,16.539,-0.419,3.193,-1.442133,-1.834180,2.582181,100036.29,-198,+124,-73
153228,15.838,-0.014,4.230,-0.765821,-1.870364,2.615172,100036.29,-198,+124,-73
153237,15.040,-0.296,4.765,-0.160812,-1.866107,2.609851,100037.88,-196,+117,-77
153247,13.446,-0.789,5.935,0.475591,-1.760749,2.521521,100040.87,-196,+109,-83
153257,11.790,0.664,6.763,0.906068,-1.591006,2.228861,100038.29,-196,+99,-88
153268,10.045,2.839,5.948,1.284930,-1.444676,1.729742,100035.24,-196,+99,-88
153277,7.096,1.085,2.936,1.687205,-1.417538,1.180605,100035.24,-194,+92,-92
153287,3.372,-7.838,0.889,1.763829,-1.201502,1.124201,100037.45,-192,+87,-97
153297,6.058,-5.985,2.069,0.998123,-1.266951,1.182201,100039.13,-191,+80,-101
153308,6.445,-1.035,2.353,0.420251,-1.148823,0.327100,100041.49,-188,+79,-103
153317,6.278,1.052,3.239,0.501132,-0.811997,-0.371027,100037.02,-188,+79,-103
153327,5.050,2.008,2.391,0.682049,-0.766236,-0.641871,100037.02,-187,+81,-106
153337,4.043,1.460,1.412,0.818802,-0.726328,-0.797780,100037.63,-185,+81,-109
153348,4.143,0.475,1.294,1.099756,-0.554456,-1.053724,100035.90,-183,+83,-109
153358,4.457,-0.243,1.429,1.347719,-0.423557,-1.329357,100036.63,-183,+83,-109
153367,4.282,-0.806,1.941,1.491388,-0.277759,-1.603926,100034.12,-182,+84,-112
153377,4.178,-0.921,2.191,1.568012,-0.145264,-1.919467,100034.12,-181,+87,-112
153388,4.266,-0.655,2.078,1.610049,-0.025539,-2.246182,100035.23,-178,+91,-113
153398,4.635,-0.709,1.845,1.620159,0.093121,-2.517026,100034.23,-178,+91,-113
153407,5.170,-0.881,1.566,1.621223,0.199011,-2.726145,100033.85,-177,+96,-114
153417,5.632,-1.012,1.446,1.628673,0.299580,-2.933136,100030.34,-175,+101,-114
153427,6.164,-1.188,1.632,1.614838,0.396424,-3.163540,100030.34,-173,+109,-114
153438,6.665,-1.268,1.772,1.676563,0.460809,-3.370530,100033.43,-173,+109,-114
153448,7.233,-1.383,1.936,1.761168,0.533708,-3.572200,100034.79,-171,+115,-115
153457,7.888,-1.901,1.848,1.801076,0.582130,-3.770145,100030.27,-168,+123,-115
153467,8.578,-2.526,1.714,1.807994,0.635873,-3.943080,100031.48,-166,+131,-115
153478,9.253,-2.939,1.562,1.750526,0.704516,-4.114420,100031.48,-166,+131,-115
153488,9.835,-3.047,1.835,1.689333,0.800295,-4.293741,100033.27,-161,+140,-114
153497,10.202,-3.352,1.932,1.652086,0.890754,-4.469337,100031.87,-156,+150,-115
153507,10.561,-4.227,2.049,1.632930,0.998772,-4.600236,100033.12,-151,+159,-115
153518,10.913,-5.197,2.110,1.597810,1.090295,-4.696548,100031.23,-151,+159,-115
153528,11.392,-5.581,2.212,1.478086,1.174901,-4.823722,100031.23,-146,+170,-115
153537,12.048,-5.393,2.360,1.318985,1.257910,-4.974309,100033.32,-139,+180,-115
153547,12.877,-5.089,2.177,1.139132,1.331341,-5.100419,100032.38,-131,+191,-113
153558,13.816,-5.129,1.795,0.966196,1.395194,-5.163740,100034.01,-131,+191,-113
153568,14.678,-5.593,1.535,0.845939,1.452662,-5.163208,100035.48,-124,+202,-112
153577,15.428,-6.119,1.466,0.764526,1.486185,-5.127557,100035.48,-115,+213,-110
153587,15.987,-6.702,1.385,0.733664,1.505341,-5.062107,100035.55,-105,+222,-110
153597,16.216,-7.730,1.284,0.811884,1.518643,-4.928548,100038.40,-105,+222,-110
153608,16.112,-8.977,1.350,0.943847,1.544185,-4.699208,100037.13,-97,+232,-109
153618,15.820,-9.838,1.643,1.006104,1.571322,-4.399098,100035.35,-86,+239,-108
153627,14.828,-10.041,1.958,1.000251,1.612295,-4.113356,100035.35,-79,+244,-108
153637,13.829,-10.029,1.869,1.028453,1.667634,-3.764824,100038.10,-79,+244,-108
153648,13.388,-10.444,0.681,1.105077,1.724038,-3.298163,100036.21,-73,+249,-107
153658,13.439,-12.381,-0.252,1.107737,1.775120,-2.880457,100036.63,-68,+253,-107
153667,13.556,-14.241,-1.285,0.691627,1.580368,-2.614934,100035.37,-63,+255,-107
153677,11.431,-14.238,-2.027,0.044050,1.331341,-2.325467,100035.37,-63,+255,-107
153688,11.386,-13.945,-2.093,-0.322574,1.084442,-1.775797,100041.46,-59,+259,-103
153698,10.736,-14.698,-1.922,-0.290115,0.761983,-1.054788,100037.95,-56,+261,-102
153707,9.508,-14.082,-1.821,-0.078868,0.413984,-0.336972,100038.37,-56,+262,-102
153717,9.846,-13.189,-1.658,0.299462,0.096314,0.402128,100039.15,-56,+262,-102
153728,9.213,-13.286,-1.997,0.632031,-0.148989,1.000219,100039.15,-58,+261,-102
153738,8.103,-13.418,-2.267,0.801242,-0.303300,1.428036,100039.01,-62,+257,-105
153748,7.126,-12.779,-1.089,0.884251,-0.390034,1.746769,100034.91,-66,+252,-108
153757,6.978,-8.137,4.483,0.956086,-0.322988,1.897889,100036.07,-70,+248,-110
153767,10.617,8.558,15.969,0.547958,0.001066,1.674935,100031.51,-70,+248,-110
153778,20.376,35.824,10.559,-1.093069,0.209653,0.098825,100031.51,-73,+245,-108
153788,27.132,17.968,-15.909,-2.957581,-0.245300,-0.299725,100040.38,-71,+253,-101
153797,26.386,-11.749,0.967,1.916012,0.177195,2.370402,100038.38,-79,+242,-109
153807,17.717,-10.564,2.055,2.756745,-0.203796,2.748200,100038.64,-79,+242,-109
153818,7.630,-5.480,-6.461,0.778361,-0.404933,1.548825,100035.55,-85,+235,-112
153828,6.894,-1.590,-2.230,0.179206,0.026608,1.180072,100035.55,-87,+233,-112
153838,10.883,-2.876,5.383,0.141958,0.151121,2.240035,100037.34,-93,+228,-113
153847,11.924,-2.658,7.491,-0.049069,0.176663,2.419356,100036.77,-93,+228,-113
153858,10.580,-1.794,8.949,-0.475289,-0.019686,2.165008,100035.86,-98,+223,-110
153868,7.818,-2.465,7.741,-0.623748,-0.419832,1.978769,100033.88,-103,+220,-110
153878,7.223,-3.201,5.001,-0.558298,-0.614052,1.706329,100033.88,-105,+218,-111
153887,8.858,-2.081,2.251,-0.252335,-0.736970,1.431228,100037.52,-105,+218,-111
153897,10.489,-0.966,0.415,0.075444,-0.717282,1.280109,100037.90,-107,+216,-112
153908,11.050,-0.615,-1.271,0.221242,-0.630016,1.244990,100039.26,-109,+212,-114
153918,10.947,-1.105,-2.516,0.211132,-0.489539,1.252972,100039.15,-110,+209,-115
153927,11.375,-1.770,-1.838,0.099921,-0.266585,1.256164,100039.15,-110,+209,-115
153937,10.803,-1.691,-0.329,-0.174115,-0.089924,1.200825,100039.05,-113,+206,-113
153948,9.500,-0.301,1.068,-0.375253,-0.007447,1.117283,100041.43,-116,+204,-114
153958,8.570,0.372,2.287,-0.280537,0.012773,1.077375,100038.21,-118,+203,-113
153968,8.574,-0.297,2.650,-0.030978,-0.007979,1.040128,100036.49,-118,+203,-113
153977,9.256,-1.753,2.395,0.101518,-0.038310,0.966164,100036.49,-120,+200,-114
153988,9.789,-2.488,2.110,-0.050666,-0.058530,0.859742,100037.84,-121,+199,-113
153998,9.904,-1.882,1.691,-0.403987,-0.055869,0.728843,100036.74,-123,+197,-113
154008,9.756,-0.557,1.775,-0.662060,-0.038842,0.653284,100037.41,-123,+197,-113
154017,9.485,0.423,2.066,-0.679619,-0.045759,0.669779,100036.26,-124,+196,-111
154028,9.228,0.887,2.556,-0.486464,-0.078218,0.734697,100036.26,-125,+196,-111
154038,9.261,0.735,2.840,-0.235840,-0.092053,0.815045,100039.04,-127,+195,-110
154048,9.780,0.227,2.572,-0.067161,-0.119722,0.890605,100038.10,-127,+195,-110
154057,10.168,-0.966,2.209,-0.047473,-0.148456,0.939027,100038.26,-129,+192,-110
154067,10.047,-1.588,2.151,-0.141656,-0.162291,0.953394,100037.95,-131,+191,-110
154078,9.771,-1.363,2.039,-0.298629,-0.181979,0.932109,100037.95,-132,+188,-110
154088,9.565,-0.726,2.190,-0.366739,-0.220823,0.927320,100040.38,-132,+188,-110
154098,9.347,-0.573,2.126,-0.267766,-0.258603,0.937963,100039.16,-134,+188,-110
154107,9.318,-0.950,1.770,-0.075675,-0.262328,0.952862,100037.65,-135,+185,-110
154118,9.378,-1.669,1.662,0.049371,-0.254878,0.961907,100037.49,-136,+182,-111
154128,9.498,-2.088,1.558,0.041921,-0.257539,0.962972,100037.49,-136,+182,-111
154138,9.626,-1.703,1.651,-0.054923,-0.257539,0.957651,100038.29,-137,+179,-112
154147,9.750,-1.345,1.934,-0.122501,-0.261264,0.968293,100040.49,-139,+177,-112
154158,9.877,-1.540,1.978,-0.094831,-0.281484,0.986385,100039.18,-141,+175,-112
154168,9.853,-1.761,2.055,-0.026189,-0.307025,0.986917,100038.18,-141,+175,-112
154178,9.736,-2.124,2.001,0.032876,-0.334163,0.966164,100038.18,-141,+173,-112
154188,9.532,-2.359,1.848,0.056288,-0.358108,0.941687,100039.05,-141,+170,-114
154198,9.421,-2.295,1.857,0.063738,-0.380988,0.920403,100039.47,-143,+167,-115
154208,9.350,-2.209,1.766,0.082362,-0.398016,0.912953,100038.20,-143,+164,-115
154218,9.313,-2.385,1.611,0.136637,-0.409190,0.927852,100036.11,-143,+164,-115
154228,9.293,-2.508,1.395,0.157389,-0.412383,0.945944,100036.11,-144,+163,-117
154237,9.415,-2.395,1.458,0.106307,-0.411851,0.972018,100038.17,-145,+159,-119
154248,9.550,-2.231,1.829,0.036600,-0.418236,1.007669,100038.70,-146,+156,-119
154258,9.706,-2.203,1.979,-0.001712,-0.434731,1.036935,100037.91,-146,+156,-119
154268,9.814,-2.356,1.977,0.003609,-0.446438,1.066733,100039.06,-147,+155,-120
154277,9.979,-2.621,2.133,-0.008629,-0.457612,1.097063,100039.06,-147,+150,-120
154288,10.029,-2.920,1.972,-0.063436,-0.477300,1.123669,100037.01,-148,+147,-122
154298,10.283,-3.039,1.624,-0.152299,-0.496988,1.150806,100036.79,-148,+147,-122
154308,10.424,-3.241,1.726,-0.278409,-0.500713,1.180072,100036.90,-149,+145,-122
154318,10.296,-3.425,2.276,-0.402390,-0.493264,1.223173,100037.41,-149,+143,-122
154328,10.521,-3.421,2.311,-0.552445,-0.498053,1.279045,100037.41,-149,+140,-123
154338,10.970,-3.060,2.310,-0.687601,-0.534236,1.338109,100039.45,-149,+140,-123
154348,11.271,-3.089,2.616,-0.797748,-0.599153,1.412072,100039.92,-150,+138,-124
154358,11.801,-3.269,2.728,-0.870115,-0.659282,1.494549,100035.19,-151,+136,-124
154368,12.790,-3.460,2.197,-0.936096,-0.714621,1.570641,100038.08,-151,+134,-125
154378,13.802,-3.522,1.631,-1.086151,-0.744951,1.637155,100038.08,-151,+134,-125
154388,14.281,-3.485,1.084,-1.303252,-0.780603,1.720696,100037.23,-152,+131,-125
154398,14.576,-2.981,0.434,-1.538977,-0.841795,1.798916,100039.65,-153,+129,-126
154407,14.965,-2.325,0.295,-1.733197,-0.934915,1.904806,100035.24,-152,+129,-126
154418,15.780,-1.924,0.515,-1.801839,-1.058896,2.029852,100038.60,-152,+129,-126
154428,16.916,-1.922,0.689,-1.787472,-1.240346,2.123503,100038.60,-151,+127,-127
154438,18.501,-1.069,1.441,-1.759802,-1.432437,2.185228,100036.79,-151,+125,-129
154448,19.520,0.302,2.712,-1.778426,-1.587281,2.218219,100038.68,-149,+123,-131
154458,19.349,1.303,3.289,-1.746500,-1.664969,2.255466,100037.46,-149,+123,-131
154468,18.355,2.059,3.173,-1.711912,-1.656988,2.260787,100035.79,-149,+121,-133
154478,17.293,3.059,2.671,-1.803967,-1.614951,2.210769,100035.79,-147,+119,-134
154488,16.417,2.349,1.853,-1.813545,-1.609098,2.198530,100038.98,-145,+117,-136
154498,16.636,-1.062,1.364,-1.557600,-1.723501,2.344328,100041.88,-145,+117,-136
154508,16.826,-2.845,2.157,-1.370830,-1.854932,2.458732,100039.05,-143,+114,-139
154518,15.869,-1.570,4.260,-0.952414,-1.881361,2.472922,100036.83,-141,+111,-142
154528,14.327,-0.858,4.836,-0.344390,-1.851740,2.417760,100036.83,-138,+105,-145
154539,12.249,-0.731,5.664,0.240930,-1.690511,2.291117,100039.37,-138,+105,-145
154548,9.863,-0.044,6.205,0.611279,-1.471281,2.057521,100034.12,-137,+99,-148
154558,7.989,1.486,5.003,0.859242,-1.322823,1.665357,100036.43,-135,+93,-152
154568,5.121,0.939,2.105,1.226398,-1.315373,1.217320,100032.96,-132,+85,-154
154577,1.178,-6.623,2.359,1.578654,-1.094015,1.139100,100032.96,-132,+85,-154
154588,4.640,-8.971,1.866,0.970453,-0.946089,1.056623,100040.05,-131,+79,-158
154598,7.317,-4.420,1.541,-0.215620,-0.880107,0.465449,100037.78,-130,+77,-159
154608,6.256,0.091,2.055,-0.595014,-0.799759,-0.262477,100036.05,-127,+79,-160
154618,4.603,2.403,1.754,-0.326299,-0.753997,-0.629633,100036.84,-127,+79,-160
154628,3.624,2.135,1.104,0.116417,-0.681098,-0.773835,100036.84,-125,+82,-161
154638,3.489,1.175,1.115,0.708655,-0.553392,-0.949963,100038.38,-123,+83,-163
154648,3.664,0.341,1.359,1.257792,-0.438456,-1.197926,100038.02,-121,+82,-165
154658,3.800,0.019,1.713,1.598875,-0.344273,-1.475687,100036.08,-120,+82,-166
154668,4.066,-0.127,1.673,1.817572,-0.256475,-1.758770,100034.34,-120,+81,-166
154678,4.327,-0.216,1.640,1.958581,-0.155906,-2.040256,100034.34,-119,+81,-167
154688,4.386,-0.800,2.110,2.065003,-0.027667,-2.264806,100035.59,-119,+81,-168
154698,4.573,-1.147,2.255,2.051700,0.098975,-2.521815,100035.90,-118,+81,-170
154708,5.068,-1.300,2.165,1.942617,0.202736,-2.774035,100035.01,-118,+81,-170
154718,5.850,-1.529,1.866,1.809590,0.270314,-2.993797,100034.05,-117,+82,-170
154728,6.598,-1.909,1.642,1.677095,0.333103,-3.200787,100034.05,-117,+85,-170
154738,7.212,-2.183,1.470,1.606324,0.398552,-3.418420,100037.11,-117,+89,-171
154748,7.715,-2.189,1.267,1.610581,0.483158,-3.625411,100032.86,-117,+89,-171
154754,8.044,-2.250,1.410,1.659535,0.560314,-3.748860,100030.33,-115,+93,-172
154763,8.426,-2.261,1.473,1.749462,0.632681,-3.830273,100030.33,-115,+93,-172
154773,9.213,-2.651,1.593,1.836195,0.718883,-3.903704,100033.59,-115,+97,-170
154783,10.011,-3.541,1.856,1.823957,0.801360,-3.981924,100033.59,-115,+101,-171
154793,10.483,-4.015,2.026,1.694654,0.882240,-4.106970,100035.66,-113,+105,-170
154803,10.674,-4.163,2.220,1.550985,0.999837,-4.249576,100033.53,-113,+105,-170
154813,10.850,-4.310,2.217,1.482342,1.123818,-4.374621,100034.61,-113,+111,-170
154823,11.223,-4.371,2.030,1.425407,1.248332,-4.454438,100034.61,-113,+116,-168
154833,11.980,-4.256,1.902,1.278544,1.344111,-4.533190,100034.61,-111,+122,-167
154843,12.768,-3.975,1.635,1.050802,1.429781,-4.625245,100037.38,-111,+122,-167
154853,13.342,-3.659,1.292,0.826783,1.513322,-4.694952,100032.55,-109,+131,-166
154863,13.634,-3.673,0.962,0.682049,1.595267,-4.707722,100033.76,-108,+139,-165
154873,13.752,-4.414,1.027,0.665022,1.683597,-4.675263,100033.93,-106,+147,-162
154883,13.897,-5.348,1.231,0.723022,1.746386,-4.607153,100033.93,-103,+156,-159
154893,14.207,-6.128,1.477,0.756013,1.812900,-4.532126,100035.66,-103,+156,-159
154903,14.713,-5.881,1.739,0.724086,1.869304,-4.454438,100034.46,-102,+164,-158
154913,14.948,-4.735,2.078,0.756545,1.924111,-4.366107,100033.18,-98,+170,-156
154924,14.775,-4.037,2.145,0.988545,1.975194,-4.233080,100033.18,-96,+177,-154
154934,14.541,-4.440,1.740,1.324838,1.975194,-3.997888,100035.08,-96,+177,-154
154943,14.506,-5.623,1.392,1.618563,1.940606,-3.652549,100035.45,-93,+181,-154
154953,14.476,-7.227,0.477,1.791498,1.914533,-3.306145,100035.45,-92,+182,-153
154963,14.735,-9.331,0.196,1.818104,1.849084,-3.060843,100034.45,-92,+184,-153
154973,13.792,-10.987,-0.910,1.480746,1.642625,-2.876732,100037.81,-92,+184,-153
154983,12.773,-12.192,-1.775,1.159352,1.425524,-2.540971,100037.81,-90,+186,-152
154989,12.919,-14.223,-1.981,1.022068,1.258442,-2.090806,100037.95,-90,+186,-152
154998,12.664,-17.088,-2.088,0.854985,1.024846,-1.492715,100038.52,-88,+188,-152
155009,12.121,-18.154,-2.245,0.406417,0.643323,-0.686569,100035.68,-89,+188,-152
155018,10.668,-15.087,-1.442,-0.167198,0.241048,0.040293,100037.52,-88,+188,-151
155028,9.602,-11.564,-0.368,-0.394409,-0.124511,0.747467,100037.52,-88,+188,-151
155038,8.812,-9.499,0.693,-0.041620,-0.312878,1.285962,100038.90,-90,+188,-151
155048,8.249,-7.929,2.011,0.693224,-0.370346,1.659503,100039.48,-92,+183,-153
155058,8.722,-6.966,3.697,1.384966,-0.350658,1.915448,100038.27,-94,+176,-156
155068,9.949,-1.272,12.320,1.716471,-0.012768,2.081998,100037.21,-94,+176,-156
155078,18.960,19.584,8.409,0.394178,-0.195814,1.351412,100037.21,-98,+168,-156
155088,24.722,19.093,-12.100,-0.841381,-0.727392,0.493651,100038.70,-96,+168,-158
155099,22.975,-5.718,-4.180,1.654746,-0.168677,2.324641,100040.64,-100,+161,-160
