140000,8.062,-4.954,1.866,0.026636,-0.000252,0.015913,99771.16,-209,+59,-36
140010,8.035,-4.947,1.852,0.027701,0.002941,0.013785,99770.20,-208,+59,-36
140020,8.037,-4.921,1.834,0.027701,0.003473,0.012188,99770.20,-208,+59,-36
140029,8.083,-4.916,1.889,0.033022,0.004537,0.010592,99772.47,-208,+59,-36
140040,8.072,-4.976,1.844,0.034618,0.004537,0.009528,99769.02,-208,+60,-36
140050,8.054,-4.982,1.849,0.029297,0.008794,0.008464,99771.84,-208,+60,-36
140060,8.102,-4.988,1.891,0.019719,0.011987,0.005803,99771.11,-208,+60,-36
140069,8.133,-4.972,1.879,0.014930,0.014115,0.003675,99771.11,-208,+60,-36
140080,8.115,-4.950,1.937,0.010673,0.014115,0.000482,99774.46,-208,+59,-36
140090,8.067,-4.905,1.942,0.011737,0.010922,-0.002711,99773.46,-209,+59,-36
140100,8.073,-4.946,1.894,0.017590,0.010390,-0.004839,99774.24,-209,+60,-36
140109,8.054,-4.990,1.877,0.018655,0.008794,-0.009096,99771.01,-209,+60,-36
140120,8.013,-4.929,1.876,0.011737,0.011987,-0.010692,99771.01,-208,+59,-36
140130,8.018,-4.912,1.867,0.009077,0.015179,-0.010692,99771.93,-208,+59,-36
140140,8.042,-4.896,1.876,0.008545,0.016244,-0.009628,99772.51,-209,+60,-36
140145,8.055,-4.863,1.909,0.007480,0.015711,-0.009096,99772.20,-209,+60,-36
140154,8.091,-4.863,1.931,0.007480,0.015711,-0.006968,99772.20,-209,+58,-36
140165,8.121,-4.835,1.954,0.009077,0.015179,-0.003775,99771.15,-209,+60,-36
140175,8.143,-4.847,1.930,0.013334,0.011455,0.001546,99771.15,-209,+60,-36
140185,8.159,-4.892,1.924,0.018123,0.007730,0.004207,99770.98,-209,+59,-36
140195,8.141,-4.927,1.925,0.017058,0.008262,0.005271,99771.45,-209,+60,-36
140205,8.107,-4.948,1.855,0.014930,0.009326,0.005803,99770.83,-209,+59,-36
140215,8.071,-4.964,1.833,0.011737,0.011987,0.003675,99770.83,-209,+59,-36
140225,8.044,-4.958,1.844,0.010141,0.016244,-0.000050,99770.83,-208,+60,-34
140235,8.044,-4.940,1.900,0.009077,0.017840,-0.002179,99772.89,-209,+60,-35
140244,8.055,-4.865,1.955,0.010141,0.015711,-0.004839,99772.31,-209,+60,-35
140255,8.048,-4.888,1.977,0.015994,0.010390,-0.004839,99771.33,-209,+60,-35
140265,8.035,-4.914,1.930,0.016526,0.009858,-0.003775,99770.80,-209,+60,-36
140275,8.070,-4.903,1.924,0.013866,0.011455,-0.001646,99770.80,-209,+59,-35
140285,8.091,-4.862,1.922,0.009077,0.012519,-0.001114,99774.38,-209,+59,-34
140295,8.127,-4.841,1.923,0.008012,0.013583,0.002078,99772.50,-209,+59,-34
140305,8.119,-4.869,1.965,0.011737,0.009858,0.003675,99770.67,-209,+59,-35
140315,8.055,-4.886,1.973,0.021315,0.004005,0.003143,99768.05,-209,+60,-36
140325,8.042,-4.942,1.893,0.027168,0.002941,0.003675,99773.59,-209,+59,-35
140335,8.049,-4.956,1.893,0.024508,0.006133,0.002078,99771.96,-209,+59,-35
140345,8.068,-4.944,1.881,0.020783,0.009858,-0.001114,99771.96,-208,+59,-35
140355,8.060,-4.938,1.846,0.019187,0.013051,-0.001114,99771.29,-209,+59,-36
140365,8.091,-4.900,1.895,0.015462,0.014647,-0.000582,99771.24,-209,+59,-35
140375,8.096,-4.872,1.913,0.016526,0.017308,0.004207,99771.24,-209,+59,-35
140385,8.065,-4.857,1.940,0.018655,0.018904,0.006867,99772.22,-208,+60,-34
140395,8.102,-4.874,1.952,0.019719,0.019968,0.010060,99773.22,-209,+59,-35
140405,8.113,-4.958,1.861,0.022912,0.015711,0.011656,99770.19,-210,+60,-34
140416,8.132,-4.979,1.818,0.019719,0.016244,0.010592,99770.72,-208,+59,-34
140425,8.114,-4.917,1.858,0.010141,0.024757,0.011124,99775.69,-208,+59,-34
140435,8.083,-4.836,1.875,0.012269,0.027950,0.011656,99771.30,-209,+59,-34
140445,8.085,-4.808,1.937,0.025040,0.026354,0.016977,99771.61,-209,+58,-34
140455,8.037,-4.848,2.025,0.037811,0.026354,0.020170,99772.34,-209,+59,-34
140465,7.968,-4.990,1.973,0.041003,0.030611,0.021234,99772.34,-209,+59,-34
140475,8.018,-5.052,1.868,0.030893,0.035400,0.017510,99772.34,-209,+59,-34
140485,8.098,-5.087,1.875,0.014398,0.040188,0.013253,99773.87,-210,+58,-34
140495,8.151,-5.031,1.813,-0.003694,0.049766,0.010060,99773.51,-208,+58,-34
140500,8.137,-4.983,1.789,-0.009547,0.050831,0.007932,99771.30,-208,+58,-34
140510,8.119,-4.985,1.727,-0.007419,0.051895,0.005271,99770.95,-209,+59,-34
140520,8.131,-4.929,1.796,-0.012740,0.062005,0.004207,99770.95,-209,+59,-34
140530,8.031,-4.929,1.830,-0.004758,0.068390,0.005803,99772.55,-209,+58,-33
140540,7.938,-4.929,1.927,-0.002630,0.074244,0.004739,99772.02,-210,+59,-33
140550,7.927,-5.001,1.985,-0.010079,0.082757,0.001014,99770.73,-210,+58,-33
140560,7.928,-5.020,2.051,-0.020721,0.087014,-0.002179,99768.79,-210,+58,-33
140570,7.989,-4.896,2.252,-0.024446,0.086482,-0.005903,99768.79,-210,+58,-33
140580,8.102,-4.740,2.386,-0.012208,0.072647,-0.010692,99774.13,-210,+58,-32
140590,8.076,-4.606,2.447,0.021315,0.046042,-0.015481,99770.83,-210,+58,-33
140600,7.969,-4.726,2.372,0.067077,0.017840,-0.017610,99772.19,-210,+58,-33
140610,8.038,-4.958,2.318,0.089425,-0.003445,-0.015481,99770.58,-210,+58,-32
140620,8.108,-5.076,2.189,0.081976,-0.010362,-0.016546,99770.58,-209,+58,-32
140631,8.050,-4.977,2.296,0.060159,-0.010894,-0.022931,99772.55,-210,+58,-32
140640,7.965,-4.851,2.484,0.046856,-0.018876,-0.026123,99772.18,-210,+58,-32
140650,8.006,-4.741,2.569,0.049517,-0.032711,-0.033573,99771.45,-210,+58,-32
140660,7.946,-4.776,2.490,0.073462,-0.053463,-0.042619,99770.20,-209,+58,-33
140670,7.888,-4.929,2.264,0.098471,-0.066233,-0.049004,99770.20,-209,+58,-33
140680,8.005,-5.202,1.978,0.103260,-0.064637,-0.056986,99770.88,-210,+60,-33
140690,8.137,-5.313,1.843,0.077187,-0.051334,-0.072417,99769.52,-210,+60,-33
140700,8.143,-5.221,1.947,0.033554,-0.027389,-0.085188,99770.41,-210,+59,-33
140710,8.119,-5.046,1.991,-0.001566,-0.010894,-0.098490,99771.82,-210,+59,-33
140720,8.070,-4.910,1.967,-0.008483,-0.001848,-0.107536,99771.82,-209,+60,-33
140730,8.016,-4.849,2.064,-0.001033,0.002409,-0.112325,99772.84,-209,+60,-33
140736,8.024,-4.875,2.182,0.005352,0.004005,-0.114454,99768.09,-210,+61,-33
140745,8.084,-4.996,2.221,0.002691,0.004005,-0.117646,99768.09,-210,+61,-33
140755,8.162,-5.100,2.111,-0.025510,0.008794,-0.124032,99769.03,-209,+61,-33
140766,8.149,-5.082,2.038,-0.070208,0.018904,-0.130417,99770.23,-210,+62,-33
140775,8.238,-5.105,2.015,-0.110648,0.025822,-0.137867,99770.23,-210,+62,-33
140785,8.384,-4.885,1.985,-0.147896,0.037528,-0.141059,99770.58,-210,+62,-33
140795,8.307,-4.839,1.971,-0.161198,0.043381,-0.142123,99772.03,-210,+62,-33
140806,8.208,-4.721,1.972,-0.158538,0.041785,-0.139995,99770.36,-209,+64,-33
140815,8.177,-4.645,2.038,-0.147896,0.039656,-0.136270,99770.36,-210,+64,-32
140825,8.131,-4.678,2.046,-0.140978,0.039124,-0.125628,99770.36,-210,+64,-32
140835,8.149,-4.760,1.982,-0.146299,0.036996,-0.116050,99773.77,-210,+64,-33
140846,8.207,-4.754,1.988,-0.162795,0.036996,-0.108600,99772.81,-209,+64,-33
140855,8.278,-4.727,1.956,-0.183547,0.037528,-0.098490,99770.42,-210,+66,-32
140865,8.320,-4.705,2.012,-0.187804,0.031675,-0.089445,99771.83,-210,+66,-32
140875,8.250,-4.663,2.045,-0.172373,0.020500,-0.083591,99771.83,-210,+66,-31
140886,8.234,-4.605,2.030,-0.157474,0.013583,-0.078270,99771.30,-209,+66,-32
140896,8.218,-4.649,2.030,-0.154813,0.003473,-0.069224,99768.09,-210,+66,-32
140905,8.208,-4.697,2.032,-0.158538,-0.003977,-0.063903,99770.67,-210,+67,-31
140915,8.223,-4.659,2.007,-0.172373,-0.001316,-0.060179,99770.67,-210,+67,-31
140925,8.201,-4.746,2.079,-0.189400,-0.005041,-0.053793,99771.73,-209,+67,-32
140935,8.262,-4.753,2.077,-0.209088,-0.009298,-0.052729,99771.73,-210,+67,-33
140945,8.299,-4.637,1.976,-0.228776,-0.003977,-0.046876,99769.95,-210,+68,-32
140955,8.284,-4.654,2.053,-0.243675,-0.004509,-0.033041,99770.73,-210,+68,-32
140965,8.299,-4.651,2.252,-0.254850,-0.015151,-0.020270,99770.80,-209,+69,-32
140971,8.350,-4.528,2.256,-0.257510,-0.021536,-0.011224,99770.80,-209,+69,-32
140980,8.356,-4.529,2.305,-0.252189,-0.032711,0.001014,99772.91,-210,+69,-33
140990,8.256,-4.610,2.310,-0.244208,-0.056655,0.018042,99773.33,-210,+68,-33
141000,8.149,-4.612,2.196,-0.256978,-0.065169,0.035601,99769.16,-210,+69,-32
141010,8.144,-4.529,1.941,-0.288373,-0.058784,0.055289,99770.41,-210,+69,-32
141020,8.331,-4.552,1.782,-0.304336,-0.068894,0.080298,99770.41,-209,+69,-33
141030,8.499,-4.566,1.891,-0.288905,-0.099756,0.100519,99771.45,-210,+69,-32
141040,8.471,-4.642,2.091,-0.266556,-0.131151,0.117546,99770.73,-210,+68,-33
141050,8.316,-4.807,2.186,-0.254850,-0.160417,0.129253,99768.84,-210,+68,-33
141061,8.321,-4.711,2.231,-0.266556,-0.184362,0.138831,99771.24,-210,+69,-33
141070,8.372,-4.660,2.154,-0.293162,-0.199261,0.161711,99771.24,-208,+68,-34
141080,8.484,-4.639,2.164,-0.304868,-0.226398,0.187785,99773.98,-209,+68,-34
141090,8.510,-4.657,2.077,-0.304336,-0.249811,0.214922,99771.57,-209,+68,-34
141101,8.507,-4.817,1.930,-0.306996,-0.273756,0.237803,99769.21,-209,+67,-36
141110,8.607,-4.971,1.952,-0.328281,-0.296105,0.261216,99769.21,-209,+67,-36
141120,8.632,-5.024,1.954,-0.376703,-0.304619,0.286757,99769.21,-208,+66,-36
141130,8.681,-4.966,1.816,-0.433639,-0.311536,0.322408,99770.45,-208,+66,-36
141140,8.868,-4.881,1.736,-0.484189,-0.333353,0.364977,99769.88,-208,+66,-37
141151,9.353,-4.611,1.874,-0.531015,-0.370068,0.421381,99771.08,-208,+64,-38
141160,9.898,-4.435,2.132,-0.571455,-0.424343,0.494812,99768.56,-208,+63,-39
141170,10.435,-4.948,2.190,-0.600721,-0.507352,0.577821,99768.56,-207,+63,-39
141180,11.381,-5.327,2.528,-0.664574,-0.610582,0.654977,99773.66,-207,+62,-41
141191,12.385,-5.667,3.107,-0.789088,-0.711683,0.739582,99773.03,-207,+60,-42
141200,13.738,-6.360,3.449,-0.960959,-0.782985,0.838023,99770.64,-206,+58,-44
141206,15.872,-6.657,3.405,-1.097180,-0.848435,0.918903,99769.38,-206,+58,-44
141215,18.986,-6.608,3.673,-1.292996,-0.946343,1.007766,99769.38,-205,+56,-47
141225,23.923,-5.297,7.309,-1.542023,-1.069792,1.289252,99769.38,-204,+52,-50
141236,25.864,-1.945,7.213,-2.161931,-1.006471,1.512206,99773.44,-204,+52,-50
141246,24.743,-1.397,2.258,-1.907583,-1.289022,1.657472,99769.20,-203,+50,-53
141255,23.109,-0.371,-0.608,-1.290867,-1.737590,1.529765,99771.64,-201,+45,-58
141265,17.208,-1.855,-1.586,-0.551767,-2.210104,1.504756,99771.64,-199,+41,-65
141276,9.595,-9.309,-0.806,0.458177,-2.621957,1.933105,99770.14,-199,+41,-65
141285,8.534,-15.646,0.899,1.409057,-2.799681,2.185325,99770.14,-194,+33,-72
141295,7.931,-17.664,1.729,1.708103,-2.702837,2.002811,99769.30,-190,+24,-80
141305,6.539,-19.529,-0.579,1.245700,-2.327700,1.917141,99770.14,-186,+15,-86
141316,2.425,-18.039,-3.398,0.612489,-2.143058,1.794224,99770.77,-186,+15,-86
141325,1.784,-14.000,-2.151,0.212343,-1.806764,1.548921,99770.77,-182,+9,-90
141335,1.937,-11.850,-1.608,-0.278263,-1.446526,1.397802,99771.88,-179,+5,-95
141345,0.484,-9.980,-1.845,-0.627859,-1.259223,1.305215,99770.48,-176,+2,-99
141356,-0.929,-9.323,-0.832,-0.646483,-1.043187,1.232848,99769.79,-176,+2,-99
141366,-0.850,-7.297,-1.059,-0.680005,-0.894196,1.111527,99770.34,-173,+0,-103
141376,-0.934,-5.454,-1.423,-0.733216,-0.786710,1.037032,99769.20,-171,-1,-106
141385,-1.343,-4.647,-1.308,-0.722042,-0.671242,1.002445,99770.29,-169,-2,-107
141395,-1.707,-3.608,-1.282,-0.673088,-0.588765,0.932738,99767.10,-168,-2,-110
141406,-1.811,-2.325,-1.417,-0.606574,-0.516930,0.837491,99767.10,-168,-3,-110
141415,-1.719,-1.319,-1.722,-0.512923,-0.472765,0.766188,99767.63,-167,-4,-112
141425,-1.487,-0.702,-1.969,-0.353290,-0.475958,0.713509,99767.63,-165,-6,-114
141435,-1.323,-0.288,-2.051,-0.171841,-0.500435,0.634757,99767.05,-164,-7,-115
141441,-1.294,0.045,-2.066,-0.040410,-0.516398,0.564518,99768.72,-164,-7,-115
141451,-1.396,0.263,-2.170,0.077187,-0.534490,0.497473,99767.47,-162,-9,-117
141460,-1.525,0.418,-2.233,0.233627,-0.566417,0.428298,99765.06,-162,-9,-117
141470,-1.767,0.423,-2.237,0.397517,-0.596215,0.345821,99765.06,-161,-10,-117
141480,-2.097,0.322,-2.144,0.556618,-0.617499,0.264408,99768.52,-159,-11,-118
141491,-2.484,0.047,-2.002,0.680067,-0.606325,0.183528,99770.20,-157,-13,-119
141500,-2.672,-0.275,-1.883,0.747113,-0.564288,0.090409,99769.41,-157,-13,-119
141510,-2.734,-0.508,-1.753,0.754562,-0.500435,-0.018674,99767.38,-155,-16,-120
141520,-2.733,-0.840,-1.573,0.713590,-0.410508,-0.134142,99767.38,-156,-16,-120
141531,-2.615,-1.037,-1.315,0.613553,-0.292912,-0.259720,99772.47,-155,-17,-120
141541,-2.379,-1.228,-0.896,0.487975,-0.150839,-0.387426,99768.92,-155,-17,-120
141550,-1.976,-1.389,-0.725,0.374104,-0.003445,-0.515132,99767.52,-155,-17,-120
141560,-1.629,-1.701,-0.666,0.241077,0.151399,-0.650288,99769.70,-156,-16,-120
141571,-1.350,-2.293,-0.495,0.088893,0.328060,-0.777995,99769.70,-157,-14,-120
141581,-0.939,-3.029,-0.308,-0.080850,0.529197,-0.914747,99768.65,-157,-14,-120
141590,-0.392,-3.654,-0.329,-0.284116,0.747362,-1.068526,99768.91,-161,-12,-117
141600,0.376,-4.053,-0.252,-0.507602,0.986812,-1.234545,99768.23,-162,-7,-116
141611,1.319,-4.241,-0.265,-0.709804,1.227857,-1.399499,99767.24,-166,-2,-112
141621,2.399,-4.329,-0.188,-0.827400,1.456665,-1.549022,99767.24,-166,-2,-112
141631,3.761,-4.430,-0.161,-0.809840,1.651417,-1.683645,99770.87,-170,+3,-109
141640,5.150,-4.489,-0.099,-0.660850,1.798811,-1.789535,99766.70,-174,+10,-105
141650,6.400,-4.924,0.120,-0.455987,1.947802,-1.853388,99770.46,-179,+16,-99
141661,7.426,-5.783,0.059,-0.268152,2.054756,-1.911920,99767.63,-183,+16,-99
141671,8.158,-6.775,-0.340,-0.211217,2.173416,-2.015150,99767.63,-183,+23,-93
141676,8.601,-7.193,-0.711,-0.270281,2.289948,-2.111994,99771.88,-186,+30,-88
141685,9.307,-7.106,-1.031,-0.391070,2.433086,-2.208838,99771.88,-186,+30,-88
141696,10.673,-6.690,-1.631,-0.521969,2.600168,-2.279608,99770.32,-191,+37,-80
141706,12.202,-6.367,-2.484,-0.443217,2.683177,-2.266838,99770.05,-194,+45,-73
141716,13.387,-6.666,-2.998,-0.193125,2.682113,-2.174783,99769.43,-198,+53,-65
141726,14.165,-6.967,-3.276,0.157003,2.568774,-2.006636,99773.62,-198,+53,-65
141735,12.522,-8.633,-2.057,0.545975,2.422976,-1.786343,99773.30,-201,+60,-57
141746,9.246,-26.088,3.509,1.146727,2.464480,-0.761499,99768.45,-203,+63,-49
141756,18.859,-23.974,-3.922,2.515314,1.449747,-0.658802,99768.45,-204,+62,-46
141765,21.769,-7.484,0.841,2.270011,1.051729,-1.106306,99770.79,-204,+62,-46
141775,34.297,-0.149,20.088,1.298911,1.860004,-1.231884,99770.79,-206,+64,-42
141786,39.638,-1.582,11.141,0.091022,1.451876,-0.780123,99770.11,-207,+67,-37
141796,21.567,-2.776,-6.931,-0.370318,0.843142,-0.384233,99767.30,-207,+69,-34
141805,7.092,-9.551,-10.179,0.336856,0.903803,-0.141059,99771.63,-207,+69,-34
141815,0.982,-3.167,-2.145,0.200636,0.907527,-0.117114,99770.80,-208,+69,-32
141826,0.644,0.269,7.591,-0.175033,0.945839,-0.005371,99770.80,-210,+69,-29
141836,6.149,-3.949,7.682,0.266618,0.678188,0.131913,99771.41,-210,+69,-27
141846,8.455,-9.299,4.590,0.643884,0.331253,0.007932,99768.16,-210,+69,-27
141855,7.973,-11.104,3.935,0.343242,0.276977,-0.195866,99770.21,-210,+68,-26
141865,7.665,-6.447,3.461,-0.231969,0.349876,-0.346454,99770.21,-210,+69,-25
141876,8.350,-1.668,1.922,-0.324024,0.326464,-0.311334,99770.21,-210,+71,-24
141886,10.060,-1.610,0.683,0.119756,0.145014,-0.180967,99770.46,-211,+71,-24
141895,10.821,-4.448,1.145,0.443278,-0.008233,-0.057518,99770.98,-211,+72,-23
141905,9.225,-6.101,2.097,0.359205,-0.050802,0.015913,99771.29,-210,+71,-24
141916,7.630,-5.669,2.865,0.054838,-0.043885,0.069656,99770.24,-210,+70,-25
141926,7.430,-4.794,3.813,-0.214409,-0.057188,0.126060,99770.24,-210,+70,-24
141936,7.738,-4.398,4.075,-0.334134,-0.119977,0.177142,99771.09,-210,+70,-24
141945,7.837,-4.431,3.132,-0.328813,-0.200857,0.218647,99770.66,-210,+69,-25
141956,8.034,-4.350,2.182,-0.287308,-0.260454,0.262280,99770.74,-210,+69,-26
141966,8.062,-4.477,1.830,-0.243675,-0.302490,0.291546,99770.74,-210,+68,-26
141976,8.044,-4.527,1.807,-0.176098,-0.339206,0.316023,99772.61,-210,+68,-26
141986,7.940,-4.759,1.848,-0.106391,-0.356765,0.344225,99770.09,-210,+67,-27
141996,7.824,-5.042,1.855,-0.068079,-0.374325,0.370830,99770.09,-210,+66,-29
142006,7.588,-5.129,1.662,-0.028703,-0.399866,0.385197,99770.14,-210,+64,-30
142016,7.572,-5.141,1.024,0.021315,-0.425408,0.393711,99769.11,-210,+64,-30
142025,8.115,-5.343,0.404,0.079847,-0.441903,0.407014,99769.11,-208,+63,-31
142035,8.619,-5.254,0.330,0.064948,-0.431261,0.403289,99772.55,-209,+62,-33
142046,8.868,-5.200,0.345,0.021315,-0.389224,0.393179,99770.14,-209,+60,-33
142056,8.632,-5.618,0.345,-0.008483,-0.355701,0.368702,99770.52,-209,+60,-33
142066,8.253,-5.874,0.477,-0.033492,-0.320582,0.325069,99769.94,-208,+59,-34
142075,7.819,-5.919,0.877,-0.096281,-0.277481,0.287821,99772.95,-208,+58,-35
142086,7.587,-5.815,1.069,-0.147896,-0.253536,0.266537,99773.17,-208,+57,-35
142096,7.676,-5.409,1.311,-0.177694,-0.246087,0.254298,99770.03,-208,+57,-35
142106,7.800,-4.906,1.883,-0.167584,-0.278013,0.255363,99770.03,-208,+57,-36
142115,7.727,-4.651,1.909,-0.108520,-0.328031,0.283032,99769.77,-207,+56,-38
142126,7.885,-4.787,1.401,-0.015400,-0.374325,0.322408,99769.77,-207,+54,-38
142136,8.094,-5.291,1.249,0.033022,-0.408380,0.375619,99772.09,-207,+54,-38
142146,8.208,-5.657,1.210,-0.015223,-0.411395,0.423687,99770.87,-207,+54,-39
142155,8.153,-5.773,1.249,-0.068611,-0.414765,0.439473,99770.87,-206,+52,-41
142166,7.892,-5.618,1.329,-0.095217,-0.433389,0.454904,99767.49,-206,+50,-42
142176,7.691,-5.539,1.199,-0.073932,-0.458398,0.460225,99767.49,-206,+50,-42
142186,7.669,-5.682,0.931,-0.044666,-0.482343,0.467142,99773.61,-206,+50,-43
142196,7.706,-5.968,0.653,-0.032428,-0.490857,0.469803,99770.34,-206,+48,-45
142205,7.720,-6.014,0.631,-0.056905,-0.482343,0.468739,99769.75,-204,+46,-45
142216,7.785,-5.998,0.779,-0.098409,-0.467444,0.470867,99769.75,-204,+46,-45
142226,7.861,-5.858,0.811,-0.139382,-0.464784,0.482573,99769.75,-204,+45,-47
142236,8.055,-5.811,0.788,-0.162795,-0.462655,0.501197,99772.66,-204,+43,-49
142245,8.173,-6.047,0.625,-0.164923,-0.467976,0.515032,99774.45,-203,+41,-49
142256,8.061,-6.299,0.621,-0.172373,-0.475426,0.525142,99772.41,-203,+41,-49
142266,7.920,-6.448,0.579,-0.210685,-0.474894,0.536317,99770.27,-203,+39,-51
142276,8.019,-6.602,0.459,-0.250593,-0.466380,0.540573,99770.27,-203,+39,-53
142286,8.186,-6.501,0.696,-0.296886,-0.456802,0.549619,99771.48,-201,+36,-54
142296,8.304,-6.606,0.956,-0.314978,-0.455206,0.575693,99772.47,-201,+36,-54
142306,8.604,-6.883,0.926,-0.325088,-0.455206,0.614537,99769.20,-202,+35,-55
142316,7.476,-9.058,2.957,-0.398519,-0.391353,0.681583,99769.20,-200,+33,-57
142326,9.983,-6.652,1.792,-0.646483,-0.296105,0.701803,99773.52,-199,+32,-57
142336,9.611,-6.566,0.164,-0.758226,-0.312068,0.704463,99773.16,-199,+32,-57
142346,10.046,-6.543,-0.222,-0.775253,-0.365279,0.741711,99773.16,-200,+30,-58
142356,10.257,-5.869,-0.385,-0.817290,-0.394545,0.801839,99770.28,-199,+28,-60
142366,10.409,-5.335,-0.865,-0.778446,-0.471169,0.878995,99770.02,-198,+27,-61
142375,10.473,-5.595,-1.242,-0.699161,-0.557371,0.946041,99770.02,-198,+27,-61
142382,10.540,-5.823,-1.501,-0.661914,-0.635591,0.985949,99771.98,-197,+24,-63
142391,10.573,-5.996,-1.515,-0.633712,-0.713811,1.014151,99768.84,-196,+22,-66
142401,10.542,-6.129,-0.815,-0.637437,-0.772875,1.046078,99771.09,-196,+22,-66
142411,10.530,-6.373,-0.348,-0.644886,-0.815976,1.087050,99769.94,-195,+19,-67
142420,10.469,-6.511,-0.134,-0.664042,-0.854288,1.122702,99769.94,-193,+16,-70
142431,10.364,-6.544,0.206,-0.732152,-0.876104,1.149839,99772.63,-191,+13,-73
142441,10.275,-6.557,0.617,-0.830060,-0.901114,1.173784,99771.05,-191,+13,-73
142451,10.773,-6.278,1.239,-0.940739,-0.931444,1.194004,99769.59,-189,+11,-75
142460,12.016,-6.256,1.973,-1.021620,-0.999022,1.201454,99770.80,-188,+8,-79
142471,13.390,-6.074,3.309,-1.046097,-1.088948,1.197729,99770.80,-185,+5,-82
142481,13.571,-5.948,4.407,-1.045033,-1.135242,1.226463,99772.10,-185,+5,-82
142491,13.108,-6.004,4.555,-1.179124,-1.099591,1.286591,99768.65,-182,+3,-86
142501,12.454,-5.686,4.213,-1.484201,-1.043542,1.381839,99768.40,-180,+1,-90
142511,13.090,-5.094,4.540,-1.751675,-1.061279,1.518059,99767.04,-176,+0,-93
142521,14.463,-4.942,5.250,-1.904390,-1.165572,1.737820,99767.04,-176,+0,-93
142531,15.370,-6.129,4.661,-1.853840,-1.333719,2.041123,99769.25,-173,-3,-97
142541,15.330,-7.527,4.077,-1.709106,-1.486966,2.329526,99770.30,-168,-6,-103
142551,15.173,-7.387,3.841,-1.729858,-1.503462,2.490756,99768.31,-164,-10,-107
142561,15.176,-7.204,3.863,-1.845858,-1.460361,2.515233,99768.42,-164,-10,-107
142571,14.166,-6.828,3.642,-1.975693,-1.409279,2.418921,99768.42,-159,-13,-111
142581,12.870,-6.572,3.271,-1.884702,-1.358728,2.307178,99771.27,-154,-16,-116
142590,11.682,-5.995,3.401,-1.597895,-1.330526,2.128389,99771.79,-149,-19,-120
142601,10.004,-5.106,3.945,-1.310023,-1.216655,1.822426,99769.38,-149,-19,-120
142611,8.080,-5.461,3.216,-1.230207,-0.933572,1.478683,99767.98,-144,-21,-123
142621,6.219,-5.553,0.387,-1.494133,-0.649958,1.207307,99767.98,-141,-21,-126
142631,2.343,-8.878,-1.811,-1.781473,-0.369004,1.238701,99771.36,-138,-22,-128
142641,3.528,-9.627,-0.683,-2.090628,0.163106,1.133876,99767.33,-138,-22,-128
142651,5.134,-5.323,0.840,-2.426922,0.529729,0.479381,99768.28,-139,-20,-129
142661,5.859,-0.670,1.073,-2.325289,0.679784,0.120207,99767.75,-140,-15,-130
142670,5.623,3.762,0.630,-1.680904,0.520684,-0.062307,99767.75,-140,-11,-129
142681,4.481,4.500,0.328,-0.643290,0.367436,-0.255995,99768.88,-140,-11,-129
142691,3.850,3.032,0.319,0.353884,0.306243,-0.414032,99768.82,-140,-11,-129
142701,3.653,1.736,0.307,1.088727,0.300922,-0.575261,99769.77,-141,-13,-127
142711,3.670,0.546,-0.100,1.568158,0.369564,-0.782784,99765.74,-142,-15,-125
142721,4.046,-0.041,-0.719,1.855498,0.448849,-1.040857,99765.74,-144,-17,-122
142731,4.323,-0.826,-0.984,2.026305,0.580280,-1.306380,99768.23,-144,-17,-122
142737,4.344,-1.643,-0.742,2.083773,0.729803,-1.489425,99767.77,-148,-18,-118
142746,4.477,-2.148,-0.432,2.082176,0.892096,-1.678856,99767.77,-148,-18,-118
142756,4.768,-2.311,-0.337,2.011938,1.103344,-1.942251,99766.16,-150,-20,-113
142767,5.294,-2.062,-0.660,1.917754,1.287986,-2.174783,99766.09,-155,-20,-108
142776,5.985,-1.976,-1.064,1.833149,1.450279,-2.383902,99766.09,-160,-19,-103
142786,6.694,-2.159,-1.207,1.798030,1.582775,-2.571204,99767.54,-160,-19,-103
142796,7.406,-2.254,-1.257,1.792709,1.696646,-2.755847,99764.85,-164,-16,-96
142807,8.038,-2.412,-1.282,1.772488,1.789765,-2.935699,99767.15,-169,-11,-90
142816,8.356,-2.609,-1.182,1.745883,1.867453,-3.111296,99767.15,-175,-5,-84
142826,8.369,-3.090,-0.986,1.725663,1.936096,-3.272525,99767.15,-175,-5,-84
142836,8.323,-3.550,-0.909,1.714489,2.001013,-3.423112,99767.05,-178,+0,-76
142846,8.305,-4.013,-0.714,1.669791,2.111692,-3.563589,99768.03,-183,+7,-69
142856,8.523,-4.328,-0.296,1.625626,2.251637,-3.695020,99766.47,-187,+15,-63
142866,8.961,-4.277,-0.067,1.628819,2.392113,-3.811552,99767.30,-190,+15,-63
142876,9.504,-4.279,-0.064,1.728855,2.512370,-3.907332,99767.30,-190,+24,-55
142886,10.008,-4.811,-0.366,1.874653,2.603361,-3.981295,99768.46,-193,+32,-47
142897,10.455,-5.609,-0.725,1.957131,2.685306,-4.038763,99766.09,-197,+41,-41
142906,10.660,-6.598,-0.845,1.923075,2.793324,-4.082928,99765.27,-199,+51,-32
142916,10.963,-7.258,-0.840,1.792176,2.914113,-4.132946,99765.27,-199,+51,-32
142926,11.413,-7.554,-0.782,1.615516,3.032242,-4.205314,99771.52,-201,+62,-24
142936,11.933,-7.860,-0.705,1.413846,3.132810,-4.270763,99771.52,-203,+73,-16
142946,12.439,-8.390,-0.718,1.206856,3.211563,-4.312267,99768.95,-203,+86,-6
142956,12.817,-9.309,-0.826,1.019021,3.259984,-4.308543,99768.64,-203,+86,-6
142966,13.226,-10.195,-0.906,0.883865,3.253599,-4.245754,99765.25,-201,+99,+3
142971,13.449,-10.885,-1.161,0.819480,3.221141,-4.158488,99765.25,-201,+99,+3
142981,13.641,-11.817,-1.434,0.808838,3.160480,-4.018543,99770.66,-199,+112,+11
142991,13.639,-13.042,-1.625,0.851406,3.042352,-3.780158,99769.72,-197,+123,+19
143001,13.314,-13.601,-1.886,0.915792,2.917838,-3.502397,99768.36,-194,+132,+26
143011,13.045,-13.366,-2.324,1.003058,2.801838,-3.185259,99768.36,-194,+132,+26
143021,12.887,-12.998,-3.328,1.114801,2.631563,-2.835663,99768.36,-191,+142,+33
143031,12.674,-13.462,-5.956,1.180782,2.388921,-2.519058,99771.94,-188,+150,+39
143041,11.793,-15.755,-7.947,1.013700,2.028151,-2.324838,99771.63,-185,+157,+42
143051,9.317,-19.433,-9.688,0.542251,1.609380,-1.966196,99772.52,-185,+157,+42
143062,7.479,-23.806,-10.181,0.087829,1.029381,-1.293609,99774.55,-183,+163,+46
143071,6.720,-23.213,-9.161,-0.357015,0.387124,-0.460857,99774.55,-183,+165,+49
143081,6.467,-18.679,-5.815,-0.750776,-0.106674,0.385197,99775.07,-185,+163,+50
143091,6.968,-13.411,-2.998,-0.733749,-0.514802,1.110463,99769.59,-185,+163,+50
143101,6.908,-10.101,-2.847,-0.189400,-0.906967,1.513270,99773.04,-189,+159,+50
143111,5.705,-8.558,-1.702,0.721040,-1.321480,1.834664,99769.59,-193,+152,+47
143121,8.479,-4.304,3.459,1.637865,-1.480049,1.954389,99769.59,-198,+147,+42
143131,20.689,15.349,23.740,1.915094,-1.424178,1.362151,99769.71,-198,+147,+42
143141,29.504,14.368,15.801,0.563535,0.965527,0.209069,99764.70,-201,+143,+38
143152,21.324,-5.533,-14.801,-1.352592,0.231216,1.512206,99772.68,-201,+140,+43
143161,14.306,-16.924,-8.294,0.728489,-1.252838,2.475857,99773.41,-206,+132,+37
143171,11.764,-13.250,5.593,1.879975,-1.594985,2.350811,99773.41,-208,+125,+31
143181,8.406,-2.381,-3.263,0.549700,-1.190581,1.850628,99771.89,-208,+125,+31
143192,7.031,-5.795,1.235,0.000563,-0.690930,1.971417,99772.94,-211,+119,+30
143201,9.828,-9.203,4.117,0.138911,-0.510545,2.010261,99768.91,-214,+112,+28
143207,10.459,-7.770,5.189,-0.201107,-0.624949,1.980995,99769.48,-214,+112,+28
143216,9.744,-4.929,6.198,-0.291033,-0.731371,1.943747,99769.48,-217,+105,+25
143226,6.905,-3.751,5.940,-0.317639,-0.860141,1.782518,99769.48,-218,+99,+23
143237,4.815,-3.949,5.287,-0.287308,-1.007004,1.543068,99771.86,-218,+99,+23
143246,5.418,-3.403,3.494,-0.131932,-1.055426,1.377582,99770.72,-218,+94,+20
143256,7.889,-1.896,2.410,0.100600,-1.042123,1.309472,99769.78,-219,+88,+18
143266,9.784,-1.471,1.773,0.361333,-1.007004,1.328628,99769.78,-219,+83,+15
143277,10.306,-2.220,-0.136,0.545975,-0.980398,1.363215,99773.82,-219,+83,+15
143286,10.107,-4.035,-1.428,0.534269,-0.870783,1.402059,99773.82,-220,+79,+12
143296,9.859,-5.887,-1.060,0.313976,-0.685077,1.397802,99773.41,-221,+74,+9
143306,9.601,-6.542,0.728,-0.016465,-0.480215,1.339270,99770.63,-221,+69,+8
143316,8.879,-5.075,2.313,-0.362336,-0.333885,1.238169,99770.32,-221,+69,+8
143326,8.023,-3.761,2.984,-0.598593,-0.283866,1.164206,99770.32,-222,+64,+7
143336,7.994,-3.418,2.967,-0.690648,-0.311536,1.136536,99771.77,-221,+60,+7
143346,8.400,-3.414,2.785,-0.616152,-0.372729,1.112059,99774.07,-222,+56,+6
143356,8.534,-3.396,2.747,-0.470354,-0.418490,1.079069,99770.41,-222,+56,+6
143367,8.298,-3.531,2.602,-0.393730,-0.452013,1.053527,99768.91,-222,+52,+6
143377,8.192,-3.687,2.444,-0.390006,-0.472233,1.049803,99772.81,-222,+49,+3
143386,8.387,-4.076,2.251,-0.431510,-0.469573,1.050335,99771.72,-222,+45,+1
143396,8.821,-4.349,2.178,-0.473015,-0.472233,1.045014,99772.03,-222,+41,+0
143407,8.996,-4.412,1.873,-0.500152,-0.481811,1.027986,99772.03,-222,+41,+0
143416,8.830,-4.247,1.649,-0.538996,-0.461059,1.013619,99769.80,-222,+38,-1
143426,8.505,-4.325,1.687,-0.551235,-0.420619,1.007234,99769.80,-221,+35,-1
143436,8.436,-4.128,1.781,-0.550703,-0.405187,1.005105,99774.34,-221,+31,-3
143441,8.434,-4.006,2.117,-0.533143,-0.404655,1.004041,99773.56,-221,+31,-3
143452,8.242,-4.097,2.256,-0.487914,-0.416362,0.998720,99771.95,-220,+28,-5
143461,7.846,-4.465,2.130,-0.428318,-0.424343,0.992335,99769.91,-220,+28,-5
143471,7.573,-4.878,1.851,-0.390006,-0.426472,0.974243,99769.91,-220,+24,-6
143481,7.666,-4.954,1.904,-0.371382,-0.418490,0.945509,99771.87,-219,+22,-7
143492,7.846,-5.093,1.784,-0.372978,-0.399334,0.915711,99772.34,-220,+19,-8
143501,7.958,-5.177,1.369,-0.383620,-0.375921,0.893362,99771.40,-220,+19,-8
143511,8.004,-5.212,1.271,-0.421400,-0.337077,0.880592,99771.09,-218,+15,-9
143521,8.023,-5.170,1.232,-0.452262,-0.305683,0.882720,99771.09,-219,+13,-11
143532,7.951,-5.141,1.390,-0.452262,-0.284931,0.889637,99776.12,-218,+9,-12
143542,7.989,-5.279,1.645,-0.450666,-0.272160,0.896023,99774.29,-218,+9,-12
143551,7.851,-5.487,2.409,-0.465033,-0.243958,0.915179,99772.09,-217,+7,-12
143561,7.889,-5.629,2.223,-0.537400,-0.234380,0.929546,99770.99,-217,+4,-14
143571,7.702,-5.530,3.051,-0.575712,-0.239701,0.943913,99770.99,-216,+0,-14
143582,7.831,-5.631,3.064,-0.650739,-0.229059,0.974243,99772.53,-216,+0,-14
143591,7.924,-5.479,2.650,-0.706611,-0.267903,1.024261,99771.33,-215,-1,-15
143601,8.202,-5.741,2.501,-0.743326,-0.287591,1.088114,99767.94,-215,-5,-17
143611,8.581,-6.289,2.116,-0.808776,-0.299830,1.149307,99771.69,-213,-9,-18
143622,8.932,-6.849,1.492,-0.873693,-0.307811,1.179637,99771.69,-213,-9,-18
143632,9.374,-7.004,0.858,-0.977455,-0.300894,1.197197,99773.31,-212,-13,-18
143641,9.477,-6.815,0.350,-1.066849,-0.294509,1.205711,99772.11,-211,-15,-20
143651,9.498,-6.381,0.211,-1.125913,-0.311004,1.210500,99770.34,-209,-19,-22
143662,9.698,-6.038,0.230,-1.123253,-0.371664,1.224867,99770.44,-208,-19,-24
143671,10.060,-6.032,0.175,-1.058868,-0.480747,1.247215,99770.44,-208,-22,-24
143677,10.335,-6.487,0.249,-1.003528,-0.573866,1.270096,99775.10,-206,-25,-26
143686,10.643,-6.903,0.178,-0.985436,-0.652618,1.300426,99775.10,-206,-25,-26
143696,11.399,-6.993,0.140,-1.018959,-0.736692,1.339802,99774.37,-204,-28,-30
143707,12.134,-7.056,0.401,-1.080684,-0.830875,1.383967,99769.93,-201,-32,-32
143717,13.052,-6.888,0.698,-1.176464,-0.916545,1.449417,99768.21,-198,-35,-37
143726,13.679,-6.485,0.843,-1.257344,-1.012325,1.534554,99771.36,-198,-35,-37
143736,13.750,-6.278,1.150,-1.322794,-1.109701,1.621288,99771.67,-195,-37,-41
143747,13.805,-6.277,1.509,-1.422831,-1.169297,1.718664,99769.47,-192,-40,-45
143757,14.268,-6.289,1.652,-1.578739,-1.177811,1.804334,99769.47,-187,-43,-51
143766,14.675,-5.862,1.721,-1.739436,-1.195370,1.872976,99770.63,-187,-43,-51
143776,15.561,-4.727,2.593,-1.911307,-1.202820,1.890536,99770.63,-183,-46,-56
143787,17.883,-2.891,4.449,-2.056041,-1.238471,1.849031,99770.66,-179,-47,-62
143797,20.260,-1.696,6.531,-2.033693,-1.409279,1.948536,99770.24,-175,-48,-69
143806,21.606,-1.168,7.349,-1.916096,-1.550820,2.148077,99768.95,-175,-48,-69
143816,19.559,-4.022,5.620,-1.756464,-1.714710,2.475857,99769.20,-168,-50,-76
143826,17.431,-7.088,3.411,-1.518078,-1.944581,2.879196,99769.20,-161,-54,-82
143837,17.517,-7.905,4.525,-1.208923,-2.173920,3.165471,99772.48,-154,-58,-90
143847,18.452,-7.447,7.567,-1.114207,-2.231920,3.204315,99768.51,-154,-58,-90
143856,17.373,-8.791,8.353,-1.279693,-2.111131,3.081398,99769.13,-145,-64,-96
143866,15.993,-8.598,6.746,-1.643656,-1.864764,2.820132,99769.13,-137,-66,-103
143877,13.612,-7.941,4.713,-1.662280,-1.675865,2.591325,99769.13,-129,-67,-110
143887,11.049,-7.970,5.191,-1.446244,-1.474196,2.216187,99772.95,-122,-67,-110
143896,9.307,-6.562,6.480,-1.238189,-1.150673,1.595747,99771.92,-122,-68,-114
143906,7.612,-3.411,3.016,-1.332904,-0.917077,0.946041,99767.42,-118,-66,-118
143917,1.350,-1.258,-0.864,-1.564904,-0.988912,0.590592,99769.98,-114,-62,-123
143927,0.123,-6.637,1.394,-1.280757,-0.496178,0.683179,99769.98,-110,-59,-125
143937,2.136,-3.159,2.804,-0.804519,-0.318986,0.029748,99770.30,-110,-59,-125
143946,3.363,1.334,1.201,-0.766739,-0.097096,-0.566747,99767.90,-110,-55,-126
143956,3.047,1.971,1.211,-0.816226,0.132243,-0.766288,99765.57,-112,-51,-128
143967,2.182,2.007,0.389,-0.720446,0.299858,-0.986582,99765.57,-112,-46,-130
143977,1.803,2.626,0.387,-0.511327,0.445656,-1.239866,99768.71,-112,-46,-130
143986,1.780,2.519,1.029,-0.051052,0.553142,-1.482508,99768.71,-115,-41,-131
143996,2.337,1.820,1.362,0.560342,0.641473,-1.735792,99767.51,-118,-38,-130
144007,3.385,1.582,0.199,1.142470,0.651051,-2.002379,99767.35,-122,-36,-128
144017,3.679,0.817,-0.884,1.699589,0.576023,-2.186489,99766.26,-122,-36,-128
144026,3.427,-0.666,-0.718,2.199773,0.588262,-2.388159,99766.26,-124,-35,-126
144036,3.336,-1.678,0.208,2.490837,0.706922,-2.634526,99763.52,-129,-35,-124
144047,3.597,-2.006,0.746,2.574910,0.883050,-2.903241,99765.34,-135,-33,-120
144057,4.178,-1.980,1.093,2.586616,1.074610,-3.162910,99762.31,-135,-33,-120
144067,5.119,-1.582,1.200,2.605772,1.252867,-3.406617,99764.25,-141,-31,-117
144076,6.030,-1.849,0.830,2.550433,1.441766,-3.603497,99767.86,-150,-28,-114
144087,6.547,-3.429,0.458,2.399314,1.630132,-3.713112,99764.72,-157,-22,-109
144097,6.705,-5.187,0.066,2.166250,1.780187,-3.813681,99764.88,-157,-22,-109
144107,6.826,-6.047,0.157,1.908709,1.941417,-3.971185,99764.88,-166,-15,-103
144116,7.315,-6.350,0.173,1.649039,2.158517,-4.170194,99766.50,-176,-7,-98
144126,8.140,-6.736,0.129,1.440452,2.396370,-4.342066,99766.50,-184,+4,-91
144137,9.104,-7.021,-0.079,1.329773,2.588462,-4.455937,99769.16,-184,+4,-91
144147,10.170,-7.203,-0.451,1.344850,2.718474,-4.524934,99768.52,-191,+18,-84
144156,11.113,-7.283,-0.885,1.463865,2.758737,-4.561295,99768.52,-197,+33,-76
144166,11.927,-7.408,-1.376,1.619241,2.735857,-4.584176,99763.94,-201,+49,-67
144177,12.690,-7.607,-1.863,1.743755,2.680517,-4.590561,99763.94,-201,+49,-67
144187,13.507,-8.321,-2.496,1.802819,2.621453,-4.591625,99768.77,-201,+66,-61
144197,14.400,-9.646,-2.929,1.833149,2.526737,-4.567680,99767.64,-201,+81,-55
144206,14.995,-10.879,-3.470,1.793241,2.400627,-4.529368,99768.97,-198,+96,-49
144217,15.132,-11.775,-3.773,1.711828,2.267068,-4.445827,99768.97,-198,+96,-49
144227,15.027,-12.399,-3.836,1.671388,2.089343,-4.297369,99768.97,-194,+109,-46
144237,14.524,-13.026,-3.562,1.672984,1.893527,-4.093038,99768.63,-190,+121,-43
144246,13.035,-14.125,-2.955,1.659149,1.704628,-3.802506,99769.56,-184,+130,-41
144257,11.188,-14.887,-2.349,1.646911,1.552976,-3.420452,99771.28,-184,+130,-41
144267,9.772,-15.217,-2.118,1.629351,1.460922,-3.003278,99768.83,-181,+137,-38
144277,8.702,-15.482,-2.318,1.555388,1.422078,-2.598342,99768.83,-178,+143,-38
144287,7.913,-15.421,-3.069,1.380856,1.389087,-2.240232,99771.61,-175,+148,-35
144296,7.204,-15.084,-4.218,1.118526,1.338536,-1.950764,99770.09,-175,+148,-35
144307,6.425,-15.472,-4.508,0.822140,1.215087,-1.716636,99770.94,-174,+152,-33
144317,5.684,-16.101,-3.976,0.517774,1.044280,-1.438875,99770.94,-173,+156,-31
144327,5.352,-16.154,-3.450,0.315040,0.874004,-1.088215,99773.71,-171,+160,-28
144336,5.296,-16.695,-3.814,0.224581,0.734592,-0.667848,99772.60,-171,+160,-28
144347,4.898,-17.116,-5.401,0.221921,0.506317,-0.193738,99772.60,-171,+161,-27
144357,4.864,-17.065,-6.873,0.293755,0.154592,0.338904,99771.24,-172,+160,-27
144367,4.927,-17.009,-6.242,0.380489,-0.300362,0.923160,99772.60,-173,+157,-28
144376,5.836,-13.176,1.347,0.463498,-0.586105,1.329160,99772.60,-175,+157,-30
144382,6.267,-9.992,18.242,0.305462,-0.282270,1.600004,99773.02,-175,+153,-30
144392,19.474,4.857,34.458,0.178288,0.728206,1.513802,99766.19,-178,+149,-27
144402,30.281,8.764,-4.120,-2.637105,1.819031,0.392647,99770.41,-178,+149,-27
144412,21.833,-2.250,-6.028,-2.542390,-0.049738,1.681417,99772.55,-179,+149,-19
144421,18.650,-11.997,4.178,0.448067,-0.942086,2.543435,99772.55,-182,+141,-23
144432,10.414,-4.769,1.648,0.535333,-1.310838,2.360921,99771.35,-184,+134,-26
144442,2.578,-4.235,-0.487,0.242673,-0.988912,2.267270,99772.98,-184,+134,-26
144452,7.016,-12.168,0.818,1.117461,-0.834068,2.714242,99768.95,-187,+126,-28
144461,14.971,-14.883,1.867,1.722470,-1.349682,2.811086,99767.49,-188,+116,-34
144472,13.391,-10.782,-1.039,1.110544,-1.533792,2.359857,99767.49,-188,+107,-39
144482,8.337,-8.203,2.298,-0.139914,-1.019242,2.110297,99771.85,-188,+107,-39
144492,5.226,-6.710,4.201,-1.196684,-0.741481,1.932040,99771.49,-190,+101,-41
144501,5.009,-3.114,1.911,-1.539895,-0.828215,1.711747,99771.85,-190,+98,-42
144512,7.452,-0.450,0.467,-1.139216,-0.872380,1.606921,99773.68,-191,+93,-44
144522,10.023,-1.116,0.411,-0.677877,-0.893132,1.625013,99773.68,-191,+93,-44
144532,10.509,-2.959,0.029,-0.337859,-0.931444,1.656408,99772.89,-191,+88,-46
144542,10.431,-3.816,-0.019,-0.120226,-0.892600,1.626077,99774.88,-192,+83,-49
144551,9.665,-4.146,0.267,-0.159602,-0.810123,1.569674,99772.27,-190,+79,-50
144562,8.881,-4.037,1.534,-0.286776,-0.698912,1.473362,99769.55,-190,+79,-50
144572,8.356,-4.487,2.621,-0.408629,-0.596215,1.366408,99769.55,-190,+73,-52
144582,8.096,-4.900,2.627,-0.544317,-0.517995,1.257325,99770.68,-190,+71,-53
144591,8.108,-4.900,2.120,-0.669363,-0.439775,1.150371,99771.26,-190,+67,-55
144602,8.214,-4.223,1.794,-0.710868,-0.380178,1.063637,99769.12,-190,+67,-55
144612,8.461,-3.691,1.322,-0.661914,-0.352509,1.015747,99772.26,-190,+66,-54
144622,8.650,-3.679,0.880,-0.555492,-0.362619,0.998720,99772.26,-190,+63,-57
144632,8.617,-4.021,1.162,-0.463437,-0.355701,0.995527,99776.09,-190,+60,-57
144642,8.311,-4.665,1.451,-0.433107,-0.334949,0.985949,99774.16,-190,+60,-57
144652,7.883,-5.184,1.715,-0.478868,-0.301958,0.955619,99771.08,-190,+57,-57
144662,7.527,-5.409,2.077,-0.587950,-0.248215,0.913050,99767.63,-190,+56,-59
144671,7.442,-5.158,2.229,-0.701822,-0.195536,0.865692,99767.63,-189,+53,-59
144681,7.518,-4.940,2.156,-0.756097,-0.146050,0.828977,99768.96,-190,+51,-59
144692,7.634,-4.946,1.767,-0.749712,-0.113059,0.800775,99770.74,-190,+51,-59
144702,7.584,-4.809,1.464,-0.689051,-0.097628,0.777362,99771.10,-190,+50,-60
144712,7.191,-4.853,1.309,-0.595932,-0.099224,0.756610,99769.74,-190,+47,-60
144721,6.790,-5.143,1.390,-0.482593,-0.092839,0.731069,99769.74,-189,+46,-60
144732,6.918,-5.386,1.159,-0.415015,-0.074747,0.689032,99770.27,-189,+46,-60
144742,7.265,-5.384,0.576,-0.369785,-0.060912,0.646463,99771.95,-189,+45,-60
144752,7.524,-5.031,0.381,-0.305400,-0.058784,0.604427,99770.43,-190,+43,-60
144761,7.629,-4.509,0.781,-0.205896,-0.080600,0.582610,99771.37,-190,+41,-60
144772,7.526,-3.842,1.447,-0.031896,-0.149775,0.584206,99771.37,-190,+41,-60
144782,7.074,-3.673,2.002,0.216599,-0.259921,0.619858,99770.10,-188,+39,-61
144792,6.506,-4.092,2.591,0.450728,-0.374325,0.686371,99774.34,-188,+37,-63
144802,6.506,-4.447,3.057,0.519370,-0.452013,0.777894,99770.16,-188,+33,-63
144812,6.924,-4.778,2.918,0.410820,-0.483408,0.907729,99770.10,-188,+33,-63
144822,7.517,-5.722,1.882,0.180416,-0.514802,1.037564,99770.10,-187,+30,-65
144832,8.600,-6.099,0.939,-0.114905,-0.508949,1.141325,99771.22,-185,+26,-66
144842,9.773,-6.104,0.498,-0.371382,-0.486068,1.224867,99771.58,-185,+22,-68
144851,10.342,-6.514,0.000,-0.498024,-0.492453,1.287123,99771.64,-185,+22,-68
144862,10.330,-6.866,-0.313,-0.581033,-0.482875,1.326500,99770.86,-183,+20,-69
144872,9.832,-6.752,-0.082,-0.673620,-0.461059,1.350445,99770.86,-183,+16,-71
144882,8.890,-6.527,0.439,-0.755565,-0.443499,1.363215,99772.66,-182,+13,-72
144891,8.478,-6.582,0.671,-0.800262,-0.452013,1.379178,99772.82,-182,+13,-72
144902,8.867,-6.726,0.825,-0.808244,-0.494582,1.405252,99770.37,-181,+10,-74
144912,9.538,-6.968,1.062,-0.809308,-0.545132,1.434518,99773.24,-179,+7,-75
144922,10.066,-7.698,1.125,-0.843895,-0.597811,1.456334,99773.24,-177,+3,-77
144932,10.658,-8.097,0.939,-0.919455,-0.653683,1.470169,99773.30,-177,+3,-77
144942,11.210,-8.233,0.836,-1.025877,-0.705829,1.475490,99771.21,-176,+1,-80
144952,11.771,-7.942,0.741,-1.131767,-0.752123,1.500499,99769.96,-173,-1,-82
144962,12.280,-7.355,0.633,-1.220629,-0.797352,1.553178,99771.54,-171,-3,-85
144972,12.627,-7.064,0.470,-1.277742,-0.866172,1.625900,99771.54,-171,-3,-85
144982,12.824,-7.098,0.368,-1.327583,-0.925059,1.687802,99774.29,-169,-5,-90
144992,13.020,-7.384,0.251,-1.413253,-0.978802,1.743674,99773.40,-165,-8,-92
145002,13.525,-7.289,0.474,-1.567564,-0.980930,1.773472,99769.59,-161,-11,-96
145012,13.933,-6.980,0.770,-1.764445,-0.931444,1.798481,99770.05,-161,-11,-96
145021,14.770,-6.177,1.115,-1.986335,-0.861205,1.807527,99770.05,-159,-11,-100
145032,16.743,-4.625,1.988,-2.160335,-0.847371,1.770279,99771.30,-155,-13,-104
145042,18.822,-2.902,3.248,-2.165124,-0.941022,1.744206,99768.02,-152,-13,-108
145052,20.083,-0.695,4.117,-2.039014,-1.095866,1.792096,99767.13,-152,-13,-108
145062,18.835,-1.245,3.582,-1.829895,-1.315627,2.027288,99770.84,-147,-14,-112
145072,16.898,-3.415,2.063,-1.455822,-1.664159,2.378481,99770.84,-141,-16,-118
145082,16.360,-5.201,2.948,-1.026941,-2.046214,2.717434,99768.67,-134,-20,-123
145092,16.612,-6.135,5.703,-0.559216,-2.339939,2.882921,99769.50,-134,-20,-123
145102,16.188,-9.430,6.355,-0.371382,-2.455406,2.963269,99768.05,-126,-25,-129
145112,15.593,-9.652,6.081,-0.632648,-2.380911,2.780223,99766.69,-117,-31,-135
145122,14.195,-7.167,5.276,-0.846556,-2.195205,2.487031,99766.69,-108,-33,-140
145132,11.899,-5.900,4.953,-0.670960,-2.078140,2.219380,99771.91,-99,-33,-140
145142,9.143,-4.902,6.521,-0.284648,-1.886581,1.755912,99771.40,-99,-36,-145
145152,7.992,-1.807,4.162,-0.035088,-1.752489,1.143454,99769.30,-92,-39,-148
145162,0.664,-3.280,-0.664,-0.237290,-1.751957,0.897087,99768.37,-87,-41,-151
145172,0.072,-10.062,1.576,-0.205364,-1.251774,1.080133,99768.37,-83,-43,-153
145182,3.653,-4.629,3.513,0.205957,-0.985719,0.180335,99770.82,-83,-43,-153
145192,3.815,0.296,2.427,0.052710,-0.504160,-0.394343,99768.95,-80,-44,-154
145202,3.621,0.403,3.140,-0.305932,-0.052931,-0.584307,99769.63,-81,-42,-155
145208,3.413,0.035,2.081,-0.421400,0.156188,-0.746600,99766.18,-81,-42,-155
145217,3.073,-0.217,1.250,-0.511859,0.351473,-0.917939,99766.18,-83,-40,-155
145227,3.426,-0.313,1.342,-0.461840,0.598904,-1.158985,99766.18,-86,-37,-155
145238,4.138,-0.372,1.470,-0.261767,0.811748,-1.451113,99768.41,-86,-37,-155
145247,4.731,-0.565,0.665,-0.029767,0.987344,-1.720893,99766.43,-91,-34,-155
145257,4.950,-0.920,-0.240,0.277260,1.090041,-1.941186,99765.38,-96,-32,-152
145267,5.237,-1.198,-0.794,0.601847,1.174646,-2.141792,99765.38,-102,-30,-149
145277,5.570,-0.840,-1.243,0.789150,1.302885,-2.357828,99768.09,-102,-30,-149
145287,5.853,-0.665,-1.083,0.911003,1.492848,-2.565351,99768.09,-109,-27,-145
145297,6.300,-0.748,-0.956,1.013168,1.657270,-2.760635,99762.87,-117,-23,-141
145307,6.804,-1.043,-1.085,1.125975,1.776995,-2.930378,99765.26,-124,-19,-136
145317,7.039,-1.820,-1.213,1.263259,1.868518,-3.079901,99762.71,-124,-19,-136
145327,6.986,-2.970,-1.225,1.386177,1.948334,-3.229424,99762.71,-131,-13,-131
145337,6.850,-4.136,-0.950,1.459608,2.027086,-3.393314,99763.30,-139,-8,-125
145347,7.107,-4.815,-0.536,1.486745,2.155325,-3.569974,99764.08,-146,+0,-118
145357,7.879,-5.049,-0.094,1.460672,2.316022,-3.749295,99764.86,-146,+0,-118
145368,8.882,-5.231,0.089,1.397351,2.470866,-3.912653,99765.80,-152,+8,-112
145377,9.614,-5.679,-0.150,1.298379,2.606554,-4.048341,99766.17,-159,+17,-106
145387,10.112,-6.190,-0.453,1.167480,2.726279,-4.144653,99767.52,-164,+28,-98
145397,10.460,-6.345,-0.850,1.019553,2.849196,-4.223938,99766.38,-168,+41,-92
145408,10.739,-6.447,-1.134,0.865241,2.982223,-4.273956,99766.38,-168,+41,-92
145417,10.989,-6.772,-1.243,0.745517,3.092902,-4.299497,99765.28,-172,+54,-85
145427,11.317,-7.210,-1.318,0.672085,3.172186,-4.325570,99765.28,-174,+68,-79
145437,11.595,-7.566,-1.363,0.632177,3.223269,-4.361222,99766.95,-176,+82,-71
145442,11.833,-7.720,-1.348,0.631113,3.246682,-4.390488,99768.42,-176,+82,-71
145453,12.095,-7.691,-1.449,0.661443,3.263177,-4.417093,99766.17,-176,+94,-65
145462,12.536,-7.794,-1.650,0.731150,3.271691,-4.421350,99764.34,-176,+94,-65
145472,12.950,-8.111,-1.935,0.809370,3.239764,-4.375588,99764.34,-175,+109,-58
145482,13.163,-8.645,-2.080,0.894507,3.164205,-4.288855,99768.31,-174,+121,-52
145492,13.338,-9.317,-2.207,0.989755,3.040223,-4.187222,99767.44,-172,+132,-47
145502,13.313,-10.354,-2.418,1.082874,2.870480,-4.048341,99766.59,-172,+132,-47
145512,12.923,-11.585,-2.699,1.122250,2.694352,-3.856781,99766.17,-168,+143,-41
145522,12.026,-12.740,-3.141,1.092452,2.536315,-3.630103,99766.17,-164,+152,-37
145532,10.779,-13.821,-3.500,0.992948,2.417655,-3.369369,99770.48,-161,+161,-32
145543,9.588,-14.876,-3.779,0.828526,2.316554,-3.075112,99769.55,-161,+161,-32
145552,8.396,-15.783,-4.179,0.584287,2.233545,-2.770746,99771.42,-156,+169,-28
145562,7.212,-16.485,-4.624,0.297480,2.126059,-2.421149,99773.47,-152,+175,-23
145572,6.613,-16.630,-5.120,-0.022318,1.962701,-2.041755,99773.47,-149,+181,-19
145583,6.671,-16.648,-5.692,-0.304868,1.753582,-1.608086,99773.62,-149,+181,-19
145592,6.572,-17.384,-7.531,-0.470886,1.392279,-1.098857,99773.77,-146,+185,-15
145602,6.482,-18.496,-9.178,-0.490042,0.886243,-0.474692,99772.63,-144,+188,-13
145612,6.720,-18.274,-10.262,-0.404373,0.282831,0.232482,99772.48,-144,+186,-12
145623,6.743,-16.056,-10.188,-0.192061,-0.370068,0.931142,99772.48,-144,+186,-12
145632,5.866,-13.629,-9.604,0.198508,-1.000618,1.546261,99776.31,-145,+184,-13
145642,5.056,-10.248,1.024,0.888654,-1.430563,1.970884,99773.97,-148,+179,-19
145652,9.936,2.488,42.482,1.738433,-0.770747,2.043252,99769.67,-151,+173,-24
145662,36.489,29.472,22.845,-0.182483,2.353802,-0.541206,99763.78,-151,+176,-15
145672,31.423,2.749,-17.505,-3.449637,0.185987,1.016812,99763.78,-151,+176,-15
145678,28.633,-15.235,0.091,1.163223,-1.625315,3.059049,99773.09,-155,+169,-20
145687,22.122,-12.126,2.417,2.931423,-2.402195,2.760003,99773.09,-155,+169,-20
145697,1.244,-4.671,-0.466,1.298379,-2.069627,1.913949,99770.48,-157,+160,-30
145708,-5.478,-15.872,-1.295,0.666232,-0.870783,2.579086,99771.69,-159,+154,-31
145718,16.425,-26.093,-1.304,1.982672,-1.034673,3.367673,99769.91,-162,+142,-38
145727,22.483,-19.001,-4.207,2.088562,-1.979168,2.280572,99776.25,-162,+142,-38
145737,12.726,-7.327,-2.573,0.277792,-0.996893,1.761233,99771.81,-162,+135,-43
145747,3.479,-4.491,3.532,-1.252023,-0.304087,1.652683,99771.45,-164,+131,-42
145758,1.681,-4.844,4.536,-2.043803,-0.178509,1.436114,99771.45,-165,+128,-41
145767,5.212,-2.646,3.427,-2.339124,-0.159353,1.280738,99771.34,-165,+128,-41
145777,9.845,2.446,2.146,-1.669730,-0.290784,1.272756,99771.34,-166,+126,-38
145787,11.139,1.052,2.630,-0.531015,-0.528637,1.322775,99775.27,-167,+124,-39
145798,10.728,-2.284,2.250,0.180416,-0.747334,1.344591,99771.77,-169,+120,-42
145807,9.037,-3.767,2.159,0.427315,-0.751059,1.258922,99771.34,-169,+120,-42
145817,7.314,-4.909,2.644,0.323554,-0.657407,1.137601,99767.27,-169,+116,-44
145827,7.515,-5.042,2.729,0.078251,-0.598875,1.032243,99767.27,-169,+111,-45
145838,8.717,-4.121,3.212,-0.235162,-0.508949,0.940720,99771.91,-169,+109,-46
145848,8.484,-4.390,3.386,-0.548574,-0.417958,0.889105,99768.33,-169,+109,-46
145857,8.527,-3.415,3.071,-0.715657,-0.380178,0.829509,99770.58,-170,+106,-45
145867,8.833,-2.151,3.096,-0.743326,-0.364747,0.830573,99770.58,-171,+105,-46
145878,9.080,-1.883,3.144,-0.634244,-0.391353,0.867289,99770.58,-171,+103,-48
145888,9.015,-2.540,3.045,-0.511327,-0.420619,0.890702,99772.98,-171,+103,-48
145897,8.874,-3.970,3.078,-0.447473,-0.434453,0.888573,99773.45,-171,+101,-47
145907,8.369,-4.824,3.008,-0.516116,-0.401463,0.846004,99772.51,-171,+100,-49
145912,7.971,-4.806,3.082,-0.658721,-0.338674,0.800775,99772.51,-171,+100,-49
145923,7.848,-4.416,3.163,-0.797602,-0.286527,0.765124,99772.51,-171,+98,-49
145933,8.021,-3.906,3.096,-0.868904,-0.266839,0.734261,99771.60,-171,+96,-49
145942,8.120,-3.924,2.848,-0.839638,-0.266839,0.714573,99770.02,-171,+94,-49
145952,8.213,-4.165,2.458,-0.811969,-0.258325,0.708188,99772.43,-171,+94,-49
145963,8.547,-4.192,2.305,-0.828996,-0.241830,0.709784,99770.96,-171,+94,-49
145973,8.787,-4.260,2.421,-0.842299,-0.245022,0.723087,99770.96,-172,+92,-49
145982,8.657,-4.344,2.518,-0.832189,-0.258325,0.733197,99770.63,-173,+90,-50
145992,8.326,-4.446,2.537,-0.830060,-0.257261,0.739582,99768.70,-173,+90,-50
146002,8.119,-4.695,2.304,-0.867840,-0.241830,0.739582,99770.94,-173,+89,-49
146013,8.092,-4.875,2.233,-0.929565,-0.220545,0.743839,99770.94,-173,+88,-50
146022,7.858,-4.881,2.684,-0.983840,-0.198197,0.750757,99770.94,-173,+86,-49
146032,7.785,-4.771,2.686,-1.039712,-0.171591,0.756078,99772.00,-173,+86,-49
146042,7.897,-4.442,1.656,-1.077491,-0.201921,0.753417,99772.73,-173,+84,-50
146053,7.810,-4.309,1.478,-1.036519,-0.259921,0.764059,99772.63,-174,+83,-49
146063,7.719,-4.183,1.698,-0.960427,-0.324307,0.784280,99772.16,-173,+83,-50
146072,7.745,-4.294,1.959,-0.883803,-0.363683,0.814610,99772.16,-173,+83,-50
146082,7.876,-4.541,1.967,-0.806648,-0.403059,0.835894,99772.71,-174,+81,-50
146093,8.185,-4.898,1.929,-0.751840,-0.429132,0.856647,99770.62,-173,+78,-51
146103,8.366,-5.142,1.842,-0.723106,-0.436582,0.870481,99767.54,-174,+77,-52
146112,8.471,-5.015,1.704,-0.702354,-0.444564,0.887509,99769.77,-174,+77,-52
146122,8.343,-4.587,1.517,-0.640629,-0.481279,0.915179,99769.77,-173,+75,-53
146132,8.158,-4.614,1.541,-0.530483,-0.546196,0.965729,99772.40,-173,+73,-54
146143,7.833,-4.927,1.578,-0.437363,-0.627609,1.014151,99769.68,-173,+69,-55
146148,7.754,-5.294,1.643,-0.407565,-0.678160,1.046610,99770.32,-173,+69,-55
146157,7.762,-5.657,1.717,-0.417143,-0.709554,1.068958,99770.32,-173,+67,-58
146167,8.030,-6.177,1.375,-0.467694,-0.747334,1.102481,99770.68,-173,+64,-59
146178,8.388,-6.440,0.992,-0.561345,-0.762233,1.124298,99770.68,-173,+64,-59
146188,8.764,-6.477,0.703,-0.674152,-0.769683,1.139197,99772.77,-171,+62,-61
146198,9.034,-6.343,0.357,-0.749180,-0.782985,1.156224,99772.77,-170,+58,-64
146207,9.213,-6.297,0.024,-0.802923,-0.798949,1.181234,99768.40,-170,+56,-65
146217,9.516,-6.403,-0.427,-0.843363,-0.830343,1.199325,99768.40,-170,+56,-65
146228,9.967,-6.581,-0.839,-0.894446,-0.860673,1.214756,99768.40,-169,+54,-66
146238,10.296,-7.049,-0.952,-0.972134,-0.877169,1.228059,99773.36,-167,+51,-68
146247,10.573,-7.119,-0.791,-1.106225,-0.870783,1.241894,99773.45,-166,+49,-71
146257,10.916,-6.853,-0.465,-1.264262,-0.858013,1.261050,99770.80,-166,+49,-71
146268,11.301,-6.290,-0.208,-1.348335,-0.886747,1.290316,99769.59,-165,+47,-73
146277,11.627,-6.062,0.105,-1.333436,-0.963903,1.336610,99769.59,-163,+44,-76
146288,11.789,-6.076,0.333,-1.289803,-1.049040,1.392481,99771.31,-162,+42,-78
146297,11.721,-6.360,0.453,-1.278629,-1.112893,1.449417,99768.86,-162,+42,-78
146308,11.569,-6.302,0.321,-1.332372,-1.149609,1.504756,99769.56,-159,+39,-80
146318,11.795,-6.156,0.457,-1.433473,-1.166104,1.548921,99769.56,-157,+37,-83
146328,12.331,-5.977,0.913,-1.556922,-1.177279,1.598940,99769.95,-154,+35,-86
146337,13.167,-5.753,1.549,-1.703253,-1.185792,1.650554,99770.53,-154,+35,-86
146348,14.376,-4.899,2.383,-1.869271,-1.187389,1.713343,99770.53,-152,+32,-90
146358,16.606,-3.256,3.192,-1.941106,-1.274655,1.766022,99771.63,-150,+30,-93
146368,19.595,-1.533,4.475,-1.786794,-1.520489,1.830940,99768.55,-145,+28,-96
146377,20.710,-1.315,4.879,-1.428152,-1.813682,1.970352,99768.55,-145,+28,-96
146387,19.341,-3.282,4.308,-1.025877,-2.140397,2.247049,99771.44,-141,+25,-101
146398,17.831,-6.159,3.841,-0.704482,-2.439975,2.602499,99769.92,-134,+20,-106
146408,16.339,-8.559,4.971,-0.529418,-2.607058,2.916444,99767.00,-128,+13,-112
146418,16.383,-10.845,5.907,-0.429914,-2.683681,3.081930,99768.61,-121,+7,-118
146427,16.179,-12.842,5.585,-0.542721,-2.652287,3.088847,99768.69,-121,+7,-118
146438,15.587,-11.380,5.521,-0.907748,-2.473498,2.833434,99770.36,-113,+1,-123
146448,13.891,-7.428,5.301,-0.982244,-2.276085,2.420517,99768.22,-105,-2,-129
146458,11.016,-3.889,6.684,-0.600189,-2.108471,1.932040,99768.73,-99,-5,-133
146467,9.008,-0.559,4.051,-0.101070,-2.066966,1.265839,99768.73,-99,-5,-133
146478,0.921,-3.254,1.075,-0.038813,-1.917443,1.021069,99768.73,-93,-7,-137
146488,-0.279,-11.613,-0.049,-0.407033,-1.415132,0.894426,99771.48,-88,-9,-140
146498,2.883,-9.780,1.200,-0.659253,-1.038398,0.362317,99771.95,-85,-8,-143
146507,3.510,-2.576,1.019,-0.868904,-0.686141,-0.357628,99768.80,-85,-8,-143
146518,3.041,1.904,2.068,-1.091326,-0.197132,-0.791829,99768.07,-83,-4,-145
146528,3.146,2.751,2.305,-0.997143,0.112023,-1.014783,99768.07,-84,+0,-147
146538,2.602,2.142,1.470,-0.685327,0.226959,-1.182398,99767.45,-85,+3,-147
146548,2.219,1.042,1.302,-0.274006,0.350941,-1.369701,99765.68,-85,+3,-147
146557,2.440,0.294,0.877,0.101664,0.504188,-1.641609,99763.07,-86,+6,-148
146568,2.356,-0.162,0.496,0.440618,0.641473,-1.891168,99763.07,-88,+7,-147
146578,2.705,-0.207,-0.073,0.846617,0.778225,-2.096562,99763.07,-90,+9,-147
146587,3.551,-0.166,-0.663,1.213773,0.938390,-2.315260,99765.35,-90,+9,-147
146597,4.248,-0.577,-1.417,1.502709,1.050133,-2.520654,99764.46,-93,+9,-145
146608,4.229,-1.638,-1.928,1.719810,1.148041,-2.689865,99763.88,-97,+10,-144
146618,3.948,-2.770,-1.650,1.885828,1.260848,-2.856415,99760.54,-101,+9,-141
146627,3.776,-3.368,-1.017,2.006085,1.383766,-3.062874,99760.54,-101,+9,-141
146638,3.755,-3.853,-0.477,2.053442,1.520518,-3.283699,99766.00,-106,+11,-139
146648,4.071,-4.404,-0.205,1.998635,1.688132,-3.487497,99763.59,-112,+13,-136
146658,4.660,-5.109,-0.038,1.801222,1.895123,-3.661497,99763.03,-117,+16,-133
146668,5.422,-5.838,-0.159,1.469186,2.134573,-3.799846,99764.26,-117,+16,-133
146678,6.220,-6.521,-0.438,1.158434,2.380939,-3.908928,99766.09,-124,+21,-128
146688,7.373,-6.831,-1.194,0.981773,2.562921,-3.987149,99765.40,-129,+27,-124
146698,8.788,-6.822,-2.148,0.999865,2.624645,-4.028653,99765.40,-137,+34,-120
146708,10.038,-7.161,-2.843,1.210580,2.523545,-4.014286,99766.45,-137,+34,-120
146717,10.707,-7.921,-3.296,1.564433,2.288352,-4.006836,99766.13,-143,+40,-115
146727,10.807,-9.269,-3.344,1.925204,2.009526,-4.003644,99766.13,-147,+47,-110
146738,10.562,-10.226,-2.996,2.174763,1.764756,-3.991937,99769.77,-150,+52,-107
146748,10.167,-10.542,-2.497,2.260965,1.611509,-3.964268,99766.53,-150,+52,-107
146758,9.713,-10.505,-1.805,2.173699,1.560426,-3.907332,99767.78,-154,+58,-104
146767,9.586,-10.438,-0.905,2.036947,1.562554,-3.813681,99767.05,-156,+64,-101
146778,9.802,-10.643,-0.608,1.935314,1.557233,-3.716837,99767.05,-158,+70,-99
146788,10.282,-10.748,-0.949,1.874121,1.526903,-3.620525,99770.72,-158,+70,-99
146798,10.821,-10.745,-1.302,1.838470,1.488059,-3.529002,99769.05,-161,+77,-96
146808,11.082,-10.736,-1.725,1.826764,1.427399,-3.421516,99768.27,-162,+83,-93
146818,10.929,-10.667,-1.842,1.848048,1.339068,-3.288488,99768.27,-164,+90,-91
146828,10.634,-10.491,-1.589,1.903920,1.228390,-3.145351,99768.27,-164,+90,-91
146838,10.270,-10.249,-1.223,1.969901,1.105472,-2.996360,99768.71,-164,+95,-90
146847,9.756,-10.078,-1.260,2.016727,0.978830,-2.830342,99768.49,-164,+100,-89
146857,9.207,-10.049,-1.470,2.046525,0.861766,-2.637186,99769.54,-164,+104,-88
146868,8.753,-10.376,-1.577,2.049718,0.747894,-2.420085,99767.04,-164,+104,-88
146878,8.492,-10.924,-1.260,2.007149,0.648922,-2.196599,99767.04,-165,+108,-88
146888,8.325,-11.382,-0.768,1.911369,0.570170,-1.967260,99772.33,-164,+111,-88
146897,8.111,-11.851,-0.438,1.753332,0.538775,-1.735792,99771.75,-164,+114,-88
146908,7.548,-12.400,-0.453,1.510158,0.533986,-1.501664,99767.47,-164,+115,-88
146918,6.518,-12.686,-0.522,1.178122,0.554207,-1.244123,99767.47,-164,+115,-88
146928,5.677,-12.896,-0.450,0.804049,0.604757,-0.961572,99772.29,-164,+117,-88
146937,5.568,-12.721,-0.634,0.424122,0.644665,-0.666252,99772.29,-165,+118,-87
146948,5.993,-11.925,-1.608,0.166581,0.594115,-0.324105,99770.82,-166,+119,-86
146958,6.501,-11.050,-2.797,0.215535,0.365840,0.032941,99770.46,-166,+119,-86
146968,6.511,-9.823,-3.519,0.446471,-0.005573,0.405418,99770.04,-167,+118,-87
146977,7.596,-8.819,-3.017,0.700287,-0.316857,0.773105,99770.04,-168,+115,-88
146988,9.084,-9.078,-3.026,0.925370,-0.581848,1.190279,99771.98,-168,+109,-90
146998,10.609,-4.501,3.395,1.252085,-0.805866,1.425472,99772.96,-168,+109,-90
147008,22.520,12.459,13.815,1.426085,-0.618031,1.050867,99770.98,-168,+103,-93
147018,26.468,10.033,-2.300,-0.115969,0.067326,0.479913,99768.05,-168,+102,-95
147027,17.389,-8.809,-8.632,-0.220263,-0.309940,1.914481,99774.73,-169,+96,-95
147038,13.708,-22.205,-0.689,1.032324,-0.507885,2.647728,99774.20,-169,+96,-95
147048,10.269,-20.162,4.190,0.773186,-0.388160,2.186389,99774.20,-170,+86,-96
147058,12.305,-10.742,-1.158,-0.490042,-0.227463,1.921930,99770.14,-171,+81,-96
147067,8.605,-2.353,-0.377,-0.700758,-0.330692,1.603729,99770.23,-171,+77,-96
147078,4.187,-1.643,5.011,-0.271877,-0.138068,1.417490,99770.23,-171,+77,-96
147088,3.846,-4.228,6.094,-0.238354,-0.231720,1.398334,99770.55,-172,+73,-96
147098,7.039,-5.712,4.388,-0.254850,-0.459463,1.409509,99767.61,-172,+70,-98
147108,9.910,-4.655,2.414,-0.241547,-0.547261,1.264243,99770.55,-171,+66,-99
147118,9.932,-4.041,0.055,-0.300611,-0.456270,1.031179,99770.17,-171,+66,-99
147128,9.186,-3.533,-0.943,-0.204831,-0.327499,0.892830,99770.17,-171,+64,-100
147138,9.376,-2.306,-0.501,0.015462,-0.220545,0.780023,99771.52,-171,+62,-101
147148,9.297,-2.124,-0.024,0.104324,-0.175848,0.744904,99771.18,-171,+58,-101
147159,9.182,-2.649,0.345,0.100600,-0.133811,0.725215,99769.10,-171,+58,-101
147168,9.530,-2.871,0.968,0.019719,-0.057188,0.679986,99769.10,-171,+57,-101
147178,9.404,-3.065,2.018,-0.079786,-0.002912,0.643271,99769.10,-171,+55,-101
147188,8.880,-2.989,2.571,-0.137254,-0.010362,0.594316,99773.40,-171,+53,-101
147197,8.356,-3.111,2.893,-0.188336,-0.024197,0.516096,99773.24,-171,+53,-101
147209,8.335,-3.850,2.685,-0.299370,-0.000961,0.445680,99769.88,-171,+52,-101
147218,8.789,-3.681,2.079,-0.461308,0.035400,0.383069,99769.88,-171,+52,-101
147228,9.349,-3.032,1.291,-0.649675,0.107234,0.351142,99769.88,-171,+52,-101
147238,9.808,-2.084,0.793,-0.742794,0.128519,0.350610,99774.15,-171,+52,-101
147248,9.838,-1.575,1.667,-0.622538,0.101913,0.382005,99770.65,-171,+53,-101
147258,9.523,-1.557,2.638,-0.426721,0.046574,0.419784,99770.49,-172,+52,-100
147268,9.003,-2.056,2.941,-0.297419,-0.024197,0.454372,99770.49,-171,+51,-99
147278,8.880,-2.983,3.012,-0.290501,-0.071555,0.469271,99772.74,-171,+51,-99
147288,9.433,-3.118,3.197,-0.371382,-0.112527,0.468739,99772.74,-171,+50,-101
147298,9.561,-3.198,3.309,-0.421400,-0.149243,0.475124,99770.91,-171,+50,-101
147308,9.361,-2.734,2.891,-0.396923,-0.206710,0.492151,99772.90,-171,+49,-100
147318,9.147,-2.296,2.356,-0.294226,-0.283334,0.517693,99769.91,-171,+49,-100
147328,9.113,-2.703,1.657,-0.162795,-0.357830,0.548555,99769.91,-170,+48,-102
147338,9.292,-3.363,1.093,-0.104263,-0.409976,0.562922,99772.23,-170,+47,-103
147348,9.475,-3.712,1.105,-0.156409,-0.408380,0.562390,99770.66,-169,+45,-103
147358,9.298,-3.851,1.122,-0.219731,-0.394545,0.556005,99770.98,-169,+45,-103
147368,9.090,-3.663,1.182,-0.247400,-0.391353,0.534188,99769.69,-168,+45,-104
147378,8.984,-3.330,1.685,-0.231969,-0.411573,0.509711,99773.19,-168,+42,-105
147388,8.699,-3.489,1.464,-0.154281,-0.432325,0.491619,99771.45,-167,+43,-106
147398,8.455,-3.690,0.984,-0.065951,-0.450949,0.470867,99768.84,-167,+43,-109
147408,8.362,-3.709,0.843,-0.027107,-0.458398,0.457564,99768.84,-167,+40,-109
147418,8.519,-3.703,0.963,-0.027639,-0.463187,0.457564,99770.41,-166,+39,-109
147428,8.678,-3.857,0.952,-0.033492,-0.473297,0.455436,99770.41,-165,+37,-110
147438,8.814,-3.748,0.642,-0.060630,-0.473830,0.453840,99770.91,-164,+36,-112
147448,8.861,-3.651,0.567,-0.088832,-0.471701,0.460757,99770.08,-164,+36,-112
147459,8.750,-3.533,0.516,-0.080850,-0.492985,0.472463,99769.81,-163,+36,-112
147468,8.601,-3.426,0.538,-0.035621,-0.528637,0.485234,99769.77,-161,+35,-114
147478,8.417,-3.485,0.586,0.022379,-0.560031,0.496940,99769.77,-161,+32,-115
147488,8.617,-3.713,0.938,0.053774,-0.581848,0.509179,99773.78,-161,+32,-115
147499,8.820,-4.180,1.259,0.075590,-0.599407,0.511307,99769.27,-159,+31,-116
147508,8.903,-4.402,1.486,0.081444,-0.598875,0.495876,99770.56,-157,+30,-118
147518,8.685,-4.399,1.330,0.092618,-0.598875,0.470335,99770.56,-157,+28,-119
147528,8.544,-4.309,1.178,0.103260,-0.594618,0.451179,99770.56,-157,+28,-119
147538,8.757,-4.252,1.090,0.101132,-0.611646,0.425106,99775.46,-155,+26,-120
147548,9.057,-4.560,0.824,0.084104,-0.621756,0.402225,99772.70,-154,+26,-122
147558,9.239,-4.794,0.482,0.036214,-0.631334,0.394775,99769.15,-153,+24,-123
147568,9.245,-4.675,-0.014,-0.042006,-0.609518,0.394243,99768.95,-153,+24,-123
147578,9.362,-4.362,-0.205,-0.101070,-0.608453,0.379344,99768.95,-152,+23,-125
147589,9.148,-3.928,-0.092,-0.099474,-0.641976,0.368702,99770.02,-150,+23,-126
147598,8.966,-3.792,0.220,-0.052116,-0.691462,0.377216,99770.02,-148,+21,-129
147608,9.115,-4.189,0.235,0.002159,-0.730306,0.388922,99769.26,-148,+21,-129
147618,9.293,-4.418,0.014,0.029297,-0.766490,0.382537,99769.26,-147,+20,-129
147629,9.030,-4.315,-0.074,0.044728,-0.807462,0.355399,99769.14,-145,+19,-131
147638,8.747,-4.126,-0.144,0.062820,-0.846306,0.342629,99769.14,-143,+18,-133
147648,8.693,-4.078,-0.161,0.095278,-0.888875,0.343693,99771.13,-143,+18,-133
147658,8.730,-4.279,-0.219,0.106453,-0.922930,0.349014,99771.39,-141,+17,-134
147668,8.882,-4.224,-0.214,0.093682,-0.972416,0.351142,99772.95,-139,+16,-137
147679,8.886,-5.052,0.451,0.069560,-0.976141,0.357350,99771.13,-136,+15,-139
147688,9.088,-4.966,-0.087,0.001627,-0.981994,0.352207,99771.13,-136,+15,-139
147698,8.997,-4.750,-0.229,-0.034024,-0.996361,0.343693,99770.20,-133,+15,-142
147708,9.021,-4.657,-0.545,-0.067547,-1.014453,0.339968,99768.88,-130,+13,-144
147719,9.255,-4.399,-0.855,-0.073400,-1.045315,0.339968,99766.96,-127,+13,-146
147728,9.420,-4.266,-0.990,-0.048923,-1.090013,0.341564,99773.11,-127,+13,-146
147738,9.267,-4.583,-0.791,-0.009015,-1.141095,0.347950,99771.75,-125,+12,-149
147748,8.970,-5.104,-0.426,-0.015932,-1.168233,0.350078,99771.48,-122,+11,-150
147758,8.750,-5.459,-0.080,-0.074465,-1.171957,0.346885,99771.48,-119,+11,-153
147768,8.837,-5.434,0.032,-0.152685,-1.170893,0.338904,99772.02,-119,+11,-153
147778,9.011,-5.416,-0.107,-0.218134,-1.174086,0.329326,99772.02,-115,+11,-155
147788,9.309,-5.375,-0.261,-0.287841,-1.184196,0.320812,99771.31,-112,+10,-157
147799,9.766,-5.008,-0.575,-0.352226,-1.214526,0.317087,99770.17,-108,+10,-161
147808,10.107,-4.866,-0.732,-0.395859,-1.256563,0.321876,99768.81,-108,+10,-161
147818,10.484,-4.990,-0.937,-0.451198,-1.279976,0.334115,99767.77,-105,+11,-163
147828,10.798,-5.003,-1.149,-0.532611,-1.288490,0.345289,99767.77,-101,+13,-164
147838,11.048,-4.769,-1.125,-0.622538,-1.314563,0.353271,99769.84,-97,+13,-168
147849,11.177,-4.305,-0.967,-0.691180,-1.368838,0.360720,99769.22,-97,+13,-168
147858,11.362,-3.865,-0.557,-0.716721,-1.456104,0.377748,99768.13,-93,+14,-170
147868,11.858,-3.598,-0.008,-0.675749,-1.584343,0.400096,99768.13,-88,+15,-173
147878,12.728,-3.921,0.673,-0.570923,-1.748232,0.408610,99768.13,-84,+16,-177
147889,13.478,-4.614,1.613,-0.482061,-1.913186,0.396904,99771.16,-77,+16,-177
147898,13.729,-5.199,2.355,-0.468226,-2.027058,0.386262,99771.25,-77,+16,-177
147908,13.537,-5.683,3.671,-0.532611,-2.125498,0.401693,99767.97,-70,+18,-182
147913,13.308,-5.172,5.136,-0.595932,-2.180838,0.402757,99771.63,-70,+18,-182
147923,13.081,-5.080,6.437,-0.662446,-2.209039,0.474060,99771.63,-63,+19,-185
147934,13.126,-5.455,6.879,-0.643822,-2.290984,0.631564,99772.38,-56,+20,-188
147943,12.899,-7.255,5.776,-0.569859,-2.384636,0.828977,99768.92,-49,+21,-191
147953,12.490,-8.974,4.067,-0.742262,-2.492122,0.952426,99769.03,-49,+21,-191
147963,11.491,-9.287,4.084,-1.088134,-2.558636,1.002445,99768.56,-40,+23,-194
147974,12.534,-8.728,3.376,-0.949253,-2.645902,1.097160,99768.56,-31,+24,-197
147983,12.877,-6.065,2.654,-0.469822,-2.713480,1.054592,99770.28,-22,+24,-199
147993,11.866,-4.768,2.596,0.118159,-2.781590,0.958280,99768.41,-22,+24,-199
148003,10.900,-4.040,2.402,0.638030,-2.871516,0.802904,99772.91,-12,+22,-201
148014,9.228,-3.222,1.371,1.064783,-2.955590,0.640078,99768.52,-1,+18,-202
148023,6.109,-4.722,0.947,1.419700,-3.038067,0.567711,99768.52,+7,+13,-202
148033,5.899,-10.120,-0.061,1.922011,-3.076910,0.730004,99769.38,+7,+13,-202
148043,7.121,-6.052,0.272,2.530745,-3.532397,0.497473,99767.86,+19,+5,-201
148054,6.963,-2.521,2.680,3.379992,-3.445131,0.012188,99766.19,+31,-5,-199
148063,6.105,-3.547,4.463,3.902524,-3.178544,-0.113922,99765.83,+41,-18,-195
148073,4.428,-5.327,4.889,4.130267,-3.064140,-0.223004,99765.83,+41,-18,-195
148083,2.964,-5.584,4.047,3.915827,-2.786379,-0.433187,99770.63,+49,-32,-190
148093,2.772,-5.336,3.981,3.416708,-2.323975,-0.625811,99768.49,+56,-44,-185
148104,3.151,-4.739,3.482,2.798396,-1.903076,-0.846637,99768.59,+61,-52,-180
148113,3.425,-3.822,2.850,2.234892,-1.602434,-1.118545,99767.34,+61,-52,-180
148123,3.917,-3.301,2.162,1.846452,-1.353939,-1.400031,99767.34,+64,-60,-176
148133,3.986,-3.738,1.912,1.590507,-1.102251,-1.649590,99771.98,+64,-66,-171
148144,3.917,-4.570,2.226,1.427681,-0.811187,-1.870416,99766.81,+63,-70,-168
148149,4.059,-4.660,2.239,1.288801,-0.607921,-2.050269,99766.72,+63,-70,-168
148158,4.264,-4.182,1.753,1.133425,-0.453077,-2.234379,99766.72,+61,-74,-164
148168,4.515,-3.494,1.370,1.054140,-0.282802,-2.457865,99766.34,+57,-77,-161
148178,4.992,-3.140,1.396,1.206856,-0.155096,-2.621223,99766.34,+57,-77,-161
148189,5.622,-3.378,1.478,1.570819,-0.094435,-2.754782,99766.47,+53,-81,-158
148199,6.197,-3.932,1.536,2.022580,-0.085922,-2.867057,99765.86,+48,-86,-153
148208,6.773,-4.438,1.578,2.465295,-0.094435,-2.963901,99765.00,+43,-93,-147
148218,7.251,-4.916,1.362,2.870763,-0.120509,-3.047443,99765.00,+43,-93,-147
148229,7.515,-5.608,1.208,3.236855,-0.143389,-3.099057,99765.00,+37,-100,-141
148239,7.623,-6.524,1.186,3.534304,-0.159885,-3.110232,99763.85,+30,-108,-133
148248,7.778,-7.408,1.388,3.733845,-0.150307,-3.111828,99764.79,+22,-116,-123
148258,8.036,-7.965,1.800,3.836542,-0.113591,-3.123534,99767.30,+22,-116,-123
148269,8.213,-8.425,2.141,3.890285,-0.059316,-3.134176,99761.87,+14,-123,-115
148278,8.346,-8.911,2.271,3.900928,0.013051,-3.137901,99761.87,+7,-130,-106
148289,8.499,-9.433,2.318,3.840799,0.120005,-3.142158,99770.19,-2,-135,-96
148298,8.674,-9.823,2.475,3.706175,0.264207,-3.148011,99767.27,-2,-135,-96
148308,8.806,-9.907,2.593,3.510891,0.436610,-3.153332,99765.80,-12,-137,-86
148319,8.880,-9.738,2.759,3.298047,0.619656,-3.161846,99765.80,-21,-138,-77
148329,8.982,-9.556,2.809,3.084139,0.803234,-3.169828,99771.73,-31,-137,-68
148338,9.097,-9.391,2.763,2.859589,0.969252,-3.162910,99765.88,-31,-137,-68
148348,9.109,-9.374,2.601,2.640359,1.126225,-3.144287,99765.88,-38,-137,-60
148359,9.172,-9.346,2.292,2.399314,1.292243,-3.129920,99767.82,-47,-135,-53
148368,9.267,-9.232,1.985,2.130066,1.479545,-3.115021,99767.24,-56,-132,-47
148378,9.293,-9.171,1.852,1.835809,1.684408,-3.084158,99767.24,-56,-132,-47
148384,9.257,-9.209,1.626,1.607002,1.840848,-3.045314,99767.50,-63,-130,-41
148393,9.209,-9.190,1.397,1.379259,1.974407,-2.990507,99767.66,-71,-126,-37
148404,9.248,-9.054,0.986,1.082342,2.156389,-2.905369,99766.98,-71,-126,-37
148413,9.428,-8.860,0.571,0.811498,2.313893,-2.806397,99766.72,-80,-122,-31
148423,9.696,-8.614,0.032,0.568324,2.429893,-2.700507,99766.72,-87,-119,-28
148433,9.937,-8.453,-0.606,0.344838,2.502792,-2.589828,99771.36,-96,-115,-24
148444,10.095,-8.238,-1.356,0.131994,2.526737,-2.487663,99766.81,-96,-115,-24
148454,10.060,-7.823,-2.090,-0.033492,2.493747,-2.396672,99769.78,-103,-110,-20
148463,10.020,-7.542,-2.218,-0.069676,2.386260,-2.293975,99767.75,-109,-107,-17
148473,10.071,-7.279,-2.219,-0.006355,2.202150,-2.163076,99767.75,-116,-101,-12
148484,9.902,-6.992,-2.390,0.143700,1.972279,-2.010361,99770.24,-116,-101,-12
148494,9.275,-7.152,-2.253,0.366122,1.732830,-1.811884,99770.82,-122,-98,-9
148503,8.685,-7.967,-2.038,0.557682,1.532756,-1.584673,99768.79,-125,-94,-6
148513,8.089,-9.119,-2.079,0.617810,1.356096,-1.339902,99769.10,-129,-90,-2
148524,7.609,-10.135,-2.361,0.548636,1.203912,-1.097260,99769.10,-129,-90,-2
148534,6.943,-10.800,-2.668,0.357609,1.073546,-0.864196,99773.71,-131,-88,+0
148543,6.163,-11.340,-2.670,0.081976,0.978830,-0.626343,99769.05,-133,-86,+1
148553,5.492,-11.969,-2.449,-0.227180,0.897949,-0.361353,99769.16,-134,-85,+3
148563,5.493,-12.085,-2.309,-0.466097,0.809087,-0.070821,99771.26,-134,-85,+3
148574,5.905,-11.753,-2.163,-0.573583,0.709583,0.193638,99771.26,-134,-85,+4
148584,6.333,-10.575,-2.030,-0.545382,0.582408,0.434151,99770.80,-133,-86,+4
148593,8.618,-7.340,-1.551,-0.369253,0.430225,0.592188,99772.48,-133,-87,+4
148603,8.280,-6.621,0.388,-0.173437,0.351473,0.729472,99768.20,-133,-87,+4
148614,11.341,-3.890,5.525,0.141572,0.367436,0.941252,99770.96,-131,-89,+6
148624,24.087,4.414,3.515,0.189462,0.016244,0.920500,99770.96,-129,-92,+6
148633,29.611,9.207,-2.084,0.444342,-0.999554,1.140261,99772.75,-127,-94,+4
148643,22.558,-3.040,-3.075,1.676709,-1.386930,2.064536,99771.34,-127,-94,+4
148654,16.404,-10.623,-4.611,2.441350,-1.647132,2.565783,99773.59,-122,-100,+6
148664,8.608,-9.750,-0.756,2.212543,-1.637021,2.368371,99769.98,-117,-106,+6
148673,5.523,-14.832,-1.061,1.404801,-0.769683,2.515765,99769.98,-111,-112,+7
148683,10.148,-16.868,0.144,0.452856,-0.634527,2.577490,99771.33,-106,-117,+6
148694,10.135,-9.001,5.318,0.101664,-0.815976,2.028352,99770.13,-106,-117,+6
148704,7.756,-1.814,5.907,-0.417675,-0.635059,1.613307,99767.25,-103,-120,+4
148714,4.711,-0.829,4.722,-0.624666,-0.778196,1.579784,99768.88,-99,-122,+2
148723,5.829,-4.170,2.927,-0.578905,-0.963903,1.536151,99768.88,-95,-126,+0
148733,8.489,-4.973,0.576,-0.735877,-0.938893,1.449949,99771.47,-95,-126,+0
148744,9.358,-4.624,-0.615,-0.921051,-0.710086,1.332353,99773.36,-91,-128,-3
148754,9.489,-3.205,-0.476,-0.779510,-0.524380,1.237105,99772.00,-88,-129,-5
148763,9.546,-1.407,-0.240,-0.337327,-0.465848,1.191876,99770.27,-85,-131,-7
148773,9.103,-1.449,0.077,0.105389,-0.450417,1.198793,99770.27,-85,-131,-7
148784,8.697,-3.082,0.453,0.315040,-0.386031,1.187087,99771.04,-82,-134,-6
148794,8.556,-4.967,1.286,0.217132,-0.256197,1.137069,99771.24,-80,-135,-7
148803,8.382,-5.759,2.367,-0.103731,-0.108270,1.052463,99768.99,-77,-137,-7
148813,7.998,-5.288,3.288,-0.408629,-0.002380,0.929546,99770.30,-77,-137,-7
148824,8.153,-4.413,3.561,-0.596464,-0.011426,0.823656,99770.30,-74,-138,-9
148834,8.557,-3.574,3.270,-0.736941,-0.065701,0.797050,99769.69,-73,-139,-10
148844,8.898,-3.129,2.771,-0.815693,-0.096032,0.823124,99770.78,-70,-140,-12
148854,8.955,-3.163,2.227,-0.738183,-0.135408,0.865692,99769.58,-70,-140,-12
148864,8.814,-3.343,2.225,-0.634244,-0.195004,0.901876,99769.69,-68,-141,-14
148874,8.623,-3.793,2.435,-0.582629,-0.241830,0.909858,99769.69,-66,-141,-15
148884,8.429,-3.793,2.968,-0.558152,-0.274288,0.875803,99771.61,-63,-142,-17
148893,8.240,-3.682,3.302,-0.511327,-0.324839,0.830573,99771.61,-63,-142,-17
148903,8.365,-3.756,2.575,-0.447473,-0.373793,0.798647,99770.72,-62,-143,-18
148914,8.631,-4.019,1.962,-0.379896,-0.403059,0.784812,99770.36,-59,-144,-20
148924,8.869,-3.992,1.612,-0.366061,-0.396142,0.793858,99770.36,-56,-145,-22
148934,8.838,-4.029,1.741,-0.409162,-0.358362,0.825252,99771.63,-56,-145,-22
148943,8.600,-4.165,1.898,-0.421932,-0.356765,0.866225,99774.24,-54,-146,-23
148954,8.408,-4.199,2.040,-0.389474,-0.379646,0.889105,99769.45,-51,-146,-24
148964,8.207,-4.481,2.203,-0.325620,-0.413701,0.894958,99768.55,-48,-148,-25
148974,8.008,-4.937,2.089,-0.300079,-0.437646,0.895845,99768.55,-48,-148,-25
148983,7.993,-5.100,1.826,-0.357015,-0.428068,0.904004,99771.80,-46,-148,-26
148994,8.180,-4.916,1.564,-0.477272,-0.395077,0.929013,99770.96,-44,-149,-28
149004,8.428,-4.596,1.502,-0.595932,-0.365811,0.966261,99771.38,-41,-149,-30
149014,8.623,-4.410,1.618,-0.650739,-0.360490,1.012023,99769.82,-41,-149,-30
149023,8.584,-4.267,2.068,-0.628391,-0.391885,1.043417,99769.82,-36,-150,-32
149033,8.168,-4.586,2.166,-0.542189,-0.438178,1.060977,99768.02,-35,-151,-34
149044,7.785,-5.301,1.743,-0.461840,-0.470637,1.069491,99768.02,-30,-151,-34
149054,7.754,-6.029,1.430,-0.456519,-0.472233,1.060445,99771.35,-30,-151,-34
149063,7.865,-6.151,1.526,-0.552299,-0.436050,1.043417,99769.05,-28,-152,-36
149073,8.133,-5.880,1.573,-0.654464,-0.401995,1.039160,99769.05,-24,-152,-38
149084,8.013,-5.510,1.763,-0.739602,-0.394545,1.051399,99771.52,-21,-152,-41
149094,7.971,-5.103,1.879,-0.701822,-0.401995,1.057252,99770.85,-21,-152,-41
149104,8.025,-5.232,1.966,-0.623602,-0.456270,1.104610,99768.40,-17,-153,-42
149113,7.636,-5.918,2.371,-0.599657,-0.498307,1.154628,99766.52,-13,-152,-44
149124,7.408,-6.974,2.833,-0.661382,-0.482875,1.200922,99766.52,-9,-152,-46
149134,7.500,-8.285,3.453,-0.809308,-0.400398,1.246683,99772.24,-6,-152,-49
149144,8.692,-8.076,1.776,-1.035455,-0.372197,1.238701,99770.93,-6,-153,-49
149153,9.574,-7.747,0.512,-1.207858,-0.359426,1.215289,99767.59,-3,-152,-51
149164,10.430,-7.163,-0.437,-1.353124,-0.376986,1.201454,99769.52,+1,-151,-56
149174,11.334,-5.905,-0.729,-1.399418,-0.445628,1.224334,99769.52,+5,-151,-59
149184,11.913,-5.503,-0.851,-1.315344,-0.555242,1.286059,99771.93,+5,-151,-59
149194,12.488,-5.831,-0.817,-1.162097,-0.693591,1.371197,99770.88,+9,-149,-62
149203,12.650,-6.398,-0.739,-1.055675,-0.828215,1.455270,99769.63,+15,-148,-65
149214,12.586,-6.693,-0.411,-1.050354,-0.925059,1.530830,99769.52,+21,-147,-69
149224,12.482,-6.806,-0.098,-1.134427,-0.996361,1.597876,99769.52,+21,-147,-69
149234,12.641,-6.785,0.448,-1.260005,-1.059682,1.652151,99774.20,+26,-145,-72
149243,13.036,-6.774,1.244,-1.413785,-1.116618,1.700041,99770.28,+33,-143,-75
149254,13.405,-7.000,2.069,-1.566500,-1.143224,1.754848,99769.19,+40,-140,-80
149264,13.803,-7.226,2.678,-1.778812,-1.102783,1.786242,99767.98,+40,-140,-80
149274,15.055,-6.737,2.808,-2.047528,-1.021903,1.788903,99767.98,+46,-137,-85
149283,16.891,-5.342,3.290,-2.322096,-0.988380,1.762298,99771.13,+53,-133,-90
149294,19.240,-2.579,4.591,-2.549839,-0.970820,1.761233,99768.57,+60,-127,-96
149304,20.808,-1.071,5.620,-2.612628,-1.054893,1.926187,99769.24,+60,-127,-96
149314,20.376,-1.982,5.549,-2.420004,-1.297535,2.270462,99767.63,+66,-120,-102
149323,18.925,-5.021,3.945,-2.024115,-1.660434,2.697747,99767.63,+77,-115,-107
149334,16.995,-8.522,3.860,-1.469656,-1.981296,3.020737,99770.52,+88,-110,-110
149344,15.540,-10.572,5.245,-1.140813,-2.088783,3.111728,99768.48,+88,-110,-110
149354,15.310,-10.711,6.302,-1.270115,-1.983425,2.989342,99769.41,+99,-106,-111
149364,14.923,-8.370,6.472,-1.535638,-1.737058,2.729673,99768.74,+109,-100,-114
149373,13.565,-4.774,6.324,-1.542555,-1.492820,2.337508,99768.74,+119,-94,-117
149384,11.769,-1.910,5.870,-1.288739,-1.267737,1.842646,99767.54,+119,-94,-117
149394,9.231,1.898,2.724,-0.905088,-1.377884,1.371729,99767.34,+125,-89,-118
149404,1.952,-4.611,-0.853,-0.767271,-1.316691,1.324903,99769.37,+131,-86,-120
149413,2.318,-12.305,-0.476,-0.942336,-0.776068,1.244555,99769.05,+137,-83,-122
149424,3.025,-9.633,0.927,-1.271711,-0.256729,0.772041,99769.05,+137,-83,-122
149434,3.065,-2.857,2.513,-1.460078,0.158849,0.200023,99768.52,+138,-79,-125
149444,2.905,3.231,2.636,-1.350464,0.459136,-0.318784,99766.34,+138,-75,-128
149453,2.672,4.735,2.077,-1.012042,0.569106,-0.534820,99767.59,+137,-75,-132
149464,2.219,3.935,1.250,-0.434703,0.638280,-0.700839,99764.20,+137,-75,-132
149474,2.569,3.042,0.860,0.161792,0.709583,-0.863132,99764.20,+134,-76,-134
149484,3.231,2.025,0.848,0.652929,0.804298,-1.037664,99769.79,+132,-80,-135
149494,3.555,0.780,1.049,1.005718,0.930940,-1.237737,99767.80,+128,-84,-135
149504,3.886,-0.149,1.016,1.285076,1.088445,-1.502728,99767.38,+128,-84,-135
149514,4.294,-0.396,0.480,1.489406,1.220940,-1.777297,99765.66,+123,-90,-135
149524,4.611,-0.600,-0.269,1.671388,1.324701,-2.014086,99765.66,+115,-99,-135
149534,4.909,-1.113,-0.550,1.880507,1.430591,-2.239700,99765.81,+108,-106,-134
149543,5.813,-1.507,-0.561,2.048653,1.534353,-2.463718,99763.36,+108,-106,-134
149554,6.664,-1.584,-0.608,2.161993,1.617362,-2.662195,99763.05,+98,-117,-131
149564,7.088,-1.910,-0.510,2.216268,1.675362,-2.837791,99762.38,+85,-126,-129
149574,7.029,-2.606,-0.290,2.172103,1.725380,-3.001681,99762.38,+73,-135,-125
149584,6.774,-3.818,0.030,2.017259,1.809986,-3.168764,99762.52,+73,-135,-125
149594,6.747,-5.136,0.240,1.748544,1.961637,-3.348617,99764.24,+57,-144,-122
149604,7.240,-5.759,0.690,1.438856,2.194169,-3.539112,99763.41,+42,-151,-118
149614,8.198,-5.898,1.315,1.206324,2.440536,-3.704598,99765.76,+22,-155,-114
149624,9.282,-5.863,1.481,1.112140,2.624113,-3.842947,99765.76,+22,-155,-114
149634,10.233,-6.321,1.170,1.160562,2.740113,-3.946708,99765.71,+1,-158,-109
149644,11.266,-6.737,0.366,1.230269,2.815141,-4.054194,99764.76,-20,-158,-104
149654,11.664,-7.444,-0.250,1.212177,2.892297,-4.121240,99765.91,-42,-157,-95
149664,11.690,-8.000,-0.284,1.227608,2.985948,-4.141460,99767.05,-63,-151,-85
149673,12.018,-8.245,-0.483,1.259003,3.068425,-4.159020,99767.05,-63,-151,-85
149680,12.171,-8.596,-0.536,1.293058,3.097691,-4.154231,99768.10,-81,-143,-74
149689,12.298,-9.084,-0.668,1.344672,3.117379,-4.148910,99768.10,-81,-143,-74
149699,12.599,-9.536,-1.003,1.446305,3.135471,-4.135607,99766.32,-97,-131,-62
149709,12.990,-10.263,-1.538,1.591039,3.097691,-4.081332,99768.99,-108,-118,-50
149720,13.216,-11.213,-2.176,1.692140,2.987544,-3.982359,99765.91,-115,-105,-39
149729,13.175,-11.738,-2.594,1.646911,2.851324,-3.863167,99769.54,-115,-105,-39
149739,12.968,-11.854,-2.713,1.455351,2.739581,-3.719497,99767.77,-118,-90,-30
149749,12.749,-11.851,-2.537,1.172269,2.645930,-3.556139,99767.87,-119,-79,-24
149758,12.209,-12.057,-2.096,0.941865,2.533123,-3.366709,99767.87,-117,-69,-20
149769,11.544,-11.754,-2.293,0.891315,2.351673,-3.148011,99768.96,-117,-69,-20
149779,10.631,-10.890,-3.034,0.967406,2.165967,-2.897388,99768.96,-115,-62,-20
149789,9.712,-10.508,-3.713,1.108415,1.994628,-2.603131,99768.49,-112,-56,-18
149799,8.906,-10.812,-4.444,1.239314,1.807857,-2.295039,99768.70,-111,-54,-17
149809,8.201,-11.378,-5.140,1.272837,1.586499,-1.999719,99771.46,-111,-54,-17
149819,7.676,-11.793,-5.564,1.263791,1.351839,-1.726214,99767.96,-110,-54,-16
149829,7.143,-11.951,-5.706,1.239847,1.106537,-1.470269,99767.96,-109,-54,-17
149839,6.856,-12.062,-5.992,1.277094,0.811748,-1.183462,99769.81,-109,-56,-17
149850,6.290,-12.141,-6.302,1.377663,0.463216,-0.836527,99769.91,-108,-56,-17
149859,5.708,-13.218,-6.762,1.554856,0.130115,-0.438509,99768.45,-108,-56,-17
149869,5.174,-14.914,-8.072,1.724066,-0.299298,0.057950,99768.45,-106,-61,-17
149879,5.034,-15.373,-8.349,1.900195,-0.770215,0.605491,99768.45,-103,-66,-18
149890,5.866,-13.909,-6.008,2.010874,-1.190049,1.130151,99773.88,-99,-71,-19
149899,5.045,-15.519,2.055,2.004488,-1.206545,1.628738,99770.18,-99,-71,-19
149909,12.595,-2.045,28.240,2.011938,-0.726582,1.826683,99768.24,-94,-77,-18
149914,37.786,27.621,25.918,1.020617,0.303051,0.368702,99765.32,-94,-77,-18
149924,40.381,9.617,-14.310,-2.248665,0.669674,0.075509,99765.32,-94,-80,-19
149935,24.490,-15.937,-5.749,-1.025345,-0.814912,2.921765,99773.93,-89,-84,-25
149944,17.691,-19.248,1.897,1.395223,-1.420453,2.843544,99770.12,-82,-92,-25
149954,1.302,-15.692,3.148,0.371976,-1.120343,2.258756,99770.12,-82,-92,-25
149964,7.521,-14.683,-3.785,0.141572,-0.617499,2.832902,99767.40,-77,-98,-25
149974,13.586,-12.475,-1.589,0.964746,-1.419389,2.545031,99767.40,-71,-103,-26
149984,10.910,-6.919,2.613,1.005186,-1.373095,1.869784,99773.73,-66,-107,-25
149994,6.938,-4.261,5.102,-0.279859,-0.736692,1.787839,99771.17,-66,-107,-25
150004,3.986,-3.869,3.679,-1.134959,-0.729774,1.722921,99770.64,-63,-110,-28
150014,5.909,-3.774,2.568,-1.403143,-0.757976,1.511142,99769.50,-59,-111,-32
150024,8.395,-2.563,1.582,-1.343014,-0.731903,1.363747,99769.50,-55,-113,-35
150034,8.486,-1.485,0.339,-0.856134,-0.706361,1.263178,99772.89,-55,-113,-35
150044,9.534,-0.990,-0.233,-0.126611,-0.680288,1.188683,99771.73,-52,-113,-37
150054,10.194,-2.454,-0.478,0.251719,-0.640380,1.211564,99770.02,-48,-115,-38
150064,9.421,-4.159,-0.925,0.273003,-0.486600,1.212096,99768.50,-46,-117,-38
150074,8.708,-4.817,-0.129,0.174563,-0.265243,1.094500,99768.50,-46,-117,-38
150084,8.447,-4.775,1.425,0.042067,-0.122105,0.946041,99774.37,-43,-120,-38
150094,7.963,-4.379,2.609,-0.103198,-0.069426,0.798115,99771.87,-42,-120,-38
150105,7.742,-4.016,3.204,-0.166520,-0.055059,0.667216,99771.02,-40,-120,-38
150114,8.007,-4.003,3.500,-0.226648,-0.062509,0.573564,99767.84,-40,-120,-38
150124,8.552,-3.451,3.741,-0.273474,-0.086454,0.515564,99767.84,-38,-121,-39
150134,8.825,-2.377,4.118,-0.286776,-0.115720,0.524610,99769.51,-36,-122,-40
150145,8.580,-2.136,4.320,-0.277198,-0.163610,0.584206,99768.73,-35,-122,-40
150150,8.434,-2.539,4.288,-0.288373,-0.200325,0.637949,99769.09,-35,-122,-40
150159,8.381,-3.076,4.253,-0.357547,-0.230655,0.687436,99769.09,-35,-122,-42
150169,8.366,-3.574,4.083,-0.542189,-0.248747,0.738518,99770.40,-32,-122,-42
150179,8.513,-3.385,3.937,-0.793877,-0.256729,0.791197,99770.40,-32,-122,-42
150190,9.225,-1.758,3.861,-0.970005,-0.301426,0.866757,99770.30,-30,-122,-45
150200,9.859,-0.764,3.866,-0.966280,-0.351976,0.950830,99770.76,-28,-122,-47
150209,9.826,-1.691,2.403,-0.706611,-0.464252,1.061509,99769.95,-24,-122,-49
150219,9.584,-3.071,1.342,-0.411290,-0.591958,1.136004,99769.95,-24,-122,-49
150230,9.112,-4.459,1.128,-0.274006,-0.620160,1.151435,99769.95,-21,-123,-50
150240,8.545,-5.255,1.235,-0.268152,-0.591958,1.140793,99772.88,-17,-125,-51
150249,8.049,-5.267,1.476,-0.305400,-0.562160,1.105674,99771.09,-14,-125,-52
150259,7.848,-4.984,1.712,-0.354354,-0.532362,1.062041,99772.03,-14,-125,-52
150269,7.965,-4.746,1.905,-0.400116,-0.505756,1.031179,99770.20,-10,-126,-53
150279,8.238,-4.565,1.850,-0.445877,-0.487132,1.025325,99770.20,-8,-126,-55
150290,8.535,-4.368,1.758,-0.477804,-0.470637,1.040225,99769.56,-5,-127,-56
150299,8.580,-4.260,1.812,-0.494831,-0.461059,1.059380,99772.73,-5,-127,-56
150309,8.449,-4.438,1.955,-0.488978,-0.452545,1.068958,99770.66,-1,-127,-57
150320,8.238,-4.696,2.176,-0.469290,-0.436582,1.074812,99770.66,+1,-127,-58
150330,7.944,-4.848,2.328,-0.460244,-0.423811,1.079601,99772.03,+3,-128,-61
150339,7.524,-5.367,1.968,-0.444281,-0.441903,1.083858,99772.14,+3,-128,-61
150349,7.691,-5.804,1.413,-0.479932,-0.446160,1.081729,99772.14,+7,-128,-61
150360,8.078,-6.099,1.101,-0.615620,-0.408912,1.084390,99771.63,+11,-128,-63
150369,8.504,-6.035,0.820,-0.774189,-0.359958,1.089711,99770.31,+14,-128,-65
150379,8.704,-5.667,0.721,-0.900831,-0.320050,1.107803,99770.31,+17,-128,-66
150385,8.699,-5.452,0.721,-0.944996,-0.307811,1.125362,99774.77,+17,-127,-66
150394,8.654,-5.178,0.915,-0.952446,-0.324307,1.143986,99772.32,+20,-126,-69
150405,8.505,-5.331,1.439,-0.912537,-0.376453,1.170059,99769.55,+20,-126,-69
150414,8.400,-5.872,1.426,-0.851345,-0.419554,1.197197,99769.40,+24,-126,-71
150424,8.108,-6.689,1.719,-0.851345,-0.430729,1.211032,99769.40,+27,-124,-73
150434,8.325,-7.362,1.734,-0.917326,-0.411573,1.230720,99773.39,+31,-124,-76
150445,8.836,-7.146,1.436,-1.090794,-0.403059,1.207839,99770.67,+31,-124,-76
150455,9.673,-6.479,0.495,-1.189767,-0.441903,1.204646,99767.13,+35,-122,-77
150464,10.187,-5.886,0.252,-1.233400,-0.523316,1.208371,99769.22,+38,-121,-80
150474,10.697,-5.384,0.263,-1.183381,-0.658472,1.253600,99769.22,+43,-120,-84
150484,11.309,-5.197,0.138,-1.073767,-0.807994,1.330756,99769.40,+43,-120,-84
150495,11.902,-5.667,-0.221,-0.968941,-0.936765,1.424940,99770.76,+47,-118,-85
150504,12.532,-6.238,-0.317,-0.930097,-1.050637,1.510610,99770.49,+52,-117,-88
150514,12.850,-6.695,0.015,-0.995014,-1.125132,1.573398,99769.98,+58,-117,-90
150524,13.114,-6.842,0.701,-1.112611,-1.154398,1.623949,99769.98,+58,-117,-90
150535,13.188,-6.951,1.437,-1.244042,-1.176746,1.655343,99770.23,+63,-115,-91
150544,13.349,-7.219,1.923,-1.388776,-1.182600,1.694720,99767.36,+70,-113,-95
150554,13.615,-7.240,2.165,-1.576610,-1.146416,1.714940,99771.17,+75,-110,-99
150564,13.613,-6.872,2.344,-1.844794,-1.052233,1.748463,99769.39,+75,-110,-99
150575,14.189,-5.307,2.528,-2.156610,-0.949536,1.758573,99769.39,+81,-106,-103
150585,16.190,-2.664,2.859,-2.352426,-0.945811,1.754316,99771.40,+87,-103,-108
150594,19.234,-0.468,4.405,-2.250261,-1.124068,1.797417,99769.30,+94,-99,-112
150604,20.578,-1.345,5.634,-1.905986,-1.399168,2.061343,99771.09,+94,-99,-112
150615,18.958,-4.313,5.337,-1.577142,-1.776966,2.433820,99767.54,+103,-95,-114
150620,16.947,-6.068,5.153,-1.323858,-2.032911,2.691893,99767.54,+112,-91,-117
150629,15.630,-7.841,5.525,-1.005657,-2.205847,2.947838,99767.54,+112,-91,-117
150639,15.968,-9.408,6.817,-0.702886,-2.298966,3.134609,99770.82,+124,-88,-118
150649,15.853,-11.354,6.067,-0.654996,-2.290984,3.106407,99767.43,+136,-85,-118
150660,14.863,-10.651,5.804,-0.918391,-2.172324,2.792994,99768.68,+147,-81,-118
150670,13.476,-6.648,4.885,-1.124849,-1.987682,2.296004,99768.88,+147,-81,-118
150680,11.020,-3.289,5.062,-0.997143,-1.791333,1.807527,99767.89,+155,-77,-119
150689,8.669,0.871,4.980,-0.542189,-1.754086,1.181234,99769.61,+161,-77,-119
150700,1.015,-0.550,1.588,-0.227180,-1.741847,0.854518,99769.61,+168,-76,-118
150710,-0.794,-10.169,1.159,-0.404373,-1.278379,0.707656,99768.67,+168,-76,-118
150719,2.149,-10.642,1.581,-0.817290,-0.853224,0.269197,99768.14,+173,-77,-119
150729,2.871,-2.583,2.062,-1.046629,-0.593554,-0.287921,99768.14,+174,-77,-122
150739,2.981,3.405,3.061,-1.141345,-0.190215,-0.721059,99769.41,+174,-77,-123
150750,3.651,4.804,2.992,-1.035455,0.121069,-0.923261,99767.95,+174,-77,-123
150760,3.819,3.825,2.426,-0.768868,0.264739,-0.956251,99767.64,+172,-78,-126
150769,3.935,2.255,1.980,-0.382556,0.318482,-0.992967,99766.69,+170,-81,-129
150779,3.782,0.378,1.599,-0.053180,0.434482,-1.128123,99768.17,+167,-83,-130
150790,4.037,-1.010,1.134,0.173499,0.626041,-1.325003,99765.88,+167,-83,-130
150800,4.681,-1.501,0.576,0.355480,0.825050,-1.527737,99763.94,+162,-88,-133
150809,5.406,-1.331,-0.422,0.547572,0.980426,-1.690563,99765.56,+157,-93,-133
150819,6.057,-1.176,-1.084,0.792342,1.087913,-1.831040,99765.56,+150,-100,-134
150830,6.738,-1.152,-1.318,1.112140,1.142188,-2.000783,99765.56,+150,-100,-134
150840,7.092,-1.582,-1.139,1.450562,1.144316,-2.189150,99763.52,+142,-107,-133
150849,7.179,-2.476,-0.822,1.741626,1.134206,-2.368471,99762.83,+133,-117,-133
150859,7.129,-3.739,-0.472,1.926800,1.164004,-2.561094,99764.08,+122,-124,-130
150870,7.033,-4.830,-0.203,1.940103,1.263509,-2.759039,99761.16,+112,-134,-128
150880,6.729,-5.653,0.133,1.791644,1.450812,-2.937296,99761.16,+112,-134,-128
150890,6.420,-6.078,0.494,1.580397,1.686536,-3.090544,99764.41,+98,-141,-125
150899,6.476,-5.952,0.698,1.369149,1.941417,-3.243791,99763.70,+84,-147,-122
150909,6.987,-5.791,0.666,1.222819,2.181398,-3.405552,99765.15,+67,-152,-120
150920,7.754,-5.896,0.431,1.146727,2.399563,-3.548158,99765.15,+67,-152,-120
150930,8.559,-6.106,-0.010,1.090324,2.599104,-3.662030,99767.11,+50,-155,-117
150939,9.257,-6.187,-0.359,1.061058,2.770976,-3.735993,99767.11,+33,-156,-112
150949,9.790,-6.214,-0.538,1.096709,2.910921,-3.775369,99762.94,+15,-158,-108
150960,10.203,-6.408,-0.480,1.182379,3.014682,-3.795057,99767.06,+15,-158,-108
150970,10.457,-6.931,-0.446,1.307425,3.080132,-3.808892,99764.14,-1,-157,-103
150979,10.867,-7.411,-0.525,1.419168,3.127489,-3.807295,99764.14,-17,-156,-97
150989,11.617,-7.696,-0.585,1.526122,3.166333,-3.804103,99768.01,-33,-154,-90
151000,12.370,-8.283,-0.748,1.631479,3.181764,-3.788139,99770.77,-33,-154,-90
151010,12.921,-8.967,-1.119,1.688947,3.152498,-3.759938,99766.90,-47,-153,-83
151020,13.291,-9.491,-1.671,1.674048,3.095563,-3.726947,99765.42,-61,-151,-74
151029,13.685,-9.530,-2.250,1.594232,3.010425,-3.699809,99768.92,-73,-149,-66
151040,13.987,-9.425,-2.813,1.488342,2.899746,-3.674268,99768.03,-73,-149,-66
151050,14.202,-9.645,-3.343,1.431406,2.765122,-3.624250,99768.03,-87,-145,-59
151060,14.001,-10.613,-3.682,1.351590,2.600701,-3.562525,99766.36,-99,-141,-52
151069,12.888,-11.536,-3.938,1.188764,2.429361,-3.464617,99767.81,-111,-137,-45
151079,11.438,-11.801,-3.803,1.025938,2.304847,-3.312433,99767.81,-111,-137,-45
151090,10.467,-11.801,-3.499,0.920049,2.220774,-3.099589,99770.35,-120,-131,-40
151100,9.520,-12.255,-3.271,0.845553,2.117013,-2.842048,99767.63,-130,-125,-34
151110,8.419,-12.904,-3.378,0.818948,1.954719,-2.558966,99767.63,-138,-120,-28
151119,7.497,-13.591,-3.940,0.798728,1.749857,-2.247682,99767.70,-138,-120,-28
151130,6.578,-15.239,-4.655,0.674746,1.533821,-1.892764,99767.70,-144,-115,-24
151140,5.618,-17.919,-5.839,0.350691,1.330023,-1.462288,99773.17,-149,-111,-20
151150,5.797,-19.719,-7.613,-0.144171,1.119307,-0.949866,99772.73,-152,-109,-18
151159,6.772,-18.667,-8.756,-0.642226,0.825050,-0.378380,99771.69,-152,-109,-18
151170,7.645,-15.188,-8.670,-0.871565,0.370097,0.214390,99771.69,-153,-107,-18
151180,7.550,-11.542,-8.664,-0.681602,-0.230123,0.749693,99771.69,-152,-109,-20
151190,5.781,-8.663,-6.269,0.043132,-0.868655,1.264243,99772.16,-149,-112,-22
151199,3.923,-8.303,2.933,1.193553,-1.102251,1.610646,99773.25,-149,-112,-22
151211,8.730,-4.144,34.420,1.800336,-0.253536,1.971771,99766.55,-145,-117,-20
151220,28.281,3.958,16.131,-0.159602,1.615765,0.937527,99766.55,-144,-122,-16
151230,29.716,1.426,-9.885,-1.998041,-0.297169,1.230188,99766.55,-140,-122,-20
151240,23.865,-9.846,-0.302,1.050416,-1.780159,2.491820,99776.10,-140,-122,-20
151249,13.539,-8.324,2.820,1.964048,-2.261719,2.345490,99771.24,-134,-130,-21
151260,1.752,-10.357,-0.456,1.266452,-1.815810,2.278976,99768.90,-127,-136,-22
151270,6.323,-16.218,-7.679,1.228672,-1.683847,2.621655,99768.90,-119,-143,-23
151280,14.327,-14.790,-6.007,1.460140,-1.872746,2.381141,99770.71,-119,-143,-23
151289,14.833,-9.794,-3.484,0.718379,-1.231022,1.960242,99770.71,-113,-147,-22
151300,10.220,-5.796,1.278,-0.397455,-0.591426,1.783050,99773.16,-107,-151,-23
151310,4.186,-4.164,4.288,-1.190299,-0.426472,1.653215,99771.74,-103,-153,-28
151320,3.973,-2.640,4.479,-1.427620,-0.488729,1.438243,99768.57,-103,-153,-28
151329,6.295,-1.733,2.712,-1.200941,-0.608453,1.284463,99768.57,-99,-154,-31
151340,8.316,-2.345,1.554,-0.756629,-0.695719,1.198261,99773.24,-94,-156,-35
151350,9.905,-2.970,1.520,-0.235694,-0.753187,1.132812,99772.55,-91,-158,-36
151360,9.798,-3.584,0.917,0.095278,-0.718600,1.066830,99768.34,-87,-158,-37
151370,8.604,-3.567,0.366,0.245333,-0.597811,1.013087,99770.46,-87,-160,-37
151379,8.163,-3.790,0.466,0.303865,-0.450949,0.939656,99770.26,-84,-162,-38
151390,8.735,-4.393,1.462,0.251187,-0.308876,0.889105,99770.77,-82,-164,-37
151400,8.748,-4.604,2.648,0.045792,-0.195536,0.826848,99771.24,-78,-164,-37
151410,8.303,-4.379,3.076,-0.203767,-0.132747,0.753417,99771.24,-78,-164,-37
151419,8.147,-3.964,3.172,-0.416079,-0.102417,0.704995,99768.95,-77,-166,-39
151430,8.526,-3.604,3.283,-0.582629,-0.086454,0.690628,99768.95,-75,-167,-40
151440,9.027,-3.134,3.303,-0.694372,-0.105610,0.709784,99770.32,-72,-167,-42
151450,9.188,-2.754,3.298,-0.687987,-0.184894,0.765656,99770.12,-72,-167,-42
151460,8.912,-2.993,3.273,-0.671492,-0.256729,0.809821,99772.10,-70,-168,-44
151470,8.673,-3.701,2.884,-0.728960,-0.305151,0.834298,99771.01,-68,-168,-46
151480,8.757,-4.167,2.712,-0.808776,-0.317921,0.843344,99771.01,-64,-168,-49
151490,8.886,-3.841,2.751,-0.869437,-0.319518,0.840151,99771.61,-64,-168,-49
151500,8.665,-3.561,2.873,-0.877418,-0.331756,0.844408,99771.61,-61,-168,-52
151510,8.662,-3.499,2.618,-0.816226,-0.358894,0.854518,99768.89,-58,-168,-54
151520,8.681,-3.903,2.426,-0.728427,-0.393481,0.874738,99768.89,-56,-168,-57
151530,8.594,-4.430,2.053,-0.657125,-0.422215,0.887509,99768.89,-56,-168,-57
151540,8.419,-4.562,1.798,-0.606574,-0.445628,0.889105,99770.64,-53,-169,-58
151549,8.225,-4.525,1.796,-0.558152,-0.463187,0.884316,99769.50,-49,-168,-60
151560,8.240,-4.484,2.234,-0.528886,-0.487132,0.871546,99770.33,-46,-170,-61
151570,8.244,-4.361,2.475,-0.487914,-0.531829,0.865692,99767.83,-46,-170,-61
151580,8.141,-4.496,2.178,-0.453859,-0.552050,0.874206,99767.83,-43,-169,-63
151590,8.131,-4.847,1.755,-0.448006,-0.558967,0.881124,99771.13,-39,-170,-65
151600,8.235,-5.136,1.577,-0.491639,-0.547793,0.886445,99770.44,-36,-170,-68
151610,8.296,-5.214,1.515,-0.549639,-0.530233,0.890170,99768.38,-36,-170,-68
151620,8.236,-5.304,1.589,-0.591143,-0.507352,0.885381,99768.38,-33,-171,-70
151630,8.240,-5.261,1.565,-0.614024,-0.494050,0.883784,99771.66,-29,-171,-72
151640,8.156,-5.299,1.603,-0.635840,-0.488197,0.887509,99771.66,-26,-170,-74
151650,8.182,-5.330,1.749,-0.660317,-0.491389,0.898151,99772.80,-26,-170,-74
151660,8.030,-5.542,2.402,-0.691180,-0.481279,0.927949,99770.88,-21,-169,-76
151670,7.244,-6.821,4.267,-0.768868,-0.387096,0.982757,99770.93,-19,-169,-78
151681,8.630,-6.289,1.692,-0.985082,-0.320937,1.011491,99769.76,-15,-168,-81
151690,8.991,-5.446,0.312,-1.062060,-0.370068,1.020536,99769.76,-15,-168,-81
151700,9.075,-5.269,0.273,-1.092391,-0.448820,1.035968,99768.24,-11,-167,-85
151710,9.139,-5.019,0.691,-1.078556,-0.518527,1.071619,99771.68,-7,-166,-88
151720,9.380,-4.800,0.678,-0.986501,-0.607389,1.142922,99771.27,-2,-165,-90
151730,9.673,-5.410,0.485,-0.868372,-0.702105,1.201986,99770.75,-2,-165,-90
151740,10.100,-6.056,0.129,-0.811437,-0.788306,1.244023,99771.11,+1,-164,-93
151750,10.469,-6.325,0.079,-0.846024,-0.859609,1.281270,99769.28,+6,-164,-96
151759,10.743,-6.260,0.308,-0.914666,-0.918673,1.327032,99769.28,+12,-163,-98
151770,11.111,-6.233,0.625,-0.964152,-0.979866,1.388224,99769.23,+12,-163,-98
151780,11.486,-6.416,0.739,-0.998739,-1.055426,1.454738,99769.23,+18,-160,-101
151790,11.812,-6.760,0.911,-1.068978,-1.121407,1.515931,99769.09,+24,-159,-104
151800,12.040,-7.012,0.994,-1.209987,-1.168765,1.576591,99768.20,+32,-157,-108
151811,12.368,-6.817,1.198,-1.385583,-1.194306,1.644169,99769.76,+32,-157,-108
151820,12.554,-6.633,1.298,-1.567564,-1.212398,1.718132,99769.04,+39,-153,-110
151830,12.522,-6.556,1.133,-1.755931,-1.212398,1.776664,99769.04,+47,-150,-115
151840,12.718,-6.788,1.281,-1.990060,-1.168765,1.824022,99770.52,+54,-145,-120
151851,13.913,-6.529,2.360,-2.304537,-1.074581,1.838389,99768.27,+62,-145,-120
151860,16.535,-5.507,3.891,-2.670096,-0.983059,1.852224,99764.77,+62,-139,-125
151870,19.762,-2.879,5.189,-2.880811,-1.020838,1.902774,99764.77,+69,-131,-131
151880,21.831,-0.924,5.917,-2.857931,-1.188453,2.091141,99764.77,+77,-124,-138
151890,20.786,-1.551,5.280,-2.526958,-1.498673,2.404554,99770.35,+87,-117,-142
151900,18.726,-3.096,3.852,-2.076262,-1.932342,2.682315,99768.27,+87,-117,-142
151910,17.643,-7.329,4.579,-1.346739,-2.464984,2.993599,99767.65,+99,-109,-144
151915,17.127,-11.155,5.596,-0.816226,-2.773608,3.148443,99767.90,+99,-109,-144
151925,17.025,-12.969,6.635,-0.692776,-2.814580,3.127691,99767.90,+113,-105,-144
151934,15.913,-12.598,6.855,-0.904556,-2.559700,2.963269,99769.30,+126,-100,-144
151945,14.880,-10.253,6.763,-1.043436,-2.251608,2.655178,99767.95,+137,-93,-142
151955,12.695,-5.013,5.253,-0.915730,-2.088251,2.144884,99768.63,+137,-93,-142
151965,9.267,-2.015,5.369,-0.512923,-1.798251,1.534554,99768.10,+146,-88,-142
151974,7.630,-0.125,1.588,-0.204299,-1.674801,0.940720,99768.10,+152,-86,-141
151985,-0.381,-3.652,-2.300,-0.471418,-1.753554,0.759803,99771.34,+157,-84,-139
151995,-1.894,-11.310,0.919,-0.470886,-1.091077,0.794922,99767.11,+157,-84,-139
152005,0.385,-8.702,1.912,-0.654464,-0.595683,0.062739,99767.80,+161,-81,-139
152015,1.551,-1.991,1.669,-1.145602,-0.106142,-0.665719,99770.30,+159,-79,-141
152025,1.554,2.528,1.801,-1.534042,0.315289,-1.009994,99770.30,+157,-77,-145
152035,1.532,4.128,1.041,-1.479766,0.590922,-1.199958,99766.38,+157,-77,-145
152045,1.215,4.600,0.594,-1.090794,0.770775,-1.338306,99766.53,+154,-75,-147
152055,1.866,4.226,0.561,-0.509730,0.870280,-1.452710,99763.77,+148,-73,-149
152065,2.954,3.302,0.096,0.114967,0.870812,-1.544233,99763.44,+143,-76,-150
152075,3.310,1.982,-0.124,0.717847,0.848995,-1.654379,99763.44,+143,-76,-150
152085,3.742,0.907,-0.416,1.274434,0.877197,-1.847535,99767.34,+138,-81,-151
152095,4.265,0.125,-0.362,1.661810,0.972445,-2.096562,99767.86,+132,-86,-149
152105,4.733,-0.256,-0.259,1.935846,1.081527,-2.300360,99763.89,+123,-95,-147
152115,5.356,-0.095,-0.458,2.209351,1.169858,-2.485003,99762.53,+123,-95,-147
152125,5.711,-0.129,-0.784,2.469552,1.261380,-2.672837,99762.53,+115,-102,-143
152135,5.872,-1.124,-0.828,2.633442,1.375252,-2.841516,99764.73,+105,-111,-139
152145,6.073,-2.251,-0.718,2.674947,1.459857,-3.024030,99762.53,+94,-119,-134
152151,6.336,-3.027,-0.672,2.639295,1.517325,-3.193241,99762.53,+94,-119,-134
152160,6.489,-3.961,-0.568,2.508396,1.599270,-3.378947,99762.53,+82,-126,-130
152170,6.728,-5.311,-0.548,2.218929,1.781252,-3.626910,99763.38,+68,-134,-126
152180,7.113,-5.943,-0.464,1.861351,2.035068,-3.842415,99763.38,+68,-134,-126
152190,7.783,-5.870,-0.199,1.561241,2.311233,-3.988745,99760.66,+53,-137,-122
152200,8.565,-5.883,0.064,1.342544,2.553343,-4.062708,99763.46,+37,-140,-119
152210,9.311,-6.734,0.117,1.213241,2.730535,-4.111130,99761.66,+21,-141,-115
152220,10.022,-7.756,-0.331,1.149920,2.854517,-4.160084,99761.66,+21,-141,-115
152230,10.738,-8.749,-1.289,1.144599,2.939122,-4.199460,99761.66,+5,-141,-112
152240,11.328,-9.685,-2.009,1.114801,3.005104,-4.203717,99767.39,-11,-141,-107
152250,11.990,-10.364,-2.105,1.050948,3.067893,-4.193075,99768.91,-27,-139,-103
152260,12.569,-10.450,-2.087,1.016361,3.096095,-4.185093,99769.38,-27,-139,-103
152270,13.115,-10.582,-2.130,1.089792,3.076939,-4.099423,99768.19,-43,-137,-98
152280,13.483,-10.882,-2.405,1.330305,2.981691,-3.986616,99768.19,-57,-135,-92
152290,13.476,-11.164,-2.809,1.602745,2.836957,-3.868488,99767.27,-72,-132,-85
152300,13.309,-11.319,-2.931,1.776745,2.672535,-3.751424,99766.27,-72,-132,-85
152310,13.066,-10.848,-2.703,1.786323,2.508646,-3.635424,99765.80,-84,-129,-77
152321,12.671,-10.581,-2.619,1.749076,2.331985,-3.468874,99765.80,-96,-126,-70
152331,12.040,-10.771,-3.025,1.765039,2.109031,-3.252305,99770.60,-106,-123,-63
152340,11.670,-10.982,-3.172,1.815057,1.889270,-3.002745,99770.13,-106,-123,-63
152350,11.423,-11.360,-3.235,1.883167,1.648756,-2.690397,99770.13,-115,-119,-56
152360,10.850,-11.696,-3.629,2.008745,1.380041,-2.345058,99770.76,-122,-117,-49
152370,10.302,-12.039,-4.429,2.125277,1.125160,-2.019407,99768.15,-127,-115,-43
152380,9.779,-12.551,-5.419,2.087497,0.871344,-1.705462,99768.15,-131,-115,-36
152386,9.003,-12.661,-6.301,1.952874,0.670206,-1.458563,99772.13,-131,-114,-36
152395,8.158,-12.613,-6.928,1.789516,0.445656,-1.202618,99771.13,-134,-113,-33
152406,7.276,-12.726,-7.250,1.620837,0.073179,-0.809389,99768.01,-134,-113,-33
152415,6.790,-13.049,-6.916,1.571883,-0.352509,-0.348050,99770.09,-137,-113,-31
152425,5.954,-12.477,-6.367,1.794837,-0.685609,-0.001646,99770.09,-136,-115,-28
152435,5.570,-12.837,-5.749,1.811864,-1.052765,0.413931,99771.59,-134,-117,-27
152445,4.643,-12.673,-5.293,1.765571,-1.284233,0.842812,99773.64,-134,-117,-27
152455,4.178,-10.748,-3.752,1.773553,-1.453976,1.186555,99771.70,-131,-120,-26
152465,3.444,-11.353,1.621,1.737901,-1.279444,1.403123,99769.61,-128,-125,-26
152475,6.430,-7.639,20.883,1.575608,-0.604196,1.650022,99769.61,-124,-130,-23
152485,24.879,13.201,18.858,0.273003,0.702665,0.560794,99766.13,-124,-130,-23
152496,27.405,8.743,-5.517,-2.898903,1.196995,0.033473,99770.88,-125,-130,-23
152505,18.083,-7.432,3.993,-2.048060,0.432885,1.580848,99772.70,-122,-130,-27
152515,10.173,-23.736,18.660,0.387939,0.614867,3.050535,99767.55,-115,-137,-25
152525,15.499,-24.782,5.901,1.141406,-0.544600,2.856847,99767.55,-115,-137,-25
152536,9.471,-6.467,-12.798,1.539956,-2.308012,1.998022,99773.48,-108,-143,-25
152545,10.172,-1.460,-10.339,1.836874,-1.581682,1.701105,99772.06,-102,-147,-23
152555,10.254,-11.111,-2.309,0.939205,-0.820233,1.912352,99770.45,-98,-152,-23
152565,7.618,-8.860,-1.745,-1.028005,-0.486600,1.849563,99769.77,-98,-152,-23
152576,9.165,1.274,2.560,-1.846390,-0.009830,1.647894,99769.77,-92,-154,-27
152586,8.993,3.391,3.571,-1.126978,-0.297169,1.574463,99768.38,-87,-156,-31
152595,7.973,0.536,2.499,0.200104,-0.812251,1.390885,99770.77,-84,-158,-31
152605,7.683,-2.085,4.159,0.700819,-0.806930,1.308408,99771.10,-84,-158,-31
152615,7.930,-5.069,1.753,0.847150,-0.762233,1.181234,99768.63,-79,-160,-30
152625,8.352,-5.838,1.694,0.613021,-0.639848,0.983821,99768.63,-77,-163,-29
152635,8.236,-5.734,0.757,0.189994,-0.465316,0.775766,99769.62,-73,-164,-30
152645,9.158,-3.973,0.537,-0.173437,-0.292912,0.627307,99769.24,-71,-166,-30
152655,9.143,-3.053,1.316,-0.342648,-0.215224,0.538977,99768.46,-71,-166,-30
152666,9.161,-2.375,1.864,-0.367125,-0.223206,0.512904,99770.45,-69,-166,-31
152675,9.494,-2.359,2.338,-0.332538,-0.253004,0.525142,99770.45,-68,-166,-33
152685,9.809,-2.366,2.709,-0.256978,-0.320050,0.548555,99772.50,-67,-167,-34
152695,9.330,-2.786,2.919,-0.217070,-0.370600,0.568243,99769.42,-67,-167,-34
152706,8.953,-3.332,2.695,-0.262831,-0.391353,0.582610,99770.67,-64,-167,-35
152716,8.845,-3.470,2.294,-0.338391,-0.406784,0.596977,99769.78,-62,-168,-36
152725,8.835,-3.258,1.961,-0.373510,-0.423279,0.598041,99769.78,-60,-168,-38
152735,8.997,-2.913,1.663,-0.363400,-0.450949,0.606023,99771.97,-60,-168,-38
152745,9.034,-2.907,1.230,-0.294758,-0.483940,0.618794,99770.77,-57,-169,-39
152756,9.090,-2.892,1.211,-0.221859,-0.521719,0.635821,99768.16,-55,-169,-41
152765,9.214,-2.979,1.369,-0.171309,-0.563756,0.651252,99770.86,-53,-171,-42
152775,9.215,-3.373,1.181,-0.125015,-0.605793,0.666151,99770.86,-53,-171,-42
152785,8.892,-3.474,0.789,-0.110116,-0.622288,0.655509,99772.57,-51,-171,-42
152796,9.368,-3.671,1.146,-0.178758,-0.647829,0.663491,99770.21,-47,-171,-44
152805,9.073,-2.861,1.347,0.037811,-0.659536,0.622518,99772.51,-45,-172,-44
152815,9.286,-3.736,1.362,-0.005822,-0.728178,0.610812,99768.07,-45,-172,-44
152825,9.092,-4.110,0.939,-0.040942,-0.757976,0.608683,99768.07,-42,-173,-44
152836,8.924,-4.089,0.732,-0.000501,-0.772875,0.593252,99771.80,-40,-173,-46
152845,8.297,-4.290,0.304,0.040471,-0.780325,0.568775,99770.13,-38,-174,-47
152856,7.947,-4.337,-0.223,-0.008838,-0.771101,0.561680,99768.37,-38,-174,-47
152865,8.007,-3.848,-0.031,-0.059033,-0.782453,0.567711,99768.73,-36,-174,-47
152876,8.037,-3.208,0.564,0.002159,-0.815444,0.577821,99768.73,-33,-175,-48
152886,7.924,-3.055,0.018,0.171902,-0.879829,0.601766,99769.26,-29,-175,-49
152895,6.973,-3.958,0.739,0.420930,-0.930912,0.727344,99770.77,-29,-175,-49
152905,6.861,-3.772,0.696,0.556086,-0.905371,0.853454,99769.37,-26,-177,-48
152915,6.668,-5.035,0.191,0.680067,-0.875040,0.977968,99769.26,-22,-178,-47
152926,5.527,-6.423,0.696,0.599719,-0.836728,0.775234,99769.26,-19,-180,-45
152935,5.717,-5.752,0.846,0.513517,-0.803205,0.493216,99769.48,-19,-180,-45
152945,6.834,-4.498,1.663,0.304398,-0.749462,0.272390,99768.13,-17,-181,-45
152955,8.205,-5.197,1.163,0.129866,-0.726050,0.184592,99771.47,-15,-181,-45
152966,10.387,-5.129,-0.493,-0.010611,-0.704765,0.127124,99769.59,-15,-181,-45
152975,11.534,-4.885,-0.720,-0.168648,-0.642508,0.101051,99769.59,-15,-181,-45
152985,11.954,-4.438,-0.572,-0.255382,-0.625481,0.110629,99772.43,-14,-181,-47
152995,11.578,-3.839,0.010,-0.274538,-0.591426,0.171821,99770.71,-13,-181,-48
153006,9.947,-4.199,0.446,-0.163859,-0.614839,0.227161,99772.80,-11,-181,-49
153016,9.158,-4.880,0.883,-0.242079,-0.700508,0.240996,99766.70,-11,-181,-49
153025,8.948,-4.843,0.950,-0.252721,-0.754251,0.243124,99766.70,-10,-181,-50
153035,8.927,-5.087,0.740,-0.246336,-0.805866,0.216519,99768.82,-8,-180,-51
153046,8.959,-5.128,0.398,-0.281987,-0.835132,0.181931,99770.65,-6,-180,-52
153056,8.999,-5.011,0.057,-0.329345,-0.847903,0.167564,99770.96,-6,-180,-52
153065,9.046,-4.940,-0.235,-0.391070,-0.856416,0.151601,99769.87,-4,-181,-54
153075,9.225,-4.759,-0.433,-0.437896,-0.871315,0.139363,99769.87,-3,-179,-55
153085,9.482,-4.766,-1.055,-0.446941,-0.929315,0.114353,99771.04,-1,-179,-58
153091,9.702,-4.298,-1.656,-0.453327,-0.983591,0.081363,99770.84,-1,-179,-58
153101,9.330,-4.614,-0.859,-0.436831,-1.002747,0.078702,99770.84,+0,-177,-60
153111,9.833,-4.972,-0.739,-0.483657,-0.994765,0.094133,99770.41,+0,-178,-61
153120,10.531,-4.473,-1.344,-0.514519,-1.035737,0.088280,99768.27,+0,-178,-61
153131,10.672,-4.307,-1.362,-0.506538,-1.099059,0.099454,99768.27,+3,-177,-63
153141,10.604,-4.394,-1.252,-0.530483,-1.142691,0.126060,99771.20,+5,-176,-65
153151,10.279,-4.618,-1.356,-0.574648,-1.173554,0.153198,99770.31,+7,-176,-67
153160,10.001,-4.866,-1.632,-0.672556,-1.174086,0.166500,99767.75,+7,-176,-67
153170,9.854,-5.142,-1.836,-0.842831,-1.157591,0.165968,99767.75,+8,-174,-71
153181,10.097,-5.270,-1.953,-1.104097,-1.125132,0.147876,99767.75,+11,-173,-73
153191,10.874,-5.130,-1.741,-1.382922,-1.109169,0.110097,99771.91,+13,-171,-77
153200,11.917,-4.452,-0.283,-1.607473,-1.159187,0.057418,99772.06,+13,-171,-77
153210,12.941,-3.424,1.263,-1.625032,-1.268801,0.025491,99768.83,+15,-168,-83
153221,13.874,-3.605,1.806,-1.423363,-1.462489,0.021766,99767.94,+17,-165,-88
153231,14.775,-4.211,2.660,-1.262666,-1.648728,0.013253,99767.94,+21,-162,-91
153241,15.000,-4.497,3.891,-1.179657,-1.787076,0.018042,99770.70,+21,-162,-91
153250,14.672,-4.265,4.891,-1.084409,-1.908397,0.062739,99768.65,+24,-160,-95
153261,14.728,-4.157,6.124,-1.008849,-2.006838,0.150537,99767.29,+29,-158,-97
153271,14.697,-4.563,6.322,-0.972666,-2.106874,0.333051,99767.29,+34,-157,-99
153281,14.333,-5.165,7.159,-0.964684,-2.279278,0.460225,99768.37,+34,-157,-99
153290,12.639,-9.008,8.861,-1.015767,-2.422948,0.674133,99768.37,+40,-154,-103
153300,12.252,-11.294,7.982,-0.913069,-2.452214,0.983289,99769.52,+47,-152,-106
153311,12.283,-10.808,6.431,-0.678409,-2.431461,1.101417,99769.57,+56,-151,-107
153321,12.635,-8.085,5.240,-0.365529,-2.330893,1.034903,99770.35,+56,-151,-107
153326,11.886,-5.481,4.865,-0.018061,-2.289388,0.900812,99770.35,+63,-149,-107
153335,8.787,-5.944,3.822,0.361865,-2.209039,0.797050,99766.64,+69,-150,-106
153346,5.546,-7.137,1.466,0.710397,-2.227663,0.688500,99767.00,+69,-150,-106
153356,3.953,-10.718,1.104,1.112140,-2.383039,0.802904,99767.27,+75,-151,-102
153366,5.423,-13.194,2.765,1.777277,-2.641645,0.997656,99767.38,+83,-154,-98
153375,6.991,-5.979,1.800,2.580763,-3.085956,0.493216,99767.38,+90,-159,-90
153385,6.370,-3.204,3.021,3.092653,-2.933773,0.301124,99769.84,+90,-159,-90
153396,5.283,-4.508,4.359,3.368818,-2.774672,0.377748,99769.84,+95,-164,-80
153406,3.694,-5.379,4.284,3.500249,-2.644305,0.331454,99768.05,+99,-169,-69
153415,3.212,-5.377,3.923,3.431075,-2.370801,0.178207,99763.46,+103,-175,-58
153425,3.172,-5.627,3.325,3.144799,-2.053131,-0.012821,99763.46,+103,-175,-58
153436,3.201,-5.718,2.785,2.779772,-1.745040,-0.245353,99768.37,+105,-177,-49
153446,3.572,-5.478,2.356,2.384947,-1.413535,-0.518148,99767.16,+105,-181,-41
153455,4.095,-5.340,2.227,2.092286,-1.159187,-0.719463,99765.91,+103,-184,-35
153465,4.719,-4.900,1.925,1.870929,-0.947939,-0.938692,99766.07,+103,-184,-35
153476,4.963,-4.241,1.620,1.770360,-0.818105,-1.155260,99766.07,+101,-186,-30
153486,5.053,-4.085,1.751,1.818250,-0.744141,-1.327664,99770.28,+98,-189,-25
153496,5.434,-3.887,1.866,1.996507,-0.721261,-1.491022,99766.94,+93,-192,-18
153505,5.857,-3.608,1.959,2.274268,-0.726582,-1.668746,99763.86,+93,-192,-18
153516,6.197,-3.715,2.097,2.613222,-0.726582,-1.841150,99762.61,+89,-195,-11
153526,6.333,-4.157,2.101,2.951644,-0.724985,-2.009297,99762.61,+82,-198,-1
153536,6.286,-4.714,1.904,3.243240,-0.712747,-2.163076,99765.85,+75,-201,+7
153545,6.172,-5.275,1.633,3.489074,-0.676563,-2.305682,99764.65,+75,-201,+7
153555,6.193,-5.752,1.680,3.719478,-0.627609,-2.425406,99762.76,+66,-202,+19
153566,6.525,-5.952,1.846,3.942964,-0.571206,-2.539810,99763.18,+57,-204,+30
153576,7.053,-6.191,2.077,4.133991,-0.506288,-2.646232,99763.18,+49,-205,+42
153586,7.411,-6.780,2.311,4.266487,-0.428600,-2.743608,99764.05,+49,-205,+42
153595,7.575,-7.475,2.481,4.302138,-0.330692,-2.828746,99767.64,+38,-204,+56
153606,7.611,-8.006,2.524,4.226578,-0.192876,-2.913351,99765.77,+29,-203,+68
153616,7.647,-8.279,2.557,4.073863,-0.014087,-2.999553,99764.78,+17,-200,+80
153626,7.817,-8.356,2.523,3.881239,0.198757,-3.076177,99764.78,+7,-200,+80
153635,8.028,-8.500,2.444,3.677974,0.432353,-3.136837,99766.15,+7,-195,+91
153646,8.106,-8.734,2.281,3.467790,0.664353,-3.173553,99764.27,-2,-191,+101
153656,8.061,-9.095,2.021,3.278891,0.897949,-3.173021,99762.85,-12,-186,+110
153666,8.228,-9.393,1.855,3.108616,1.135270,-3.163443,99768.96,-21,-180,+119
153675,8.460,-9.680,1.722,2.939937,1.361949,-3.152268,99768.96,-21,-180,+119
153681,8.608,-9.702,1.600,2.814891,1.521582,-3.142158,99767.70,-30,-172,+128
153691,8.645,-9.642,1.433,2.687717,1.676958,-3.131516,99767.70,-30,-172,+128
153701,8.627,-9.601,1.289,2.508396,1.878096,-3.099589,99766.43,-37,-165,+137
153711,8.673,-9.584,1.157,2.316305,2.057949,-3.055424,99766.38,-43,-158,+144
153721,8.751,-9.600,1.089,2.096543,2.230884,-3.009131,99764.81,-48,-149,+152
153731,8.857,-9.597,0.922,1.838470,2.392646,-2.968690,99768.00,-48,-149,+152
153741,9.151,-9.528,0.636,1.552195,2.548022,-2.930911,99768.09,-50,-142,+159
153751,9.586,-9.528,0.126,1.239314,2.693288,-2.884617,99769.20,-52,-135,+166
153760,10.320,-8.968,-0.363,0.927498,2.823654,-2.836727,99769.20,-53,-128,+170
153771,10.861,-8.635,-1.033,0.631113,2.931141,-2.782984,99765.64,-53,-128,+170
153781,11.182,-8.585,-1.665,0.426783,2.965196,-2.679223,99765.64,-50,-124,+175
153791,11.032,-9.083,-2.182,0.337388,2.904003,-2.545131,99771.66,-50,-120,+179
153796,10.406,-9.795,-2.710,0.374636,2.752884,-2.378049,99771.30,-50,-120,+179
153805,9.957,-10.002,-3.268,0.519902,2.532058,-2.168397,99768.47,-49,-116,+182
153816,9.837,-9.804,-3.772,0.795003,2.236205,-1.902342,99767.84,-47,-112,+187
153826,9.948,-9.674,-3.865,1.064783,1.950463,-1.676196,99767.84,-45,-107,+191
153836,9.711,-9.190,-4.282,1.258470,1.623747,-1.451113,99769.45,-45,-107,+191
153846,8.929,-9.223,-5.018,1.426617,1.238500,-1.184526,99771.70,-45,-103,+195
153856,7.800,-10.893,-5.852,1.575076,0.810151,-0.854086,99771.90,-44,-99,+199
153866,6.123,-14.427,-6.354,1.604874,0.387124,-0.450747,99771.38,-44,-94,+201
153876,4.734,-17.659,-6.796,1.382984,0.047638,0.022831,99771.38,-44,-94,+201
153886,4.538,-18.370,-7.278,0.905682,-0.148178,0.506518,99773.28,-43,-91,+204
153895,5.155,-15.944,-7.213,0.346434,-0.262582,0.972114,99773.95,-43,-91,+204
153906,5.780,-12.560,-7.643,0.070801,-0.488197,1.379178,99770.45,-42,-93,+204
153916,7.169,-8.556,-6.678,0.355480,-0.944924,1.754671,99770.41,-42,-93,+204
153926,5.845,-4.626,4.201,1.066911,-1.192178,1.913949,99770.41,-42,-93,+204
153935,12.348,5.550,38.146,2.346103,-0.259921,2.079435,99766.92,-40,-90,+207
153946,40.468,25.004,8.821,0.039939,1.284261,-0.041023,99765.47,-36,-90,+209
153956,27.397,1.675,-14.945,-0.996079,-1.005939,1.669710,99771.83,-36,-90,+209
153966,21.817,-14.889,-1.104,2.810102,-2.296838,3.229856,99769.38,-36,-91,+209
153975,8.514,-11.531,0.613,2.191791,-2.268636,2.255563,99769.38,-38,-86,+211
153986,-1.680,-20.703,-2.751,0.389003,-0.746270,2.609416,99771.66,-35,-88,+210
153996,12.305,-29.465,-5.212,0.124545,-0.666985,3.320315,99770.88,-35,-88,+210
154006,18.112,-17.457,-2.587,0.286306,-1.500269,2.059215,99769.37,-33,-91,+210
154016,11.753,-4.559,0.473,-1.099308,-0.394013,1.482940,99768.84,-32,-94,+209
154025,4.702,-0.337,9.155,-2.249729,0.002941,1.681417,99768.84,-29,-101,+204
154032,0.954,-0.693,7.370,-2.563674,-0.365279,1.636187,99764.99,-29,-101,+204
154041,3.701,0.410,3.065,-2.156078,-0.664857,1.553178,99764.99,-26,-109,+200
154051,8.016,1.102,1.444,-0.904556,-0.952196,1.410573,99770.16,-26,-112,+198
154061,9.497,-1.527,1.816,-0.020189,-1.129389,1.403123,99772.88,-26,-112,+198
154071,9.219,-3.610,1.401,0.239480,-1.039462,1.352573,99768.91,-25,-113,+198
154081,7.871,-5.042,0.220,0.338985,-0.855352,1.221674,99769.72,-25,-113,+198
154091,7.033,-5.803,-0.241,0.412416,-0.730306,1.034903,99768.98,-25,-113,+199
154101,7.819,-5.519,0.500,0.346434,-0.585573,0.847069,99771.48,-25,-113,+199
154110,8.911,-5.376,0.721,0.114434,-0.411041,0.727876,99771.48,-25,-113,+198
154121,8.994,-5.122,1.047,-0.184079,-0.245022,0.681050,99766.94,-24,-115,+197
154131,8.491,-4.118,2.249,-0.396391,-0.133279,0.661894,99766.94,-22,-117,+196
154141,8.338,-2.882,3.411,-0.414483,-0.124233,0.667748,99772.80,-22,-117,+196
154151,8.418,-1.776,4.250,-0.240483,-0.220900,0.730537,99768.18,-21,-117,+195
154161,8.255,-1.677,4.321,-0.052648,-0.346123,0.805032,99768.18,-21,-118,+196
154171,8.104,-3.299,3.594,0.056434,-0.426472,0.861436,99769.93,-19,-119,+195
154181,8.214,-4.678,3.000,-0.023382,-0.439242,0.887509,99769.93,-19,-119,+195
154191,7.988,-5.188,2.662,-0.274538,-0.370068,0.889637,99769.61,-19,-120,+195
154201,7.840,-4.820,2.415,-0.570923,-0.280142,0.878463,99770.13,-17,-122,+193
154211,8.022,-4.194,2.367,-0.744923,-0.251408,0.872610,99767.94,-16,-124,+192
154221,8.368,-3.677,2.271,-0.728427,-0.304619,0.890702,99767.94,-16,-124,+192
154231,8.831,-3.536,2.034,-0.621473,-0.395609,0.940720,99767.94,-14,-127,+190
154241,9.058,-3.924,1.958,-0.527822,-0.469573,1.002445,99770.98,-13,-129,+190
154251,9.165,-4.157,2.068,-0.468226,-0.503096,1.057252,99771.98,-12,-131,+188
154261,8.880,-4.028,2.125,-0.459712,-0.498839,1.097160,99770.40,-12,-131,+188
154271,8.309,-4.497,1.681,-0.423529,-0.515866,1.108335,99768.73,-10,-134,+187
154280,7.942,-4.859,1.348,-0.363400,-0.548325,1.101417,99768.73,-8,-134,+185
154291,7.916,-5.009,1.347,-0.312850,-0.539279,1.084922,99770.57,-8,-135,+185
154301,7.780,-5.200,1.225,-0.277198,-0.525444,1.068426,99770.57,-8,-135,+185
154311,7.722,-5.515,0.971,-0.243675,-0.509481,1.045546,99769.35,-7,-137,+185
154321,7.868,-5.758,1.213,-0.236226,-0.488729,1.018408,99769.35,-5,-139,+183
154332,8.025,-5.750,1.743,-0.280391,-0.465316,0.973711,99771.73,-3,-139,+182
154341,7.952,-5.489,1.964,-0.350630,-0.446160,0.949766,99773.09,-1,-139,+182
154351,7.950,-5.189,2.215,-0.401712,-0.432857,0.965729,99773.09,-1,-141,+182
154361,8.151,-5.418,2.287,-0.398519,-0.438710,0.984353,99769.70,+0,-143,+180
154371,8.437,-5.884,2.058,-0.400116,-0.451481,1.017876,99769.64,+0,-143,+179
154381,8.431,-6.409,1.733,-0.449602,-0.457866,1.046078,99769.64,+2,-143,+178
154391,8.206,-6.630,1.543,-0.579437,-0.432857,1.061509,99770.34,+2,-146,+178
154401,8.109,-6.598,1.346,-0.701822,-0.400930,1.072683,99770.61,+4,-147,+176
154412,8.165,-6.362,1.356,-0.786427,-0.379646,1.099289,99769.94,+6,-150,+174
154421,7.891,-6.441,1.634,-0.835382,-0.362087,1.133876,99769.36,+8,-152,+172
154431,7.543,-7.042,2.173,-0.885400,-0.328564,1.176445,99771.83,+8,-152,+172
154441,6.464,-8.579,4.510,-0.972666,-0.234912,1.225399,99770.11,+12,-154,+170
154451,8.170,-8.774,2.674,-1.200941,-0.123169,1.233912,99768.02,+15,-157,+167
154461,9.488,-7.387,0.067,-1.384519,-0.162545,1.176977,99768.02,+18,-160,+163
154471,10.130,-6.745,-0.863,-1.490409,-0.221610,1.159417,99770.42,+18,-160,+163
154481,10.519,-5.959,-0.620,-1.488280,-0.284398,1.182830,99770.42,+21,-164,+160
154491,10.923,-5.319,-0.833,-1.352592,-0.404655,1.250940,99770.59,+24,-167,+156
154501,11.388,-5.728,-1.285,-1.147198,-0.557371,1.325967,99770.70,+27,-169,+153
154511,11.587,-6.485,-1.254,-1.007253,-0.682417,1.381839,99767.62,+27,-169,+153
154521,11.477,-7.131,-0.912,-1.009913,-0.757976,1.421747,99771.68,+29,-171,+150
154531,11.388,-7.267,-0.390,-1.107290,-0.796288,1.460591,99771.68,+33,-172,+148
154542,11.480,-6.981,0.205,-1.231803,-0.820765,1.493050,99770.09,+36,-175,+144
154551,11.651,-6.786,0.695,-1.316941,-0.877701,1.522316,99768.27,+36,-175,+144
154561,12.180,-6.834,1.186,-1.390372,-0.925059,1.560096,99768.26,+40,-177,+141
154571,12.686,-7.291,1.746,-1.498922,-0.933040,1.597343,99768.26,+43,-179,+136
154582,13.129,-7.491,2.285,-1.718152,-0.873976,1.636720,99768.26,+48,-183,+131
154591,14.540,-6.460,2.561,-2.048592,-0.804802,1.648426,99770.10,+48,-183,+131
154601,17.438,-4.255,3.502,-2.326885,-0.821829,1.589894,99770.57,+52,-185,+126
154611,19.564,-2.923,4.391,-2.459913,-0.873976,1.617564,99768.12,+57,-187,+118
154621,20.050,-2.588,4.734,-2.541325,-0.975609,1.855417,99769.05,+63,-190,+111
154631,19.507,-2.196,5.222,-2.371050,-1.240600,2.169894,99769.05,+63,-190,+111
154641,18.245,-4.848,5.099,-1.909179,-1.655113,2.617398,99767.37,+69,-192,+106
154651,16.819,-8.034,5.866,-1.309491,-1.970654,2.962737,99768.51,+78,-192,+102
154661,16.603,-11.046,6.282,-0.973198,-2.082397,3.163342,99765.49,+87,-190,+101
154672,16.325,-11.189,7.331,-1.126446,-1.964269,3.094168,99767.86,+87,-190,+101
154681,15.411,-8.200,7.689,-1.528720,-1.643939,2.786609,99768.64,+95,-190,+97
154691,13.350,-5.542,7.819,-1.662280,-1.314031,2.450847,99767.39,+103,-189,+92
154701,12.141,-3.198,7.361,-1.501583,-1.079903,2.008664,99767.39,+110,-189,+89
154712,11.050,0.710,3.265,-1.156776,-1.290618,1.557967,99768.13,+110,-189,+89
154721,1.690,-8.269,-1.820,-0.991822,-1.160251,1.688866,99767.59,+115,-188,+87
154731,0.224,-16.111,-0.335,-1.363234,-0.418490,1.642041,99767.59,+120,-188,+84
154741,2.588,-12.145,1.933,-1.755931,0.199821,0.908261,99769.27,+124,-189,+77
154752,4.184,-4.191,3.525,-1.910775,0.654775,0.283564,99768.13,+124,-189,+77
154762,3.907,1.388,2.980,-1.788922,0.899014,-0.105408,99765.04,+125,-190,+71
154771,3.321,4.449,1.381,-1.435601,0.839417,-0.365610,99765.98,+126,-193,+66
154781,2.741,4.971,-0.025,-0.754501,0.714372,-0.576325,99766.46,+124,-194,+63
154791,2.742,3.895,-0.147,0.034086,0.672335,-0.795022,99768.23,+124,-194,+63
154802,3.063,2.568,-0.034,0.718379,0.680849,-0.989242,99764.10,+123,-195,+64
154811,3.079,1.617,-0.038,1.307957,0.697876,-1.162710,99763.43,+120,-197,+66
154821,3.116,0.575,-0.310,1.870929,0.694151,-1.400563,99763.43,+116,-198,+71
154831,3.250,-0.487,-0.696,2.439222,0.675528,-1.702801,99763.43,+116,-198,+71
154842,3.296,-1.452,-1.124,2.914928,0.639344,-2.006104,99767.59,+111,-199,+79
154851,3.466,-1.827,-1.549,3.244836,0.604225,-2.342397,99765.45,+105,-200,+87
154857,3.731,-2.081,-1.601,3.360836,0.621252,-2.606856,99765.56,+105,-200,+87
154866,4.357,-2.478,-1.628,3.291130,0.711711,-2.863333,99763.00,+97,-200,+96
154876,5.071,-3.235,-1.589,3.045295,0.870280,-3.153865,99763.00,+87,-201,+105
154887,5.515,-3.198,-1.674,2.797864,1.042151,-3.400764,99764.93,+76,-201,+112
154896,6.188,-2.355,-1.911,2.528616,1.236903,-3.647130,99763.68,+76,-201,+112
154906,6.669,-3.183,-1.664,2.245002,1.384830,-3.811020,99762.37,+66,-201,+120
154916,6.907,-4.501,-1.308,1.979479,1.397068,-3.937130,99762.26,+54,-200,+125
154927,6.920,-5.090,-1.531,1.699589,1.383234,-4.159020,99762.26,+40,-200,+130
154936,6.634,-6.363,-1.181,1.457479,1.485931,-4.337276,99765.38,+40,-200,+130
154946,6.887,-7.232,-0.481,1.346269,1.680151,-4.483607,99764.44,+28,-198,+134
154956,7.816,-6.619,-0.225,1.297847,1.854683,-4.585240,99763.50,+14,-196,+139
154967,8.800,-6.025,0.084,1.420232,1.954187,-4.610781,99765.53,+1,-192,+144
154976,9.972,-6.459,0.425,1.705975,1.940885,-4.612909,99765.53,+1,-192,+144
154986,11.067,-7.474,0.099,1.994378,1.875967,-4.625680,99766.48,-11,-186,+151
154996,11.758,-8.386,-0.574,2.164121,1.838187,-4.627276,99765.84,-23,-178,+158
155006,11.838,-9.520,-1.055,2.155607,1.859472,-4.604396,99764.07,-34,-169,+166
155017,11.686,-11.148,-1.079,1.936378,1.957912,-4.541075,99768.04,-34,-169,+166
155026,11.563,-12.806,-0.556,1.599553,2.045178,-4.433056,99768.04,-43,-160,+172
155036,11.596,-13.318,0.151,1.291993,2.129251,-4.345258,99768.16,-50,-151,+179
155046,11.666,-12.873,0.309,1.121186,2.202150,-4.257992,99765.45,-56,-142,+184
155057,11.649,-12.421,0.106,1.073828,2.245251,-4.095699,99766.65,-56,-142,+184
155066,11.450,-12.302,-0.452,1.051480,2.259618,-3.844543,99767.27,-59,-133,+190
155076,11.249,-12.586,-0.873,0.994012,2.259618,-3.516231,99767.27,-61,-126,+194
155086,10.988,-13.055,-1.219,0.903021,2.250572,-3.191644,99772.33,-62,-118,+199
155091,10.591,-13.492,-1.383,0.797131,2.243123,-2.993167,99768.05,-62,-118,+199
155102,10.057,-13.887,-1.677,0.628452,2.224499,-2.811718,99768.05,-61,-112,+204
155112,9.178,-14.001,-2.169,0.315572,2.195765,-2.548856,99767.94,-59,-109,+206
155121,8.560,-13.706,-2.290,-0.021786,2.159050,-2.253003,99768.05,-59,-109,+206
155131,8.287,-13.618,-2.213,-0.310189,2.070719,-1.909792,99768.05,-57,-107,+209
155142,7.819,-13.778,-2.670,-0.512391,1.885013,-1.529333,99769.60,-55,-106,+210
155152,6.600,-13.571,-2.982,-0.604446,1.607784,-1.124930,99768.84,-52,-107,+210
155161,5.693,-13.358,-3.274,-0.652868,1.337472,-0.730637,99768.95,-52,-107,+210
155171,5.541,-12.469,-3.823,-0.711400,1.042151,-0.342729,99768.95,-50,-108,+210
155182,5.578,-11.592,-3.906,-0.703418,0.738317,0.039326,99768.95,-47,-111,+210
155192,5.850,-10.784,-4.006,-0.576776,0.397234,0.421913,99771.58,-45,-113,+210
155201,6.048,-9.983,-3.778,-0.303272,0.039124,0.745436,99770.48,-45,-113,+210
155211,6.043,-9.640,-3.731,0.067077,-0.264178,1.019472,99769.44,-43,-115,+209
155222,6.480,-8.392,-3.215,0.501810,-0.590362,1.292977,99767.14,-42,-115,+210
155232,8.606,-5.493,0.245,1.067443,-0.825022,1.391417,99767.14,-40,-113,+212
155242,11.669,1.392,15.234,1.788452,-0.784582,1.411105,99772.31,-40,-113,+212
155251,36.751,25.371,14.853,1.643718,-0.237573,0.152665,99766.33,-40,-109,+214
155261,33.214,8.266,-10.615,-0.612427,-0.470637,0.682647,99771.73,-41,-110,+214
