210014,9.400,0.628,2.898,0.007149,-0.004721,0.004104,100078.13,-19,+127,+254
210024,9.389,0.624,2.870,0.007149,-0.005253,0.002508,100081.01,-19,+128,+254
210033,9.379,0.642,2.860,0.006617,-0.004721,0.003040,100080.84,-18,+127,+254
210043,9.368,0.615,2.896,0.006617,-0.005785,0.000911,100080.79,-18,+127,+254
210054,9.361,0.621,2.914,0.003956,-0.007913,-0.000685,100076.95,-18,+127,+254
210064,9.360,0.649,2.914,0.002360,-0.007381,-0.002813,100076.95,-19,+127,+254
210073,9.366,0.646,2.895,0.000763,-0.008978,-0.003878,100082.72,-19,+127,+253
210083,9.372,0.628,2.909,0.000231,-0.008978,-0.003878,100080.30,-19,+127,+254
210094,9.386,0.621,2.888,0.000231,-0.008445,-0.005474,100082.94,-19,+127,+254
210104,9.365,0.639,2.858,-0.000833,-0.008978,-0.006538,100081.14,-19,+128,+255
210113,9.384,0.664,2.915,-0.000833,-0.008445,-0.006006,100081.14,-19,+127,+254
210119,9.383,0.668,2.887,-0.000301,-0.007913,-0.006006,100078.75,-19,+127,+254
210128,9.371,0.662,2.869,-0.001897,-0.008978,-0.004942,100078.75,-20,+127,+254
210139,9.396,0.701,2.867,-0.002429,-0.008978,-0.002813,100080.48,-19,+127,+254
210149,9.402,0.679,2.866,0.002360,-0.007381,-0.001217,100080.70,-19,+128,+254
210159,9.430,0.650,2.854,0.002360,-0.007913,-0.003345,100076.44,-19,+128,+254
210168,9.420,0.625,2.890,-0.001897,-0.007913,-0.005474,100081.75,-19,+128,+254
210179,9.406,0.640,2.904,-0.004558,-0.008978,-0.006538,100081.59,-19,+128,+254
210189,9.390,0.643,2.901,-0.008283,-0.010574,-0.007070,100080.23,-18,+127,+254
210198,9.376,0.650,2.872,-0.010943,-0.012170,-0.007070,100080.23,-18,+127,+254
210208,9.379,0.668,2.884,-0.009879,-0.011106,-0.007070,100077.55,-18,+127,+254
210219,9.388,0.662,2.855,-0.007218,-0.009510,-0.006006,100077.55,-19,+127,+254
210229,9.395,0.612,2.853,-0.007750,-0.007913,-0.006006,100082.91,-19,+127,+254
210239,9.383,0.608,2.845,-0.010411,-0.007913,-0.008134,100082.02,-19,+127,+254
210248,9.371,0.631,2.877,-0.013604,-0.008445,-0.009731,100079.29,-19,+127,+254
210258,9.373,0.693,2.849,-0.014136,-0.007913,-0.008134,100082.87,-19,+126,+254
210269,9.372,0.712,2.884,-0.013604,-0.007913,-0.007070,100082.87,-19,+128,+254
210279,9.364,0.695,2.866,-0.012539,-0.006849,-0.002281,100079.63,-19,+128,+254
210289,9.377,0.667,2.851,-0.014136,-0.007381,-0.002281,100078.87,-19,+127,+254
210298,9.390,0.663,2.840,-0.013604,-0.006849,-0.000685,100077.93,-19,+126,+254
210309,9.392,0.642,2.858,-0.015200,-0.005253,0.000379,100077.93,-19,+126,+254
210319,9.412,0.695,2.872,-0.015732,-0.005785,-0.000153,100077.93,-19,+126,+254
210329,9.403,0.655,2.895,-0.015732,-0.005785,0.000911,100082.55,-19,+126,+254
210338,9.382,0.656,2.877,-0.015732,-0.005785,0.000911,100082.46,-19,+127,+254
210349,9.340,0.631,2.878,-0.015200,-0.005785,0.001976,100079.29,-19,+126,+254
210354,9.347,0.610,2.858,-0.015200,-0.004721,0.001444,100079.77,-19,+126,+254
210364,9.337,0.621,2.833,-0.015732,-0.004721,0.000379,100079.77,-19,+126,+254
210374,9.340,0.631,2.788,-0.014668,-0.002060,0.001976,100081.81,-19,+126,+254
210383,9.324,0.688,2.836,-0.012539,-0.000464,0.005700,100080.17,-19,+126,+254
210394,9.353,0.658,2.827,-0.005622,0.004857,0.005700,100078.33,-19,+126,+254
210404,9.400,0.619,2.811,-0.000301,0.007518,0.005700,100078.17,-19,+126,+254
210414,9.421,0.618,2.845,0.000763,0.010710,0.003572,100078.17,-18,+127,+254
210423,9.422,0.564,2.882,0.002360,0.012307,-0.002281,100083.31,-18,+127,+254
210434,9.402,0.549,2.864,0.000231,0.012839,-0.007070,100081.42,-19,+127,+254
210444,9.336,0.582,2.879,-0.004026,0.013371,-0.011859,100081.83,-18,+127,+253
210454,9.311,0.649,2.870,-0.004558,0.013903,-0.013988,100079.25,-19,+126,+254
210463,9.289,0.657,2.884,-0.000833,0.013371,-0.012923,100079.25,-19,+126,+254
210473,9.305,0.680,2.860,0.000231,0.015499,-0.013456,100081.76,-18,+126,+254
210484,9.337,0.666,2.821,0.002360,0.018692,-0.012923,100080.38,-18,+126,+254
210494,9.346,0.622,2.825,0.004488,0.022949,-0.012391,100079.12,-19,+126,+254
210504,9.383,0.633,2.817,0.006084,0.025610,-0.013988,100081.12,-19,+126,+254
210513,9.360,0.636,2.854,0.005020,0.027206,-0.014520,100081.12,-18,+127,+254
210524,9.348,0.603,2.839,0.001295,0.030399,-0.017180,100081.66,-17,+126,+254
210534,9.356,0.657,2.863,-0.004558,0.033591,-0.017712,100081.45,-18,+127,+254
210544,9.291,0.698,2.834,-0.004026,0.037848,-0.018777,100078.61,-18,+127,+254
210553,9.342,0.662,2.835,0.006084,0.041573,-0.017712,100077.55,-17,+127,+254
210564,9.358,0.627,2.875,0.016727,0.044766,-0.019309,100077.55,-17,+127,+254
210574,9.366,0.600,2.942,0.015662,0.046362,-0.023033,100082.14,-17,+126,+254
210584,9.356,0.554,2.932,0.007681,0.045298,-0.027822,100081.14,-17,+126,+254
210593,9.274,0.547,2.773,-0.003494,0.047958,-0.034208,100080.19,-17,+127,+254
210604,9.333,0.572,2.751,-0.014668,0.050087,-0.038997,100080.45,-17,+127,+254
210614,9.403,0.628,2.859,-0.005622,0.053279,-0.042189,100080.45,-17,+126,+254
210624,9.377,0.751,2.957,0.015130,0.053811,-0.041125,100080.28,-17,+126,+254
210634,9.379,0.683,3.049,0.031094,0.052747,-0.039529,100078.97,-16,+128,+254
210643,9.366,0.603,3.011,0.025773,0.049554,-0.042722,100079.23,-16,+128,+254
210654,9.360,0.593,3.037,-0.001897,0.044233,-0.050703,100076.08,-16,+127,+254
210664,9.397,0.609,3.006,-0.031695,0.038912,-0.058153,100076.08,-16,+127,+254
210674,9.374,0.831,3.036,-0.042338,0.035720,-0.060813,100080.91,-16,+127,+254
210683,9.334,0.888,3.031,-0.029567,0.034655,-0.057089,100081.29,-15,+126,+254
210694,9.358,0.804,3.011,-0.008283,0.036252,-0.049107,100080.80,-16,+126,+255
210704,9.303,0.706,2.934,-0.004558,0.037493,-0.044318,100080.38,-16,+126,+255
210714,9.283,0.731,2.920,-0.014668,0.039444,-0.043254,100080.38,-15,+128,+254
210723,9.337,0.838,2.975,-0.014668,0.040509,-0.041657,100082.38,-15,+127,+255
210734,9.347,0.870,3.011,-0.001897,0.044233,-0.036336,100084.06,-15,+128,+255
210744,9.368,0.788,3.001,0.010873,0.046362,-0.033144,100080.75,-15,+128,+255
210754,9.383,0.698,3.018,0.017259,0.047426,-0.032611,100080.84,-15,+127,+254
210763,9.341,0.727,3.037,0.016195,0.047426,-0.034208,100080.84,-14,+127,+255
210774,9.307,0.782,3.083,0.012470,0.046362,-0.035804,100081.19,-14,+128,+255
210784,9.307,0.814,3.098,0.013534,0.044233,-0.036336,100082.41,-14,+128,+255
210794,9.329,0.786,3.055,0.014066,0.042105,-0.035804,100081.92,-14,+127,+255
210804,9.322,0.764,3.036,0.015662,0.039977,-0.035272,100080.67,-14,+128,+256
210813,9.343,0.806,3.051,0.018323,0.038912,-0.033676,100080.67,-14,+127,+256
210824,9.356,0.831,3.062,0.021516,0.037316,-0.032079,100082.64,-14,+127,+255
210834,9.359,0.826,3.085,0.023644,0.037848,-0.032079,100080.80,-14,+128,+255
210844,9.351,0.752,3.094,0.024708,0.035188,-0.032611,100081.11,-12,+128,+255
210853,9.323,0.794,3.112,0.019387,0.033591,-0.034208,100078.06,-12,+128,+255
210864,9.303,0.836,3.097,0.018855,0.031995,-0.034208,100078.06,-12,+128,+255
210874,9.307,0.842,3.054,0.024176,0.033059,-0.033144,100080.98,-12,+128,+255
210884,9.288,0.830,3.055,0.031094,0.034655,-0.029951,100080.73,-12,+128,+255
210894,9.309,0.861,3.066,0.038011,0.036252,-0.027822,100079.41,-12,+128,+255
210904,9.313,0.810,3.072,0.045461,0.037848,-0.026226,100078.09,-12,+129,+255
210914,9.321,0.801,3.071,0.047057,0.037316,-0.026226,100078.09,-12,+129,+255
210924,9.312,0.806,3.104,0.047589,0.036252,-0.025694,100082.66,-12,+128,+254
210934,9.270,0.798,3.048,0.047057,0.035720,-0.027822,100082.24,-12,+129,+254
210939,9.289,0.857,3.100,0.044396,0.035720,-0.027290,100080.87,-12,+129,+254
210949,9.291,0.906,3.080,0.048121,0.036252,-0.026758,100080.87,-11,+129,+255
210959,9.334,0.850,3.102,0.059828,0.037316,-0.024098,100082.24,-11,+129,+256
210969,9.309,0.798,3.106,0.064084,0.037848,-0.023566,100082.24,-11,+129,+256
210979,9.291,0.824,3.084,0.062488,0.039444,-0.025694,100083.36,-11,+130,+255
210990,9.289,0.806,3.056,0.062488,0.040509,-0.026226,100080.58,-11,+130,+255
210999,9.285,0.824,3.073,0.063020,0.042637,-0.028355,100077.47,-11,+130,+255
211009,9.261,0.859,3.096,0.064084,0.044766,-0.028887,100077.47,-11,+130,+255
211019,9.283,0.832,3.083,0.067809,0.046894,-0.028355,100077.47,-10,+130,+255
211028,9.273,0.850,3.082,0.068873,0.047426,-0.027290,100080.63,-10,+130,+254
211039,9.260,0.932,3.135,0.074194,0.047958,-0.024098,100078.22,-10,+131,+255
211049,9.238,0.994,3.220,0.086433,0.044233,-0.019309,100079.80,-9,+132,+255
211059,9.248,0.964,3.174,0.098139,0.040509,-0.015052,100078.80,-9,+132,+255
211068,9.299,0.880,3.193,0.102396,0.035720,-0.013456,100078.80,-10,+132,+254
211079,9.244,0.808,3.159,0.101864,0.031463,-0.016116,100084.05,-10,+132,+255
211089,9.231,0.837,3.187,0.096543,0.024545,-0.019841,100079.84,-10,+132,+254
211099,9.142,0.864,3.197,0.097075,0.017096,-0.019841,100079.50,-10,+132,+254
211109,8.954,0.590,2.957,0.098672,0.018160,-0.031015,100079.50,-9,+132,+254
211120,8.983,0.335,2.894,0.088029,0.024545,-0.049639,100080.55,-9,+133,+254
211129,9.182,0.406,2.939,0.061424,0.026142,-0.082098,100078.97,-8,+133,+254
211139,9.236,0.547,2.919,0.074194,0.034655,-0.115621,100078.97,-8,+133,+254
211149,8.967,0.460,2.638,0.118360,0.057536,-0.142226,100079.39,-9,+134,+254
211159,8.738,0.227,2.289,0.131662,0.088399,-0.173621,100078.06,-8,+134,+254
211169,9.017,0.217,2.604,0.150286,0.110747,-0.207676,100078.06,-7,+135,+253
211179,9.300,0.558,3.047,0.167846,0.122986,-0.246520,100081.05,-7,+135,+253
211189,9.445,0.748,3.493,0.181681,0.127775,-0.285896,100082.59,-7,+136,+254
211200,9.327,0.517,3.489,0.164121,0.120857,-0.322611,100078.74,-6,+137,+253
211209,9.240,0.632,3.637,0.100268,0.111279,-0.364116,100082.48,-5,+137,+254
211219,9.482,1.189,3.928,0.021516,0.072435,-0.393382,100081.41,-5,+137,+254
211229,9.662,1.624,3.939,-0.013072,0.037848,-0.399767,100080.20,-4,+138,+254
211239,9.570,1.547,3.827,-0.050851,-0.003656,-0.382740,100079.46,-4,+137,+253
211249,9.601,1.786,3.790,-0.102998,-0.044097,-0.358795,100079.46,-4,+138,+254
211259,9.487,2.047,3.639,-0.132264,-0.070702,-0.326336,100078.84,-4,+138,+254
211269,9.341,2.231,3.526,-0.140778,-0.091455,-0.276850,100078.84,-3,+138,+254
211279,9.486,2.237,3.373,-0.121622,-0.103161,-0.217254,100080.98,-4,+138,+254
211290,9.588,2.016,3.388,-0.097145,-0.113803,-0.158189,100079.13,-3,+136,+254
211299,9.538,1.652,3.309,-0.121090,-0.132959,-0.112960,100078.35,-3,+136,+254
211309,9.474,1.459,3.207,-0.171108,-0.148922,-0.086887,100079.40,-3,+136,+254
211319,9.336,1.405,3.073,-0.216337,-0.158500,-0.076244,100079.40,-4,+136,+254
211330,9.250,1.521,3.139,-0.236025,-0.159565,-0.066134,100082.97,-5,+135,+254
211339,9.179,1.521,3.217,-0.217934,-0.162757,-0.049639,100081.20,-5,+135,+254
211349,9.179,1.154,3.074,-0.195585,-0.163822,-0.041125,100077.92,-5,+134,+254
211359,9.177,0.927,3.095,-0.215805,-0.168078,-0.049107,100077.92,-6,+134,+254
211369,9.113,0.950,3.041,-0.245071,-0.173932,-0.069859,100077.92,-7,+133,+255
211379,9.102,1.096,2.989,-0.239750,-0.171271,-0.091144,100080.66,-7,+133,+255
211389,9.056,1.051,3.006,-0.212081,-0.162225,-0.110832,100079.66,-7,+132,+255
211399,9.134,0.838,2.927,-0.194521,-0.156372,-0.133712,100076.35,-8,+132,+255
211409,9.191,0.779,2.952,-0.192392,-0.150519,-0.168832,100081.55,-7,+132,+255
211419,9.130,0.880,3.001,-0.192925,-0.145198,-0.206611,100081.55,-7,+132,+255
211429,9.079,1.033,2.939,-0.190796,-0.143069,-0.238538,100082.18,-8,+131,+256
211439,9.173,1.093,2.816,-0.171640,-0.132427,-0.260887,100082.38,-8,+130,+255
211449,9.311,1.258,2.717,-0.164191,-0.127638,-0.268868,100080.80,-8,+130,+256
211460,9.403,1.372,2.738,-0.164191,-0.117528,-0.271529,100080.80,-8,+130,+256
211470,9.361,1.506,2.760,-0.156209,-0.101565,-0.268336,100081.66,-8,+130,+256
211479,9.118,1.847,2.884,-0.139714,-0.094647,-0.251841,100081.35,-9,+130,+256
211489,9.069,2.104,3.031,-0.100870,-0.084537,-0.216721,100081.35,-9,+129,+256
211500,9.176,1.899,2.985,-0.066815,-0.081345,-0.175217,100080.15,-8,+129,+256
211509,9.329,1.673,2.859,-0.081182,-0.096776,-0.138501,100080.46,-8,+128,+256
211519,9.370,1.790,2.840,-0.110448,-0.101033,-0.104978,100080.46,-9,+130,+256
211525,9.292,1.843,2.879,-0.126943,-0.096244,-0.082630,100080.74,-9,+130,+256
211534,9.221,1.970,2.915,-0.135457,-0.092519,-0.054428,100080.52,-9,+128,+256
211545,9.177,2.276,2.956,-0.123218,-0.084005,-0.012391,100080.63,-10,+128,+256
211554,9.154,2.283,3.141,-0.087567,-0.071234,0.031774,100080.59,-10,+128,+256
211564,9.106,2.015,3.119,-0.065750,-0.065381,0.068489,100080.59,-10,+128,+256
211574,9.105,1.820,2.979,-0.089163,-0.062721,0.091902,100080.77,-10,+128,+256
211585,9.116,1.635,3.009,-0.114172,-0.057932,0.104673,100080.14,-10,+126,+256
211594,9.142,1.672,2.943,-0.122154,-0.057400,0.113719,100084.45,-10,+126,+256
211604,9.245,1.797,3.046,-0.111512,-0.060592,0.131278,100080.56,-10,+126,+256
211614,9.388,1.735,3.030,-0.084906,-0.065913,0.158416,100080.56,-11,+126,+256
211624,9.397,1.650,3.015,-0.090760,-0.068574,0.182893,100083.39,-12,+124,+256
211635,9.160,1.628,3.056,-0.130668,-0.073363,0.204710,100080.92,-12,+124,+256
211644,9.019,1.808,3.027,-0.180154,-0.086666,0.229719,100081.19,-12,+124,+256
211654,9.119,1.976,3.021,-0.213145,-0.097840,0.267498,100080.81,-12,+124,+256
211664,9.185,2.119,2.922,-0.212081,-0.101565,0.315388,100080.81,-13,+123,+256
211675,9.210,2.027,3.083,-0.184943,-0.086666,0.362746,100083.31,-14,+122,+257
211684,9.425,1.742,3.013,-0.153548,-0.088262,0.410636,100084.16,-14,+122,+257
211694,9.416,1.814,3.065,-0.131200,-0.087198,0.447352,100080.47,-14,+121,+257
211704,9.512,2.070,3.327,-0.112576,-0.110078,0.502159,100081.47,-16,+120,+256
211715,9.689,2.331,3.519,-0.071604,-0.142005,0.578783,100081.47,-16,+119,+256
211725,9.761,2.411,3.535,-0.041805,-0.177124,0.678819,100081.98,-16,+119,+256
211734,9.803,2.401,3.259,-0.054576,-0.203198,0.793755,100081.71,-17,+118,+256
211744,10.077,2.356,2.895,-0.104594,-0.222886,0.927315,100080.34,-19,+117,+257
211755,11.022,2.851,3.454,-0.163659,-0.268647,1.098122,100080.40,-21,+116,+256
211760,11.839,3.323,3.660,-0.211016,-0.312280,1.258287,100080.40,-21,+116,+256
211769,12.204,3.071,2.901,-0.308392,-0.299509,1.420580,100080.40,-23,+113,+257
211779,12.233,2.046,1.458,-0.599456,-0.196812,1.605222,100081.03,-26,+110,+257
211789,12.704,1.669,1.316,-0.984172,-0.065381,1.736121,100081.66,-26,+110,+257
211800,13.976,2.242,1.518,-1.306630,-0.011638,1.823387,100082.19,-28,+103,+257
211810,16.192,2.798,2.151,-1.498722,-0.038776,1.867020,100081.28,-30,+96,+258
211819,17.166,3.571,1.674,-1.325254,0.061261,1.825516,100080.75,-30,+89,+260
211829,15.818,4.146,0.669,-1.235328,0.190031,1.802103,100082.70,-30,+89,+260
211840,13.798,3.424,0.708,-0.982575,0.270380,1.855846,100082.70,-30,+83,+261
211850,12.453,-0.505,2.910,-0.539860,0.414050,1.923424,100082.17,-30,+78,+262
211859,12.373,-6.388,6.378,-0.229108,0.543352,2.047405,100079.33,-29,+75,+262
211869,14.029,-8.487,7.305,-0.306796,0.516747,2.149571,100079.33,-29,+75,+262
211875,14.272,-8.454,8.738,-0.484521,0.516747,2.179901,100081.91,-28,+71,+263
211885,13.640,-6.494,9.292,-0.516447,0.607206,2.187350,100079.75,-26,+67,+264
211895,13.283,-3.923,7.609,-0.464833,0.659352,2.186818,100077.97,-26,+67,+264
211904,13.040,-3.232,6.603,-0.261567,0.738637,2.262378,100080.02,-24,+63,+265
211914,12.408,-4.168,6.649,-0.123218,0.797701,2.366671,100080.02,-22,+61,+266
211924,11.102,-5.093,6.469,-0.226448,0.795040,2.382102,100081.42,-19,+58,+266
211935,9.771,-4.618,6.095,-0.382888,0.780141,2.291112,100080.05,-19,+58,+266
211944,8.727,-3.682,5.336,-0.448869,0.775352,2.163938,100079.58,-17,+55,+266
211954,8.079,-3.458,4.358,-0.356814,0.775352,2.054855,100079.42,-14,+50,+267
211964,7.550,-3.850,3.268,-0.210484,0.774288,1.963332,100079.42,-11,+47,+267
211975,6.868,-4.144,2.380,-0.112576,0.755132,1.858507,100081.59,-11,+47,+267
211985,5.833,-3.780,1.618,-0.044466,0.709903,1.735057,100080.77,-8,+46,+267
211994,4.703,-3.153,1.076,0.029497,0.653499,1.616929,100080.23,-6,+45,+268
212004,3.519,-2.612,0.680,0.133259,0.599224,1.524874,100079.19,-3,+45,+268
212015,2.359,-2.187,0.472,0.268947,0.547609,1.454635,100079.19,-3,+45,+268
212025,1.328,-1.950,0.341,0.418469,0.498123,1.375883,100080.27,+0,+44,+269
212034,0.529,-1.699,0.322,0.568524,0.444912,1.278507,100079.33,+0,+45,+268
212044,0.102,-1.508,0.217,0.702084,0.387976,1.161975,100078.64,+1,+46,+268
212055,-0.087,-1.456,0.252,0.798928,0.332105,1.029480,100075.11,+1,+46,+268
212065,-0.189,-1.416,0.223,0.856928,0.268784,0.890067,100075.11,+3,+50,+269
212075,-0.220,-1.393,0.217,0.871827,0.201738,0.734691,100079.91,+3,+52,+269
212084,-0.298,-1.498,0.163,0.795203,0.116068,0.571865,100079.44,+3,+55,+269
212094,-0.476,-1.478,0.011,0.652598,0.003793,0.411168,100077.97,+3,+55,+269
212105,-0.612,-1.336,-0.069,0.516910,-0.105289,0.256324,100078.17,+4,+57,+269
212110,-0.690,-1.262,-0.049,0.433901,-0.176060,0.141921,100078.17,+3,+59,+268
212119,-0.684,-1.324,0.004,0.380690,-0.236188,0.024324,100078.17,+3,+59,+268
212129,-0.644,-1.478,0.091,0.317369,-0.308023,-0.146483,100082.27,+2,+60,+269
212140,-0.520,-1.628,0.279,0.294488,-0.372941,-0.338042,100081.05,+0,+61,+267
212150,-0.093,-1.750,0.563,0.337589,-0.427748,-0.539712,100078.01,+0,+63,+267
212160,0.537,-2.004,0.829,0.455185,-0.472445,-0.748831,100076.97,+0,+63,+267
212169,1.045,-2.227,1.197,0.548304,-0.520867,-0.976574,100080.66,-1,+65,+267
212179,1.673,-2.045,1.451,0.596726,-0.602280,-1.203785,100080.50,-3,+67,+267
212190,2.541,-1.739,1.663,0.613754,-0.704977,-1.402262,100080.50,-5,+71,+267
212200,3.499,-1.823,2.080,0.587148,-0.818849,-1.542207,100078.03,-5,+71,+267
212209,4.584,-1.822,2.825,0.560011,-0.929527,-1.627877,100077.08,-7,+75,+266
212219,6.106,-2.260,3.535,0.587680,-0.979546,-1.715675,100077.08,-10,+78,+265
212230,7.441,-3.235,4.261,0.494561,-1.011472,-1.855087,100078.99,-13,+81,+264
212240,8.442,-3.241,4.462,0.307259,-1.044463,-2.040794,100079.30,-13,+81,+264
212250,9.870,-2.504,4.635,0.209350,-1.061491,-2.248317,100079.95,-16,+85,+262
212259,11.376,-2.968,5.221,0.226910,-1.035417,-2.403161,100080.30,-19,+87,+262
212270,12.392,-4.810,5.725,0.233827,-0.961454,-2.478720,100081.00,-21,+90,+261
212280,13.026,-6.654,5.834,0.125809,-0.888023,-2.529270,100077.27,-21,+90,+261
212290,13.750,-6.411,5.349,-0.105659,-0.860885,-2.585674,100077.64,-23,+94,+261
212299,14.576,-4.595,5.274,-0.345108,-0.789583,-2.626647,100079.06,-23,+96,+260
212310,12.705,-7.067,14.162,-0.424392,-0.476170,-2.551619,100079.06,-23,+97,+261
212320,13.581,-9.960,24.979,0.804781,0.559316,-2.049308,100079.06,-23,+97,+261
212330,24.256,-6.444,4.694,0.949515,0.076160,-1.642244,100079.77,-20,+103,+260
212339,17.771,-3.358,-3.976,0.032158,0.001665,-1.108005,100082.46,-19,+105,+260
212349,17.338,16.237,-8.403,-0.262099,-0.203730,-1.929051,100080.51,-18,+106,+260
212360,25.206,15.009,-0.238,0.540323,-0.678904,-1.356501,100083.04,-18,+106,+260
212370,31.533,11.034,2.172,1.721074,-0.070702,-0.391786,100083.04,-20,+111,+259
212380,20.111,-0.494,0.922,1.547074,0.650306,0.053590,100081.66,-17,+117,+257
212389,4.711,-10.962,0.642,0.551497,0.589646,0.057315,100079.34,-16,+119,+257
212400,0.569,-5.670,1.785,-0.077457,0.339022,-0.256630,100078.77,-14,+119,+257
212410,4.890,-0.512,2.131,-0.220062,0.125646,-0.338575,100078.77,-14,+118,+258
212420,7.809,-0.810,5.185,0.053442,0.234197,-0.339107,100078.77,-13,+118,+258
212429,9.390,-0.939,6.477,-0.009879,0.205463,-0.273125,100081.65,-12,+119,+258
212440,9.449,-0.335,5.724,-0.332869,0.124582,-0.339639,100081.91,-12,+118,+259
212450,9.084,0.783,5.036,-0.460576,0.048490,-0.381675,100080.76,-12,+118,+259
212460,10.774,2.197,3.582,-0.147163,0.019047,-0.299376,100079.35,-11,+117,+259
212469,10.931,1.184,3.414,0.199240,0.137885,-0.220978,100079.35,-10,+118,+259
212480,10.114,-0.974,3.375,0.333332,0.188967,-0.166171,100081.98,-10,+118,+258
212490,9.805,-0.885,3.141,0.108250,0.170343,-0.154465,100081.77,-10,+118,+258
212500,9.567,0.553,3.417,-0.089163,0.146398,-0.139033,100080.40,-9,+120,+259
212510,9.061,0.570,3.781,-0.081714,0.163958,-0.080501,100080.04,-8,+119,+259
212519,9.034,-0.140,4.121,-0.076925,0.167683,-0.029419,100079.88,-7,+118,+260
212530,9.196,-0.123,3.984,-0.136521,0.127775,-0.004942,100084.30,-7,+118,+260
212540,9.192,0.364,4.026,-0.145567,0.108087,0.017939,100084.30,-7,+118,+259
212550,9.165,0.238,4.054,-0.083842,0.099041,0.058379,100080.04,-7,+118,+259
212559,9.179,-0.469,3.776,-0.067879,0.086802,0.082856,100081.57,-7,+118,+259
212570,9.349,-0.498,3.453,-0.124282,0.081481,0.085517,100081.57,-7,+118,+259
212580,9.299,0.359,3.345,-0.146099,0.088931,0.101480,100084.18,-6,+117,+260
212590,8.808,0.724,3.574,-0.089163,0.107022,0.141388,100078.66,-6,+116,+261
212600,8.599,0.493,3.612,-0.002429,0.140545,0.185554,100077.40,-6,+116,+261
212610,8.620,0.150,3.754,0.043332,0.173004,0.210563,100077.62,-6,+116,+261
212620,8.681,-0.273,3.740,0.050250,0.185775,0.230783,100083.58,-5,+116,+261
212630,8.685,-0.310,3.752,0.025773,0.194820,0.233443,100080.91,-5,+116,+260
212640,8.736,-0.212,3.748,0.010341,0.202270,0.224930,100079.64,-5,+116,+260
212649,8.969,-0.150,3.760,0.038543,0.225151,0.221205,100075.38,-5,+116,+260
212660,9.288,-0.685,3.716,0.034286,0.218765,0.232911,100075.38,-4,+116,+261
212670,9.519,-0.757,3.411,-0.009879,0.213444,0.241957,100075.38,-3,+116,+261
212680,9.470,-0.411,3.452,-0.066282,0.237921,0.241425,100083.66,-3,+114,+261
212689,9.175,-0.295,3.671,-0.097677,0.249096,0.259517,100080.66,-3,+114,+261
212696,9.110,-0.321,3.732,-0.103530,0.253885,0.279205,100081.30,-2,+115,+261
212705,9.403,-0.576,3.626,-0.075328,0.246967,0.288783,100078.97,-1,+114,+262
212715,9.582,-0.277,3.619,-0.044998,0.240582,0.309535,100078.97,-1,+114,+262
212725,9.386,-0.137,3.869,-0.061493,0.258674,0.346783,100081.24,-1,+114,+262
212734,9.173,-0.529,3.861,-0.118429,0.276233,0.394673,100079.09,-1,+112,+262
212745,9.214,-0.599,3.924,-0.203035,0.287408,0.434049,100080.35,+0,+112,+262
212755,9.251,-0.595,4.170,-0.305732,0.300178,0.464911,100080.45,+0,+112,+262
212765,9.171,-0.450,4.153,-0.400980,0.300710,0.494709,100080.45,+0,+111,+262
212774,9.173,-0.236,4.121,-0.444080,0.306031,0.539407,100081.63,+0,+109,+263
212785,9.152,-0.143,4.075,-0.440888,0.317206,0.600599,100079.32,+2,+106,+265
212795,9.102,-0.151,4.057,-0.431310,0.336362,0.669773,100080.26,+2,+106,+265
212805,9.011,-0.131,4.122,-0.439291,0.359242,0.728306,100079.16,+1,+104,+265
212814,8.994,-0.243,3.997,-0.459512,0.387444,0.782581,100079.16,+2,+102,+266
212825,9.137,-0.275,4.058,-0.477603,0.415114,0.837920,100081.59,+3,+100,+267
212835,9.379,-0.245,4.222,-0.480796,0.433206,0.908691,100083.10,+3,+100,+267
212845,9.449,-0.666,4.250,-0.493567,0.448637,0.977865,100081.68,+5,+98,+268
212855,9.610,-0.990,4.311,-0.539860,0.456618,1.036929,100080.21,+5,+95,+267
212865,9.889,-1.251,4.219,-0.584557,0.438527,1.078434,100080.21,+7,+91,+267
212875,10.311,-1.593,4.073,-0.622869,0.447040,1.112489,100082.21,+7,+91,+267
212885,10.824,-2.051,4.120,-0.660649,0.449701,1.135901,100082.05,+7,+89,+269
212895,11.167,-2.267,4.038,-0.698961,0.430545,1.159846,100079.63,+8,+85,+269
212904,11.362,-2.307,3.855,-0.736209,0.411921,1.172617,100078.37,+10,+82,+270
212915,11.182,-2.040,3.824,-0.767603,0.400747,1.199223,100078.37,+10,+82,+270
212925,11.102,-1.562,3.947,-0.772924,0.381059,1.241791,100082.74,+10,+78,+271
212935,11.712,-1.483,4.086,-0.751640,0.369352,1.306177,100079.43,+10,+75,+271
212944,12.282,-1.353,4.207,-0.780374,0.368288,1.360984,100080.16,+11,+71,+272
212955,11.896,-1.197,4.227,-0.852741,0.376802,1.401956,100080.01,+11,+71,+272
212965,11.109,-1.207,4.285,-0.894245,0.375738,1.459424,100080.01,+12,+67,+272
212975,11.127,-1.482,4.307,-0.924043,0.350197,1.518488,100080.93,+13,+63,+272
212985,11.669,-1.853,4.491,-1.009181,0.301775,1.551479,100082.46,+14,+57,+274
212995,12.384,-1.614,4.374,-1.171474,0.248031,1.550415,100081.41,+14,+57,+274
213005,13.036,-1.164,4.177,-1.348667,0.180453,1.536580,100077.57,+15,+53,+274
213015,13.732,-0.490,3.775,-1.520006,0.087866,1.528599,100077.57,+15,+46,+274
213025,14.113,0.616,3.382,-1.665272,0.038912,1.501993,100080.02,+16,+39,+274
213035,13.916,1.459,2.523,-1.804153,0.041041,1.482305,100079.07,+16,+39,+274
213045,13.878,2.102,1.630,-1.943034,0.022949,1.487626,100081.13,+15,+31,+274
213055,14.056,3.378,1.312,-2.036153,0.001133,1.525938,100080.87,+15,+23,+274
213065,14.236,4.811,1.662,-2.009547,0.033059,1.597241,100080.87,+16,+15,+272
213075,14.393,4.669,3.159,-1.819584,0.124582,1.757938,100081.46,+16,+15,+272
213085,14.925,2.849,5.591,-1.265126,0.305499,2.036231,100078.46,+17,+7,+273
213095,16.380,-0.736,7.104,-0.491438,0.508765,2.527901,100079.73,+20,+3,+272
213105,18.937,-2.671,6.724,-0.049787,0.635939,3.048836,100081.77,+24,+1,+272
213115,19.693,-3.129,6.906,-0.280191,0.652967,3.305313,100081.77,+28,+1,+273
213125,18.268,-1.154,7.231,-0.489310,0.550270,3.352671,100079.10,+28,+0,+273
213135,16.604,0.712,7.531,-0.415879,0.511426,3.319680,100080.62,+32,-2,+272
213145,15.021,0.996,6.644,-0.232301,0.443316,3.234542,100079.57,+37,-3,+271
213155,13.090,1.176,6.515,-0.002961,0.436398,3.029680,100078.04,+40,-4,+272
213165,11.536,-0.484,6.673,0.269479,0.465132,2.724249,100078.04,+40,-4,+272
213175,11.473,0.025,7.185,0.545112,0.460343,2.634323,100082.08,+43,-3,+272
213185,11.449,3.856,3.308,0.531277,0.380527,2.310800,100078.02,+46,-1,+272
213195,9.033,5.036,1.603,0.428580,0.334233,1.815406,100078.97,+48,+0,+272
213206,7.381,3.891,1.279,0.235956,0.154380,1.428562,100080.86,+48,+0,+272
213215,6.434,3.023,0.786,-0.005622,-0.125510,1.036397,100080.86,+48,+0,+272
213225,5.753,2.579,0.601,-0.085438,-0.275032,0.622948,100081.00,+48,-1,+271
213235,5.276,1.806,0.908,-0.100870,-0.367087,0.231847,100081.00,+46,+0,+272
213245,4.757,1.210,1.145,-0.145567,-0.521931,-0.175749,100081.95,+46,+0,+272
213255,4.356,1.260,1.379,-0.165787,-0.706573,-0.610483,100080.16,+43,-1,+271
213265,4.219,1.609,1.195,-0.024246,-0.866738,-1.038299,100080.16,+39,-1,+271
213275,4.336,1.354,0.897,0.180616,-1.015197,-1.444831,100082.80,+33,-1,+272
213280,4.405,0.819,0.574,0.304066,-1.132793,-1.734298,100080.80,+33,-1,+272
213289,4.507,0.430,0.322,0.370580,-1.248793,-2.021638,100080.80,+27,+0,+271
213300,4.702,0.188,0.154,0.405167,-1.392463,-2.411142,100078.91,+20,+0,+271
213310,5.013,0.291,0.296,0.424323,-1.521234,-2.796922,100079.06,+20,+2,+272
213320,5.205,0.397,0.612,0.465295,-1.630316,-3.149178,100077.70,+12,+4,+271
213330,5.278,0.434,1.025,0.565332,-1.708536,-3.484407,100079.23,+4,+9,+269
213341,5.552,0.424,1.479,0.713790,-1.751105,-3.807930,100072.55,-4,+14,+269
213350,5.969,0.406,1.858,0.895240,-1.776114,-4.117618,100072.33,-4,+14,+269
213360,6.609,0.263,2.277,1.079350,-1.773453,-4.407618,100072.33,-11,+21,+267
213370,7.314,0.060,2.561,1.256010,-1.764940,-4.671545,100072.33,-20,+31,+266
213381,8.074,-0.186,2.752,1.406065,-1.755362,-4.913122,100072.52,-27,+40,+264
213390,8.882,-0.369,2.987,1.526322,-1.748976,-5.137140,100075.05,-27,+40,+264
213400,9.827,-0.556,3.177,1.624230,-1.746316,-5.348920,100071.94,-32,+53,+262
213410,10.804,-0.795,3.392,1.705643,-1.745252,-5.546865,100073.36,-38,+66,+259
213421,11.814,-0.919,3.633,1.788652,-1.753233,-5.728847,100073.36,-42,+79,+256
213431,13.071,-1.053,3.892,1.921680,-1.772389,-5.892736,100072.09,-42,+79,+256
213440,14.514,-1.480,4.129,2.033955,-1.817087,-6.019910,100075.32,-44,+95,+252
213450,15.985,-2.209,4.671,2.045661,-1.885197,-6.104516,100073.20,-46,+111,+248
213460,16.875,-3.186,5.239,1.950413,-1.971931,-6.173690,100073.20,-46,+124,+243
213471,17.340,-4.009,6.132,1.770028,-2.067178,-6.254039,100074.72,-46,+124,+243
213480,18.204,-4.806,7.158,1.498120,-2.133692,-6.317892,100074.72,-45,+140,+240
213490,19.367,-5.507,7.833,1.201203,-2.186371,-6.313103,100071.98,-44,+152,+233
213500,20.487,-6.401,8.151,0.950579,-2.163490,-6.215727,100073.92,-40,+164,+229
213510,20.791,-7.664,8.797,0.745185,-2.048022,-5.997030,100072.83,-40,+164,+229
213520,19.583,-8.728,9.927,0.539258,-1.873490,-5.655947,100072.83,-37,+174,+226
213530,17.370,-8.829,11.387,0.362598,-1.567527,-5.196205,100073.98,-32,+182,+222
213540,15.518,-9.487,12.551,0.296084,-1.100335,-4.672077,100074.03,-26,+188,+221
213551,14.558,-12.584,12.078,0.090690,-0.655491,-4.085159,100077.03,-26,+188,+221
213561,13.181,-16.294,9.480,-0.276998,-0.336225,-3.393417,100077.45,-19,+192,+221
213570,12.055,-18.961,7.588,-0.660117,-0.137216,-2.514371,100078.09,-15,+194,+221
213580,10.120,-19.834,7.462,-0.822943,-0.003124,-1.396941,100078.92,-12,+192,+223
213591,9.000,-18.846,8.780,-0.771328,0.152784,-0.218318,100078.92,-12,+192,+223
213600,9.006,-16.958,10.077,-0.570723,0.364031,0.906562,100078.92,-12,+190,+225
213610,9.614,-14.092,10.358,-0.172172,0.632215,1.857442,100079.83,-14,+187,+226
213620,12.228,-3.591,7.192,0.080580,0.768435,2.327827,100079.83,-16,+185,+227
213630,16.035,20.750,-5.128,-0.040032,0.437285,1.890433,100079.73,-16,+185,+227
213640,14.820,31.448,-10.313,-0.952777,0.302839,0.750122,100079.73,-17,+184,+228
213650,6.003,3.359,-3.207,0.359937,0.976490,1.272654,100082.12,-17,+181,+229
213660,12.628,-11.560,5.739,2.198377,1.413352,2.484268,100079.96,-16,+185,+226
213670,20.298,-6.200,4.052,1.043699,0.874325,2.915809,100079.96,-16,+185,+226
213681,18.756,3.425,0.154,-0.380759,0.693407,2.170855,100083.24,-19,+183,+227
213691,14.731,4.264,2.872,0.315240,1.095682,2.335277,100079.15,-20,+182,+228
213700,13.952,1.181,6.310,1.299111,1.441554,2.822690,100079.46,-21,+183,+228
213710,10.470,-1.761,7.125,1.434267,1.538930,2.645497,100079.46,-21,+183,+228
213721,10.015,-2.629,9.743,1.233662,1.655994,2.423075,100079.46,-21,+184,+226
213730,11.003,-0.699,6.551,1.137350,1.657058,2.379442,100080.59,-19,+185,+225
213740,10.823,-2.692,3.918,0.845222,1.480398,2.266103,100079.59,-19,+185,+226
213750,9.244,-3.247,5.429,0.527552,1.324489,2.145846,100079.53,-19,+185,+226
213761,9.747,-2.114,4.495,0.205094,1.038746,1.918635,100078.33,-19,+184,+227
213771,11.022,-3.174,3.238,-0.220594,0.766838,1.776562,100078.33,-19,+182,+227
213780,11.143,-2.119,3.046,-0.562741,0.637536,1.599369,100082.50,-21,+179,+229
213790,10.669,-1.373,2.898,-0.770264,0.522068,1.406213,100079.91,-22,+175,+231
213800,10.250,-0.612,2.318,-0.864447,0.466196,1.258287,100077.50,-22,+175,+231
213811,10.157,0.300,2.043,-0.918190,0.480031,1.101314,100077.50,-23,+171,+233
213821,9.894,1.402,2.137,-0.766539,0.524196,0.969883,100081.70,-23,+166,+235
213830,9.884,1.537,2.393,-0.500484,0.584325,0.899645,100081.70,-22,+165,+236
213840,9.724,1.185,2.819,-0.254649,0.633279,0.840049,100083.28,-22,+165,+236
213851,9.488,0.837,3.055,-0.080649,0.650306,0.769810,100078.28,-21,+163,+236
213860,9.598,0.312,3.246,-0.019989,0.621040,0.699572,100081.17,-20,+162,+237
213866,9.534,0.041,3.210,-0.073732,0.581664,0.649553,100081.17,-20,+162,+237
213875,9.301,-0.157,3.098,-0.214741,0.520472,0.595810,100081.74,-19,+161,+239
213885,9.099,0.069,3.218,-0.435567,0.441187,0.523443,100082.26,-19,+159,+239
213896,9.018,0.626,3.413,-0.655860,0.376802,0.464379,100080.37,-19,+159,+239
213905,9.155,0.937,3.254,-0.833053,0.327848,0.432985,100079.41,-18,+157,+240
213915,9.037,1.359,2.854,-0.893181,0.324655,0.422875,100079.41,-18,+154,+241
213925,8.886,1.593,2.338,-0.802722,0.364563,0.448416,100081.62,-17,+150,+243
213936,9.105,1.396,1.924,-0.621805,0.425756,0.509608,100080.46,-17,+150,+243
213946,9.149,1.599,2.211,-0.405769,0.489077,0.582507,100080.20,-17,+148,+245
213955,9.243,1.342,2.647,-0.225915,0.534839,0.657535,100079.93,-16,+146,+245
213965,9.280,0.687,3.376,-0.177493,0.564105,0.693186,100079.93,-14,+145,+246
213976,9.195,-0.055,4.086,-0.317970,0.549206,0.700104,100080.23,-14,+145,+246
213986,9.034,0.114,4.222,-0.548906,0.506105,0.667113,100078.97,-14,+144,+248
213995,8.787,1.174,4.133,-0.689915,0.471518,0.647957,100079.44,-14,+141,+249
214005,8.947,1.934,3.641,-0.643622,0.461940,0.694783,100077.75,-13,+137,+250
214016,9.300,1.932,2.835,-0.485585,0.515151,0.794287,100077.75,-11,+137,+250
214026,9.658,1.480,2.632,-0.330741,0.593903,0.904966,100080.98,-11,+135,+251
214035,9.797,1.150,3.193,-0.265824,0.659352,0.998617,100079.77,-10,+134,+252
214045,9.702,0.679,3.393,-0.290301,0.711499,1.066727,100079.77,-9,+131,+253
214055,9.789,0.237,3.503,-0.361071,0.732251,1.114617,100078.61,-8,+130,+254
214066,9.600,0.202,3.892,-0.424392,0.753536,1.152929,100078.61,-8,+130,+254
214076,9.594,-0.012,4.234,-0.472814,0.758857,1.182727,100081.28,-7,+126,+254
214085,9.920,-0.638,4.060,-0.511126,0.748747,1.215186,100080.13,-6,+124,+256
214095,10.187,-1.080,4.030,-0.592539,0.746086,1.238599,100079.92,-4,+120,+257
214106,10.404,-0.899,4.074,-0.709071,0.747150,1.249773,100078.03,-4,+120,+257
214116,10.834,-0.612,4.158,-0.804319,0.743426,1.281168,100078.03,-3,+117,+258
214125,10.855,-0.017,4.352,-0.867108,0.754600,1.339167,100079.61,-1,+113,+260
214135,10.962,0.631,4.473,-0.889456,0.747150,1.432287,100081.23,+0,+109,+262
214146,12.426,0.055,3.523,-0.804319,0.722673,1.569571,100079.19,+0,+109,+262
214156,12.838,-0.374,3.200,-0.735677,0.738637,1.699406,100079.39,+0,+105,+262
214165,12.133,-0.010,3.119,-0.709603,0.763646,1.833497,100079.39,+1,+101,+263
214175,12.330,0.153,3.022,-0.627658,0.776416,1.993662,100080.13,+3,+97,+264
214185,13.016,-0.138,3.273,-0.575512,0.799297,2.158084,100079.23,+3,+97,+264
214196,13.460,-0.086,3.565,-0.642557,0.826435,2.284194,100082.23,+3,+93,+266
214206,13.831,0.061,3.458,-0.786227,0.853572,2.387956,100079.13,+5,+89,+267
214215,14.364,0.455,3.256,-0.977254,0.869004,2.493846,100079.13,+7,+83,+267
214225,15.355,1.902,3.484,-1.140080,0.818453,2.613038,100079.41,+7,+83,+267
214236,16.700,3.317,3.795,-1.232135,0.755132,2.767882,100079.35,+9,+79,+268
214246,17.709,4.007,3.778,-1.441254,0.768967,2.872176,100078.30,+11,+71,+269
214255,18.773,4.307,3.068,-1.924410,0.788123,2.853020,100078.24,+13,+62,+271
214265,20.950,6.126,1.832,-2.758226,0.673187,2.728506,100078.24,+13,+62,+271
214276,22.757,9.819,0.958,-3.791583,0.467793,2.560891,100079.98,+14,+49,+272
214286,21.926,13.374,1.586,-4.625931,0.390637,2.494378,100079.89,+15,+31,+272
214295,18.815,11.437,4.017,-4.517380,0.415114,2.695515,100078.89,+17,+12,+271
214305,17.928,3.293,6.274,-3.250427,0.491206,3.202084,100076.09,+17,+12,+271
214316,19.200,-2.349,7.422,-1.928667,0.481628,3.642138,100076.09,+21,+2,+269
214326,18.516,-2.684,7.850,-1.214043,0.482160,3.671937,100081.88,+26,-4,+270
214336,16.683,-0.061,7.504,-0.870300,0.592306,3.400028,100077.56,+30,-7,+269
214345,14.557,3.914,6.180,-0.588814,0.788655,2.996157,100078.77,+30,-7,+269
214355,10.943,6.348,3.345,-0.308392,0.753536,2.543332,100077.88,+36,-10,+269
214366,9.248,4.069,3.685,0.077919,0.502912,2.179369,100077.88,+39,-11,+269
214376,6.224,-5.081,7.629,0.705277,0.551334,1.829773,100079.17,+43,-9,+269
214385,7.514,-1.540,4.329,0.424323,0.175665,1.320011,100079.44,+43,-9,+269
214395,6.665,1.538,1.648,-0.023182,-0.055803,0.460654,100082.39,+44,-7,+269
214406,4.617,4.118,1.213,-0.102998,-0.171803,-0.312501,100076.23,+44,-6,+269
214416,4.350,3.651,0.593,-0.052980,-0.360170,-0.714244,100076.23,+42,-7,+269
214426,3.612,1.668,-0.007,0.118360,-0.527252,-1.050537,100082.88,+42,-7,+269
214435,3.039,0.136,0.065,0.308855,-0.663473,-1.379381,100081.20,+39,-5,+269
214446,2.814,-0.304,0.450,0.481258,-0.800757,-1.727913,100076.88,+36,-4,+269
214452,2.883,-0.295,0.856,0.603112,-0.902922,-2.015252,100076.67,+36,-4,+269
214461,3.109,-0.097,0.885,0.724965,-1.017858,-2.311105,100076.67,+30,+0,+268
214471,3.497,0.248,0.781,0.891515,-1.149821,-2.677729,100076.67,+26,+3,+269
214480,4.108,0.643,0.726,1.138414,-1.242940,-3.007105,100075.92,+20,+9,+268
214491,4.663,0.500,0.833,1.383185,-1.303069,-3.304554,100077.92,+20,+9,+268
214501,5.083,0.056,0.936,1.502377,-1.375968,-3.561031,100074.81,+14,+17,+267
214511,5.347,-0.113,1.230,1.559313,-1.464298,-3.794095,100074.81,+8,+25,+267
214520,5.784,-0.031,1.698,1.643918,-1.532408,-4.028756,100075.66,+2,+35,+266
214531,6.494,-0.171,2.250,1.696065,-1.589876,-4.288425,100075.66,+2,+35,+266
214541,7.241,-0.429,2.548,1.716817,-1.676610,-4.547030,100073.34,-2,+45,+265
214551,7.752,-0.700,2.739,1.676909,-1.748444,-4.793930,100074.03,-7,+55,+262
214560,8.314,-0.901,2.920,1.593368,-1.810169,-5.024865,100073.39,-11,+65,+261
214571,9.129,-1.123,2.922,1.490139,-1.875087,-5.249415,100073.39,-11,+65,+261
214581,10.163,-1.537,2.884,1.376799,-1.940004,-5.468645,100075.17,-14,+76,+257
214591,11.177,-1.859,2.815,1.269313,-2.002261,-5.679893,100072.55,-17,+87,+255
214601,12.245,-1.841,2.882,1.187900,-2.071435,-5.867195,100076.95,-19,+98,+252
214610,13.496,-1.769,3.165,1.226212,-2.088463,-6.005544,100072.29,-19,+98,+252
214621,14.619,-2.208,3.665,1.289533,-2.085802,-6.093874,100076.60,-20,+109,+248
214631,15.616,-3.057,4.406,1.286873,-2.128903,-6.167837,100073.98,-19,+119,+245
214641,17.002,-3.806,5.403,1.208120,-2.207123,-6.250314,100075.09,-17,+128,+241
214650,18.516,-4.501,6.661,1.079350,-2.274701,-6.293947,100075.09,-17,+128,+241
214661,19.903,-5.186,7.621,0.953240,-2.286407,-6.244993,100074.40,-16,+138,+238
214671,20.547,-6.057,8.545,0.873423,-2.179453,-6.074186,100074.40,-12,+146,+234
214681,20.215,-7.204,9.642,0.823937,-1.944793,-5.788975,100076.68,-9,+152,+231
214690,18.300,-8.200,10.911,0.788818,-1.596261,-5.382443,100075.27,-5,+157,+229
214701,15.909,-9.166,12.096,0.744653,-1.164720,-4.879599,100073.27,-5,+157,+229
214711,15.057,-11.021,12.078,0.574378,-0.751271,-4.312902,100078.26,+1,+162,+228
214721,14.122,-14.469,10.593,0.254580,-0.447436,-3.683417,100078.26,+6,+164,+227
214731,13.014,-18.870,9.103,-0.232301,-0.291528,-2.941656,100078.52,+9,+162,+228
214740,11.049,-20.960,9.138,-0.692576,-0.182977,-1.996096,100080.17,+9,+162,+228
214751,9.173,-19.892,10.264,-0.883603,0.006454,-0.898886,100080.75,+12,+160,+229
214761,8.876,-17.091,10.773,-0.777713,0.268784,0.282398,100080.75,+12,+155,+231
214771,11.061,-10.964,9.785,-0.382356,0.551334,1.300856,100080.75,+12,+153,+232
214780,11.831,-4.334,7.626,0.339717,0.810471,2.081993,100080.80,+12,+153,+232
214791,17.377,20.891,-5.567,0.314708,0.443316,1.987809,100078.13,+13,+152,+232
214801,13.955,21.075,-7.371,-0.201438,0.610398,1.225828,100082.53,+13,+150,+232
214811,8.635,-0.990,1.530,1.816854,1.460710,2.032506,100080.91,+16,+154,+229
214820,19.788,-4.869,2.952,2.526156,1.505407,3.146744,100080.91,+16,+154,+229
214831,23.188,-6.332,0.089,0.768598,1.131866,2.960506,100081.35,+15,+158,+229
214841,15.147,-3.311,2.761,-0.020521,1.206893,2.588561,100081.35,+16,+154,+229
214851,12.932,1.750,6.134,0.310983,1.294691,2.831735,100078.66,+16,+154,+229
214861,11.426,2.980,7.446,0.839900,1.357480,2.797680,100078.66,+16,+154,+229
214871,8.620,0.270,8.556,1.276230,1.493168,2.596011,100080.44,+16,+155,+229
214881,8.013,-1.362,9.753,1.600285,1.655462,2.477350,100080.44,+19,+158,+228
214891,10.417,-3.016,4.738,1.548138,1.501682,2.332616,100076.55,+19,+160,+226
214901,12.121,-5.137,3.696,1.056469,1.339388,2.242158,100080.81,+19,+160,+226
214910,11.520,-4.270,3.614,0.515314,1.195719,2.020268,100081.70,+21,+162,+226
214921,11.329,-5.027,2.339,-0.124282,0.929132,1.762727,100081.70,+21,+162,+226
214931,11.720,-4.403,1.591,-0.792080,0.721609,1.597773,100079.96,+21,+157,+228
214941,11.295,-2.210,2.149,-1.340153,0.630618,1.372158,100077.74,+21,+157,+228
214951,10.327,-0.244,2.726,-1.572685,0.560380,1.166232,100076.85,+20,+152,+230
214961,9.676,1.277,2.677,-1.531713,0.521004,0.987975,100076.44,+22,+146,+233
214971,9.505,2.106,2.319,-1.210851,0.547609,0.844838,100080.50,+21,+142,+234
214981,9.795,2.600,2.523,-0.779842,0.628490,0.803865,100078.02,+21,+142,+234
214991,9.735,2.298,3.424,-0.476007,0.663609,0.830471,100079.66,+23,+140,+235
215001,9.596,1.567,3.614,-0.307328,0.626894,0.830471,100079.66,+24,+138,+236
215011,9.420,1.075,3.419,-0.248264,0.580600,0.770342,100078.55,+24,+137,+237
215021,9.187,0.971,3.395,-0.259438,0.532710,0.701168,100078.55,+24,+137,+237
215031,8.885,0.843,3.519,-0.361603,0.472582,0.650617,100079.62,+26,+136,+237
215036,8.823,1.027,3.741,-0.507934,0.418839,0.613370,100079.51,+25,+134,+238
215046,8.916,1.465,3.853,-0.672355,0.370417,0.578251,100077.35,+25,+134,+238
215056,9.003,1.870,3.736,-0.843695,0.334233,0.539407,100077.77,+26,+132,+239
215066,8.942,2.084,3.388,-0.884135,0.331041,0.538342,100077.77,+27,+128,+241
215076,8.875,1.882,2.768,-0.783566,0.369352,0.568673,100081.20,+28,+125,+241
215086,8.893,1.501,2.271,-0.588282,0.434802,0.628801,100081.09,+28,+125,+241
215096,8.999,1.359,2.341,-0.377567,0.496527,0.696379,100080.25,+28,+123,+242
215106,9.102,0.953,3.125,-0.231769,0.543884,0.747994,100078.56,+29,+122,+243
215116,8.994,0.417,3.890,-0.253053,0.540692,0.757572,100078.56,+30,+120,+243
215126,8.911,0.120,4.094,-0.386613,0.493866,0.732562,100079.84,+30,+120,+243
215136,8.973,0.640,3.951,-0.496227,0.443316,0.701700,100076.88,+32,+119,+244
215146,9.172,1.138,3.629,-0.493567,0.425224,0.715003,100077.57,+33,+118,+244
215156,9.384,0.855,3.356,-0.426521,0.447573,0.765553,100080.20,+32,+116,+245
215165,9.822,0.118,2.782,-0.404704,0.458747,0.820360,100080.20,+32,+116,+245
215176,10.246,-0.156,2.669,-0.454723,0.485352,0.853883,100081.20,+33,+114,+244
215186,10.126,0.263,2.918,-0.530814,0.526857,0.868782,100076.98,+35,+112,+245
215196,9.736,0.675,3.247,-0.584557,0.565169,0.898049,100077.20,+36,+110,+246
215206,9.549,0.779,3.455,-0.598392,0.580600,0.959773,100078.66,+36,+110,+246
215216,9.537,0.706,3.554,-0.601053,0.588050,1.043314,100078.66,+37,+108,+247
215226,9.662,0.828,3.655,-0.604245,0.608802,1.125259,100079.83,+39,+105,+248
215236,10.041,0.610,3.699,-0.603181,0.630618,1.207736,100078.41,+39,+102,+248
215246,10.428,0.126,3.606,-0.618080,0.655095,1.288085,100080.63,+39,+102,+248
215256,10.551,-0.024,3.829,-0.677677,0.680105,1.357259,100082.41,+40,+100,+249
215266,10.657,0.112,4.094,-0.736741,0.692875,1.435479,100082.41,+42,+97,+250
215276,11.229,0.203,3.606,-0.773456,0.680105,1.533388,100080.43,+44,+94,+251
215286,12.197,0.288,3.301,-0.773988,0.668398,1.654709,100079.37,+44,+94,+251
215297,12.632,0.111,3.114,-0.760154,0.680105,1.783479,100081.12,+44,+91,+251
215306,12.769,-0.156,2.507,-0.750576,0.706710,1.907993,100081.85,+46,+87,+251
215316,12.779,0.019,2.309,-0.723438,0.713095,2.049002,100081.85,+48,+85,+252
215326,12.640,0.516,2.539,-0.644154,0.701921,2.219277,100081.05,+48,+85,+252
215336,12.847,0.713,2.871,-0.565401,0.702453,2.410304,100080.74,+48,+81,+253
215346,13.348,0.780,3.307,-0.576044,0.710435,2.583240,100079.01,+51,+79,+253
215356,13.732,1.119,3.537,-0.689915,0.720013,2.723185,100078.74,+51,+76,+254
215366,14.382,1.580,3.432,-0.863915,0.719481,2.851955,100078.74,+51,+76,+254
215376,15.725,2.417,3.125,-1.084741,0.662013,2.981790,100081.46,+53,+72,+255
215386,17.369,3.979,3.007,-1.382190,0.580600,3.089276,100080.41,+54,+67,+254
215396,18.658,5.151,2.344,-1.774355,0.567297,3.103643,100077.73,+56,+59,+256
215406,19.241,6.360,0.941,-2.379364,0.527389,3.030212,100078.99,+56,+59,+256
215416,19.726,8.687,0.207,-3.242446,0.402875,2.923790,100078.99,+56,+50,+256
215427,20.365,10.744,0.136,-4.071473,0.238453,2.825882,100080.48,+58,+35,+256
215436,20.250,11.933,2.141,-4.415748,0.231536,2.782249,100079.63,+60,+19,+256
215446,18.465,8.337,5.992,-3.530849,0.345940,3.031809,100078.32,+62,+7,+256
215456,18.873,2.790,8.470,-1.570557,0.492270,3.642671,100076.10,+62,+7,+256
215467,20.251,-0.444,8.673,-0.134925,0.505573,4.039093,100076.10,+67,+3,+255
215476,19.359,-2.242,7.188,0.122084,0.464068,3.947037,100080.37,+73,+2,+256
215486,17.831,0.929,5.750,0.067277,0.472582,3.633625,100076.95,+76,+1,+256
215496,15.510,5.185,5.256,0.315772,0.552398,3.207937,100081.10,+76,+1,+256
215506,11.012,6.041,4.657,0.668561,0.415114,2.650818,100079.01,+80,+2,+257
215516,8.392,1.447,4.710,1.054873,0.142142,2.254928,100079.01,+83,+4,+257
215526,6.665,-7.881,9.553,1.309221,0.220894,1.925020,100078.63,+84,+7,+258
215536,7.702,-3.593,5.809,0.959625,-0.078152,1.227957,100078.58,+84,+7,+258
215546,7.062,1.033,2.731,0.404103,-0.285143,0.378177,100078.73,+84,+7,+259
215557,4.366,3.389,2.287,0.180616,-0.368684,-0.386997,100079.78,+82,+7,+260
215566,3.597,3.098,1.163,0.063020,-0.611326,-0.753088,100079.78,+79,+4,+261
215576,3.183,1.672,0.335,0.072598,-0.834812,-1.078207,100082.13,+79,+4,+261
215586,2.786,0.389,0.078,0.143369,-0.992849,-1.407051,100079.59,+75,+2,+263
215597,2.522,-0.211,0.363,0.246066,-1.151949,-1.777932,100079.86,+69,+2,+262
215606,2.424,-0.146,0.826,0.349295,-1.286573,-2.186592,100080.97,+64,+1,+264
215616,2.649,0.315,1.309,0.440818,-1.423325,-2.584610,100080.97,+64,+1,+264
215626,2.946,0.668,1.537,0.572249,-1.551032,-2.982096,100082.57,+55,+1,+265
215636,3.585,0.856,1.729,0.750506,-1.629784,-3.358829,100077.52,+47,+3,+265
215646,4.326,0.633,1.797,0.929295,-1.690444,-3.697783,100080.37,+38,+5,+266
215656,4.592,0.286,2.025,1.094249,-1.729288,-3.991508,100074.26,+38,+5,+266
215666,4.861,0.133,2.124,1.242175,-1.772921,-4.255967,100074.26,+28,+10,+266
215676,5.460,-0.022,2.101,1.357111,-1.810701,-4.519893,100075.00,+19,+16,+267
215687,6.415,-0.297,2.084,1.417240,-1.837839,-4.780095,100074.73,+11,+23,+267
215696,7.264,-0.225,2.084,1.490139,-1.859655,-5.010498,100076.83,+11,+23,+267
215706,7.967,-0.055,2.387,1.576340,-1.857527,-5.225471,100073.31,+1,+32,+267
215716,8.839,-0.198,2.775,1.677973,-1.868169,-5.418094,100073.31,-6,+41,+266
215727,9.810,-0.793,3.100,1.725331,-1.889986,-5.602736,100076.51,-13,+52,+265
215736,10.921,-1.396,3.362,1.718946,-1.911802,-5.794296,100076.04,-13,+52,+265
215746,12.293,-1.650,3.529,1.661478,-1.962353,-5.997030,100074.04,-20,+63,+263
215756,13.876,-1.701,3.740,1.606138,-2.007050,-6.167305,100078.40,-26,+75,+261
215767,15.184,-1.923,4.133,1.594964,-2.053343,-6.292351,100078.40,-30,+89,+257
215777,16.435,-2.573,4.953,1.572083,-2.134756,-6.373231,100079.75,-30,+89,+257
215786,18.167,-3.772,5.924,1.449698,-2.252352,-6.415268,100078.28,-33,+102,+254
215796,19.934,-5.154,6.744,1.184175,-2.387508,-6.429635,100077.95,-37,+115,+249
215806,21.201,-6.401,7.434,0.783497,-2.451361,-6.387066,100077.70,-39,+125,+246
215817,21.526,-7.067,8.519,0.391864,-2.380059,-6.244461,100077.70,-39,+125,+246
215826,20.231,-6.936,10.000,0.159864,-2.131563,-6.009800,100080.45,-40,+134,+244
215836,18.089,-6.947,11.470,0.085901,-1.713325,-5.660737,100079.63,-40,+143,+241
215846,17.045,-8.940,12.563,-0.010411,-1.215270,-5.229196,100076.72,-35,+148,+239
215857,16.285,-13.051,10.863,-0.421200,-0.800225,-4.693893,100077.56,-32,+148,+239
215866,14.540,-16.981,8.744,-0.904887,-0.490005,-3.994701,100077.56,-32,+154,+239
215876,12.034,-19.261,7.100,-1.087401,-0.286739,-2.930481,100081.69,-28,+156,+239
215886,9.742,-20.115,7.520,-0.972465,-0.112739,-1.600207,100078.16,-26,+154,+241
215897,9.210,-19.044,8.493,-0.730888,0.063389,-0.201290,100079.69,-27,+151,+242
215906,9.483,-15.901,9.407,-0.288172,0.303903,1.031608,100080.78,-27,+151,+242
215916,9.960,-11.800,9.723,0.356213,0.610930,2.056983,100080.78,-28,+150,+241
215926,10.971,-4.050,9.535,0.884598,0.944563,2.623148,100077.72,-28,+150,+242
215937,14.542,17.426,-0.493,0.905350,0.734912,2.315589,100077.39,-28,+150,+241
215947,15.282,26.943,-7.221,-0.393530,0.570490,1.018837,100081.61,-28,+150,+241
215956,8.139,0.352,-0.130,0.793607,1.212746,1.573828,100077.98,-27,+148,+243
215966,16.799,-6.406,4.112,2.405899,1.368655,2.883882,100077.98,-26,+153,+241
215976,24.502,-5.514,0.713,1.044231,0.925407,3.103111,100079.73,-28,+152,+242
215987,19.519,-4.440,-1.052,-0.134925,0.953609,2.599735,100080.68,-28,+152,+242
215996,15.001,-2.089,3.414,-0.061493,1.212746,2.912084,100078.73,-28,+148,+243
216006,12.959,-0.743,6.026,0.198176,1.397388,2.936029,100077.46,-28,+145,+244
216016,9.823,-1.858,8.612,0.398249,1.505407,2.533754,100077.46,-26,+143,+245
216027,9.343,-1.585,10.889,0.635038,1.650141,2.356561,100079.16,-26,+143,+245
216037,10.688,-1.069,6.078,0.752634,1.518710,2.187882,100079.22,-23,+144,+246
216046,10.361,-2.017,4.404,0.666433,1.334600,2.043149,100077.64,-21,+144,+246
216056,9.713,-1.206,4.372,0.638763,1.241480,1.861699,100076.91,-20,+144,+246
216067,10.300,-2.395,3.096,0.477002,1.033958,1.649387,100076.91,-20,+144,+246
216077,11.436,-3.953,2.338,0.057699,0.815260,1.541901,100083.32,-18,+144,+248
216086,12.003,-2.722,2.408,-0.445145,0.653499,1.396635,100079.37,-17,+142,+248
216096,11.485,-1.044,2.722,-0.843695,0.520472,1.249241,100079.01,-17,+137,+250
216107,10.258,0.291,2.839,-1.088997,0.428417,1.123663,100078.48,-17,+137,+250
216117,9.440,1.472,2.742,-1.140080,0.367756,0.988507,100078.48,-17,+132,+252
216126,9.413,2.346,2.215,-0.926704,0.373077,0.870379,100080.89,-17,+128,+254
216136,9.737,2.373,2.178,-0.579768,0.469921,0.815039,100079.27,-17,+125,+254
216146,9.767,1.913,2.640,-0.323824,0.534839,0.814507,100078.27,-17,+125,+254
216157,9.487,1.687,3.041,-0.183879,0.553462,0.804397,100080.31,-16,+124,+255
216166,9.117,1.616,3.240,-0.097145,0.546545,0.760764,100080.31,-14,+122,+255
216176,8.704,1.365,3.371,-0.064154,0.523664,0.710214,100083.78,-13,+122,+256
216186,8.769,0.895,3.422,-0.131200,0.479499,0.674030,100079.83,-13,+122,+256
216197,8.881,0.650,3.534,-0.276998,0.424692,0.624544,100081.88,-13,+120,+257
216207,8.964,1.026,3.614,-0.436631,0.375738,0.577186,100078.30,-11,+118,+257
216216,8.916,1.599,3.473,-0.543585,0.353389,0.552177,100078.30,-12,+116,+259
216226,8.778,2.075,2.999,-0.557420,0.369352,0.560159,100081.49,-12,+116,+259
216237,8.899,1.743,2.439,-0.466961,0.412453,0.614966,100083.38,-10,+114,+259
216247,9.136,1.343,2.037,-0.326484,0.466196,0.693718,100081.54,-9,+112,+259
216256,9.386,1.203,1.974,-0.222191,0.524196,0.786838,100076.96,-8,+111,+261
216266,9.497,0.782,2.739,-0.225383,0.564105,0.861333,100076.96,-8,+111,+261
216276,9.483,0.351,3.517,-0.345640,0.576875,0.871975,100080.91,-7,+109,+261
216287,9.321,0.433,3.776,-0.504209,0.556123,0.845902,100079.44,-5,+107,+261
216297,9.256,0.432,3.813,-0.606374,0.533774,0.845370,100078.86,-5,+104,+262
216306,9.420,0.298,3.405,-0.668631,0.516215,0.858672,100078.13,-5,+104,+262
216316,9.633,0.534,3.052,-0.695768,0.540692,0.870379,100078.13,-3,+100,+264
216327,9.669,0.599,3.189,-0.710135,0.579004,0.898049,100080.43,-2,+98,+264
216337,9.781,0.402,3.165,-0.725034,0.590710,0.942214,100078.43,-1,+94,+265
216346,9.960,0.153,3.073,-0.726631,0.609334,0.995425,100077.96,+0,+91,+266
216356,9.914,0.340,3.456,-0.738337,0.645517,1.026819,100077.54,+0,+91,+266
216367,9.904,0.503,3.851,-0.730355,0.664673,1.057681,100077.54,+1,+87,+267
216377,10.214,0.083,4.037,-0.722374,0.673719,1.094929,100083.13,+3,+83,+268
216386,10.616,-0.364,3.881,-0.763878,0.685958,1.122067,100078.82,+5,+80,+269
216396,10.440,-0.218,3.651,-0.867108,0.697664,1.156122,100077.99,+5,+80,+269
216407,10.242,0.312,3.495,-0.940539,0.700325,1.231149,100076.99,+7,+76,+270
216417,10.670,0.363,2.950,-0.924576,0.675316,1.373755,100076.99,+9,+71,+270
216427,11.589,0.691,2.961,-0.849016,0.658288,1.566910,100079.99,+12,+67,+271
216436,12.210,0.982,3.116,-0.761750,0.673187,1.752085,100078.26,+12,+67,+271
216442,12.433,1.075,3.212,-0.699493,0.696600,1.891497,100078.74,+13,+64,+272
216452,12.571,0.916,3.115,-0.630851,0.713627,2.038360,100078.74,+13,+64,+272
216462,12.465,0.711,3.134,-0.566466,0.740233,2.227259,100080.73,+15,+61,+272
216472,12.909,0.936,3.599,-0.564869,0.729591,2.418818,100080.73,+18,+57,+272
216481,13.714,0.948,3.662,-0.584557,0.720013,2.603992,100080.55,+20,+54,+274
216492,14.253,0.864,3.525,-0.681401,0.753536,2.754047,100079.32,+20,+54,+274
216502,14.517,1.240,3.376,-0.874557,0.780673,2.883350,100077.93,+22,+50,+274
216512,15.229,2.100,3.164,-1.103896,0.770031,3.011588,100077.93,+25,+45,+274
216521,16.994,3.467,3.538,-1.289071,0.694472,3.151001,100077.93,+28,+38,+274
216531,18.966,4.968,3.474,-1.504575,0.621572,3.256891,100078.22,+28,+38,+274
216542,20.253,5.531,2.353,-2.060630,0.664673,3.231350,100076.58,+32,+31,+275
216552,21.551,6.695,0.709,-3.063657,0.608270,3.078102,100079.58,+33,+21,+273
216561,23.230,10.684,-0.494,-4.331674,0.355518,2.896121,100077.16,+35,+5,+272
216571,22.644,14.720,0.748,-5.164958,0.243242,2.757772,100077.16,+38,-14,+269
216582,19.655,10.957,3.485,-4.723839,0.215041,2.962634,100081.18,+38,-14,+269
216592,18.638,1.888,7.103,-2.778978,0.332105,3.557001,100079.49,+41,-28,+267
216602,21.035,-3.461,9.376,-1.193291,0.182582,4.167331,100077.45,+46,-33,+266
216611,20.257,-1.736,9.746,-0.562741,0.000068,4.207239,100077.45,+51,-35,+265
216622,18.094,4.708,8.188,0.206158,0.200142,3.948634,100080.86,+51,-35,+265
216632,15.725,7.995,5.653,1.277827,0.681701,3.593716,100080.17,+56,-31,+265
216642,10.633,7.074,5.570,1.730652,0.656692,3.076506,100080.17,+62,-25,+266
216651,7.343,1.221,4.216,1.935514,0.252288,2.623148,100080.64,+64,-17,+267
216662,5.904,-8.303,8.431,2.026505,0.244307,2.130947,100079.02,+64,-17,+267
216672,6.638,-5.606,5.812,1.805680,-0.098372,1.424837,100079.02,+67,-9,+268
216682,7.665,-0.765,1.648,1.108084,-0.484684,0.694250,100081.33,+65,-4,+269
216692,4.790,1.478,1.487,0.740396,-0.529381,-0.221510,100081.59,+62,-2,+269
216701,3.857,2.574,0.472,0.451992,-0.739032,-0.737657,100079.55,+62,-2,+269
216712,3.098,1.900,-0.131,0.384947,-0.977417,-1.070226,100080.23,+58,-1,+269
216722,2.076,0.958,0.048,0.563735,-1.145032,-1.348519,100084.80,+53,+0,+269
216732,1.383,0.026,0.564,0.774451,-1.294555,-1.708225,100081.70,+48,+2,+269
216741,1.542,-0.596,1.080,0.864377,-1.462169,-2.151473,100079.65,+48,+2,+269
216752,2.138,-0.709,1.036,0.787754,-1.646279,-2.588335,100079.65,+40,+7,+269
216762,2.802,-0.297,0.986,0.704745,-1.788353,-2.950169,100079.76,+32,+11,+269
216772,3.457,0.181,1.104,0.712194,-1.843160,-3.274224,100079.76,+24,+14,+269
216781,3.967,0.276,1.461,0.757423,-1.861252,-3.583912,100081.35,+24,+14,+269
216793,4.381,0.018,1.734,0.806378,-1.883068,-3.885086,100077.20,+15,+19,+267
216802,4.633,-0.352,1.891,0.824469,-1.878279,-4.127196,100077.20,+7,+25,+267
216812,5.053,-0.739,2.215,0.781900,-1.867105,-4.409214,100075.88,+0,+31,+266
216822,5.738,-0.840,2.283,0.704212,-1.894242,-4.696022,100075.88,+0,+31,+266
216832,6.367,-0.856,2.330,0.621203,-1.901160,-4.964205,100078.02,-8,+38,+264
216842,6.858,-0.833,2.421,0.569057,-1.878279,-5.226535,100073.20,-15,+45,+263
216852,7.479,-0.814,2.726,0.540323,-1.845288,-5.472902,100072.35,-21,+52,+261
216862,8.382,-0.880,2.859,0.555754,-1.810701,-5.708094,100072.35,-21,+52,+261
216871,9.453,-1.131,2.892,0.599919,-1.767600,-5.932644,100072.35,-26,+61,+260
216882,10.591,-1.387,2.950,0.693038,-1.726096,-6.136443,100074.34,-32,+71,+258
216892,12.025,-1.653,3.121,0.786689,-1.713857,-6.307782,100074.23,-33,+81,+255
216902,13.824,-2.067,3.517,0.834579,-1.732481,-6.414204,100073.72,-33,+81,+255
216911,14.862,-3.105,4.155,0.752634,-1.760151,-6.487103,100074.50,-36,+93,+253
216922,16.039,-3.925,5.332,0.682928,-1.804848,-6.569580,100074.50,-37,+103,+251
216932,17.985,-5.002,6.821,0.615882,-1.840499,-6.625984,100076.64,-37,+115,+248
216942,19.680,-7.162,8.291,0.461570,-1.851142,-6.558405,100076.06,-37,+115,+248
216952,20.839,-9.310,9.101,0.324818,-1.787820,-6.368443,100076.27,-36,+123,+245
216962,20.767,-10.951,9.084,0.207754,-1.646279,-6.022571,100076.27,-35,+132,+243
216972,18.990,-11.501,9.293,0.107185,-1.438224,-5.542076,100078.10,-32,+140,+241
216982,16.785,-11.076,10.300,0.158800,-1.115766,-4.962608,100077.85,-32,+140,+241
216991,14.791,-11.121,12.251,0.365259,-0.710830,-4.305985,100077.85,-29,+146,+239
217001,13.303,-12.883,12.334,0.519570,-0.350592,-3.600940,100077.05,-25,+152,+239
217012,12.340,-16.658,11.024,0.457846,-0.065381,-2.816610,100078.90,-21,+157,+237
217022,11.232,-20.087,8.870,0.166249,0.130435,-1.870519,100078.90,-17,+157,+236
217027,9.950,-20.899,8.082,-0.031163,0.271976,-1.055326,100078.90,-17,+159,+236
217037,9.088,-20.081,8.325,-0.080649,0.414050,-0.139033,100075.16,-16,+159,+238
217047,9.169,-18.067,9.200,0.044396,0.606673,1.079498,100075.34,-16,+159,+238
217057,10.841,-14.086,9.641,0.201901,0.823774,2.099020,100079.43,-15,+158,+238
217067,14.658,3.800,3.003,0.258304,0.712031,2.360818,100079.43,-16,+156,+238
217077,16.810,39.036,-8.569,-0.292429,0.343279,1.243920,100081.41,-17,+154,+240
217086,11.047,31.212,-11.896,-0.679805,0.376802,0.290911,100081.31,-17,+154,+240
217097,8.386,-6.142,3.124,2.384615,1.547976,1.828176,100083.14,-15,+154,+240
217107,19.179,-9.788,3.976,3.295055,1.461774,3.185588,100077.36,-13,+164,+236
217117,23.372,-6.788,-0.262,0.735607,0.870600,2.809387,100077.36,-15,+162,+236
217126,17.837,-1.475,1.602,-0.163126,1.033425,2.212892,100082.09,-15,+162,+236
217137,15.930,1.778,6.662,0.366323,1.372379,2.702433,100080.45,-14,+160,+237
217147,11.498,-0.295,11.101,0.897368,1.667700,2.647093,100079.25,-14,+160,+239
217157,10.295,-2.635,9.441,1.246432,1.834251,2.386892,100077.52,-10,+162,+238
217166,13.224,-3.776,3.671,1.033588,1.624067,2.358158,100077.52,-10,+162,+238
217177,10.661,-3.852,4.492,0.604176,1.472416,2.289515,100079.24,-9,+162,+238
217187,8.867,-1.336,5.379,0.435497,1.304269,2.033571,100078.24,-8,+163,+238
217197,9.890,-3.937,3.813,0.069406,0.980747,1.773901,100081.82,-7,+161,+239
217207,11.025,-3.715,2.909,-0.461108,0.730655,1.553076,100079.35,-7,+161,+239
217217,12.002,-1.798,2.427,-0.949053,0.528453,1.372158,100079.35,-8,+157,+240
217227,11.609,-0.128,2.651,-1.173603,0.425224,1.199755,100078.89,-8,+153,+243
217237,10.165,1.102,2.483,-1.234795,0.362435,1.048103,100081.11,-8,+148,+244
217247,9.461,2.239,2.278,-1.090062,0.366160,0.941149,100077.80,-8,+148,+247
217256,9.439,3.346,2.252,-0.745255,0.432141,0.887406,100077.80,-8,+144,+247
217267,9.435,2.947,2.544,-0.368521,0.525793,0.913480,100077.80,-8,+141,+248
217277,9.412,1.709,2.936,-0.168980,0.556123,0.926250,100080.76,-7,+139,+248
217287,9.559,1.168,3.206,-0.151420,0.540692,0.862929,100079.18,-7,+138,+249
217297,9.299,1.031,3.222,-0.238686,0.502380,0.775663,100079.09,-7,+138,+249
217307,8.665,0.871,3.345,-0.364264,0.452362,0.695847,100081.60,-7,+136,+249
217317,8.457,1.181,3.756,-0.514851,0.388508,0.623480,100081.60,-6,+134,+250
217327,8.582,1.915,3.977,-0.683530,0.320930,0.572397,100079.16,-5,+132,+251
217337,8.667,2.494,3.759,-0.814961,0.286875,0.534085,100080.05,-5,+132,+251
217347,8.779,2.206,3.135,-0.838906,0.289536,0.535682,100078.00,-5,+128,+253
217357,8.909,1.805,2.403,-0.750576,0.330508,0.580911,100076.64,-5,+126,+253
217367,9.188,1.594,1.911,-0.587218,0.399683,0.643700,100076.64,-4,+123,+254
217377,9.368,1.106,2.039,-0.368521,0.488722,0.727596,100079.49,-4,+123,+254
217387,9.280,0.701,2.725,-0.290833,0.538563,0.776727,100078.18,-3,+122,+256
217397,9.135,0.687,3.487,-0.352558,0.541756,0.783645,100078.07,-1,+120,+256
217407,8.896,0.998,4.042,-0.456319,0.511426,0.761296,100079.23,+0,+117,+257
217417,8.870,1.275,4.246,-0.513787,0.484288,0.744801,100079.23,+0,+117,+257
217427,8.817,1.535,4.187,-0.518044,0.482692,0.745333,100077.02,+0,+116,+258
217437,8.864,1.703,3.817,-0.446209,0.493334,0.761828,100079.66,+0,+113,+259
217447,9.312,1.058,3.345,-0.364264,0.516215,0.822489,100075.39,+2,+111,+259
217457,9.698,0.367,2.949,-0.363732,0.551334,0.883149,100077.23,+2,+111,+259
217467,9.728,0.631,2.951,-0.436631,0.605077,0.909223,100077.23,+3,+109,+260
217477,9.540,0.995,3.364,-0.495695,0.625829,0.959773,100078.86,+4,+107,+261
217487,9.686,1.258,3.346,-0.486649,0.634343,1.035865,100077.13,+6,+105,+261
217497,9.980,0.931,3.321,-0.452062,0.659884,1.123131,100074.92,+6,+105,+261
217507,10.252,0.376,3.523,-0.465897,0.697132,1.193901,100077.86,+8,+103,+262
217517,10.265,-0.125,3.592,-0.578172,0.712563,1.243388,100077.86,+9,+99,+263
217527,10.276,-0.048,3.644,-0.714924,0.723205,1.282764,100078.81,+11,+96,+263
217537,10.012,0.551,3.936,-0.789420,0.739701,1.353534,100079.44,+11,+96,+263
217547,9.893,0.946,4.157,-0.764943,0.734912,1.464213,100078.13,+12,+93,+265
217558,10.522,0.555,3.709,-0.673952,0.715224,1.617461,100077.44,+14,+89,+266
217567,11.384,0.348,3.655,-0.624998,0.710967,1.770176,100077.44,+16,+85,+266
217577,12.044,0.278,3.367,-0.631915,0.731187,1.889901,100079.90,+16,+85,+266
217587,12.511,-0.085,2.898,-0.635640,0.751939,2.009626,100075.85,+17,+82,+267
217597,12.878,-0.068,2.776,-0.620209,0.755132,2.153295,100079.52,+19,+79,+268
217607,13.179,0.353,3.078,-0.578172,0.753004,2.310800,100076.48,+21,+77,+268
217617,13.312,0.434,3.381,-0.537200,0.771095,2.467240,100076.48,+21,+77,+268
217627,13.321,0.440,3.563,-0.580301,0.782270,2.606653,100080.85,+23,+73,+269
217637,13.555,0.815,3.619,-0.683530,0.782802,2.735423,100079.27,+24,+69,+269
217648,14.608,1.890,4.115,-0.789420,0.728527,2.878029,100078.80,+27,+66,+269
217657,16.277,2.889,4.337,-0.943731,0.695536,3.024891,100077.80,+27,+66,+269
217667,18.195,2.958,3.800,-1.328447,0.759921,3.094598,100077.80,+28,+61,+270
217677,20.269,3.928,2.793,-2.036153,0.773756,3.054689,100078.80,+31,+53,+271
217688,22.298,7.785,1.862,-2.939675,0.583261,2.994561,100077.91,+33,+41,+271
217697,23.533,13.131,1.268,-3.951216,0.382655,2.940818,100077.69,+34,+41,+271
217707,22.807,15.127,1.218,-4.714261,0.286343,2.932836,100078.48,+34,+25,+271
217717,21.070,12.089,1.687,-4.823876,0.319866,2.981258,100078.48,+37,+6,+269
217728,18.288,5.212,5.576,-3.770831,0.399151,3.227625,100078.30,+40,-8,+267
217737,18.429,-0.674,7.774,-1.830226,0.368820,3.765056,100075.41,+44,-13,+267
217747,19.152,-2.468,8.667,-0.392998,0.309224,4.145514,100077.20,+44,-13,+267
217757,17.338,-0.007,7.576,0.361002,0.426288,4.050267,100078.30,+49,-13,+266
217767,15.153,4.477,4.828,0.861717,0.730655,3.594249,100078.30,+54,-9,+266
217778,12.584,6.414,2.687,1.187900,0.762582,3.006799,100082.73,+59,-5,+266
217787,8.698,2.523,3.497,1.356579,0.526325,2.359222,100078.67,+59,-5,+266
217797,6.445,-3.895,4.991,1.414579,0.364563,1.882984,100077.42,+62,+0,+267
217807,5.642,-2.965,4.616,1.134157,0.089995,1.246580,100076.20,+64,+5,+267
217818,6.620,0.733,1.082,0.627589,-0.230335,0.475553,100076.20,+64,+7,+267
217827,4.269,3.383,0.423,0.371112,-0.336757,-0.443400,100078.34,+64,+7,+267
217837,3.384,3.980,-0.087,0.149754,-0.557583,-1.052134,100080.74,+61,+8,+267
217847,2.798,2.826,-0.196,0.094947,-0.814592,-1.409712,100077.01,+58,+8,+267
217858,2.420,1.318,0.145,0.261497,-0.988060,-1.685344,100073.65,+53,+10,+267
217867,2.223,0.172,0.689,0.537662,-1.104059,-2.007271,100073.65,+53,+10,+267
217877,1.973,-0.429,1.104,0.706873,-1.228573,-2.391454,100078.49,+48,+13,+267
217887,2.388,-0.216,1.114,0.739332,-1.402573,-2.808628,100074.18,+42,+16,+266
217897,3.388,0.365,0.897,0.754763,-1.586683,-3.227398,100073.24,+35,+20,+267
217908,4.599,0.686,0.941,0.806378,-1.717582,-3.602536,100073.24,+35,+20,+267
217917,5.492,0.547,1.017,0.845222,-1.834646,-3.919141,100073.24,+27,+25,+267
217927,5.875,0.130,0.988,0.863313,-1.941068,-4.202755,100071.27,+19,+29,+266
217937,6.076,-0.115,1.065,0.864377,-2.032591,-4.456572,100069.47,+12,+35,+266
217948,6.434,-0.336,1.294,0.873955,-2.095380,-4.691764,100069.38,+12,+35,+266
217957,7.021,-0.503,1.597,0.897368,-2.146995,-4.930682,100067.47,+4,+42,+264
217963,7.535,-0.515,1.886,0.934084,-2.166151,-5.110003,100067.47,-2,+49,+263
217972,8.103,-0.480,2.074,0.987827,-2.166151,-5.285067,100067.47,-2,+49,+263
217982,9.027,-0.406,2.433,1.056469,-2.156040,-5.525580,100066.91,-9,+57,+262
217993,10.266,-0.413,2.740,1.120322,-2.158169,-5.769819,100064.81,-15,+67,+259
218003,11.584,-0.602,2.825,1.174598,-2.169343,-5.996498,100065.81,-20,+78,+257
218012,12.977,-0.727,3.025,1.243772,-2.184242,-6.208277,100064.57,-20,+78,+257
218022,14.741,-0.912,3.359,1.342744,-2.200206,-6.384938,100071.52,-24,+90,+254
218033,16.241,-1.403,3.897,1.481093,-2.209784,-6.496681,100066.90,-26,+101,+251
218042,17.590,-2.483,5.060,1.659882,-2.212444,-6.528075,100066.90,-28,+114,+248
218052,19.567,-4.132,6.539,1.795038,-2.264059,-6.503066,100065.15,-28,+114,+248
218062,21.822,-5.863,8.172,1.805680,-2.338022,-6.392920,100068.05,-29,+128,+244
218073,23.489,-7.563,9.442,1.678505,-2.322591,-6.160388,100068.05,-29,+140,+239
218083,23.302,-9.249,10.511,1.487478,-2.134756,-5.804406,100076.73,-27,+152,+234
218092,19.885,-10.584,12.073,1.248029,-1.774518,-5.410113,100072.88,-27,+152,+234
218102,16.051,-10.705,13.891,0.984634,-1.331802,-4.900884,100070.21,-24,+161,+232
218113,14.496,-12.090,14.747,0.645148,-0.867803,-4.269269,100069.41,-19,+168,+229
218123,12.708,-15.598,13.018,0.066745,-0.541619,-3.651490,100072.60,-16,+172,+228
218133,11.809,-19.627,10.717,-0.703218,-0.359106,-2.964004,100073.71,-16,+172,+228
218142,10.481,-21.350,9.530,-1.344410,-0.246299,-1.996096,100075.60,-12,+170,+230
218152,8.576,-19.987,10.328,-1.586520,-0.079748,-0.843547,100073.91,-11,+166,+231
218163,8.341,-16.889,11.378,-1.458282,0.150655,0.382434,100073.91,-11,+161,+234
218172,9.204,-13.356,12.217,-1.046961,0.460875,1.440268,100073.91,-11,+161,+234
218182,11.637,-5.774,10.413,-0.520172,0.712563,2.147442,100077.24,-12,+157,+236
218192,13.798,8.067,3.797,-0.159402,0.683829,2.262378,100077.04,-12,+154,+238
218198,16.731,28.862,-10.042,-0.181218,0.242178,1.604158,100075.93,-12,+154,+238
218208,15.144,28.310,-12.610,-0.843163,0.314013,0.816636,100081.40,-13,+152,+240
218217,8.748,1.107,-4.325,0.684524,1.011077,1.576488,100081.40,-12,+150,+239
218227,14.321,-7.305,3.218,2.741661,1.470820,2.832268,100080.09,-11,+157,+236
218237,20.038,-2.410,2.677,1.872725,1.229242,3.148341,100077.45,-11,+157,+236
218248,17.482,-1.252,-0.107,0.579167,1.106324,2.397002,100077.88,-12,+158,+236
218257,13.094,-0.802,1.919,0.407295,1.260104,2.417754,100078.36,-10,+158,+236
218267,12.564,-0.017,5.575,0.750506,1.524031,2.631662,100078.36,-10,+156,+237
218277,9.033,1.368,12.583,1.100102,1.870434,2.424139,100078.15,-10,+156,+237
218288,9.702,2.540,9.208,1.529515,1.950783,2.286323,100075.66,-7,+159,+236
218298,11.132,-1.121,3.894,1.559313,1.771462,2.358690,100078.84,-4,+162,+235
218307,8.739,-3.698,4.052,1.345937,1.684728,2.393809,100077.09,-2,+165,+235
218317,9.037,-3.315,4.414,1.006983,1.491040,2.236837,100077.09,-2,+165,+235
218328,12.696,-7.412,2.110,0.323222,1.036086,2.144249,100078.26,-1,+166,+235
218338,13.301,-6.318,2.165,-0.619144,0.849315,1.956947,100078.62,-1,+163,+236
218347,12.139,-2.890,2.435,-1.494997,0.687554,1.663222,100078.52,-3,+156,+239
218357,9.968,-0.402,2.414,-1.744557,0.563040,1.376415,100076.52,-3,+156,+239
218368,9.573,1.761,1.675,-1.385915,0.584857,1.068856,100076.52,-2,+150,+242
218378,9.910,3.206,2.148,-0.752172,0.743426,0.939553,100076.34,-2,+146,+243
218388,9.686,2.049,3.497,-0.360007,0.822710,1.037993,100077.92,+0,+143,+244
218397,9.736,0.460,3.744,-0.196649,0.777481,1.045443,100075.77,+0,+143,+244
218407,10.084,-0.089,3.346,-0.198778,0.694472,0.931571,100076.19,+0,+142,+246
218418,10.074,0.327,3.220,-0.244539,0.652967,0.795883,100076.19,+1,+141,+246
218428,9.517,0.308,3.333,-0.267420,0.618380,0.703828,100078.51,+2,+140,+246
218437,9.068,-0.342,3.660,-0.386613,0.562508,0.645296,100078.98,+2,+140,+246
218447,9.118,-0.322,4.424,-0.688851,0.474710,0.541003,100078.29,+3,+138,+248
218458,9.087,0.974,4.777,-1.017163,0.378930,0.429260,100075.35,+4,+134,+249
218468,8.837,1.709,3.985,-1.120392,0.304435,0.369131,100075.35,+4,+130,+250
218477,8.906,1.583,2.907,-0.965016,0.303903,0.372324,100079.84,+4,+130,+250
218487,9.159,1.302,2.211,-0.689915,0.340086,0.424471,100077.69,+5,+128,+252
218498,9.420,1.092,1.899,-0.389273,0.394362,0.512269,100075.27,+5,+125,+252
218508,9.640,0.443,2.572,-0.201970,0.453958,0.590489,100076.53,+7,+124,+253
218517,9.477,-0.091,3.617,-0.241347,0.469921,0.594746,100076.53,+7,+124,+253
218527,9.008,0.209,4.055,-0.408429,0.439591,0.541003,100076.81,+8,+124,+254
218537,8.746,0.551,4.290,-0.557420,0.408196,0.497902,100075.66,+8,+120,+254
218548,9.002,0.582,3.956,-0.639187,0.375560,0.495241,100073.13,+10,+118,+255
218558,9.300,0.642,3.407,-0.625530,0.367756,0.512269,100074.66,+10,+118,+255
218567,9.386,0.474,2.989,-0.559016,0.394362,0.551113,100074.66,+10,+116,+256
218577,9.368,0.328,2.836,-0.514851,0.440123,0.589957,100076.68,+10,+114,+257
218588,9.368,0.700,3.059,-0.507934,0.475242,0.635186,100076.37,+12,+111,+257
218598,9.555,0.922,3.323,-0.497291,0.502912,0.699572,100075.05,+14,+111,+257
218607,9.493,0.832,3.481,-0.485053,0.547077,0.761828,100074.01,+14,+109,+259
218617,9.487,0.797,3.611,-0.508466,0.582196,0.825682,100074.01,+14,+108,+258
218628,9.718,0.670,3.860,-0.528686,0.600820,0.890599,100075.84,+16,+105,+259
218638,9.985,0.338,3.865,-0.552099,0.625297,0.943278,100077.11,+17,+101,+261
218648,10.092,0.087,3.871,-0.613291,0.654563,0.982654,100074.69,+17,+101,+261
218657,10.315,-0.044,3.898,-0.697365,0.667866,1.026287,100077.16,+19,+99,+261
218668,10.707,0.151,3.558,-0.750044,0.651903,1.098122,100077.16,+21,+97,+261
218678,10.801,0.478,3.419,-0.756429,0.652435,1.207204,100079.48,+22,+93,+262
218688,10.855,0.649,3.061,-0.727695,0.662013,1.347149,100077.80,+22,+93,+262
218697,11.181,0.901,3.090,-0.678209,0.666802,1.520085,100076.75,+24,+90,+262
218707,11.817,0.995,3.217,-0.611695,0.672123,1.706323,100075.97,+25,+86,+264
218718,12.225,0.676,3.261,-0.579768,0.696068,1.875002,100075.97,+26,+84,+264
218728,12.459,0.241,3.058,-0.585622,0.716288,2.029846,100079.24,+26,+84,+264
218737,12.628,0.306,2.989,-0.602117,0.713627,2.181497,100078.66,+28,+81,+264
218747,12.696,0.763,3.139,-0.611163,0.710435,2.345387,100078.35,+29,+78,+264
218758,12.908,1.039,3.294,-0.620741,0.715224,2.518323,100076.24,+31,+75,+266
218768,13.259,1.136,3.197,-0.673952,0.735976,2.680084,100076.24,+31,+75,+266
218778,13.915,1.476,3.113,-0.788355,0.716288,2.835992,100079.63,+32,+71,+266
218783,14.796,2.183,3.267,-0.892117,0.660416,2.961038,100077.05,+33,+67,+266
218792,16.069,3.092,3.410,-1.045897,0.620508,3.081295,100077.05,+33,+67,+266
218803,17.879,3.530,2.949,-1.465199,0.651371,3.175478,100077.73,+35,+62,+267
218813,20.335,4.107,1.557,-2.266024,0.660416,3.140359,100074.69,+37,+52,+267
218823,22.974,8.000,1.081,-3.268519,0.486417,2.991900,100074.69,+38,+52,+267
218832,23.986,13.011,0.322,-4.284317,0.278362,2.913680,100077.16,+38,+38,+267
218843,22.089,15.069,1.218,-4.954243,0.269848,2.933368,100078.19,+39,+21,+266
218853,19.085,12.058,3.717,-4.522702,0.364563,3.085552,100075.14,+42,+3,+265
218863,18.269,3.375,7.400,-2.707675,0.541224,3.575625,100075.14,+46,-5,+263
218872,20.359,-2.472,8.589,-0.844227,0.497591,4.177973,100075.14,+46,-5,+263
218883,20.111,-3.256,8.245,-0.071071,0.468857,4.324303,100076.49,+50,-5,+262
218893,18.216,-0.344,6.299,0.176892,0.559848,4.079533,100079.16,+56,-4,+262
218903,16.557,4.337,4.670,0.637167,0.760985,3.679918,100076.74,+61,-1,+261
218912,13.072,5.471,5.070,1.070836,0.757261,3.095130,100077.59,+61,-1,+261
218923,8.070,0.739,4.507,1.063919,0.408196,2.484800,100077.59,+65,+2,+262
218933,5.958,-5.391,6.672,1.131497,0.357114,1.987277,100075.60,+67,+6,+261
218943,5.685,-3.547,6.219,1.047955,0.109683,1.293938,100077.54,+68,+10,+261
218953,6.984,0.089,2.292,0.573846,-0.231932,0.649553,100076.18,+68,+10,+261
218962,4.927,2.024,1.458,0.335460,-0.306959,-0.153932,100076.18,+68,+12,+261
218973,3.850,3.029,0.413,0.169974,-0.511289,-0.730207,100079.38,+65,+13,+260
218983,2.907,2.234,-0.250,0.134855,-0.783197,-1.069693,100079.38,+62,+13,+259
218993,1.951,0.857,-0.069,0.294488,-0.994445,-1.351179,100075.59,+62,+13,+259
219002,1.632,-0.131,0.134,0.553625,-1.137582,-1.695454,100073.02,+57,+15,+259
219013,1.948,-0.709,0.671,0.698359,-1.267949,-2.096133,100077.18,+52,+17,+258
219018,2.420,-0.852,1.043,0.713790,-1.391399,-2.397307,100077.18,+52,+17,+258
219028,2.424,-0.663,1.196,0.666965,-1.538793,-2.704334,100077.72,+46,+21,+257
219038,2.498,-0.097,1.372,0.632910,-1.718646,-3.124169,100074.20,+40,+24,+257
219047,3.268,0.480,1.353,0.670690,-1.853802,-3.520059,100075.36,+40,+24,+257
219058,4.049,0.536,1.546,0.773387,-1.939472,-3.861673,100071.00,+33,+28,+255
219068,4.390,0.272,1.844,0.885130,-2.002261,-4.162848,100071.00,+25,+32,+254
219078,4.582,-0.330,2.061,0.869166,-2.066114,-4.437948,100072.81,+19,+38,+253
219087,5.112,-0.607,2.074,0.849478,-2.137417,-4.697618,100071.72,+10,+43,+251
219098,5.903,-0.358,2.259,0.941001,-2.142205,-4.942388,100068.14,+10,+43,+251
219108,6.846,-0.193,2.586,1.129368,-2.095380,-5.161617,100070.30,+5,+51,+248
219118,7.792,-0.357,2.827,1.296451,-2.062389,-5.358498,100070.30,+0,+60,+246
219128,8.726,-0.492,3.231,1.366157,-2.052811,-5.542608,100065.38,-3,+69,+243
219133,9.354,-0.496,3.531,1.383185,-2.053343,-5.687874,100068.49,-3,+69,+243
219143,9.926,-0.369,3.776,1.415111,-2.053875,-5.849103,100068.49,-5,+78,+239
219153,11.141,0.102,4.091,1.496524,-2.078352,-6.078443,100069.18,-5,+78,+239
219163,13.277,0.071,4.607,1.579001,-2.066114,-6.262021,100067.38,-7,+89,+236
219173,14.954,-0.894,5.233,1.605606,-2.048022,-6.358864,100067.38,-7,+98,+231
219183,15.987,-1.678,5.861,1.605074,-2.076224,-6.441874,100070.08,-7,+108,+228
219193,17.971,-2.539,7.117,1.598157,-2.079417,-6.561066,100072.06,-7,+108,+228
219203,20.190,-4.508,8.039,1.474707,-2.094316,-6.584479,100069.22,-5,+116,+225
219213,21.683,-6.734,8.360,1.247496,-2.104958,-6.484974,100069.22,-4,+124,+221
219223,22.424,-8.873,8.878,0.853203,-2.070903,-6.298204,100069.22,-2,+130,+219
219233,21.116,-9.433,10.334,0.314176,-1.986297,-6.023103,100073.75,-2,+130,+219
219243,17.934,-7.895,12.342,-0.051916,-1.696298,-5.672975,100077.64,+0,+132,+219
219253,15.765,-7.697,14.139,-0.189732,-1.190793,-5.237177,100074.22,+1,+134,+218
219262,15.086,-11.107,13.398,-0.438227,-0.682629,-4.709324,100070.48,+5,+134,+218
219273,13.386,-15.695,11.047,-0.896374,-0.301638,-4.069196,100070.48,+7,+134,+219
219283,12.024,-18.727,8.082,-1.331639,-0.107950,-3.173123,100076.61,+7,+132,+219
219293,10.315,-19.994,7.178,-1.339621,0.076692,-1.964702,100073.95,+10,+128,+221
219303,9.000,-19.801,7.705,-1.075163,0.256545,-0.579620,100074.41,+10,+124,+223
219313,9.434,-17.290,8.258,-0.672888,0.456618,0.816104,100074.41,+10,+120,+223
219323,10.010,-14.296,8.557,0.060360,0.755132,2.002176,100074.88,+10,+120,+223
219333,12.444,-3.925,5.639,0.654726,0.913169,2.715203,100074.88,+11,+119,+223
219343,15.342,18.506,-3.763,0.630781,0.648178,2.352304,100075.03,+12,+118,+223
219353,15.871,37.116,-11.491,-0.209420,0.450765,0.889003,100078.77,+11,+117,+224
219363,7.982,6.134,-6.058,0.831919,1.122820,1.376415,100076.30,+11,+117,+224
219373,14.505,-11.851,2.942,2.934816,1.615021,2.718928,100076.30,+16,+121,+223
219383,22.061,-9.899,2.669,1.646579,0.987132,3.353735,100079.21,+14,+124,+221
219394,20.130,-2.277,0.752,-0.164191,0.781205,2.539075,100077.15,+14,+121,+223
219403,16.599,0.183,3.552,-0.096081,1.019058,2.527901,100077.52,+14,+121,+223
219413,14.821,0.308,6.374,0.507332,1.257976,2.902506,100075.70,+16,+119,+223
219423,10.424,-0.066,6.443,0.883001,1.397921,2.632194,100079.86,+16,+120,+223
219433,9.099,-1.073,7.246,1.067643,1.499022,2.398066,100075.45,+18,+122,+223
219443,8.262,-1.829,8.776,1.071900,1.566599,2.245350,100076.28,+18,+122,+223
219453,9.482,-2.847,5.698,0.895240,1.401113,2.046341,100076.28,+21,+124,+223
219463,12.060,-4.287,3.164,0.434965,1.166985,1.898415,100076.70,+23,+124,+223
219473,12.157,-4.386,2.889,-0.092356,0.989260,1.687167,100076.70,+25,+122,+224
219483,11.645,-3.154,2.803,-0.581365,0.781738,1.484433,100080.66,+25,+122,+224
219493,11.400,-2.040,2.918,-1.018759,0.591242,1.322672,100073.77,+24,+119,+224
219503,10.916,-0.515,2.582,-1.237988,0.446508,1.168360,100077.30,+24,+114,+227
219513,10.248,0.670,3.056,-1.258740,0.386380,1.050764,100076.62,+24,+111,+228
219524,9.507,2.077,3.060,-1.148062,0.352325,0.927847,100076.62,+24,+111,+228
219533,9.246,2.701,2.699,-0.861787,0.359242,0.851755,100079.23,+26,+108,+228
219543,9.556,2.752,2.421,-0.462172,0.435334,0.833131,100079.20,+26,+106,+229
219553,9.792,2.046,2.782,-0.168980,0.502912,0.829938,100075.09,+27,+104,+229
219563,9.740,1.524,3.199,-0.037549,0.503444,0.819828,100075.09,+27,+104,+229
219573,9.321,1.179,3.209,-0.009879,0.484288,0.766085,100075.09,+28,+104,+229
219583,8.821,0.810,3.161,-0.055108,0.458747,0.697975,100077.81,+28,+103,+230
219593,8.710,0.514,3.311,-0.193457,0.401811,0.637315,100078.50,+29,+102,+231
219603,9.037,0.780,3.241,-0.420313,0.323768,0.561933,100077.73,+29,+102,+231
219613,9.216,1.152,3.223,-0.581365,0.285279,0.508012,100077.73,+30,+101,+231
219623,9.048,1.708,3.059,-0.671291,0.270912,0.472893,100077.73,+30,+98,+231
219633,8.880,2.388,2.733,-0.646282,0.289004,0.481939,100080.00,+31,+97,+232
219643,8.770,2.363,2.428,-0.506869,0.360839,0.524507,100078.58,+31,+97,+232
219654,8.945,1.334,1.858,-0.339255,0.426820,0.605920,100077.59,+32,+94,+231
219663,9.188,0.894,2.119,-0.193989,0.499187,0.679883,100077.59,+33,+94,+233
219673,9.133,0.581,2.746,-0.185475,0.532710,0.733627,100077.41,+34,+93,+233
219683,9.086,0.403,3.557,-0.306796,0.526857,0.744801,100077.41,+34,+93,+233
219694,9.209,0.899,3.944,-0.480796,0.497591,0.723517,100076.41,+35,+91,+233
219703,9.127,1.450,3.841,-0.602117,0.477903,0.719792,100079.21,+35,+89,+234
219713,9.019,1.787,3.711,-0.603713,0.466196,0.761296,100075.37,+37,+87,+235
219723,9.398,1.709,3.200,-0.497824,0.484820,0.824085,100075.37,+39,+85,+235
219734,9.793,1.039,3.005,-0.435567,0.533242,0.897516,100079.21,+39,+85,+235
219744,9.892,0.445,2.828,-0.466961,0.565701,0.963498,100078.84,+39,+85,+235
219753,9.659,0.766,3.040,-0.546245,0.598692,1.007663,100077.48,+40,+82,+236
219763,9.403,1.013,3.386,-0.590411,0.619976,1.067259,100075.43,+43,+80,+236
219773,9.438,1.268,3.659,-0.559548,0.648178,1.133241,100079.74,+43,+80,+236
219784,9.756,0.754,3.637,-0.491438,0.669462,1.212525,100076.85,+44,+78,+237
219793,10.119,0.008,3.738,-0.484521,0.683297,1.281700,100077.16,+46,+76,+237
219803,10.197,-0.220,3.933,-0.570190,0.681701,1.320544,100077.16,+48,+73,+238
219813,10.461,-0.229,4.003,-0.684062,0.677444,1.347149,100078.21,+48,+73,+238
219823,10.613,0.018,4.012,-0.773456,0.685958,1.388654,100078.21,+49,+71,+238
219833,10.542,0.274,3.929,-0.824539,0.680637,1.470599,100079.81,+51,+69,+238
219839,10.613,0.474,4.052,-0.839970,0.676380,1.554140,100075.75,+51,+69,+238
219848,11.090,0.633,3.778,-0.818686,0.667334,1.657369,100075.33,+53,+65,+238
219858,12.291,0.275,3.170,-0.770264,0.646050,1.822855,100076.23,+53,+63,+239
219868,13.004,-0.080,2.805,-0.740466,0.662013,1.977699,100076.23,+53,+63,+239
219878,12.797,-0.048,2.562,-0.737273,0.689683,2.138928,100079.48,+55,+61,+239
219888,12.676,0.429,2.897,-0.703750,0.689683,2.316653,100077.97,+57,+57,+240
219898,13.265,0.566,3.337,-0.644686,0.677976,2.505020,100074.70,+58,+55,+240
219909,13.885,0.579,3.523,-0.657988,0.707774,2.655075,100078.06,+58,+55,+240
219918,13.971,1.250,3.742,-0.753236,0.740233,2.785974,100078.06,+61,+52,+241
219928,14.125,2.090,3.661,-0.830392,0.749811,2.934433,100079.73,+63,+50,+241
219938,15.177,3.007,4.092,-0.891585,0.726930,3.104176,100073.73,+64,+47,+241
219949,16.741,3.913,4.454,-1.038447,0.722141,3.262744,100075.16,+67,+47,+241
219958,19.003,4.126,3.886,-1.471052,0.797169,3.327662,100076.42,+67,+43,+242
219968,21.871,6.997,3.662,-2.239419,0.787591,3.244120,100076.42,+69,+37,+243
219978,23.316,11.275,2.354,-3.189767,0.632747,3.131313,100079.60,+71,+27,+243
219988,22.820,13.745,1.278,-4.143839,0.483224,3.072249,100073.18,+74,+13,+243
219999,21.916,12.829,1.875,-4.805784,0.320398,3.104176,100078.66,+74,+13,+243
220008,19.446,6.873,4.481,-4.335931,0.321463,3.324469,100076.55,+75,-3,+241
220018,18.365,-0.289,5.964,-2.665639,0.339022,3.827845,100076.55,+80,-13,+240
220028,18.827,-2.832,6.611,-1.264594,0.235261,4.119973,100080.13,+83,-16,+241
220039,16.982,-1.210,6.802,-0.541456,0.298050,4.027386,100075.44,+83,-16,+241
220048,14.415,3.124,6.114,0.016727,0.582196,3.556469,100075.19,+87,-17,+241
220058,12.317,5.862,3.957,0.484451,0.747683,2.861001,100074.55,+92,-16,+242
220068,9.303,4.525,4.629,0.815956,0.544417,2.324103,100074.55,+95,-13,+243
220079,7.539,-2.664,4.330,1.200671,0.312417,1.920763,100076.90,+95,-13,+243
220088,5.243,-6.619,6.088,1.448102,0.184710,1.446121,100076.01,+97,-10,+245
220098,7.120,-2.142,1.549,1.129900,-0.261730,0.876764,100076.21,+96,-7,+247
220108,5.186,0.364,0.671,0.875020,-0.431473,0.007829,100074.52,+94,-5,+248
220119,3.382,2.256,0.333,0.657919,-0.601748,-0.749895,100074.52,+94,-5,+248
220129,3.193,2.120,-0.060,0.496157,-0.819913,-1.153235,100076.33,+90,-5,+250
220138,2.751,1.326,0.107,0.590341,-0.967839,-1.448023,100078.80,+86,-6,+251
220148,2.316,0.364,0.620,0.881405,-1.052977,-1.740152,100076.91,+80,-5,+253
220158,2.002,-0.497,1.163,1.135221,-1.150353,-2.096133,100074.28,+80,-5,+253
220169,1.799,-0.918,1.324,1.215038,-1.303069,-2.496812,100074.28,+74,-3,+256
220178,2.254,-0.727,1.166,1.202799,-1.451527,-2.911325,100076.78,+67,-1,+257
220189,3.322,-0.234,1.171,1.203331,-1.584022,-3.333820,100074.63,+58,+1,+259
220198,3.976,-0.125,1.051,1.193753,-1.670224,-3.649362,100073.95,+58,+1,+259
220209,4.398,-0.427,0.993,1.103827,-1.742059,-3.963306,100070.84,+49,+5,+259
220218,4.837,-0.613,0.878,0.969203,-1.828793,-4.264481,100070.84,+40,+7,+261
220228,5.367,-0.541,1.124,0.861185,-1.871362,-4.548627,100072.82,+30,+11,+262
220238,6.072,-0.453,1.539,0.784561,-1.894242,-4.818939,100072.73,+30,+11,+262
220249,6.850,-0.451,1.985,0.724433,-1.915527,-5.073819,100072.04,+21,+14,+262
220259,7.581,-0.490,2.270,0.715919,-1.924573,-5.331892,100070.62,+11,+20,+262
220268,8.371,-0.646,2.365,0.734011,-1.928298,-5.580388,100070.62,+2,+25,+261
220278,9.378,-0.964,2.404,0.729222,-1.928830,-5.809195,100070.41,+2,+25,+261
220289,10.525,-1.200,2.515,0.709534,-1.940004,-6.031085,100069.10,-6,+33,+261
220299,11.706,-1.148,2.488,0.732946,-1.968738,-6.243929,100069.21,-15,+39,+259
220308,13.273,-1.052,2.707,0.813295,-1.990554,-6.420589,100069.90,-23,+49,+258
220318,15.150,-1.255,3.071,0.871827,-2.020352,-6.541378,100069.90,-23,+49,+258
220328,16.725,-1.970,3.721,0.903754,-2.060261,-6.638222,100070.67,-30,+59,+256
220339,18.578,-3.401,5.159,0.885130,-2.118793,-6.727616,100071.45,-35,+71,+253
220348,21.124,-5.259,6.389,0.787754,-2.207655,-6.740919,100070.45,-40,+82,+251
220358,23.309,-6.709,7.925,0.681864,-2.233196,-6.620130,100069.98,-40,+82,+251
220368,24.189,-7.954,9.630,0.601515,-2.135820,-6.367378,100069.98,-45,+93,+247
220379,21.576,-8.792,11.743,0.545112,-1.898499,-5.973617,100072.15,-48,+105,+244
220389,17.455,-8.553,13.239,0.593002,-1.479197,-5.511214,100070.20,-48,+114,+241
220398,15.546,-9.375,13.601,0.514781,-0.976885,-4.937067,100073.24,-48,+114,+241
220408,14.627,-12.190,11.761,0.155075,-0.558115,-4.304389,100073.30,-46,+122,+241
220419,13.112,-16.455,9.552,-0.472282,-0.294188,-3.614774,100073.30,-44,+128,+239
220429,11.295,-19.550,7.917,-1.088465,-0.195748,-2.742114,100075.70,-41,+128,+240
220438,9.062,-20.296,8.060,-1.405071,-0.095179,-1.636390,100072.49,-41,+124,+242
220448,8.187,-18.130,8.849,-1.312484,0.068710,-0.357731,100074.60,-41,+124,+242
220459,8.406,-14.489,9.196,-0.761750,0.348600,0.931571,100070.71,-41,+121,+243
220469,9.515,-11.152,9.362,0.089626,0.706178,2.051662,100070.71,-40,+118,+244
220479,12.415,-1.456,5.236,0.865442,0.828031,2.657203,100075.93,-41,+118,+244
220488,14.730,19.314,-4.388,1.291129,0.693939,2.409772,100073.98,-41,+118,+244
220498,14.060,31.418,-10.642,0.558414,0.611995,1.209333,100077.77,-40,+119,+244
220509,6.537,4.444,-4.259,1.697129,1.189866,1.615332,100077.66,-38,+121,+244
220519,12.707,-8.467,4.152,3.570688,1.673021,2.781185,100077.66,-36,+130,+242
220528,21.986,-4.366,0.770,2.558083,1.218600,3.226561,100076.15,-36,+130,+242
220539,21.100,-2.551,-2.990,0.474696,1.008771,2.421124,100078.93,-35,+132,+242
220549,13.744,-0.828,0.812,-0.079053,1.166985,2.329424,100076.62,-34,+128,+243
220559,8.478,-0.354,19.227,0.289167,1.781572,2.596011,100075.95,-31,+126,+245
220568,9.124,2.701,17.875,1.443313,2.166287,2.544928,100075.95,-31,+126,+245
220578,17.062,-2.694,0.076,1.436396,1.431444,2.339002,100076.80,-27,+129,+245
220589,13.911,-10.801,1.723,0.861717,1.537333,2.774267,100078.07,-25,+130,+246
220599,9.967,-1.997,1.806,0.683992,1.498489,2.609313,100076.29,-24,+128,+247
220609,9.062,-4.160,4.109,0.204029,1.193058,2.328892,100074.87,-24,+128,+247
220618,10.034,-4.555,3.212,-0.515383,0.857297,2.060176,100074.87,-22,+126,+248
220628,10.216,-3.176,2.171,-1.205529,0.589646,1.714305,100079.02,-22,+120,+250
220639,11.171,-0.378,3.016,-1.361438,0.485884,1.374287,100077.27,-23,+114,+251
220649,11.420,1.707,1.891,-1.069309,0.451829,1.043314,100075.60,-23,+114,+251
220658,10.314,2.523,2.367,-0.666502,0.584857,0.912415,100075.54,-21,+111,+252
220668,9.767,2.018,3.438,-0.408961,0.618912,0.977865,100075.54,-21,+109,+253
220679,9.638,0.628,3.283,-0.266356,0.563040,0.959241,100076.75,-19,+107,+254
220689,9.633,1.174,2.526,-0.141842,0.532178,0.850691,100079.75,-19,+107,+254
220698,9.628,1.102,2.915,-0.018393,0.568894,0.768214,100076.97,-19,+106,+254
220708,9.694,-0.502,3.384,-0.101402,0.539628,0.698507,100076.70,-16,+105,+255
220719,9.433,-0.694,3.317,-0.390869,0.446508,0.533553,100076.70,-16,+103,+256
220729,9.012,-0.067,3.748,-0.747383,0.341683,0.381370,100078.36,-16,+103,+256
220739,9.038,1.457,3.911,-0.914998,0.260270,0.276544,100078.41,-14,+99,+257
220748,8.946,2.011,3.155,-0.844759,0.226747,0.251003,100077.94,-14,+95,+257
220759,9.055,2.098,2.155,-0.619144,0.244307,0.290911,100076.31,-13,+93,+258
220769,9.250,1.846,1.765,-0.357879,0.301242,0.374985,100076.31,-13,+93,+258
220774,9.404,1.379,1.981,-0.192925,0.357114,0.442030,100079.02,-12,+93,+259
220783,9.392,0.905,2.535,-0.141842,0.393297,0.480342,100079.02,-11,+91,+259
220793,9.040,0.928,3.159,-0.205695,0.407132,0.484067,100077.02,-11,+91,+259
220804,8.653,1.071,3.394,-0.311053,0.396490,0.482471,100078.02,-10,+90,+261
220814,8.684,1.367,3.570,-0.383420,0.373077,0.502691,100075.13,-10,+89,+261
220824,8.999,1.583,3.351,-0.407897,0.345408,0.546856,100079.09,-8,+87,+261
220834,9.115,1.526,3.159,-0.359475,0.354453,0.615498,100076.20,-8,+87,+261
220844,9.227,1.237,3.043,-0.336594,0.363499,0.692654,100079.02,-7,+84,+261
220854,9.422,1.125,2.828,-0.338723,0.376270,0.754379,100079.02,-6,+82,+262
220864,9.536,1.160,2.877,-0.342980,0.402875,0.810250,100075.51,-5,+81,+262
220873,9.578,0.898,2.910,-0.353090,0.420967,0.871443,100075.51,-5,+81,+262
220883,9.613,0.785,2.839,-0.360007,0.448637,0.926782,100079.21,-4,+79,+263
220894,9.526,0.573,3.047,-0.377035,0.476839,0.983186,100077.96,-3,+76,+263
220904,9.376,0.642,3.219,-0.397255,0.497059,1.040654,100076.48,-1,+74,+264
220914,9.214,0.958,3.413,-0.408961,0.519407,1.100782,100074.12,-1,+74,+264
220923,8.983,1.469,3.666,-0.388741,0.546545,1.184324,100074.12,+0,+72,+264
220934,8.908,1.565,3.701,-0.299347,0.566765,1.297131,100078.41,+1,+70,+265
220944,9.183,1.095,3.642,-0.216870,0.590710,1.424305,100076.11,+2,+67,+266
220954,9.738,0.606,3.587,-0.208356,0.614655,1.537112,100075.44,+2,+67,+266
220963,10.338,0.154,3.416,-0.249328,0.634875,1.636085,100075.44,+3,+67,+266
220974,10.605,-0.000,3.276,-0.321695,0.671059,1.717497,100075.44,+5,+63,+266
220984,10.654,-0.158,3.188,-0.380227,0.694472,1.811149,100076.62,+8,+61,+267
220994,10.959,-0.111,2.971,-0.400447,0.704582,1.929809,100075.57,+8,+61,+267
221003,11.432,0.114,3.175,-0.407365,0.709903,2.071882,100075.46,+10,+59,+268
221014,11.946,0.282,3.402,-0.396191,0.730655,2.226727,100075.68,+12,+56,+268
221024,12.386,0.285,3.602,-0.421732,0.765774,2.387424,100075.68,+15,+53,+269
221034,12.681,0.334,3.928,-0.528154,0.802490,2.547589,100077.17,+15,+53,+269
221044,13.393,0.551,4.471,-0.668099,0.819517,2.713607,100076.59,+17,+49,+269
221053,14.752,0.673,5.034,-0.837842,0.813664,2.881222,100075.47,+21,+45,+269
221064,16.903,0.913,4.983,-1.078887,0.822710,3.026488,100075.47,+24,+39,+270
221074,19.762,1.993,4.231,-1.442318,0.868471,3.153130,100079.33,+27,+33,+271
221084,22.696,4.270,3.443,-1.866410,0.907848,3.312230,100079.33,+27,+33,+271
221093,25.334,7.693,2.593,-2.349033,0.901462,3.504854,100076.28,+30,+25,+270
221104,27.378,10.627,1.124,-2.830061,0.835481,3.662891,100077.22,+35,+13,+271
221114,30.093,11.040,-1.415,-3.367491,0.650306,3.639478,100078.48,+37,+0,+267
221124,29.092,10.250,-1.292,-4.006732,0.264527,3.413331,100080.19,+37,+0,+267
221133,19.830,8.023,3.132,-3.883638,0.071903,3.326065,100080.19,+40,-16,+265
221144,11.933,-0.223,5.549,-2.306997,0.032527,3.481973,100075.61,+42,-26,+263
221154,11.534,-7.729,7.146,-0.870832,0.172472,3.765056,100077.03,+47,-27,+262
221164,12.159,-7.654,7.778,0.291295,0.449701,3.683643,100075.14,+47,-27,+262
221174,11.022,-1.444,6.857,1.041570,0.681701,3.294671,100077.88,+52,-26,+264
221184,10.909,1.598,6.473,1.412451,0.594967,2.845570,100077.77,+56,-21,+265
221194,7.748,2.435,2.673,1.333698,0.262931,2.251736,100078.10,+58,-17,+266
221204,0.882,-4.261,4.094,1.142139,0.315077,1.667479,100078.10,+58,-17,+266
221214,-2.112,-5.977,5.200,1.344340,0.222490,1.188580,100074.57,+62,-13,+265
221223,0.557,-1.784,0.556,0.911735,-0.280886,0.454269,100074.57,+60,-9,+267
221234,0.375,1.247,0.025,0.481258,-0.384647,-0.441804,100080.02,+58,-8,+267
221244,0.585,3.318,0.657,0.315240,-0.483087,-0.953161,100076.17,+58,-8,+267
221254,0.251,2.920,0.540,0.342378,-0.607069,-1.286794,100076.97,+55,-7,+267
221264,-0.386,0.816,0.331,0.419534,-0.700720,-1.710886,100073.91,+50,-6,+267
221274,-0.548,-1.220,0.868,0.301405,-0.827895,-2.196702,100073.91,+46,-5,+267
221284,-0.551,-2.133,1.582,-0.018925,-1.044995,-2.664426,100076.38,+46,-5,+267
221294,-0.475,-1.757,2.070,-0.320099,-1.229105,-3.111931,100072.33,+38,-7,+267
221304,-0.295,-1.270,2.075,-0.473879,-1.234958,-3.534426,100072.38,+32,-7,+267
221314,0.299,-0.502,1.794,-0.454190,-1.161527,-3.914352,100072.38,+23,-8,+266
221324,1.557,-0.752,2.177,-0.432906,-1.103527,-4.194242,100072.38,+23,-8,+266
221334,2.569,-1.395,2.080,-0.514319,-1.134390,-4.394847,100073.93,+16,-9,+265
221344,2.890,-2.182,2.268,-0.711199,-1.088628,-4.641746,100073.04,+8,-9,+264
221353,3.197,-2.957,2.949,-0.924576,-0.914628,-4.928021,100070.04,+1,-9,+263
221360,3.452,-3.448,3.396,-1.050686,-0.761381,-5.145122,100070.62,+1,-9,+263
221369,3.949,-4.032,3.701,-1.193291,-0.620372,-5.337746,100070.62,-6,-9,+261
221379,4.950,-5.054,3.908,-1.416777,-0.445840,-5.520792,100073.71,-12,-11,+260
221389,5.982,-6.141,4.225,-1.565768,-0.233528,-5.662333,100071.38,-12,-11,+260
221399,6.821,-7.760,4.404,-1.748814,-0.014299,-5.792700,100072.45,-17,-11,+259
221409,7.415,-9.178,5.208,-2.094685,0.140545,-5.852296,100072.76,-22,-13,+257
221419,7.603,-8.873,5.770,-2.468758,0.242710,-5.877305,100072.76,-27,-17,+256
221429,8.299,-8.223,6.477,-2.844960,0.356582,-5.871984,100073.12,-27,-17,+256
221438,9.226,-8.334,6.265,-3.205198,0.478967,-5.811856,100074.85,-31,-21,+254
221449,10.244,-8.935,5.463,-3.658023,0.595499,-5.703837,100071.54,-35,-26,+251
221459,11.377,-9.513,4.415,-4.182151,0.715224,-5.527177,100074.27,-38,-34,+248
221469,12.064,-9.913,3.698,-4.692444,0.865279,-5.249948,100074.27,-38,-34,+248
221479,12.083,-9.953,3.701,-5.123454,1.027040,-4.903544,100075.12,-42,-45,+244
221489,11.686,-9.020,4.155,-5.311288,1.227113,-4.526278,100076.21,-44,-56,+239
221499,11.958,-8.030,4.366,-5.310224,1.424526,-4.130921,100075.21,-47,-67,+234
221509,13.266,-7.829,3.945,-5.392701,1.572453,-3.760572,100069.43,-47,-67,+234
221519,13.799,-7.612,3.381,-5.573618,1.645352,-3.401931,100069.43,-48,-79,+229
221529,13.481,-7.101,2.447,-5.733783,1.657058,-3.051802,100074.13,-49,-93,+221
221539,13.629,-7.331,0.446,-5.901930,1.564471,-2.687839,100074.45,-51,-107,+214
221549,13.714,-7.786,-2.362,-6.195123,1.318104,-2.310041,100074.71,-51,-107,+214
221559,13.287,-6.304,-5.552,-6.306334,0.923279,-1.962041,100075.18,-53,-120,+203
221569,13.066,-4.223,-7.685,-5.977489,0.412453,-1.611913,100075.18,-55,-134,+191
221579,11.966,-2.370,-7.934,-5.186775,-0.089858,-1.274556,100078.60,-59,-144,+180
221589,9.664,-0.907,-1.131,-3.774023,-0.203198,-0.988281,100076.91,-59,-144,+180
221599,11.468,8.435,2.575,-1.530116,-0.297913,-0.796189,100076.38,-63,-149,+173
221609,12.052,1.931,13.307,1.303368,-0.106354,-0.217254,100072.13,-64,-147,+175
221619,19.576,5.460,10.427,2.475606,-0.171803,0.059976,100072.13,-64,-141,+180
221629,35.040,11.101,-2.492,2.540523,-0.326647,0.580379,100078.61,-64,-141,+180
221639,31.469,10.321,-1.022,1.218230,0.013371,0.853351,100079.30,-62,-136,+185
221649,9.051,-4.182,0.028,-0.076393,-0.047822,1.166764,100075.30,-60,-139,+185
221659,3.655,-7.772,5.142,-0.602117,0.229940,0.786838,100076.25,-58,-142,+184
221669,3.437,-2.242,6.212,-1.217236,-0.036647,0.566544,100076.25,-58,-142,+184
221679,4.369,3.334,8.697,-1.046961,-0.186702,0.448416,100076.50,-56,-144,+181
221689,7.621,2.606,5.901,-0.311585,-0.273436,0.505351,100078.14,-56,-146,+179
221699,9.165,-0.935,5.555,0.357809,-0.132959,0.624544,100075.56,-55,-147,+180
221710,8.754,-2.443,6.698,0.387785,-0.057222,0.529651,100076.14,-54,-147,+181
221719,8.856,-2.138,7.310,-0.048191,-0.181381,0.326031,100076.14,-54,-146,+181
221729,8.762,-1.105,5.408,-0.497291,-0.389436,0.070086,100077.41,-54,-148,+180
221740,9.222,0.628,3.484,-0.531346,-0.438390,-0.079969,100076.20,-55,-149,+178
221749,9.726,1.428,3.578,-0.258906,-0.380922,-0.027822,100078.26,-55,-149,+178
221759,9.567,2.103,4.899,-0.050851,-0.311748,0.049333,100075.46,-56,-149,+178
221769,9.006,1.591,4.872,0.125277,-0.277161,0.120104,100075.46,-56,-150,+176
221779,8.991,-0.122,4.886,0.214671,-0.246831,0.173315,100075.20,-56,-150,+177
221789,8.605,-0.484,5.265,0.123149,-0.244170,0.117976,100075.62,-57,-150,+176
221799,7.812,0.297,5.580,-0.024778,-0.273436,0.033902,100075.13,-57,-150,+176
221809,7.763,1.051,5.707,-0.070539,-0.294188,-0.015584,100072.93,-57,-149,+176
221819,8.024,0.919,5.369,0.011406,-0.286739,-0.033144,100072.93,-58,-149,+176
221829,8.663,-0.097,4.862,0.103461,-0.266519,-0.033676,100078.54,-58,-148,+175
221839,8.775,-0.536,4.540,0.092818,-0.263326,-0.066666,100075.43,-58,-148,+175
221849,8.711,-0.233,4.620,0.043332,-0.270776,-0.111364,100074.16,-60,-148,+176
221859,8.645,0.221,4.700,-0.000301,-0.278757,-0.141694,100075.59,-61,-148,+175
221870,8.428,0.528,4.855,-0.025842,-0.260666,-0.163510,100075.59,-62,-148,+175
221879,8.258,0.554,4.864,-0.064154,-0.244170,-0.176813,100075.56,-62,-148,+175
221889,8.329,0.464,4.427,-0.113108,-0.219161,-0.184263,100077.72,-62,-148,+175
221899,8.736,0.760,4.359,-0.154613,-0.217032,-0.175217,100074.56,-63,-148,+174
221910,8.918,0.724,4.268,-0.166851,-0.201601,-0.141694,100075.19,-64,-148,+173
221919,8.820,0.679,4.290,-0.192925,-0.149987,-0.109767,100075.19,-64,-148,+173
221929,8.483,0.804,4.227,-0.269016,-0.119124,-0.084226,100078.30,-65,-149,+173
221939,8.432,0.820,4.142,-0.299347,-0.093051,-0.052300,100076.19,-65,-149,+172
221944,8.545,1.089,4.301,-0.332337,-0.104757,-0.025162,100076.52,-65,-149,+172
221955,8.663,0.958,4.408,-0.316906,-0.102097,-0.002281,100076.52,-65,-150,+171
221965,8.903,0.248,4.544,-0.266888,-0.078684,0.019535,100075.36,-65,-151,+170
221974,8.821,0.062,4.462,-0.242411,-0.078684,0.019003,100075.36,-65,-150,+170
221984,8.474,-0.237,4.555,-0.200906,-0.090390,0.008361,100079.46,-65,-150,+170
221995,8.321,0.020,4.473,-0.196117,-0.084537,-0.021437,100076.82,-65,-150,+168
222005,8.368,0.688,4.576,-0.219530,-0.104757,-0.062942,100075.35,-66,-153,+168
222014,9.018,0.290,4.275,-0.171640,-0.095711,-0.061877,100075.35,-67,-152,+168
222024,9.173,0.188,4.124,-0.173769,-0.086133,-0.052300,100075.35,-67,-152,+168
222034,8.875,-0.010,4.154,-0.222191,-0.064317,-0.051767,100076.18,-67,-152,+168
222045,8.716,-0.040,3.836,-0.289236,-0.037712,-0.055492,100076.07,-67,-153,+167
222054,8.381,0.467,4.060,-0.332337,-0.020684,-0.040593,100078.45,-67,-154,+167
222064,8.185,0.394,4.319,-0.362668,0.019224,-0.010795,100077.02,-67,-154,+167
222074,8.660,0.937,4.737,-0.430778,0.050619,0.002508,100077.02,-67,-154,+165
222085,8.766,1.782,5.048,-0.424924,0.028270,0.015278,100077.13,-67,-155,+164
222095,8.797,1.073,4.996,-0.316906,0.042637,0.066893,100076.70,-67,-155,+163
222104,8.654,0.303,4.773,-0.294025,0.059665,0.090838,100075.17,-67,-155,+163
222114,8.450,0.018,4.284,-0.329677,0.063389,0.075939,100075.17,-66,-156,+162
222125,8.885,0.218,4.221,-0.318503,0.066050,0.070618,100075.30,-66,-158,+163
222135,8.933,0.936,4.620,-0.270613,0.034123,0.079664,100077.52,-65,-158,+162
222144,8.909,0.460,4.567,-0.172172,0.059665,0.102012,100077.52,-65,-158,+162
222154,8.985,-0.261,4.495,-0.162594,0.070839,0.117443,100076.52,-65,-158,+162
222164,8.973,-0.049,4.236,-0.206227,0.075628,0.095627,100074.78,-65,-158,+162
222175,9.117,-0.122,4.043,-0.212081,0.085206,0.088177,100074.78,-65,-159,+161
222180,9.309,0.057,4.124,-0.226980,0.087866,0.097223,100077.30,-65,-159,+161
222189,9.187,0.527,4.513,-0.264227,0.103298,0.093499,100077.36,-62,-161,+160
222199,9.017,0.581,4.455,-0.276466,0.113940,0.098820,100075.20,-62,-161,+160
222210,9.031,0.347,4.424,-0.284447,0.129371,0.122232,100074.88,-64,-162,+160
222219,8.863,0.364,4.626,-0.316906,0.159169,0.142985,100074.88,-63,-162,+159
222229,8.858,0.225,4.701,-0.371181,0.183114,0.152031,100076.09,-62,-162,+158
222239,8.908,-0.192,4.486,-0.428649,0.197481,0.149902,100077.18,-61,-164,+158
222249,8.966,-0.030,4.602,-0.482392,0.218765,0.138196,100076.76,-61,-164,+158
222260,8.733,0.340,4.814,-0.494099,0.228343,0.124361,100075.24,-61,-165,+156
222269,8.754,-0.206,4.598,-0.453658,0.258674,0.124893,100075.24,-60,-166,+157
222279,8.751,-0.532,4.462,-0.471218,0.265059,0.106269,100076.95,-60,-167,+155
222289,8.702,-0.852,4.102,-0.487713,0.252820,0.077535,100075.64,-60,-167,+155
222295,8.940,-1.326,3.911,-0.487713,0.250692,0.062104,100076.22,-58,-168,+155
222304,9.062,-1.475,3.824,-0.518576,0.254949,0.042948,100076.22,-58,-168,+155
222314,8.790,-0.093,4.594,-0.578704,0.270912,0.003040,100075.64,-57,-169,+152
222324,8.717,0.576,4.999,-0.512723,0.269316,0.006765,100075.64,-57,-170,+152
222334,9.022,-0.818,5.084,-0.421200,0.321463,0.017407,100076.49,-56,-171,+151
222345,8.820,-1.616,4.985,-0.553695,0.340086,-0.024630,100075.96,-56,-171,+151
222355,8.554,-1.335,4.747,-0.760154,0.332105,-0.093804,100075.80,-56,-173,+150
222364,8.383,-0.432,4.331,-0.865511,0.361903,-0.138501,100075.80,-56,-174,+148
222374,8.169,1.605,5.368,-0.816557,0.348068,-0.130520,100075.80,-55,-174,+146
222385,8.345,2.039,5.924,-0.551567,0.325719,-0.024098,100076.72,-55,-174,+146
222394,8.799,0.029,5.786,-0.342447,0.392765,0.051462,100078.05,-55,-176,+147
222404,8.641,-0.657,5.508,-0.416943,0.400215,0.037095,100077.05,-54,-176,+145
222414,8.382,-0.412,4.990,-0.532943,0.394894,0.004104,100075.78,-53,-177,+145
222425,9.001,0.069,4.890,-0.554227,0.407132,0.007297,100075.78,-52,-177,+143
222435,9.197,0.527,4.948,-0.501016,0.417774,0.037095,100077.74,-52,-179,+143
222445,9.080,0.272,4.813,-0.398851,0.451829,0.083388,100076.95,-51,-179,+143
222454,9.014,0.017,4.661,-0.330209,0.487481,0.127554,100074.37,-51,-180,+143
222465,8.878,0.588,4.968,-0.285512,0.503976,0.160012,100074.08,-49,-181,+142
222475,9.202,0.039,4.906,-0.198246,0.528985,0.213223,100076.23,-49,-181,+142
222485,9.258,-0.928,4.898,-0.211548,0.581664,0.238232,100074.81,-47,-182,+142
222494,9.031,-0.942,5.056,-0.344044,0.621040,0.221205,100074.81,-45,-181,+143
222504,9.190,-0.846,4.886,-0.452594,0.639664,0.208434,100073.17,-43,-184,+142
222515,9.301,-0.846,4.773,-0.521768,0.670527,0.200985,100074.75,-43,-184,+142
222524,9.382,-0.591,4.989,-0.561145,0.659352,0.199388,100074.75,-42,-185,+140
222530,9.479,-0.848,4.694,-0.555823,0.649774,0.205774,100076.33,-42,-185,+140
222539,9.516,-0.988,4.598,-0.562741,0.682765,0.208966,100076.75,-40,-186,+139
222550,9.437,-0.858,4.922,-0.609567,0.710435,0.207370,100076.55,-38,-188,+139
222560,9.282,-1.070,4.941,-0.675016,0.733848,0.195132,100076.97,-36,-189,+138
222569,9.333,-1.352,5.047,-0.793144,0.766838,0.165865,100076.97,-36,-189,+138
222579,9.471,-0.814,5.422,-0.933621,0.776949,0.131810,100076.82,-35,-190,+136
222589,9.725,-0.186,6.029,-1.035786,0.768967,0.115315,100077.24,-33,-192,+133
222600,10.027,0.121,6.530,-1.137951,0.755132,0.098820,100077.51,-32,-192,+132
222610,10.302,-0.199,6.371,-1.321529,0.751407,0.081792,100074.40,-32,-192,+132
222619,10.203,-0.187,5.444,-1.596630,0.747683,0.036563,100074.40,-30,-196,+128
222629,10.769,-0.093,4.418,-1.858428,0.710967,0.034434,100077.58,-28,-198,+124
222640,11.720,0.399,3.696,-2.042538,0.665738,0.071682,100075.16,-27,-201,+118
222650,12.450,0.569,2.882,-2.218134,0.635939,0.131278,100076.89,-27,-201,+118
222659,13.588,0.508,1.896,-2.461841,0.608802,0.185021,100077.31,-25,-204,+112
222669,14.354,-0.079,0.652,-2.801327,0.550802,0.218544,100077.31,-23,-208,+103
222680,14.028,-0.936,-0.412,-3.216904,0.495462,0.199388,100078.28,-23,-211,+94
222690,13.457,-1.128,-1.172,-3.635143,0.488013,0.114251,100077.55,-21,-214,+84
222699,13.798,-0.863,-1.386,-3.975693,0.496527,0.018471,100075.61,-21,-214,+84
222709,13.652,-0.283,-0.671,-4.100206,0.517811,-0.021437,100077.70,-20,-218,+71
222720,14.617,-1.231,-0.097,-3.935253,0.520472,0.087645,100077.70,-20,-221,+57
222730,16.175,-2.953,0.947,-3.710702,0.447040,0.526636,100075.96,-16,-220,+46
222740,15.884,-1.042,3.349,-3.622372,0.396490,0.893792,100078.01,-16,-220,+46
222749,15.493,2.030,6.570,-3.199877,0.624765,1.188580,100076.27,-13,-223,+36
222759,15.458,3.109,8.894,-2.478868,0.963719,1.528599,100076.07,-6,-224,+28
222766,14.686,2.612,9.329,-1.846722,1.222324,1.683975,100076.07,-6,-224,+28
222775,13.016,1.281,8.709,-1.308759,1.496893,1.661626,100076.07,+0,-224,+24
222785,12.421,-0.969,6.848,-0.925108,1.729425,1.512635,100078.86,+5,-226,+21
222794,14.171,-7.842,7.234,-1.223621,1.671425,1.561589,100074.17,+5,-226,+21
222804,14.957,-8.302,4.442,-1.912703,1.487847,1.455167,100075.44,+12,-226,+16
222815,14.281,-2.391,1.650,-2.648079,1.301609,1.084287,100077.10,+16,-226,+9
222825,11.026,1.885,1.585,-2.962556,1.147829,0.700636,100080.20,+19,-225,+0
222835,8.483,4.102,1.649,-2.864116,0.946159,0.412764,100080.09,+19,-225,+0
222844,7.172,3.925,2.094,-2.565070,0.775884,0.198856,100080.09,+19,-224,-9
222855,6.088,2.976,2.696,-2.248465,0.648178,-0.069859,100080.04,+19,-222,-17
222865,5.278,2.125,1.716,-2.042006,0.476307,-0.401896,100073.95,+19,-221,-24
222874,4.711,2.170,0.728,-1.939309,0.292729,-0.782886,100073.95,+16,-221,-24
222880,4.432,2.813,0.200,-1.897804,0.136820,-1.086189,100078.36,+16,-220,-29
222889,4.339,3.885,-0.341,-1.792979,-0.003124,-1.403326,100076.94,+12,-217,-35
222900,4.450,4.823,-1.063,-1.603015,-0.162757,-1.817308,100076.94,+12,-217,-35
222910,4.687,4.785,-1.270,-1.402942,-0.310152,-2.201491,100075.89,+5,-215,-41
222919,5.084,4.428,-1.382,-1.248098,-0.470317,-2.579289,100075.89,-2,-212,-45
222929,5.683,4.047,-1.441,-1.142740,-0.630482,-2.969325,100078.62,-11,-208,-49
222940,6.307,3.619,-1.502,-1.037915,-0.779473,-3.349784,100073.40,-11,-208,-49
222950,6.875,3.019,-1.363,-0.899566,-0.891748,-3.687673,100074.77,-22,-206,-52
222960,7.458,2.331,-0.889,-0.747915,-0.997105,-3.985123,100074.66,-33,-200,-56
222969,7.924,1.494,-0.432,-0.627658,-1.110445,-4.266077,100074.66,-46,-195,-59
222980,8.192,0.797,0.188,-0.544649,-1.220592,-4.541177,100076.11,-46,-195,-59
222990,8.636,0.429,0.934,-0.446741,-1.315839,-4.809893,100072.02,-58,-189,-63
223000,9.171,0.430,1.800,-0.290833,-1.390689,-5.058920,100071.22,-71,-182,-66
223009,9.505,0.511,2.564,-0.089695,-1.419600,-5.226535,100070.84,-84,-172,-68
223020,10.011,0.378,3.248,0.183809,-1.427050,-5.373929,100070.84,-84,-172,-68
223030,10.785,0.067,3.686,0.439222,-1.425986,-5.502168,100071.80,-97,-164,-71
223040,11.757,-0.392,4.026,0.612690,-1.436628,-5.620828,100071.45,-110,-154,-71
223049,12.726,-0.870,4.288,0.690910,-1.474940,-5.728847,100069.76,-122,-142,-73
223059,13.451,-1.174,4.528,0.701552,-1.523894,-5.822498,100069.29,-122,-142,-73
223070,14.211,-1.392,4.637,0.697295,-1.564334,-5.900718,100069.29,-134,-130,-76
223080,15.113,-1.815,4.725,0.667497,-1.593600,-5.966700,100073.32,-144,-117,-77
223090,16.138,-2.459,4.805,0.617479,-1.613821,-6.000222,100071.90,-154,-103,-81
223099,17.202,-3.461,4.717,0.621735,-1.627123,-5.994369,100069.43,-154,-103,-81
223110,18.310,-4.885,5.186,0.639295,-1.629784,-5.912424,100073.59,-162,-87,-84
223115,18.859,-6.179,6.372,0.633974,-1.608500,-5.755984,100073.59,-168,-71,-88
223125,18.869,-7.214,7.848,0.726029,-1.543582,-5.502700,100073.59,-168,-71,-88
223135,18.399,-8.192,9.807,0.914396,-1.327546,-5.079672,100075.55,-173,-57,-91
223144,16.291,-9.097,11.333,1.136818,-0.940702,-4.581086,100074.39,-178,-45,-93
223155,14.145,-10.630,11.579,1.286341,-0.492665,-4.069196,100071.44,-179,-35,-93
223165,13.332,-14.143,10.384,1.178854,-0.139344,-3.438646,100074.34,-179,-35,-93
223175,12.468,-17.979,8.185,0.956965,0.112876,-2.636757,100077.66,-183,-27,-92
223185,11.906,-20.866,7.145,0.695167,0.313481,-1.624152,100076.14,-185,-22,-91
223195,10.276,-21.487,7.938,0.620139,0.557719,-0.447657,100076.14,-186,-22,-89
223205,9.904,-19.023,7.902,0.725497,0.706178,0.786838,100075.56,-186,-22,-89
223215,12.049,-13.618,5.977,1.059662,0.796104,1.922360,100076.97,-186,-28,-85
223224,16.919,14.400,-4.587,0.832451,0.416178,2.133607,100076.97,-186,-36,-82
223235,13.016,26.070,-6.024,-0.131732,0.451829,1.409406,100079.13,-185,-40,-82
223245,6.516,7.791,1.021,1.585918,1.279260,1.776562,100077.82,-185,-40,-82
223255,17.093,-5.975,2.244,2.609165,1.525095,2.789699,100075.98,-185,-51,-73
223265,20.813,-10.805,1.044,0.919185,1.164857,2.966891,100074.82,-184,-63,-69
223275,15.650,-3.478,6.474,-0.438759,1.269150,2.516194,100080.36,-183,-70,-65
223285,14.834,4.146,15.620,-0.225915,1.634709,2.660928,100075.78,-183,-70,-65
223295,13.676,3.661,11.648,0.653130,1.834783,2.813643,100076.89,-180,-79,-59
223305,11.092,-2.871,0.780,0.906414,1.585755,2.791295,100077.89,-178,-89,-54
223314,6.838,-3.561,3.863,0.702084,1.544251,2.807258,100077.89,-175,-98,-48
223325,7.093,-0.927,6.013,0.699956,1.391003,2.558763,100077.89,-175,-98,-48
223335,10.603,-5.606,3.338,0.387075,1.008948,2.369864,100077.66,-171,-106,-42
223345,13.243,-6.612,0.958,-0.262099,0.763646,2.215552,100078.61,-168,-112,-42
223354,12.498,-3.022,2.245,-0.816025,0.706710,1.896819,100077.88,-165,-118,-40
223365,10.375,-0.952,2.985,-0.945328,0.625297,1.617461,100079.23,-162,-120,-41
223375,9.348,0.109,2.773,-0.883071,0.576875,1.399828,100079.23,-162,-120,-41
223385,9.257,1.013,2.525,-0.632447,0.602417,1.198690,100077.79,-160,-124,-41
223395,9.670,1.577,2.678,-0.248796,0.685426,1.091736,100077.20,-158,-126,-39
223405,10.109,0.846,3.422,-0.018393,0.735444,1.055021,100073.85,-156,-130,-38
223415,9.931,-0.395,3.420,-0.015200,0.677976,0.976269,100073.85,-156,-130,-38
223425,9.629,-0.277,3.686,-0.142374,0.615719,0.826746,100073.85,-155,-132,-36
223435,9.327,0.533,3.997,-0.295090,0.538563,0.695315,100079.25,-154,-133,-36
223444,9.011,0.749,4.044,-0.429713,0.472050,0.614966,100079.83,-154,-134,-35
223455,8.943,0.472,3.983,-0.574447,0.424160,0.543663,100076.50,-154,-134,-35
223465,8.967,0.721,3.795,-0.714924,0.374141,0.474489,100077.25,-152,-135,-36
223475,9.094,1.482,3.558,-0.732484,0.348068,0.430856,100077.25,-151,-136,-36
223485,9.067,1.677,3.122,-0.598924,0.351261,0.428728,100079.35,-151,-136,-36
223495,9.166,1.189,2.742,-0.400980,0.375738,0.467040,100077.20,-151,-136,-36
223505,9.316,0.824,2.541,-0.205695,0.424160,0.502159,100077.15,-151,-138,-36
223515,9.280,0.871,2.652,-0.037016,0.465664,0.534085,100075.23,-150,-139,-35
223525,9.353,0.711,3.185,0.053974,0.488545,0.579847,100078.34,-149,-141,-34
223535,9.154,0.287,3.999,-0.031695,0.489609,0.581975,100077.07,-149,-141,-34
223545,8.866,0.011,4.366,-0.239750,0.457683,0.545792,100077.07,-147,-142,-33
223555,8.813,0.619,3.997,-0.416943,0.403407,0.507480,100076.87,-147,-142,-33
223565,9.042,1.215,3.587,-0.422796,0.388508,0.523975,100075.76,-146,-144,-33
223575,9.470,0.852,3.146,-0.342447,0.408196,0.594214,100075.76,-146,-144,-33
223586,9.906,-0.025,3.026,-0.340142,0.445089,0.656648,100076.60,-145,-146,-33
223595,9.877,-0.156,3.092,-0.453658,0.466729,0.682012,100076.60,-144,-146,-33
223605,9.633,0.634,3.234,-0.553163,0.491206,0.689994,100076.65,-143,-148,-33
223616,9.464,1.227,3.691,-0.559016,0.523132,0.738948,100074.65,-143,-148,-33
223625,9.501,1.114,3.812,-0.529750,0.557719,0.815039,100078.39,-140,-148,-33
223635,9.632,1.003,3.832,-0.535603,0.591242,0.896984,100075.88,-140,-151,-33
223645,9.698,0.640,4.000,-0.570723,0.609334,0.971480,100074.08,-138,-152,-32
223655,9.922,-0.105,3.778,-0.607970,0.629554,1.031608,100076.23,-138,-152,-32
223665,10.289,-0.320,3.763,-0.675016,0.657224,1.066195,100076.23,-135,-155,-33
223675,10.373,-0.186,3.814,-0.740998,0.658288,1.110360,100076.23,-132,-156,-33
223685,10.313,0.008,3.763,-0.783034,0.675316,1.174213,100079.77,-130,-160,-34
223695,10.538,0.430,3.696,-0.795273,0.677444,1.260415,100078.02,-130,-160,-34
223705,11.298,0.421,3.592,-0.759622,0.666270,1.367901,100078.35,-128,-162,-34
223715,11.993,-0.048,3.359,-0.722906,0.693407,1.481241,100076.09,-124,-164,-34
223725,12.087,0.151,3.284,-0.726631,0.716288,1.598837,100076.09,-121,-168,-34
223735,11.990,0.600,3.124,-0.685126,0.724270,1.730800,100077.28,-121,-168,-34
223746,11.995,0.582,3.238,-0.605842,0.753536,1.895222,100077.59,-116,-170,-34
223755,12.451,0.628,3.514,-0.563805,0.764710,2.053791,100075.28,-111,-174,-34
223765,13.149,0.640,3.503,-0.564337,0.771627,2.205974,100075.28,-105,-178,-34
223775,13.309,0.916,3.452,-0.620741,0.796637,2.344323,100078.20,-105,-178,-34
223785,13.045,1.507,3.443,-0.710667,0.822178,2.485332,100078.20,-99,-182,-34
223795,13.379,1.849,3.499,-0.805383,0.821646,2.630598,100076.41,-92,-186,-35
223805,14.368,2.391,3.577,-0.902759,0.785462,2.774800,100079.68,-84,-191,-36
223815,15.812,3.521,3.902,-1.075695,0.730123,2.903038,100075.10,-76,-193,-38
223825,17.260,4.399,3.273,-1.476373,0.727462,2.957313,100075.10,-76,-193,-38
223836,18.599,4.045,1.996,-2.209621,0.719481,2.897185,100079.41,-67,-196,-43
223845,20.780,4.924,0.270,-3.307363,0.500784,2.751919,100076.14,-58,-197,-52
223855,22.507,9.347,0.440,-4.530151,0.295389,2.505020,100078.14,-51,-193,-67
223865,21.254,12.720,1.862,-5.228279,0.256013,2.403919,100077.91,-51,-193,-67
223876,18.065,10.828,4.901,-4.606243,0.315609,2.732763,100074.45,-43,-188,-81
223885,18.477,5.222,7.280,-2.634244,0.410857,3.423974,100077.98,-33,-188,-88
223895,21.142,0.918,7.798,-0.738337,0.476839,3.973111,100077.98,-21,-190,-89
223905,20.230,-1.524,7.288,-0.036484,0.476307,4.050267,100074.13,-21,-190,-89
223916,17.869,-0.090,5.740,0.022580,0.509297,3.842744,100079.40,-9,-193,-88
223925,15.739,4.418,4.746,0.250855,0.669462,3.420249,100079.40,+0,-196,-86
223936,10.878,6.701,2.616,0.577570,0.653676,2.758127,100079.52,+8,-198,-85
223945,8.706,3.755,2.976,0.939937,0.436398,2.365075,100079.52,+8,-198,-85
223955,6.865,-5.474,6.878,1.341148,0.362967,2.018140,100077.63,+13,-201,-81
223966,7.296,-3.553,4.622,1.045295,0.027738,1.395571,100076.94,+18,-204,-78
223975,7.423,0.593,1.042,0.464763,-0.271308,0.561755,100076.94,+19,-204,-76
223985,5.006,3.486,0.839,0.301405,-0.354849,-0.308244,100078.38,+19,-204,-76
223995,4.385,3.525,0.395,0.284910,-0.586849,-0.740850,100076.67,+18,-205,-75
224006,3.540,1.818,0.045,0.429644,-0.824702,-1.098427,100074.25,+16,-205,-75
224015,2.932,0.212,0.122,0.622800,-1.006151,-1.454941,100074.25,+12,-205,-72
224025,2.792,-0.590,0.382,0.743589,-1.183876,-1.830078,100074.25,+12,-205,-72
224035,3.017,-0.682,0.478,0.764873,-1.377032,-2.258427,100080.07,+8,-206,-71
224046,3.650,-0.145,0.417,0.739864,-1.579233,-2.706463,100078.85,+1,-206,-69
224055,4.408,0.314,0.205,0.708469,-1.755362,-3.107674,100077.85,-6,-204,-67
224065,4.916,0.338,0.224,0.718047,-1.887325,-3.457802,100078.07,-6,-204,-67
224075,5.235,0.098,0.325,0.746249,-2.007050,-3.765362,100078.07,-15,-204,-67
224086,5.575,-0.316,0.607,0.768066,-2.093784,-4.041526,100075.07,-25,-202,-66
224096,5.875,-0.643,1.072,0.760084,-2.162958,-4.306517,100073.66,-36,-198,-66
224105,6.243,-0.690,1.432,0.766469,-2.237453,-4.584279,100071.65,-36,-198,-66
224115,6.878,-0.741,1.694,0.804249,-2.271508,-4.854590,100071.65,-49,-194,-66
224125,7.535,-0.812,1.919,0.860653,-2.262462,-5.100957,100075.77,-60,-189,-67
224135,8.165,-0.755,2.321,0.926102,-2.231068,-5.339874,100075.77,-74,-182,-67
224145,9.160,-0.657,2.543,1.030928,-2.203398,-5.572406,100072.13,-74,-182,-67
224155,10.420,-0.919,2.635,1.185240,-2.177857,-5.787378,100073.08,-87,-174,-67
224165,12.038,-1.423,2.739,1.321460,-2.173600,-5.991177,100073.08,-101,-165,-68
224171,13.429,-1.796,3.102,1.337423,-2.190628,-6.123140,100073.08,-101,-165,-68
224181,14.613,-2.040,3.507,1.308157,-2.223086,-6.218388,100073.05,-114,-155,-67
224190,15.528,-2.126,4.063,1.288469,-2.270444,-6.312571,100069.38,-126,-142,-71
224200,16.516,-2.466,4.936,1.315074,-2.302903,-6.386002,100070.58,-139,-129,-73
224210,18.312,-3.442,6.296,1.372010,-2.320462,-6.431764,100070.42,-139,-129,-73
224221,19.873,-5.225,7.888,1.387974,-2.348664,-6.374296,100070.42,-148,-115,-76
224230,20.802,-6.998,8.746,1.325717,-2.332169,-6.154534,100073.91,-156,-101,-79
224240,20.976,-8.272,9.202,1.165552,-2.239050,-5.834736,100074.28,-163,-86,-83
224250,19.726,-9.072,9.946,0.927166,-2.038976,-5.479819,100073.02,-163,-86,-83
224261,17.213,-9.276,11.587,0.678671,-1.712261,-5.060517,100072.33,-167,-73,-87
224270,15.048,-9.780,13.384,0.468488,-1.307858,-4.601306,100072.33,-172,-59,-90
224280,13.561,-12.244,13.780,0.064084,-0.934316,-4.100591,100075.45,-175,-47,-92
224286,12.174,-14.739,12.470,-0.302539,-0.687950,-3.680756,100076.30,-175,-47,-92
224295,11.700,-17.415,11.062,-0.759089,-0.492133,-3.192279,100076.30,-178,-35,-95
224306,10.949,-19.245,9.508,-1.245970,-0.316537,-2.297271,100075.67,-179,-28,-96
224316,9.495,-18.414,9.785,-1.423694,-0.139877,-1.187822,100075.36,-179,-28,-96
224325,8.754,-16.323,11.112,-1.226282,0.102765,-0.010263,100075.36,-178,-23,-97
224335,8.920,-14.655,11.994,-0.770264,0.412985,1.049168,100077.12,-178,-25,-97
224346,10.844,-9.176,11.246,-0.467493,0.718949,1.841479,100075.91,-178,-30,-95
224356,12.702,-0.409,6.292,-0.240282,0.867407,2.228855,100074.34,-178,-30,-95
224365,17.972,26.032,-11.246,-0.283383,0.248031,1.655241,100074.34,-177,-35,-94
224375,13.616,20.300,-9.744,-0.677144,0.490673,1.147608,100074.34,-176,-38,-92
224386,8.013,-2.188,2.120,1.722138,1.421866,2.165534,100080.70,-176,-50,-85
224396,17.661,-3.693,5.192,2.825734,1.582031,3.234542,100075.28,-176,-50,-85
224405,21.738,-2.738,0.684,1.361900,1.252655,2.997221,100076.86,-174,-63,-79
224415,15.331,-2.753,0.602,0.449332,1.300012,2.536414,100076.97,-174,-71,-74
224425,12.542,-0.699,5.750,0.542451,1.531480,2.829075,100076.97,-171,-81,-69
224436,9.932,0.724,15.335,1.051148,1.964617,2.821093,100076.91,-171,-81,-69
224446,10.250,0.503,11.310,1.708304,2.135425,2.597075,100075.75,-170,-91,-60
224455,13.735,-5.474,2.287,1.548671,1.787957,2.596011,100076.70,-168,-100,-52
224465,11.321,-6.753,3.316,1.088396,1.654397,2.710946,100076.70,-164,-110,-46
224476,10.211,-3.578,3.643,0.798928,1.417609,2.534286,100080.00,-164,-110,-46
224485,11.046,-6.571,3.461,0.283314,1.113774,2.364011,100080.00,-161,-116,-42
224495,11.000,-5.729,2.391,-0.662245,0.870600,2.051662,100078.27,-158,-122,-40
224505,10.949,-2.792,2.570,-1.384318,0.664141,1.732929,100078.48,-153,-125,-43
224516,10.179,0.583,2.398,-1.528520,0.562508,1.445057,100077.64,-153,-125,-43
224521,10.099,2.064,1.725,-1.248630,0.599756,1.224232,100077.64,-152,-128,-43
224530,10.228,2.586,1.506,-0.763346,0.718949,1.098654,100079.52,-150,-130,-42
224540,9.866,1.804,2.533,-0.293493,0.854104,1.097057,100077.42,-150,-130,-42
224550,9.548,0.168,2.970,-0.090227,0.845059,1.089608,100077.36,-148,-133,-41
224561,9.646,-0.435,3.012,-0.050851,0.787591,0.972012,100075.52,-147,-135,-39
224570,9.871,0.430,3.225,-0.052448,0.750875,0.829406,100075.52,-146,-136,-37
224580,9.613,0.195,3.234,-0.054044,0.729591,0.746929,100078.97,-146,-136,-37
224590,9.438,-1.056,3.357,-0.215273,0.692875,0.668709,100080.55,-144,-138,-35
224601,9.491,-0.916,3.836,-0.601585,0.608802,0.527168,100079.13,-144,-140,-35
224611,9.280,0.808,4.556,-0.963419,0.485352,0.407443,100077.02,-143,-139,-36
224620,9.005,2.137,3.912,-0.989493,0.401279,0.346783,100077.02,-143,-139,-36
224630,8.839,1.815,2.811,-0.717585,0.398618,0.367003,100080.07,-143,-139,-38
224641,9.128,1.391,1.564,-0.367989,0.443848,0.450012,100079.98,-142,-140,-38
224651,9.667,0.727,1.371,-0.099805,0.523664,0.552177,100078.07,-142,-142,-36
224660,9.781,-0.153,2.645,-0.030631,0.581664,0.614434,100076.82,-142,-142,-36
224670,9.148,0.087,3.758,-0.195053,0.577407,0.597939,100076.82,-140,-143,-36
224680,8.370,0.997,4.216,-0.350429,0.546013,0.562287,100076.73,-139,-144,-35
224691,8.380,1.074,4.073,-0.359475,0.517811,0.596342,100075.00,-138,-146,-35
224701,9.136,0.497,3.440,-0.325420,0.513022,0.652214,100075.73,-138,-146,-35
224710,9.447,0.316,3.402,-0.325420,0.536967,0.692654,100075.58,-137,-146,-34
224720,9.141,0.287,3.357,-0.369585,0.545481,0.730434,100075.58,-135,-148,-33
224731,9.509,0.151,2.835,-0.421732,0.542288,0.777260,100078.57,-135,-150,-33
224741,9.993,0.061,2.763,-0.455787,0.568894,0.829938,100077.10,-135,-150,-33
224750,9.935,0.051,3.037,-0.540392,0.619444,0.880489,100075.62,-133,-151,-34
224756,9.831,0.117,3.035,-0.614356,0.642325,0.915608,100076.41,-130,-153,-34
224765,9.985,0.514,3.104,-0.657456,0.657224,0.959241,100076.41,-130,-153,-34
224776,9.827,1.067,3.595,-0.655328,0.693939,1.041718,100076.41,-129,-154,-33
224786,9.489,1.058,4.039,-0.580833,0.726398,1.133773,100075.61,-127,-158,-34
224796,9.912,0.091,4.125,-0.495695,0.759921,1.215186,100075.20,-124,-159,-31
224805,10.191,-0.802,4.412,-0.518044,0.777481,1.247645,100077.03,-124,-159,-31
224816,10.708,-1.152,4.361,-0.632979,0.763114,1.239663,100077.03,-122,-161,-33
224826,11.235,-0.812,3.823,-0.770796,0.745022,1.234342,100078.78,-119,-164,-33
224835,11.587,-0.058,3.616,-0.842098,0.745554,1.271057,100078.78,-115,-166,-34
224845,11.867,0.145,3.039,-0.802190,0.763114,1.373755,100079.05,-115,-166,-34
224856,12.267,0.112,2.803,-0.736209,0.786527,1.521149,100078.58,-112,-168,-34
224866,12.555,0.075,2.768,-0.678741,0.807811,1.673332,100077.25,-108,-171,-34
224871,12.675,0.199,2.724,-0.655860,0.822178,1.778690,100077.25,-108,-171,-34
224880,12.705,0.387,2.756,-0.646814,0.836545,1.893094,100079.27,-104,-174,-33
224890,12.712,0.788,2.975,-0.611695,0.851444,2.063901,100075.96,-98,-177,-34
224901,12.809,1.179,3.235,-0.577108,0.852508,2.249607,100074.74,-98,-177,-34
224911,13.084,1.356,3.581,-0.604778,0.867939,2.434781,100076.21,-93,-182,-34
224920,13.469,1.446,3.841,-0.742594,0.886031,2.600800,100076.21,-85,-184,-34
224930,14.257,1.826,3.693,-0.988429,0.902526,2.734359,100079.71,-77,-189,-36
224941,15.760,3.120,3.777,-1.288006,0.862086,2.846634,100078.88,-77,-189,-36
224951,17.972,5.041,3.922,-1.643988,0.766838,2.954121,100077.66,-69,-192,-39
224961,20.045,5.671,3.298,-2.248997,0.758325,2.967955,100075.88,-60,-194,-43
224970,22.224,5.891,1.017,-3.355785,0.670527,2.851423,100075.88,-51,-194,-52
224980,24.175,11.111,0.902,-4.865380,0.469921,2.631130,100079.02,-44,-194,-67
224991,21.988,15.850,2.077,-5.722254,0.336894,2.586787,100076.87,-44,-191,-67
225001,19.441,11.879,4.661,-4.986701,0.434270,2.961038,100076.45,-34,-186,-82
225010,20.218,4.084,7.711,-2.920519,0.624765,3.651184,100075.45,-24,-182,-89
225020,22.376,-1.379,8.283,-1.242777,0.641793,4.190743,100075.45,-11,-184,-91
225031,20.461,-2.741,8.120,-0.843695,0.570490,4.169991,100077.70,-11,-184,-91
225041,17.864,1.087,7.133,-0.613823,0.598692,3.879459,100073.12,+0,-185,-92
225051,15.646,4.912,5.291,-0.049255,0.783334,3.508579,100073.23,+10,-186,-90
225060,11.365,4.706,4.288,0.410488,0.788123,3.036597,100074.23,+18,-188,-89
225071,8.878,-2.576,5.519,0.948451,0.747683,2.583240,100074.23,+18,-188,-89
225081,7.483,-7.667,8.613,1.168744,0.675316,2.126690,100076.22,+24,-190,-85
225091,7.842,-3.531,3.793,0.610029,0.193756,1.478048,100077.06,+29,-192,-82
225100,6.280,-0.157,1.270,0.077919,-0.071234,0.565480,100077.16,+32,-192,-82
225106,4.903,1.767,1.278,-0.124815,-0.155840,-0.067731,100075.91,+32,-192,-82
225116,4.490,2.374,0.422,-0.249860,-0.355913,-0.446061,100075.91,+32,-191,-82
225126,3.505,1.840,-0.528,-0.259970,-0.598023,-0.873345,100075.91,+32,-191,-82
225136,2.526,0.757,-0.558,-0.131200,-0.782665,-1.228262,100080.33,+30,-190,-82
225145,2.127,0.194,-0.328,0.120488,-0.939638,-1.579455,100078.13,+28,-190,-81
225156,2.091,-0.147,0.264,0.373772,-1.056170,-1.981197,100074.81,+24,-191,-79
225166,1.763,-0.170,0.892,0.588745,-1.180683,-2.376023,100074.81,+24,-191,-79
225176,1.423,0.281,1.054,0.803185,-1.321160,-2.747436,100077.95,+19,-191,-77
225185,2.270,0.547,1.124,1.061258,-1.410023,-3.113527,100077.95,+12,-191,-74
225196,3.410,0.446,1.284,1.317203,-1.495692,-3.439178,100075.10,+5,-191,-70
225206,3.844,0.245,1.432,1.505570,-1.581894,-3.739288,100073.79,+158,-191,-70
225216,4.037,0.029,1.748,1.573680,-1.657986,-4.041526,100071.79,-5,-192,-66
225225,4.547,-0.360,1.741,1.488542,-1.742591,-4.308646,100071.79,-15,-192,-61
225235,5.170,-0.463,1.802,1.410854,-1.813894,-4.570444,100070.90,-26,-190,-57
225246,5.811,-0.298,2.189,1.367753,-1.846885,-4.830645,100068.70,-39,-187,-54
225256,6.431,-0.358,2.579,1.324652,-1.881472,-5.046150,100068.32,-39,-187,-54
225266,6.992,-0.532,2.858,1.296983,-1.895307,-5.260058,100069.24,-52,-183,-51
225276,7.691,-0.657,2.946,1.299111,-1.886793,-5.480351,100068.29,-65,-178,-49
225286,8.629,-0.936,2.847,1.343808,-1.865509,-5.683617,100069.04,-80,-172,-47
