98412,8.661,-3.974,1.655,0.002159,0.010922,0.002610,99771.47,-204,+97,-39
98422,8.690,-3.902,1.680,-0.002630,0.015179,-0.000050,99771.63,-205,+97,-38
98433,8.703,-3.859,1.685,-0.006887,0.017308,0.001014,99772.00,-204,+97,-38
98442,8.708,-3.857,1.692,-0.008483,0.019436,0.003143,99772.67,-204,+98,-39
98452,8.702,-3.875,1.699,-0.005822,0.021033,0.003143,99772.67,-204,+98,-39
98462,8.686,-3.916,1.679,-0.003694,0.019968,0.003143,99772.84,-204,+98,-38
98472,8.661,-3.997,1.649,-0.001566,0.022097,0.001014,99772.31,-204,+97,-38
98483,8.650,-3.968,1.633,-0.002630,0.026354,-0.004839,99771.59,-204,+98,-38
98492,8.618,-3.928,1.628,-0.003162,0.029546,-0.010160,99772.11,-204,+98,-38
98502,8.666,-3.937,1.664,0.001095,0.032207,-0.013353,99772.11,-204,+98,-38
98512,8.668,-3.904,1.657,0.004288,0.034335,-0.014949,99772.95,-204,+97,-38
98523,8.684,-3.920,1.699,0.003223,0.036464,-0.012821,99771.61,-205,+98,-38
98532,8.691,-3.864,1.717,0.000563,0.037528,-0.011757,99770.61,-205,+98,-38
98542,8.687,-3.867,1.777,0.000563,0.035932,-0.009096,99770.61,-204,+98,-38
98552,8.709,-3.908,1.739,0.001095,0.036464,-0.006968,99770.61,-204,+97,-37
98557,8.711,-3.918,1.731,0.001095,0.035932,-0.008032,99775.55,-204,+97,-37
98567,8.687,-3.898,1.715,-0.003162,0.036464,-0.008564,99775.55,-205,+98,-37
98577,8.659,-3.912,1.725,-0.003162,0.036996,-0.006968,99770.45,-205,+98,-38
98587,8.697,-3.907,1.711,-0.002098,0.038592,-0.009096,99770.20,-205,+98,-36
98597,8.700,-3.900,1.736,-0.003162,0.039656,-0.010160,99770.91,-205,+98,-36
98608,8.721,-3.920,1.739,-0.003162,0.039124,-0.010692,99772.05,-205,+98,-37
98618,8.728,-3.908,1.754,-0.005290,0.038592,-0.009628,99772.16,-204,+98,-37
98627,8.693,-3.889,1.797,-0.005822,0.038592,-0.007500,99769.75,-205,+98,-36
98637,8.686,-3.853,1.837,-0.004226,0.032739,-0.004839,99769.75,-205,+98,-36
98648,8.715,-3.843,1.834,0.000563,0.027950,-0.001646,99771.58,-204,+97,-37
98657,8.711,-3.857,1.797,0.002691,0.024757,0.000482,99771.58,-205,+98,-36
98667,8.653,-3.887,1.764,0.004820,0.023161,0.004739,99771.23,-205,+98,-36
98677,8.665,-3.888,1.715,0.004288,0.020500,0.005803,99771.59,-205,+98,-36
98688,8.683,-3.889,1.715,0.003223,0.017308,0.007399,99771.12,-205,+98,-38
98698,8.728,-3.884,1.758,0.002159,0.015711,0.007932,99768.93,-206,+98,-37
98707,8.702,-3.891,1.763,0.003223,0.016776,0.008996,99768.93,-205,+97,-36
98717,8.668,-3.916,1.770,0.003756,0.016244,0.010060,99771.63,-205,+97,-36
98727,8.677,-3.890,1.766,0.004820,0.014115,0.007932,99770.30,-206,+98,-36
98738,8.726,-3.903,1.713,0.004820,0.009858,0.010592,99770.95,-205,+98,-35
98748,8.723,-3.933,1.674,0.005352,0.007198,0.010592,99770.95,-205,+97,-36
98757,8.738,-3.908,1.749,0.001627,0.007730,0.011124,99770.95,-205,+97,-36
98767,8.717,-3.847,1.806,-0.002098,0.007730,0.014849,99775.82,-206,+97,-37
98778,8.690,-3.834,1.849,0.002691,0.005069,0.016977,99772.23,-205,+97,-36
98787,8.654,-3.890,1.790,0.010141,0.004005,0.018574,99772.85,-206,+98,-36
98797,8.621,-3.985,1.739,0.017058,0.001344,0.017510,99771.29,-206,+98,-36
98807,8.638,-3.964,1.734,0.015994,0.001344,0.013785,99771.29,-205,+97,-36
98818,8.679,-3.961,1.779,0.006948,0.003473,0.010592,99770.35,-205,+97,-35
98828,8.690,-3.940,1.761,0.005352,0.001344,0.009528,99771.35,-205,+97,-36
98837,8.715,-3.897,1.739,0.008012,0.001344,0.008464,99771.29,-205,+97,-36
98847,8.674,-3.943,1.734,0.013334,-0.000252,0.008996,99771.29,-205,+97,-36
98857,8.675,-3.889,1.733,0.021315,-0.005041,0.006335,99773.55,-206,+98,-36
98868,8.702,-3.910,1.752,0.028233,-0.011426,0.006867,99771.16,-205,+97,-36
98877,8.706,-3.902,1.797,0.024508,-0.014087,0.005803,99771.16,-205,+97,-36
98887,8.685,-3.876,1.881,0.010141,-0.011958,0.010060,99773.04,-206,+97,-36
98897,8.642,-3.920,1.843,0.004288,-0.011426,0.009528,99770.90,-205,+98,-36
98908,8.677,-3.902,1.839,0.003223,-0.011426,0.010592,99770.90,-205,+97,-36
98913,8.668,-3.927,1.806,0.007480,-0.010894,0.011124,99775.27,-205,+97,-36
98922,8.645,-3.875,1.773,0.011205,-0.010362,0.011656,99772.20,-205,+97,-36
98932,8.641,-3.871,1.755,0.013866,-0.007169,0.011656,99770.68,-206,+96,-36
98942,8.639,-3.956,1.763,0.014398,-0.002380,0.011656,99769.27,-206,+96,-36
98953,8.661,-3.946,1.771,0.010673,-0.000252,0.010060,99769.27,-205,+97,-36
98962,8.668,-3.870,1.831,0.005352,0.002409,0.010060,99770.20,-204,+97,-36
98972,8.651,-3.878,1.877,0.004288,0.005069,0.012188,99771.98,-206,+97,-36
98982,8.654,-3.883,1.824,0.002691,0.002941,0.012188,99771.03,-206,+97,-36
98993,8.645,-3.913,1.833,-0.001033,0.004005,0.014317,99772.08,-205,+97,-36
99002,8.643,-3.875,1.901,-0.005822,0.004537,0.016977,99772.08,-206,+96,-37
99012,8.662,-3.830,1.945,-0.009547,0.004537,0.022299,99773.77,-205,+97,-36
99022,8.711,-3.829,1.888,-0.009547,0.000280,0.028684,99772.95,-205,+97,-36
99033,8.729,-3.831,1.856,-0.002630,-0.003445,0.031876,99772.88,-204,+96,-36
99043,8.677,-3.907,1.809,-0.001033,-0.005573,0.035069,99767.84,-205,+96,-37
99052,8.632,-3.951,1.800,-0.002630,-0.005573,0.035601,99767.84,-206,+96,-36
99062,8.581,-3.948,1.795,-0.005290,-0.005041,0.034005,99773.76,-206,+96,-36
99073,8.596,-3.918,1.824,-0.002630,-0.002912,0.034537,99770.70,-206,+96,-36
99083,8.645,-3.960,1.777,0.002691,-0.003977,0.033473,99771.57,-206,+96,-36
99092,8.678,-3.960,1.761,0.004288,-0.004509,0.031876,99769.23,-206,+96,-36
99102,8.660,-3.977,1.742,0.000563,-0.004509,0.032941,99769.23,-206,+96,-36
99112,8.684,-4.011,1.728,-0.001033,-0.007169,0.029748,99773.83,-206,+95,-36
99123,8.708,-3.937,1.784,-0.007951,-0.005041,0.030280,99772.31,-206,+96,-36
99133,8.694,-3.920,1.792,-0.010079,-0.006105,0.033473,99769.08,-205,+96,-36
99142,8.648,-3.968,1.754,-0.004758,-0.007169,0.032409,99771.95,-205,+96,-36
99148,8.637,-4.004,1.777,0.000031,-0.004509,0.029216,99771.95,-205,+96,-36
99158,8.611,-4.047,1.735,0.002159,-0.002912,0.026023,99771.95,-206,+94,-36
99168,8.590,-4.062,1.702,0.001095,0.000812,0.019638,99771.52,-206,+94,-36
99178,8.594,-4.027,1.727,-0.001033,0.005601,0.014849,99772.34,-205,+95,-36
99187,8.623,-3.981,1.733,-0.006355,0.011455,0.010592,99771.98,-205,+95,-36
99197,8.633,-3.958,1.729,-0.006355,0.015179,0.008996,99769.91,-206,+94,-36
99208,8.651,-3.921,1.775,-0.001033,0.015711,0.008464,99771.16,-206,+94,-36
99218,8.650,-3.946,1.777,0.004288,0.015179,0.009528,99773.15,-206,+95,-36
99227,8.642,-4.007,1.737,0.009077,0.007730,0.012188,99773.15,-206,+95,-36
99237,8.683,-3.988,1.737,0.005352,0.005601,0.013253,99774.30,-206,+95,-36
99248,8.700,-3.912,1.820,-0.001566,0.006666,0.014849,99771.63,-206,+95,-36
99258,8.633,-3.921,1.782,0.001095,0.005069,0.018042,99771.63,-205,+94,-35
99267,8.594,-3.902,1.776,0.010673,0.001344,0.021234,99769.96,-206,+95,-36
99277,8.596,-3.957,1.821,0.018655,0.001877,0.021766,99771.79,-206,+94,-36
99288,8.583,-4.019,1.791,0.018123,0.004005,0.021234,99771.32,-206,+94,-36
99298,8.577,-4.052,1.729,0.016526,0.005069,0.018042,99770.27,-206,+94,-36
99308,8.611,-4.019,1.788,0.011205,0.009326,0.013253,99770.27,-206,+94,-36
99317,8.653,-3.946,1.766,0.007480,0.009858,0.008996,99772.45,-206,+95,-36
99328,8.612,-3.948,1.764,0.011205,0.010922,0.007932,99771.51,-206,+95,-36
99338,8.574,-3.916,1.821,0.018123,0.015711,0.008464,99768.85,-205,+95,-34
99348,8.575,-3.898,1.781,0.023976,0.017308,0.010060,99768.85,-206,+95,-36
99357,8.627,-3.870,1.798,0.035682,0.013583,0.013785,99768.85,-206,+95,-35
99367,8.637,-3.773,1.842,0.043132,0.008262,0.018042,99770.23,-206,+95,-34
99378,8.629,-3.796,1.838,0.060691,0.005069,0.029216,99771.95,-206,+94,-34
99383,8.620,-3.891,1.791,0.077719,0.001877,0.034537,99772.38,-206,+94,-36
99393,8.629,-4.011,1.849,0.079315,0.002941,0.037730,99769.83,-206,+94,-36
99402,8.617,-4.054,1.876,0.070269,0.006666,0.036665,99769.83,-206,+94,-36
99412,8.582,-4.060,1.839,0.060691,0.009858,0.035069,99773.16,-206,+93,-36
99423,8.642,-3.952,1.937,0.049517,0.007198,0.030280,99772.75,-206,+94,-36
99433,8.608,-3.867,2.008,0.063884,-0.002912,0.023895,99771.81,-206,+94,-36
99442,8.611,-3.916,1.925,0.095278,-0.012490,0.022831,99770.09,-206,+94,-36
99452,8.647,-4.164,1.832,0.119223,-0.017811,0.017510,99770.09,-206,+93,-35
99463,8.692,-4.228,1.797,0.107517,-0.011958,0.011656,99772.04,-206,+93,-36
99473,8.654,-4.179,1.828,0.075058,-0.000784,0.006867,99773.60,-206,+93,-36
99482,8.605,-4.177,1.803,0.048985,0.002409,0.002610,99773.45,-206,+94,-36
99492,8.693,-4.092,1.783,0.030361,0.003473,-0.001646,99770.74,-206,+93,-36
99503,8.675,-3.989,1.905,0.004820,0.013583,0.001546,99770.74,-206,+94,-36
99513,8.601,-4.009,1.704,-0.010079,0.019968,0.004207,99772.45,-206,+94,-36
99523,8.672,-4.015,1.669,-0.010079,0.028482,0.004739,99773.28,-206,+94,-35
99532,8.710,-4.088,1.692,-0.006355,0.034335,0.001546,99770.16,-205,+92,-35
99543,8.705,-4.079,1.721,0.000563,0.039656,-0.004307,99771.67,-206,+93,-35
99553,8.532,-4.071,1.850,0.009609,0.046574,-0.012821,99771.67,-206,+93,-35
99563,8.483,-4.186,1.916,0.004288,0.051895,-0.019206,99771.81,-206,+94,-35
99572,8.583,-4.180,1.905,-0.020189,0.054555,-0.027720,99769.31,-206,+93,-34
99582,8.627,-4.156,1.888,-0.045731,0.062537,-0.034637,99771.70,-206,+93,-36
99593,8.627,-4.021,1.792,-0.062226,0.062005,-0.038894,99769.05,-206,+93,-36
99603,8.742,-3.816,1.995,-0.063822,0.054555,-0.040490,99769.05,-206,+93,-34
99612,8.782,-3.725,2.275,-0.043070,0.037528,-0.041023,99773.04,-206,+93,-34
99618,8.666,-3.829,2.220,-0.003162,0.019968,-0.042087,99771.27,-206,+93,-34
99628,8.607,-3.906,2.116,0.025572,0.004005,-0.045812,99771.27,-206,+94,-34
99638,8.606,-3.955,2.377,0.034618,-0.023133,-0.055922,99773.09,-206,+94,-34
99648,8.611,-3.961,2.369,0.053774,-0.048142,-0.069224,99770.49,-206,+94,-35
99658,8.569,-4.116,2.074,0.069205,-0.058252,-0.077206,99770.49,-206,+94,-35
99667,8.532,-4.247,1.982,0.057499,-0.054527,-0.085188,99772.86,-206,+94,-35
99678,8.637,-4.019,1.830,0.020251,-0.044417,-0.088912,99770.91,-206,+95,-34
99688,8.672,-3.798,1.731,0.010141,-0.036967,-0.082527,99769.13,-206,+95,-36
99697,8.635,-3.768,1.836,0.025040,-0.035903,-0.074545,99769.13,-206,+95,-36
99707,8.641,-3.900,1.802,0.030361,-0.034839,-0.066564,99769.13,-205,+95,-36
99718,8.668,-4.013,1.801,0.028765,-0.032178,-0.066032,99774.23,-206,+96,-35
99728,8.681,-4.015,1.796,0.017590,-0.024197,-0.069224,99771.06,-205,+96,-36
99738,8.706,-4.033,1.802,0.006416,-0.017811,-0.073481,99769.08,-205,+96,-36
99747,8.617,-4.001,1.849,-0.008483,-0.013022,-0.081463,99769.55,-206,+96,-36
99758,8.569,-3.970,1.898,-0.013272,-0.008766,-0.086252,99769.55,-206,+96,-35
99768,8.595,-3.916,1.994,-0.014868,-0.006637,-0.091041,99775.39,-206,+97,-36
99778,8.644,-3.845,2.068,-0.019125,-0.007701,-0.096894,99772.22,-206,+97,-36
99788,8.625,-3.720,2.164,-0.015932,-0.018876,-0.101683,99771.41,-205,+97,-36
99798,8.596,-3.737,2.104,0.021315,-0.032711,-0.104876,99771.41,-205,+97,-36
99808,8.612,-3.796,1.876,0.044196,-0.037500,-0.105408,99775.34,-205,+98,-36
99818,8.672,-3.715,1.980,0.052710,-0.034839,-0.105940,99775.34,-205,+98,-36
99828,8.598,-3.655,2.082,0.070269,-0.035903,-0.102747,99773.67,-206,+98,-36
99837,8.589,-3.696,1.904,0.094746,-0.036435,-0.094766,99770.97,-206,+98,-36
99848,8.726,-3.828,1.675,0.121884,-0.047078,-0.088912,99771.75,-204,+99,-36
99858,8.869,-3.889,1.650,0.102196,-0.045481,-0.085188,99771.75,-204,+99,-36
99868,8.969,-3.938,1.649,0.060159,-0.034307,-0.080399,99774.42,-204,+98,-36
99878,9.009,-3.798,1.637,0.025040,-0.027922,-0.079867,99771.81,-204,+100,-36
99888,8.893,-3.858,1.648,-0.001566,-0.019408,-0.077738,99770.30,-205,+99,-37
99898,8.765,-3.913,1.681,-0.014336,-0.010362,-0.078270,99770.96,-205,+100,-36
99908,8.711,-3.902,1.637,-0.038281,0.003473,-0.076674,99772.23,-205,+100,-36
99918,8.748,-3.872,1.761,-0.078189,0.017308,-0.076142,99771.85,-204,+100,-36
99928,8.813,-3.744,1.947,-0.114905,0.024757,-0.070289,99770.34,-204,+100,-37
99938,8.832,-3.687,1.909,-0.131400,0.027418,-0.065500,99770.34,-204,+101,-36
99948,8.791,-3.793,1.765,-0.144171,0.032207,-0.053793,99771.80,-204,+101,-36
99957,8.785,-4.009,1.703,-0.176098,0.039656,-0.046344,99771.80,-204,+101,-36
99968,8.868,-3.855,1.693,-0.240483,0.055088,-0.035701,99772.03,-204,+101,-36
99974,8.891,-3.736,1.700,-0.288373,0.064666,-0.027188,99770.89,-204,+101,-36
99983,8.917,-3.550,1.754,-0.303804,0.059344,-0.016546,99769.33,-204,+101,-36
99993,8.849,-3.380,1.939,-0.291565,0.038060,0.003143,99770.11,-204,+102,-35
100002,8.855,-3.424,2.103,-0.265492,0.017308,0.021234,99770.11,-204,+102,-35
100013,8.845,-3.588,2.113,-0.242079,0.001344,0.030812,99774.63,-204,+101,-34
100023,8.662,-3.823,1.949,-0.214409,-0.014087,0.030812,99771.33,-206,+102,-35
100033,8.444,-3.819,1.848,-0.196318,-0.025793,0.024959,99772.75,-204,+101,-34
100043,8.411,-3.780,1.791,-0.182483,-0.037500,0.020170,99770.03,-204,+101,-34
100052,8.592,-3.766,1.828,-0.168648,-0.053995,0.021766,99770.03,-205,+101,-35
100063,8.692,-3.696,1.934,-0.156409,-0.072087,0.026023,99773.18,-204,+102,-35
100073,8.797,-3.593,1.989,-0.160134,-0.089114,0.038794,99770.68,-204,+102,-35
100083,8.920,-3.463,2.097,-0.168648,-0.108802,0.060610,99769.63,-204,+102,-35
100092,9.067,-3.499,2.233,-0.162263,-0.131151,0.085620,99771.99,-204,+101,-36
100103,9.037,-3.567,2.144,-0.145767,-0.155628,0.103179,99771.99,-204,+101,-36
100113,8.941,-3.743,2.032,-0.141510,-0.182233,0.120739,99772.61,-204,+101,-36
100123,8.833,-3.847,1.979,-0.144703,-0.207775,0.133509,99770.88,-204,+101,-36
100133,8.825,-3.825,1.976,-0.158006,-0.231720,0.147344,99768.06,-204,+101,-36
100143,8.949,-3.757,1.916,-0.171841,-0.255665,0.167564,99769.47,-204,+101,-38
100153,9.122,-3.745,1.971,-0.188868,-0.283866,0.192042,99769.47,-204,+100,-38
100163,9.112,-3.690,2.118,-0.211749,-0.311004,0.222904,99773.55,-203,+100,-39
100173,9.052,-3.657,2.158,-0.231969,-0.345591,0.260152,99770.83,-203,+100,-39
100183,9.179,-3.529,2.079,-0.256978,-0.386564,0.306445,99768.64,-204,+100,-40
100193,9.507,-3.202,2.222,-0.280923,-0.436582,0.368702,99770.20,-204,+98,-41
100203,9.876,-3.337,2.300,-0.293694,-0.502031,0.436812,99770.20,-204,+97,-43
100208,10.188,-3.556,2.404,-0.293694,-0.566417,0.484702,99774.52,-204,+97,-43
100217,10.457,-3.742,2.590,-0.305932,-0.638784,0.527271,99774.52,-204,+96,-44
100228,10.595,-3.878,2.717,-0.357547,-0.723921,0.585803,99773.74,-204,+96,-44
100238,10.817,-4.027,2.396,-0.453859,-0.799481,0.652316,99769.48,-203,+94,-46
100248,11.630,-4.193,1.913,-0.582629,-0.882490,0.726280,99769.68,-203,+92,-49
100258,13.548,-4.285,1.728,-0.722042,-0.983059,0.791197,99772.65,-202,+90,-51
100269,16.541,-4.010,1.626,-0.842299,-1.096930,0.850793,99772.13,-202,+90,-51
100278,19.156,-3.511,1.539,-0.911473,-1.196435,0.921564,99770.21,-202,+88,-53
100288,20.627,-3.161,2.531,-0.896042,-1.275187,1.055124,99770.21,-201,+86,-57
100298,20.384,-1.891,2.075,-1.166886,-1.306049,1.198793,99771.55,-199,+83,-60
100307,18.972,-1.326,-0.492,-1.222757,-1.428967,1.261050,99771.55,-199,+83,-60
100318,15.944,-0.912,-0.324,-1.026941,-1.513572,1.217949,99774.66,-197,+80,-62
100328,13.643,0.342,0.182,-0.626794,-1.627976,1.104078,99772.47,-196,+76,-68
100338,11.811,-0.796,-0.227,-0.137786,-1.745572,0.975307,99771.27,-195,+73,-72
100348,9.577,-5.158,-0.352,0.488508,-1.890306,1.156224,99771.95,-191,+73,-77
100358,8.292,-9.343,0.277,1.120654,-1.997792,1.240298,99771.95,-191,+67,-77
100368,8.146,-11.730,0.765,1.522929,-1.986085,1.241362,99770.77,-189,+62,-85
100378,8.074,-13.162,0.112,1.454287,-1.859975,1.216353,99771.40,-185,+54,-90
100388,7.892,-14.231,-1.223,0.990287,-1.672141,1.188151,99769.57,-183,+49,-94
100398,6.261,-14.967,-2.961,0.294820,-1.514636,1.176445,99769.57,-183,+49,-94
100408,5.345,-13.958,-1.617,-0.195786,-1.322545,1.178573,99769.57,-182,+47,-98
100418,6.343,-10.426,-2.209,-0.549639,-1.186857,0.998720,99772.85,-180,+43,-102
100428,5.090,-8.544,-1.854,-0.838042,-1.071389,0.956683,99773.85,-178,+43,-104
100438,3.936,-8.554,-0.495,-0.907216,-0.859609,0.987014,99773.59,-178,+43,-104
100448,3.559,-7.653,-0.577,-0.972666,-0.724453,0.944977,99769.05,-175,+41,-106
100458,3.418,-6.476,-1.242,-1.028537,-0.661664,0.929546,99769.05,-175,+40,-109
100468,3.092,-5.639,-1.322,-0.989161,-0.609518,0.926885,99771.09,-173,+39,-110
100478,2.866,-4.911,-1.060,-0.852409,-0.525444,0.896555,99771.45,-173,+39,-110
100489,2.805,-4.046,-1.215,-0.711400,-0.463187,0.850793,99768.98,-171,+39,-112
100498,2.573,-3.155,-1.650,-0.575712,-0.449353,0.822059,99768.98,-171,+37,-114
100508,1.865,-2.443,-1.704,-0.384152,-0.438178,0.784812,99769.31,-171,+35,-115
100518,1.184,-2.144,-1.477,-0.181951,-0.386564,0.734261,99769.98,-171,+35,-115
100528,0.875,-2.024,-1.568,-0.024446,-0.344527,0.679454,99769.98,-169,+33,-115
100538,0.631,-1.902,-1.738,0.089425,-0.330160,0.620390,99770.61,-169,+32,-116
100548,0.383,-1.861,-1.679,0.200636,-0.295573,0.545895,99766.91,-169,+30,-117
100558,0.115,-1.867,-1.412,0.291095,-0.227995,0.452775,99766.91,-169,+30,-117
100568,-0.154,-1.784,-1.260,0.343774,-0.154564,0.352207,99769.72,-167,+28,-117
100578,-0.395,-1.823,-1.346,0.354416,-0.094435,0.246849,99770.19,-168,+28,-118
100588,-0.850,-1.922,-1.503,0.309187,-0.038564,0.150537,99770.44,-167,+26,-117
100598,-1.423,-2.025,-1.642,0.228838,0.039124,0.057418,99766.11,-167,+26,-117
100609,-1.865,-1.889,-1.593,0.133058,0.131179,-0.044747,99769.77,-167,+26,-117
100618,-1.935,-1.720,-1.489,0.054838,0.225363,-0.159151,99767.99,-168,+26,-117
100628,-1.695,-1.464,-1.343,-0.002098,0.312097,-0.284197,99767.99,-169,+26,-116
100638,-1.294,-1.343,-1.235,-0.041474,0.390317,-0.409243,99767.99,-169,+26,-116
100648,-0.969,-1.283,-1.285,-0.063822,0.461087,-0.528435,99769.62,-169,+28,-115
100658,-0.703,-1.358,-1.386,-0.074997,0.530262,-0.636985,99769.62,-171,+31,-113
100668,-0.646,-1.661,-1.349,-0.081914,0.603693,-0.746068,99770.51,-172,+32,-112
100678,-0.646,-2.142,-1.154,-0.051052,0.693619,-0.856215,99772.54,-172,+32,-112
100688,-0.491,-2.507,-0.817,-0.013272,0.795784,-0.989242,99769.30,-174,+35,-109
100699,-0.059,-2.849,-0.397,-0.004226,0.928812,-1.141958,99768.48,-176,+39,-107
100708,0.734,-3.126,-0.180,-0.020721,1.080463,-1.314361,99768.48,-178,+42,-104
100718,1.782,-3.290,-0.312,-0.061694,1.237435,-1.481444,99768.39,-178,+42,-104
100728,2.863,-3.505,-0.754,-0.067015,1.383234,-1.622453,99770.33,-180,+47,-101
100739,3.893,-3.922,-1.274,0.000563,1.510940,-1.750691,99768.70,-183,+52,-96
100748,4.920,-4.389,-1.595,0.083040,1.618426,-1.892232,99768.70,-185,+58,-91
100758,6.099,-4.724,-1.506,0.156471,1.721123,-2.011425,99768.70,-185,+58,-91
100768,7.581,-4.710,-1.280,0.235223,1.811582,-2.091774,99771.16,-188,+64,-87
100779,8.920,-5.559,-1.229,0.250655,1.878096,-2.155095,99769.69,-190,+71,-81
100788,9.898,-6.691,-1.419,0.324086,1.953123,-2.197131,99772.14,-192,+78,-76
100799,11.471,-7.354,-1.027,0.490991,2.104774,-2.248569,99770.38,-194,+84,-70
100808,13.205,-7.757,-0.693,0.618874,2.231948,-2.249278,99770.38,-194,+84,-70
100818,14.998,-8.425,-0.979,0.726361,2.330389,-2.190214,99772.15,-195,+90,-62
100829,11.837,-20.982,-2.056,0.367719,2.508646,-1.705994,99771.21,-196,+96,-55
100838,21.518,-24.019,2.895,1.323388,2.222370,-0.866857,99771.37,-199,+98,-50
100848,28.741,-9.636,7.304,1.481424,1.803068,-1.754416,99772.82,-199,+98,-50
100858,50.709,3.884,20.946,0.504471,2.101049,-1.432490,99768.60,-199,+103,-44
100869,51.445,17.500,2.158,-0.360207,0.820261,-1.331389,99772.55,-199,+109,-42
100878,13.677,-1.422,-12.358,-0.274538,0.625509,-0.508747,99772.55,-199,+109,-41
100888,2.024,-7.353,-4.217,0.875351,0.815472,-0.199591,99774.27,-199,+109,-41
100898,-3.200,-2.205,-2.069,0.541719,0.729803,-0.456600,99769.65,-200,+110,-38
100909,0.214,0.678,3.908,-0.112244,0.686702,-0.079334,99769.65,-201,+110,-37
100918,7.883,-2.578,8.506,0.022912,0.554207,0.096262,99769.97,-200,+110,-35
100928,9.471,-6.455,7.924,0.475205,0.378610,0.093069,99767.89,-200,+110,-35
100938,7.700,-8.048,4.341,0.498618,0.242390,-0.012821,99769.45,-201,+109,-34
100948,6.850,-6.108,0.837,0.068673,0.257289,-0.113389,99771.80,-201,+109,-34
100959,9.194,-2.093,-0.958,-0.312850,0.308372,-0.083059,99772.36,-201,+109,-33
100968,11.663,-0.323,-1.488,-0.150024,0.306775,0.040390,99772.63,-201,+109,-33
100978,12.172,-1.058,-0.911,0.239480,0.305711,0.146812,99769.39,-201,+109,-31
100988,9.746,-3.721,0.410,0.495425,0.309436,0.198959,99768.61,-202,+109,-31
100999,7.434,-5.451,1.976,0.508728,0.304115,0.173950,99768.61,-203,+107,-31
101008,7.529,-4.750,3.397,0.344838,0.279638,0.142555,99768.61,-203,+107,-31
101018,8.836,-3.470,3.993,0.238948,0.218977,0.138298,99771.50,-203,+106,-30
101028,9.559,-3.359,3.597,0.277260,0.113088,0.152133,99772.53,-203,+105,-30
101039,9.404,-3.927,2.709,0.336324,0.013051,0.162243,99772.75,-203,+105,-31
101049,9.079,-4.469,1.842,0.273003,-0.041224,0.166500,99770.70,-203,+105,-31
101058,9.128,-4.442,1.485,0.093150,-0.048142,0.184592,99770.70,-203,+103,-30
101068,9.407,-3.852,1.621,-0.123951,-0.028454,0.215454,99770.38,-203,+103,-31
101079,9.597,-3.167,2.070,-0.267620,-0.028986,0.258023,99769.80,-204,+102,-30
101089,9.256,-3.035,2.683,-0.287841,-0.048674,0.288353,99767.52,-204,+102,-30
101098,8.626,-3.702,2.863,-0.162263,-0.107206,0.287289,99767.52,-204,+101,-30
101108,8.102,-4.280,2.651,-0.014868,-0.182233,0.255363,99767.52,-204,+101,-31
101118,8.169,-4.392,2.165,0.060159,-0.229059,0.213326,99771.56,-204,+101,-31
101129,8.662,-4.371,1.609,0.037811,-0.234380,0.180335,99771.36,-204,+101,-31
101138,9.075,-4.310,1.233,-0.030299,-0.214160,0.164904,99767.23,-203,+100,-31
101148,9.030,-4.108,1.277,-0.100006,-0.188087,0.163308,99770.31,-203,+99,-33
101158,8.727,-3.769,1.560,-0.122887,-0.176380,0.171821,99770.31,-204,+98,-33
101169,8.441,-3.581,1.872,-0.084575,-0.182765,0.181931,99773.41,-204,+98,-33
101179,8.291,-3.924,1.729,-0.017529,-0.198197,0.181931,99770.39,-204,+98,-33
101188,8.280,-4.302,1.516,0.035682,-0.209903,0.169161,99772.67,-204,+97,-34
101198,8.285,-4.437,1.419,0.042067,-0.205114,0.150537,99769.40,-203,+96,-34
101209,8.311,-4.400,1.431,-0.003694,-0.185958,0.139895,99772.99,-203,+96,-34
101219,8.443,-3.989,1.472,-0.070208,-0.166802,0.146280,99772.63,-204,+96,-36
101228,8.752,-3.205,1.925,-0.130336,-0.149243,0.165968,99772.63,-204,+96,-36
101238,8.942,-3.268,1.898,-0.139382,-0.158288,0.191509,99771.23,-203,+95,-36
101249,8.917,-3.632,1.697,-0.091492,-0.196600,0.213326,99772.43,-203,+95,-36
101259,8.754,-3.887,1.530,-0.057437,-0.221610,0.230886,99772.43,-203,+94,-36
101268,8.723,-4.092,1.436,-0.081382,-0.225866,0.245785,99771.84,-204,+94,-38
101278,8.783,-4.333,1.390,-0.114373,-0.226931,0.254830,99769.61,-203,+93,-38
101288,8.650,-4.388,1.273,-0.138850,-0.231187,0.254830,99768.67,-203,+93,-38
101299,8.510,-4.320,1.256,-0.155345,-0.229059,0.252702,99767.58,-203,+92,-38
101309,8.514,-4.345,1.263,-0.161731,-0.227463,0.248445,99767.58,-203,+92,-39
101318,8.580,-4.326,1.267,-0.152153,-0.233316,0.245785,99771.16,-204,+91,-39
101328,8.594,-4.234,1.291,-0.139382,-0.241298,0.243656,99769.11,-203,+90,-39
101339,8.544,-4.220,1.315,-0.119694,-0.255665,0.244720,99771.67,-203,+90,-39
101348,8.571,-4.157,1.320,-0.101602,-0.269499,0.253766,99771.67,-203,+90,-41
101358,8.558,-4.152,1.332,-0.089896,-0.277481,0.270262,99771.67,-203,+88,-41
101368,8.611,-3.908,1.459,-0.098942,-0.272692,0.294739,99774.22,-203,+88,-42
101379,8.661,-3.689,1.782,-0.119162,-0.256729,0.322408,99773.69,-203,+88,-42
101389,8.441,-3.856,1.674,-0.093266,-0.248924,0.347418,99771.95,-203,+87,-44
101398,8.153,-3.859,1.770,-0.037217,-0.249279,0.369234,99771.95,-203,+85,-44
101408,7.944,-4.007,1.792,0.046324,-0.271628,0.385197,99771.95,-203,+84,-44
101419,8.171,-4.434,1.350,0.128801,-0.315793,0.395840,99773.13,-203,+84,-44
101429,8.679,-5.105,0.707,0.168710,-0.366875,0.395307,99771.68,-203,+83,-45
101439,8.979,-5.182,0.471,0.097939,-0.374325,0.384133,99770.87,-203,+81,-46
101448,8.922,-4.956,0.665,-0.048391,-0.357298,0.382537,99770.87,-202,+80,-47
101458,8.716,-4.402,0.984,-0.128740,-0.366343,0.386794,99771.85,-202,+80,-47
101469,8.568,-3.882,1.182,-0.134061,-0.381775,0.416592,99771.85,-203,+79,-48
101479,8.545,-4.041,1.135,-0.089896,-0.394013,0.454904,99770.60,-202,+77,-49
101488,8.517,-4.568,0.829,-0.031364,-0.408912,0.480977,99770.65,-201,+75,-50
101498,8.498,-4.672,0.798,-0.023382,-0.408912,0.488959,99769.87,-201,+75,-50
101509,8.432,-4.988,0.610,-0.044666,-0.404655,0.494812,99769.87,-201,+74,-50
101519,8.502,-5.305,0.500,-0.074997,-0.415297,0.509179,99769.65,-201,+73,-52
101529,8.618,-5.154,0.644,-0.128740,-0.408380,0.507583,99772.04,-200,+71,-53
101538,8.609,-5.064,0.738,-0.158006,-0.409976,0.508647,99771.05,-200,+71,-53
101549,8.580,-5.084,0.631,-0.131932,-0.430729,0.508647,99770.17,-201,+70,-55
101559,8.699,-5.056,0.709,-0.127143,-0.440307,0.510243,99772.27,-200,+68,-55
101569,8.790,-5.220,0.733,-0.136189,-0.447756,0.516628,99771.84,-199,+67,-58
101578,8.745,-5.311,0.545,-0.135125,-0.460527,0.526206,99768.97,-199,+67,-58
101588,8.690,-5.178,0.404,-0.155877,-0.467444,0.546427,99768.97,-199,+65,-58
101599,8.728,-5.263,0.407,-0.167584,-0.480747,0.577821,99770.59,-199,+63,-59
101608,8.890,-5.275,0.508,-0.191529,-0.509481,0.621454,99770.59,-198,+62,-61
101618,9.111,-5.375,0.418,-0.203767,-0.544600,0.673601,99771.02,-198,+62,-61
101628,9.206,-5.112,0.527,-0.225052,-0.595683,0.720959,99771.75,-197,+60,-63
101639,9.450,-5.346,0.607,-0.234097,-0.640380,0.788537,99771.95,-198,+58,-64
101649,9.109,-7.491,1.806,-0.257510,-0.665921,0.888573,99769.50,-197,+54,-66
101658,10.654,-6.285,3.496,-0.386281,-0.620160,1.002977,99769.50,-197,+54,-66
101668,11.381,-5.923,0.785,-0.719382,-0.611646,0.974775,99771.46,-196,+52,-68
101679,12.111,-5.735,-0.269,-0.681070,-0.730306,1.064169,99767.18,-196,+49,-69
101689,12.388,-4.857,-0.471,-0.832189,-0.794160,1.099289,99768.96,-194,+47,-72
101699,12.830,-4.424,-0.809,-0.829528,-0.886747,1.176977,99768.96,-194,+47,-72
101708,13.118,-4.147,-0.914,-0.733749,-1.002747,1.258922,99768.96,-192,+44,-75
101719,13.148,-4.663,-0.605,-0.613492,-1.098526,1.349380,99773.38,-190,+40,-78
101729,12.900,-5.336,-0.173,-0.592207,-1.166104,1.431325,99772.23,-189,+37,-80
101739,12.690,-5.565,0.108,-0.679473,-1.202820,1.493582,99771.03,-189,+37,-80
101748,12.848,-5.436,0.709,-0.818886,-1.224636,1.538279,99768.53,-187,+33,-84
101758,13.515,-5.273,1.487,-0.942868,-1.262948,1.561160,99768.53,-185,+30,-87
101769,14.180,-4.861,2.359,-1.050354,-1.290086,1.578187,99773.44,-182,+26,-92
101779,14.498,-4.529,2.711,-1.150391,-1.283701,1.603197,99771.25,-179,+26,-92
101789,15.289,-3.476,3.514,-1.307895,-1.301260,1.605857,99769.45,-179,+22,-95
101798,16.035,-1.960,4.865,-1.534574,-1.311370,1.654811,99769.45,-176,+20,-99
101809,16.679,-1.482,4.882,-1.710170,-1.377884,1.899582,99771.13,-172,+16,-104
101819,16.691,-2.523,3.581,-1.774023,-1.507719,2.180536,99771.13,-169,+16,-108
101828,16.642,-4.951,2.115,-1.639399,-1.642875,2.473728,99769.21,-169,+13,-108
101838,17.071,-6.172,2.835,-1.400482,-1.752489,2.659967,99770.93,-164,+9,-112
101849,16.412,-6.191,3.367,-1.301510,-1.742379,2.672205,99769.79,-159,+3,-117
101859,14.441,-6.408,3.550,-1.441455,-1.604031,2.563655,99769.79,-154,+0,-123
101869,13.385,-5.954,2.640,-1.678243,-1.426306,2.368903,99769.16,-154,+0,-123
101878,11.752,-4.799,2.443,-1.731986,-1.281040,2.160848,99772.19,-150,-2,-125
101889,10.263,-3.936,2.972,-1.470188,-1.163976,1.891068,99766.77,-145,-4,-129
101899,8.897,-3.332,2.930,-1.093455,-1.055958,1.554775,99768.13,-142,-7,-132
101909,6.683,-2.604,2.381,-0.901363,-0.843646,1.100885,99769.38,-142,-7,-132
101919,3.233,-0.975,-0.945,-0.974262,-0.775004,0.743839,99768.35,-139,-7,-133
101928,-0.317,-7.196,-2.938,-1.092923,-0.492453,0.910922,99768.98,-137,-7,-135
101939,2.820,-7.878,-0.524,-0.859326,-0.065701,0.841748,99768.98,-136,-7,-136
101949,3.296,-4.507,0.953,-0.581033,0.192372,0.247913,99769.02,-136,-7,-136
101958,2.394,-0.499,1.147,-0.395327,0.399895,-0.180967,99769.02,-137,-7,-135
101968,1.960,2.064,0.914,-0.137786,0.567509,-0.483738,99769.86,-138,-6,-134
101979,1.717,2.591,-0.213,0.236288,0.696280,-0.733297,99766.16,-140,-6,-133
101989,1.724,2.443,-0.277,0.582159,0.858041,-0.951462,99769.34,-140,-6,-133
101999,2.252,1.816,0.297,0.848214,1.035766,-1.160581,99767.09,-143,-7,-129
102008,2.713,0.861,0.441,1.050948,1.195399,-1.373425,99767.09,-147,-6,-125
102019,3.169,-0.026,-0.144,1.194617,1.319912,-1.591590,99768.26,-150,-5,-121
102029,3.760,-0.618,-0.693,1.322324,1.436977,-1.832636,99762.96,-150,-5,-121
102039,4.144,-1.076,-0.860,1.368617,1.582243,-2.078471,99765.84,-155,-5,-115
102049,4.402,-1.376,-0.686,1.345736,1.739215,-2.321645,99765.84,-160,-3,-110
102059,4.919,-1.289,-0.529,1.322856,1.882885,-2.564287,99765.84,-166,+0,-104
102069,5.800,-0.580,-0.975,1.312746,1.984518,-2.789901,99767.90,-166,+0,-104
102079,6.623,-0.144,-1.464,1.286672,2.094132,-3.002745,99767.70,-171,+5,-98
102088,7.227,-0.623,-1.411,1.272837,2.201618,-3.185259,99766.07,-175,+11,-90
102094,7.521,-1.191,-1.249,1.278158,2.251637,-3.315626,99763.99,-175,+11,-90
102104,7.685,-1.646,-1.172,1.301039,2.273453,-3.469406,99763.99,-182,+18,-83
102114,7.839,-2.337,-1.206,1.298379,2.313893,-3.678525,99765.70,-185,+26,-75
102124,8.168,-3.339,-0.844,1.232929,2.391049,-3.882855,99768.20,-189,+35,-68
102133,8.665,-3.755,-0.657,1.081810,2.505985,-4.074946,99769.30,-189,+35,-68
102144,9.603,-3.406,-0.670,0.926966,2.678389,-4.218084,99764.25,-192,+47,-61
102154,10.804,-3.027,-0.873,0.919517,2.820462,-4.287258,99764.25,-194,+59,-52
102164,11.937,-3.319,-1.397,1.113204,2.866755,-4.310671,99770.59,-196,+70,-45
102174,12.839,-4.246,-1.789,1.428213,2.832700,-4.313864,99769.18,-196,+70,-45
102183,13.582,-5.454,-1.915,1.732580,2.756077,-4.308011,99769.29,-196,+81,-37
102194,14.199,-6.636,-1.703,1.924140,2.656572,-4.297369,99767.04,-197,+93,-31
102204,14.717,-7.673,-1.589,1.955002,2.540040,-4.285130,99767.04,-196,+103,-25
102214,15.018,-8.561,-1.656,1.857626,2.412334,-4.245754,99770.32,-196,+103,-25
102223,15.158,-9.379,-1.755,1.742690,2.279838,-4.178708,99768.45,-194,+115,-19
102234,15.104,-10.134,-1.887,1.658617,2.142554,-4.066433,99769.96,-192,+126,-15
102244,14.601,-11.046,-1.798,1.570819,2.030279,-3.894561,99767.93,-189,+137,-12
102254,13.639,-11.659,-1.427,1.443645,1.974407,-3.666286,99767.93,-189,+137,-12
102264,12.716,-11.579,-1.265,1.284012,1.978132,-3.400764,99772.27,-185,+147,-8
102274,12.117,-11.356,-1.362,1.145131,1.983985,-3.109167,99771.84,-182,+156,-4
102284,11.694,-11.328,-2.494,1.007315,1.981857,-2.816507,99770.95,-180,+165,-1
102294,11.474,-12.078,-3.208,0.888654,1.892463,-2.568012,99770.86,-180,+165,-1
102303,10.679,-13.190,-4.076,0.676874,1.747197,-2.278012,99770.86,-176,+171,+2
102313,10.011,-13.527,-4.156,0.368251,1.624811,-1.980030,99770.59,-174,+176,+6
102324,9.453,-13.946,-3.604,-0.116501,1.501362,-1.643737,99772.53,-171,+181,+10
102334,8.393,-14.222,-3.496,-0.573051,1.319912,-1.287224,99771.02,-171,+181,+10
102344,7.836,-13.953,-3.453,-0.840171,1.129949,-0.900912,99771.38,-171,+183,+15
102353,8.208,-13.832,-4.179,-0.947125,0.856977,-0.441701,99771.38,-171,+185,+19
102364,8.757,-13.166,-5.245,-0.991290,0.502592,0.060078,99770.64,-173,+184,+22
102374,9.145,-11.935,-5.456,-0.945528,0.109363,0.534188,99772.52,-173,+184,+22
102384,8.905,-10.339,-5.573,-0.725235,-0.291848,0.931674,99771.36,-174,+181,+23
102393,8.017,-8.848,-5.742,-0.293694,-0.667517,1.278610,99773.25,-177,+177,+22
102404,7.580,-6.299,-2.676,0.289499,-0.989976,1.597343,99773.25,-182,+171,+19
102414,7.648,-2.771,7.159,0.681131,-0.815444,1.593087,99773.98,-182,+171,+19
102424,11.953,11.922,25.675,0.337921,0.062537,1.049270,99771.10,-185,+167,+18
102434,26.179,27.382,16.771,-1.302042,1.380573,-0.261848,99767.46,-186,+165,+22
102444,21.963,7.481,-14.087,-2.211417,0.210464,0.527803,99771.99,-187,+164,+26
102450,19.887,-9.731,-2.219,-0.340519,-0.541940,1.762830,99771.99,-187,+164,+26
102459,20.112,-15.653,4.437,1.213241,-0.815976,2.116683,99771.99,-192,+155,+22
102469,10.345,-6.564,4.305,0.264489,-0.897389,1.583509,99771.38,-195,+151,+19
102479,4.756,-5.427,2.185,-1.026941,-0.293444,1.686738,99771.53,-195,+151,+19
102489,8.961,-8.298,4.439,-0.182483,-0.299298,2.129985,99772.11,-198,+145,+20
102499,11.881,-6.995,6.696,1.298911,-0.990508,1.923527,99772.11,-201,+137,+17
102509,9.509,-5.361,2.670,1.088195,-1.204416,1.613839,99771.52,-203,+132,+12
102519,7.564,-5.515,1.875,0.050049,-1.136306,1.548921,99772.56,-203,+132,+12
102529,8.226,-5.924,2.610,-0.542721,-1.025095,1.433454,99772.56,-204,+126,+9
102539,8.997,-3.638,1.807,-0.914134,-1.000086,1.250940,99770.78,-205,+123,+8
102549,8.604,-0.118,0.200,-0.920519,-0.896857,1.174316,99770.69,-206,+119,+5
102559,8.546,1.461,-0.484,-0.516648,-0.723921,1.197197,99770.69,-206,+119,+5
102568,9.289,-0.046,-0.295,0.066545,-0.644637,1.220078,99773.73,-208,+115,+3
102579,9.541,-3.038,-0.211,0.503939,-0.619096,1.190812,99771.07,-208,+111,+2
102589,9.517,-4.492,0.595,0.636434,-0.522784,1.080133,99770.65,-210,+106,+0
102599,9.424,-3.974,1.688,0.493297,-0.401463,0.945509,99769.87,-210,+106,+0
102609,8.905,-3.405,2.155,0.249590,-0.340270,0.850793,99770.49,-210,+103,-1
102619,8.665,-3.410,2.528,-0.030299,-0.312068,0.798647,99774.98,-211,+101,-1
102629,8.882,-2.895,3.027,-0.285712,-0.290784,0.765656,99770.34,-211,+98,-2
102639,8.706,-2.196,3.235,-0.432574,-0.257261,0.731069,99769.40,-211,+98,-2
102649,8.495,-1.764,2.598,-0.332006,-0.239169,0.705527,99769.40,-211,+96,-3
102659,8.757,-1.392,2.451,-0.090428,-0.254068,0.691693,99769.40,-212,+92,-3
102669,9.017,-1.977,2.744,0.101132,-0.284398,0.703931,99773.02,-213,+91,-4
102679,9.105,-2.649,2.909,0.120820,-0.296105,0.719894,99772.77,-213,+91,-4
102684,8.946,-3.096,3.158,0.013866,-0.280142,0.727344,99772.61,-213,+88,-5
102694,8.823,-3.162,3.653,-0.176630,-0.260986,0.739582,99771.25,-214,+86,-6
102704,8.602,-2.906,3.853,-0.433107,-0.250343,0.749693,99771.25,-214,+86,-6
102714,8.471,-2.731,3.342,-0.548042,-0.279077,0.762995,99770.48,-215,+83,-6
102724,8.739,-2.540,2.386,-0.502281,-0.331756,0.788537,99771.78,-215,+80,-7
102734,9.260,-2.545,1.681,-0.386281,-0.391353,0.817270,99772.77,-214,+77,-7
102744,9.607,-2.693,1.423,-0.278795,-0.429664,0.846004,99770.84,-214,+77,-7
102754,9.592,-2.876,1.727,-0.239419,-0.425940,0.875270,99770.84,-215,+75,-9
102764,9.207,-3.180,1.819,-0.258042,-0.403059,0.899215,99770.48,-215,+72,-11
102774,8.964,-3.544,1.710,-0.304868,-0.378050,0.920500,99770.85,-215,+68,-11
102784,8.790,-3.791,1.777,-0.353822,-0.378582,0.923160,99770.63,-215,+68,-11
102794,8.759,-3.821,2.013,-0.381492,-0.375921,0.907729,99770.01,-215,+65,-12
102804,8.661,-3.841,2.021,-0.394795,-0.376453,0.898683,99770.01,-216,+62,-12
102814,8.702,-3.634,2.288,-0.392666,-0.394545,0.874738,99771.33,-215,+59,-13
102824,8.540,-3.507,2.422,-0.357547,-0.406252,0.862500,99773.94,-215,+59,-13
102834,8.313,-3.378,2.472,-0.298483,-0.403591,0.868353,99769.41,-216,+56,-15
102844,8.287,-3.648,1.900,-0.215474,-0.429132,0.889105,99770.19,-216,+53,-17
102854,8.775,-4.314,1.194,-0.150556,-0.488729,0.892830,99770.19,-216,+50,-17
102864,9.597,-4.490,1.136,-0.246868,-0.477554,0.905069,99774.83,-216,+50,-17
102874,9.707,-4.620,1.442,-0.409162,-0.430729,0.924225,99773.25,-216,+47,-19
102884,9.425,-4.390,1.393,-0.542189,-0.408912,0.952958,99772.69,-215,+43,-20
102894,8.985,-4.131,1.443,-0.581565,-0.399866,0.973179,99771.91,-215,+40,-21
102904,8.879,-4.343,1.611,-0.561345,-0.396674,0.988610,99771.91,-215,+40,-21
102915,8.797,-4.765,1.634,-0.547510,-0.398802,1.002445,99775.09,-215,+37,-23
102924,8.857,-4.917,1.464,-0.563473,-0.405719,1.009894,99770.96,-215,+33,-23
102934,8.972,-4.809,1.488,-0.622538,-0.422215,1.030647,99769.71,-214,+31,-24
102944,8.963,-4.908,1.533,-0.675216,-0.457866,1.067894,99774.04,-214,+31,-24
102955,8.815,-6.025,2.191,-0.720978,-0.467444,1.130683,99774.04,-214,+28,-26
102964,9.599,-5.195,1.595,-0.838574,-0.506820,1.157289,99772.77,-213,+24,-28
102974,9.877,-5.257,1.186,-0.938079,-0.535554,1.177509,99772.88,-211,+20,-29
102984,10.408,-5.197,0.543,-1.010446,-0.604196,1.206775,99768.70,-211,+20,-29
102994,11.032,-4.770,0.266,-1.049822,-0.663793,1.248811,99770.80,-211,+18,-31
103004,11.419,-3.977,-0.494,-1.054611,-0.781389,1.281270,99770.80,-210,+14,-34
103014,11.943,-3.696,-0.968,-0.938611,-0.921334,1.334481,99772.93,-208,+11,-37
103024,12.477,-4.134,-0.815,-0.818354,-1.041059,1.382903,99772.24,-206,+7,-41
103034,12.767,-4.637,-0.273,-0.774189,-1.149077,1.422279,99770.73,-206,+7,-41
103040,12.757,-4.856,0.139,-0.778978,-1.219847,1.445692,99771.04,-204,+3,-44
103049,12.516,-5.030,0.504,-0.802391,-1.269334,1.475490,99771.04,-204,+3,-44
103059,12.451,-5.282,1.141,-0.866244,-1.315627,1.514334,99771.04,-202,+0,-49
103069,12.500,-5.604,1.753,-0.985969,-1.351811,1.554242,99772.00,-199,-1,-55
103079,12.799,-5.694,1.795,-1.148262,-1.370434,1.588298,99770.78,-196,-5,-58
103090,13.522,-5.342,1.487,-1.344078,-1.402361,1.593619,99770.91,-196,-5,-58
103099,14.728,-4.228,1.765,-1.563308,-1.440673,1.588298,99770.91,-193,-8,-64
103109,16.779,-2.123,2.800,-1.729326,-1.533792,1.614371,99771.59,-190,-9,-70
103119,19.249,0.515,3.601,-1.712298,-1.734930,1.657472,99771.59,-185,-12,-75
103130,20.736,3.039,4.638,-1.362170,-2.008966,1.808059,99771.54,-185,-12,-75
103139,19.756,2.546,4.670,-0.791216,-2.255865,2.102848,99769.20,-181,-14,-83
103149,18.252,0.101,3.909,-0.303804,-2.497975,2.423710,99768.88,-174,-20,-90
103154,17.534,-2.790,3.111,-0.067015,-2.665058,2.681251,99768.88,-174,-20,-90
103164,16.953,-5.017,3.920,0.114434,-2.742746,2.857911,99772.93,-167,-26,-96
103175,16.626,-7.423,5.509,0.276196,-2.764562,2.964865,99769.27,-159,-33,-103
103184,15.362,-10.000,5.408,0.061756,-2.590562,2.916444,99766.66,-150,-41,-109
103194,14.498,-11.279,5.256,-0.398519,-2.337810,2.812150,99767.55,-150,-41,-109
103204,14.111,-8.409,5.269,-0.761418,-2.128691,2.534389,99767.55,-142,-45,-114
103215,12.119,-5.408,4.818,-0.765143,-1.923296,2.139563,99769.61,-134,-47,-120
103224,10.034,-3.878,6.698,-0.542721,-1.590196,1.657472,99768.77,-129,-49,-124
103234,8.570,0.836,4.706,-0.317639,-1.441205,1.025858,99765.64,-129,-49,-124
103244,1.756,-2.416,-0.626,-0.550703,-1.331590,0.966793,99768.45,-124,-50,-126
103255,2.024,-10.146,1.284,-0.753437,-0.778728,1.095032,99768.45,-120,-49,-130
103264,4.069,-7.593,1.995,-0.782171,-0.474362,0.479913,99771.02,-118,-47,-132
103275,3.540,-0.911,1.891,-0.936128,-0.119444,-0.251029,99769.51,-118,-47,-132
103284,3.025,1.879,2.708,-1.192959,0.227491,-0.586967,99767.79,-119,-43,-132
103294,3.062,2.921,2.338,-1.169546,0.463216,-0.875371,99766.85,-119,-37,-133
103304,2.460,3.030,1.175,-0.960959,0.638812,-1.128123,99766.85,-121,-32,-133
103314,2.001,2.379,0.873,-0.672024,0.806959,-1.323407,99769.32,-121,-32,-133
103324,2.344,1.333,0.910,-0.325620,0.990537,-1.551682,99769.52,-124,-27,-131
103334,3.383,0.943,0.744,0.061223,1.150702,-1.802306,99767.96,-127,-22,-130
103345,4.308,0.664,0.053,0.498618,1.239032,-2.034838,99764.88,-133,-18,-128
103354,4.766,0.186,-0.767,0.885461,1.312463,-2.271095,99764.88,-133,-18,-128
103364,4.793,-0.032,-1.057,1.177058,1.394940,-2.502562,99766.05,-136,-15,-124
103374,4.677,-0.294,-0.724,1.396819,1.531160,-2.734562,99765.59,-141,-10,-121
103385,4.904,-0.446,-0.221,1.546874,1.698775,-2.967626,99765.49,-146,-6,-118
103394,5.479,-0.387,0.229,1.686819,1.854151,-3.185259,99763.51,-146,-6,-118
103404,6.102,-0.204,0.094,1.851773,1.970683,-3.379479,99763.51,-152,-1,-114
103414,6.524,-0.463,-0.117,1.978415,2.070187,-3.555608,99764.27,-157,+5,-109
103425,7.022,-1.387,-0.308,2.002892,2.186187,-3.727479,99763.53,-164,+10,-104
103435,7.307,-2.807,-0.186,1.915626,2.290481,-3.898286,99764.89,-164,+10,-104
103444,7.526,-4.188,0.106,1.762378,2.403820,-4.072818,99764.16,-170,+17,-98
103454,7.824,-5.057,0.034,1.467589,2.556003,-4.265974,99764.16,-176,+27,-95
103464,8.451,-5.606,-0.196,1.080746,2.783746,-4.462322,99766.63,-182,+38,-88
103475,9.552,-5.820,-0.549,0.722104,3.038095,-4.607056,99765.00,-182,+38,-88
103484,10.867,-5.673,-1.067,0.577902,3.224865,-4.675698,99765.73,-189,+51,-81
103494,12.116,-5.697,-1.743,0.666232,3.299893,-4.699644,99769.08,-194,+65,-73
103504,13.226,-6.611,-2.534,0.876416,3.258920,-4.662928,99769.08,-199,+81,-65
103510,13.832,-7.851,-2.916,1.086599,3.154095,-4.607588,99771.77,-199,+81,-65
103519,14.213,-9.129,-3.154,1.284544,3.014682,-4.558102,99771.77,-202,+96,-57
103529,14.583,-10.320,-3.092,1.469718,2.830572,-4.494781,99769.95,-203,+111,-51
103539,14.977,-11.124,-2.935,1.521333,2.694352,-4.408579,99767.49,-203,+111,-51
103549,15.112,-11.932,-2.932,1.466525,2.554939,-4.258524,99769.27,-201,+126,-45
103560,14.585,-12.762,-2.807,1.344672,2.409673,-4.070690,99769.81,-198,+142,-39
103570,13.591,-13.467,-2.430,1.165351,2.330921,-3.846672,99771.53,-193,+156,-34
103579,12.634,-13.751,-2.248,0.967406,2.338902,-3.585938,99770.44,-193,+156,-34
103589,12.134,-14.506,-1.954,0.821076,2.375086,-3.302855,99770.44,-187,+168,-29
103600,11.619,-15.874,-2.431,0.690177,2.345288,-2.967626,99769.92,-182,+179,-24
103609,10.804,-16.297,-3.468,0.449664,2.350609,-2.600471,99769.92,-175,+188,-19
103619,10.287,-17.275,-4.448,0.035150,2.313361,-2.169994,99775.76,-175,+188,-19
103629,8.981,-20.192,-5.924,-0.630519,2.121270,-1.670875,99773.93,-172,+194,-14
103640,8.338,-22.427,-8.707,-1.373877,1.784444,-1.116416,99774.91,-169,+199,-6
103650,9.251,-20.843,-10.293,-1.907583,1.232114,-0.466178,99773.66,-167,+202,+0
103659,10.459,-15.618,-10.582,-2.004427,0.490885,0.261216,99773.66,-167,+202,+0
103669,9.974,-8.695,-8.014,-1.478702,-0.362087,0.991803,99774.67,-168,+202,+2
103680,6.663,-5.938,0.386,-0.264960,-0.804270,1.533490,99772.44,-171,+197,+2
103690,8.387,2.015,27.176,1.021682,-0.453609,2.006536,99765.23,-175,+191,-1
103699,26.734,20.285,21.516,-0.204831,0.828243,0.695949,99765.23,-175,+191,-1
103709,25.842,8.826,-14.744,-1.344611,-0.331224,1.032775,99765.23,-174,+190,+3
103719,22.059,-12.576,-0.895,1.284544,-1.231022,2.616866,99777.53,-178,+184,-1
103730,15.816,-16.251,6.070,2.007149,-1.365113,2.346554,99774.30,-181,+175,-8
103739,4.501,-13.800,-3.013,0.246930,-0.988380,2.146481,99770.28,-183,+168,-10
103749,8.589,-8.993,-3.445,0.116031,-1.017646,2.395508,99774.25,-183,+168,-10
103759,12.658,-4.788,-0.605,1.064783,-1.221976,2.120939,99774.25,-187,+159,-14
103770,11.727,-4.720,1.245,0.716783,-1.148013,1.962371,99773.36,-189,+152,-19
103780,8.662,-5.218,3.962,-0.078721,-1.084692,1.950132,99770.81,-191,+145,-22
103790,6.568,-4.684,3.313,-0.659785,-1.105444,1.772408,99773.94,-191,+145,-22
103799,7.114,-2.018,1.882,-0.734281,-1.067132,1.547857,99773.94,-192,+141,-23
103810,8.280,-0.447,1.852,-0.402776,-1.020306,1.407380,99769.89,-194,+136,-26
103820,9.031,-0.217,1.775,-0.074997,-1.002747,1.379711,99773.02,-194,+131,-29
103829,9.198,-1.793,0.943,0.247994,-0.919205,1.346188,99773.02,-194,+131,-29
103839,9.152,-4.170,0.055,0.357609,-0.819169,1.261582,99771.88,-195,+128,-31
103849,9.421,-4.471,-0.149,0.155407,-0.665921,1.158885,99772.55,-196,+123,-34
103860,9.426,-4.094,1.133,-0.071272,-0.543004,1.047142,99772.55,-196,+120,-35
103865,9.252,-3.733,1.906,-0.179822,-0.475958,0.968922,99774.70,-196,+120,-35
103874,9.148,-3.253,2.277,-0.267088,-0.437114,0.900812,99771.72,-196,+117,-36
103884,8.888,-2.931,2.246,-0.325620,-0.411041,0.831105,99770.27,-196,+117,-36
103895,8.762,-2.820,1.845,-0.308061,-0.384435,0.782151,99771.63,-197,+115,-36
103905,8.857,-2.733,1.603,-0.305400,-0.340802,0.748628,99771.63,-197,+112,-38
103915,8.943,-3.046,1.478,-0.315510,-0.296637,0.726280,99774.34,-197,+110,-38
103924,8.970,-3.570,1.285,-0.306464,-0.271096,0.695417,99772.57,-197,+110,-38
103934,8.914,-3.870,1.640,-0.341584,-0.232252,0.649656,99773.77,-198,+109,-39
103945,8.881,-3.892,1.725,-0.435767,-0.184894,0.604427,99771.43,-199,+106,-39
103954,8.741,-3.963,1.702,-0.515051,-0.156692,0.561326,99771.43,-198,+105,-38
103964,8.560,-3.794,2.068,-0.575180,-0.149243,0.516096,99772.35,-199,+105,-39
103974,8.387,-3.497,2.320,-0.625730,-0.150839,0.480977,99770.68,-199,+103,-39
103985,8.382,-3.233,2.367,-0.661914,-0.154564,0.455436,99772.51,-199,+102,-39
103995,8.541,-3.335,2.170,-0.672556,-0.158821,0.443197,99770.05,-199,+101,-39
104004,8.972,-3.345,2.037,-0.681070,-0.166802,0.438940,99770.05,-199,+100,-39
104014,9.224,-3.300,2.231,-0.681602,-0.175316,0.444794,99770.38,-199,+100,-39
104025,9.137,-3.287,2.433,-0.667235,-0.191811,0.461821,99770.64,-199,+100,-39
104035,8.924,-3.372,2.427,-0.648079,-0.217885,0.481509,99772.11,-199,+98,-39
104044,8.696,-3.350,2.460,-0.627327,-0.247151,0.507583,99768.50,-199,+96,-40
104054,8.516,-3.298,2.635,-0.606574,-0.272160,0.539509,99768.50,-199,+96,-40
104065,8.340,-3.230,2.772,-0.577308,-0.295573,0.582610,99770.58,-199,+96,-41
104075,8.258,-3.077,2.988,-0.523033,-0.322178,0.636353,99771.78,-200,+94,-41
104085,7.961,-3.351,2.854,-0.451198,-0.366875,0.691160,99770.89,-200,+92,-42
104094,7.842,-3.622,2.556,-0.392666,-0.412637,0.742775,99769.33,-200,+92,-42
104100,7.890,-3.314,2.828,-0.370318,-0.439775,0.778426,99769.33,-200,+90,-42
104110,8.032,-2.657,3.796,-0.330941,-0.461059,0.824188,99769.33,-200,+90,-42
104120,7.851,-2.859,3.950,-0.227712,-0.498839,0.893362,99772.06,-199,+88,-44
104130,7.637,-4.193,3.140,-0.107987,-0.536086,0.946573,99770.72,-200,+83,-45
104139,8.250,-5.242,1.289,-0.140446,-0.543004,0.951894,99773.00,-199,+81,-47
104150,9.014,-6.019,-0.257,-0.347437,-0.515866,0.929013,99769.46,-199,+81,-47
104160,10.023,-5.476,-1.145,-0.640097,-0.453609,0.903472,99774.57,-199,+78,-47
104170,10.630,-4.619,-1.264,-0.852941,-0.404123,0.896555,99770.87,-199,+76,-49
104179,10.683,-3.688,-0.744,-0.907748,-0.406784,0.918371,99770.87,-199,+73,-49
104189,10.368,-3.207,-0.014,-0.815693,-0.469041,0.960408,99771.02,-199,+73,-49
104200,9.993,-3.232,0.971,-0.643290,-0.556307,1.016812,99772.96,-199,+71,-50
104210,9.805,-3.825,1.485,-0.448006,-0.655811,1.089179,99772.96,-199,+68,-53
104219,9.694,-4.716,1.630,-0.328813,-0.751059,1.156224,99774.15,-198,+65,-53
104229,9.753,-5.746,1.499,-0.367125,-0.801077,1.199325,99772.85,-197,+62,-57
104240,10.230,-6.442,1.006,-0.524097,-0.837260,1.223802,99770.55,-197,+62,-57
104250,10.928,-5.999,0.476,-0.753437,-0.860673,1.231252,99773.48,-197,+58,-60
104260,11.599,-5.236,0.282,-0.932225,-0.873976,1.248279,99774.19,-196,+54,-61
104269,12.081,-4.351,-0.255,-1.014702,-0.937297,1.283931,99772.63,-194,+51,-63
104280,12.356,-3.690,-0.385,-0.987033,-1.043719,1.340334,99772.16,-194,+51,-63
104290,12.459,-3.584,-0.043,-0.873693,-1.168233,1.414298,99770.39,-192,+47,-68
104300,12.558,-3.841,0.434,-0.739070,-1.283168,1.484536,99770.39,-190,+43,-70
104309,12.409,-4.344,0.915,-0.636905,-1.382673,1.546793,99770.39,-188,+40,-75
104320,12.196,-4.989,1.396,-0.608703,-1.440141,1.610646,99773.23,-188,+40,-75
104330,12.230,-5.420,1.790,-0.683730,-1.467278,1.663325,99770.20,-185,+35,-79
104335,12.549,-5.455,1.978,-0.800262,-1.480581,1.697912,99769.31,-185,+35,-79
104345,13.354,-5.142,2.100,-0.950849,-1.502398,1.718664,99770.41,-182,+30,-83
104354,15.074,-4.571,2.708,-1.133363,-1.567847,1.712279,99770.41,-178,+28,-88
104365,17.186,-3.513,4.346,-1.237124,-1.662563,1.676096,99771.92,-175,+24,-92
104375,19.049,-2.032,7.009,-1.303106,-1.723755,1.696848,99768.69,-175,+24,-92
104385,19.243,-0.804,8.254,-1.306299,-1.818471,1.930444,99767.50,-171,+21,-98
104394,18.027,-0.213,6.683,-1.193491,-1.931810,2.244921,99771.50,-166,+18,-103
104404,16.604,-2.674,3.558,-0.928501,-2.085590,2.604095,99771.50,-160,+11,-109
104415,15.634,-6.587,1.782,-0.637437,-2.203718,2.929214,99771.39,-160,+11,-109
104425,14.761,-9.191,1.991,-0.488978,-2.185095,3.043086,99770.77,-154,+5,-113
104434,14.101,-10.086,2.402,-0.780042,-1.981296,2.945709,99769.88,-147,-1,-119
104444,13.486,-9.355,2.950,-1.256280,-1.725352,2.760003,99769.83,-141,-5,-123
104455,12.745,-7.070,2.486,-1.644188,-1.490159,2.502994,99769.83,-135,-5,-123
104465,11.198,-4.878,2.945,-1.800629,-1.243792,2.198095,99768.95,-135,-7,-128
104475,9.329,-3.883,4.212,-1.728794,-0.929848,1.830940,99768.79,-131,-7,-131
104484,8.468,-0.720,2.639,-1.650042,-0.769683,1.351509,99768.90,-127,-7,-134
104495,2.721,-1.371,-0.579,-1.694207,-0.738820,1.087582,99770.62,-124,-5,-137
104505,1.306,-7.949,0.090,-1.628225,-0.278545,1.208903,99770.62,-124,-5,-137
104515,3.809,-5.430,1.012,-1.481363,0.011987,0.776830,99769.34,-124,-3,-138
104524,4.202,-0.233,0.850,-1.439326,0.189179,0.240464,99769.43,-123,+0,-139
104535,3.687,2.383,1.798,-1.241381,0.410005,-0.046344,99769.70,-123,+3,-139
104545,3.871,3.574,1.954,-0.762482,0.567509,-0.295903,99770.05,-123,+3,-139
104555,3.595,3.916,1.260,-0.242611,0.635087,-0.500765,99770.05,-125,+6,-138
104565,3.438,3.113,0.703,0.211278,0.744170,-0.697114,99769.04,-126,+7,-137
104570,3.762,1.747,0.338,0.470416,0.840482,-0.838123,99768.88,-126,+7,-137
104580,4.326,0.694,0.017,0.686985,0.900078,-0.990838,99768.88,-129,+9,-135
104590,4.690,0.307,-0.468,0.975920,0.952757,-1.246251,99770.80,-131,+11,-134
104600,4.703,-0.265,-0.946,1.265388,1.029381,-1.497407,99766.79,-131,+11,-134
104610,4.857,-1.595,-0.851,1.460672,1.161876,-1.713444,99766.79,-133,+11,-132
104620,5.365,-1.270,-0.835,1.567626,1.257123,-1.965131,99766.57,-137,+13,-129
104630,5.249,-0.246,-0.821,1.667131,1.327362,-2.242893,99763.38,-141,+14,-126
104640,5.344,-0.053,-0.748,1.774617,1.459325,-2.471168,99765.37,-141,+14,-126
104649,5.900,-0.408,-0.482,1.843259,1.602995,-2.665920,99765.37,-145,+17,-122
104659,6.469,-1.243,-0.111,1.848580,1.715270,-2.869186,99765.37,-150,+20,-118
104670,6.732,-2.123,0.100,1.768232,1.796683,-3.085222,99766.63,-154,+24,-114
104680,6.734,-3.009,-0.043,1.642122,1.880224,-3.290617,99765.06,-159,+29,-109
104690,6.858,-3.934,0.070,1.471846,1.996224,-3.481644,99767.63,-159,+29,-109
104699,7.262,-4.480,0.181,1.226012,2.147343,-3.681717,99764.97,-164,+36,-104
104710,7.970,-4.535,0.312,0.975920,2.341031,-3.853589,99764.97,-169,+45,-99
104720,8.791,-4.357,0.388,0.848214,2.519820,-3.971717,99767.94,-173,+54,-93
104730,9.787,-4.297,0.150,0.864709,2.646994,-4.066433,99769.52,-173,+54,-93
104740,10.682,-4.784,-0.331,0.922709,2.738517,-4.126561,99769.02,-179,+66,-85
104750,11.321,-5.580,-0.700,0.954104,2.808755,-4.139864,99769.02,-183,+77,-78
104760,11.510,-6.454,-0.718,0.981773,2.851856,-4.111662,99769.99,-185,+88,-69
104770,11.703,-6.991,-0.346,1.041370,2.889104,-4.089846,99769.99,-185,+88,-69
104780,12.204,-7.274,0.065,1.113204,2.936994,-4.085589,99768.18,-187,+102,-61
104790,12.816,-7.448,0.206,1.176525,2.976370,-4.055258,99767.23,-186,+115,-52
104800,13.247,-7.929,0.114,1.245168,2.992865,-3.984488,99768.38,-184,+128,-44
104810,13.404,-8.523,-0.131,1.265388,2.996058,-3.884451,99768.38,-184,+128,-44
104820,13.247,-9.300,-0.482,1.183443,2.993930,-3.759405,99770.12,-180,+141,-38
104830,12.994,-10.255,-0.973,1.028599,2.990205,-3.604029,99771.01,-176,+152,-31
104840,12.939,-10.916,-1.382,0.868966,2.944976,-3.421516,99770.43,-171,+163,-25
104850,13.077,-11.009,-1.824,0.741260,2.862499,-3.244855,99770.12,-171,+163,-25
104860,13.081,-10.687,-2.432,0.627920,2.768847,-3.090544,99772.20,-166,+173,-19
104870,12.672,-10.223,-3.167,0.502875,2.665618,-2.903773,99772.66,-161,+182,-14
104880,12.177,-10.384,-3.724,0.379957,2.541636,-2.649425,99769.18,-157,+190,-9
104890,11.589,-11.019,-4.335,0.265021,2.364976,-2.333884,99769.18,-157,+190,-9
104900,11.071,-11.575,-4.930,0.188930,2.163838,-1.981095,99768.51,-152,+197,-4
104909,10.610,-11.847,-6.001,0.192655,1.890334,-1.587333,99768.51,-148,+202,-2
104920,10.118,-12.142,-7.775,0.295352,1.477949,-1.154728,99773.48,-146,+204,+0
104926,9.719,-12.812,-8.930,0.445939,1.066096,-0.783848,99773.89,-146,+204,+0
104935,9.382,-13.952,-9.412,0.641223,0.582408,-0.348050,99772.33,-144,+206,+0
104945,8.976,-14.633,-9.727,0.860984,-0.050802,0.259619,99771.23,-144,+206,-4
104954,8.961,-14.052,-9.904,0.865241,-0.581316,0.832170,99771.23,-144,+205,-4
104965,7.341,-11.690,-8.843,1.174397,-1.032545,1.353637,99775.57,-147,+201,-8
104975,6.177,-9.689,-1.510,1.697993,-1.258159,1.667582,99774.12,-148,+196,-15
104985,5.890,-6.860,21.359,1.927864,-0.715939,1.972481,99769.16,-154,+190,-19
104995,23.357,18.168,32.454,0.906746,0.897417,1.031711,99766.51,-154,+190,-19
105005,32.950,11.665,-19.061,-1.750078,-0.013022,0.658702,99766.51,-154,+190,-17
105015,24.239,-10.564,-5.675,-0.134593,-1.426306,2.430627,99776.38,-158,+185,-20
105025,19.764,-12.533,0.558,1.469718,-1.508783,2.439141,99773.77,-161,+177,-26
105035,4.439,-10.259,0.820,-0.291565,-1.007536,1.978334,99772.57,-161,+177,-26
105044,5.455,-16.962,-5.667,-0.662446,-0.322178,2.607820,99773.04,-164,+171,-25
105055,15.732,-12.236,0.403,0.651865,-0.952196,2.578022,99773.04,-168,+163,-29
105065,14.674,-5.782,1.680,0.864177,-0.954325,1.799013,99771.66,-171,+157,-32
105075,8.462,-3.843,5.997,-0.313914,-0.674967,1.752720,99771.66,-171,+157,-32
105085,3.379,-4.479,6.370,-1.206794,-0.902710,1.656408,99769.57,-173,+152,-32
105095,4.391,-2.728,1.795,-1.405803,-1.029884,1.390353,99771.20,-173,+150,-33
105105,8.053,-0.580,1.103,-0.657657,-0.934104,1.138665,99771.20,-175,+147,-35
105115,9.959,-0.341,1.813,-0.092024,-0.927187,1.089711,99773.67,-175,+147,-35
105125,10.094,-0.186,0.976,0.170838,-0.859609,1.105142,99772.11,-175,+142,-37
105135,9.653,-1.288,0.394,0.449664,-0.780325,1.132812,99771.75,-176,+139,-41
105145,9.050,-3.500,0.474,0.579498,-0.684545,1.074280,99770.86,-177,+135,-43
105155,8.935,-5.167,1.851,0.411884,-0.565885,0.966261,99770.86,-177,+135,-43
105165,8.935,-5.280,2.996,0.056434,-0.485536,0.821527,99774.05,-177,+132,-43
105175,8.620,-3.818,3.461,-0.324024,-0.427004,0.710316,99773.21,-178,+129,-45
105185,8.463,-2.075,3.351,-0.510262,-0.397738,0.668280,99770.04,-178,+128,-45
105195,8.596,-1.182,3.476,-0.503877,-0.400398,0.690096,99768.37,-178,+128,-45
105205,8.704,-1.036,3.591,-0.375639,-0.437114,0.738518,99768.37,-178,+126,-46
105216,8.499,-1.907,3.345,-0.205364,-0.473830,0.789601,99774.48,-178,+124,-47
105225,8.400,-3.023,3.096,-0.126079,-0.504160,0.811949,99770.89,-178,+122,-49
105235,8.398,-3.579,2.923,-0.188868,-0.514270,0.803968,99768.59,-178,+122,-49
105245,8.347,-3.559,2.739,-0.355951,-0.485004,0.785876,99769.58,-180,+119,-50
105255,8.068,-3.342,2.856,-0.491639,-0.465848,0.762463,99769.58,-179,+118,-50
105265,7.782,-2.978,2.597,-0.540593,-0.437646,0.761399,99772.20,-180,+116,-51
105275,7.967,-2.467,2.506,-0.495895,-0.434986,0.788004,99772.11,-180,+116,-51
105285,8.776,-1.946,2.458,-0.382556,-0.448820,0.839619,99771.38,-180,+114,-52
105295,9.582,-2.413,1.715,-0.264960,-0.478619,0.899215,99769.70,-180,+111,-53
105305,10.011,-3.269,0.768,-0.160666,-0.530765,0.947105,99769.70,-181,+109,-55
105315,9.792,-3.523,0.976,-0.137786,-0.557903,0.963601,99773.16,-181,+109,-55
105325,8.995,-3.853,1.046,-0.138318,-0.575462,0.968922,99772.70,-181,+105,-55
105335,8.465,-4.011,0.880,-0.123419,-0.585573,0.959876,99769.35,-181,+103,-57
105346,8.363,-4.252,0.822,-0.107455,-0.590362,0.937527,99771.18,-182,+100,-59
105355,8.321,-4.495,0.893,-0.123951,-0.587701,0.909858,99771.18,-182,+100,-59
105365,8.472,-4.374,1.215,-0.185675,-0.585573,0.897619,99771.27,-181,+98,-60
105375,8.465,-3.798,1.639,-0.227712,-0.602068,0.901876,99772.27,-182,+96,-63
105385,8.684,-3.312,2.119,-0.204831,-0.628141,0.927417,99771.49,-181,+92,-64
105395,9.005,-3.646,1.832,-0.143107,-0.641976,0.964133,99770.24,-181,+92,-64
105405,9.238,-4.556,1.379,-0.106391,-0.640912,0.981692,99770.24,-181,+90,-65
105415,9.269,-5.275,1.059,-0.141510,-0.626545,0.972114,99772.74,-180,+87,-67
105425,8.927,-5.369,1.261,-0.261767,-0.591958,0.950298,99772.63,-181,+84,-68
105435,8.708,-5.166,1.545,-0.391602,-0.546729,0.935399,99770.34,-180,+81,-69
105445,8.958,-4.707,1.460,-0.487914,-0.518527,0.949766,99773.32,-180,+81,-69
105455,9.218,-4.472,1.259,-0.517712,-0.520655,0.976903,99773.32,-180,+79,-71
105465,9.219,-4.641,1.305,-0.513987,-0.540875,1.004041,99773.42,-180,+77,-72
105476,9.277,-4.944,1.654,-0.536336,-0.560031,1.047674,99773.31,-179,+74,-73
105485,9.486,-5.459,1.704,-0.569327,-0.591958,1.087050,99769.61,-179,+74,-73
105495,9.762,-5.746,1.851,-0.656061,-0.616435,1.126958,99772.28,-178,+71,-75
105505,9.428,-6.554,2.878,-0.782703,-0.612710,1.177509,99772.28,-178,+69,-76
105516,9.920,-6.938,3.376,-0.971956,-0.563933,1.248457,99773.27,-178,+67,-77
105525,10.888,-5.991,1.673,-1.151987,-0.599940,1.271692,99772.02,-178,+67,-77
105535,11.720,-5.088,0.393,-1.211583,-0.680820,1.289252,99773.48,-178,+65,-79
105545,11.903,-4.849,-0.240,-1.236060,-0.770747,1.343527,99771.71,-176,+62,-80
105555,12.198,-4.095,-0.547,-1.220629,-0.862270,1.430793,99771.71,-175,+59,-83
105566,12.621,-3.815,-0.786,-1.144537,-0.978802,1.519655,99771.99,-175,+59,-83
105575,13.076,-4.039,-0.731,-1.028537,-1.111829,1.604793,99771.05,-173,+56,-85
105585,13.264,-4.624,-0.429,-0.958299,-1.223040,1.677692,99770.54,-171,+52,-88
105595,13.313,-5.203,0.047,-0.999803,-1.294875,1.743674,99767.93,-169,+49,-91
105605,13.571,-5.346,0.627,-1.125381,-1.344893,1.781986,99767.93,-169,+49,-91
105615,14.224,-5.461,1.147,-1.294592,-1.391719,1.831472,99771.77,-167,+45,-95
105625,15.761,-5.157,2.184,-1.469656,-1.467811,1.836793,99771.52,-164,+42,-99
105635,17.982,-4.316,4.846,-1.650574,-1.560930,1.806463,99770.95,-160,+39,-103
105646,19.357,-3.245,6.999,-1.784665,-1.571572,1.847435,99771.62,-160,+39,-103
105655,19.844,-2.166,7.674,-1.914500,-1.581150,2.066664,99771.62,-157,+39,-107
105665,20.278,-1.374,6.725,-2.066151,-1.668416,2.328994,99770.05,-152,+35,-110
105675,20.154,-3.501,3.800,-1.934188,-1.855186,2.670609,99770.84,-148,+33,-115
105686,18.924,-7.222,2.654,-1.568097,-2.023333,2.980829,99769.32,-148,+33,-115
105695,17.194,-9.071,3.782,-1.405803,-2.030783,2.970187,99769.32,-143,+28,-121
105705,15.386,-8.331,5.156,-1.743161,-1.797186,2.831838,99769.32,-137,+23,-124
105715,13.915,-6.008,6.203,-2.027307,-1.451847,2.689233,99770.98,-132,+21,-127
105725,13.097,-3.124,5.967,-1.931528,-1.187389,2.460958,99769.16,-132,+21,-127
105736,10.692,-0.671,4.996,-1.683564,-0.983059,2.009728,99770.47,-128,+20,-130
105745,8.234,-0.337,4.412,-1.390904,-0.660600,1.528701,99769.84,-125,+18,-132
105751,6.626,1.307,0.745,-1.285546,-0.629206,1.203050,99769.84,-125,+18,-132
105760,1.100,-2.151,-1.381,-1.498390,-0.619096,1.145582,99769.84,-121,+20,-132
105771,0.757,-10.093,-0.767,-1.636207,-0.038032,1.249876,99772.65,-121,+20,-134
105781,2.543,-7.954,0.660,-1.786262,0.461087,0.735858,99768.95,-122,+23,-133
105790,3.166,-1.313,1.127,-1.976225,0.817069,0.064335,99767.79,-122,+23,-133
105800,2.684,3.993,1.271,-1.877252,0.993729,-0.360288,99768.40,-123,+29,-131
105810,2.641,5.628,0.728,-1.312152,1.069821,-0.559830,99767.98,-125,+34,-129
105821,2.206,5.598,0.275,-0.498024,1.118243,-0.694453,99767.77,-126,+35,-126
105830,2.339,5.201,0.036,0.312911,1.161876,-0.846105,99767.77,-126,+35,-126
105840,2.668,3.910,-0.039,0.999333,1.166133,-0.987646,99769.80,-128,+37,-124
105850,2.719,2.270,-0.055,1.577204,1.202848,-1.175480,99767.55,-129,+37,-122
105861,2.999,0.828,0.000,2.033222,1.294371,-1.444196,99767.55,-132,+36,-118
105870,3.264,-0.184,0.006,2.318965,1.424738,-1.743774,99768.99,-132,+36,-118
105880,3.349,-1.073,0.087,2.411552,1.577454,-2.057186,99766.18,-135,+36,-114
105890,3.421,-1.644,0.130,2.356745,1.741876,-2.345590,99765.60,-137,+37,-111
105901,3.784,-1.623,-0.069,2.225314,1.916407,-2.611645,99765.18,-140,+40,-106
105911,4.563,-0.951,-0.533,2.088030,2.079765,-2.860672,99767.53,-140,+40,-106
105920,5.534,-0.504,-0.836,1.941699,2.264407,-3.103846,99766.17,-143,+45,-102
105930,6.580,-0.721,-0.924,1.789516,2.403820,-3.315626,99766.33,-146,+50,-98
105940,7.199,-1.482,-0.962,1.645314,2.461820,-3.532727,99764.19,-148,+56,-91
105951,7.523,-2.481,-0.912,1.464397,2.502260,-3.782286,99764.19,-148,+56,-91
105960,7.785,-3.859,-0.830,1.178122,2.617196,-4.045681,99764.19,-151,+66,-88
105970,8.369,-5.078,-0.717,0.846617,2.833232,-4.267570,99767.26,-153,+75,-83
105980,9.286,-5.035,-1.108,0.579498,3.083856,-4.400065,99767.10,-154,+86,-77
105986,10.011,-4.808,-1.556,0.535333,3.258388,-4.418158,99767.82,-154,+86,-77
105996,10.878,-4.945,-2.247,0.713590,3.344590,-4.397405,99768.04,-155,+98,-70
106005,12.117,-5.969,-3.281,1.186103,3.306278,-4.339405,99768.04,-156,+107,-66
106015,13.398,-7.703,-3.985,1.722470,3.162608,-4.264378,99767.30,-156,+107,-66
106025,14.433,-9.940,-4.448,2.123681,2.958278,-4.163277,99768.45,-156,+117,-61
106036,14.970,-12.221,-4.880,2.250323,2.759801,-4.031313,99769.39,-155,+124,-58
106045,14.813,-14.148,-5.187,2.115699,2.607618,-3.889772,99767.61,-154,+132,-56
106055,14.044,-16.087,-5.472,1.796965,2.483636,-3.718965,99767.61,-154,+132,-56
106065,12.508,-18.017,-5.373,1.394158,2.350077,-3.488562,99772.38,-154,+140,-52
106076,10.909,-18.825,-4.483,1.016893,2.263875,-3.221975,99772.17,-152,+147,-49
106085,9.908,-18.016,-3.673,0.730618,2.232481,-2.912819,99773.06,-151,+154,-46
106095,9.692,-16.208,-3.846,0.566728,2.204811,-2.536617,99771.70,-151,+154,-46
106105,9.802,-14.768,-5.075,0.545975,2.114352,-2.142324,99771.70,-150,+158,-41
106116,9.609,-14.664,-6.088,0.532141,1.938756,-1.736324,99774.23,-150,+164,-38
106126,9.243,-15.077,-7.298,0.389535,1.698775,-1.379279,99773.70,-150,+166,-35
106135,8.860,-15.448,-8.201,0.102196,1.408775,-1.086086,99773.86,-150,+166,-35
106145,8.550,-14.739,-8.845,-0.237822,1.068757,-0.777462,99771.41,-150,+168,-32
106156,9.190,-12.303,-9.008,-0.361804,0.682977,-0.395408,99771.41,-151,+170,-30
106166,9.151,-12.228,-6.726,-0.164923,0.289748,0.136702,99775.03,-152,+169,-30
106175,8.467,-9.801,3.603,0.521498,0.013051,0.687968,99774.67,-152,+169,-30
106185,19.708,1.345,20.354,0.675278,0.305179,0.903472,99772.42,-155,+166,-31
106195,29.859,12.600,10.319,-0.109584,-0.068362,0.512372,99766.73,-155,+165,-31
106206,20.677,-3.233,-5.813,0.549168,-0.726582,1.674499,99766.73,-158,+160,-34
106216,13.609,-18.984,-4.468,1.944892,-1.571040,2.541838,99777.48,-158,+160,-34
106221,11.529,-15.798,-2.434,2.395589,-1.749829,2.066132,99773.48,-161,+151,-41
106230,8.504,-8.625,-6.781,1.320727,-1.493352,1.621820,99773.48,-161,+145,-45
106241,7.212,-4.684,-3.915,-0.219198,-0.982526,1.502096,99772.06,-161,+145,-45
106251,8.309,-3.701,0.904,-0.498024,-0.638251,1.494646,99771.75,-162,+141,-45
106261,9.209,-0.858,2.848,-0.582629,-0.487664,1.412169,99771.75,-164,+137,-46
106270,8.985,0.732,5.087,-0.523033,-0.516398,1.441967,99770.84,-166,+134,-48
106280,7.361,-2.439,4.138,-0.256446,-0.711683,1.388756,99771.90,-166,+134,-48
106291,6.662,-4.474,2.529,0.060159,-0.804270,1.163142,99771.07,-166,+130,-49
106300,7.590,-3.569,2.004,0.212875,-0.703701,0.960408,99771.07,-166,+127,-51
106310,8.813,-3.201,1.046,0.129333,-0.570141,0.865160,99771.07,-168,+124,-53
106320,9.852,-3.008,0.014,0.045792,-0.464784,0.819931,99774.20,-168,+124,-53
106331,10.282,-2.999,-0.045,0.011737,-0.333885,0.777362,99770.34,-168,+122,-53
106341,9.712,-3.019,0.883,0.006948,-0.216288,0.721491,99771.80,-168,+119,-53
106350,8.826,-2.771,2.488,0.047921,-0.185958,0.652316,99771.38,-168,+118,-54
106360,8.436,-2.817,3.497,0.088361,-0.214160,0.592188,99771.38,-168,+118,-54
106371,8.582,-3.327,3.751,0.054838,-0.248747,0.546959,99771.23,-169,+115,-55
106381,8.942,-3.682,3.322,-0.068079,-0.267903,0.510243,99770.34,-169,+115,-55
106391,9.094,-3.535,2.848,-0.238354,-0.279609,0.486298,99770.55,-169,+113,-57
106400,8.964,-2.987,2.727,-0.377767,-0.281206,0.488959,99770.55,-169,+113,-57
106411,9.034,-2.475,2.577,-0.466097,-0.280142,0.516628,99774.38,-169,+113,-57
106421,9.385,-2.264,2.391,-0.484189,-0.300894,0.563454,99774.38,-170,+112,-56
106431,9.535,-2.244,2.660,-0.471951,-0.333353,0.606555,99770.01,-169,+111,-58
106440,9.435,-2.390,2.875,-0.427253,-0.361554,0.656573,99773.40,-169,+111,-58
106450,8.878,-2.709,2.901,-0.430978,-0.403059,0.673069,99771.15,-171,+109,-58
106461,8.526,-3.050,2.642,-0.449070,-0.437646,0.659234,99771.15,-170,+107,-58
106471,8.557,-3.148,2.459,-0.474611,-0.465316,0.635289,99773.16,-170,+105,-59
106481,8.740,-2.935,2.578,-0.485785,-0.484472,0.614537,99770.39,-170,+105,-59
106490,8.819,-2.847,2.408,-0.427253,-0.498307,0.601766,99769.03,-171,+104,-60
106501,8.854,-3.051,1.667,-0.323492,-0.529169,0.610280,99767.57,-170,+103,-61
106511,8.823,-3.278,1.524,-0.227712,-0.550985,0.614005,99771.95,-170,+102,-63
106521,8.745,-3.465,1.642,-0.189932,-0.546196,0.625179,99770.23,-170,+102,-63
106530,8.636,-3.321,1.672,-0.180354,-0.536618,0.645931,99770.49,-170,+100,-64
106541,8.582,-3.300,1.717,-0.151620,-0.529169,0.664023,99770.49,-169,+98,-65
106551,8.654,-3.333,1.658,-0.111712,-0.537683,0.685307,99772.16,-170,+96,-66
106560,8.748,-3.706,1.547,-0.074997,-0.547793,0.693821,99772.16,-170,+96,-66
106570,8.882,-4.157,1.116,-0.064887,-0.555774,0.687968,99773.04,-170,+94,-67
106576,8.999,-4.358,0.858,-0.089364,-0.555774,0.674133,99771.16,-170,+92,-68
106586,9.043,-4.442,0.758,-0.129804,-0.553646,0.652316,99770.70,-170,+92,-68
106596,9.134,-4.300,1.010,-0.207492,-0.533426,0.628904,99771.48,-168,+91,-69
106605,8.991,-4.134,1.086,-0.249529,-0.510545,0.616133,99771.48,-169,+88,-71
106615,8.857,-4.113,1.176,-0.275602,-0.500967,0.612408,99773.52,-169,+88,-72
106626,8.963,-4.018,1.208,-0.274538,-0.492453,0.612940,99770.96,-169,+88,-72
106636,9.060,-4.022,1.273,-0.283052,-0.490857,0.630500,99773.46,-169,+87,-74
106646,9.074,-4.015,1.369,-0.297951,-0.500435,0.652849,99772.84,-168,+84,-75
106655,9.154,-3.869,1.430,-0.322960,-0.519059,0.689032,99772.84,-168,+83,-76
106665,9.045,-3.869,1.500,-0.317107,-0.547793,0.730537,99772.80,-168,+83,-76
106676,9.011,-4.107,1.541,-0.308061,-0.594618,0.773105,99770.87,-167,+83,-77
106686,9.048,-4.393,1.417,-0.335198,-0.644105,0.815142,99771.02,-167,+79,-79
106695,9.051,-4.540,1.150,-0.386813,-0.674435,0.853454,99769.93,-166,+77,-79
106705,9.037,-4.612,0.952,-0.434703,-0.701040,0.890702,99769.93,-166,+77,-79
106716,9.079,-4.730,0.743,-0.468758,-0.728710,0.931142,99771.98,-166,+75,-81
106726,9.101,-4.441,0.631,-0.486317,-0.762233,0.969986,99772.61,-165,+73,-83
106736,9.149,-4.461,0.650,-0.476740,-0.797352,1.001381,99772.03,-164,+71,-85
106745,9.239,-4.899,0.616,-0.449602,-0.830343,1.050335,99768.59,-164,+71,-85
106756,9.547,-5.116,0.558,-0.465565,-0.849499,1.095032,99768.59,-163,+69,-87
106766,10.091,-4.736,-0.149,-0.508134,-0.885150,1.125894,99773.25,-162,+66,-89
106776,10.357,-4.738,-0.489,-0.536336,-0.943682,1.150371,99774.19,-161,+64,-91
106785,10.882,-4.809,-0.405,-0.560281,-1.018710,1.175912,99774.97,-161,+64,-91
106796,11.641,-5.158,-0.118,-0.606042,-1.090013,1.194536,99773.36,-159,+62,-93
106806,12.241,-5.675,0.290,-0.689583,-1.172490,1.207839,99773.36,-158,+59,-96
106811,12.501,-6.257,0.568,-0.786427,-1.219847,1.225399,99770.22,-158,+59,-96
106820,12.821,-6.868,0.403,-0.946592,-1.240600,1.249876,99770.22,-156,+57,-99
106830,13.749,-7.643,0.340,-1.270647,-1.257627,1.264775,99772.03,-154,+56,-101
106841,15.590,-7.829,1.065,-1.723473,-1.279976,1.251472,99770.00,-152,+55,-104
106851,18.349,-6.534,2.525,-2.304537,-1.283701,1.263711,99769.44,-152,+55,-104
106861,20.314,-3.517,2.966,-2.862188,-1.287957,1.383435,99772.14,-149,+56,-107
106871,20.910,-0.634,1.825,-3.050555,-1.412471,1.580316,99771.00,-148,+58,-109
106881,20.675,2.660,1.103,-2.686591,-1.722159,1.675564,99770.78,-144,+59,-113
106891,19.442,3.618,1.005,-1.850115,-2.158489,1.744738,99770.78,-144,+59,-113
106901,16.593,0.980,1.108,-0.802923,-2.603333,1.921398,99769.33,-140,+56,-118
106910,12.908,-3.713,1.608,0.026636,-2.794360,2.133710,99769.33,-134,+52,-123
106920,10.612,-7.444,3.051,0.484251,-2.709755,2.321013,99771.05,-128,+43,-129
106931,9.939,-9.004,3.472,0.492764,-2.496379,2.357728,99769.53,-128,+43,-129
106941,9.656,-8.354,2.759,0.199040,-2.260122,2.251838,99768.59,-123,+38,-134
106951,9.225,-6.447,2.179,-0.017529,-2.052067,1.988976,99770.47,-119,+32,-137
106960,8.149,-5.087,1.723,-0.038813,-1.888709,1.608518,99770.47,-114,+28,-142
106971,6.516,-4.297,1.455,-0.117033,-1.745572,1.224334,99772.23,-114,+28,-142
106981,4.673,-2.837,1.787,-0.254318,-1.547627,0.851858,99770.17,-109,+25,-144
106991,4.031,-0.345,0.838,-0.350097,-1.361921,0.444794,99769.50,-105,+25,-148
107001,1.736,-1.288,-0.921,-0.499088,-1.213462,0.250574,99769.50,-103,+25,-150
107011,0.038,-3.474,-0.035,-0.503345,-0.919205,0.206941,99769.50,-103,+25,-150
107021,1.298,-1.192,1.628,-0.387877,-0.688802,-0.283132,99771.53,-101,+26,-152
107031,2.376,1.820,2.110,-0.249529,-0.480747,-0.832802,99769.13,-101,+28,-154
107040,2.866,2.973,2.431,-0.096281,-0.306215,-1.174416,99767.47,-99,+30,-153
107046,3.061,2.714,1.873,0.072398,-0.233316,-1.348948,99767.25,-99,+30,-153
107056,2.735,2.166,0.759,0.227242,-0.206710,-1.523480,99767.25,-99,+33,-155
107066,2.274,1.075,-0.347,0.387407,-0.154032,-1.769315,99771.27,-99,+34,-156
107076,2.227,0.203,-0.745,0.524691,-0.050270,-2.021535,99766.88,-99,+34,-156
107085,2.600,0.096,-0.899,0.682728,0.058812,-2.296104,99767.97,-99,+37,-155
107096,3.237,0.561,-0.687,0.983902,0.141289,-2.557369,99765.05,-100,+39,-156
107106,4.033,0.695,-0.204,1.382984,0.231216,-2.811186,99765.05,-101,+41,-156
107116,4.852,0.571,0.175,1.726727,0.321142,-3.024562,99768.97,-101,+41,-156
107126,5.532,-0.183,0.246,1.951277,0.400427,-3.213993,99765.22,-103,+41,-155
107136,6.000,-1.638,0.204,2.044396,0.493546,-3.373094,99767.41,-104,+43,-155
107146,6.254,-3.241,-0.179,2.098140,0.601564,-3.509314,99767.19,-106,+44,-155
107156,6.462,-4.218,-0.751,2.176892,0.749491,-3.606158,99767.19,-106,+44,-155
107166,6.874,-5.068,-1.131,2.174763,0.924555,-3.616268,99769.96,-108,+46,-154
107175,7.621,-6.250,-0.999,2.060360,1.079931,-3.579020,99767.87,-112,+49,-153
107186,8.644,-7.285,-1.017,1.952874,1.164536,-3.597644,99765.99,-115,+50,-151
107196,9.513,-8.058,-1.273,1.922543,1.196463,-3.645002,99769.70,-115,+50,-151
107206,10.149,-8.947,-1.719,1.980011,1.207637,-3.628506,99769.70,-118,+53,-150
107216,10.739,-9.742,-2.062,2.108782,1.198591,-3.552415,99769.99,-120,+56,-147
107226,11.116,-10.545,-2.172,2.240745,1.169858,-3.434819,99771.13,-124,+58,-146
107236,11.311,-11.067,-2.432,2.313644,1.122500,-3.276782,99768.21,-124,+58,-146
107246,11.429,-11.321,-2.600,2.348231,1.047472,-3.089479,99768.41,-126,+60,-144
107255,11.487,-11.759,-2.766,2.367919,0.928280,-2.883021,99768.41,-128,+62,-144
107266,11.292,-12.503,-2.670,2.353020,0.784610,-2.666984,99771.73,-130,+62,-143
107276,10.612,-13.239,-2.371,2.273736,0.645729,-2.444030,99771.37,-130,+62,-143
107286,9.652,-13.407,-2.066,2.127938,0.532922,-2.214159,99771.99,-131,+62,-142
107296,8.946,-12.627,-1.834,1.976819,0.448849,-1.989608,99770.37,-132,+62,-142
107305,8.736,-11.370,-1.521,1.892745,0.388188,-1.766122,99770.37,-133,+62,-142
107316,8.620,-10.164,-1.413,1.898598,0.308904,-1.542636,99771.16,-133,+62,-142
107326,8.310,-9.409,-1.576,1.976819,0.210464,-1.347352,99771.88,-134,+61,-141
107336,8.174,-9.162,-1.624,2.052910,0.092335,-1.177077,99769.59,-133,+59,-141
107345,8.064,-9.139,-1.456,2.082176,-0.033243,-1.011591,99769.64,-134,+56,-142
107356,7.904,-8.973,-1.162,2.089626,-0.147646,-0.853554,99769.64,-134,+56,-142
107366,7.763,-8.710,-0.853,2.096011,-0.239169,-0.696582,99772.02,-134,+53,-141
107376,7.646,-8.495,-0.511,2.089094,-0.292912,-0.540674,99770.20,-133,+50,-143
107386,7.580,-8.501,-0.447,2.070470,-0.318453,-0.371463,99770.20,-134,+45,-144
107396,7.388,-8.383,-0.579,2.029497,-0.314729,-0.230454,99767.85,-132,+41,-145
107406,7.297,-8.456,-0.586,1.926268,-0.280142,-0.089445,99767.85,-132,+41,-145
107416,7.168,-9.181,-0.858,1.750140,-0.224802,0.056886,99773.73,-131,+36,-145
107426,6.748,-11.507,-0.058,1.547938,-0.167334,0.294207,99772.58,-131,+31,-144
107436,7.514,-13.266,-1.379,1.365425,-0.136472,0.480445,99772.38,-131,+26,-145
107446,6.749,-15.321,-4.596,0.887058,-0.119977,0.666151,99767.89,-131,+26,-145
107456,7.505,-14.465,-5.995,0.128801,-0.093903,0.838023,99767.89,-131,+24,-145
107466,7.843,-9.627,-3.572,-0.542721,-0.166270,0.844940,99773.00,-131,+22,-145
107475,9.992,-2.141,0.506,-0.723106,-0.083793,0.735326,99771.86,-130,+22,-145
107486,12.610,5.893,3.751,-0.741730,0.137565,0.452243,99770.45,-130,+22,-145
107496,14.439,7.330,3.688,-0.422996,0.257289,0.411271,99768.47,-130,+23,-145
107506,14.995,1.954,1.163,0.299076,0.120005,0.579417,99768.47,-131,+22,-145
107516,15.221,-3.906,-1.041,1.081810,0.024225,0.797050,99770.24,-130,+17,-144
107526,13.416,-4.969,-1.490,1.261663,-0.052931,0.801839,99772.96,-130,+17,-144
107536,9.760,-3.578,-0.448,0.852471,-0.012490,0.706060,99771.29,-130,+12,-145
107546,6.949,-3.041,0.026,0.412416,0.075308,0.698610,99769.99,-130,+9,-144
107556,6.644,-3.219,-0.361,0.238416,0.070519,0.687968,99769.99,-130,+7,-143
107566,7.664,-3.952,-0.713,0.218196,0.056684,0.641674,99773.34,-130,+7,-143
107576,8.776,-4.183,-0.490,0.127205,0.077436,0.581014,99773.97,-130,+6,-142
107586,9.067,-3.491,-0.377,0.023976,0.089675,0.526206,99771.83,-131,+3,-143
107596,8.793,-2.659,-0.331,0.025572,0.087546,0.502262,99769.17,-130,+2,-142
107606,8.601,-2.041,-0.293,0.122416,0.079033,0.507583,99769.17,-130,+2,-142
107616,8.823,-2.005,-0.300,0.240012,0.079565,0.523014,99774.80,-131,+1,-142
107626,9.456,-2.410,-0.328,0.326746,0.093399,0.550151,99772.51,-131,-1,-142
107636,9.643,-2.918,-0.296,0.375346,0.106170,0.549619,99770.90,-131,-3,-142
107646,9.306,-3.058,-0.143,0.376232,0.101381,0.512904,99771.05,-131,-3,-142
107656,9.024,-2.956,0.457,0.346434,0.088610,0.468739,99771.05,-130,-5,-142
107666,9.141,-3.052,1.211,0.348563,0.067326,0.441601,99770.94,-130,-7,-141
107676,9.464,-2.965,1.810,0.398049,0.003473,0.459693,99771.98,-129,-8,-141
107686,9.758,-2.850,2.468,0.436893,-0.090711,0.496940,99770.69,-129,-8,-141
107696,9.833,-3.025,2.773,0.478397,-0.190747,0.540041,99769.06,-129,-11,-141
107706,9.815,-3.159,2.131,0.532141,-0.291316,0.583142,99769.06,-129,-14,-141
107716,9.694,-3.365,1.418,0.533737,-0.382307,0.608683,99771.44,-127,-17,-140
107726,9.621,-3.627,0.870,0.530012,-0.445096,0.670408,99769.56,-127,-17,-140
107736,9.045,-2.372,0.465,0.492232,-0.462655,1.005637,99770.66,-125,-20,-142
107746,9.809,-3.912,-0.167,0.440618,-0.492453,1.449949,99769.63,-124,-24,-142
107756,9.380,-4.718,-0.259,0.383682,-0.548325,1.439839,99769.63,-120,-28,-143
107766,8.501,-4.115,-0.261,0.363994,-0.594618,1.224867,99774.63,-120,-28,-143
107777,8.627,-3.521,-0.432,0.379957,-0.598343,1.266371,99772.17,-119,-32,-144
107786,8.463,-3.298,-0.372,0.383150,-0.578123,1.286059,99771.39,-115,-35,-144
107796,7.687,-4.701,-0.244,0.371443,-0.562692,1.094500,99771.70,-112,-39,-144
107806,7.499,-6.174,0.567,0.244801,-0.537151,0.763527,99771.70,-112,-39,-144
107816,7.841,-4.868,0.807,0.220856,-0.539279,0.396372,99770.87,-110,-41,-145
107826,8.195,-4.128,0.672,0.265554,-0.542472,0.372427,99773.12,-109,-43,-146
107836,8.947,-4.159,1.006,0.070269,-0.558967,0.405950,99772.12,-106,-44,-148
107846,9.291,-4.778,0.101,-0.036153,-0.581316,0.461289,99769.99,-106,-44,-148
107856,9.367,-4.880,-0.572,-0.037217,-0.606857,0.472463,99769.99,-106,-45,-149
107867,8.832,-4.778,-0.689,-0.056905,-0.619628,0.461289,99773.98,-104,-45,-149
107876,8.477,-4.637,-0.724,-0.079786,-0.615903,0.434684,99773.40,-101,-45,-150
107886,8.430,-4.963,-0.851,-0.068611,-0.603132,0.396904,99771.05,-99,-47,-152
107896,8.576,-4.995,-0.633,-0.071272,-0.607921,0.397968,99771.15,-99,-47,-152
107907,8.750,-4.817,-0.690,-0.119162,-0.609518,0.404885,99771.15,-98,-48,-153
107916,8.898,-4.814,-0.736,-0.162263,-0.624949,0.407546,99773.34,-94,-47,-154
107926,9.027,-4.833,-0.539,-0.172373,-0.641444,0.400629,99771.62,-93,-49,-155
107936,9.323,-4.837,-0.630,-0.148428,-0.653683,0.362849,99771.51,-93,-49,-155
107947,9.634,-4.704,-1.023,-0.083510,-0.679756,0.317087,99771.20,-91,-48,-156
107956,9.708,-5.020,-1.040,-0.052116,-0.702105,0.308041,99771.20,-89,-49,-158
107966,9.954,-4.978,-1.063,-0.044666,-0.766490,0.334647,99771.17,-86,-49,-159
107976,9.983,-3.654,-0.835,-0.059033,-0.828747,0.468206,99770.08,-86,-49,-159
107986,10.686,0.489,-0.398,0.034618,-0.842049,1.153564,99773.38,-82,-50,-160
107996,10.545,-6.750,-0.711,0.193719,-0.853224,2.526407,99769.98,-77,-54,-161
108006,9.675,-7.916,-1.862,0.167645,-1.195370,1.635123,99769.98,-72,-57,-163
108016,10.912,-5.522,0.367,-0.119162,-1.125132,1.027986,99771.98,-72,-57,-163
108026,11.496,-7.642,-1.227,-0.318171,-1.072985,1.133344,99772.55,-68,-58,-164
108037,11.515,-5.996,-1.823,-0.377767,-1.066600,0.857711,99772.60,-63,-59,-166
108046,11.510,-5.396,-1.801,-0.561345,-1.083627,0.547491,99770.21,-59,-58,-169
108056,11.515,-5.099,-1.400,-0.677345,-1.105444,0.510243,99770.21,-59,-58,-169
108066,11.661,-5.008,-0.935,-0.708739,-1.177811,0.507050,99772.71,-56,-57,-169
108077,12.042,-4.649,-0.547,-0.693308,-1.310306,0.504390,99771.10,-51,-55,-172
108086,11.996,-4.464,-0.374,-0.605510,-1.456636,0.529399,99773.09,-47,-54,-175
108096,11.643,-4.662,-0.421,-0.536336,-1.587003,0.560261,99770.32,-47,-54,-175
108106,11.272,-4.610,-0.109,-0.558684,-1.691297,0.597154,99770.32,-42,-54,-177
108116,10.956,-4.502,0.810,-0.590079,-1.774306,0.623050,99769.41,-35,-51,-180
108127,11.184,-4.912,2.210,-0.587418,-1.867957,0.637417,99769.92,-28,-50,-182
108136,11.807,-5.901,3.544,-0.596464,-1.943517,0.636885,99768.83,-28,-50,-182
108146,11.942,-6.754,4.830,-0.684262,-1.949370,0.633160,99768.09,-21,-50,-184
108156,11.251,-7.104,4.940,-0.848684,-1.886581,0.660830,99768.09,-15,-47,-187
108167,11.347,-6.330,5.338,-1.073767,-1.846673,0.693289,99771.60,-8,-45,-189
108176,12.231,-6.264,6.658,-1.285014,-1.900948,0.798115,99771.07,-8,-45,-189
108186,12.686,-7.881,7.190,-1.289271,-2.028122,1.086518,99767.07,-1,-41,-191
108196,13.091,-8.406,4.976,-1.498922,-2.105278,1.339802,99770.04,+7,-37,-194
108207,12.676,-8.785,5.436,-1.822977,-2.181370,1.384500,99770.04,+15,-33,-196
108216,13.890,-9.107,5.471,-1.648445,-2.257462,1.510610,99770.48,+15,-33,-196
108226,13.969,-8.139,4.874,-1.184978,-2.335150,1.546261,99769.12,+25,-28,-197
108236,12.514,-6.993,3.594,-0.674684,-2.371865,1.493050,99770.68,+35,-25,-198
108247,12.197,-5.898,2.976,-0.234097,-2.345260,1.319050,99766.20,+43,-25,-197
108256,11.155,-4.562,1.244,0.054838,-2.333021,1.096628,99766.20,+43,-25,-197
108266,8.880,-5.037,0.261,0.335260,-2.474562,1.133344,99771.77,+52,-26,-196
108276,7.800,-6.683,0.521,0.955168,-2.694324,1.283931,99772.40,+61,-29,-194
108286,8.347,-5.357,0.569,1.713956,-2.961443,1.157821,99769.37,+71,-33,-190
108297,7.561,-2.934,2.392,2.486048,-2.947076,0.777362,99767.96,+71,-33,-190
108306,6.157,-2.828,3.312,3.062322,-2.697516,0.551216,99767.96,+81,-43,-184
108316,4.551,-3.400,3.053,3.437992,-2.529370,0.344225,99765.88,+89,-52,-178
108326,3.460,-4.080,2.845,3.618377,-2.319186,0.070188,99768.13,+95,-64,-170
108337,3.206,-4.511,2.348,3.415111,-1.993535,-0.203848,99767.08,+95,-64,-170
108346,2.980,-4.334,1.851,2.897901,-1.613076,-0.474692,99768.06,+99,-72,-162
108356,2.698,-4.034,1.700,2.351424,-1.201756,-0.777462,99768.06,+103,-79,-156
108366,2.904,-3.654,1.778,1.836874,-0.808527,-1.120141,99769.98,+102,-86,-150
108377,3.188,-3.233,1.703,1.385645,-0.454674,-1.440471,99766.79,+100,-86,-147
108387,3.497,-2.874,1.359,1.039241,-0.164674,-1.712911,99767.16,+100,-89,-147
108396,3.874,-2.495,0.846,0.859920,0.048170,-1.966196,99764.76,+96,-93,-144
108406,4.277,-2.121,0.357,0.851406,0.212060,-2.220544,99764.76,+91,-95,-141
108417,4.860,-1.762,-0.046,0.960489,0.342427,-2.459461,99769.38,+84,-100,-139
108427,5.419,-1.659,-0.201,1.159498,0.435014,-2.682415,99767.40,+84,-100,-139
108436,5.781,-1.802,0.051,1.451094,0.493014,-2.887810,99768.96,+78,-103,-135
108446,6.153,-2.003,0.625,1.754397,0.549418,-3.081498,99768.38,+69,-107,-131
108456,6.531,-2.069,0.929,2.028965,0.601564,-3.265608,99768.38,+59,-113,-125
108467,6.811,-2.649,1.259,2.349828,0.674995,-3.418855,99768.24,+59,-113,-125
108476,7.211,-3.323,1.302,2.703681,0.726078,-3.517828,99767.41,+50,-119,-119
108486,7.452,-4.000,1.245,3.103295,0.755876,-3.587534,99762.62,+38,-125,-111
108496,7.823,-4.649,1.356,3.470983,0.786739,-3.633828,99762.93,+27,-130,-102
108507,8.141,-5.304,1.233,3.714157,0.813876,-3.645534,99762.93,+27,-130,-102
108517,8.234,-6.696,1.087,3.826432,0.864959,-3.624250,99767.95,+15,-135,-92
108526,8.441,-8.449,1.171,3.782799,0.947968,-3.608286,99768.11,+3,-138,-82
108536,8.649,-9.912,1.360,3.592836,1.067160,-3.642341,99767.11,-6,-140,-72
108547,8.959,-10.763,1.820,3.303368,1.234775,-3.717369,99764.81,-6,-140,-72
108557,9.268,-11.062,2.040,2.972928,1.440169,-3.806231,99764.81,-17,-139,-63
108566,9.531,-11.249,1.810,2.641424,1.665252,-3.868488,99768.65,-28,-139,-55
108576,9.686,-11.530,1.352,2.290231,1.899380,-3.892965,99766.73,-39,-137,-50
108587,9.831,-11.467,0.836,1.915626,2.142022,-3.894029,99766.99,-39,-137,-50
108597,10.246,-11.129,0.340,1.581461,2.350609,-3.844011,99767.40,-50,-135,-44
108606,10.774,-10.899,-0.109,1.352654,2.475123,-3.755149,99767.40,-61,-132,-39
108616,11.099,-10.767,-0.683,1.229736,2.501196,-3.623718,99770.23,-72,-129,-33
108626,11.030,-10.918,-1.450,1.182911,2.487893,-3.465681,99771.39,-72,-129,-33
108637,10.773,-11.251,-2.154,1.151516,2.461820,-3.282635,99768.20,-82,-126,-28
108647,10.835,-11.360,-2.905,1.097773,2.412866,-3.086287,99772.02,-92,-121,-21
108656,11.144,-11.274,-3.502,1.040838,2.323471,-2.886745,99772.02,-100,-115,-16
108666,11.260,-11.003,-3.842,0.972727,2.174481,-2.704764,99774.80,-100,-115,-16
108677,10.989,-10.680,-3.913,0.908342,2.001013,-2.538746,99770.54,-107,-111,-11
108687,10.494,-10.795,-4.006,0.854067,1.825417,-2.363682,99771.52,-113,-106,-7
108697,9.535,-11.226,-3.962,0.763431,1.637937,-2.128312,99770.74,-119,-101,-3
108706,8.744,-11.304,-3.775,0.709333,1.483802,-1.899150,99770.74,-119,-101,-3
108717,8.290,-11.218,-3.501,0.699755,1.311399,-1.640544,99774.27,-122,-97,+0
108727,7.666,-11.513,-3.549,0.751370,1.084188,-1.356930,99772.60,-127,-94,+4
108736,6.688,-12.601,-4.185,0.809902,0.806959,-1.056288,99770.46,-128,-92,+7
108746,5.932,-14.672,-5.121,0.793406,0.513234,-0.689664,99769.95,-128,-92,+7
108756,5.873,-16.557,-5.959,0.624728,0.245051,-0.259720,99769.95,-129,-90,+8
108767,6.147,-16.845,-6.254,0.345902,0.022097,0.188317,99773.37,-129,-91,+9
108777,6.546,-14.793,-5.803,0.172434,-0.247683,0.612408,99772.32,-128,-92,+8
108786,7.623,-11.119,-3.214,0.307058,-0.568545,0.954555,99773.62,-128,-92,+8
108796,4.745,-11.743,6.120,0.582691,-0.562692,1.321711,99770.49,-126,-94,+7
108807,10.895,-5.609,23.345,0.954636,0.148207,1.529233,99770.49,-124,-98,+10
108817,22.956,8.594,12.279,-0.649143,0.917638,0.389454,99770.93,-122,-99,+10
108826,24.412,7.324,-4.851,-1.929931,0.090739,0.547491,99771.87,-122,-99,+10
108836,17.790,-6.891,-2.598,-0.292630,-0.901114,1.697912,99772.13,-121,-101,+7
108847,14.883,-10.945,1.407,0.961553,-1.341701,2.149673,99770.37,-116,-105,+6
108857,8.991,-4.793,-1.583,0.572581,-1.328398,1.889472,99770.37,-112,-110,+4
108867,6.753,-4.602,-4.865,0.197976,-0.913352,1.859674,99773.50,-108,-115,+3
108876,9.564,-8.948,-2.049,0.669957,-0.760105,2.111362,99769.27,-108,-115,+3
108887,12.886,-10.352,0.217,0.912599,-0.769150,2.100187,99770.42,-103,-118,+3
108897,11.481,-7.858,0.995,0.240544,-0.644637,1.894793,99772.09,-98,-122,+3
108906,7.421,-5.152,2.854,-0.608171,-0.372729,1.714408,99772.09,-94,-125,+1
108916,5.560,-3.515,4.266,-0.972666,-0.264178,1.569142,99772.21,-94,-125,+1
108926,6.286,-3.112,3.774,-0.901895,-0.409976,1.441435,99771.32,-91,-128,-1
108937,7.872,-2.887,2.668,-0.639033,-0.571738,1.337674,99767.30,-87,-129,-3
108947,9.164,-2.481,1.897,-0.423529,-0.615903,1.287656,99767.46,-85,-132,-4
108956,9.463,-2.813,1.459,-0.253786,-0.605793,1.274885,99767.46,-85,-132,-4
108966,9.030,-3.450,1.024,-0.114373,-0.568013,1.250408,99771.40,-81,-133,-6
108977,8.593,-3.962,1.075,0.027168,-0.503628,1.176445,99771.98,-78,-135,-7
108987,8.386,-4.302,1.627,0.114967,-0.453077,1.078004,99769.37,-75,-138,-7
108996,8.411,-4.331,2.232,0.089957,-0.403591,0.989674,99769.05,-75,-138,-7
109006,8.523,-4.077,2.524,-0.044666,-0.346655,0.929546,99769.05,-73,-139,-7
109017,8.665,-3.831,2.541,-0.197382,-0.304619,0.899215,99772.75,-71,-140,-7
109027,8.864,-3.348,2.524,-0.260703,-0.295573,0.904536,99774.00,-67,-141,-10
109037,8.854,-2.968,2.444,-0.236758,-0.321646,0.922096,99770.19,-67,-141,-10
109046,8.665,-3.046,2.318,-0.164923,-0.364747,0.949234,99767.64,-65,-142,-9
109057,8.473,-3.375,2.328,-0.136721,-0.398802,0.967858,99767.64,-62,-144,-11
109067,8.335,-3.799,2.531,-0.191529,-0.411573,0.971582,99773.23,-59,-146,-12
109077,8.310,-4.150,2.404,-0.285180,-0.415830,0.958280,99768.69,-59,-146,-12
109086,8.346,-4.455,2.083,-0.371914,-0.419022,0.944445,99769.73,-57,-147,-13
109096,8.493,-4.489,1.820,-0.450666,-0.409976,0.928481,99770.42,-54,-148,-15
109107,8.657,-4.110,1.804,-0.499088,-0.394013,0.927417,99770.42,-52,-149,-16
109117,8.704,-3.734,1.948,-0.484721,-0.396674,0.941784,99772.08,-52,-149,-16
109126,8.752,-3.424,2.103,-0.387345,-0.439775,0.979032,99770.56,-49,-149,-18
109136,8.627,-3.483,2.100,-0.254850,-0.500967,1.015747,99769.20,-46,-151,-19
109147,8.410,-4.270,1.618,-0.134593,-0.554710,1.035968,99769.88,-43,-151,-20
109157,8.335,-5.008,1.178,-0.107455,-0.567481,1.034371,99769.88,-43,-151,-20
109167,8.280,-5.531,0.885,-0.186208,-0.528459,1.012910,99771.05,-40,-152,-21
109176,8.299,-5.426,0.883,-0.312850,-0.467976,0.994995,99772.77,-36,-154,-22
109187,8.256,-5.073,1.041,-0.414483,-0.403591,0.975839,99773.86,-33,-153,-23
109197,8.121,-4.823,1.098,-0.419804,-0.373261,0.964133,99769.53,-33,-153,-23
109207,7.981,-4.751,1.451,-0.365529,-0.369536,0.950830,99769.53,-31,-154,-25
109216,7.853,-4.886,1.797,-0.310721,-0.387096,0.935399,99770.32,-28,-154,-26
109227,7.695,-5.353,1.482,-0.281455,-0.403059,0.927949,99773.02,-24,-156,-26
109237,8.023,-5.602,1.159,-0.267088,-0.415297,0.930610,99769.23,-24,-156,-26
109247,8.351,-5.801,1.277,-0.336795,-0.390288,0.928481,99771.62,-22,-156,-28
109256,8.501,-5.857,1.425,-0.458648,-0.347187,0.944977,99771.62,-19,-156,-29
109266,8.683,-5.624,1.461,-0.571455,-0.309408,0.975839,99772.84,-16,-157,-31
109277,8.915,-5.379,1.311,-0.641161,-0.303554,1.022133,99770.96,-16,-157,-31
109287,9.007,-5.261,1.549,-0.659253,-0.332288,1.075876,99770.34,-12,-156,-33
109297,8.830,-5.565,1.850,-0.649143,-0.391353,1.132280,99768.91,-8,-158,-35
109306,8.574,-5.928,2.025,-0.624134,-0.459463,1.183362,99768.91,-5,-158,-37
109317,7.651,-7.095,3.468,-0.631051,-0.470105,1.237637,99770.57,-5,-158,-37
109327,7.673,-8.461,4.293,-0.723638,-0.366343,1.295105,99767.87,-1,-157,-38
109337,9.276,-7.299,1.241,-0.917326,-0.374325,1.295637,99771.20,+3,-157,-41
109346,10.325,-6.428,-0.555,-0.985969,-0.459463,1.272224,99771.41,+5,-157,-44
109357,10.685,-6.278,-0.553,-1.026409,-0.522784,1.289784,99771.41,+5,-157,-44
109367,11.097,-5.375,-0.669,-1.007253,-0.605261,1.358426,99772.84,+10,-156,-47
109377,11.578,-5.340,-0.814,-0.868904,-0.729774,1.446224,99770.49,+16,-155,-49
109386,11.881,-6.060,-0.923,-0.742794,-0.847903,1.528701,99770.49,+21,-155,-51
109396,11.863,-6.532,-0.713,-0.724703,-0.915481,1.596279,99767.95,+27,-154,-53
109407,11.594,-6.851,-0.203,-0.809840,-0.942086,1.656940,99767.95,+27,-154,-53
109417,11.505,-6.763,0.664,-0.945528,-0.956453,1.719197,99773.19,+34,-154,-57
109427,11.805,-6.781,1.451,-1.071106,-0.980930,1.775068,99771.31,+39,-152,-59
109436,12.617,-7.030,2.099,-1.194556,-1.021370,1.830408,99769.89,+46,-151,-63
109447,13.751,-7.410,2.753,-1.340354,-1.069792,1.858077,99765.98,+46,-151,-63
109457,14.831,-7.617,3.422,-1.544684,-1.086288,1.864462,99765.98,+54,-149,-67
109467,16.392,-6.800,4.761,-1.822445,-1.053297,1.842646,99771.34,+59,-145,-71
109476,17.752,-5.013,6.638,-2.119362,-0.978802,1.807527,99769.88,+66,-141,-77
109487,18.498,-4.071,6.993,-2.348170,-0.953260,2.021967,99768.41,+66,-141,-77
109497,18.713,-4.015,5.167,-2.435436,-1.005407,2.347618,99766.23,+75,-135,-83
109507,17.426,-6.942,2.706,-2.228977,-1.188453,2.762132,99766.23,+83,-131,-88
109517,16.653,-9.151,2.438,-1.930995,-1.343829,3.052664,99771.25,+94,-126,-93
109527,15.701,-9.569,4.134,-1.831491,-1.336912,3.055856,99772.66,+94,-126,-93
109537,14.433,-8.840,5.363,-2.118298,-1.099591,2.908994,99770.16,+105,-120,-96
109547,13.331,-6.824,5.149,-2.394463,-0.799481,2.722224,99769.06,+115,-112,-101
109557,12.276,-4.997,4.978,-2.465234,-0.528105,2.483838,99769.06,+121,-105,-106
109566,10.992,-3.590,4.442,-2.321032,-0.361022,2.109233,99772.26,+121,-105,-106
109577,9.592,-2.772,3.904,-2.111381,-0.189683,1.679820,99771.32,+127,-98,-111
109587,7.963,-0.822,0.820,-1.992720,-0.173188,1.340867,99769.34,+130,-92,-115
109597,0.826,-3.769,-1.889,-2.120427,-0.080600,1.374389,99768.30,+134,-86,-121
109606,2.181,-9.157,-1.830,-2.085840,0.454702,1.217417,99768.30,+134,-86,-121
109617,3.124,-7.765,-0.293,-2.189069,0.892096,0.683179,99769.36,+136,-81,-126
109627,3.791,-3.997,0.765,-2.268885,1.244885,0.247381,99770.81,+134,-75,-132
109637,4.151,1.833,0.387,-2.165656,1.301289,-0.179371,99766.75,+131,-71,-137
109646,4.056,5.182,-0.082,-1.488812,1.171986,-0.439041,99767.80,+131,-71,-137
109657,3.730,5.444,-0.040,-0.428850,1.059711,-0.545995,99767.80,+128,-68,-140
109667,3.384,4.746,0.083,0.554489,0.971381,-0.676362,99766.94,+125,-71,-142
109677,3.370,3.496,-0.155,1.343076,0.887839,-0.833334,99767.94,+122,-77,-142
109687,3.280,1.960,-0.413,1.912433,0.836225,-0.994563,99765.27,+122,-77,-142
109697,3.236,0.348,-0.611,2.303534,0.860170,-1.218581,99765.64,+119,-84,-140
109707,3.244,-0.845,-0.812,2.531277,0.921362,-1.527737,99765.64,+113,-93,-137
109717,3.196,-1.638,-0.726,2.638231,1.026720,-1.834764,99767.05,+107,-103,-134
109727,3.311,-2.183,-0.496,2.643552,1.161344,-2.119975,99766.42,+107,-103,-134
109736,3.817,-2.311,-0.176,2.556818,1.317784,-2.410507,99764.75,+98,-113,-131
109747,4.594,-2.254,0.093,2.416873,1.490188,-2.694122,99763.77,+88,-123,-127
109757,5.817,-1.415,-0.498,2.283136,1.648934,-2.963724,99763.77,+76,-132,-123
109767,6.687,-1.254,-1.039,2.151883,1.790298,-3.173553,99766.13,+76,-132,-123
109777,7.502,-2.284,-1.142,1.962984,1.908426,-3.349681,99764.09,+62,-140,-120
109787,7.926,-3.634,-1.203,1.769828,1.942481,-3.532195,99765.87,+47,-148,-115
109797,8.054,-4.474,-1.178,1.613920,1.959508,-3.747167,99764.20,+29,-154,-111
109807,8.022,-5.209,-0.957,1.427149,2.013783,-3.967460,99764.20,+29,-154,-111
109817,8.199,-5.644,-0.483,1.203663,2.168095,-4.176047,99764.49,+10,-158,-106
109827,8.953,-5.258,0.075,1.063718,2.346352,-4.317589,99765.27,-8,-160,-101
109837,9.847,-4.596,0.406,1.135021,2.482040,-4.366011,99764.65,-29,-159,-95
109847,11.079,-4.503,-0.247,1.412782,2.500132,-4.384102,99765.27,-29,-159,-95
109857,12.089,-5.527,-1.273,1.854433,2.414462,-4.364946,99765.27,-50,-157,-85
109867,12.574,-7.210,-1.948,2.317369,2.256958,-4.283001,99770.29,-70,-152,-75
109877,12.657,-8.882,-2.163,2.682396,2.048371,-4.177112,99767.52,-87,-146,-63
109887,12.876,-10.194,-1.818,2.875552,1.861068,-4.128158,99769.20,-102,-138,-50
109897,13.297,-11.109,-0.949,2.820213,1.740279,-4.136671,99768.46,-102,-138,-50
109906,13.370,-11.677,-0.326,2.591938,1.680683,-4.130818,99768.46,-113,-126,-38
109917,13.154,-12.239,-0.168,2.354084,1.659399,-4.068561,99771.24,-122,-113,-28
109927,12.571,-12.810,-0.403,2.100800,1.673233,-3.938194,99771.29,-127,-100,-21
109937,11.743,-13.415,-0.587,1.854965,1.725380,-3.746103,99772.85,-127,-100,-21
109947,10.938,-13.832,-0.618,1.624030,1.800408,-3.504525,99770.93,-127,-88,-14
109957,10.117,-14.002,-0.627,1.433002,1.872774,-3.222507,99770.93,-128,-77,-10
109967,9.595,-14.389,-1.078,1.200470,1.947802,-2.939424,99775.43,-128,-69,-6
109977,9.011,-14.979,-1.739,0.810434,2.001013,-2.625480,99775.21,-128,-69,-6
109987,8.162,-15.286,-2.540,0.316636,2.052628,-2.282269,99770.68,-126,-62,-3
109992,7.651,-15.477,-2.930,-0.055309,2.073912,-2.011957,99771.30,-126,-62,-3
110002,7.288,-15.959,-3.489,-0.418740,2.026022,-1.714508,99771.30,-124,-57,+0
110012,6.968,-16.815,-4.725,-0.844959,1.861600,-1.272324,99771.30,-122,-54,+0
110022,7.096,-16.551,-6.493,-1.121657,1.535949,-0.781187,99773.46,-120,-52,-1
110032,7.756,-15.087,-7.282,-1.173803,1.052793,-0.225133,99774.20,-120,-52,-1
110043,7.756,-12.977,-6.948,-1.020556,0.467473,0.352207,99771.88,-118,-52,-1
110052,7.557,-10.099,-5.847,-0.609767,-0.142325,0.900280,99771.88,-114,-54,-4
110062,7.823,-8.948,-4.800,0.065480,-0.652618,1.324903,99774.65,-111,-56,-7
110072,6.418,-7.788,2.781,1.003058,-1.039994,1.770811,99774.65,-111,-56,-7
110082,16.090,5.390,21.676,1.809204,-0.731903,1.678756,99771.41,-106,-60,-7
110092,32.617,19.591,3.732,0.433168,0.093932,0.376152,99768.70,-103,-64,-7
110102,22.405,-0.074,-12.871,-0.301143,-1.037334,1.649490,99772.77,-98,-67,-11
110112,16.409,-19.127,-3.979,1.864011,-1.641278,2.895159,99772.77,-92,-74,-11
110123,9.594,-19.156,3.549,1.762910,-1.417792,2.294939,99771.41,-92,-74,-11
110132,4.871,-16.306,-1.632,0.072930,-0.508949,2.298132,99772.81,-87,-79,-12
110142,9.633,-11.638,-1.849,-0.448538,-0.495114,2.377949,99771.30,-82,-84,-14
110152,10.908,-6.324,2.994,0.309719,-0.800545,1.879362,99770.96,-78,-87,-15
110162,8.741,-3.640,4.907,0.127205,-0.728710,1.617031,99770.24,-78,-87,-15
110173,5.521,-3.107,5.500,-0.288373,-0.792563,1.581912,99772.16,-74,-90,-17
110182,5.125,-3.866,4.676,-0.473015,-0.910160,1.430261,99768.73,-70,-92,-19
110192,7.131,-4.006,2.782,-0.640629,-0.922398,1.247747,99768.73,-68,-94,-22
110202,8.502,-4.061,-0.205,-0.747583,-0.796820,1.170591,99770.40,-68,-94,-22
110212,9.447,-3.136,-0.955,-0.461308,-0.646765,1.096096,99770.40,-64,-96,-24
110222,10.181,-1.896,-0.295,-0.015400,-0.562160,1.063105,99775.05,-62,-97,-25
110232,9.611,-2.049,-0.171,0.249590,-0.512141,1.096628,99770.21,-59,-100,-25
110242,8.745,-3.101,0.769,0.429976,-0.442967,1.096096,99773.70,-59,-100,-25
110253,8.191,-4.775,2.112,0.442746,-0.384435,1.029050,99767.91,-56,-101,-25
110262,8.078,-5.667,3.071,0.264489,-0.351444,0.926353,99767.91,-54,-103,-25
110272,8.135,-5.126,3.892,-0.021254,-0.331756,0.815142,99772.46,-52,-104,-26
110282,8.223,-4.212,3.923,-0.331474,-0.317389,0.759270,99771.18,-52,-104,-26
110292,8.633,-3.308,3.028,-0.525694,-0.330692,0.768316,99771.45,-51,-105,-26
110303,9.110,-2.284,2.487,-0.490042,-0.375389,0.817803,99771.45,-49,-105,-28
110312,9.373,-1.807,2.346,-0.298483,-0.449885,0.897087,99771.45,-47,-107,-29
110322,9.269,-1.960,2.411,-0.096813,-0.544600,0.992867,99772.60,-47,-107,-29
110332,8.823,-3.022,2.407,-0.003694,-0.611114,1.071619,99771.82,-43,-107,-29
110342,8.283,-4.392,2.320,-0.049987,-0.638251,1.087582,99769.52,-41,-109,-31
110348,7.933,-5.043,2.201,-0.156409,-0.621756,1.066830,99768.79,-41,-109,-31
110357,7.924,-5.008,1.958,-0.310721,-0.572270,1.030114,99768.79,-37,-111,-33
110367,8.329,-4.569,1.751,-0.488446,-0.508949,0.989142,99772.32,-35,-111,-34
110377,8.667,-3.916,1.857,-0.536868,-0.492985,0.990206,99772.26,-31,-111,-36
110387,8.809,-3.444,1.855,-0.486317,-0.506288,1.018408,99769.55,-31,-111,-36
110397,8.773,-3.484,1.740,-0.383088,-0.547261,1.064169,99772.10,-29,-113,-36
110407,8.419,-4.102,1.687,-0.283584,-0.585573,1.088114,99772.10,-26,-113,-38
110417,8.168,-4.916,1.538,-0.224520,-0.601004,1.078536,99770.72,-23,-115,-38
110428,7.902,-5.389,1.274,-0.225584,-0.591426,1.051399,99770.09,-23,-115,-38
110437,7.730,-5.643,1.073,-0.280923,-0.544068,1.011491,99771.39,-19,-115,-40
110447,7.883,-5.468,1.079,-0.375107,-0.485004,0.986481,99767.33,-16,-116,-41
110457,8.120,-5.222,1.109,-0.458116,-0.431261,0.976903,99767.33,-14,-117,-42
110468,8.366,-4.945,1.296,-0.499620,-0.405187,0.985417,99774.96,-14,-117,-42
110477,8.530,-5.011,1.496,-0.503345,-0.401463,0.998720,99773.98,-10,-117,-43
110487,8.542,-5.280,1.678,-0.481528,-0.410508,1.014683,99769.34,-8,-117,-45
110497,8.552,-5.614,2.173,-0.511859,-0.427004,1.037032,99768.91,-5,-117,-46
110508,8.663,-5.488,2.463,-0.546978,-0.434986,1.070555,99768.91,-5,-117,-46
110518,8.848,-5.454,2.414,-0.555492,-0.467444,1.113124,99771.30,-2,-117,-49
110527,9.050,-5.416,2.059,-0.576776,-0.503628,1.170059,99772.04,+1,-118,-50
110537,9.161,-5.517,1.722,-0.624134,-0.533958,1.244555,99770.26,+5,-117,-52
110547,9.097,-5.849,1.662,-0.673088,-0.581316,1.321711,99771.10,+5,-117,-52
110557,8.234,-7.100,3.315,-0.753969,-0.583444,1.411637,99771.10,+9,-118,-52
110567,8.577,-8.626,4.237,-0.906152,-0.467444,1.505821,99774.29,+13,-118,-55
110577,10.178,-7.260,1.749,-1.138152,-0.476490,1.491986,99772.20,+17,-117,-58
110583,10.390,-6.575,1.147,-1.155712,-0.515334,1.492518,99770.38,+17,-117,-58
110593,10.634,-6.648,0.229,-1.258409,-0.532894,1.502096,99770.38,+22,-117,-62
110603,11.122,-5.952,-0.312,-1.282354,-0.584508,1.555839,99770.59,+28,-116,-65
110612,11.632,-5.449,-1.088,-1.240849,-0.655811,1.636187,99770.59,+28,-116,-65
110622,12.034,-5.282,-1.533,-1.155712,-0.764894,1.693123,99771.48,+33,-115,-66
110632,11.951,-5.596,-1.532,-1.064721,-0.889407,1.733031,99770.52,+38,-115,-70
110643,11.845,-6.139,-1.155,-1.031730,-0.980398,1.763894,99768.05,+45,-114,-72
110652,11.952,-6.467,-0.454,-1.061528,-1.041591,1.815508,99768.05,+45,-114,-72
110662,11.870,-6.724,0.409,-1.157308,-1.067664,1.864995,99768.05,+52,-113,-76
110672,11.709,-7.150,1.122,-1.321198,-1.053297,1.920866,99771.45,+58,-112,-78
110683,12.168,-7.508,2.116,-1.581931,-0.989444,1.979930,99769.73,+64,-110,-82
110692,13.390,-7.256,3.242,-1.962390,-0.887279,2.018242,99768.89,+64,-110,-82
110702,15.477,-6.381,3.854,-2.371582,-0.782453,2.023031,99769.36,+73,-105,-87
110712,17.730,-5.685,3.477,-2.685527,-0.725517,1.985251,99769.36,+79,-100,-93
110723,19.978,-5.287,2.652,-2.995215,-0.715407,2.154462,99771.63,+87,-94,-99
110733,21.016,-4.692,1.875,-3.158573,-0.796288,2.408811,99772.31,+87,-94,-99
110742,20.139,-5.674,2.004,-2.851545,-1.092673,2.740315,99769.28,+96,-88,-104
110752,18.806,-7.226,3.662,-2.257179,-1.418324,2.938260,99769.28,+107,-81,-110
110763,17.282,-8.431,5.709,-1.967711,-1.580086,2.903673,99769.23,+118,-75,-114
110773,15.757,-9.012,6.606,-1.879381,-1.559333,2.871214,99769.79,+118,-75,-114
110782,14.928,-8.347,6.940,-1.642592,-1.472600,2.783948,99769.79,+127,-69,-116
110792,13.777,-6.230,6.373,-1.386115,-1.400765,2.501398,99770.01,+138,-64,-119
110802,11.104,-3.679,6.030,-1.133895,-1.196967,1.998022,99768.02,+145,-61,-121
110813,9.050,-3.269,3.783,-1.021620,-0.876104,1.480279,99768.02,+145,-61,-121
110818,6.566,-1.373,0.221,-1.120592,-0.920802,1.156224,99771.44,+152,-58,-123
110827,2.640,-5.365,-2.037,-1.313748,-0.906967,1.187619,99770.30,+152,-58,-123
110837,2.136,-10.512,0.009,-1.402611,-0.345591,1.179637,99770.14,+157,-53,-125
110848,3.742,-5.671,1.411,-1.492005,-0.083261,0.408078,99766.48,+161,-50,-129
110858,3.709,-0.141,1.399,-1.379730,0.181198,-0.247481,99766.48,+162,-49,-132
110867,2.958,2.702,1.279,-1.204134,0.358922,-0.517261,99771.34,+162,-49,-136
110877,2.527,3.423,0.381,-0.745987,0.415326,-0.702967,99767.75,+162,-49,-136
110887,1.889,3.400,-0.482,-0.172905,0.417454,-0.904105,99766.81,+161,-49,-138
110898,1.901,2.768,-0.545,0.404434,0.432353,-1.085022,99769.05,+161,-53,-139
110907,1.907,1.840,-0.155,0.954104,0.456298,-1.246251,99769.05,+157,-60,-140
110917,1.982,0.904,0.494,1.438323,0.530262,-1.430361,99768.25,+157,-60,-140
110927,2.082,0.084,1.014,1.826231,0.663289,-1.657040,99767.31,+154,-68,-139
110938,2.150,-0.699,1.053,2.080048,0.828243,-1.912985,99768.19,+150,-77,-139
110948,2.362,-1.242,0.897,2.207754,0.999050,-2.150838,99765.53,+144,-88,-137
110957,2.590,-1.482,0.779,2.248194,1.177839,-2.369003,99765.53,+144,-88,-137
110967,3.343,-1.538,0.470,2.245002,1.368334,-2.598874,99765.67,+136,-98,-136
110978,4.616,-1.187,-0.270,2.225846,1.549252,-2.827681,99763.59,+126,-109,-134
110988,5.842,-1.121,-0.794,2.184341,1.705160,-3.016580,99763.28,+115,-121,-132
110997,6.420,-1.798,-0.907,2.137516,1.812114,-3.181002,99762.81,+115,-121,-132
111007,6.590,-2.780,-0.731,2.086433,1.886609,-3.366176,99762.81,+101,-130,-130
111017,6.511,-3.906,-0.553,1.937442,1.973343,-3.579020,99767.18,+87,-139,-127
111028,6.468,-5.005,-0.492,1.698525,2.131380,-3.827516,99766.82,+68,-146,-125
111038,6.747,-5.862,-0.067,1.408525,2.399563,-4.058451,99765.73,+68,-146,-125
111047,7.509,-6.315,0.287,1.112140,2.690095,-4.245222,99766.09,+50,-152,-121
111057,8.552,-6.974,0.136,0.876948,2.948168,-4.397405,99766.09,+29,-156,-120
111068,9.589,-8.022,-0.417,0.782232,3.133874,-4.498506,99765.41,+8,-157,-116
111078,10.629,-8.567,-1.246,0.855663,3.265838,-4.559166,99763.65,+8,-157,-116
111087,11.715,-8.985,-1.878,1.020617,3.372260,-4.556506,99767.87,-13,-156,-110
111097,12.680,-9.825,-2.197,1.162158,3.343526,-4.480414,99769.85,-34,-155,-105
111108,13.132,-9.949,-2.758,1.213773,3.234443,-4.352708,99769.85,-53,-152,-98
111118,13.413,-10.170,-2.906,1.332966,3.079599,-4.205845,99769.66,-53,-152,-98
111127,13.478,-10.869,-2.906,1.485681,2.892829,-4.034506,99770.55,-70,-148,-90
111137,13.325,-11.708,-3.112,1.645846,2.697545,-3.853057,99770.28,-84,-142,-82
111148,13.127,-12.623,-3.568,1.785259,2.539508,-3.671607,99769.70,-98,-137,-72
111158,12.814,-13.629,-3.952,1.857626,2.408077,-3.487497,99769.70,-98,-137,-72
111168,12.209,-14.712,-4.109,1.821975,2.264939,-3.278910,99773.66,-108,-133,-65
111177,11.116,-15.756,-4.120,1.652232,2.109563,-3.032012,99769.44,-118,-128,-57
111187,9.631,-16.451,-4.086,1.339883,1.976536,-2.713278,99769.22,-124,-123,-50
111198,8.645,-16.095,-3.907,0.972195,1.899380,-2.329627,99771.20,-124,-123,-50
111208,8.174,-14.919,-4.248,0.715186,1.813178,-1.988012,99771.20,-130,-119,-44
111217,7.645,-14.335,-4.896,0.592269,1.674830,-1.719829,99773.87,-136,-116,-40
111227,7.050,-14.619,-5.558,0.467755,1.483802,-1.412802,99772.51,-140,-113,-35
111238,6.626,-14.792,-6.342,0.254379,1.247013,-1.027022,99769.32,-140,-113,-35
111248,6.167,-14.833,-6.766,-0.032428,1.002775,-0.614637,99773.45,-141,-110,-33
111257,6.216,-14.773,-7.418,-0.222923,0.671803,-0.190013,99773.45,-142,-109,-31
111267,6.390,-13.968,-8.007,-0.206960,0.246647,0.222372,99775.21,-141,-109,-32
111278,6.832,-13.189,-7.845,-0.044134,-0.202986,0.665087,99772.96,-141,-109,-32
111288,7.318,-11.227,-6.851,0.216777,-0.726404,1.161191,99770.51,-139,-111,-33
111297,6.645,-8.237,0.731,0.552361,-0.992637,1.430793,99771.91,-135,-115,-34
111307,11.036,4.608,28.697,1.429810,-0.439242,1.536151,99771.91,-132,-120,-32
111318,35.002,27.889,16.663,0.175095,0.994793,-0.275683,99768.11,-132,-120,-32
111328,26.550,7.509,-13.720,-1.913436,-0.102417,0.634757,99774.06,-134,-118,-31
111338,16.745,-18.968,0.248,0.884929,-0.984655,2.652517,99772.59,-127,-123,-34
111347,12.075,-20.660,7.539,1.806011,-1.167701,2.317820,99766.91,-122,-130,-32
111357,4.966,-12.090,-2.218,0.501810,-0.946875,1.961306,99766.91,-115,-130,-34
111368,7.788,-6.222,-2.637,0.469884,-1.057554,2.081031,99774.55,-115,-134,-34
111378,9.552,-5.881,1.085,1.247828,-1.158123,1.770811,99772.05,-110,-139,-33
111387,8.681,-6.013,2.584,0.789682,-1.025627,1.649490,99771.47,-105,-145,-33
111397,7.623,-5.382,2.336,-0.047327,-0.852160,1.643637,99770.95,-101,-148,-36
111408,7.192,-6.332,2.118,-0.701822,-0.684013,1.506885,99770.95,-101,-148,-36
111418,8.067,-5.814,1.136,-1.238189,-0.502031,1.370133,99773.08,-96,-149,-39
111428,7.731,-3.424,-0.366,-1.193491,-0.425940,1.217949,99774.55,-92,-150,-42
111437,8.771,-1.052,0.980,-0.637437,-0.358362,1.091839,99770.16,-89,-151,-44
111448,9.625,-1.035,2.274,-0.181419,-0.388160,1.096628,99768.28,-89,-151,-44
111458,9.008,-2.652,1.942,0.175627,-0.459463,1.106206,99768.28,-85,-154,-44
111468,8.550,-4.400,2.195,0.343774,-0.470105,1.036500,99773.27,-82,-155,-45
111477,8.089,-5.704,2.870,0.244801,-0.420619,0.905069,99772.65,-78,-156,-44
111488,8.022,-5.462,3.452,-0.020721,-0.357830,0.762463,99770.09,-78,-156,-44
111498,8.225,-4.443,3.401,-0.326152,-0.295573,0.670408,99773.12,-77,-158,-45
111508,8.854,-3.314,2.908,-0.500684,-0.271628,0.642738,99773.12,-75,-159,-46
111517,9.185,-2.728,2.696,-0.523565,-0.288655,0.661894,99772.32,-73,-159,-48
111527,8.930,-2.634,2.841,-0.436299,-0.320050,0.700738,99769.96,-73,-159,-48
111538,8.502,-2.876,3.048,-0.323492,-0.361554,0.741179,99770.23,-70,-160,-49
111548,8.314,-3.481,3.216,-0.262299,-0.395609,0.775766,99770.80,-68,-162,-50
111557,8.384,-4.030,3.272,-0.284648,-0.406252,0.788004,99770.80,-65,-162,-52
111567,8.437,-4.197,3.275,-0.419272,-0.394013,0.773637,99772.70,-65,-162,-52
111578,8.358,-4.006,2.996,-0.563473,-0.392417,0.743839,99771.13,-63,-162,-55
111588,8.331,-3.490,2.751,-0.613492,-0.390288,0.731601,99771.45,-60,-162,-55
111598,8.508,-3.301,2.486,-0.575712,-0.411573,0.755014,99770.98,-57,-164,-58
111607,8.797,-3.639,1.934,-0.479932,-0.450417,0.786940,99770.98,-57,-164,-58
111618,8.881,-4.159,1.715,-0.399584,-0.475958,0.818867,99772.36,-54,-163,-60
111628,8.631,-4.598,1.597,-0.346373,-0.492985,0.835362,99771.94,-51,-164,-61
111638,8.437,-4.704,1.590,-0.334666,-0.493518,0.835362,99768.45,-48,-165,-63
111647,8.365,-4.745,1.739,-0.336795,-0.488197,0.826848,99771.63,-48,-165,-63
111657,8.362,-4.807,1.742,-0.338391,-0.481811,0.813546,99771.63,-46,-165,-64
111668,8.371,-4.900,1.536,-0.343180,-0.471701,0.803436,99771.77,-43,-166,-66
111678,8.529,-4.789,1.348,-0.355419,-0.455738,0.797582,99771.26,-40,-166,-66
111688,8.493,-4.759,1.409,-0.369253,-0.442967,0.799179,99772.66,-40,-166,-66
111697,8.352,-4.856,1.324,-0.371382,-0.433389,0.804500,99767.60,-36,-166,-68
111708,8.307,-4.938,1.336,-0.387877,-0.425940,0.808225,99767.60,-34,-167,-69
111718,8.272,-5.048,1.577,-0.418740,-0.421683,0.811949,99772.30,-30,-167,-71
111728,8.272,-5.035,1.742,-0.445345,-0.423811,0.828445,99770.67,-30,-167,-71
111737,8.380,-5.099,1.945,-0.517180,-0.434453,0.857711,99769.38,-27,-167,-72
111748,8.483,-5.325,2.402,-0.529418,-0.444031,0.897619,99770.78,-24,-168,-75
111758,8.562,-5.573,2.556,-0.535272,-0.449885,0.934867,99770.78,-21,-167,-76
111768,8.493,-5.987,2.700,-0.582629,-0.439775,0.979564,99771.35,-21,-167,-76
111777,8.863,-5.591,1.833,-0.701822,-0.448820,0.992335,99770.26,-17,-166,-79
111788,8.841,-5.639,1.509,-0.769932,-0.475958,1.022665,99770.26,-14,-167,-80
111798,8.868,-5.580,1.571,-0.820482,-0.497242,1.059380,99771.55,-9,-166,-84
111808,9.277,-5.141,0.716,-0.866244,-0.552050,1.094500,99771.55,-9,-166,-84
111818,9.428,-5.018,0.536,-0.818354,-0.633995,1.140793,99772.91,-5,-165,-85
111827,9.544,-5.318,0.406,-0.768868,-0.714875,1.190812,99772.03,+0,-165,-88
111838,9.798,-5.342,0.315,-0.739070,-0.796820,1.239234,99773.33,+3,-164,-90
111848,9.848,-5.530,0.498,-0.717785,-0.879297,1.290316,99771.88,+8,-163,-92
111858,9.959,-5.705,0.660,-0.700758,-0.954857,1.341931,99771.88,+8,-163,-92
111867,10.041,-5.896,0.765,-0.698629,-1.030948,1.389821,99771.78,+15,-162,-95
111878,10.133,-6.138,0.923,-0.711932,-1.100655,1.439307,99771.38,+21,-162,-98
111888,10.223,-6.350,1.019,-0.756629,-1.157591,1.491454,99768.50,+28,-162,-99
111898,10.387,-6.529,1.065,-0.853473,-1.193242,1.557967,99770.22,+28,-162,-99
111907,10.757,-6.746,1.084,-1.008317,-1.223040,1.626077,99770.22,+35,-160,-103
111918,11.625,-7.182,0.855,-1.202005,-1.255499,1.684609,99772.53,+42,-158,-106
111928,13.459,-7.812,1.138,-1.437198,-1.313499,1.701637,99769.30,+49,-154,-109
111938,16.503,-8.061,2.574,-1.771363,-1.363517,1.670775,99770.19,+49,-154,-109
111948,19.529,-6.441,4.631,-2.177894,-1.358196,1.720261,99768.78,+57,-150,-114
111958,20.651,-4.194,5.408,-2.399252,-1.357132,1.905967,99768.78,+65,-145,-120
111968,20.680,-2.399,4.843,-2.210353,-1.496012,2.102848,99768.23,+74,-139,-125
111978,19.500,-1.505,3.635,-1.750078,-1.733865,2.281105,99768.70,+74,-139,-125
111988,16.417,-4.108,1.251,-1.236060,-1.987682,2.463086,99769.32,+84,-134,-128
111997,12.647,-8.876,0.579,-1.029069,-2.098361,2.629636,99769.84,+96,-130,-129
112008,10.597,-10.765,1.974,-1.157840,-1.931278,2.684444,99769.84,+107,-125,-131
112018,10.536,-10.030,3.726,-1.284482,-1.646067,2.682315,99771.61,+107,-125,-131
112028,10.664,-8.378,4.348,-1.332904,-1.370967,2.630701,99773.69,+117,-119,-132
112037,10.469,-6.297,3.925,-1.328115,-1.174086,2.423178,99769.67,+125,-114,-134
112048,9.012,-4.523,3.461,-1.212647,-1.042123,2.049637,99766.70,+131,-108,-137
112058,7.062,-3.307,3.816,-1.045033,-0.821829,1.630866,99766.70,+131,-108,-137
112068,5.189,-2.557,3.282,-0.966280,-0.509481,1.208371,99769.87,+136,-104,-137
112078,4.319,-0.083,-0.416,-1.106758,-0.436582,0.770977,99769.09,+138,-101,-139
112088,-1.074,-3.500,-1.407,-1.327583,-0.208839,0.776298,99767.52,+140,-97,-142
112098,-0.670,-6.160,1.063,-1.264262,0.267399,0.714041,99768.93,+140,-97,-142
112108,2.575,-2.014,1.946,-1.231271,0.529729,-0.004307,99768.93,+140,-92,-144
112118,3.980,1.601,1.802,-1.172207,0.717032,-0.558765,99768.17,+137,-90,-148
112128,4.111,3.424,1.596,-0.895510,0.781950,-0.839187,99771.30,+133,-88,-150
112138,3.967,3.637,0.706,-0.354886,0.756408,-1.048838,99767.28,+133,-88,-150
112148,3.437,2.854,0.427,0.284177,0.719693,-1.212196,99766.97,+129,-89,-150
112158,3.167,1.013,0.527,0.827994,0.752151,-1.386728,99766.97,+124,-92,-149
112168,3.276,-0.290,0.255,1.178122,0.803766,-1.637352,99767.48,+117,-98,-149
112178,3.467,-0.337,-0.255,1.364360,0.856445,-1.928416,99765.81,+117,-98,-149
112188,3.568,-0.360,-0.154,1.521865,0.957546,-2.200324,99764.88,+112,-103,-147
112198,3.777,-0.697,0.275,1.702250,1.083124,-2.435516,99763.52,+104,-109,-144
112208,4.043,-0.919,0.470,1.876250,1.198059,-2.655278,99763.52,+95,-115,-141
112218,4.434,-1.228,0.492,2.003424,1.319380,-2.873443,99766.77,+95,-115,-141
112228,5.046,-1.533,0.662,2.080048,1.446555,-3.078305,99767.70,+84,-122,-137
112238,5.763,-1.805,0.782,2.111442,1.573197,-3.280507,99762.80,+72,-128,-134
112248,6.413,-2.478,0.691,2.078452,1.700903,-3.472066,99760.97,+59,-134,-128
112258,6.878,-3.734,0.388,1.992250,1.832866,-3.650855,99760.97,+59,-134,-128
112268,7.293,-4.896,-0.074,1.903387,1.972811,-3.831240,99766.88,+45,-139,-125
112278,7.678,-5.822,-0.340,1.796433,2.161178,-3.987681,99766.25,+31,-143,-120
112288,8.004,-6.714,-0.343,1.665534,2.352205,-4.076011,99762.34,+14,-145,-116
112297,8.578,-7.383,-0.422,1.593167,2.517691,-4.135075,99767.56,+14,-145,-116
112308,9.572,-8.051,-0.694,1.625626,2.645930,-4.208506,99767.56,-1,-146,-110
112318,10.663,-9.026,-1.279,1.766103,2.708187,-4.267570,99769.85,-19,-147,-106
112328,11.747,-10.913,-1.820,1.950213,2.697545,-4.258524,99767.66,-35,-146,-99
112338,12.407,-12.793,-2.486,2.013002,2.616664,-4.164873,99767.93,-50,-146,-92
112348,12.268,-14.008,-3.229,1.906048,2.559728,-4.004708,99768.55,-50,-145,-92
112358,11.862,-14.625,-3.776,1.685755,2.542701,-3.789736,99768.55,-66,-142,-86
112368,11.477,-15.630,-4.177,1.384048,2.551214,-3.509846,99771.66,-78,-139,-79
112378,10.782,-17.393,-4.461,1.092984,2.527269,-3.171956,99770.19,-90,-135,-74
112388,9.561,-19.002,-4.520,0.834379,2.483636,-2.827681,99771.61,-90,-135,-74
112398,8.164,-19.598,-4.703,0.569920,2.433086,-2.452012,99769.25,-99,-131,-68
112408,7.301,-18.816,-5.566,0.295352,2.371361,-1.997590,99769.25,-108,-128,-64
112418,7.430,-16.663,-6.752,0.097939,2.215453,-1.542104,99775.25,-115,-124,-60
112428,7.816,-14.677,-7.473,0.022379,1.930242,-1.161646,99772.91,-115,-124,-60
112438,7.743,-13.236,-8.372,0.045792,1.527967,-0.847701,99769.92,-120,-122,-57
112448,7.410,-12.704,-8.724,0.157003,1.027784,-0.580050,99773.38,-122,-120,-55
112458,6.913,-13.151,-7.495,0.300141,0.539840,-0.259188,99773.38,-124,-121,-53
112468,4.733,-15.082,-2.773,0.467578,0.194855,0.302011,99771.81,-124,-121,-53
112478,8.363,-14.251,5.341,0.679003,0.219509,0.736922,99768.52,-123,-122,-51
112488,24.344,-0.260,8.864,0.264489,0.033271,0.615069,99770.39,-122,-124,-51
112498,26.653,5.915,2.709,-0.426189,-0.297701,0.637417,99768.94,-120,-125,-52
112508,19.708,-7.592,-4.377,0.185205,-0.762765,1.700573,99768.94,-120,-125,-52
112518,10.688,-15.734,-3.089,0.952507,-1.408746,2.074114,99772.48,-114,-130,-53
112528,5.859,-11.015,-1.978,0.428379,-1.117150,1.610646,99772.59,-108,-134,-54
112538,5.535,-3.488,-0.481,-0.773657,-0.573334,1.391417,99771.55,-104,-136,-57
112548,5.580,-1.595,3.195,-0.755033,-0.397206,1.299894,99773.58,-104,-136,-57
112558,8.028,-2.343,3.806,-0.397455,-0.436582,1.315857,99773.58,-101,-138,-58
112568,9.236,-2.090,3.889,-0.220263,-0.616967,1.326500,99771.43,-97,-141,-60
112578,8.333,-4.090,3.343,-0.260703,-0.666453,1.298830,99769.18,-92,-143,-61
112588,7.447,-5.437,1.219,-0.357015,-0.649958,1.155160,99771.16,-92,-143,-61
112599,7.979,-4.370,0.388,-0.305932,-0.538747,1.012555,99767.68,-89,-143,-64
112608,8.787,-3.550,1.166,-0.332006,-0.378582,0.938591,99767.68,-87,-145,-65
112618,9.207,-3.258,1.660,-0.277730,-0.322178,0.917307,99773.40,-84,-146,-66
112628,8.952,-3.866,1.816,-0.143107,-0.333353,0.884316,99771.84,-84,-146,-66
112638,8.383,-4.734,2.125,-0.040410,-0.347720,0.811417,99769.80,-82,-147,-66
112648,8.145,-4.926,2.744,-0.042538,-0.357298,0.719894,99768.71,-78,-149,-67
112658,8.187,-4.662,3.097,-0.112776,-0.373261,0.642738,99768.71,-77,-149,-68
112668,8.566,-4.165,2.903,-0.191529,-0.367940,0.615069,99773.45,-77,-149,-68
112678,8.928,-3.578,2.573,-0.255914,-0.362619,0.617197,99772.20,-74,-150,-68
112689,8.756,-3.736,2.185,-0.230905,-0.367940,0.625711,99772.31,-73,-151,-71
112698,8.667,-3.870,2.021,-0.161731,-0.392417,0.631032,99770.69,-71,-152,-71
112704,8.577,-3.994,2.201,-0.124483,-0.403591,0.629436,99770.69,-71,-152,-71
112713,8.495,-4.254,2.349,-0.112244,-0.410508,0.629968,99770.69,-68,-152,-72
112723,8.447,-4.374,2.553,-0.122887,-0.416894,0.631564,99773.03,-65,-152,-72
112734,8.289,-4.295,2.736,-0.155877,-0.415830,0.636885,99769.80,-65,-152,-72
112743,8.115,-4.157,2.775,-0.189932,-0.423811,0.653381,99770.20,-63,-152,-73
112753,8.038,-4.104,2.463,-0.196318,-0.449885,0.682647,99770.21,-61,-153,-75
112763,8.171,-4.120,2.262,-0.187272,-0.480747,0.710316,99773.76,-58,-155,-76
112774,8.302,-4.315,1.995,-0.197914,-0.492453,0.739050,99769.18,-58,-155,-76
112783,8.370,-4.689,1.776,-0.226116,-0.499903,0.754481,99769.18,-56,-154,-77
112793,8.253,-4.838,1.782,-0.273474,-0.499371,0.742775,99772.62,-53,-155,-79
112803,7.985,-4.820,1.645,-0.330941,-0.488197,0.717234,99770.43,-50,-156,-80
112814,7.965,-4.951,1.261,-0.370850,-0.478619,0.692225,99770.43,-50,-156,-80
112823,8.155,-5.068,1.034,-0.370850,-0.477554,0.676794,99774.89,-47,-156,-80
112833,8.317,-4.964,0.971,-0.376171,-0.461059,0.670940,99772.17,-45,-156,-83
112843,8.286,-4.914,0.926,-0.368189,-0.443499,0.677858,99772.06,-42,-156,-84
112854,8.175,-4.854,0.907,-0.343180,-0.433389,0.689032,99771.34,-42,-156,-84
112864,8.158,-4.793,0.897,-0.307529,-0.433921,0.704995,99772.15,-40,-156,-85
112873,8.195,-5.130,0.974,-0.270281,-0.445096,0.718298,99771.82,-37,-157,-86
112883,8.436,-5.451,1.205,-0.280923,-0.446692,0.725748,99772.30,-35,-157,-87
112893,8.600,-5.539,1.342,-0.325620,-0.444564,0.733197,99770.37,-35,-157,-87
112903,8.665,-5.440,1.366,-0.366593,-0.448288,0.748628,99770.37,-32,-158,-88
112913,8.697,-5.303,1.232,-0.411290,-0.456802,0.774702,99770.37,-29,-158,-90
112923,8.748,-5.212,1.142,-0.457584,-0.464784,0.818867,99775.08,-26,-156,-91
112933,8.650,-5.191,1.152,-0.484189,-0.493518,0.866757,99772.22,-26,-156,-91
112939,8.606,-5.237,1.286,-0.498024,-0.518527,0.899747,99770.75,-22,-157,-92
112948,8.524,-5.556,1.497,-0.515051,-0.538215,0.943913,99771.64,-18,-156,-95
112958,8.449,-5.815,1.453,-0.538464,-0.577059,0.991270,99771.64,-18,-156,-95
112968,8.309,-6.160,1.782,-0.579969,-0.603664,1.027986,99773.53,-14,-156,-96
112978,8.426,-6.695,1.821,-0.661914,-0.607389,1.062041,99772.44,-10,-156,-99
112989,8.851,-6.937,1.650,-0.792813,-0.578123,1.105674,99769.78,-6,-156,-101
112998,9.603,-6.446,0.261,-0.962556,-0.568013,1.111527,99768.42,-6,-156,-101
113008,10.278,-6.002,-0.251,-1.023216,-0.616967,1.145050,99768.42,-2,-153,-103
113018,10.708,-5.410,-0.227,-1.030134,-0.704765,1.180169,99771.35,+1,-152,-107
113029,10.908,-5.097,-0.287,-0.949253,-0.828215,1.248279,99770.99,+7,-152,-109
113038,10.852,-5.418,-0.332,-0.854537,-0.952728,1.320646,99773.38,+7,-152,-109
113048,11.043,-6.120,-0.250,-0.830060,-1.067132,1.386096,99771.04,+13,-149,-112
113058,11.644,-6.663,0.095,-0.908813,-1.195370,1.430793,99771.04,+19,-148,-114
113069,12.743,-7.507,0.977,-1.026941,-1.354471,1.444628,99771.05,+26,-147,-117
113079,14.265,-8.613,2.460,-1.156244,-1.508251,1.441435,99769.91,+26,-147,-117
113088,16.446,-9.125,4.390,-1.368023,-1.587003,1.455802,99769.06,+33,-144,-120
113098,18.438,-8.379,6.296,-1.687821,-1.598710,1.549986,99768.75,+42,-139,-124
113108,18.617,-6.489,6.193,-2.046995,-1.524746,1.760169,99768.75,+50,-134,-128
113119,18.311,-4.374,4.579,-2.183216,-1.517297,1.943215,99772.04,+50,-134,-128
113128,18.448,-2.395,3.370,-2.026775,-1.627443,2.040059,99770.95,+59,-130,-133
113138,17.267,-2.401,2.111,-1.636207,-1.861572,2.153398,99769.80,+68,-124,-136
113148,14.019,-5.968,0.376,-1.144537,-2.134012,2.299196,99771.63,+79,-120,-137
113159,10.525,-9.558,0.234,-1.009913,-2.153700,2.453508,99771.63,+79,-120,-137
113169,9.768,-10.401,1.933,-0.973198,-1.954691,2.574829,99770.94,+90,-116,-139
113174,10.035,-9.793,2.984,-0.894978,-1.786012,2.596113,99771.45,+101,-112,-140
113183,9.834,-8.210,3.381,-0.873161,-1.610416,2.514701,99771.45,+101,-112,-140
113193,8.946,-5.698,3.466,-0.846024,-1.362453,2.243857,99764.89,+110,-108,-141
113204,7.184,-3.709,3.946,-0.744923,-1.136306,1.854885,99767.50,+117,-103,-141
113214,5.885,-2.031,3.722,-0.720978,-0.860673,1.407380,99767.50,+122,-100,-142
113223,4.746,-1.091,1.526,-0.914134,-0.604196,1.017344,99769.92,+122,-100,-142
113233,1.951,-1.907,-0.141,-1.256812,-0.376986,0.795454,99769.22,+126,-96,-142
113244,1.699,-2.472,0.559,-1.526592,-0.005041,0.558665,99766.97,+126,-91,-145
113253,3.178,0.695,2.342,-1.550005,0.340831,-0.009096,99766.97,+125,-87,-149
113263,4.836,3.644,2.464,-1.318537,0.549418,-0.556637,99766.97,+125,-87,-149
113273,5.101,4.509,1.670,-0.854005,0.513766,-0.873774,99769.95,+122,-84,-151
113284,4.090,2.696,0.926,-0.250061,0.463216,-1.057884,99767.76,+120,-84,-152
113294,4.105,1.606,0.148,0.342710,0.429161,-1.231352,99768.65,+117,-86,-152
113303,4.020,2.426,-0.417,0.846617,0.339234,-1.558067,99768.65,+117,-86,-152
113313,3.636,1.937,-0.359,1.314342,0.336042,-1.894893,99768.65,+112,-90,-150
113324,3.664,0.749,0.070,1.691076,0.371161,-2.166269,99767.27,+107,-96,-147
113334,3.925,0.206,0.485,1.955534,0.403087,-2.443498,99767.96,+101,-103,-143
113344,4.141,0.096,0.779,2.156672,0.465876,-2.735626,99766.26,+101,-103,-143
113353,4.512,-0.179,0.835,2.340250,0.542500,-2.975076,99766.26,+94,-111,-139
113363,4.957,-0.562,0.680,2.499350,0.590922,-3.210800,99768.50,+85,-118,-134
113374,5.687,-1.285,0.982,2.646745,0.630830,-3.448653,99768.50,+76,-126,-128
113383,6.579,-2.050,0.746,2.739864,0.679784,-3.710451,99768.25,+76,-126,-128
113393,7.245,-3.070,-0.207,2.793075,0.720225,-3.935002,99766.58,+65,-135,-123
113403,7.658,-4.282,-0.956,2.822873,0.770243,-4.134011,99767.83,+53,-141,-116
113409,7.969,-5.366,-1.075,2.785093,0.859638,-4.258524,99767.83,+53,-141,-116
113419,8.417,-6.600,-0.917,2.678671,0.979362,-4.337809,99772.54,+40,-148,-110
113428,8.945,-7.862,-0.870,2.613754,1.072481,-4.413368,99770.09,+26,-152,-103
113438,9.161,-8.627,-0.847,2.806378,1.042683,-4.487331,99766.01,+12,-158,-95
113448,9.773,-9.420,-0.658,3.320396,0.879326,-4.512341,99766.01,+12,-158,-95
113459,10.463,-11.390,-0.860,3.956799,0.615399,-4.455937,99766.01,-2,-162,-85
113469,10.659,-14.493,-1.976,4.386211,0.306243,-4.274487,99768.56,-15,-168,-74
113478,10.171,-17.193,-2.911,4.487312,0.077436,-3.978635,99770.28,-28,-171,-62
113488,9.650,-19.517,-2.936,4.447936,-0.107206,-3.542837,99772.58,-28,-171,-62
113499,8.346,-22.737,-2.281,4.364927,-0.337609,-3.021901,99770.23,-37,-173,-49
113509,5.904,-25.936,-1.498,4.154212,-0.517462,-2.463718,99770.23,-44,-175,-39
113518,3.032,-27.097,-1.569,3.812065,-0.567481,-1.867755,99774.28,-49,-177,-30
113529,0.697,-25.912,-2.580,3.336714,-0.511787,-1.140007,99771.41,-49,-177,-30
113539,-0.526,-25.483,-3.143,2.738800,-0.417426,-0.469371,99771.83,-52,-179,-22
113549,-0.757,-25.212,-3.184,1.945956,-0.336545,0.146280,99768.17,-52,-180,-17
113558,-2.386,-26.599,-1.774,0.920581,-0.146582,0.690096,99768.17,-49,-182,-14
113568,-1.488,-33.721,7.370,0.240544,0.192372,1.680885,99772.27,-49,-182,-14
113579,14.138,-12.712,15.715,0.310251,-0.213096,1.628206,99768.48,-43,-184,-14
113589,26.001,9.337,14.291,-0.539528,0.349344,1.062041,99764.87,-40,-185,-14
113599,19.960,3.509,-4.127,-1.017895,-0.121041,1.552646,99766.27,-34,-186,-17
113608,12.615,-8.729,-18.509,0.061223,-1.055426,1.949068,99766.27,-34,-186,-17
113618,12.629,-5.718,-10.248,0.837572,-0.959114,1.510610,99774.50,-28,-188,-17
113629,8.457,-3.392,-0.648,0.212875,-0.595683,1.546261,99769.64,-23,-189,-16
113639,5.983,-3.035,0.634,0.160196,-0.499903,1.593087,99771.67,-17,-191,-16
113648,6.021,-4.990,0.399,0.333132,-0.571738,1.488261,99769.64,-17,-191,-16
113658,6.814,-8.632,1.415,0.297480,-0.533958,1.318518,99769.64,-12,-192,-15
113669,7.534,-9.846,2.656,-0.143107,-0.380178,1.075344,99770.13,-8,-193,-15
113679,7.797,-6.835,2.290,-0.449070,-0.273756,0.816738,99770.70,-5,-194,-17
113688,8.022,-4.545,0.143,-0.394262,-0.253536,0.665087,99768.30,-5,-194,-17
113698,8.091,-4.440,-1.546,-0.217070,-0.285463,0.576757,99767.88,-3,-194,-18
113709,8.291,-4.540,-1.358,-0.073400,-0.297169,0.493748,99767.88,-2,-194,-19
113719,8.583,-5.154,-0.719,0.040471,-0.267903,0.431491,99773.09,+0,-194,-19
113729,8.771,-5.947,-0.830,0.083040,-0.206710,0.367638,99771.22,+0,-194,-19
