250028,9.305,0.932,2.916,-0.007750,-0.011106,0.001444,100076.33,-16,+134,+253
250038,9.310,0.903,2.981,-0.004026,-0.011106,0.003040,100076.33,-16,+134,+253
250048,9.303,0.929,2.963,-0.003494,-0.011638,0.005168,100080.09,-16,+134,+253
250058,9.322,0.923,2.949,-0.004026,-0.011638,0.006765,100078.18,-15,+134,+253
250067,9.295,0.923,2.940,-0.005090,-0.013767,0.008361,100077.02,-14,+134,+253
250078,9.327,0.925,2.912,-0.007218,-0.012702,0.009957,100077.09,-15,+133,+253
250088,9.354,0.911,2.932,-0.007218,-0.012170,0.009957,100078.20,-15,+133,+253
250098,9.370,0.925,2.944,-0.004026,-0.011638,0.009957,100078.68,-16,+133,+253
250107,9.386,0.929,2.946,0.000231,-0.010574,0.007829,100075.68,-15,+133,+252
250118,9.391,0.869,2.946,0.003424,-0.010574,0.006765,100075.68,-15,+133,+253
250128,9.345,0.842,2.954,0.001295,-0.012170,0.005700,100075.62,-15,+133,+253
250137,9.324,0.877,2.931,-0.004558,-0.014299,0.001976,100075.62,-15,+134,+253
250147,9.297,0.892,2.915,-0.008283,-0.014831,0.000911,100078.66,-15,+134,+253
250159,9.311,0.905,2.923,-0.009169,-0.015718,0.001444,100077.87,-15,+133,+253
250168,9.341,0.893,2.915,-0.009347,-0.014299,0.002508,100077.87,-15,+133,+253
250178,9.340,0.927,2.896,-0.005622,-0.014299,0.002508,100075.71,-14,+133,+253
250187,9.348,0.921,2.888,-0.001897,-0.012702,0.003040,100075.71,-16,+133,+253
250198,9.368,0.937,2.913,0.000231,-0.012170,0.003572,100078.13,-16,+133,+253
250208,9.362,0.881,2.948,0.000231,-0.012702,0.002508,100077.25,-14,+133,+253
250218,9.325,0.921,2.932,-0.002961,-0.014299,0.002508,100079.28,-14,+134,+253
250228,9.337,0.910,2.912,-0.004558,-0.014299,0.000379,100079.28,-16,+134,+253
250237,9.370,0.886,2.909,-0.004558,-0.014299,-0.000153,100079.28,-16,+133,+253
250248,9.339,0.895,2.878,-0.004558,-0.014299,-0.000685,100078.06,-15,+133,+253
250258,9.336,0.913,2.841,-0.000833,-0.011638,-0.000153,100079.70,-15,+133,+253
250268,9.367,0.881,2.845,-0.000833,-0.010042,0.001444,100078.39,-16,+134,+253
250277,9.364,0.931,2.890,-0.001897,-0.010574,0.002508,100077.86,-16,+133,+253
250288,9.339,0.959,2.910,-0.002961,-0.009510,0.005168,100077.86,-15,+134,+252
250298,9.339,0.937,2.916,-0.001365,-0.007913,0.008361,100080.12,-15,+134,+252
250308,9.354,0.910,2.913,0.000231,-0.007913,0.008893,100077.12,-15,+134,+253
250318,9.370,0.897,2.934,-0.000301,-0.007381,0.009425,100077.16,-16,+133,+253
250328,9.397,0.912,2.896,0.000763,-0.007913,0.008361,100077.16,-15,+134,+252
250338,9.358,0.899,2.915,0.002892,-0.006317,0.007297,100078.77,-15,+134,+252
250348,9.330,0.855,2.908,0.001295,-0.006317,0.005168,100078.15,-15,+134,+253
250357,9.336,0.845,2.921,-0.001897,-0.007381,0.003572,100078.15,-16,+133,+253
250368,9.306,0.873,2.913,-0.004558,-0.007913,0.003040,100076.51,-16,+133,+253
250378,9.313,0.925,2.945,-0.004558,-0.008445,0.000911,100076.09,-16,+133,+253
250388,9.349,0.881,2.922,-0.004026,-0.008445,0.001444,100076.09,-16,+134,+254
250398,9.346,0.888,2.894,-0.006154,-0.009510,0.002508,100079.15,-15,+133,+252
250407,9.335,0.871,2.895,-0.008815,-0.009510,0.001444,100079.04,-15,+134,+253
250418,9.353,0.897,2.902,-0.010411,-0.008445,0.001444,100077.77,-15,+134,+253
250428,9.345,0.901,2.912,-0.009879,-0.006849,0.003572,100076.93,-15,+134,+253
250438,9.324,0.923,2.909,-0.010411,-0.007913,0.003572,100081.41,-15,+134,+253
250448,9.319,0.941,2.890,-0.010411,-0.006849,0.004636,100076.04,-14,+134,+253
250458,9.359,0.897,2.845,-0.007218,-0.005785,0.005168,100079.26,-14,+134,+253
250468,9.340,0.892,2.894,-0.005622,-0.004721,0.005168,100077.68,-16,+133,+253
250478,9.340,0.881,2.867,-0.002429,-0.002592,0.001976,100077.68,-16,+133,+253
250487,9.319,0.856,2.904,-0.001365,-0.002592,0.001444,100077.68,-16,+133,+253
250498,9.335,0.882,2.904,0.000231,-0.000996,0.001444,100081.02,-16,+133,+253
250508,9.359,0.900,2.912,0.001295,0.000068,0.001444,100078.48,-16,+134,+253
250518,9.366,0.867,2.954,0.002892,0.001133,0.002508,100077.59,-16,+133,+253
250528,9.359,0.907,2.931,0.000763,0.000600,0.000911,100075.75,-14,+132,+253
250537,9.359,0.883,2.891,-0.000833,0.001133,-0.000153,100075.75,-14,+132,+253
250548,9.362,0.847,2.901,-0.003494,0.001665,-0.002281,100079.45,-15,+133,+253
250558,9.349,0.886,2.918,-0.006686,0.001133,-0.005474,100076.61,-15,+132,+253
250568,9.333,0.982,2.920,-0.005622,0.000068,-0.006538,100074.98,-15,+133,+253
250578,9.307,0.919,2.932,0.000763,0.000068,-0.003878,100074.98,-15,+133,+253
250588,9.312,0.853,2.848,-0.000301,0.001133,-0.002281,100074.98,-16,+133,+253
250598,9.343,0.850,2.914,-0.007218,0.002729,-0.002281,100078.46,-14,+133,+253
250608,9.362,0.899,2.964,-0.009347,0.001665,-0.002281,100079.15,-15,+133,+253
250618,9.348,0.985,2.963,-0.006686,0.000068,-0.000685,100078.41,-15,+133,+253
250628,9.365,0.994,2.943,0.000763,0.000600,0.003040,100075.04,-16,+133,+253
250638,9.365,0.915,2.962,0.007681,0.001665,0.007297,100075.04,-16,+134,+252
250648,9.364,0.901,2.914,0.004488,0.000068,0.008361,100080.63,-16,+133,+253
250658,9.351,0.882,2.955,0.002892,0.000600,0.007297,100080.72,-16,+133,+253
250668,9.356,0.857,2.918,0.001828,-0.000996,0.005700,100076.78,-16,+133,+253
250678,9.351,0.887,2.915,0.001295,-0.001528,0.005168,100078.38,-15,+134,+253
250688,9.339,0.876,2.952,-0.000301,-0.002592,0.006233,100075.44,-16,+133,+253
250698,9.348,0.883,2.914,-0.003494,-0.002592,0.004104,100077.44,-15,+134,+253
250707,9.335,0.895,2.950,-0.006154,-0.003124,0.003572,100077.44,-15,+134,+253
250718,9.295,0.916,2.914,-0.007750,-0.004189,0.004636,100080.86,-15,+133,+253
250728,9.343,0.944,2.918,-0.005622,-0.004189,0.006233,100076.80,-16,+134,+253
250738,9.384,0.903,2.910,-0.000833,-0.003124,0.006233,100076.80,-15,+133,+253
250743,9.390,0.879,2.910,-0.000301,-0.000464,0.006765,100079.98,-15,+133,+253
250753,9.402,0.921,2.943,-0.000833,-0.000996,0.005700,100078.30,-15,+134,+253
250763,9.346,0.892,2.924,-0.000301,-0.000996,0.003572,100076.88,-15,+134,+253
250773,9.352,0.880,2.931,0.001828,-0.000996,0.004104,100077.34,-16,+134,+253
250783,9.366,0.907,2.944,0.001828,-0.002592,0.003572,100077.34,-15,+132,+253
250792,9.374,0.873,2.977,-0.001897,-0.004189,0.003572,100079.59,-15,+134,+253
250803,9.418,0.915,2.943,-0.006154,-0.005785,0.004104,100077.48,-15,+134,+253
250813,9.507,0.952,2.925,-0.007750,-0.006849,0.003572,100079.38,-16,+133,+253
250823,9.556,0.925,2.772,-0.013604,-0.004189,0.004636,100075.74,-15,+132,+253
250832,9.418,0.894,2.752,-0.016264,0.005389,0.004104,100075.74,-15,+132,+253
250843,9.445,0.978,2.822,-0.007218,0.010710,0.009425,100079.20,-15,+132,+253
250853,9.383,0.991,2.812,0.012470,0.018160,0.016343,100080.03,-15,+134,+253
250863,9.281,0.903,2.865,0.026837,0.024545,0.022728,100078.25,-14,+133,+253
250873,9.312,0.907,2.857,0.031626,0.027206,0.026453,100075.19,-14,+133,+253
250883,9.276,0.921,2.877,0.030561,0.031995,0.027517,100075.19,-14,+133,+253
250893,9.210,0.930,2.933,0.029497,0.034655,0.030710,100077.21,-14,+132,+254
250903,9.270,0.898,2.942,0.032690,0.036784,0.033370,100076.57,-15,+133,+253
250913,9.275,0.874,2.974,0.032690,0.038912,0.032838,100080.30,-14,+133,+253
250923,9.275,0.898,3.011,0.028965,0.039977,0.032838,100075.68,-14,+133,+253
250933,9.321,0.876,2.950,0.028433,0.041573,0.031242,100075.68,-14,+133,+253
250943,9.349,0.794,2.958,0.024708,0.043701,0.027517,100080.68,-14,+133,+253
250953,9.305,0.736,2.981,0.017791,0.047426,0.020600,100075.73,-14,+133,+253
250963,9.233,0.670,2.882,0.011406,0.050619,0.013150,100078.37,-14,+133,+253
250973,9.181,0.691,2.871,0.006617,0.053811,0.003572,100074.57,-14,+133,+253
250979,9.179,0.735,2.946,0.006084,0.057004,-0.002813,100074.57,-14,+133,+253
250988,9.160,0.746,2.999,0.009809,0.057004,-0.009199,100074.57,-14,+133,+253
250998,9.190,0.717,2.989,0.019387,0.058068,-0.018244,100081.55,-14,+134,+253
251009,9.197,0.694,2.963,0.024176,0.060729,-0.031547,100076.71,-14,+133,+253
251018,9.198,0.577,2.944,0.027369,0.059665,-0.047511,100076.29,-12,+134,+253
251028,9.088,0.614,2.934,0.033754,0.061261,-0.064538,100075.84,-12,+134,+253
251038,8.903,0.583,2.927,0.040672,0.065518,-0.081566,100078.69,-12,+133,+253
251048,8.809,0.454,2.817,0.045993,0.071903,-0.103914,100079.63,-12,+134,+254
251058,8.873,0.415,2.821,0.055039,0.078821,-0.128923,100079.63,-11,+134,+253
251068,8.817,0.415,2.822,0.071534,0.088399,-0.155529,100077.53,-11,+134,+253
251078,8.838,0.342,2.839,0.089626,0.096912,-0.187455,100077.42,-11,+135,+254
251088,9.115,0.445,3.110,0.100800,0.097976,-0.225235,100077.42,-10,+136,+253
251098,9.306,0.645,3.191,0.100800,0.092655,-0.271529,100076.67,-10,+136,+253
251108,9.546,0.547,3.159,0.107185,0.088931,-0.321547,100079.05,-10,+136,+253
251118,9.554,0.286,2.840,0.082176,0.089463,-0.372630,100080.41,-10,+136,+253
251128,9.390,0.452,2.560,0.034818,0.103830,-0.427969,100076.09,-8,+138,+253
251139,9.548,0.771,2.731,0.030561,0.122986,-0.466813,100082.30,-7,+138,+253
251148,9.525,1.213,3.071,0.063552,0.136820,-0.489162,100077.61,-6,+138,+253
251158,9.562,1.325,3.308,0.100268,0.140013,-0.502464,100078.03,-6,+138,+253
251168,9.926,1.568,3.797,0.121020,0.119261,-0.503529,100075.77,-5,+139,+253
251179,9.723,2.120,4.131,0.109846,0.071903,-0.489162,100075.77,-4,+140,+253
251188,9.396,2.179,3.994,0.096011,0.026674,-0.455107,100075.77,-3,+140,+253
251198,9.286,2.222,3.869,0.049717,-0.025473,-0.406153,100080.55,-3,+140,+253
251208,9.305,2.522,3.716,0.003956,-0.072299,-0.345492,100079.55,-3,+140,+252
251218,9.306,2.619,3.578,-0.014668,-0.102629,-0.274189,100079.08,-3,+142,+253
251229,9.274,2.338,3.380,-0.023714,-0.127106,-0.203419,100076.86,-3,+141,+253
251238,9.321,2.089,3.344,-0.039145,-0.144133,-0.145419,100076.86,-3,+141,+253
251248,9.374,2.034,3.332,-0.064686,-0.163289,-0.103382,100081.03,-4,+141,+253
251258,9.248,1.908,3.071,-0.082246,-0.170207,-0.072520,100078.92,-5,+140,+252
251269,9.203,1.735,2.991,-0.093420,-0.166482,-0.046446,100076.92,-5,+141,+252
251278,9.353,1.574,3.027,-0.101934,-0.168078,-0.031015,100076.92,-5,+141,+252
251288,9.322,1.482,3.021,-0.107787,-0.169143,-0.024098,100076.92,-5,+140,+253
251298,9.201,1.408,2.974,-0.126943,-0.172867,-0.020905,100079.32,-6,+140,+252
251309,9.087,1.462,3.003,-0.156741,-0.179253,-0.023033,100079.12,-6,+139,+253
251318,9.040,1.653,3.033,-0.166319,-0.179785,-0.025694,100076.65,-6,+139,+253
251328,9.025,1.354,2.897,-0.157273,-0.178188,-0.028887,100076.74,-7,+139,+253
251338,9.102,1.016,2.751,-0.155145,-0.173932,-0.042722,100076.74,-8,+138,+253
251348,9.325,0.840,2.750,-0.187071,-0.172867,-0.072520,100080.91,-8,+138,+253
251359,9.523,0.658,2.545,-0.242411,-0.185638,-0.110299,100075.27,-8,+138,+253
251368,9.474,0.828,2.579,-0.282851,-0.167014,-0.160318,100077.22,-8,+137,+253
251378,9.451,0.877,2.687,-0.331805,-0.168078,-0.197565,100078.08,-9,+136,+253
251388,9.450,1.037,2.705,-0.376502,-0.171271,-0.231621,100082.23,-9,+135,+253
251399,9.288,1.302,2.711,-0.405769,-0.164886,-0.255033,100077.75,-9,+135,+253
251408,9.092,1.632,2.797,-0.410025,-0.156372,-0.260887,100077.75,-9,+134,+254
251418,9.049,1.926,2.865,-0.399915,-0.153179,-0.248648,100078.59,-9,+132,+254
251428,9.248,1.990,2.866,-0.377567,-0.149455,-0.222043,100076.33,-10,+132,+254
251439,9.279,1.939,2.711,-0.355218,-0.143069,-0.194905,100076.33,-10,+132,+254
251448,9.258,2.067,2.812,-0.342447,-0.134023,-0.162978,100080.98,-10,+131,+254
251458,9.266,2.100,2.790,-0.328613,-0.131895,-0.129988,100077.08,-10,+128,+255
251468,9.201,2.120,2.757,-0.299879,-0.115400,-0.094336,100077.98,-10,+128,+256
251479,9.146,2.155,2.836,-0.281255,-0.099968,-0.056556,100075.30,-10,+128,+256
251489,9.085,2.029,2.821,-0.275934,-0.087198,-0.020905,100077.25,-12,+127,+256
251498,9.112,2.055,2.939,-0.275934,-0.076023,0.012618,100077.41,-12,+126,+255
251508,9.214,2.169,2.997,-0.262631,-0.070702,0.045609,100079.25,-12,+126,+256
251518,9.175,2.319,3.056,-0.223787,-0.066978,0.088710,100077.72,-12,+126,+256
251529,9.116,2.331,3.071,-0.171108,-0.061124,0.142985,100077.72,-12,+124,+257
251538,8.936,2.303,3.126,-0.145035,-0.060592,0.193003,100077.72,-12,+124,+257
251548,8.954,2.227,3.054,-0.142906,-0.065913,0.243021,100077.89,-12,+123,+256
251558,9.228,2.179,2.926,-0.142906,-0.069106,0.293040,100078.47,-13,+122,+256
251564,9.210,2.291,2.812,-0.140778,-0.065381,0.330287,100078.38,-13,+122,+256
251574,9.200,2.211,2.794,-0.131732,-0.058996,0.372324,100076.58,-14,+121,+257
251583,9.328,2.088,2.781,-0.128007,-0.057932,0.435113,100076.58,-14,+121,+257
251593,9.316,1.975,2.827,-0.130668,-0.049418,0.488856,100080.56,-15,+121,+256
251603,9.216,1.883,2.745,-0.141842,-0.043565,0.543663,100077.94,-16,+120,+257
251614,9.096,2.088,2.762,-0.143438,-0.033455,0.600067,100078.14,-16,+118,+257
251623,9.088,2.219,2.806,-0.123218,-0.024409,0.670838,100076.47,-16,+118,+257
251633,9.299,2.334,2.829,-0.075860,-0.015895,0.755443,100076.47,-17,+118,+257
251643,9.670,2.595,3.085,0.002360,-0.011106,0.860801,100076.82,-17,+116,+257
251654,9.966,3.132,3.648,0.089626,-0.027069,0.991168,100078.18,-19,+116,+257
251663,10.129,3.395,4.233,0.154011,-0.067510,1.149736,100076.91,-19,+116,+257
251673,10.307,3.100,3.910,0.126341,-0.107950,1.325333,100076.13,-19,+116,+256
251683,10.795,2.471,2.833,-0.039677,-0.114335,1.508910,100076.13,-21,+114,+256
251694,11.789,2.187,2.408,-0.265292,-0.087730,1.690892,100079.23,-24,+111,+257
251704,13.278,2.897,2.314,-0.496227,-0.117528,1.876598,100076.92,-24,+111,+257
251713,15.476,3.912,3.351,-0.883071,-0.189363,2.070818,100075.88,-26,+107,+257
251723,18.548,4.136,3.030,-1.280025,-0.140941,2.136268,100078.19,-28,+101,+257
251734,20.551,2.929,1.529,-1.542355,0.036784,2.039424,100078.19,-29,+92,+259
251744,20.081,3.294,-0.191,-1.691346,0.208123,1.893094,100081.48,-29,+92,+259
251753,17.183,4.274,0.243,-1.572685,0.285811,1.795185,100075.95,-30,+85,+261
251763,13.818,2.248,2.005,-1.126777,0.364563,1.781351,100078.21,-30,+78,+261
251773,12.264,-1.639,4.400,-0.743658,0.437463,1.839351,100077.90,-29,+73,+262
251784,12.805,-4.168,4.967,-0.677677,0.414050,1.865424,100077.90,-28,+73,+262
251794,14.170,-6.000,5.344,-0.929365,0.304435,1.832965,100079.61,-28,+68,+263
251803,13.412,-5.817,7.013,-1.106557,0.293261,1.842543,100075.72,-28,+63,+263
251813,12.884,-4.082,6.374,-1.194887,0.269848,1.797314,100075.09,-27,+56,+264
251824,12.465,-3.737,5.275,-1.112410,0.301775,1.790929,100073.98,-26,+49,+265
251834,11.597,-4.298,4.906,-0.981511,0.346472,1.813809,100073.98,-26,+49,+265
251843,10.439,-5.039,4.712,-0.935218,0.342747,1.846800,100078.91,-25,+44,+265
251853,9.224,-5.125,4.425,-0.872961,0.340086,1.850525,100078.18,-24,+39,+265
251864,8.424,-4.869,4.024,-0.738869,0.356582,1.823387,100074.34,-22,+35,+265
251874,7.682,-4.633,3.352,-0.521236,0.375206,1.799974,100077.76,-22,+35,+265
251883,6.840,-4.456,2.694,-0.245603,0.403407,1.781351,100077.76,-19,+32,+266
251893,6.057,-4.380,2.256,0.093350,0.447040,1.753681,100080.06,-18,+31,+266
251904,5.352,-4.639,2.064,0.418469,0.485352,1.714305,100076.80,-16,+31,+266
251914,4.477,-4.700,1.837,0.658983,0.493866,1.655773,100076.53,-16,+31,+266
251923,3.443,-4.286,1.631,0.850011,0.513022,1.567443,100075.73,-13,+33,+266
251933,2.407,-3.621,1.494,1.000065,0.525261,1.456764,100075.73,-11,+34,+266
251943,1.524,-3.253,1.276,1.096910,0.524196,1.340232,100078.37,-9,+37,+266
251954,0.598,-3.109,1.136,1.111276,0.503976,1.223700,100075.15,-9,+37,+266
251964,-0.320,-3.045,1.035,1.050616,0.458215,1.098122,100076.26,-7,+41,+267
251973,-1.009,-2.866,1.009,0.959625,0.396490,0.965094,100071.99,-5,+44,+267
251983,-1.359,-2.679,0.887,0.845754,0.337426,0.823021,100071.99,-3,+45,+267
251994,-1.419,-2.518,0.763,0.730818,0.284215,0.674030,100076.80,-3,+45,+267
252004,-1.361,-2.312,0.722,0.611625,0.226747,0.526636,100075.54,-3,+48,+267
252013,-1.274,-2.078,0.617,0.502011,0.159169,0.387223,100075.45,-2,+49,+267
252023,-1.237,-1.906,0.509,0.386011,0.096912,0.244618,100076.23,-1,+51,+267
252034,-1.189,-1.913,0.401,0.258304,0.020821,0.096159,100076.23,-1,+51,+267
252044,-1.010,-1.798,0.368,0.161993,-0.043565,-0.052300,100076.64,-1,+51,+267
252054,-0.712,-1.828,0.458,0.116231,-0.098904,-0.202354,100075.11,-2,+52,+267
252063,-0.220,-2.213,0.472,0.060360,-0.160097,-0.354538,100077.73,-3,+53,+267
252073,0.395,-2.518,0.604,-0.030631,-0.231932,-0.514703,100074.58,-3,+53,+267
252084,0.907,-2.494,0.674,-0.112044,-0.303234,-0.669015,100074.58,-3,+53,+267
252094,1.413,-2.433,0.727,-0.145567,-0.357509,-0.806299,100078.16,-5,+53,+267
252103,2.009,-2.606,0.906,-0.146099,-0.399014,-0.928684,100076.47,-7,+53,+267
252113,2.776,-2.859,1.157,-0.134393,-0.436262,-1.044152,100075.31,-7,+53,+267
252124,3.698,-2.945,1.522,-0.100337,-0.471913,-1.169198,100075.58,-8,+53,+267
252134,4.813,-2.873,2.004,-0.026374,-0.504372,-1.295840,100075.58,-10,+54,+266
252144,6.011,-2.774,2.478,0.051846,-0.540555,-1.418225,100076.75,-12,+55,+267
252153,7.122,-2.733,2.922,0.137516,-0.572482,-1.545400,100075.86,-12,+55,+267
252164,8.108,-2.850,3.315,0.207222,-0.594298,-1.683216,100075.28,-13,+58,+266
252174,8.917,-3.102,3.679,0.241277,-0.615583,-1.818372,100075.97,-16,+59,+266
252183,9.516,-3.268,3.900,0.252983,-0.624096,-1.948739,100075.97,-17,+61,+266
252193,10.088,-3.251,3.944,0.193919,-0.640060,-2.078041,100078.45,-17,+61,+266
252204,10.595,-2.987,3.922,0.081112,-0.659216,-2.214262,100081.24,-19,+65,+265
252214,11.105,-2.625,3.983,-0.054044,-0.668794,-2.351546,100075.07,-21,+67,+264
252224,11.771,-2.196,4.103,-0.177493,-0.668794,-2.492023,100075.60,-23,+69,+264
252233,12.637,-1.635,4.190,-0.270081,-0.663473,-2.607491,100075.60,-24,+69,+264
252243,13.394,-1.046,4.097,-0.334998,-0.645913,-2.676133,100080.34,-24,+71,+264
252254,13.995,-0.579,3.896,-0.380227,-0.611326,-2.714445,100075.59,-26,+73,+264
252264,14.633,-0.334,3.900,-0.397787,-0.554390,-2.727747,100075.08,-27,+73,+263
252273,12.400,-10.515,15.985,-0.341915,-0.038776,-2.484573,100079.19,-26,+75,+263
252283,17.911,-7.513,17.898,1.208652,0.188435,-1.977473,100079.19,-26,+75,+263
252294,22.729,-2.725,8.224,1.515680,0.008582,-1.429400,100081.06,-25,+84,+262
252304,32.695,7.669,-7.288,1.265056,-0.560243,-0.713712,100077.86,-26,+89,+261
252314,40.919,23.588,-7.015,0.296084,-0.213308,-0.796189,100083.33,-25,+91,+261
252323,13.038,12.233,-2.243,0.490304,0.563573,-0.277914,100079.55,-25,+91,+261
252334,1.128,-1.822,2.381,1.366689,0.959994,0.544728,100079.55,-22,+94,+262
252344,3.140,-10.612,2.910,1.371478,0.481628,0.481407,100082.97,-19,+100,+261
252354,5.048,-12.133,2.691,0.351956,0.232068,-0.059217,100078.55,-19,+101,+261
252363,8.304,-4.026,5.415,-0.081182,0.158105,-0.422116,100081.03,-19,+101,+261
252374,9.227,-0.081,5.234,-0.204631,0.127243,-0.430097,100078.45,-18,+100,+261
252384,9.130,-0.511,5.394,-0.022649,0.254949,-0.549290,100078.45,-17,+100,+262
252394,7.909,-0.183,4.861,-0.036484,0.136288,-0.601437,100079.16,-17,+101,+262
252403,8.104,0.628,3.663,-0.170044,0.049554,-0.583345,100079.80,-17,+101,+262
252413,11.131,0.255,2.651,-0.267952,0.052215,-0.516831,100081.06,-16,+101,+263
252424,11.651,0.627,2.717,-0.381291,0.093720,-0.455639,100076.73,-15,+100,+262
252434,10.890,1.140,2.361,-0.406301,0.129903,-0.393382,100076.73,-14,+99,+262
252444,9.737,0.907,2.038,-0.278594,0.212380,-0.348685,100078.71,-14,+99,+262
252453,9.197,1.336,2.633,-0.125879,0.261334,-0.242263,100077.98,-14,+99,+263
252464,9.351,1.323,3.509,0.017791,0.279958,-0.102318,100077.87,-12,+98,+262
252474,9.548,0.389,4.224,0.085901,0.285811,-0.025694,100076.49,-11,+99,+263
252484,9.329,-0.199,4.719,0.044928,0.249096,-0.018777,100076.49,-11,+99,+263
252493,8.977,-0.342,4.462,-0.080117,0.171940,-0.025694,100079.20,-10,+99,+264
252504,9.102,0.053,4.136,-0.192392,0.106490,-0.017712,100082.00,-10,+98,+263
252514,9.434,0.470,3.853,-0.202503,0.070307,-0.005474,100076.27,-10,+98,+264
252524,9.731,0.323,3.326,-0.123218,0.073499,0.018471,100077.52,-10,+98,+264
252533,9.689,0.284,2.948,-0.042338,0.107022,0.047737,100077.52,-9,+97,+264
252544,9.345,0.630,3.115,0.023112,0.139481,0.082856,100079.80,-9,+97,+264
252554,8.964,0.991,3.520,0.084837,0.155444,0.129150,100077.38,-8,+98,+265
252564,8.673,0.839,3.921,0.140708,0.159701,0.188214,100076.91,-8,+98,+265
252574,8.481,0.572,3.826,0.134855,0.149591,0.240361,100078.22,-7,+98,+264
252583,8.522,0.627,3.583,0.094947,0.143738,0.283462,100078.22,-8,+99,+265
252594,8.758,0.312,3.346,0.069406,0.133628,0.319645,100077.22,-8,+97,+264
252604,9.143,0.036,3.131,0.093883,0.153316,0.348911,100078.42,-8,+97,+264
252614,9.085,0.358,3.225,0.135919,0.199077,0.361150,100077.53,-7,+99,+264
252623,8.882,0.438,3.551,0.216268,0.239518,0.372856,100076.38,-7,+98,+264
252634,8.973,-0.019,3.730,0.279057,0.266123,0.382434,100076.38,-5,+99,+264
252644,9.027,-0.165,3.893,0.258837,0.276233,0.384030,100081.11,-5,+99,+264
252654,9.051,-0.153,3.933,0.189130,0.263463,0.392544,100076.02,-5,+99,+265
252664,9.175,-0.237,3.735,0.119424,0.254417,0.404783,100076.91,-4,+99,+264
252674,9.382,0.077,3.485,0.032690,0.249628,0.426067,100076.27,-3,+99,+264
252684,9.242,0.253,3.471,0.003424,0.259738,0.469700,100076.27,-3,+99,+264
252694,9.000,0.321,3.253,-0.001897,0.280490,0.531425,100077.17,-3,+99,+266
252704,9.028,0.427,3.346,-0.001365,0.309756,0.604856,100082.22,-2,+99,+265
252713,8.994,0.423,3.483,-0.014668,0.330508,0.691590,100080.17,-1,+98,+266
252724,8.963,0.663,3.800,-0.002429,0.356050,0.776195,100077.33,-1,+97,+266
252734,9.055,0.531,4.021,0.039075,0.373077,0.860801,100077.33,-1,+97,+266
252744,9.258,0.080,4.182,0.062488,0.379463,0.934764,100076.48,+0,+97,+266
252753,9.586,-0.988,4.026,-0.000301,0.361903,0.986379,100079.16,+0,+96,+267
252764,9.664,-1.140,3.819,-0.114704,0.350729,1.002342,100076.73,+1,+95,+266
252774,9.432,-0.787,3.988,-0.207292,0.359242,1.002342,100076.84,+1,+95,+266
252784,9.383,-1.392,3.897,-0.244007,0.353921,1.005002,100076.84,+1,+94,+266
252794,9.701,-2.097,3.671,-0.279126,0.352325,0.997021,100080.38,+2,+91,+267
252804,9.777,-2.278,3.724,-0.360539,0.373077,0.967755,100076.07,+3,+90,+268
252814,9.568,-1.990,3.865,-0.441952,0.376270,0.949131,100079.91,+3,+90,+268
252824,9.616,-1.704,3.859,-0.468557,0.366692,0.954452,100078.29,+3,+87,+269
252834,9.760,-1.646,4.130,-0.450466,0.377334,0.976801,100078.29,+5,+84,+269
252844,9.620,-1.627,4.346,-0.440356,0.377866,1.003406,100078.65,+5,+83,+270
252854,9.734,-1.935,4.482,-0.463768,0.376270,1.017241,100079.27,+5,+83,+270
252864,10.337,-2.344,4.424,-0.548374,0.364031,1.019369,100077.01,+7,+80,+271
252874,10.783,-2.014,4.251,-0.700025,0.354453,1.008727,100076.80,+7,+77,+271
252883,11.260,-1.856,4.590,-0.834649,0.369885,1.000214,100076.80,+7,+73,+272
252894,11.785,-2.006,4.351,-0.919254,0.356050,1.007663,100078.61,+7,+73,+272
252904,11.817,-2.331,3.952,-1.003328,0.362435,1.023626,100079.14,+9,+68,+272
252914,11.447,-2.442,3.881,-1.126245,0.342215,1.031608,100075.66,+9,+63,+272
252924,11.700,-2.151,3.608,-1.220961,0.297518,1.063002,100078.55,+10,+59,+272
252934,12.166,-1.433,3.631,-1.250759,0.283683,1.115149,100078.55,+10,+59,+272
252944,12.076,-0.529,3.556,-1.220961,0.272508,1.201883,100079.61,+11,+53,+273
252954,11.404,0.035,3.812,-1.129438,0.274637,1.328525,100077.88,+12,+48,+274
252964,11.720,-0.783,3.677,-1.046429,0.269848,1.464745,100078.81,+12,+43,+274
252974,12.377,-1.311,3.667,-1.061860,0.246967,1.541369,100077.77,+12,+43,+274
252984,12.990,-0.904,3.792,-1.104961,0.175665,1.583406,100077.77,+14,+39,+274
252994,13.306,-0.207,3.910,-1.187438,0.103830,1.621186,100081.50,+14,+33,+274
253004,13.617,0.919,4.070,-1.325254,0.041041,1.656837,100078.45,+14,+28,+274
253014,13.883,2.030,3.753,-1.501915,-0.005253,1.699406,100077.50,+14,+28,+274
253024,14.247,2.687,3.064,-1.692410,-0.020152,1.743571,100075.88,+15,+21,+273
253034,15.067,3.318,2.424,-1.905254,-0.047289,1.764855,100075.88,+15,+13,+272
253044,15.513,4.266,1.942,-2.129272,-0.046225,1.773901,100079.06,+16,+5,+272
253054,15.526,4.967,2.564,-2.236758,0.009114,1.818598,100076.31,+16,+5,+272
253064,16.204,4.300,4.266,-1.998373,0.060729,1.933534,100078.16,+16,-4,+271
253074,17.193,0.649,6.623,-1.286942,0.233132,2.240561,100077.69,+18,-10,+270
253084,18.776,-1.929,8.417,-0.628190,0.383719,2.854084,100077.69,+23,-14,+269
253094,20.006,-0.734,7.073,-0.324888,0.429481,3.449515,100077.74,+23,-14,+269
253104,19.292,1.189,6.808,-0.361071,0.384252,3.726744,100076.16,+27,-16,+269
253114,17.306,2.789,7.231,-0.250925,0.349664,3.728872,100076.27,+32,-19,+269
253124,15.237,4.451,6.431,0.022580,0.367224,3.557533,100074.70,+35,-19,+269
253134,13.185,4.454,5.544,0.370048,0.386380,3.362781,100074.70,+35,-19,+269
253145,10.793,0.517,6.168,0.694634,0.440655,3.073845,100079.01,+39,-19,+269
253154,9.726,-3.666,7.204,0.948983,0.488545,2.758304,100077.54,+44,-16,+270
253164,11.152,-0.031,4.808,0.903221,0.333169,2.538543,100077.16,+46,-13,+271
253174,10.502,3.171,1.400,0.553093,0.206527,1.999516,100074.80,+49,-11,+271
253185,8.454,4.151,0.345,0.342378,0.034123,1.525406,100074.80,+49,-11,+271
253194,6.562,4.347,-0.301,0.315240,-0.160629,1.126856,100079.19,+49,-10,+271
253204,5.560,3.287,-0.402,0.376433,-0.328243,0.688929,100080.23,+48,-9,+271
253214,5.218,1.664,-0.277,0.431240,-0.485748,0.254196,100077.39,+46,-7,+271
253224,4.756,0.482,0.193,0.337589,-0.642720,-0.178942,100078.50,+46,-7,+271
253234,4.069,0.516,0.517,0.176360,-0.837472,-0.648262,100078.50,+43,-6,+271
253244,3.725,1.306,0.631,0.085369,-1.009876,-1.138336,100077.61,+38,-6,+271
253254,3.771,1.908,0.717,0.124745,-1.147160,-1.610849,100077.34,+32,-5,+271
253264,4.015,1.922,0.720,0.282249,-1.262628,-2.031748,100078.14,+32,-5,+271
253275,4.304,1.360,0.677,0.457846,-1.365325,-2.405289,100076.45,+25,-3,+271
253284,4.634,0.676,0.744,0.585552,-1.454188,-2.761802,100076.45,+17,-1,+269
253294,5.177,0.315,0.835,0.674414,-1.536665,-3.112463,100074.02,+10,+3,+269
253304,5.736,0.282,1.019,0.743056,-1.622334,-3.462591,100073.27,+10,+3,+269
253315,6.131,0.451,1.236,0.843093,-1.698426,-3.801013,100072.54,+1,+7,+269
253324,6.461,0.542,1.650,0.987295,-1.756958,-4.119215,100072.38,-6,+14,+267
253334,6.883,0.281,2.026,1.144267,-1.796866,-4.419857,100072.38,-14,+22,+267
253344,7.573,-0.049,2.345,1.303368,-1.834114,-4.709324,100070.97,-14,+22,+267
253355,8.569,-0.481,2.568,1.403405,-1.871362,-4.979636,100070.97,-23,+31,+266
253364,9.410,-0.836,2.825,1.434267,-1.895839,-5.218021,100068.23,-30,+42,+263
253374,9.945,-0.746,3.005,1.483221,-1.932022,-5.438847,100071.50,-37,+53,+261
253384,10.853,-0.515,3.176,1.550799,-1.954903,-5.627746,100071.50,-37,+53,+261
253394,12.414,-0.469,3.469,1.635405,-1.950646,-5.758112,100072.36,-42,+67,+257
253404,13.884,-0.936,3.505,1.811001,-1.899031,-5.859213,100073.16,-46,+81,+254
253414,15.103,-1.851,3.622,1.942964,-1.865509,-5.952865,100073.47,-49,+97,+251
253424,16.316,-2.788,4.227,1.884432,-1.924041,-6.034810,100072.36,-49,+97,+251
253434,17.367,-3.523,5.434,1.716285,-2.035784,-6.110369,100072.36,-50,+112,+245
253445,18.073,-4.003,6.678,1.606138,-2.094848,-6.179011,100076.66,-51,+126,+241
253454,18.585,-4.933,7.526,1.607735,-2.065582,-6.221580,100073.97,-49,+140,+236
253464,19.021,-6.443,7.948,1.567294,-2.001197,-6.204021,100073.66,-49,+140,+236
253474,18.937,-7.700,8.290,1.372010,-1.955967,-6.100791,100072.86,-47,+155,+231
253485,18.396,-8.072,8.739,1.186836,-1.872426,-5.910296,100072.86,-43,+166,+227
253494,18.225,-8.497,9.407,1.046891,-1.693637,-5.581452,100076.60,-39,+178,+223
253504,17.735,-9.409,10.106,0.906414,-1.427582,-5.148847,100074.70,-39,+178,+223
253514,16.808,-11.074,10.948,0.704212,-1.087032,-4.636957,100072.16,-33,+187,+220
253524,15.325,-13.211,11.522,0.383350,-0.748078,-4.053233,100071.38,-27,+193,+218
253534,13.518,-15.151,10.830,0.011406,-0.453821,-3.350316,100071.38,-21,+198,+218
253544,12.048,-16.826,9.943,-0.284447,-0.235656,-2.508518,100079.28,-21,+198,+218
253554,10.646,-17.977,9.569,-0.445677,-0.069106,-1.526776,100076.03,-17,+199,+219
253564,9.309,-18.130,10.428,-0.554759,0.120325,-0.499272,100074.86,-16,+198,+219
253575,8.572,-16.909,11.200,-0.539328,0.341683,0.483535,100076.81,-15,+196,+220
253584,8.566,-15.024,11.677,-0.410025,0.618912,1.380140,100076.81,-15,+196,+220
253594,10.337,-8.149,9.898,-0.260503,0.819517,2.048470,100079.25,-16,+193,+222
253604,13.634,7.056,2.293,-0.216870,0.722141,2.050598,100079.03,-18,+190,+223
253615,15.719,32.792,-9.732,-0.593603,0.354986,1.065131,100079.88,-19,+188,+224
253624,8.796,16.551,-8.513,-0.664374,0.583261,0.765553,100079.09,-18,+185,+226
253634,8.837,-9.018,2.433,1.517808,1.462838,1.871809,100079.09,-18,+185,+226
253644,18.281,-7.922,4.371,1.693937,1.274471,2.813643,100079.33,-19,+190,+223
253655,20.355,-0.565,-0.324,-0.121622,0.856765,2.323570,100078.48,-20,+187,+224
253665,16.433,1.037,0.304,-0.340319,1.078123,2.060176,100079.80,-21,+184,+226
253670,16.573,0.215,3.871,0.132727,1.354288,2.489589,100076.75,-21,+184,+226
253679,15.002,0.150,6.202,0.424323,1.533609,2.614102,100076.75,-21,+183,+227
253689,10.402,-0.316,8.585,0.498286,1.659719,2.389552,100076.75,-21,+183,+227
253700,9.532,0.426,11.070,0.668561,1.841168,2.342194,100077.99,-20,+181,+228
253710,10.273,-0.058,6.228,0.799992,1.761352,2.367736,100077.84,-17,+182,+228
253719,9.948,-2.941,4.583,0.519570,1.533609,2.310800,100075.46,-17,+182,+228
253729,8.791,-2.589,6.109,0.144965,1.348434,2.101681,100075.46,-17,+182,+228
253740,9.914,-2.354,4.538,-0.241347,1.002563,1.856378,100081.91,-17,+178,+230
253750,11.396,-2.970,2.927,-0.695236,0.693407,1.769644,100081.91,-18,+176,+232
253759,11.947,-1.043,2.511,-0.982043,0.524196,1.653112,100081.86,-19,+171,+234
253769,11.140,0.482,2.535,-0.954374,0.480563,1.481773,100080.69,-19,+171,+234
253779,10.041,1.284,1.722,-0.703750,0.524196,1.287021,100079.27,-20,+166,+236
253790,9.977,1.375,1.408,-0.313714,0.651371,1.191241,100079.27,-21,+164,+236
253800,9.916,0.711,2.240,-0.027438,0.747150,1.157718,100081.34,-20,+162,+238
253809,9.631,0.299,3.059,0.041204,0.743958,1.044911,100081.14,-19,+161,+238
253819,9.510,0.396,3.471,-0.016796,0.680105,0.918801,100078.34,-19,+161,+238
253830,9.262,0.942,3.669,-0.080649,0.621040,0.802269,100077.41,-18,+160,+239
253840,8.844,0.936,3.842,-0.144503,0.569426,0.724049,100079.67,-17,+159,+240
253849,8.764,0.972,4.081,-0.257842,0.502380,0.671370,100079.89,-16,+158,+241
253859,8.941,1.288,4.278,-0.435035,0.419371,0.622416,100080.89,-16,+158,+241
253870,8.935,1.666,3.794,-0.595200,0.353921,0.583572,100080.89,-17,+155,+242
253880,9.037,1.551,2.802,-0.603713,0.350197,0.584104,100077.25,-16,+152,+243
253889,9.087,1.410,1.706,-0.465897,0.416178,0.628801,100077.25,-16,+150,+244
253899,9.352,0.707,1.439,-0.280191,0.508765,0.722984,100083.41,-16,+150,+244
253904,9.675,0.091,1.931,-0.179090,0.564637,0.787902,100081.73,-14,+149,+244
253915,9.695,-0.217,2.778,-0.200906,0.586985,0.800672,100078.10,-14,+149,+244
253925,9.409,-0.314,3.407,-0.362135,0.582196,0.768214,100080.95,-14,+148,+246
253934,8.908,0.114,3.839,-0.561145,0.560380,0.722984,100080.95,-13,+145,+247
253944,8.872,0.537,3.805,-0.674484,0.518875,0.705425,100080.44,-12,+142,+248
253955,9.208,0.533,3.477,-0.668631,0.502380,0.719260,100077.95,-12,+142,+248
253965,9.297,0.294,3.331,-0.626594,0.514086,0.741608,100075.17,-12,+140,+249
253974,9.438,0.053,3.149,-0.622869,0.521536,0.765553,100076.95,-10,+136,+251
253984,9.516,0.473,3.402,-0.604778,0.540692,0.783113,100076.95,-10,+134,+252
253995,9.450,0.527,3.945,-0.562741,0.558251,0.808122,100078.10,-10,+134,+252
254005,9.784,-0.084,3.884,-0.557952,0.581132,0.831003,100077.95,-9,+131,+253
254015,10.081,-0.116,4.017,-0.634044,0.601352,0.826746,100080.57,-8,+128,+254
254024,9.817,0.321,4.284,-0.725566,0.606141,0.835260,100074.41,-6,+125,+256
254034,9.588,0.369,3.984,-0.781970,0.618912,0.873571,100074.41,-6,+125,+256
254045,9.680,0.558,3.861,-0.818686,0.640196,0.932636,100081.12,-5,+121,+257
254055,9.894,0.782,4.036,-0.818154,0.668930,1.006599,100075.79,-5,+118,+257
254064,10.324,0.280,3.976,-0.794209,0.682765,1.097590,100078.54,-3,+115,+259
254074,11.056,-0.388,3.232,-0.814429,0.685958,1.181663,100077.27,-1,+110,+261
254085,11.761,-0.164,3.114,-0.880943,0.680637,1.281168,100077.27,-1,+110,+261
254095,11.951,0.434,3.156,-0.902759,0.699261,1.393975,100080.72,+0,+107,+261
254104,12.014,0.725,3.209,-0.851676,0.717884,1.539773,100079.19,+0,+102,+262
254114,12.186,0.523,3.248,-0.744190,0.728527,1.696745,100077.14,+1,+98,+264
254125,12.318,0.174,3.089,-0.662245,0.729591,1.839883,100080.67,+1,+98,+264
254135,12.718,-0.128,2.857,-0.634576,0.738105,1.968121,100080.67,+3,+95,+265
254145,12.738,0.135,2.804,-0.637768,0.741829,2.100616,100079.37,+3,+91,+266
254154,12.695,0.931,3.092,-0.626062,0.743958,2.254396,100080.32,+5,+87,+266
254164,12.945,1.483,3.471,-0.622337,0.746618,2.426800,100079.68,+5,+87,+266
254175,13.441,1.702,3.726,-0.691511,0.759921,2.589625,100076.59,+7,+83,+267
254185,14.095,2.086,3.793,-0.862319,0.783866,2.722121,100076.59,+8,+78,+268
254194,15.112,2.945,3.792,-1.098575,0.763646,2.838653,100080.26,+10,+73,+269
254204,16.422,4.904,4.066,-1.339621,0.665205,2.946139,100077.62,+10,+73,+269
254215,17.871,5.911,3.486,-1.725401,0.618912,2.997221,100076.73,+12,+65,+271
254225,19.145,5.924,1.928,-2.479400,0.629022,2.911552,100077.15,+14,+55,+271
254234,20.463,7.289,0.321,-3.561179,0.494398,2.713075,100077.15,+14,+39,+272
254244,20.701,9.916,-0.022,-4.509931,0.334233,2.489589,100079.23,+14,+39,+272
254255,19.077,9.769,1.648,-4.742817,0.284747,2.459436,100077.08,+16,+21,+271
254265,18.043,5.431,5.360,-3.794244,0.412985,2.815772,100077.39,+17,+4,+270
254275,20.388,1.064,7.706,-1.929199,0.484288,3.486763,100074.44,+21,-3,+269
254284,22.113,-1.006,7.777,-0.652135,0.443316,3.948634,100074.44,+21,-3,+269
254295,20.851,-0.977,8.307,-0.331273,0.448105,3.994395,100078.95,+26,-6,+269
254305,17.673,2.993,7.424,-0.046594,0.663077,3.680450,100079.63,+31,-7,+269
254315,13.413,7.046,5.789,0.286506,0.779077,3.132377,100078.10,+36,-7,+269
254324,9.834,7.465,4.619,0.645680,0.549738,2.630066,100075.41,+36,-7,+269
254334,7.733,-1.668,6.811,1.284212,0.492270,2.291112,100075.41,+40,-3,+270
254345,8.071,-0.512,5.317,1.187368,0.240050,1.650452,100078.78,+44,+1,+271
254355,9.418,2.416,1.458,0.720708,-0.057400,0.891663,100077.95,+44,+4,+271
254364,6.579,5.187,0.654,0.608433,-0.178188,-0.007602,100081.16,+44,+4,+271
254374,5.286,5.187,-0.018,0.544580,-0.419234,-0.482776,100076.31,+43,+5,+270
254385,4.386,3.121,-0.633,0.587148,-0.664005,-0.873877,100076.31,+40,+9,+271
254395,3.875,0.790,-0.566,0.623864,-0.860885,-1.310207,100079.69,+37,+12,+270
254405,3.819,-0.439,-0.167,0.614286,-1.079050,-1.748665,100080.89,+37,+12,+270
254414,3.808,-0.613,0.508,0.556286,-1.271142,-2.210537,100079.63,+33,+15,+270
254425,3.991,-0.257,0.983,0.521167,-1.452591,-2.672940,100079.05,+27,+18,+269
254435,4.369,0.287,1.079,0.571717,-1.612756,-3.080536,100079.05,+20,+22,+268
254445,4.829,0.452,1.235,0.692506,-1.718646,-3.430132,100076.94,+20,+22,+268
254454,5.278,0.394,1.481,0.827130,-1.805912,-3.744609,100072.89,+13,+27,+268
254465,5.696,0.315,1.700,0.961221,-1.867637,-4.034609,100075.47,+6,+33,+267
254475,6.068,0.123,2.077,1.070304,-1.920316,-4.318223,100071.14,+0,+41,+265
254485,6.470,-0.277,2.400,1.142139,-1.990022,-4.599710,100071.14,+0,+41,+265
254494,7.122,-0.603,2.717,1.179919,-2.038976,-4.888113,100071.10,-7,+49,+264
254504,7.828,-0.655,3.151,1.173001,-2.054940,-5.145654,100070.77,-12,+58,+261
254515,8.588,-0.594,3.584,1.160231,-2.061857,-5.384572,100069.95,-16,+69,+258
254525,9.256,-0.602,3.690,1.178322,-2.076224,-5.618167,100070.77,-21,+79,+256
254535,10.253,-0.772,3.722,1.195350,-2.076756,-5.853892,100070.77,-21,+79,+256
254544,11.858,-1.173,3.473,1.191093,-2.069839,-6.047580,100074.27,-23,+90,+252
254555,13.344,-1.756,3.333,1.178322,-2.033123,-6.201360,100070.70,-23,+101,+249
254565,14.466,-2.448,3.396,1.167680,-1.983105,-6.313635,100070.23,-23,+112,+246
254575,15.609,-3.079,4.039,1.121387,-1.964481,-6.404626,100071.38,-23,+112,+246
254584,16.986,-3.638,4.968,1.087864,-1.970866,-6.468479,100071.38,-20,+122,+242
254595,18.136,-4.499,5.916,1.045827,-1.991086,-6.493488,100074.25,-17,+132,+239
254605,19.171,-5.667,6.557,0.895063,-2.054053,-6.459078,100071.88,-13,+140,+236
254615,19.817,-6.401,6.873,0.707937,-2.088995,-6.355672,100072.61,-13,+140,+236
254625,19.854,-6.476,7.842,0.595662,-2.046958,-6.160388,100071.14,-10,+145,+234
254635,18.897,-6.335,9.147,0.681864,-1.868169,-5.855489,100071.14,-6,+152,+231
254645,17.837,-7.131,10.736,0.880873,-1.511123,-5.459599,100074.37,-2,+156,+229
254655,17.430,-9.249,11.644,0.956965,-1.096610,-5.003049,100077.73,-2,+156,+229
254665,16.449,-12.239,10.714,0.740928,-0.766702,-4.477857,100075.84,+2,+160,+228
254674,15.044,-15.975,9.463,0.316304,-0.519271,-3.869123,100077.68,+7,+163,+227
254685,13.452,-19.544,8.484,-0.189200,-0.365491,-3.046481,100077.68,+11,+162,+227
254695,10.794,-21.447,9.183,-0.644154,-0.205858,-2.000353,100082.19,+11,+162,+227
254705,8.790,-21.012,10.245,-0.942135,-0.048354,-0.778097,100077.13,+12,+158,+229
254714,8.656,-17.506,10.700,-0.868172,0.178325,0.479810,100076.39,+13,+154,+231
254725,9.245,-13.885,10.670,-0.410558,0.496527,1.573828,100075.28,+12,+150,+232
254735,9.816,-11.212,10.040,0.242873,0.842398,2.445424,100075.28,+12,+150,+232
254745,12.931,2.352,4.615,0.621203,0.927536,2.723185,100077.33,+12,+149,+232
254755,15.877,26.926,-6.359,0.395057,0.575811,1.892562,100079.44,+12,+148,+231
254765,14.096,28.896,-10.667,-0.367457,0.527921,0.657003,100083.02,+12,+145,+233
254775,8.559,-6.516,0.231,1.249093,1.352159,1.635553,100079.39,+12,+145,+233
254785,17.221,-11.817,6.261,2.494762,1.391535,2.912084,100079.39,+16,+150,+231
254795,22.756,-2.272,1.126,0.585552,0.835481,2.874304,100080.99,+14,+150,+231
254804,19.503,1.069,-0.560,-0.133328,0.968508,2.302818,100083.15,+14,+148,+231
254815,16.339,-1.188,3.884,0.542451,1.381957,2.951460,100079.20,+14,+148,+231
254825,13.552,-2.091,6.594,0.784561,1.578306,3.037662,100078.88,+15,+147,+231
254835,10.567,-1.917,7.766,0.704212,1.648012,2.677956,100078.88,+16,+148,+231
254840,10.542,-0.709,8.891,0.653130,1.684196,2.609846,100077.63,+16,+148,+231
254850,9.313,0.053,9.159,0.697295,1.718783,2.566213,100077.63,+18,+148,+233
254860,8.355,-0.374,6.978,0.703680,1.608636,2.441167,100078.09,+21,+148,+231
254870,8.772,-1.960,5.208,0.459442,1.392599,2.273020,100078.73,+21,+148,+231
254880,9.309,-2.670,4.288,0.148158,1.168581,2.034103,100079.05,+21,+148,+231
254891,10.805,-2.976,3.460,-0.186007,0.914765,1.875534,100080.27,+23,+147,+233
254900,11.887,-2.230,2.865,-0.457915,0.717884,1.735589,100082.86,+23,+146,+234
254910,11.523,-1.428,2.636,-0.675016,0.593903,1.591388,100078.59,+22,+142,+234
254920,10.788,-0.678,2.564,-0.829860,0.505573,1.446121,100078.59,+22,+142,+234
254929,10.266,0.622,2.564,-0.884667,0.445976,1.309369,100078.27,+22,+138,+236
254940,9.743,1.832,2.281,-0.678741,0.470985,1.159314,100078.27,+23,+134,+237
254950,9.667,1.198,2.114,-0.277530,0.582196,1.059278,100079.74,+23,+134,+238
254955,9.910,0.462,2.290,-0.069475,0.643389,1.019902,100080.21,+23,+134,+238
254965,9.862,0.326,2.761,-0.020521,0.652967,0.961370,100080.59,+23,+133,+238
254974,9.750,0.378,3.134,-0.038613,0.623701,0.869847,100076.05,+24,+132,+238
254985,9.305,0.525,3.215,-0.067347,0.580068,0.767682,100076.05,+24,+132,+238
254995,8.751,0.444,3.250,-0.116301,0.541756,0.691058,100081.77,+26,+131,+239
255005,8.970,0.236,3.462,-0.230172,0.488545,0.638911,100080.51,+26,+131,+239
255015,9.208,0.607,3.754,-0.413750,0.412985,0.586232,100076.35,+27,+129,+240
255025,9.119,1.733,3.638,-0.562209,0.367224,0.532489,100074.99,+27,+129,+240
255035,8.899,2.126,3.528,-0.612759,0.345940,0.535150,100074.99,+28,+127,+241
255045,8.957,1.829,2.851,-0.508998,0.376270,0.578783,100081.61,+28,+125,+241
255055,9.137,1.165,2.166,-0.387677,0.429481,0.634122,100081.45,+29,+124,+242
255065,9.240,1.068,2.013,-0.244539,0.493866,0.703828,100082.08,+29,+124,+242
255076,9.194,0.502,2.366,-0.163126,0.561089,0.783645,100075.92,+30,+122,+243
255085,9.283,-0.116,3.186,-0.245603,0.586985,0.813443,100075.92,+31,+121,+243
255095,9.248,-0.010,3.763,-0.463236,0.572086,0.795883,100077.05,+32,+120,+243
255105,9.025,0.388,3.830,-0.684594,0.553462,0.785241,100077.83,+32,+120,+243
255115,9.018,1.120,3.867,-0.826667,0.534306,0.809718,100077.78,+34,+116,+245
255125,9.498,1.780,3.584,-0.828796,0.538563,0.867186,100078.16,+34,+114,+245
255135,9.682,1.502,3.389,-0.730888,0.587517,0.964030,100078.16,+35,+111,+246
255145,9.817,0.850,3.253,-0.671823,0.625297,1.069920,100078.92,+35,+111,+246
255155,9.893,0.502,3.429,-0.671291,0.667866,1.133241,100078.77,+37,+109,+247
255165,10.029,0.310,3.855,-0.725566,0.691811,1.176342,100077.97,+39,+105,+248
255175,10.044,-0.062,3.650,-0.790484,0.691811,1.218911,100079.02,+39,+102,+249
255185,10.063,-0.415,3.492,-0.854869,0.714160,1.258287,100079.02,+39,+102,+249
255195,10.358,-0.637,3.428,-0.904355,0.710435,1.293938,100080.13,+42,+98,+249
255205,10.683,-0.265,3.667,-0.922979,0.717352,1.343424,100079.77,+42,+95,+251
255215,10.791,-0.056,3.886,-0.906484,0.737572,1.413131,100077.86,+44,+91,+251
255225,11.371,-0.125,3.947,-0.890520,0.732783,1.504121,100079.50,+44,+91,+251
255235,12.570,-0.047,3.339,-0.858594,0.701921,1.618525,100079.50,+46,+88,+252
255245,12.884,0.257,3.246,-0.804319,0.713627,1.757938,100079.09,+46,+85,+252
255255,12.862,0.241,2.987,-0.775053,0.738637,1.914378,100077.14,+48,+82,+253
255265,13.392,0.141,2.666,-0.729291,0.730655,2.067626,100078.09,+48,+82,+253
255276,13.990,0.124,2.548,-0.679273,0.726930,2.249075,100078.41,+49,+78,+254
255285,13.866,0.490,2.611,-0.669695,0.746086,2.414561,100078.41,+51,+75,+254
255295,13.557,1.141,2.973,-0.691511,0.755132,2.573662,100081.41,+53,+72,+254
255305,13.804,1.706,3.419,-0.704814,0.751939,2.739148,100082.15,+53,+72,+254
255315,14.480,2.221,3.622,-0.784099,0.752472,2.885478,100079.57,+55,+69,+255
255325,15.725,3.226,3.915,-0.947456,0.740765,3.003075,100079.93,+55,+65,+256
255335,17.482,4.773,4.281,-1.172539,0.661481,3.100983,100079.93,+56,+61,+257
255345,19.083,6.060,4.104,-1.549272,0.635407,3.123332,100078.44,+56,+61,+257
255355,20.649,6.811,2.727,-2.326685,0.633279,2.997754,100082.53,+58,+53,+258
255366,21.932,10.263,1.954,-3.510629,0.491738,2.732763,100080.53,+60,+43,+257
255375,20.920,13.867,2.203,-4.493435,0.342747,2.576855,100078.06,+60,+24,+258
255385,18.318,12.079,4.164,-4.509931,0.373609,2.699240,100078.06,+60,+24,+258
255395,17.901,3.849,6.699,-3.307895,0.490673,3.194634,100078.11,+63,+8,+259
255406,20.468,-1.859,7.803,-1.800960,0.583793,3.740579,100079.78,+66,+0,+257
255415,20.988,-1.428,7.414,-1.088997,0.563040,3.854450,100080.58,+71,-3,+256
255426,18.449,2.183,6.962,-1.080129,0.499010,3.604891,100078.58,+74,-9,+257
255435,15.438,6.133,5.965,-0.815493,0.599756,3.166965,100078.58,+74,-9,+257
255446,10.236,8.247,4.463,-0.311585,0.669994,2.629534,100080.54,+79,-12,+256
255455,8.405,4.858,4.638,0.410488,0.572618,2.251204,100081.18,+82,-11,+256
255465,7.357,-4.130,8.488,1.142671,0.578472,2.020268,100078.59,+86,-9,+257
255475,9.221,-0.395,4.082,0.896304,0.192160,1.375351,100077.23,+86,-9,+257
255485,8.218,2.679,1.367,0.524891,-0.016959,0.496838,100077.23,+86,-8,+257
255496,5.288,5.064,0.381,0.532341,-0.178188,-0.326868,100081.82,+85,-8,+259
255505,5.043,3.758,-0.899,0.562139,-0.446372,-0.750960,100080.45,+81,-8,+260
255515,5.084,0.947,-1.415,0.607368,-0.677307,-1.148446,100079.13,+81,-8,+260
255525,4.842,-0.867,-1.320,0.563203,-0.902390,-1.539546,100078.45,+77,-7,+261
255536,4.355,-1.258,-0.664,0.473277,-1.101399,-1.938097,100078.45,+71,-8,+262
255541,3.931,-1.061,-0.092,0.433901,-1.238151,-2.281307,100076.42,+71,-8,+262
255550,3.640,-0.553,0.426,0.459974,-1.381289,-2.621325,100076.42,+64,-8,+263
255560,3.658,0.338,0.752,0.629185,-1.519105,-3.012958,100081.06,+55,-7,+264
255570,4.093,0.906,0.953,0.987827,-1.579233,-3.358298,100075.48,+55,-7,+264
255581,4.744,0.767,1.012,1.402873,-1.581894,-3.670114,100076.00,+47,-4,+266
255591,5.431,0.008,0.851,1.624762,-1.592536,-3.929251,100074.26,+39,+1,+267
255600,5.696,-0.454,0.877,1.654028,-1.672353,-4.178811,100073.04,+30,+6,+267
255610,6.248,-0.275,1.375,1.599753,-1.783564,-4.460829,100072.15,+19,+6,+269
255621,7.094,-0.336,1.946,1.548671,-1.893178,-4.734334,100072.15,+19,+13,+269
255630,7.742,-0.681,2.564,1.480029,-1.960224,-5.009434,100073.41,+10,+22,+268
255640,8.359,-0.936,2.966,1.416707,-1.999600,-5.271764,100073.41,+0,+30,+267
255650,8.996,-1.225,2.998,1.370414,-2.028334,-5.514406,100073.91,-8,+38,+267
255661,9.878,-1.538,2.822,1.342744,-2.034187,-5.745342,100073.49,-8,+38,+267
255670,11.086,-1.739,2.553,1.294322,-2.055472,-5.972553,100073.65,-16,+49,+265
255680,12.872,-1.921,2.404,1.238451,-2.078352,-6.155599,100073.23,-23,+59,+263
255690,14.339,-2.041,2.742,1.217166,-2.038444,-6.275855,100073.23,-30,+71,+261
255700,15.282,-2.219,3.537,1.246432,-2.000132,-6.369507,100076.67,-30,+71,+261
255711,16.549,-2.835,4.558,1.263992,-1.998536,-6.457837,100076.42,-35,+83,+258
255721,18.225,-4.110,5.722,1.197478,-2.024077,-6.518497,100073.91,-37,+95,+255
255730,19.647,-5.422,6.772,1.027203,-2.072499,-6.526479,100073.91,-40,+107,+251
255740,20.523,-6.389,7.074,0.759020,-2.145930,-6.446130,100073.91,-40,+107,+251
255751,20.709,-6.541,7.633,0.534469,-2.149655,-6.272663,100079.20,-42,+117,+248
255760,19.903,-6.043,8.838,0.497754,-2.005453,-5.987452,100076.27,-43,+127,+244
255770,18.220,-6.250,10.486,0.647277,-1.671288,-5.601140,100076.31,-42,+137,+242
255776,17.207,-7.853,11.989,0.720176,-1.348830,-5.258994,100076.36,-42,+137,+242
255785,16.679,-10.563,12.144,0.557882,-1.059362,-4.869489,100076.36,-39,+146,+239
255796,15.532,-14.483,11.387,0.089626,-0.735307,-4.317691,100078.29,-39,+146,+239
255805,14.026,-18.350,10.092,-0.584557,-0.524060,-3.646701,100076.51,-35,+151,+239
255815,11.876,-20.808,9.767,-1.129970,-0.354317,-2.740518,100079.02,-32,+152,+239
255825,9.598,-21.773,10.766,-1.450300,-0.171803,-1.587968,100078.13,-31,+149,+241
255836,8.600,-20.174,11.701,-1.547676,0.007518,-0.255565,100078.13,-31,+149,+241
255846,8.821,-16.876,12.055,-1.331639,0.284215,1.020434,100077.87,-31,+144,+244
255855,9.480,-13.439,11.576,-0.821346,0.569958,2.100084,100076.40,-32,+138,+245
255865,12.994,-2.630,6.625,-0.294025,0.746086,2.718928,100079.55,-32,+134,+246
255876,16.774,22.019,-4.545,0.056103,0.554527,2.399130,100080.13,-33,+132,+247
255886,16.632,35.010,-12.321,-0.192925,0.494398,1.114617,100080.13,-33,+132,+247
255895,9.576,2.025,-2.182,2.094083,1.243609,1.877130,100082.04,-33,+134,+247
255905,17.539,-12.024,5.537,3.574412,1.595333,3.226029,100079.20,-30,+142,+244
255916,23.630,-7.867,0.170,1.665735,1.097279,3.319680,100079.57,-30,+142,+243
255926,19.447,-2.071,-2.071,0.125809,1.021187,2.651882,100079.52,-30,+142,+243
255935,13.270,-1.297,1.261,0.085369,1.236691,2.926983,100079.52,-30,+139,+245
255945,9.395,-0.861,6.456,0.513717,1.429847,2.912616,100080.71,-29,+136,+246
255955,8.642,-0.515,11.698,0.768066,1.595865,2.578983,100081.93,-26,+136,+246
255966,10.184,-2.003,13.565,0.955900,1.769865,2.482139,100076.51,-26,+136,+246
255975,12.754,-3.531,6.250,0.970267,1.592141,2.495442,100078.40,-23,+138,+248
255985,12.358,-4.350,3.717,0.530213,1.372379,2.507148,100078.40,-23,+137,+248
255995,9.740,-2.577,3.847,0.165185,1.202104,2.230451,100084.39,-21,+135,+249
256006,10.021,-2.928,3.438,-0.197714,0.904123,2.060708,100082.50,-21,+135,+249
256016,10.739,-1.923,3.171,-0.570723,0.696068,1.950029,100080.17,-21,+132,+251
256025,10.327,0.521,3.389,-0.710667,0.581132,1.761130,100079.13,-21,+127,+252
256035,9.651,1.675,3.216,-0.475475,0.549206,1.550415,100079.13,-20,+124,+253
256046,9.752,2.193,2.130,-0.049255,0.582196,1.372158,100080.57,-20,+124,+253
256056,9.973,1.906,2.172,0.328543,0.660949,1.333846,100079.04,-19,+123,+254
256065,10.039,0.678,2.737,0.494561,0.695004,1.331186,100080.41,-19,+124,+253
256075,10.041,-0.426,2.818,0.491369,0.671591,1.250305,100079.35,-17,+125,+254
256086,9.868,-0.460,2.837,0.445075,0.649774,1.110892,100079.35,-17,+125,+254
256096,9.495,-0.424,3.089,0.353552,0.622637,0.970948,100080.70,-16,+126,+253
256106,9.183,-0.857,3.019,0.141240,0.556123,0.863461,100080.32,-16,+124,+254
256115,8.994,-0.576,3.049,-0.126411,0.499719,0.749058,100081.70,-14,+124,+255
256125,8.983,0.784,3.613,-0.480973,0.423805,0.652036,100081.01,-14,+124,+255
256136,9.117,1.555,3.408,-0.621273,0.398086,0.616030,100081.01,-14,+121,+256
256146,9.224,1.312,2.566,-0.610099,0.421499,0.621351,100083.73,-14,+118,+257
256155,9.206,1.013,2.087,-0.439291,0.476307,0.656471,100082.52,-11,+116,+257
256165,9.261,0.826,1.879,-0.217402,0.553462,0.705425,100079.52,-11,+116,+257
256176,9.486,-0.125,2.592,-0.115237,0.610398,0.747994,100080.67,-10,+116,+257
256186,9.766,-0.663,3.535,-0.253585,0.594435,0.735223,100080.67,-9,+114,+258
256195,9.400,0.116,3.786,-0.478135,0.556655,0.661260,100081.88,-7,+112,+260
256205,8.818,0.899,3.934,-0.585622,0.539628,0.638379,100079.88,-7,+112,+260
256216,8.994,1.056,3.410,-0.593071,0.508233,0.681480,100081.37,-7,+110,+261
256226,9.583,0.983,2.930,-0.536135,0.519407,0.744801,100077.62,-5,+107,+262
256235,9.689,0.864,2.806,-0.501548,0.544417,0.826214,100077.62,-4,+105,+263
256245,9.795,0.700,3.122,-0.515915,0.574215,0.903370,100079.15,-4,+105,+263
256256,9.742,0.759,3.280,-0.553695,0.615719,0.958709,100081.73,-3,+101,+262
256266,9.421,1.057,3.718,-0.573383,0.644985,1.022030,100080.41,-1,+99,+264
256276,9.407,0.898,3.867,-0.573383,0.659352,1.114085,100077.95,+0,+96,+265
256285,9.566,0.399,3.880,-0.615952,0.680105,1.196562,100077.95,+0,+96,+265
256295,9.752,0.387,4.042,-0.689383,0.686490,1.257755,100081.95,+1,+93,+266
256306,10.214,0.164,4.137,-0.740466,0.701921,1.304580,100080.16,+3,+89,+266
256316,10.908,-0.666,4.146,-0.797933,0.735976,1.330122,100077.20,+5,+85,+267
256325,11.170,-0.818,4.112,-0.920851,0.745554,1.341296,100078.16,+7,+85,+268
256335,12.013,-0.413,3.215,-1.008117,0.705114,1.382800,100078.16,+7,+81,+268
256346,12.386,-0.085,2.909,-0.978319,0.698728,1.484966,100081.20,+8,+77,+269
256356,12.202,0.265,2.599,-0.903823,0.710435,1.632892,100081.04,+11,+72,+270
256361,12.426,0.438,2.558,-0.834649,0.721077,1.753149,100080.57,+11,+72,+270
256370,12.719,0.184,2.365,-0.735144,0.728527,1.872874,100080.57,+13,+68,+271
256380,12.848,-0.034,2.351,-0.649475,0.750875,2.041020,100081.04,+14,+65,+272
256391,12.927,0.571,2.766,-0.615952,0.776949,2.206506,100081.04,+14,+65,+272
256401,13.119,1.292,3.411,-0.569126,0.774288,2.383167,100081.79,+18,+61,+271
256411,13.735,1.453,3.760,-0.560612,0.788655,2.548653,100079.68,+19,+58,+272
256420,14.153,1.628,4.051,-0.689383,0.828563,2.676359,100078.68,+22,+53,+273
256431,14.409,2.394,4.003,-0.962355,0.847187,2.788102,100078.68,+22,+53,+273
256441,15.551,3.460,3.991,-1.249162,0.834416,2.890267,100078.68,+26,+49,+273
256451,17.469,4.912,3.951,-1.503511,0.735976,3.005203,100081.86,+28,+42,+273
256460,19.253,5.956,3.308,-1.954208,0.704582,3.061607,100079.55,+31,+35,+273
256471,21.073,6.426,1.625,-2.864648,0.718949,2.938157,100079.28,+31,+35,+273
256481,22.429,8.304,0.349,-4.130537,0.569958,2.715735,100078.44,+33,+21,+274
256491,22.574,12.663,0.508,-5.170811,0.398086,2.563020,100078.44,+36,+3,+272
256501,20.408,14.269,3.756,-4.959032,0.369352,2.803001,100079.52,+39,-16,+269
256510,19.522,7.970,5.980,-3.153051,0.439591,3.529331,100082.67,+39,-16,+269
256521,21.488,0.090,6.538,-1.282685,0.585921,4.126359,100080.52,+44,-25,+267
256531,21.014,-3.606,7.833,-0.914465,0.486417,4.144450,100080.52,+49,-29,+266
256541,18.849,-0.706,8.184,-0.927236,0.410857,3.792193,100080.10,+55,-31,+264
256550,16.630,5.262,6.778,-0.459512,0.598692,3.339900,100079.63,+59,-32,+264
256561,11.751,8.096,4.931,0.195516,0.684361,2.856745,100079.63,+59,-32,+264
256571,9.198,1.477,5.414,1.036249,0.590178,2.571534,100079.88,+64,-28,+264
256581,7.524,-6.929,9.319,1.616249,0.627426,2.309204,100080.15,+69,-23,+265
256590,8.890,-2.810,4.209,1.095313,0.175132,1.636617,100080.15,+69,-19,+266
256596,7.590,-0.532,1.864,0.694634,-0.029198,0.895388,100079.73,+69,-19,+266
256606,5.266,2.075,1.546,0.534469,-0.090922,0.136067,100078.95,+69,-16,+266
256616,4.962,2.898,0.411,0.297148,-0.330904,-0.400831,100080.41,+69,-16,+266
256626,4.615,1.266,-0.365,0.188598,-0.586849,-0.778629,100081.37,+67,-15,+266
256635,3.511,-0.251,-0.536,0.235424,-0.793307,-1.117051,100081.37,+63,-15,+266
256646,2.713,-0.522,0.057,0.388671,-0.968371,-1.471436,100082.15,+58,-13,+266
256656,2.121,-0.390,0.805,0.646745,-1.100335,-1.882225,100082.73,+58,-13,+266
256666,1.948,0.014,1.244,0.935148,-1.191325,-2.285032,100081.73,+52,-10,+267
256675,2.215,0.602,1.383,1.257607,-1.257307,-2.644738,100080.90,+46,-5,+267
256686,2.805,0.832,1.462,1.582194,-1.313179,-2.981564,100080.90,+39,+0,+267
256696,3.588,0.536,1.598,1.804615,-1.389802,-3.295509,100082.05,+39,+0,+267
256706,4.134,0.135,1.898,1.888689,-1.482922,-3.600407,100077.83,+32,+7,+269
256711,4.350,-0.134,2.276,1.828028,-1.549967,-3.827618,100076.56,+24,+15,+269
256720,4.653,-0.602,2.282,1.633276,-1.638830,-4.051637,100076.56,+24,+15,+269
256731,5.118,-0.696,2.272,1.397019,-1.766536,-4.370903,100073.36,+17,+23,+269
256741,5.748,-0.540,2.509,1.238983,-1.824004,-4.683251,100073.36,+9,+32,+267
256751,6.523,-0.613,2.750,1.132561,-1.875087,-4.955691,100075.04,+1,+38,+267
256761,7.282,-0.842,2.784,1.043699,-1.925637,-5.213232,100075.32,+1,+38,+267
256771,8.103,-1.298,2.590,0.946322,-1.968738,-5.457470,100074.20,-5,+47,+266
256781,8.778,-1.889,2.229,0.812763,-2.016096,-5.666058,100074.20,-11,+55,+264
256791,9.553,-2.151,1.893,0.642488,-2.057600,-5.871984,100074.20,-17,+63,+262
256801,10.842,-2.073,1.707,0.480726,-2.084738,-6.066204,100076.08,-17,+63,+262
256811,12.270,-1.842,2.122,0.389203,-2.069307,-6.219451,100076.66,-23,+72,+260
256821,13.481,-1.769,3.089,0.395589,-2.026206,-6.335452,100073.88,-27,+80,+257
256831,14.384,-2.391,4.121,0.407295,-2.021417,-6.454644,100073.92,-31,+89,+254
256841,15.554,-3.706,5.434,0.440818,-2.014499,-6.585543,100073.92,-31,+89,+254
256851,16.887,-5.203,6.483,0.522763,-1.975123,-6.671745,100074.38,-33,+99,+253
256861,18.053,-6.600,6.490,0.548836,-1.953839,-6.638222,100077.23,-34,+109,+250
256871,19.225,-7.621,6.416,0.469020,-1.940536,-6.466883,100073.30,-33,+118,+248
256881,20.345,-7.330,6.691,0.466891,-1.880940,-6.163048,100073.30,-33,+118,+248
256891,20.709,-6.910,7.464,0.670690,-1.706940,-5.717140,100082.17,-33,+128,+244
256901,19.393,-7.639,8.823,1.045827,-1.419600,-5.172792,100076.44,-32,+137,+242
256911,17.603,-9.683,10.510,1.356579,-1.089160,-4.587471,100076.44,-28,+147,+238
256921,16.231,-13.108,11.345,1.303900,-0.761381,-3.984591,100076.86,-28,+147,+238
256931,13.989,-16.880,11.180,0.935148,-0.443711,-3.373197,100077.55,-24,+155,+236
256941,12.634,-19.849,10.237,0.307791,-0.227143,-2.624518,100077.55,-21,+160,+234
256951,11.093,-21.049,9.813,-0.245071,-0.037712,-1.619363,100080.27,-17,+161,+235
256961,9.892,-20.334,10.074,-0.560612,0.160233,-0.470538,100078.95,-17,+161,+235
256971,9.392,-18.037,10.611,-0.597328,0.379995,0.707553,100080.22,-17,+160,+236
256982,9.674,-15.321,10.729,-0.329677,0.639664,1.762195,100080.31,-17,+156,+238
256991,12.018,-5.430,7.726,0.043332,0.840270,2.508213,100082.53,-18,+154,+239
257001,14.997,18.798,-1.075,-0.050851,0.598692,2.136800,100081.58,-19,+152,+240
257011,16.028,45.698,-11.080,-0.545713,0.343279,0.508012,100081.20,-19,+152,+240
257021,8.952,11.128,-6.104,0.325350,0.925939,0.854416,100081.31,-17,+150,+241
257031,12.088,-14.205,6.900,3.225348,1.736875,2.442231,100081.31,-14,+158,+238
257041,20.804,-8.725,3.717,2.052578,1.131866,3.205808,100081.31,-15,+159,+237
257051,20.857,0.084,-1.925,-0.059897,0.796637,2.285791,100082.97,-15,+159,+237
257061,15.626,1.725,2.076,0.133259,1.173370,2.405515,100083.44,-15,+156,+238
257071,13.665,-0.455,5.157,0.728689,1.408031,2.953056,100081.86,-14,+156,+238
257081,10.685,-2.283,5.860,0.737735,1.454324,2.609313,100080.13,-14,+157,+239
257091,10.633,-0.488,8.888,0.631313,1.519774,2.437974,100080.13,-14,+157,+239
257101,9.141,0.424,11.370,0.797332,1.643223,2.406048,100081.03,-12,+156,+240
257112,10.250,-1.138,7.173,1.025075,1.527223,2.337405,100080.56,-10,+157,+239
257121,11.336,-4.213,4.358,0.688249,1.272343,2.248543,100083.45,-10,+157,+239
257131,10.258,-3.491,3.575,0.246066,1.075462,1.986745,100083.45,-10,+157,+239
257141,10.703,-3.268,2.919,-0.174301,0.820582,1.774433,100083.45,-9,+156,+241
257152,11.949,-3.004,2.354,-0.549970,0.618380,1.621186,100081.91,-8,+153,+242
257161,11.829,-1.297,2.239,-0.835181,0.499719,1.447718,100083.74,-10,+148,+243
257171,10.957,-0.097,2.574,-0.970869,0.449169,1.276379,100085.80,-10,+148,+243
257181,9.785,1.366,2.424,-0.971224,0.428771,1.101846,100080.99,-10,+144,+245
257190,9.410,2.222,2.122,-0.752704,0.461940,1.027351,100080.99,-10,+140,+246
257202,9.667,2.525,2.276,-0.376502,0.546013,0.986379,100086.26,-9,+138,+248
257211,9.707,1.780,2.828,-0.075860,0.623701,0.945938,100081.73,-9,+138,+248
257221,9.406,0.802,3.209,0.044928,0.626894,0.888471,100079.41,-8,+138,+248
257231,9.287,0.479,3.218,0.003956,0.585389,0.807590,100080.40,-7,+138,+248
257242,8.991,0.525,3.220,-0.120558,0.532178,0.712874,100082.13,-6,+136,+249
257251,8.721,0.660,3.412,-0.287640,0.468325,0.640507,100082.71,-6,+136,+249
257261,8.709,1.002,3.523,-0.464833,0.392233,0.576122,100082.71,-6,+135,+250
257271,8.862,1.790,3.553,-0.646282,0.328912,0.529296,100081.62,-5,+132,+251
257282,8.799,2.337,3.228,-0.718649,0.314013,0.518122,100081.40,-5,+130,+252
257291,8.809,2.285,2.423,-0.661713,0.339554,0.549517,100081.40,-5,+130,+252
257301,9.110,1.918,1.899,-0.466429,0.397554,0.626673,100085.50,-4,+128,+253
257311,9.237,1.504,1.651,-0.232833,0.479499,0.724049,100081.50,-3,+125,+253
257321,9.407,0.654,2.094,-0.106723,0.565701,0.813443,100080.92,-2,+124,+253
257332,9.421,0.218,3.182,-0.207824,0.594967,0.842177,100080.23,-2,+124,+253
257341,9.165,0.466,3.817,-0.405769,0.579536,0.814507,100081.22,-1,+123,+254
257351,8.892,1.034,3.990,-0.554227,0.556123,0.796416,100078.70,+0,+120,+256
257361,8.987,1.363,3.752,-0.603181,0.550270,0.826746,100078.80,+1,+118,+256
257372,9.530,1.162,3.125,-0.623933,0.557719,0.882617,100075.64,+1,+118,+256
257381,9.907,0.699,2.700,-0.630851,0.596563,0.951792,100075.64,+1,+115,+257
257391,9.853,0.742,3.000,-0.679805,0.653499,1.005002,100075.64,+3,+112,+258
257401,9.680,1.087,3.224,-0.712264,0.680105,1.057149,100085.36,+5,+108,+259
257412,9.531,1.519,3.559,-0.677677,0.714160,1.131645,100082.72,+5,+108,+259
257421,9.700,1.380,4.185,-0.620209,0.742361,1.213057,100079.67,+6,+105,+261
257431,10.157,0.152,4.158,-0.605310,0.740233,1.283828,100080.36,+7,+103,+262
257441,10.453,-0.644,4.056,-0.734612,0.754600,1.305112,100080.36,+10,+99,+262
257452,10.388,-0.511,4.050,-0.930961,0.732251,1.306709,100080.52,+10,+95,+263
257462,10.394,-0.120,3.618,-1.063988,0.714160,1.337039,100079.72,+10,+95,+263
257471,10.460,0.281,3.513,-1.122520,0.723205,1.421112,100077.47,+13,+91,+264
257481,11.128,0.265,3.388,-1.120392,0.701921,1.551479,100077.47,+14,+85,+266
257491,12.173,0.852,3.149,-1.027805,0.662013,1.714305,100077.47,+16,+80,+266
257501,12.464,1.348,3.459,-0.839970,0.675848,1.915442,100080.04,+16,+80,+266
257511,12.613,0.177,3.183,-0.667566,0.744490,2.093699,100082.93,+17,+77,+267
257521,13.221,-0.230,2.824,-0.635108,0.749811,2.242690,100083.15,+20,+73,+268
257531,13.513,0.026,2.918,-0.632092,0.737395,2.401613,100079.30,+22,+70,+268
257541,13.423,0.614,3.375,-0.655328,0.741297,2.528433,100079.30,+22,+70,+268
257551,13.688,1.278,3.924,-0.696833,0.743426,2.672635,100083.15,+23,+67,+269
257561,14.310,1.764,4.108,-0.776117,0.750343,2.815772,100080.46,+26,+62,+269
257571,15.518,2.365,3.978,-0.951181,0.771627,2.935497,100080.88,+28,+57,+269
257582,17.262,3.491,4.121,-1.176795,0.732251,3.043515,100080.38,+28,+57,+269
257592,19.125,5.121,4.086,-1.454025,0.669462,3.141955,100078.42,+30,+53,+270
257601,20.496,5.510,2.706,-2.042538,0.706178,3.140891,100081.48,+32,+43,+271
257611,22.238,7.174,0.691,-3.186574,0.685426,2.978065,100081.48,+34,+31,+270
257622,23.361,12.251,-0.566,-4.515252,0.406068,2.779057,100081.69,+34,+31,+270
257631,22.313,16.688,-0.056,-5.317142,0.188967,2.787038,100080.95,+35,+11,+269
257641,19.965,13.789,2.220,-4.824940,0.178325,3.081295,100080.95,+38,-7,+266
257651,19.231,3.838,5.274,-2.947657,0.336894,3.690028,100078.52,+42,-17,+264
257661,20.083,-3.394,7.633,-1.435933,0.344875,4.217349,100078.37,+42,-17,+264
257672,19.103,-3.241,8.865,-0.948520,0.245903,4.232780,100075.84,+48,-21,+263
257681,17.330,2.466,8.147,-0.352558,0.426820,3.796450,100076.21,+52,-23,+262
257691,15.001,7.144,5.706,0.381754,0.691279,3.216983,100080.98,+58,-21,+263
257701,10.616,8.236,5.054,0.957497,0.672655,2.661460,100078.98,+58,-21,+263
257712,8.228,1.464,4.620,1.394359,0.368820,2.293240,100078.93,+62,-17,+264
257722,5.933,-6.481,7.831,1.722671,0.351793,1.923956,100082.35,+65,-10,+264
257731,7.414,-2.621,3.757,1.294854,-0.084005,1.166232,100082.35,+65,-5,+265
257741,6.981,0.624,1.722,0.816488,-0.342078,0.266434,100082.35,+65,-5,+265
257752,4.622,3.352,1.304,0.600983,-0.469785,-0.596116,100084.41,+64,-1,+265
257762,4.001,3.452,0.395,0.470084,-0.686885,-1.047345,100083.48,+61,+0,+265
257771,3.373,2.005,0.132,0.527552,-0.832684,-1.363950,100082.79,+58,+1,+266
257781,2.685,0.549,0.329,0.651534,-0.978482,-1.669381,100082.79,+58,+1,+266
257792,2.241,-0.334,0.836,0.777644,-1.134922,-2.039730,100082.79,+53,+4,+266
257802,2.055,-0.668,1.240,0.834579,-1.294023,-2.471803,100079.87,+47,+7,+266
257812,2.223,-0.249,1.436,0.839368,-1.465362,-2.910793,100077.60,+40,+11,+266
257821,2.781,0.401,1.345,0.884598,-1.614353,-3.310940,100076.23,+40,+11,+266
257831,3.563,0.709,1.292,0.982506,-1.709600,-3.664261,100076.23,+33,+15,+266
257842,4.416,0.376,1.209,1.043699,-1.771325,-3.962774,100076.23,+26,+21,+266
257851,4.975,-0.079,1.281,1.017625,-1.819215,-4.239471,100076.91,+17,+27,+266
257861,5.224,-0.113,1.560,0.947387,-1.871894,-4.501801,100073.34,+17,+27,+266
257871,5.655,-0.062,1.980,0.939937,-1.889453,-4.762003,100070.76,+10,+31,+266
257882,6.494,-0.365,2.368,0.973460,-1.883068,-5.028058,100067.55,+4,+38,+264
257891,7.309,-0.673,2.751,0.961221,-1.900096,-5.285067,100067.55,-2,+46,+263
257901,8.009,-0.626,2.987,0.964414,-1.908077,-5.530901,100071.42,-8,+55,+262
257911,8.819,-0.509,3.108,1.015497,-1.901692,-5.782057,100068.11,-8,+55,+262
257922,9.864,-0.456,3.128,1.091588,-1.911802,-6.030553,100069.89,-14,+65,+260
257932,11.623,-0.442,3.024,1.129368,-1.954371,-6.274791,100067.48,-17,+74,+257
257942,13.750,-0.679,2.934,1.187900,-1.970866,-6.453580,100071.21,-21,+85,+255
257951,15.399,-1.650,3.045,1.200671,-1.934683,-6.562130,100069.68,-21,+85,+255
257961,16.655,-2.850,4.017,1.182579,-1.904353,-6.666424,100069.68,-23,+96,+253
257972,18.654,-3.988,5.445,1.187900,-1.908077,-6.741451,100069.85,-24,+107,+250
257981,20.958,-5.398,6.638,1.229405,-1.920316,-6.702075,100072.05,-25,+118,+246
257991,22.521,-6.977,7.548,1.210249,-1.970866,-6.561598,100072.05,-25,+118,+246
258001,23.580,-8.346,8.100,1.012836,-2.030995,-6.346626,100074.96,-24,+130,+244
258012,22.185,-8.496,9.161,0.735075,-1.977784,-6.036406,100075.21,-23,+138,+239
258022,18.599,-6.859,11.387,0.729754,-1.663839,-5.700644,100074.43,-20,+145,+236
258031,17.120,-7.423,13.689,0.876084,-1.183344,-5.236113,100078.12,-20,+145,+236
258041,16.965,-11.875,13.602,0.664836,-0.709766,-4.665691,100078.38,-16,+154,+236
258052,14.541,-17.056,12.152,-0.032760,-0.343675,-4.068664,100078.53,-11,+158,+234
258062,12.364,-21.026,9.588,-0.893713,-0.175528,-3.292316,100076.64,-7,+157,+234
258072,10.627,-22.622,8.634,-1.479034,-0.055271,-2.219583,100079.38,-7,+157,+234
258081,9.098,-21.299,9.131,-1.742960,0.043701,-0.905271,100079.38,-5,+152,+237
258092,8.847,-17.478,9.886,-1.584924,0.202270,0.471829,100079.38,-5,+146,+239
258102,9.216,-13.663,10.931,-0.928832,0.519407,1.662690,100081.17,-5,+142,+241
258111,11.581,-4.366,9.524,-0.135457,0.804618,2.458194,100081.70,-5,+142,+241
258117,13.451,7.309,4.728,0.355148,0.816857,2.547057,100079.44,-4,+140,+241
258126,15.323,29.910,-3.660,0.414213,0.630086,1.857974,100078.75,-4,+140,+242
258137,13.528,28.096,-11.483,-0.041805,0.626361,0.830471,100078.75,-4,+141,+242
258147,9.501,-4.204,-1.533,2.230303,1.513388,2.117112,100081.24,-2,+142,+241
258156,18.071,-7.282,1.485,3.506302,1.523499,3.419717,100081.82,-1,+151,+237
258166,22.106,-4.671,0.265,1.705111,1.135591,3.240928,100083.99,-1,+153,+237
258177,18.119,-3.551,-0.965,0.568524,1.146765,2.682745,100082.93,-1,+153,+237
258187,14.997,-1.662,2.180,0.317901,1.281389,2.958377,100082.93,-1,+152,+236
258197,11.317,0.407,5.858,0.341846,1.412288,2.859937,100080.63,+0,+151,+237
258206,7.508,2.574,9.256,0.620139,1.526159,2.564084,100083.16,+0,+151,+238
258216,7.074,3.065,12.061,1.160763,1.750177,2.507680,100079.63,+0,+151,+238
258227,8.344,0.154,7.977,1.683294,1.725168,2.539075,100080.74,+2,+154,+236
258237,10.007,-3.492,5.667,1.551863,1.496361,2.517791,100080.74,+4,+158,+234
258246,11.011,-3.607,5.394,1.097442,1.234563,2.377314,100080.79,+5,+159,+234
258256,13.132,-6.278,2.558,0.538194,0.878582,2.234176,100082.95,+5,+159,+234
258267,13.970,-7.472,1.419,-0.236025,0.661481,2.122965,100080.41,+3,+158,+234
258277,12.380,-3.565,1.663,-1.073566,0.517811,1.856910,100080.04,+3,+153,+237
258286,9.646,-0.408,2.008,-1.475841,0.438527,1.537112,100080.04,+1,+148,+239
258296,9.402,1.257,1.580,-1.300245,0.465132,1.269993,100080.17,+1,+148,+239
258307,9.838,2.058,1.516,-0.816557,0.598160,1.128984,100081.91,+1,+143,+241
258317,9.711,1.922,2.333,-0.413218,0.732251,1.130580,100082.95,+2,+142,+242
258327,9.567,1.266,3.152,-0.156209,0.760453,1.126324,100079.22,+4,+139,+243
258336,9.560,0.743,3.375,0.007149,0.737040,1.037461,100079.22,+4,+139,+243
258347,9.737,0.303,3.309,0.055571,0.699261,0.920929,100082.63,+5,+139,+243
258353,9.577,-0.005,3.337,-0.001365,0.665738,0.857076,100080.67,+6,+138,+244
258362,9.254,-0.396,3.355,-0.132264,0.617316,0.795351,100080.67,+6,+138,+244
258372,8.885,-0.229,3.687,-0.396191,0.536967,0.692654,100079.78,+7,+137,+244
258381,8.752,0.078,4.291,-0.749511,0.422031,0.614966,100078.47,+7,+134,+245
258392,8.878,1.207,3.923,-1.008117,0.358178,0.539939,100084.16,+8,+130,+246
258402,9.024,1.756,3.127,-1.050153,0.346472,0.501627,100085.90,+8,+130,+246
258412,9.283,1.721,2.262,-0.865511,0.388508,0.520783,100080.68,+9,+128,+248
258421,9.480,1.379,1.664,-0.565401,0.472050,0.574526,100080.21,+10,+124,+248
258432,9.401,1.160,2.049,-0.253053,0.550802,0.647425,100080.21,+10,+124,+249
258442,9.354,0.577,2.807,-0.079053,0.600820,0.702232,100080.21,+10,+124,+249
258452,9.173,-0.450,3.844,-0.184943,0.606141,0.703828,100078.60,+11,+123,+250
258461,8.929,-0.407,4.351,-0.446209,0.552930,0.650085,100079.29,+14,+120,+251
258467,8.775,0.412,4.474,-0.628190,0.514618,0.596342,100078.34,+14,+120,+251
258477,8.853,0.972,4.510,-0.715988,0.485884,0.577718,100076.38,+14,+118,+252
258487,9.240,1.274,3.979,-0.704814,0.466196,0.595278,100076.38,+15,+115,+252
258497,9.662,0.994,3.205,-0.644154,0.493866,0.631462,100080.73,+15,+115,+252
258506,10.118,0.115,2.728,-0.577108,0.540692,0.687333,100081.09,+17,+114,+254
258516,10.199,-0.684,2.675,-0.641493,0.583261,0.722984,100080.40,+18,+111,+254
258527,10.089,-0.864,2.670,-0.826135,0.614123,0.734159,100079.88,+19,+108,+254
258537,9.643,0.989,3.649,-0.998539,0.635939,0.741076,100079.88,+19,+108,+254
258547,9.289,1.815,4.108,-0.930429,0.624765,0.844305,100081.81,+21,+104,+256
258556,9.380,0.783,4.086,-0.814961,0.675316,0.974140,100081.34,+23,+101,+256
258567,9.580,0.502,4.216,-0.842098,0.676912,1.075241,100078.45,+23,+97,+256
258577,9.560,0.373,4.351,-0.880410,0.673187,1.166232,100080.19,+26,+97,+256
258586,10.028,0.005,4.401,-0.937878,0.677444,1.243920,100080.19,+26,+94,+258
258596,11.196,0.068,4.098,-1.017695,0.659352,1.313626,100080.17,+27,+89,+259
258607,11.761,0.582,4.043,-1.019823,0.639132,1.418984,100082.13,+28,+86,+260
258617,11.971,0.707,3.736,-0.938942,0.617316,1.574892,100077.44,+30,+81,+260
258627,12.610,0.136,3.235,-0.835181,0.630086,1.726543,100082.33,+30,+81,+260
258636,12.796,-0.378,2.831,-0.781970,0.647114,1.877130,100082.33,+32,+79,+261
258647,12.914,-0.260,2.654,-0.753768,0.635407,2.026121,100082.23,+32,+75,+261
258657,13.209,0.154,2.748,-0.710667,0.623701,2.185222,100083.13,+34,+71,+261
258667,13.421,0.719,3.328,-0.686722,0.621572,2.343259,100083.02,+34,+71,+261
258676,13.485,1.203,3.449,-0.664374,0.646050,2.492781,100081.19,+35,+69,+262
258686,13.631,1.353,3.814,-0.709071,0.680637,2.625809,100081.19,+38,+65,+262
258697,14.530,1.668,3.701,-0.843695,0.674251,2.750855,100083.16,+39,+61,+262
258703,15.596,2.066,3.466,-0.982575,0.664673,2.830139,100081.84,+39,+61,+262
258712,16.719,3.021,3.545,-1.166685,0.624765,2.904102,100081.84,+40,+56,+262
258722,18.043,4.501,3.252,-1.530648,0.580600,2.977533,100082.01,+40,+56,+262
258732,19.010,5.642,2.521,-2.139382,0.570490,2.953056,100080.10,+42,+50,+262
258742,19.478,7.806,1.352,-3.027473,0.434270,2.860469,100080.10,+43,+40,+262
258752,19.653,11.308,1.037,-4.035289,0.258142,2.783845,100082.56,+44,+24,+262
258762,19.357,12.561,1.527,-4.644022,0.162362,2.742341,100081.28,+44,+24,+262
258771,18.966,8.987,3.335,-4.425325,0.160233,2.875901,100079.75,+46,+8,+261
258782,18.887,3.566,7.075,-3.066317,0.302307,3.331386,100079.75,+48,-5,+258
258792,20.406,1.780,8.489,-1.107089,0.377334,3.900744,100079.75,+52,-9,+257
258802,20.400,1.128,7.778,0.258304,0.390637,4.202982,100080.84,+56,-9,+257
258811,18.149,0.751,6.275,0.548304,0.436398,4.100817,100082.53,+56,-7,+257
258822,15.852,3.778,4.858,0.567992,0.466729,3.643203,100081.80,+61,-3,+256
258832,12.716,5.728,3.041,0.761680,0.435334,3.036065,100079.11,+64,-1,+256
258842,8.970,3.012,4.594,0.862249,0.148527,2.493846,100079.11,+67,+3,+254
258852,7.738,-4.794,6.162,1.066579,-0.052078,2.202250,100083.46,+67,+3,+254
258862,6.450,-6.236,8.038,1.239515,-0.069638,1.664286,100081.16,+67,+7,+254
258872,8.508,0.072,2.830,0.852139,-0.449564,0.981058,100078.93,+67,+11,+254
258882,6.250,2.747,1.928,0.704212,-0.476702,0.190875,100078.93,+65,+14,+253
258892,4.078,3.742,1.542,0.725497,-0.592702,-0.361987,100084.17,+65,+14,+253
258902,3.278,2.534,0.346,0.787754,-0.840133,-0.728079,100084.17,+63,+17,+252
258912,2.717,0.678,-0.016,0.835111,-1.049784,-1.087253,100080.80,+59,+19,+252
258922,2.555,-0.484,0.126,0.900029,-1.233362,-1.470372,100081.84,+55,+24,+251
258932,2.632,-0.758,0.473,0.901625,-1.393527,-1.892867,100080.11,+55,+24,+251
258941,2.723,-0.679,0.740,0.768066,-1.569123,-2.327601,100080.11,+49,+27,+250
258952,3.024,-0.320,0.952,0.627589,-1.717582,-2.743711,100081.61,+44,+29,+251
258962,3.516,-0.012,1.175,0.563735,-1.813894,-3.143857,100077.56,+39,+33,+249
258972,3.956,0.042,1.410,0.575442,-1.867637,-3.508353,100077.77,+39,+33,+249
258982,4.324,-0.063,1.498,0.600983,-1.905949,-3.841453,100075.07,+33,+36,+248
258992,4.827,-0.188,1.656,0.618011,-1.929362,-4.142627,100075.96,+27,+40,+246
259002,5.400,-0.257,1.852,0.640359,-1.939472,-4.425178,100075.49,+22,+44,+244
259012,5.970,-0.413,2.096,0.674946,-1.936811,-4.718902,100075.49,+22,+44,+244
259022,6.742,-0.681,2.159,0.692506,-1.929894,-5.016883,100072.59,+18,+48,+243
259032,7.386,-0.836,2.244,0.699956,-1.911802,-5.291985,100069.91,+14,+53,+241
259042,8.019,-0.624,2.491,0.760616,-1.877215,-5.537819,100069.91,+12,+58,+238
259052,9.060,-0.326,2.760,0.869521,-1.841918,-5.781170,100071.17,+12,+58,+238
259062,10.277,-0.405,3.015,0.959625,-1.807509,-5.977874,100071.17,+9,+63,+237
259073,11.767,-0.601,3.220,1.049020,-1.794738,-6.190186,100073.03,+7,+69,+235
259082,13.582,-0.957,3.586,1.086799,-1.808041,-6.384938,100072.45,+7,+74,+234
259092,15.443,-1.501,3.877,1.080946,-1.812298,-6.547231,100072.45,+7,+74,+234
259102,16.652,-2.272,4.343,1.073497,-1.821343,-6.665892,100074.09,+5,+79,+233
259112,18.301,-3.699,5.542,1.028799,-1.849013,-6.738791,100072.94,+3,+83,+231
259122,20.449,-5.719,6.602,0.888855,-1.900096,-6.754222,100074.52,+1,+88,+231
259132,21.507,-7.779,7.506,0.627057,-1.968738,-6.661103,100074.52,+1,+88,+231
259142,21.604,-9.288,8.554,0.343974,-1.972463,-6.437085,100074.52,-1,+93,+231
259152,20.299,-9.916,9.729,0.162525,-1.833050,-6.108241,100078.95,-6,+95,+230
259162,18.082,-9.468,11.176,0.061956,-1.534004,-5.703837,100077.48,-8,+99,+230
259172,16.547,-9.381,12.830,0.086965,-1.090757,-5.194076,100075.37,-8,+99,+230
259182,15.469,-10.934,12.646,0.096011,-0.645381,-4.628443,100076.79,-9,+103,+230
259192,14.226,-14.687,11.099,-0.059897,-0.329308,-3.929251,100076.79,-8,+106,+231
259203,12.646,-18.869,8.970,-0.137585,-0.126574,-3.040628,100079.61,-8,+107,+232
259212,10.878,-22.184,8.327,-0.180154,0.057004,-1.947675,100080.72,-8,+107,+232
259222,8.779,-22.741,8.915,-0.148759,0.243242,-0.634960,100082.45,-8,+108,+233
259232,8.317,-20.073,9.581,0.017791,0.452362,0.689994,100082.45,-8,+107,+233
259243,9.689,-14.569,9.591,0.287038,0.683829,1.812745,100083.23,-7,+107,+234
259252,11.103,-3.786,7.792,0.547772,0.883370,2.392213,100083.23,-7,+107,+234
259262,15.587,26.755,-4.603,0.412616,0.481628,1.888837,100078.45,-7,+105,+234
259272,14.077,29.155,-10.454,-0.790484,0.432141,0.642636,100084.29,-8,+103,+236
259282,7.942,-1.656,0.826,1.621570,1.410691,1.738250,100084.23,-5,+105,+235
259288,15.984,-5.705,3.423,3.262596,1.601187,2.906763,100084.23,-5,+105,+235
259297,24.493,-5.799,0.778,2.077055,1.218068,3.332451,100083.20,-4,+111,+234
259307,22.679,-7.387,-0.907,0.205626,1.068545,2.649754,100084.55,-4,+109,+236
259317,15.016,-1.423,5.256,-0.217402,1.309058,2.704029,100085.88,-4,+109,+236
259328,12.577,2.437,13.293,0.257772,1.629388,2.968488,100079.04,-2,+107,+238
259337,10.092,1.695,13.316,1.129900,1.941737,2.801405,100079.04,+1,+107,+239
259347,11.740,-2.603,3.533,1.334230,1.750709,2.729570,100083.98,+3,+110,+239
259357,9.558,-6.424,3.389,0.818084,1.608636,2.689130,100081.60,+3,+110,+239
259367,8.344,-1.431,4.831,0.657919,1.501150,2.424671,100081.66,+6,+110,+239
259377,10.227,-3.132,4.184,0.401442,1.191994,2.218745,100081.07,+8,+110,+239
259387,11.418,-5.567,2.587,-0.096081,0.922747,2.031442,100081.07,+10,+108,+240
259397,12.110,-4.148,2.065,-0.801126,0.678508,1.811149,100082.86,+10,+108,+240
259407,11.996,-1.279,2.744,-1.269383,0.541756,1.636085,100085.06,+10,+105,+241
259417,10.428,0.546,2.785,-1.398153,0.467261,1.390782,100081.75,+10,+98,+243
259427,9.376,1.541,2.007,-1.128906,0.465664,1.127920,100081.17,+11,+94,+244
259437,9.773,2.371,2.511,-0.673952,0.555591,1.001278,100081.17,+11,+94,+244
259447,9.741,1.907,3.297,-0.350429,0.602417,1.002874,100079.96,+13,+91,+245
259458,9.682,0.936,3.613,-0.222723,0.581664,0.974672,100084.38,+13,+90,+246
259467,9.913,0.081,3.443,-0.202503,0.523132,0.865058,100082.49,+14,+89,+246
259477,9.746,0.095,3.188,-0.261567,0.477371,0.717663,100083.38,+14,+89,+246
259487,9.362,0.199,3.095,-0.344044,0.439059,0.595810,100083.38,+16,+88,+247
259497,9.210,-0.032,3.155,-0.495695,0.392233,0.513865,100083.27,+17,+85,+247
259507,9.371,0.051,3.679,-0.766007,0.338490,0.426067,100084.42,+18,+84,+248
259517,9.285,0.754,3.893,-1.050153,0.278362,0.337205,100079.94,+18,+79,+248
259527,8.827,1.531,3.649,-1.179988,0.243775,0.284526,100082.00,+18,+79,+248
259537,8.797,1.742,2.981,-1.088465,0.237389,0.290911,100082.00,+19,+75,+249
259548,8.924,1.729,2.355,-0.855933,0.274105,0.343590,100084.59,+20,+72,+249
259557,9.086,1.547,2.381,-0.606906,0.331041,0.434581,100081.59,+21,+70,+249
259567,9.283,0.863,3.005,-0.450466,0.374674,0.512801,100080.75,+21,+70,+249
259577,9.277,0.379,3.382,-0.461108,0.367756,0.522911,100080.97,+21,+68,+250
259588,9.070,0.604,3.817,-0.553163,0.349664,0.497902,100080.97,+22,+66,+250
259597,8.921,0.880,4.073,-0.648411,0.334765,0.492581,100081.58,+23,+63,+251
259607,8.932,1.025,3.951,-0.736741,0.318802,0.508544,100079.22,+23,+63,+251
259617,9.119,1.222,3.249,-0.751108,0.301775,0.550581,100079.95,+23,+61,+251
259628,9.359,1.265,2.869,-0.667034,0.330508,0.625608,100081.22,+25,+58,+252
259638,9.297,1.310,3.064,-0.536667,0.399328,0.709859,100081.22,+26,+57,+252
259647,9.354,1.344,3.316,-0.477071,0.425224,0.770874,100084.83,+26,+57,+252
259657,9.614,1.196,3.453,-0.416411,0.464068,0.841113,100080.72,+28,+55,+253
259667,9.653,0.915,3.754,-0.398851,0.513022,0.896452,100080.25,+29,+52,+252
259678,9.518,0.458,3.752,-0.437695,0.529517,0.940085,100082.19,+31,+51,+251
259687,9.572,0.225,3.362,-0.513787,0.541756,0.985315,100082.19,+31,+51,+251
259697,9.732,0.320,3.028,-0.588282,0.552930,1.042782,100085.13,+32,+49,+253
259707,9.949,0.747,3.175,-0.610631,0.571554,1.116213,100082.02,+35,+46,+253
259718,10.078,0.761,3.270,-0.582429,0.592306,1.213057,100081.02,+37,+44,+253
259727,10.425,0.486,2.871,-0.527090,0.608270,1.316819,100081.87,+37,+44,+253
259737,10.592,0.244,3.049,-0.499420,0.609334,1.443461,100081.87,+39,+41,+254
259747,10.830,0.464,3.182,-0.453658,0.615187,1.591388,100081.45,+40,+39,+254
259758,11.493,0.383,3.133,-0.422796,0.624765,1.729736,100080.67,+42,+39,+254
259767,12.172,0.096,3.045,-0.411622,0.649242,1.870213,100081.61,+42,+39,+254
259777,12.256,0.229,2.987,-0.435567,0.667866,2.002708,100080.94,+45,+36,+254
259787,12.203,0.606,3.084,-0.434502,0.663609,2.151167,100080.94,+47,+34,+254
259798,12.271,0.609,3.203,-0.387145,0.664141,2.323038,100081.38,+49,+33,+254
259808,12.384,0.463,3.440,-0.379163,0.671059,2.491717,100081.12,+49,+33,+254
259817,12.680,0.567,3.650,-0.445145,0.670527,2.645497,100079.07,+52,+31,+255
259827,13.169,0.862,3.684,-0.563273,0.677976,2.785442,100079.23,+55,+29,+254
259837,14.138,1.519,3.920,-0.703750,0.650306,2.928047,100079.23,+57,+27,+255
259848,15.613,2.614,4.181,-0.869768,0.588050,3.087680,100081.48,+57,+27,+255
259857,17.316,3.006,3.866,-1.199144,0.614655,3.206873,100082.17,+60,+25,+256
259867,19.920,3.774,2.430,-1.832355,0.668398,3.222836,100081.06,+62,+19,+256
259873,22.003,6.376,2.640,-2.420336,0.601884,3.172818,100081.59,+62,+19,+256
259883,23.433,10.466,1.853,-3.025877,0.428417,3.157919,100081.59,+65,+10,+254
259893,23.711,14.467,1.674,-3.767106,0.326252,3.169625,100081.59,+66,-2,+254
259903,23.041,12.902,0.669,-4.374775,0.205463,3.247313,100083.27,+69,-17,+251
259912,20.985,9.957,3.820,-4.377436,0.234197,3.257423,100080.38,+69,-17,+251
259922,17.985,4.444,7.499,-2.998739,0.182582,3.596377,100079.82,+71,-29,+249
259933,17.734,-0.012,8.229,-0.867640,0.120857,4.140725,100079.82,+75,-33,+249
259943,16.770,-1.566,7.750,0.578635,0.218233,4.402524,100081.03,+80,-29,+251
259952,14.613,-0.030,5.672,1.240047,0.494930,4.104010,100081.03,+80,-29,+251
259962,13.628,2.531,3.284,1.455551,0.696600,3.423974,100079.92,+85,-23,+251
259973,11.708,1.650,4.999,1.333166,0.516215,2.738084,100080.23,+87,-19,+253
259983,7.160,-0.271,3.271,1.148524,0.075096,2.045277,100079.81,+90,-15,+254
259992,4.544,-5.438,5.613,1.157570,0.048490,1.584470,100079.81,+90,-15,+254
260002,4.026,-3.892,5.466,1.253350,-0.096776,1.031076,100082.95,+90,-10,+256
260013,5.801,-1.287,1.973,0.801056,-0.408060,0.432452,100083.57,+89,-8,+257
260023,2.843,0.402,1.390,0.448268,-0.493197,-0.450850,100081.37,+85,-7,+257
260033,1.712,2.023,0.519,0.109846,-0.729454,-1.017547,100078.27,+85,-7,+257
260042,1.385,2.029,0.335,0.066213,-0.944959,-1.319785,100078.75,+81,-9,+258
260052,1.035,0.995,0.501,0.340781,-1.058830,-1.606592,100079.33,+74,-9,+260
260063,1.045,-0.487,0.502,0.592469,-1.158335,-1.968959,100078.58,+69,-8,+261
260072,1.130,-1.431,0.863,0.621203,-1.270078,-2.376555,100078.58,+69,-8,+261
260082,1.469,-1.158,1.201,0.513717,-1.411087,-2.797986,100078.11,+62,-7,+262
260092,2.120,0.042,0.996,0.339717,-1.579766,-3.206646,100078.11,+53,-7,+262
260103,2.812,1.156,0.568,0.272139,-1.671821,-3.572738,100080.11,+43,-5,+263
260112,3.109,1.732,0.519,0.380690,-1.664371,-3.944682,100076.91,+43,-5,+263
260122,3.801,1.675,0.474,0.537662,-1.679270,-4.226169,100076.44,+35,-4,+264
260132,4.672,0.962,0.522,0.745185,-1.697894,-4.435287,100077.44,+25,+0,+264
260143,5.826,-0.011,0.963,0.927699,-1.718646,-4.671545,100077.44,+16,+4,+264
260153,7.015,-1.197,1.351,1.021882,-1.765472,-4.918975,100076.10,+16,+4,+264
260163,7.734,-2.395,1.667,1.018157,-1.815490,-5.174920,100075.71,+7,+9,+264
260172,8.351,-2.713,2.025,0.960157,-1.864976,-5.450553,100078.24,-2,+16,+264
260183,9.243,-1.999,2.281,0.971332,-1.924041,-5.725654,100078.24,-12,+25,+262
260193,10.508,-1.081,2.934,1.192157,-1.968738,-5.981598,100078.24,-12,+25,+262
260202,12.198,-1.353,4.257,1.449166,-1.965013,-6.207745,100078.07,-20,+35,+261
260212,13.710,-2.263,4.750,1.484818,-1.940536,-6.413671,100076.49,-28,+47,+259
260224,15.391,-4.342,6.074,1.175307,-1.957918,-6.546344,100076.27,-34,+58,+257
260233,16.482,-4.362,6.742,0.956432,-2.095912,-6.525947,100076.27,-40,+69,+254
260242,17.989,-4.180,7.647,0.956965,-2.074628,-6.439213,100076.27,-40,+69,+254
260252,20.449,-5.485,8.252,0.947919,-1.968738,-6.267342,100076.80,-45,+82,+251
260262,21.883,-7.800,9.162,0.785093,-1.846353,-6.078443,100076.60,-48,+93,+248
260273,21.080,-9.845,10.905,0.400378,-1.712793,-5.850699,100075.15,-50,+102,+246
260283,18.213,-10.456,13.042,-0.009347,-1.486114,-5.528241,100075.15,-50,+102,+246
260293,15.954,-10.198,14.720,-0.262631,-1.089692,-5.075416,100077.95,-51,+109,+244
260302,14.564,-10.514,13.356,-0.401512,-0.663473,-4.524150,100077.95,-49,+114,+243
260313,13.130,-12.525,11.009,-0.718649,-0.247895,-3.893600,100076.70,-46,+118,+243
260323,11.852,-15.063,8.242,-1.067181,-0.034519,-3.195472,100078.10,-46,+118,+243
260332,10.022,-16.461,6.785,-1.235860,0.066050,-2.354206,100079.52,-44,+116,+244
260342,9.067,-16.360,6.929,-1.038979,0.168215,-1.346390,100079.52,-42,+115,+244
260353,8.037,-15.862,7.514,-0.580833,0.355518,-0.224171,100080.63,-40,+113,+246
260363,9.268,-12.516,6.911,-0.101402,0.546545,0.821425,100079.52,-40,+113,+246
260373,9.953,-8.689,4.376,0.714855,0.756196,1.694617,100077.30,-40,+112,+248
260383,13.036,8.395,-0.884,1.471515,0.707774,2.166598,100081.42,-39,+114,+246
260392,15.117,30.329,-12.964,0.429644,0.287940,1.129516,100082.27,-40,+114,+246
260403,8.071,11.223,-7.064,0.929295,0.537499,1.089076,100085.48,-40,+114,+246
260413,12.269,-2.248,0.127,2.866706,1.253719,2.112323,100081.00,-38,+118,+246
260422,21.427,-4.820,-1.861,2.315441,1.114838,2.661460,100081.00,-35,+124,+244
260432,16.597,-6.940,15.023,0.672286,1.419205,2.152231,100082.11,-34,+123,+245
260443,16.000,-4.662,17.432,0.882469,1.990691,2.097956,100082.11,-34,+123,+245
260453,28.811,-1.586,1.005,1.385845,1.310655,2.599735,100079.02,-30,+125,+245
260458,22.910,-6.115,-2.194,0.596726,1.261701,2.901442,100084.22,-28,+124,+246
260467,10.030,-6.375,-2.158,0.084305,1.562875,2.694983,100082.17,-28,+124,+246
260477,2.131,-1.024,4.601,-0.047659,1.478269,2.123497,100081.17,-26,+122,+249
260488,3.151,-1.926,5.766,-0.179622,1.023315,1.904268,100081.17,-24,+119,+249
260498,8.912,-1.810,5.254,-0.540392,0.609334,1.549351,100083.27,-24,+114,+251
260507,11.808,-1.229,3.236,-0.876154,0.318802,1.358323,100081.48,-24,+114,+251
260517,12.917,0.218,2.679,-0.978851,0.293793,1.077369,100081.32,-25,+111,+252
260528,11.834,1.591,2.251,-0.938410,0.285279,0.845902,100081.63,-25,+106,+253
260538,9.845,3.267,2.447,-0.766007,0.342215,0.762893,100081.63,-23,+103,+254
260548,9.015,2.705,2.931,-0.530814,0.391701,0.751718,100084.52,-23,+103,+254
260557,9.202,2.092,2.563,-0.331805,0.376270,0.728306,100082.30,-24,+101,+255
260568,9.591,1.600,2.669,-0.236558,0.365096,0.686269,100079.67,-23,+100,+256
260578,9.645,1.017,2.529,-0.242411,0.340619,0.636250,100081.41,-22,+98,+256
260588,9.668,1.470,2.701,-0.324356,0.311352,0.573994,100081.41,-22,+98,+256
260597,9.257,1.870,3.417,-0.408961,0.276233,0.521315,100081.66,-21,+96,+257
260608,9.074,1.642,3.960,-0.563805,0.215041,0.487792,100079.28,-21,+93,+257
260618,8.924,1.608,3.635,-0.767071,0.147995,0.417553,100080.59,-21,+90,+258
260628,8.734,2.231,2.902,-0.818686,0.121921,0.355297,100080.13,-21,+90,+258
260637,8.653,2.942,2.523,-0.668631,0.142674,0.384030,100080.13,-20,+87,+259
260647,8.775,2.213,2.290,-0.409493,0.188435,0.457462,100082.22,-19,+85,+259
260658,9.128,1.058,2.481,-0.251989,0.235261,0.487260,100081.27,-19,+84,+259
260668,9.316,0.978,2.918,-0.295622,0.248031,0.460122,100082.27,-19,+84,+259
260678,8.985,1.569,3.285,-0.387677,0.235793,0.418618,100080.95,-18,+83,+259
260687,8.720,1.988,3.361,-0.375970,0.231536,0.408508,100080.95,-18,+81,+260
260694,8.691,2.239,3.341,-0.341915,0.226215,0.419682,100081.12,-18,+81,+260
260703,8.833,2.324,3.276,-0.298282,0.224619,0.456930,100081.12,-17,+79,+259
260713,9.100,2.146,3.021,-0.218466,0.231004,0.525572,100082.48,-17,+77,+261
260723,9.220,1.853,2.751,-0.165787,0.249628,0.592618,100078.32,-16,+76,+261
260732,9.207,1.666,2.541,-0.129604,0.276233,0.649021,100079.54,-16,+76,+261
260743,9.335,1.554,2.483,-0.096081,0.295389,0.712342,100083.71,-15,+75,+261
260753,9.536,1.548,2.688,-0.071604,0.316674,0.778856,100081.07,-16,+74,+261
260763,9.632,1.567,2.859,-0.082246,0.328912,0.844305,100081.34,-14,+73,+262
260772,9.535,1.423,2.866,-0.106191,0.338490,0.916140,100081.34,-14,+73,+262
260783,9.283,1.367,2.790,-0.148759,0.342215,0.993828,100078.96,-12,+72,+262
260793,9.107,1.639,2.823,-0.152484,0.351793,1.077902,100078.96,-12,+70,+262
260803,9.117,2.036,3.076,-0.123218,0.372545,1.183791,100081.70,-12,+69,+262
260812,9.145,1.917,3.176,-0.072136,0.400215,1.301388,100081.45,-12,+69,+262
260823,9.202,1.481,3.244,-0.030099,0.421499,1.415791,100081.66,-10,+68,+264
260833,9.227,1.272,3.314,-0.023182,0.437463,1.520085,100078.19,-8,+66,+264
260843,9.201,1.211,3.459,-0.025842,0.450233,1.621186,100078.19,-8,+65,+264
260853,9.390,1.172,3.442,-0.036484,0.458747,1.731332,100080.09,-8,+65,+264
260862,9.661,1.217,3.292,-0.064154,0.475242,1.852653,100080.95,-6,+63,+264
260873,9.817,1.305,3.255,-0.101402,0.506637,1.993130,100080.44,-6,+61,+266
260883,10.206,1.253,3.181,-0.143971,0.528985,2.162341,100080.44,-4,+59,+266
260893,10.774,1.513,3.265,-0.197714,0.548141,2.354965,100080.44,-4,+59,+266
260902,11.487,1.636,3.625,-0.267420,0.579004,2.560359,100084.51,-1,+56,+266
260913,12.786,1.205,3.499,-0.377035,0.601352,2.768414,100082.40,+0,+53,+267
260923,14.394,1.110,3.696,-0.580301,0.640196,2.954653,100081.09,+1,+48,+267
260933,16.429,1.593,4.116,-0.828264,0.678508,3.129185,100079.55,+1,+48,+267
260942,18.908,1.100,4.433,-1.090594,0.706178,3.301588,100079.55,+3,+42,+267
260953,22.866,1.717,3.410,-1.446043,0.678508,3.468138,100085.59,+7,+35,+268
260963,27.901,5.052,3.671,-1.827034,0.571554,3.624047,100083.38,+8,+26,+267
260973,30.837,9.682,2.924,-1.920685,0.395426,3.799643,100081.12,+8,+26,+267
260983,28.048,11.785,1.767,-1.815859,0.351261,4.001845,100081.12,+10,+17,+267
260993,23.681,10.590,0.692,-1.670593,0.197481,3.951826,100082.07,+13,+9,+267
261003,18.677,7.726,1.832,-1.642924,-0.057400,3.731001,100082.07,+14,+0,+266
261013,11.109,1.520,3.720,-1.145933,0.087334,3.652781,100082.38,+14,+0,+266
261023,7.507,-5.962,8.779,-0.233897,0.727462,3.783680,100082.49,+16,-3,+266
261032,7.366,-7.614,8.282,0.550433,1.074930,3.636285,100079.65,+23,-3,+267
261044,5.756,-3.867,5.966,0.773387,1.054178,3.067815,100080.95,+28,-2,+267
261053,5.150,-0.099,3.909,0.993148,0.872196,2.500763,100080.95,+28,-2,+267
261063,5.207,0.844,1.597,0.892047,0.426288,1.774965,100081.27,+32,+0,+269
261073,3.959,-2.905,1.041,0.497222,0.193224,1.263076,100077.27,+34,+1,+268
261083,3.136,-0.546,-1.458,-0.056172,-0.221821,0.666049,100079.75,+33,+1,+268
261093,1.284,2.583,-0.896,-0.469622,-0.482023,-0.050171,100082.81,+32,-1,+267
261103,0.512,3.433,0.272,-0.568594,-0.603876,-0.590795,100080.23,+32,-1,+267
261113,0.182,3.261,0.146,-0.377567,-0.678904,-0.924427,100077.19,+27,-2,+266
261123,-0.138,2.211,0.160,-0.018925,-0.667197,-1.212831,100077.19,+23,-2,+266
261133,0.010,1.209,0.577,0.331736,-0.668794,-1.536354,100077.50,+21,+0,+266
261143,0.740,0.481,0.765,0.572249,-0.763509,-1.902445,100077.50,+21,+0,+266
261153,1.636,0.114,0.796,0.665901,-0.917821,-2.250977,100079.32,+15,+2,+266
261163,2.154,0.213,0.683,0.703680,-1.062023,-2.567582,100078.68,+9,+5,+266
261173,2.438,0.369,0.719,0.773919,-1.191325,-2.877802,100081.57,+3,+9,+266
261183,3.276,0.124,0.662,0.879809,-1.306261,-3.172591,100078.48,+3,+9,+266
261193,4.342,-0.238,0.934,0.966010,-1.389270,-3.420554,100078.48,-3,+15,+265
261203,5.163,-0.467,1.391,0.974524,-1.476536,-3.638187,100079.19,-10,+22,+264
261213,5.517,-1.089,2.287,0.889919,-1.553160,-3.844114,100075.77,-16,+27,+263
261223,5.679,-1.737,3.212,0.796800,-1.554756,-4.105912,100076.77,-16,+27,+263
261233,6.449,-2.624,4.081,0.632910,-1.521766,-4.390590,100076.77,-24,+34,+261
261242,7.338,-3.795,4.345,0.417937,-1.483986,-4.648664,100076.77,-30,+41,+259
261253,7.829,-4.791,4.725,0.133259,-1.387674,-4.883324,100078.81,-35,+47,+258
261263,8.768,-5.774,5.060,-0.265292,-1.278591,-5.106810,100076.75,-35,+47,+258
261273,9.688,-6.946,5.258,-0.821878,-1.181215,-5.314865,100076.44,-39,+51,+256
261283,10.544,-7.793,5.545,-1.505107,-1.081711,-5.490461,100077.02,-43,+53,+255
261293,11.632,-8.161,6.195,-2.296355,-0.975821,-5.606461,100077.02,-46,+51,+254
261303,12.531,-8.833,6.718,-3.084409,-0.858757,-5.625085,100079.02,-46,+51,+254
261313,13.203,-10.033,6.778,-3.777216,-0.678904,-5.529838,100079.02,-49,+47,+253
261323,13.650,-10.970,6.431,-4.318371,-0.404867,-5.333489,100076.41,-51,+41,+252
261334,13.258,-11.455,6.114,-4.720114,-0.087198,-5.031250,100076.41,-53,+31,+253
261343,12.379,-11.345,5.879,-4.996279,0.170876,-4.622590,100079.84,-53,+31,+253
261353,11.741,-11.059,5.378,-5.081949,0.371481,-4.132517,100079.84,-55,+20,+251
261363,11.854,-11.764,4.522,-5.165490,0.501316,-3.610518,100079.41,-55,+8,+250
261373,11.636,-12.755,3.543,-5.397490,0.557719,-3.118316,100078.41,-56,-5,+248
261383,11.162,-12.662,2.368,-5.736976,0.552398,-2.681454,100081.73,-56,-5,+248
261393,11.031,-11.649,1.263,-6.053049,0.469389,-2.274390,100081.73,-56,-21,+244
261403,10.647,-10.632,-0.110,-6.175435,0.326252,-1.862005,100079.75,-58,-37,+239
261413,10.126,-9.497,-1.927,-6.062627,0.163426,-1.465051,100080.64,-60,-56,+233
261424,9.458,-9.367,-0.565,-5.587453,0.066050,-1.076079,100082.53,-60,-56,+233
261433,10.162,-2.796,4.564,-4.209821,0.385316,-0.692960,100079.69,-61,-70,+227
261443,11.808,12.765,1.801,-1.026741,0.197481,-0.576960,100082.46,-61,-76,+225
261453,14.725,26.692,3.135,1.049552,0.073499,-0.466281,100079.15,-61,-73,+227
261464,28.244,29.098,5.864,1.460873,-0.170207,-0.734996,100077.93,-61,-73,+227
261473,29.201,3.667,1.536,3.005055,0.137885,0.729370,100077.93,-62,-65,+229
261483,18.626,-17.773,-3.835,2.554358,0.250692,1.570103,100079.82,-60,-58,+233
261493,7.041,-6.480,2.709,0.227442,0.330508,0.604856,100079.82,-58,-58,+233
261504,2.658,0.033,4.750,-1.140612,0.166619,-0.070923,100080.36,-58,-58,+233
261513,5.246,2.213,7.022,-1.184777,-0.045161,-0.091144,100080.69,-57,-62,+233
261523,9.054,5.217,7.219,-0.877218,-0.181913,-0.089015,100078.78,-58,-65,+231
261533,7.398,5.726,5.904,-0.298282,-0.163289,-0.006006,100079.16,-59,-67,+231
261543,7.630,4.057,4.946,0.333332,-0.111143,0.209498,100079.16,-59,-67,+231
261554,8.926,0.190,4.240,0.482323,-0.085069,0.240361,100079.57,-59,-65,+230
261563,9.167,-1.621,2.348,0.076323,-0.147858,0.107866,100078.74,-58,-64,+231
261573,10.335,0.602,2.254,-0.288172,-0.153711,-0.104978,100078.99,-59,-65,+231
261583,10.342,1.584,2.767,-0.239218,-0.089858,-0.195437,100078.99,-60,-65,+230
261593,9.300,1.758,3.350,-0.162062,0.003261,-0.233749,100078.99,-60,-65,+230
261603,8.557,2.483,4.019,-0.194521,0.031995,-0.235345,100081.84,-60,-65,+230
261613,8.517,2.454,4.341,-0.219530,0.022417,-0.200758,100081.48,-60,-66,+230
261623,8.297,2.557,4.724,-0.274337,-0.005253,-0.170428,100077.48,-60,-67,+229
261628,8.028,2.990,4.814,-0.307860,-0.026005,-0.152868,100077.63,-60,-67,+229
261638,7.989,2.966,4.693,-0.308925,-0.041436,-0.119877,100077.63,-60,-67,+229
261648,8.165,2.595,4.451,-0.303071,-0.061656,-0.068263,100079.91,-60,-67,+229
261658,8.553,2.889,4.175,-0.304668,-0.073895,-0.026758,100080.11,-62,-69,+229
261668,8.843,3.130,4.094,-0.244539,-0.069638,0.013682,100078.80,-61,-68,+228
261679,9.082,2.245,3.892,-0.162594,-0.068574,0.050930,100076.64,-62,-70,+228
261688,9.115,1.630,3.717,-0.160466,-0.056335,0.045609,100076.64,-62,-70,+228
261698,8.803,1.539,3.718,-0.217402,-0.043565,0.015278,100079.84,-61,-71,+227
261708,8.492,1.810,4.012,-0.271145,-0.043033,-0.016648,100078.62,-62,-70,+227
261719,8.741,2.239,4.161,-0.305200,-0.065381,-0.023566,100079.41,-62,-73,+226
261728,9.022,2.303,4.155,-0.309989,-0.071767,-0.023566,100079.26,-62,-73,+226
261738,8.915,1.800,4.041,-0.322227,-0.066978,-0.023566,100079.26,-62,-73,+227
261748,8.814,1.634,3.886,-0.407897,-0.066445,-0.033144,100082.74,-62,-73,+225
261758,8.636,1.917,3.815,-0.523897,-0.065913,-0.044850,100079.79,-63,-75,+224
261768,8.729,2.455,4.129,-0.579768,-0.072831,-0.038997,100080.37,-63,-75,+224
261778,9.081,2.369,4.148,-0.555823,-0.088262,-0.020373,100077.48,-64,-77,+224
261788,9.117,2.018,4.052,-0.552631,-0.084537,-0.013988,100077.48,-63,-79,+223
261798,8.829,1.737,4.029,-0.583493,-0.083473,-0.026758,100080.41,-62,-81,+222
261809,8.680,1.927,4.181,-0.596264,-0.093583,-0.040061,100077.20,-64,-83,+221
261818,8.775,2.089,4.246,-0.605310,-0.105822,-0.038997,100077.94,-64,-83,+221
261828,8.880,1.818,4.036,-0.640429,-0.112739,-0.042722,100077.94,-64,-84,+221
261838,8.909,1.827,3.902,-0.676612,-0.110611,-0.049107,100077.94,-64,-87,+219
261849,8.733,2.176,3.947,-0.687255,-0.104757,-0.045914,100083.60,-65,-88,+218
261858,8.592,2.309,3.958,-0.672355,-0.088262,-0.024630,100079.60,-65,-88,+218
261868,8.600,2.060,3.800,-0.654796,-0.070170,0.004636,100078.43,-65,-90,+216
261878,8.812,1.990,3.851,-0.655860,-0.049950,0.029113,100077.43,-65,-92,+216
261889,8.924,2.013,3.867,-0.693108,-0.028666,0.043480,100077.43,-65,-93,+214
261899,8.887,1.790,3.805,-0.712796,0.000068,0.054122,100078.86,-65,-93,+214
261908,8.808,2.231,3.768,-0.721310,0.022949,0.077003,100080.95,-65,-96,+213
261918,8.599,2.537,3.911,-0.683530,0.041041,0.120104,100080.55,-65,-99,+213
261928,8.457,2.113,3.661,-0.620741,0.077756,0.170654,100078.80,-64,-100,+211
261939,8.683,1.796,3.724,-0.604778,0.112876,0.210031,100078.80,-64,-100,+211
261948,8.799,1.718,3.763,-0.603181,0.142142,0.232379,100082.81,-64,-103,+211
261958,8.824,1.993,3.995,-0.597328,0.166087,0.260581,100080.70,-63,-104,+210
261968,8.774,1.972,4.030,-0.566466,0.188435,0.286122,100076.55,-61,-106,+208
261979,8.687,1.452,4.035,-0.524606,0.215927,0.312196,100078.28,-61,-106,+208
261988,8.805,1.403,4.006,-0.528154,0.233132,0.321774,100078.28,-60,-108,+209
261998,8.922,1.389,4.015,-0.555823,0.247499,0.327095,100078.53,-60,-110,+208
262008,9.044,1.366,3.961,-0.578704,0.271444,0.331352,100080.80,-58,-112,+207
262019,8.987,1.244,3.933,-0.599989,0.309756,0.334544,100077.84,-58,-112,+207
262029,8.891,1.416,4.127,-0.620741,0.356582,0.334012,100077.80,-56,-114,+206
262038,8.811,1.245,4.108,-0.618080,0.394362,0.339865,100077.80,-55,-117,+205
262048,8.577,1.154,4.220,-0.615420,0.427885,0.351040,100077.54,-53,-118,+205
262059,8.727,1.101,4.358,-0.642025,0.451829,0.359553,100081.65,-53,-118,+205
262069,8.847,0.968,4.225,-0.667034,0.473114,0.371260,100077.90,-51,-119,+205
262078,8.491,1.543,4.728,-0.689383,0.520472,0.373920,100077.96,-48,-122,+203
262088,8.501,1.697,4.438,-0.642025,0.548673,0.382434,100077.96,-46,-124,+203
262098,8.690,1.430,4.616,-0.551567,0.584857,0.413297,100076.92,-46,-124,+203
262109,8.835,0.778,4.480,-0.470154,0.610398,0.429792,100080.03,-44,-127,+203
262118,8.806,0.413,4.589,-0.443016,0.638068,0.418086,100078.08,-41,-129,+202
262128,8.837,0.151,4.518,-0.444613,0.651903,0.391480,100078.19,-38,-130,+202
262138,8.775,-0.062,4.184,-0.431310,0.656692,0.359553,100078.19,-38,-130,+202
262149,8.484,-0.060,3.784,-0.376502,0.689683,0.334544,100080.58,-35,-132,+202
262159,8.522,0.142,4.146,-0.297750,0.716288,0.336673,100077.58,-33,-132,+202
262168,8.669,0.406,4.707,-0.236025,0.750875,0.342526,100080.27,-30,-134,+203
262178,8.618,0.387,5.149,-0.235493,0.791848,0.342526,100079.78,-30,-134,+203
262189,8.527,0.333,5.458,-0.308392,0.814728,0.318049,100079.78,-27,-135,+202
262199,8.704,0.109,5.497,-0.420668,0.841334,0.280269,100079.82,-24,-136,+202
262208,9.214,0.282,5.573,-0.548374,0.864747,0.235572,100078.55,-21,-137,+202
262218,9.430,0.314,5.545,-0.637768,0.887627,0.198324,100076.29,-21,-137,+202
262228,9.142,0.077,5.469,-0.707475,0.937646,0.166930,100078.71,-18,-138,+202
262239,9.091,0.012,5.393,-0.806979,0.968508,0.131278,100078.71,-16,-141,+200
262248,9.602,-0.075,5.303,-0.929897,0.977554,0.102012,100082.79,-13,-144,+199
262258,9.980,-0.227,5.081,-1.071970,0.985003,0.075939,100078.74,-10,-144,+196
262268,10.288,-0.378,4.718,-1.199676,0.975425,0.047205,100079.27,-10,-147,+196
262279,10.902,-0.273,4.548,-1.313548,0.920086,0.050398,100076.27,-8,-150,+194
262288,11.364,-0.579,4.507,-1.407199,0.874325,0.055719,100076.27,-5,-153,+191
262298,11.654,-0.837,3.978,-1.540759,0.838141,0.019003,100081.09,-3,-157,+188
262308,12.080,-1.994,3.948,-1.738171,0.759389,-0.010795,100080.87,-3,-157,+188
262319,12.842,-1.556,3.752,-2.035089,0.659884,-0.063474,100081.66,-1,-162,+185
262329,13.785,-1.511,3.332,-2.421932,0.580068,-0.159254,100078.35,-1,-166,+179
262338,14.493,-1.706,2.483,-2.924244,0.498655,-0.247584,100078.35,-1,-174,+171
262348,14.391,-1.955,0.732,-3.657491,0.353921,-0.367308,100080.86,-1,-174,+171
262359,14.516,-1.501,-0.063,-4.356151,0.273041,-0.462556,100080.34,-1,-182,+160
262369,14.476,1.283,0.298,-4.845160,0.252288,-0.520556,100083.23,-2,-191,+147
262379,12.726,1.466,1.652,-5.047894,0.212912,-0.305584,100079.28,-2,-198,+132
262388,13.510,1.390,3.442,-4.820151,0.356050,0.105737,100079.28,-2,-198,+132
262398,13.401,2.098,5.967,-4.536536,0.574215,0.394141,100080.02,+0,-206,+118
262409,12.546,1.624,7.846,-4.031032,0.896673,0.625076,100078.71,+3,-212,+106
262419,12.988,0.850,8.042,-3.565436,1.189866,0.790562,100076.65,+8,-216,+96
262428,12.780,-1.350,9.201,-3.253620,1.474012,0.895388,100075.49,+8,-216,+96
262438,15.220,-7.262,8.959,-3.042905,1.722508,1.109828,100075.49,+12,-219,+87
262449,16.282,-7.926,4.730,-3.345852,1.733505,1.104684,100081.25,+19,-222,+77
262459,15.696,-6.285,2.864,-3.774023,1.695902,0.982654,100077.72,+24,-224,+64
262468,14.103,-4.089,2.440,-4.120959,1.604379,0.888471,100077.77,+24,-224,+64
262478,12.744,-1.599,2.453,-4.202904,1.457517,0.790562,100077.77,+29,-227,+51
262489,11.418,0.199,3.005,-4.019858,1.341517,0.739480,100077.77,+32,-228,+38
262499,9.965,1.772,3.768,-3.667069,1.284581,0.650617,100080.26,+35,-228,+26
262508,8.812,2.933,3.461,-3.274904,1.221792,0.528232,100079.77,+35,-228,+26
262518,7.812,3.512,2.362,-2.913602,1.162728,0.367535,100079.26,+37,-227,+16
262529,6.966,4.052,1.035,-2.609767,1.075462,0.138196,100079.46,+38,-227,+6
262539,6.231,4.477,-0.502,-2.387345,0.931260,-0.150740,100079.46,+38,-226,+0
262549,5.636,4.472,-1.798,-2.210153,0.734912,-0.497675,100083.20,+38,-226,+0
262558,5.356,4.233,-2.550,-2.048391,0.513022,-0.880262,100082.25,+35,-225,-8
262564,5.394,4.049,-3.006,-1.928667,0.336894,-1.172391,100080.63,+32,-223,-13
262574,5.654,3.804,-3.259,-1.817988,0.171408,-1.461858,100080.63,+32,-223,-13
262584,5.884,3.218,-3.489,-1.713694,-0.051014,-1.841253,100077.20,+26,-222,-19
262594,5.967,2.649,-3.763,-1.607804,-0.277161,-2.202023,100077.20,+18,-222,-26
262604,6.264,2.137,-3.702,-1.438061,-0.470849,-2.537252,100080.14,+10,-219,-29
262614,6.772,1.678,-3.326,-1.257144,-0.646977,-2.865032,100078.41,+10,-219,-29
262624,7.221,1.156,-2.973,-1.112942,-0.823106,-3.186958,100075.72,+0,-216,-33
262634,7.445,0.589,-2.577,-1.001731,-0.981674,-3.500903,100075.72,-10,-213,-38
262643,7.598,0.298,-1.957,-0.908612,-1.116298,-3.792499,100075.72,-21,-210,-41
262653,7.799,0.144,-1.142,-0.809640,-1.223784,-4.068132,100077.22,-21,-210,-41
262664,8.103,0.217,-0.279,-0.673952,-1.290298,-4.329398,100077.80,-33,-205,-44
262674,8.484,0.389,0.558,-0.490374,-1.325417,-4.566719,100078.44,-47,-200,-48
262683,8.988,0.430,1.278,-0.280191,-1.350426,-4.777434,100076.38,-60,-193,-51
262693,9.809,0.285,1.616,-0.073200,-1.377564,-4.978040,100076.38,-60,-193,-51
262704,10.788,-0.058,1.924,0.065681,-1.413747,-5.166939,100077.50,-75,-186,-52
262714,11.729,-0.394,2.144,0.154543,-1.461105,-5.330296,100077.30,-89,-178,-54
262724,12.634,-0.717,2.326,0.229038,-1.494096,-5.469709,100073.38,-102,-168,-57
262733,13.452,-1.148,2.640,0.271075,-1.515380,-5.575599,100073.38,-102,-168,-57
262744,14.085,-1.625,3.018,0.288635,-1.529747,-5.650094,100074.61,-115,-157,-59
262754,14.526,-1.939,3.362,0.284910,-1.536133,-5.711287,100076.08,-128,-145,-62
262764,14.947,-2.107,3.475,0.226910,-1.560610,-5.769287,100076.08,-139,-132,-65
262773,15.532,-2.355,3.762,0.110378,-1.595197,-5.806002,100077.03,-139,-132,-65
262784,16.202,-2.896,4.510,-0.073732,-1.607435,-5.813984,100076.61,-149,-116,-69
262794,16.905,-3.566,5.305,-0.287640,-1.598922,-5.776736,100076.61,-158,-101,-74
262804,17.399,-4.902,6.273,-0.517512,-1.543050,-5.675635,100075.11,-166,-85,-79
262814,17.431,-7.034,7.705,-0.686722,-1.404701,-5.447893,100078.06,-166,-85,-79
262823,17.214,-9.313,8.854,-0.716521,-1.197711,-5.060517,100075.80,-172,-67,-84
262834,16.075,-11.435,9.863,-0.595732,-0.881105,-4.515636,100074.80,-176,-52,-89
262844,13.634,-13.212,10.564,-0.400980,-0.552262,-3.836132,100076.73,-180,-40,-90
262854,11.559,-14.708,10.751,-0.180686,-0.266519,-3.047545,100075.63,-180,-40,-90
262863,10.296,-16.489,9.995,-0.077457,-0.040372,-2.196170,100075.47,-181,-31,-91
262874,10.026,-17.782,8.721,-0.064686,0.176729,-1.323510,100075.47,-184,-26,-92
262884,10.239,-18.589,8.041,-0.105659,0.386380,-0.420519,100075.89,-185,-25,-90
262894,9.658,-17.263,7.025,0.067809,0.546013,0.549517,100075.89,-185,-25,-90
262903,11.376,-13.906,4.384,0.682396,0.643389,1.539773,100078.83,-185,-28,-87
262914,16.138,9.276,-5.595,1.126708,0.261866,1.934598,100081.20,-183,-35,-85
262924,13.180,26.165,-5.587,-0.186539,0.251224,1.176874,100079.25,-183,-40,-84
262934,4.703,8.730,0.204,0.681864,0.931260,1.297663,100081.20,-185,-45,-79
262944,15.862,-3.886,3.975,2.010010,1.401113,2.224598,100081.20,-185,-45,-79
262953,23.984,-8.367,2.949,0.982506,1.078123,2.799809,100079.94,-182,-57,-74
262964,18.809,-3.498,6.217,-0.280723,1.105792,2.393277,100079.41,-181,-64,-71
262974,14.178,3.907,9.838,0.001295,1.410691,2.394341,100077.05,-180,-72,-66
262984,11.540,2.957,8.895,0.871295,1.566599,2.575258,100077.05,-180,-72,-66
262993,8.774,-3.524,3.362,1.033056,1.409627,2.520983,100077.05,-179,-82,-61
263004,7.594,-6.106,3.527,0.555222,1.287774,2.284194,100080.41,-175,-89,-54
263014,9.299,-3.916,4.553,0.080048,1.075462,1.987277,100079.20,-174,-96,-53
263024,12.160,-4.186,2.719,-0.379163,0.788123,1.784543,100080.20,-174,-96,-53
263034,12.831,-3.785,2.104,-0.849903,0.628490,1.587485,100076.70,-171,-99,-52
263044,11.181,-0.822,2.816,-1.096979,0.558784,1.351938,100076.70,-169,-102,-52
263054,9.981,0.970,3.197,-1.103364,0.487481,1.208268,100080.91,-167,-105,-53
263064,9.374,1.386,3.199,-0.911805,0.467261,1.072048,100079.23,-167,-105,-53
263074,9.104,1.735,2.774,-0.576576,0.495995,0.923590,100078.54,-167,-107,-52
263084,9.589,2.124,2.952,-0.247732,0.553995,0.881021,100078.54,-165,-109,-51
263094,9.898,1.363,3.434,-0.102466,0.566233,0.876764,100080.94,-165,-112,-51
263104,9.714,0.778,3.479,-0.144503,0.526857,0.824617,100079.67,-165,-112,-51
263114,9.574,1.189,3.881,-0.225383,0.470985,0.747461,100079.67,-163,-113,-49
263123,9.039,1.227,4.286,-0.303071,0.403407,0.675627,100079.30,-163,-114,-49
263134,8.876,1.541,4.764,-0.394594,0.296986,0.618691,100078.88,-162,-116,-50
263144,8.432,2.211,4.890,-0.474411,0.203866,0.560159,100078.88,-162,-116,-50
263149,7.994,2.468,4.883,-0.472814,0.157041,0.514397,100081.52,-161,-116,-49
263159,7.980,2.448,4.075,-0.476007,0.084142,0.501095,100079.67,-160,-116,-49
263169,8.560,2.121,3.158,-0.375970,0.083610,0.505351,100080.47,-160,-118,-49
263179,9.189,1.784,2.302,-0.216337,0.154912,0.536214,100079.20,-160,-118,-51
263189,9.232,1.511,1.967,-0.043934,0.260270,0.569737,100079.20,-158,-120,-50
263199,9.033,1.628,2.354,0.118360,0.377866,0.584104,100080.05,-156,-122,-48
263208,8.650,1.337,3.090,0.202965,0.451297,0.607517,100080.80,-156,-122,-48
263219,8.581,1.055,3.753,0.171038,0.474710,0.634122,100079.63,-156,-124,-47
263229,8.547,1.280,3.917,0.040672,0.464068,0.654342,100078.63,-156,-126,-46
263239,8.625,1.702,3.900,-0.110448,0.447573,0.685737,100078.63,-154,-128,-44
263249,8.869,2.000,3.620,-0.192392,0.442784,0.747461,100081.78,-154,-128,-44
263259,9.345,1.644,3.244,-0.177493,0.467261,0.822489,100082.41,-153,-129,-44
263269,9.875,0.209,2.829,-0.183879,0.476839,0.912948,100080.41,-153,-131,-43
263279,10.125,-0.591,2.185,-0.191860,0.510362,0.961902,100080.78,-150,-134,-42
263289,10.270,-0.686,2.604,-0.263695,0.551334,0.966159,100080.78,-150,-134,-42
263299,10.184,-0.327,3.085,-0.385016,0.564105,0.963498,100080.59,-149,-136,-42
263309,10.153,-0.016,3.291,-0.495163,0.592306,0.948067,100077.86,-147,-138,-42
263319,10.105,-0.073,3.537,-0.573383,0.608270,0.945406,100078.91,-146,-140,-41
263329,9.889,0.285,3.690,-0.624998,0.608270,0.959241,100079.38,-146,-140,-41
263339,9.625,0.308,3.847,-0.645218,0.597095,0.997021,100079.38,-144,-142,-41
263349,9.613,0.115,3.654,-0.661181,0.582728,1.062470,100081.02,-142,-144,-41
263359,9.746,-0.158,3.787,-0.701089,0.589646,1.114085,100078.71,-139,-145,-41
263369,10.156,-0.148,4.005,-0.752172,0.607738,1.140690,100080.40,-139,-145,-41
263379,10.525,0.189,4.193,-0.789952,0.622105,1.161975,100079.18,-137,-148,-42
263385,10.604,0.213,4.268,-0.784631,0.640196,1.184856,100079.18,-135,-150,-42
263394,10.730,-0.275,3.957,-0.772392,0.662545,1.224232,100079.18,-135,-150,-42
263404,11.062,-0.356,3.258,-0.793144,0.655095,1.298195,100079.13,-131,-152,-43
263414,11.441,0.229,3.326,-0.780906,0.638068,1.409938,100080.66,-129,-155,-43
263425,11.615,0.455,3.119,-0.696833,0.656160,1.557865,100077.35,-125,-158,-42
263434,11.996,0.782,3.308,-0.623401,0.679040,1.716433,100076.97,-125,-158,-42
263444,12.244,0.839,3.628,-0.554227,0.688086,1.876598,100080.70,-122,-161,-43
263454,12.519,0.464,3.552,-0.512723,0.706178,2.024525,100076.81,-117,-165,-42
263464,12.767,0.493,3.471,-0.562209,0.724270,2.166598,100076.81,-112,-170,-42
263474,12.829,1.023,3.404,-0.655860,0.727994,2.315589,100079.70,-112,-170,-42
263484,13.401,1.173,3.199,-0.745255,0.747150,2.481075,100078.66,-105,-174,-43
263494,14.174,1.205,2.833,-0.903823,0.789187,2.626341,100078.66,-99,-178,-44
263504,15.098,1.930,2.781,-1.106025,0.764710,2.765754,100079.94,-91,-182,-46
263514,16.521,3.608,3.101,-1.289071,0.656692,2.913680,100080.63,-91,-182,-46
263524,17.839,4.828,3.226,-1.605144,0.619976,3.004671,100076.09,-82,-185,-49
263534,19.048,4.852,1.777,-2.251125,0.646050,2.975937,100077.67,-74,-188,-54
263544,20.916,6.615,0.404,-3.281822,0.491206,2.849295,100080.23,-65,-187,-64
263555,22.545,10.355,-0.358,-4.376904,0.251224,2.706157,100079.23,-65,-187,-64
263564,21.569,13.187,1.075,-4.975527,0.203334,2.659332,100079.96,-58,-184,-76
263574,18.684,10.351,4.595,-4.317307,0.233664,2.962634,100076.59,-49,-180,-89
263584,18.547,3.571,7.865,-2.343180,0.388508,3.559129,100076.59,-39,-181,-94
263593,20.479,-1.082,9.176,-0.746851,0.344875,4.043349,100076.59,-39,-181,-94
263604,19.066,-1.897,8.014,-0.075328,0.332637,4.048138,100079.63,-27,-184,-95
263614,17.309,1.077,6.508,0.222653,0.511426,3.780487,100077.95,-16,-188,-94
263624,15.747,6.194,4.972,0.801056,0.716820,3.365441,100082.70,-7,-191,-90
263634,11.225,6.698,4.728,1.195882,0.646050,2.749258,100078.01,-7,-191,-90
263645,7.625,1.870,3.845,1.250157,0.328380,2.178304,100078.01,+0,-195,-87
263654,5.424,-5.720,6.934,1.351790,0.270380,1.733993,100081.71,+4,-198,-82
263664,5.898,-2.611,4.925,1.068708,0.006986,1.011388,100078.63,+8,-201,-79
263674,7.033,0.849,1.480,0.499882,-0.277161,0.299425,100078.98,+8,-201,-79
263685,4.821,3.071,1.160,0.247662,-0.375601,-0.517363,100078.98,+8,-201,-78
263694,3.941,3.778,0.417,0.124745,-0.616647,-1.006904,100078.98,+5,-202,-79
263704,3.043,2.687,0.216,0.192323,-0.824702,-1.324042,100080.38,+3,-200,-78
263714,2.292,1.312,0.464,0.404103,-0.980078,-1.629473,100080.34,+3,-200,-78
263725,2.034,0.211,0.889,0.559479,-1.125344,-2.013656,100082.49,-1,-201,-77
263735,2.254,-0.367,1.279,0.579699,-1.322224,-2.494861,100079.31,-7,-200,-76
263744,2.678,-0.114,1.226,0.536066,-1.490371,-2.887380,100079.31,-14,-199,-76
263754,3.442,0.297,1.203,0.515314,-1.601582,-3.261454,100077.09,-14,-199,-76
263764,4.244,0.488,1.238,0.543515,-1.682463,-3.600940,100075.47,-22,-198,-75
263775,4.852,0.347,1.243,0.581827,-1.755362,-3.895728,100075.94,-32,-194,-76
263784,5.288,-0.012,1.337,0.631313,-1.804848,-4.164976,100074.42,-42,-192,-74
263794,5.630,-0.301,1.732,0.651534,-1.843692,-4.426242,100076.69,-42,-192,-74
263804,6.193,-0.437,2.098,0.672286,-1.882536,-4.684315,100073.06,-54,-188,-74
263814,7.010,-0.469,2.405,0.691442,-1.898499,-4.941324,100073.06,-65,-181,-76
263824,7.772,-0.512,2.519,0.764873,-1.875619,-5.182902,100073.75,-78,-176,-76
263834,8.468,-0.413,2.740,0.886726,-1.831453,-5.420223,100074.06,-90,-176,-76
263844,9.439,-0.348,2.987,0.984102,-1.808573,-5.640516,100074.06,-90,-167,-78
263855,10.534,-0.493,3.321,1.051148,-1.796866,-5.847507,100073.59,-103,-158,-78
263864,11.784,-0.429,3.566,1.102231,-1.819215,-6.057690,100075.59,-115,-147,-79
263874,13.552,-0.332,3.929,1.145332,-1.838371,-6.244993,100073.44,-128,-135,-80
263884,15.095,-0.556,3.938,1.217698,-1.834646,-6.383341,100070.80,-128,-135,-80
263895,16.138,-1.405,4.303,1.249093,-1.834114,-6.473800,100074.57,-139,-121,-81
263905,17.624,-2.564,5.467,1.294854,-1.835710,-6.537653,100072.88,-149,-107,-84
263914,19.458,-4.226,6.817,1.343808,-1.830921,-6.517433,100072.46,-159,-92,-87
263924,20.716,-6.256,7.742,1.286873,-1.846885,-6.383341,100073.88,-159,-92,-87
263934,21.488,-8.289,8.162,1.094249,-1.856463,-6.181672,100073.88,-166,-76,-90
263945,21.424,-10.045,8.736,0.749442,-1.791013,-5.894865,100073.88,-170,-60,-93
263954,18.936,-10.566,10.111,0.326414,-1.573912,-5.536223,100078.45,-174,-44,-97
263964,15.766,-10.094,12.151,0.072598,-1.198243,-5.099360,100075.14,-174,-44,-97
263969,14.408,-10.721,13.620,-0.007750,-0.864610,-4.720499,100076.09,-177,-29,-100
263980,13.600,-12.906,13.200,-0.139182,-0.588977,-4.263948,100074.56,-177,-29,-100
263989,12.544,-17.030,11.610,-0.479732,-0.302170,-3.539747,100074.56,-179,-17,-102
263999,11.691,-20.257,9.146,-0.810704,-0.118060,-2.618133,100077.11,-180,-6,-104
264009,9.963,-21.343,8.166,-0.888924,0.076692,-1.450684,100074.47,-181,+0,-104
264019,8.671,-20.488,8.797,-0.706410,0.279958,-0.081566,100076.73,-181,+0,-104
264030,8.997,-17.787,9.711,-0.371181,0.489077,1.239131,100076.20,-181,+0,-102
264039,10.016,-13.508,10.437,0.143369,0.774288,2.303350,100076.20,-182,-6,-100
264049,12.767,1.361,5.782,0.504139,0.887095,2.681148,100077.63,-182,-15,-97
264059,14.716,31.635,-4.334,0.212011,0.561976,1.791461,100080.89,-181,-15,-97
264070,11.441,34.277,-10.345,-0.395126,0.551334,0.466507,100078.58,-181,-19,-95
264079,7.867,-2.819,1.159,2.139312,1.416012,1.658965,100079.09,-183,-23,-92
264089,17.535,-9.428,4.637,3.649972,1.483590,3.188781,100079.09,-183,-39,-83
264099,24.186,-6.371,0.641,1.414579,0.968508,3.051497,100082.41,-181,-49,-80
264110,20.363,-2.740,-0.346,0.119424,1.017462,2.368800,100080.09,-181,-49,-80
264120,16.513,-1.598,4.896,0.287571,1.320233,2.883350,100077.83,-180,-57,-76
264129,12.178,-0.747,10.074,0.710598,1.603847,2.934965,100078.25,-179,-68,-70
264139,9.975,-1.990,8.986,1.079882,1.783700,2.624745,100078.25,-177,-78,-64
264150,12.358,-3.569,3.226,0.948451,1.630985,2.619956,100079.45,-177,-78,-64
264160,9.928,-4.368,3.794,0.466891,1.486251,2.533754,100079.36,-175,-86,-58
264169,8.690,-2.137,5.430,0.259901,1.367590,2.265571,100076.94,-172,-94,-54
264179,9.995,-3.499,3.879,-0.046062,1.093022,1.982488,100077.94,-170,-99,-51
264189,10.989,-4.215,2.762,-0.512190,0.844526,1.759002,100077.94,-170,-99,-51
264200,11.869,-1.893,3.003,-0.866043,0.653499,1.590323,100082.87,-169,-103,-51
264209,11.657,-0.250,3.274,-1.035254,0.523664,1.421644,100079.13,-166,-107,-51
264219,10.131,0.782,2.837,-0.986300,0.473114,1.220507,100077.51,-164,-109,-52
264229,9.469,1.579,2.429,-0.758025,0.469389,1.050232,100076.93,-164,-109,-52
264240,9.844,2.004,2.863,-0.458447,0.508765,0.999682,100076.93,-163,-110,-51
264250,9.906,1.427,3.006,-0.294558,0.511426,0.990104,100077.66,-162,-112,-49
264259,9.731,0.828,3.244,-0.220594,0.501316,0.906030,100078.97,-160,-115,-49
264269,9.858,0.517,3.419,-0.197714,0.460875,0.813975,100077.66,-160,-115,-49
264280,9.456,0.608,3.578,-0.229108,0.417774,0.707021,100078.86,-158,-118,-49
264290,9.038,0.681,3.667,-0.311053,0.365628,0.612306,100078.86,-158,-118,-47
264299,8.817,0.803,3.841,-0.423860,0.311885,0.533021,100081.54,-158,-120,-48
264309,8.721,1.258,4.123,-0.559548,0.257077,0.462251,100077.07,-158,-120,-48
264320,8.698,1.853,3.924,-0.658521,0.210252,0.404251,100080.07,-157,-120,-49
264330,8.673,1.997,3.446,-0.672355,0.207591,0.384030,100079.60,-156,-120,-49
264339,8.732,1.865,2.834,-0.607438,0.238986,0.402654,100079.60,-155,-120,-50
264349,8.858,1.894,2.475,-0.477071,0.293793,0.446819,100079.59,-155,-120,-50
264359,8.909,1.814,2.386,-0.300411,0.369885,0.512269,100078.97,-154,-121,-50
264370,8.910,1.401,2.894,-0.178026,0.444912,0.583040,100078.34,-154,-122,-49
264380,8.951,0.747,3.501,-0.190796,0.479499,0.624012,100075.77,-153,-124,-49
264389,8.831,0.974,3.967,-0.336062,0.473114,0.617627,100075.77,-153,-124,-49
264399,8.575,1.733,4.196,-0.448869,0.472582,0.619223,100076.39,-153,-125,-48
264410,8.344,2.142,4.042,-0.461640,0.476307,0.647957,100077.48,-151,-126,-48
264420,8.632,2.033,3.604,-0.354686,0.485352,0.722452,100081.02,-150,-128,-47
264429,9.319,0.846,3.040,-0.258906,0.497059,0.840049,100078.70,-150,-128,-47
264439,9.920,-0.092,2.347,-0.280723,0.516747,0.932104,100078.70,-149,-129,-47
264450,10.282,0.174,2.365,-0.407897,0.565169,0.976269,100080.92,-147,-132,-46
264460,9.912,1.047,2.700,-0.499420,0.606673,1.026287,100081.61,-145,-134,-46
264470,9.495,1.866,3.219,-0.458447,0.649774,1.125791,100078.88,-145,-134,-46
264479,9.494,1.328,3.411,-0.346172,0.688618,1.251901,100076.19,-144,-136,-46
264489,9.961,0.353,3.469,-0.310521,0.721077,1.359920,100076.19,-141,-140,-44
264500,10.254,0.134,3.959,-0.386613,0.733848,1.415791,100079.12,-138,-142,-43
264510,10.375,-0.078,4.121,-0.485585,0.716820,1.451443,100076.34,-138,-142,-43
264519,10.719,-0.432,3.950,-0.581897,0.726398,1.490819,100080.02,-136,-146,-42
264529,10.821,-0.455,4.067,-0.708539,0.734912,1.527002,100078.60,-133,-149,-43
264540,11.042,0.075,3.578,-0.788888,0.705114,1.610011,100078.60,-129,-152,-42
264550,11.723,0.461,3.149,-0.759089,0.689150,1.751020,100080.79,-126,-154,-44
264555,12.141,0.541,3.052,-0.693108,0.709371,1.863828,100081.04,-126,-154,-44
264564,12.475,0.262,2.904,-0.631383,0.727994,1.981424,100081.04,-121,-159,-42
264574,12.476,0.402,2.788,-0.566998,0.749811,2.136268,100078.37,-121,-159,-42
264585,12.280,0.528,3.189,-0.482392,0.758857,2.308671,100077.52,-115,-164,-42
264595,12.977,0.260,3.673,-0.446741,0.745022,2.478415,100077.52,-110,-168,-42
264605,14.272,0.078,3.720,-0.534007,0.759389,2.597075,100080.44,-103,-173,-42
264614,14.575,0.481,3.716,-0.725034,0.784930,2.674763,100079.05,-103,-173,-42
264625,14.291,1.274,3.333,-0.935750,0.787591,2.777460,100077.73,-96,-177,-42
264635,14.872,2.197,3.121,-1.098043,0.759921,2.911552,100077.73,-89,-181,-44
264644,16.844,3.458,3.423,-1.247034,0.651371,3.072781,100077.73,-79,-185,-47
264654,19.201,4.211,3.180,-1.552997,0.601352,3.158451,100079.31,-79,-185,-47
264665,21.177,5.920,2.400,-2.286244,0.622637,3.082359,100079.47,-70,-187,-51
264670,21.962,8.600,1.543,-3.095051,0.566765,2.968488,100078.11,-61,-188,-59
264680,22.103,10.674,0.440,-3.993785,0.423628,2.862066,100077.58,-61,-188,-59
264689,22.156,12.514,-0.115,-5.102169,0.218233,2.771607,100077.58,-52,-186,-71
264699,20.199,12.927,2.053,-5.422499,0.146398,2.775332,100076.21,-44,-180,-86
264710,17.599,7.786,5.995,-4.030500,0.224086,3.188249,100079.16,-33,-177,-95
264720,19.116,0.948,8.076,-1.582795,0.302307,3.890634,100076.21,-33,-177,-95
264730,20.503,-2.571,8.959,-0.162594,0.213444,4.312597,100076.01,-20,-179,-97
264739,18.896,-1.235,7.775,0.362066,0.286875,4.164670,100076.01,-8,-183,-95
264750,17.323,4.037,6.401,0.801589,0.537499,3.814542,100079.72,+1,-186,-92
264760,13.903,6.987,4.844,1.360304,0.687554,3.307974,100075.67,+1,-186,-92
264770,8.782,4.192,5.154,1.713093,0.519407,2.700304,100078.67,+11,-190,-87
264779,6.919,-4.217,6.660,1.956799,0.389041,2.308139,100079.09,+17,-194,-81
264790,6.243,-4.575,7.479,1.901459,0.196417,1.713773,100079.09,+23,-197,-75
264800,8.023,0.089,2.503,1.298579,-0.235124,0.912948,100078.54,+23,-197,-75
264810,5.932,2.577,1.433,0.971864,-0.305363,-0.051235,100081.32,+26,-200,-71
264819,4.684,3.710,0.845,0.746781,-0.498519,-0.643473,100076.59,+25,-200,-68
264829,3.510,2.986,0.137,0.689313,-0.782665,-1.013290,100079.43,+23,-200,-66
264840,2.532,1.577,0.290,0.784029,-0.994977,-1.330959,100079.43,+23,-200,-66
264850,2.191,0.457,0.513,0.961754,-1.163656,-1.689601,100081.06,+20,-201,-63
264860,2.212,-0.315,0.861,1.025075,-1.348298,-2.129124,100080.97,+16,-201,-60
264869,2.570,-0.364,1.227,0.994212,-1.555289,-2.579289,100076.48,+10,-202,-56
264880,3.179,0.120,1.371,0.976121,-1.722903,-2.975711,100075.13,+10,-202,-56
264890,3.826,0.412,1.626,1.045827,-1.820811,-3.319453,100075.13,+3,-200,-54
264900,4.398,0.136,1.710,1.111809,-1.905949,-3.631802,100073.23,-5,-200,-50
264905,4.800,-0.374,1.701,1.093717,-1.975655,-3.854224,100073.34,-5,-200,-50
264914,5.167,-0.812,1.770,1.003790,-2.051215,-4.075049,100073.34,-15,-198,-47
264925,5.422,-1.018,1.932,0.848946,-2.152848,-4.356535,100072.76,-26,-196,-46
264935,5.703,-0.789,2.246,0.719112,-2.224683,-4.627912,100072.91,-37,-192,-45
264945,6.160,-0.627,2.458,0.682928,-2.243306,-4.895030,100072.91,-37,-192,-45
264955,6.759,-0.761,2.654,0.683992,-2.206591,-5.153636,100074.06,-49,-186,-44
264965,7.477,-0.910,3.039,0.649937,-2.168279,-5.401067,100070.98,-62,-180,-44
264975,8.437,-0.900,3.314,0.598855,-2.145930,-5.645305,100072.16,-77,-174,-44
264985,9.359,-0.763,3.319,0.586084,-2.123582,-5.890076,100072.16,-77,-174,-44
264994,10.536,-0.593,3.317,0.596194,-2.108683,-6.128993,100072.16,-90,-165,-45
265005,12.301,-0.696,3.648,0.597258,-2.091655,-6.324277,100073.31,-105,-154,-46
265015,13.728,-1.166,4.094,0.627589,-2.040573,-6.442938,100071.53,-119,-142,-47
265025,14.524,-1.726,4.547,0.665901,-1.984701,-6.536589,100071.89,-119,-142,-47
265034,15.893,-2.151,5.390,0.731350,-1.951178,-6.650461,100070.42,-133,-128,-49
265044,18.043,-2.982,6.219,0.825001,-1.913398,-6.724956,100070.42,-146,-113,-51
265055,19.817,-4.512,7.019,0.861185,-1.889453,-6.692497,100073.46,-158,-97,-53
265065,21.117,-6.563,7.451,0.697295,-1.908077,-6.537653,100072.62,-158,-97,-53
265075,21.810,-8.440,7.884,0.375369,-1.933086,-6.280644,100075.57,-167,-79,-57
265084,20.971,-8.799,9.056,0.073130,-1.836242,-5.937965,100075.57,-175,-61,-62
265095,18.292,-8.410,10.596,-0.013604,-1.537197,-5.461195,100076.58,-181,-43,-67
265105,16.070,-9.103,12.508,0.113039,-1.061491,-4.947710,100076.58,-181,-43,-67
265115,14.593,-12.067,12.265,0.124213,-0.636335,-4.379416,100074.58,-185,-28,-69
265124,12.893,-16.548,11.089,-0.107787,-0.310152,-3.688738,100075.48,-188,-16,-71
265135,12.054,-20.195,8.753,-0.434502,-0.081877,-2.689435,100075.80,-190,-5,-71
265140,10.637,-21.782,7.708,-0.599456,0.097444,-1.749198,100075.80,-190,-5,-71
265150,8.976,-21.571,7.522,-0.600521,0.238986,-0.677529,100077.59,-192,-2,-71
265160,8.807,-18.616,7.772,-0.375438,0.389041,0.771406,100074.01,-192,-5,-69
265169,9.939,-15.488,8.744,0.093350,0.624233,1.989406,100071.59,-192,-5,-69
265180,10.707,-12.306,9.429,0.608965,0.893481,2.923258,100072.43,-192,-13,-66
265190,13.630,8.135,3.668,0.706341,0.871132,2.983387,100072.43,-192,-25,-62
265200,15.127,39.567,-6.043,-0.189732,0.614655,1.423773,100078.98,-191,-27,-61
265210,10.631,27.273,-10.843,-0.871897,0.569958,0.253664,100079.56,-191,-27,-61
265220,11.635,-11.635,3.689,1.677973,1.466563,1.951626,100080.08,-192,-31,-56
265230,22.393,-7.835,4.869,2.305331,1.197315,3.237735,100075.45,-191,-43,-49
265240,24.837,-3.794,0.355,0.093350,0.715756,2.799277,100075.45,-189,-53,-47
265250,19.114,1.116,1.643,-0.026906,1.015866,2.556103,100080.78,-189,-53,-47
265255,16.036,2.382,4.309,0.531809,1.286178,3.122799,100077.20,-187,-61,-43
265265,12.050,-0.227,5.667,1.008047,1.439957,3.247845,100077.20,-184,-73,-37
265275,8.416,-2.850,6.758,1.348065,1.547444,2.900910,100075.47,-184,-73,-37
265285,9.292,-2.289,8.640,1.233662,1.595865,2.724249,100074.63,-183,-82,-31
265295,9.652,-1.300,7.652,1.103295,1.605976,2.522048,100074.63,-180,-91,-24
265306,10.227,-1.715,5.112,0.974524,1.497425,2.364543,100077.51,-177,-99,-18
265315,10.056,-2.960,4.208,0.662708,1.360673,2.192672,100077.87,-177,-99,-18
265325,9.839,-3.553,3.861,0.251387,1.179756,1.954818,100075.55,-174,-105,-14
265335,11.164,-3.876,2.936,-0.304136,0.912104,1.825516,100075.55,-171,-111,-13
265345,11.923,-2.910,2.642,-0.860722,0.723738,1.704195,100075.55,-168,-115,-12
