119929,9.241,-3.070,2.080,0.004913,0.014181,-0.013702,99918.77,+103,+42,+180
119940,9.234,-3.069,2.081,0.006509,0.015245,-0.011574,99920.40,+101,+41,+178
119950,9.238,-3.071,2.100,0.006509,0.015245,-0.009445,99917.68,+101,+41,+178
119959,9.268,-3.058,2.106,0.007042,0.014713,-0.008913,99916.26,+103,+40,+184
119969,9.269,-3.091,2.081,0.010766,0.014181,-0.008381,99916.26,+103,+42,+179
119980,9.274,-3.086,2.077,0.014491,0.013116,-0.009977,99920.66,+101,+40,+178
119985,9.242,-3.100,2.079,0.016087,0.013116,-0.009977,99918.21,+101,+40,+178
119994,9.207,-3.144,2.074,0.016620,0.014181,-0.009977,99918.21,+103,+40,+184
120004,9.208,-3.143,2.077,0.014491,0.013648,-0.013170,99918.21,+103,+42,+179
120014,9.217,-3.118,2.114,0.011831,0.013648,-0.014234,99917.48,+103,+42,+179
120025,9.205,-3.115,2.105,0.009170,0.013648,-0.014766,99917.48,+101,+40,+179
120035,9.217,-3.091,2.100,0.005977,0.012052,-0.014234,99919.62,+103,+40,+184
120045,9.211,-3.051,2.119,0.001720,0.012052,-0.013170,99916.55,+103,+42,+179
120054,9.249,-3.040,2.114,0.001720,0.010988,-0.009977,99918.87,+103,+42,+179
120065,9.275,-3.042,2.100,0.004381,0.010988,-0.007849,99918.87,+101,+40,+179
120075,9.243,-3.046,2.071,0.010234,0.010456,-0.005189,99918.87,+103,+41,+184
120085,9.229,-3.087,2.085,0.015023,0.009392,-0.004656,99922.05,+103,+42,+179
120094,9.220,-3.122,2.087,0.016087,0.010988,-0.006253,99918.91,+103,+42,+179
120104,9.202,-3.099,2.088,0.015555,0.010988,-0.007849,99919.60,+101,+40,+178
120115,9.204,-3.079,2.117,0.015023,0.008859,-0.008913,99917.09,+103,+40,+184
120125,9.232,-3.105,2.104,0.015555,0.010456,-0.008913,99917.09,+103,+42,+178
120135,9.238,-3.099,2.120,0.015023,0.009924,-0.007317,99918.99,+103,+42,+178
120144,9.238,-3.070,2.117,0.013959,0.011520,-0.005721,99919.62,+102,+41,+179
120155,9.243,-3.027,2.136,0.012895,0.010988,-0.003592,99916.95,+103,+41,+184
120165,9.267,-3.043,2.159,0.011831,0.011520,-0.002528,99916.95,+103,+42,+178
120175,9.292,-3.050,2.137,0.012895,0.009924,-0.001464,99919.24,+103,+42,+178
120184,9.290,-3.053,2.118,0.017152,0.008327,0.000133,99919.24,+102,+40,+179
120195,9.273,-3.056,2.155,0.026198,0.007263,0.001729,99919.93,+104,+40,+184
120205,9.202,-3.077,2.126,0.033115,0.006731,0.002793,99920.18,+102,+43,+178
120214,9.223,-3.116,2.099,0.033647,0.006731,0.001729,99919.29,+102,+43,+178
120224,9.234,-3.141,2.101,0.030454,0.008327,-0.001996,99919.29,+102,+40,+179
120235,9.187,-3.083,2.171,0.026198,0.010988,-0.003060,99918.19,+104,+41,+184
120245,9.183,-3.059,2.185,0.026198,0.008327,-0.001996,99918.61,+103,+42,+177
120255,9.232,-3.026,2.184,0.028326,0.007795,0.000665,99917.67,+103,+42,+177
120265,9.243,-3.024,2.141,0.030454,0.009392,0.002793,99918.87,+102,+40,+180
120274,9.247,-3.062,2.128,0.034179,0.009392,0.005454,99922.32,+104,+41,+184
120285,9.240,-3.128,2.044,0.034711,0.014181,0.006518,99918.49,+103,+42,+178
120295,9.244,-3.118,2.050,0.028326,0.017905,0.005454,99918.49,+103,+42,+178
120304,9.238,-3.069,2.093,0.026198,0.021098,0.005986,99919.60,+103,+41,+180
120314,9.244,-3.079,2.098,0.030454,0.022694,0.005986,99918.34,+105,+42,+183
120325,9.214,-3.121,2.118,0.030454,0.024823,0.004389,99918.34,+103,+43,+177
120335,9.200,-3.123,2.138,0.025665,0.025887,0.002084,99920.20,+103,+40,+180
120344,9.211,-3.119,2.214,0.021409,0.027483,0.000665,99920.20,+103,+40,+180
120354,9.190,-3.094,2.187,0.018216,0.028015,0.001197,99917.05,+105,+42,+183
120365,9.207,-3.057,2.192,0.017684,0.029080,0.002261,99916.89,+102,+43,+177
120375,9.224,-3.012,2.141,0.020344,0.028547,0.004389,99916.89,+103,+41,+180
120385,9.231,-3.042,2.137,0.026730,0.028547,0.007582,99919.35,+103,+41,+180
120394,9.248,-3.055,2.126,0.031519,0.030144,0.010775,99918.04,+105,+42,+183
120404,9.188,-3.068,2.108,0.033115,0.034401,0.011839,99917.51,+103,+43,+177
120415,9.182,-3.105,2.100,0.034711,0.037061,0.012371,99917.51,+104,+42,+181
120425,9.206,-3.089,2.136,0.036840,0.038658,0.012371,99917.51,+104,+42,+181
120434,9.208,-3.094,2.190,0.040032,0.039722,0.012371,99919.60,+105,+44,+182
120444,9.206,-3.105,2.203,0.039500,0.040786,0.012371,99917.41,+103,+44,+177
120455,9.174,-3.103,2.211,0.034711,0.040254,0.011307,99918.46,+104,+42,+181
120465,9.200,-3.073,2.219,0.030454,0.040786,0.012371,99917.51,+104,+42,+181
120474,9.200,-3.055,2.222,0.029922,0.040254,0.013435,99917.51,+106,+44,+183
120484,9.205,-3.049,2.203,0.031519,0.040254,0.016628,99918.72,+103,+43,+176
120495,9.205,-3.068,2.183,0.033115,0.041318,0.018224,99916.98,+105,+42,+181
120505,9.220,-3.100,2.193,0.034179,0.043447,0.020353,99916.56,+105,+42,+181
120515,9.207,-3.093,2.187,0.033115,0.046639,0.019289,99916.56,+106,+44,+183
120525,9.172,-3.097,2.227,0.035243,0.048236,0.018224,99919.96,+103,+44,+176
120535,9.138,-3.149,2.232,0.037904,0.050896,0.017160,99919.96,+105,+42,+181
120545,9.168,-3.142,2.223,0.037904,0.052492,0.017160,99918.09,+105,+42,+181
120555,9.172,-3.152,2.208,0.034179,0.053025,0.016096,99917.45,+106,+44,+182
120564,9.188,-3.211,2.190,0.025133,0.054089,0.016628,99915.99,+103,+44,+176
120574,9.235,-3.277,2.107,0.003849,0.056749,0.015032,99915.99,+105,+42,+181
120585,9.269,-3.176,2.094,-0.022757,0.065795,0.009711,99919.27,+105,+42,+181
120595,9.244,-3.038,2.210,-0.034463,0.074841,0.007582,99918.38,+106,+44,+181
120605,9.159,-2.983,2.298,-0.015839,0.076437,0.011307,99919.85,+105,+44,+176
120614,9.146,-3.050,2.301,0.012363,0.074841,0.014500,99918.36,+106,+43,+182
120625,9.126,-3.142,2.335,0.024069,0.074841,0.012903,99917.05,+106,+43,+182
120635,9.146,-3.229,2.319,0.019812,0.077502,0.005986,99919.14,+106,+44,+181
120645,9.099,-3.219,2.289,0.010234,0.080694,-0.000932,99918.25,+105,+43,+176
120654,9.111,-3.119,2.272,0.007042,0.082291,-0.007317,99918.25,+106,+43,+183
120665,9.155,-3.121,2.262,0.019280,0.079630,-0.006785,99918.09,+106,+43,+183
120675,9.163,-3.202,2.214,0.032583,0.076969,-0.003060,99918.09,+107,+45,+181
120685,9.193,-3.252,2.152,0.029922,0.075373,-0.005189,99920.20,+105,+44,+176
120694,9.170,-3.183,2.220,0.018748,0.082823,-0.008381,99919.41,+107,+42,+183
120705,9.105,-3.140,2.342,0.011298,0.089740,-0.011574,99917.95,+107,+42,+183
120715,9.096,-3.183,2.330,0.005977,0.091869,-0.014234,99919.73,+108,+45,+180
120725,9.104,-3.129,2.389,0.000656,0.097190,-0.021684,99919.73,+106,+44,+177
120735,9.072,-3.056,2.392,0.012363,0.097190,-0.024877,99921.44,+109,+42,+183
120744,9.055,-3.080,2.373,0.037372,0.094529,-0.024344,99918.47,+109,+42,+183
120755,9.087,-3.081,2.359,0.056528,0.093997,-0.024877,99918.42,+109,+44,+180
120765,9.147,-3.036,2.464,0.073555,0.089740,-0.024877,99918.42,+107,+44,+178
120775,9.111,-3.049,2.536,0.091115,0.083887,-0.024877,99918.42,+109,+42,+183
120784,9.181,-2.954,2.699,0.118785,0.069520,-0.021152,99919.17,+109,+42,+183
120795,9.201,-2.836,2.762,0.151775,0.046107,-0.016363,99918.02,+109,+46,+181
120805,9.145,-3.081,2.641,0.175720,0.044511,-0.014766,99918.64,+108,+44,+177
120815,9.080,-3.358,2.407,0.155500,0.050896,-0.020088,99916.03,+110,+45,+183
120824,9.073,-3.349,2.350,0.094840,0.072713,-0.035519,99916.03,+110,+46,+179
120835,9.048,-3.395,2.307,0.026198,0.095593,-0.049354,99919.31,+110,+46,+179
120845,9.123,-3.423,2.193,-0.031802,0.119006,-0.067977,99918.33,+108,+46,+178
120855,9.333,-3.323,2.367,-0.078628,0.132309,-0.087133,99917.83,+112,+44,+183
120865,9.415,-3.152,2.481,-0.102573,0.133905,-0.102032,99917.83,+111,+46,+179
120875,9.155,-2.983,2.490,-0.082353,0.136566,-0.108418,99918.19,+111,+46,+179
120885,8.908,-2.826,2.713,-0.040848,0.131777,-0.104693,99918.19,+110,+44,+176
120895,8.970,-2.878,2.842,-0.005197,0.114217,-0.099372,99918.61,+112,+44,+184
120905,9.012,-2.907,2.848,0.027262,0.099850,-0.098308,99916.88,+112,+45,+179
120914,9.079,-2.785,2.907,0.045886,0.081226,-0.094583,99918.34,+112,+45,+179
120925,9.253,-2.930,2.872,0.060253,0.066327,-0.090326,99918.34,+110,+44,+178
120935,9.291,-3.137,2.745,0.052803,0.062070,-0.092455,99917.52,+113,+44,+183
120945,9.205,-3.147,2.763,0.011831,0.067924,-0.100968,99919.87,+112,+46,+178
120955,9.285,-3.124,2.863,-0.038720,0.065795,-0.107354,99919.20,+112,+46,+178
120965,9.290,-2.931,2.871,-0.065857,0.051960,-0.115335,99917.04,+111,+44,+178
120975,9.117,-2.760,2.928,-0.055215,0.037061,-0.113739,99919.25,+113,+44,+183
120985,9.145,-2.824,2.827,-0.025949,0.017905,-0.106821,99918.77,+112,+46,+179
120995,9.265,-2.925,2.794,-0.006261,0.005667,-0.103629,99917.05,+112,+46,+179
121005,9.210,-3.039,2.733,-0.004665,0.001942,-0.105225,99917.05,+112,+44,+179
121015,9.120,-3.010,2.741,-0.022757,0.005667,-0.112143,99916.41,+112,+44,+183
121025,9.102,-2.898,2.832,-0.041380,0.009392,-0.117464,99916.41,+112,+44,+178
121035,9.092,-2.825,2.882,-0.044573,0.007263,-0.119060,99918.03,+112,+44,+178
121040,9.115,-2.854,2.802,-0.041380,0.003538,-0.117464,99917.92,+112,+42,+179
121050,9.171,-2.958,2.726,-0.041380,0.000346,-0.117464,99919.08,+112,+42,+179
121060,9.271,-3.034,2.638,-0.050426,-0.003911,-0.120124,99916.34,+113,+42,+184
121070,9.313,-3.160,2.513,-0.074371,-0.009764,-0.127574,99916.34,+112,+44,+178
121080,9.348,-3.128,2.326,-0.105234,-0.007104,-0.136620,99919.81,+111,+42,+179
121090,9.263,-2.988,2.377,-0.128114,-0.000719,-0.142473,99920.45,+112,+42,+183
121100,9.201,-2.808,2.478,-0.125986,-0.001783,-0.141941,99917.78,+112,+42,+183
121110,9.145,-2.710,2.597,-0.101509,-0.007104,-0.132895,99915.58,+112,+42,+177
121120,9.077,-2.687,2.650,-0.078096,-0.012425,-0.119592,99915.58,+111,+41,+179
121129,9.087,-2.711,2.642,-0.068518,-0.014553,-0.107354,99920.95,+113,+42,+183
121140,9.152,-2.692,2.633,-0.072775,-0.015086,-0.096179,99919.23,+113,+42,+183
121150,9.207,-2.730,2.588,-0.085013,-0.014553,-0.085537,99920.44,+111,+42,+177
121160,9.256,-2.733,2.535,-0.099380,-0.012957,-0.075959,99919.17,+111,+40,+180
121169,9.272,-2.749,2.505,-0.103637,-0.010297,-0.066913,99919.17,+113,+40,+183
121180,9.237,-2.810,2.498,-0.105234,-0.013489,-0.058399,99918.15,+113,+40,+183
121190,9.200,-2.851,2.545,-0.111087,-0.013489,-0.051482,99918.04,+111,+42,+178
121200,9.109,-2.783,2.610,-0.121197,-0.012957,-0.047757,99916.99,+111,+38,+179
121210,9.101,-2.667,2.672,-0.127582,-0.015618,-0.039244,99918.40,+112,+40,+182
121220,9.158,-2.633,2.639,-0.129179,-0.020407,-0.030198,99918.40,+112,+40,+182
121230,9.235,-2.563,2.632,-0.127050,-0.028388,-0.015299,99918.07,+111,+40,+177
121240,9.356,-2.459,2.682,-0.114279,-0.039030,0.003857,99917.91,+110,+38,+180
121250,9.389,-2.564,2.664,-0.088206,-0.055526,0.025142,99915.98,+112,+40,+182
121260,9.311,-2.694,2.542,-0.073307,-0.062443,0.042701,99915.24,+112,+40,+182
121270,9.234,-2.775,2.480,-0.080757,-0.065104,0.054408,99915.24,+110,+40,+177
121280,9.195,-2.824,2.533,-0.098316,-0.067764,0.063454,99921.66,+111,+37,+179
121290,9.195,-2.759,2.478,-0.111619,-0.073618,0.071967,99918.93,+112,+38,+182
121300,9.224,-2.657,2.538,-0.108426,-0.083728,0.086866,99916.21,+112,+38,+182
121310,9.202,-2.599,2.553,-0.090867,-0.095434,0.108151,99917.30,+110,+39,+176
121320,9.220,-2.607,2.664,-0.068518,-0.112994,0.134224,99917.30,+109,+36,+181
121330,9.325,-2.642,2.737,-0.050958,-0.133746,0.165087,99917.45,+112,+38,+183
121340,9.360,-2.518,2.729,-0.047766,-0.147049,0.195949,99920.96,+112,+38,+183
121350,9.435,-2.663,2.804,-0.057344,-0.166205,0.227876,99918.60,+109,+39,+176
121360,9.569,-2.804,2.788,-0.074903,-0.190150,0.255545,99918.71,+109,+37,+181
121370,9.565,-2.763,2.697,-0.098316,-0.212498,0.288004,99918.71,+110,+38,+182
121380,9.480,-2.685,2.624,-0.118536,-0.239636,0.327380,99923.30,+110,+38,+182
121390,9.691,-2.575,2.723,-0.130775,-0.281140,0.375802,99919.09,+107,+40,+176
121400,10.048,-2.536,2.950,-0.133968,-0.341801,0.442316,99919.36,+107,+37,+181
121410,10.421,-2.406,3.325,-0.125986,-0.436516,0.521068,99919.00,+107,+39,+181
121420,10.587,-2.109,3.683,-0.105234,-0.538682,0.620040,99919.00,+107,+39,+181
121431,10.711,-2.113,3.760,-0.083417,-0.630204,0.749343,99921.23,+105,+38,+176
121440,11.045,-2.119,3.247,-0.053619,-0.705764,0.882371,99920.92,+103,+38,+183
121450,11.399,-1.968,3.113,-0.065857,-0.753122,1.023912,99918.67,+101,+40,+183
121460,12.208,-2.079,2.899,-0.074903,-0.794094,1.159068,99915.20,+101,+40,+183
121470,13.014,-2.945,2.408,-0.044041,-0.807929,1.275600,99915.20,+98,+40,+177
121480,13.762,-4.115,1.631,-0.075968,-0.794094,1.364462,99920.11,+97,+37,+183
121490,14.741,-4.199,0.945,-0.197289,-0.795691,1.428847,99920.38,+96,+40,+183
121500,15.548,-3.652,0.764,-0.240389,-0.830278,1.476205,99918.02,+96,+40,+183
121510,15.164,-3.506,0.741,-0.180793,-0.839324,1.577306,99916.70,+92,+38,+179
121520,12.734,-4.559,1.197,-0.045105,-0.771746,1.729489,99916.70,+90,+38,+184
121530,10.119,-9.187,2.039,0.151775,-0.703103,1.917856,99918.71,+87,+40,+183
121540,10.241,-11.567,1.784,0.204454,-0.712681,2.024278,99916.77,+83,+40,+183
121550,10.598,-11.363,2.001,0.186895,-0.688204,1.975856,99915.73,+83,+38,+179
121561,9.988,-11.442,2.937,0.235849,-0.591893,1.989159,99914.73,+81,+37,+186
121570,9.848,-10.179,1.864,0.157629,-0.564755,2.007783,99914.73,+79,+38,+183
121580,8.297,-8.466,1.430,0.001188,-0.525379,1.962553,99921.16,+74,+36,+180
121590,6.790,-7.424,1.899,-0.076500,-0.461526,1.885930,99916.34,+74,+36,+180
121601,6.158,-6.990,1.691,-0.148867,-0.417361,1.800792,99916.96,+73,+34,+186
121610,5.965,-6.702,1.026,-0.271784,-0.395012,1.708737,99917.85,+70,+33,+184
121620,5.605,-6.298,0.557,-0.351600,-0.378516,1.601251,99917.85,+66,+29,+180
121630,4.983,-5.813,0.704,-0.327123,-0.346590,1.495893,99917.01,+66,+29,+180
121640,4.373,-5.229,0.877,-0.240389,-0.300296,1.393196,99914.02,+65,+27,+186
121650,4.093,-4.556,0.401,-0.198885,-0.276884,1.273471,99917.37,+64,+27,+183
121660,3.808,-4.059,-0.006,-0.180793,-0.272095,1.156407,99916.96,+62,+23,+180
121670,3.537,-3.842,-0.277,-0.155252,-0.271562,1.045196,99916.96,+62,+23,+180
121680,3.193,-3.520,-0.578,-0.133968,-0.282737,0.941435,99918.17,+60,+21,+187
121691,2.713,-3.111,-0.631,-0.082353,-0.291250,0.839270,99916.34,+60,+21,+183
121700,2.396,-2.764,-0.550,0.012895,-0.293379,0.728591,99915.61,+57,+20,+181
121710,2.274,-2.484,-0.404,0.108675,-0.286462,0.607802,99917.23,+57,+20,+181
121720,2.163,-2.296,-0.229,0.183702,-0.266773,0.479564,99917.23,+57,+19,+186
121731,2.116,-2.190,-0.063,0.227335,-0.240168,0.341215,99918.20,+55,+22,+183
121740,2.110,-2.154,0.069,0.223610,-0.208241,0.189032,99917.84,+55,+21,+181
121746,2.162,-2.142,0.166,0.193812,-0.180572,0.065582,99913.19,+55,+21,+181
121755,2.254,-2.211,0.197,0.142730,-0.150774,-0.059464,99913.19,+55,+21,+187
121765,2.403,-2.320,0.146,0.059188,-0.103416,-0.232399,99918.78,+55,+21,+187
121776,2.593,-2.503,0.154,-0.035527,-0.043819,-0.415445,99918.78,+55,+24,+184
121786,2.999,-2.577,0.294,-0.120133,0.024823,-0.608601,99919.01,+54,+23,+181
121795,3.455,-2.578,0.494,-0.159509,0.093997,-0.794839,99916.38,+56,+23,+187
121805,3.912,-2.838,0.667,-0.161637,0.162639,-0.960858,99919.26,+56,+26,+183
121816,4.371,-3.194,0.825,-0.147802,0.225960,-1.116766,99919.26,+56,+26,+183
121825,4.810,-3.529,1.038,-0.103637,0.272786,-1.251390,99919.26,+58,+25,+182
121835,5.336,-3.969,1.165,-0.033931,0.310034,-1.373243,99918.89,+60,+28,+187
121845,5.979,-4.324,1.215,0.042161,0.349410,-1.492967,99915.08,+61,+31,+183
121856,6.621,-4.285,1.332,0.135812,0.385593,-1.605775,99917.11,+61,+31,+183
121866,7.263,-4.325,1.342,0.247555,0.419648,-1.693573,99916.91,+64,+31,+182
121875,7.877,-4.648,1.373,0.346528,0.458492,-1.765940,99916.91,+67,+33,+187
121885,8.422,-5.006,1.358,0.379518,0.492547,-1.837242,99919.50,+69,+37,+182
121895,8.890,-5.230,1.280,0.340142,0.518621,-1.905352,99918.03,+69,+37,+182
121906,9.275,-5.241,1.333,0.279482,0.538841,-1.961224,99917.66,+71,+36,+181
121916,9.618,-5.047,1.294,0.211904,0.556400,-1.999004,99917.09,+76,+40,+186
121925,10.009,-4.954,1.188,0.148583,0.584070,-2.017627,99918.78,+79,+42,+181
121935,10.411,-5.245,1.097,0.064509,0.626107,-2.026674,99917.67,+79,+42,+181
121946,10.719,-5.348,0.968,-0.084481,0.676125,-2.038912,99917.67,+81,+41,+181
121955,10.944,-4.801,0.857,-0.255289,0.741042,-2.058068,99917.36,+87,+41,+185
121965,11.076,-4.101,0.672,-0.373417,0.819263,-2.070307,99919.41,+89,+42,+179
121975,10.403,-4.269,5.015,-0.412261,0.973042,-2.067114,99919.41,+89,+42,+179
121980,8.165,-7.309,18.239,-0.237197,1.378510,-2.041573,99918.88,+93,+40,+181
121991,14.992,-10.877,16.651,0.490197,1.289648,-1.624398,99915.89,+93,+40,+181
122000,34.514,-16.636,-3.137,1.430435,0.108896,-0.237720,99914.95,+99,+42,+183
122010,35.245,-9.251,-18.208,0.745610,-0.401397,-0.051482,99920.56,+97,+46,+177
122020,11.609,-0.595,-3.344,-0.505912,0.970382,-0.721940,99920.56,+97,+43,+178
122031,1.430,-0.128,4.773,-1.528095,1.141721,-0.471849,99919.11,+101,+43,+178
122041,4.887,2.395,4.466,-1.215747,0.640474,-0.116399,99917.86,+101,+39,+183
122050,5.961,-2.547,1.535,-0.098316,0.304180,-0.098308,99918.95,+101,+40,+176
122060,5.479,-4.589,2.050,0.821169,0.233942,-0.016895,99914.14,+101,+40,+178
122071,7.774,-4.956,3.738,0.849903,0.211593,0.128371,99914.14,+103,+42,+181
122081,9.478,-4.683,3.860,0.549261,0.238199,0.088995,99917.86,+103,+42,+181
122090,9.071,-4.992,3.577,0.139005,0.265336,0.004922,99918.17,+103,+44,+175
122100,8.838,-4.380,2.572,-0.263802,0.249373,-0.045629,99917.48,+103,+42,+179
122110,9.320,-2.745,1.628,-0.367564,0.249373,-0.048289,99918.33,+105,+42,+181
122121,9.682,-1.922,1.294,-0.118004,0.246712,0.036848,99918.33,+105,+42,+181
122130,9.717,-2.089,1.181,0.287463,0.227024,0.137949,99919.64,+105,+42,+176
122140,9.502,-3.257,1.530,0.506160,0.226492,0.198077,99916.55,+105,+42,+178
122150,9.480,-4.337,2.113,0.436454,0.233410,0.215105,99918.13,+108,+46,+181
122161,9.299,-4.405,3.035,0.270968,0.244584,0.212444,99917.81,+108,+46,+181
122170,8.680,-3.937,3.543,0.142730,0.228089,0.204995,99917.81,+107,+46,+175
122180,8.436,-3.608,3.309,0.074620,0.190841,0.211380,99918.60,+108,+44,+179
122190,8.976,-3.598,2.843,0.042693,0.156786,0.230536,99919.65,+110,+47,+181
122201,9.648,-3.567,2.414,-0.002004,0.138694,0.250224,99918.60,+110,+47,+181
122211,9.803,-3.544,2.192,-0.058408,0.149336,0.272041,99916.73,+108,+47,+175
122220,9.532,-3.836,2.069,-0.103637,0.156786,0.299178,99916.73,+110,+46,+179
122230,9.202,-4.083,2.185,-0.135032,0.157850,0.313545,99917.19,+112,+46,+181
122241,8.989,-3.958,2.393,-0.124922,0.156254,0.321527,99920.13,+112,+46,+181
122251,8.937,-3.769,2.665,-0.103637,0.147208,0.334298,99916.41,+110,+47,+176
122260,9.068,-3.858,2.915,0.002253,0.096125,0.363564,99917.03,+111,+44,+179
122270,9.374,-3.969,2.700,0.156032,0.050896,0.374738,99917.03,+112,+48,+180
122280,8.969,-4.479,2.360,0.168803,0.045575,0.364096,99918.50,+112,+48,+180
122291,8.669,-4.607,2.175,0.059720,0.065263,0.338554,99918.55,+111,+48,+174
122301,8.522,-4.483,2.214,-0.056812,0.098254,0.299178,99919.86,+111,+47,+180
122310,8.703,-4.465,2.259,-0.106298,0.114749,0.267252,99915.78,+112,+48,+180
122320,9.151,-4.510,2.251,-0.114279,0.101446,0.244371,99915.78,+112,+48,+180
122331,9.448,-4.395,2.125,-0.144078,0.102511,0.231068,99918.68,+110,+48,+174
122341,9.423,-4.648,2.148,-0.170151,0.109960,0.233197,99917.90,+113,+46,+181
122350,9.342,-4.775,1.996,-0.220169,0.109960,0.232665,99916.38,+112,+48,+180
122360,9.232,-4.503,2.137,-0.314885,0.122731,0.236389,99916.01,+112,+48,+180
122371,8.974,-4.093,2.498,-0.403215,0.135502,0.246499,99916.01,+111,+47,+175
122381,8.704,-3.918,2.824,-0.454830,0.131777,0.259270,99920.19,+112,+44,+181
122390,8.613,-3.859,3.011,-0.463343,0.107832,0.279490,99916.31,+112,+45,+180
122400,8.592,-3.717,3.137,-0.446848,0.076969,0.300775,99917.41,+112,+45,+180
122411,8.688,-3.693,3.168,-0.413325,0.039190,0.326848,99917.09,+112,+43,+176
122421,8.744,-3.872,3.003,-0.392041,0.012052,0.354518,99917.09,+112,+42,+181
122431,8.809,-3.894,2.869,-0.392041,-0.009232,0.380591,99916.88,+112,+42,+181
122440,8.800,-3.979,2.791,-0.399490,-0.027324,0.409325,99920.39,+112,+42,+181
122450,8.831,-3.939,2.692,-0.408891,-0.041868,0.453667,99915.41,+110,+41,+176
122461,8.785,-3.739,2.592,-0.402683,-0.049673,0.496059,99916.61,+112,+38,+183
122471,8.686,-3.628,2.611,-0.385123,-0.057122,0.550334,99916.61,+112,+41,+180
122480,8.631,-3.847,2.726,-0.344683,-0.067232,0.603013,99916.28,+112,+41,+180
122490,8.637,-4.192,2.697,-0.330316,-0.072021,0.648774,99918.48,+109,+39,+178
122501,8.580,-4.417,2.693,-0.357454,-0.060315,0.680169,99915.77,+112,+37,+183
122511,8.519,-4.415,2.702,-0.404811,-0.041159,0.699857,99917.59,+111,+38,+180
122520,8.534,-4.143,2.685,-0.435674,-0.033709,0.721673,99917.59,+111,+38,+180
122530,8.555,-3.677,2.967,-0.400554,-0.044884,0.761050,99919.99,+110,+37,+177
122541,8.412,-3.466,3.203,-0.293600,-0.078939,0.817453,99919.26,+111,+37,+183
122551,8.272,-3.526,3.503,-0.145674,-0.116186,0.882371,99917.95,+111,+38,+180
122561,8.132,-3.841,3.662,-0.021692,-0.159819,0.946224,99915.27,+109,+38,+177
122570,8.007,-4.559,3.649,0.060785,-0.200260,1.001563,99915.27,+109,+38,+177
122580,8.030,-5.555,3.128,0.072491,-0.224205,1.042004,99919.18,+111,+38,+182
122591,8.261,-6.306,2.339,-0.039252,-0.210902,1.054242,99916.04,+109,+40,+179
122601,8.697,-6.356,1.548,-0.234004,-0.175251,1.047325,99915.99,+108,+39,+176
122610,9.246,-5.899,0.939,-0.381399,-0.153434,1.043600,99916.82,+108,+39,+176
122620,9.655,-5.437,0.388,-0.385123,-0.172058,1.072866,99916.82,+110,+38,+182
122631,9.861,-5.242,0.198,-0.258481,-0.228462,1.129269,99918.05,+109,+40,+179
122641,9.846,-5.247,0.303,-0.072243,-0.290186,1.197912,99917.74,+107,+39,+177
122650,9.660,-5.375,0.861,0.114528,-0.334351,1.255379,99918.32,+107,+39,+177
122660,9.381,-5.737,1.466,0.228399,-0.389159,1.301673,99918.37,+108,+41,+182
122671,9.280,-6.067,1.891,0.262454,-0.420553,1.323490,99918.37,+106,+43,+178
122681,9.322,-6.362,2.144,0.193812,-0.424278,1.333600,99918.25,+105,+42,+178
122686,9.429,-6.538,2.215,0.075684,-0.416828,1.338389,99918.20,+105,+42,+178
122695,9.587,-6.696,2.076,-0.078096,-0.404590,1.335196,99918.20,+106,+43,+184
122705,9.890,-6.488,1.842,-0.260610,-0.383838,1.332003,99915.58,+106,+43,+184
122716,10.202,-6.152,1.743,-0.379802,-0.362021,1.336792,99914.38,+104,+44,+180
122726,10.620,-5.931,1.819,-0.437802,-0.357232,1.362334,99914.38,+102,+41,+179
122736,10.835,-6.025,1.861,-0.489949,-0.351379,1.398517,99919.13,+103,+40,+186
122745,11.020,-5.871,2.008,-0.597435,-0.325306,1.435765,99917.34,+101,+40,+186
122756,11.259,-5.745,2.235,-0.751215,-0.305617,1.470884,99916.30,+101,+41,+181
122766,11.756,-5.464,2.244,-0.923086,-0.301361,1.511856,99916.30,+101,+36,+180
122776,12.860,-5.006,2.160,-1.126884,-0.338076,1.550700,99916.30,+102,+34,+186
122785,14.765,-3.658,2.304,-1.271618,-0.447691,1.582627,99918.62,+101,+32,+181
122796,16.276,-2.579,1.954,-1.285453,-0.592957,1.638499,99918.99,+101,+32,+181
122806,16.484,-2.046,0.984,-1.261508,-0.691929,1.740664,99919.93,+99,+27,+181
122816,15.834,-1.955,0.274,-1.216811,-0.768553,1.889654,99918.15,+100,+23,+186
122826,15.318,-2.661,0.441,-0.994389,-0.895195,2.093984,99918.15,+99,+23,+181
122835,16.136,-4.152,1.656,-0.517087,-1.108571,2.415379,99917.59,+99,+23,+181
122846,17.454,-4.793,2.711,-0.035527,-1.302259,2.713360,99916.95,+99,+19,+182
122856,17.400,-6.775,3.376,0.279482,-1.366644,2.982608,99917.95,+99,+19,+188
122866,16.460,-7.923,4.008,0.244363,-1.331525,3.096479,99917.95,+99,+21,+183
122876,15.454,-6.859,5.447,0.160289,-1.226699,3.060828,99916.63,+99,+21,+183
122886,14.611,-4.506,6.165,0.231592,-1.120277,2.940571,99916.63,+101,+17,+184
122896,13.274,-2.125,6.590,0.422087,-1.001085,2.696865,99916.20,+103,+17,+188
122906,11.145,-0.562,5.797,0.525316,-0.856883,2.292461,99918.08,+103,+17,+183
122915,8.490,-1.334,2.901,0.345996,-0.737158,1.858260,99917.25,+103,+17,+183
122926,6.762,-4.251,-1.549,-0.073307,-0.777599,1.545379,99917.25,+106,+13,+184
122936,5.143,-9.898,2.533,-0.373949,-0.481214,1.531012,99916.26,+110,+9,+187
122946,6.711,-4.925,3.723,-0.855508,-0.330094,0.849912,99917.30,+112,+5,+180
122956,6.668,0.713,2.927,-1.157215,-0.226865,0.020885,99914.54,+112,+5,+180
122966,5.336,1.044,2.185,-1.075802,-0.218351,-0.223886,99913.38,+115,-3,+181
122976,4.574,0.704,1.475,-0.693215,-0.247617,-0.381922,99916.83,+118,-9,+184
122986,4.216,-0.033,1.451,-0.190371,-0.243361,-0.616583,99918.19,+118,-15,+177
122996,4.106,-0.670,1.541,0.239041,-0.239104,-0.912968,99916.09,+118,-15,+177
123005,4.147,-0.694,1.333,0.508289,-0.240700,-1.282784,99916.09,+121,-20,+179
123016,4.443,-0.137,0.654,0.641849,-0.246553,-1.647279,99914.98,+121,-23,+183
123026,4.730,-0.165,-0.119,0.752527,-0.262517,-1.944729,99914.98,+119,-29,+178
123036,4.865,-0.917,-0.356,0.919078,-0.219416,-2.211848,99916.01,+119,-29,+178
123045,5.344,-1.491,-0.431,0.971224,-0.179507,-2.475242,99913.65,+119,-33,+181
123056,5.658,-2.272,-0.665,0.916417,-0.159819,-2.734380,99912.65,+118,-38,+185
123066,5.795,-3.010,-0.694,0.879169,-0.120443,-2.978618,99912.29,+113,-44,+180
123076,6.052,-3.189,-0.259,0.859481,-0.057654,-3.226581,99912.29,+113,-44,+180
123086,6.250,-3.300,0.723,0.862142,0.021630,-3.462838,99912.39,+110,-52,+185
123096,6.606,-3.671,1.187,0.868527,0.071648,-3.665040,99911.31,+104,-57,+189
123106,7.102,-4.513,1.221,0.871720,0.116346,-3.858727,99909.64,+95,-63,+185
123116,7.726,-5.276,1.158,0.836601,0.181795,-4.060397,99909.64,+95,-63,+185
123126,8.261,-5.982,1.098,0.710491,0.266933,-4.229608,99909.64,+86,-69,+192
123136,8.536,-6.332,1.183,0.500839,0.369630,-4.349864,99914.10,+76,-73,+196
123146,8.736,-6.446,1.389,0.262454,0.474455,-4.456819,99910.96,+64,-78,+192
123156,9.238,-6.739,1.454,-0.022934,0.583538,-4.576898,99914.26,+64,-78,+192
123166,9.812,-6.718,1.535,-0.241454,0.677189,-4.693075,99914.26,+55,-83,+200
123175,10.475,-6.392,1.676,-0.371821,0.765519,-4.794176,99914.26,+42,-85,+204
123186,11.062,-6.118,1.679,-0.399490,0.826180,-4.852708,99915.34,+29,-85,+201
123196,11.311,-6.154,1.728,-0.369160,0.890565,-4.870268,99912.82,+29,-85,+201
123206,11.331,-6.660,1.707,-0.306371,0.960272,-4.866011,99914.79,+19,-86,+208
123216,11.429,-7.137,1.900,-0.222298,1.025721,-4.853240,99914.79,+7,-83,+212
123226,11.659,-7.091,2.165,-0.131307,1.053923,-4.835680,99914.15,-4,-77,+210
123236,11.994,-6.594,2.328,-0.042977,1.065097,-4.806415,99914.15,-4,-77,+210
123246,12.339,-6.402,2.360,0.044821,1.077868,-4.753736,99915.45,-12,-71,+218
123256,12.469,-6.700,2.313,0.113464,1.105006,-4.666470,99917.07,-20,-62,+221
123266,12.500,-7.200,2.034,0.121977,1.128418,-4.555259,99914.46,-26,-48,+219
123276,12.442,-7.622,1.741,0.083665,1.142785,-4.429681,99914.46,-27,-38,+226
123286,12.374,-7.775,1.782,0.028326,1.159813,-4.294525,99916.78,-27,-38,+226
123296,12.326,-7.831,1.881,-0.024885,1.181629,-4.135956,99915.31,-26,-26,+228
123307,12.206,-8.007,1.786,-0.074371,1.209831,-3.943333,99915.05,-23,-17,+224
123316,12.223,-8.097,1.372,-0.149399,1.214620,-3.720379,99912.95,-17,-11,+228
123326,12.249,-8.280,0.914,-0.207931,1.183758,-3.474012,99917.96,-17,-11,+228
123336,11.854,-8.831,0.728,-0.197289,1.108730,-3.183480,99916.71,-14,-5,+230
123346,11.126,-9.367,0.527,-0.120665,0.998051,-2.821113,99916.76,-10,+0,+224
123356,10.285,-10.149,0.359,0.027794,0.875666,-2.400214,99916.76,-5,+3,+229
123366,9.382,-11.082,-0.111,0.166142,0.720290,-1.910141,99914.82,-5,+3,+229
123376,8.465,-12.017,-0.374,0.311940,0.550547,-1.318967,99914.82,+0,+9,+228
123386,7.870,-13.169,-0.617,0.450821,0.357923,-0.658619,99919.50,+1,+14,+222
123396,7.279,-14.315,-0.984,0.541812,0.157850,0.033656,99917.81,+5,+15,+227
123406,6.674,-15.018,-0.972,0.582784,-0.022535,0.699325,99917.66,+5,+15,+227
123416,6.338,-14.353,0.388,0.584913,-0.163012,1.245801,99919.03,+7,+19,+226
123426,6.952,-12.898,2.848,0.560436,-0.235379,1.626792,99919.03,+9,+23,+220
123437,8.531,-10.236,10.916,0.546601,-0.091709,1.885397,99917.70,+13,+23,+225
123446,17.658,-1.421,8.112,-0.284022,0.002474,1.731086,99915.11,+13,+23,+225
123456,29.996,3.691,-7.134,-1.429123,-0.644039,1.819416,99920.56,+13,+22,+223
123466,27.453,-6.587,-2.955,-0.417582,-0.645636,2.866076,99920.56,+14,+19,+218
123475,21.047,-13.167,1.809,0.617371,-0.396608,3.765341,99920.56,+17,+18,+223
123486,11.988,-7.966,0.978,0.273629,-0.328498,3.641892,99917.68,+17,+18,+223
123496,2.429,2.447,2.917,-0.148867,-0.238572,3.183745,99919.15,+17,+18,+223
123506,-1.158,5.190,4.837,0.319390,-0.364150,2.959727,99918.15,+18,+18,+217
123516,2.240,-0.755,4.965,1.127665,-0.524847,2.793709,99915.90,+21,+18,+223
123526,8.587,-6.299,3.168,1.344233,-0.602003,2.610663,99915.90,+21,+18,+223
123536,12.158,-9.978,2.045,0.916949,-0.551452,2.508498,99919.93,+20,+24,+221
123546,13.347,-11.015,1.027,0.383775,-0.441305,2.438792,99919.98,+19,+25,+216
123556,12.342,-7.652,0.951,0.009702,-0.331159,2.177526,99918.34,+21,+23,+222
123567,8.744,-4.404,1.294,-0.121729,-0.191746,1.857196,99918.34,+21,+23,+222
123576,7.367,-3.530,0.908,-0.071179,-0.186425,1.767269,99921.42,+22,+24,+219
123586,8.157,-4.042,0.592,0.030987,-0.179507,1.727893,99921.42,+22,+23,+215
123596,9.805,-4.242,-0.264,-0.214316,-0.095434,1.688517,99920.06,+24,+20,+221
123607,10.119,-4.978,-0.051,-0.485692,0.076437,1.614021,99918.22,+24,+20,+221
123616,9.686,-5.232,0.863,-0.634683,0.225428,1.474077,99915.66,+24,+21,+218
123626,8.765,-5.128,1.591,-0.633087,0.346749,1.270279,99915.66,+26,+17,+215
123636,8.394,-5.271,2.022,-0.658096,0.398896,1.119159,99918.92,+29,+14,+221
123646,8.709,-4.923,1.837,-0.754408,0.437208,0.978682,99919.81,+29,+14,+221
123657,9.424,-4.328,1.705,-0.865086,0.476052,0.848316,99917.50,+30,+13,+218
123666,9.824,-3.682,2.328,-0.914040,0.492547,0.750939,99917.66,+32,+10,+215
123676,9.778,-3.111,2.991,-0.847527,0.474988,0.698793,99919.83,+34,+6,+221
123686,9.675,-3.004,3.221,-0.729930,0.412199,0.681233,99919.78,+34,+6,+221
123697,9.388,-3.045,3.128,-0.614995,0.344621,0.672719,99918.84,+34,+5,+218
123706,9.121,-3.233,2.731,-0.533050,0.295134,0.675912,99918.84,+37,+3,+216
123716,9.341,-3.270,2.509,-0.511233,0.255758,0.680701,99916.95,+39,+0,+221
123726,9.491,-3.343,2.763,-0.508573,0.234474,0.682297,99916.95,+39,+0,+221
123737,9.277,-3.489,3.064,-0.539967,0.222235,0.690811,99919.13,+37,+1,+217
123746,8.805,-3.381,3.119,-0.591582,0.215318,0.706774,99917.83,+40,-1,+216
123756,8.356,-3.301,3.162,-0.614995,0.209465,0.729123,99918.72,+42,-4,+221
123766,8.198,-3.178,3.207,-0.588389,0.189777,0.748811,99917.83,+41,-3,+215
123777,8.267,-3.119,3.289,-0.571894,0.174346,0.770627,99917.83,+41,-3,+215
123787,8.386,-3.269,3.240,-0.572958,0.163703,0.806279,99919.27,+43,-6,+213
123796,8.641,-3.471,3.182,-0.607545,0.143483,0.855233,99918.80,+46,-9,+220
123806,8.943,-3.246,3.085,-0.664481,0.117410,0.906848,99916.44,+45,-9,+214
123816,9.086,-2.951,3.102,-0.686297,0.098786,0.971765,99916.44,+45,-9,+214
123826,8.877,-3.101,3.201,-0.652242,0.077502,1.057435,99916.44,+47,-11,+213
123836,8.605,-3.500,3.114,-0.610206,0.057813,1.148425,99919.81,+49,-15,+218
123846,8.520,-3.501,2.994,-0.593710,0.048236,1.220792,99918.08,+49,-14,+213
123856,8.590,-3.018,3.306,-0.556463,0.030144,1.291031,99916.03,+49,-14,+213
123862,8.600,-2.497,3.826,-0.487288,-0.004975,1.351159,99918.14,+51,-16,+212
123871,8.422,-2.484,4.153,-0.383527,-0.067764,1.436297,99918.14,+51,-16,+212
123881,8.103,-4.101,3.751,-0.202078,-0.159287,1.578902,99919.64,+54,-19,+216
123891,8.352,-6.360,2.436,-0.113215,-0.238040,1.673086,99916.44,+51,-16,+211
123901,9.031,-7.063,0.977,-0.239857,-0.258792,1.683196,99917.86,+55,-18,+211
123912,9.834,-6.732,0.063,-0.469729,-0.260388,1.664040,99917.81,+55,-18,+211
123921,10.823,-5.843,0.002,-0.605417,-0.267306,1.680535,99917.81,+56,-19,+215
123931,11.692,-5.181,0.513,-0.576151,-0.284333,1.742260,99919.59,+56,-19,+209
123941,12.578,-5.290,0.887,-0.466536,-0.345526,1.869966,99918.34,+59,-21,+209
123952,13.055,-5.366,1.434,-0.405343,-0.410975,2.008315,99919.90,+59,-21,+209
123961,12.712,-6.098,2.071,-0.435142,-0.450351,2.131764,99916.71,+60,-23,+213
123971,12.599,-6.442,2.114,-0.542096,-0.489727,2.229672,99916.71,+59,-22,+207
123981,12.799,-6.154,2.259,-0.712371,-0.507819,2.283416,99920.08,+63,-26,+208
123992,13.499,-6.031,2.281,-0.873068,-0.540810,2.339287,99918.14,+63,-26,+208
124001,14.326,-5.901,2.453,-0.984811,-0.544003,2.408993,99918.34,+65,-28,+213
124011,15.045,-5.590,2.330,-1.114114,-0.514737,2.464333,99917.88,+65,-30,+206
124021,15.731,-5.437,2.193,-1.270554,-0.475360,2.515415,99917.88,+69,-35,+206
124032,16.733,-5.272,1.654,-1.509471,-0.458333,2.547874,99919.42,+72,-40,+210
124042,18.877,-4.342,1.771,-1.890994,-0.487599,2.493067,99919.67,+72,-40,+210
124051,21.607,-2.042,2.457,-2.307104,-0.573269,2.374938,99916.80,+73,-44,+202
124061,22.372,0.455,3.225,-2.525801,-0.669581,2.262663,99915.39,+78,-52,+202
124071,19.970,1.566,3.094,-2.348076,-0.805269,2.141342,99915.39,+80,-60,+203
124082,16.724,-1.135,3.077,-1.615893,-0.994168,2.131232,99918.06,+80,-60,+203
124091,15.661,-5.609,4.061,-0.712371,-1.176681,2.414315,99919.02,+80,-61,+196
124101,16.341,-7.540,5.371,-0.266995,-1.214993,2.585654,99918.22,+86,-64,+200
124111,16.574,-5.810,6.975,-0.273380,-1.137837,2.473379,99915.50,+87,-66,+203
124122,16.099,-2.719,7.663,-0.227087,-1.101122,2.323324,99915.50,+87,-66,+203
124131,14.929,0.249,6.759,0.206583,-1.118149,2.141874,99916.77,+88,-66,+198
124141,12.303,1.765,5.076,0.528509,-1.050039,1.801324,99917.77,+92,-69,+202
124151,8.949,2.246,2.474,0.477959,-1.035672,1.349031,99917.25,+91,-71,+205
124162,3.030,-4.518,3.658,0.628014,-0.880828,1.312315,99914.05,+91,-71,+205
124171,6.752,-7.951,5.394,0.948876,-0.773874,1.416609,99914.05,+89,-70,+200
124181,8.542,-1.446,4.897,0.911628,-0.615837,0.292793,99918.64,+91,-73,+207
124191,6.754,2.456,4.644,0.809995,-0.431727,-0.465996,99916.80,+87,-77,+210
124201,5.161,3.491,4.185,0.748803,-0.375324,-0.637867,99918.06,+87,-77,+210
124212,4.492,2.428,2.921,0.985591,-0.314131,-0.909775,99914.23,+81,-77,+207
124221,4.457,0.229,2.328,1.152674,-0.211434,-1.206692,99914.23,+79,-81,+213
124231,4.440,-1.559,1.852,1.024968,-0.112462,-1.519041,99916.16,+72,-83,+218
124241,4.655,-1.913,1.291,0.654619,-0.005508,-1.918655,99916.89,+72,-83,+218
124252,5.066,-1.143,0.831,0.234785,0.106768,-2.321994,99918.25,+64,-84,+212
124261,5.495,-0.498,0.182,-0.050958,0.210529,-2.700325,99913.13,+59,-89,+219
124271,5.938,-0.269,-0.257,-0.218573,0.291942,-3.035554,99913.13,+48,-93,+220
124281,6.577,-0.276,-0.786,-0.252628,0.347281,-3.309058,99911.58,+48,-93,+220
124292,7.328,-0.510,-1.203,-0.157912,0.399960,-3.556489,99912.25,+39,-95,+215
124302,8.008,-0.751,-1.213,0.007574,0.448914,-3.769333,99912.00,+30,-97,+222
124311,8.465,-0.926,-0.874,0.246491,0.479777,-3.967278,99913.72,+19,-97,+225
124321,8.720,-1.090,-0.457,0.563628,0.494144,-4.142342,99913.72,+19,-97,+225
124332,8.850,-1.709,0.116,0.911096,0.501061,-4.288672,99912.31,+9,-93,+223
124342,9.042,-2.674,0.392,1.178747,0.486694,-4.401479,99913.11,+0,-92,+232
124351,9.262,-3.800,0.716,1.309646,0.493079,-4.512158,99912.63,-10,-85,+236
124361,9.666,-4.632,1.085,1.288362,0.517024,-4.656892,99910.53,-10,-85,+236
124371,10.318,-5.186,1.355,1.152674,0.559061,-4.815461,99910.53,-19,-79,+234
124382,11.070,-5.502,1.503,0.978674,0.621850,-4.961791,99915.16,-29,-73,+245
124391,11.619,-5.777,1.524,0.781793,0.697942,-5.078855,99913.07,-39,-63,+248
124401,11.964,-6.253,1.552,0.590234,0.793189,-5.163992,99911.45,-39,-63,+248
124411,12.253,-6.730,1.620,0.441243,0.899611,-5.220928,99914.32,-48,-58,+246
124422,12.672,-6.575,1.778,0.398674,0.977299,-5.262965,99914.32,-56,-52,+257
124432,13.081,-6.592,1.767,0.484876,1.021464,-5.268818,99918.50,-65,-40,+259
124441,13.381,-7.369,1.632,0.644509,1.047006,-5.248066,99914.16,-65,-40,+259
124451,13.572,-8.379,1.087,0.712087,1.040620,-5.234763,99914.78,-73,-29,+260
124462,13.765,-9.098,0.691,0.659408,1.027850,-5.199111,99912.11,-78,-17,+270
124472,14.136,-9.714,0.704,0.563628,1.010290,-5.116634,99912.11,-81,+0,+270
124481,14.589,-10.514,1.310,0.427408,0.984217,-4.977754,99913.71,-85,+0,+270
124491,14.405,-12.390,2.755,0.302895,0.941116,-4.757993,99915.43,-85,+15,+270
124502,13.459,-15.086,4.060,0.241702,0.912914,-4.407332,99918.26,-84,+30,+275
124512,11.931,-17.990,4.888,0.183702,1.007630,-3.967810,99914.29,-80,+47,+272
124521,9.749,-20.050,3.968,0.035776,1.165666,-3.460709,99914.29,-75,+56,+268
124531,8.339,-21.383,1.954,-0.278169,1.286987,-2.804086,99918.45,-75,+56,+268
124541,7.670,-22.723,-0.300,-0.690554,1.260914,-1.997940,99921.32,-67,+62,+275
124552,7.068,-23.763,-1.974,-1.059306,1.050730,-1.139114,99918.13,-60,+65,+271
124562,6.031,-23.820,-2.779,-1.223196,0.683575,-0.260601,99918.71,-58,+60,+268
124571,5.264,-21.583,-0.707,-1.044939,0.293006,0.642921,99918.71,-58,+60,+268
124581,6.359,-16.995,1.539,-0.476114,-0.031581,1.382554,99921.46,-56,+58,+273
124592,7.078,-11.788,10.238,0.378454,-0.237507,1.897636,99922.09,-56,+59,+269
124602,15.831,2.061,12.224,0.589702,-0.338076,1.799196,99915.70,-59,+58,+267
124611,36.544,13.996,-12.669,-0.459087,-1.426773,1.551765,99917.79,-59,+58,+267
124621,33.628,-10.630,-7.758,1.471940,-1.417195,3.253452,99917.79,-64,+54,+268
124632,21.942,-21.807,-1.293,2.699517,-0.834535,4.226681,99923.10,-66,+61,+260
124642,9.775,-13.636,-1.655,1.201096,-0.456737,3.524827,99921.63,-69,+58,+259
124651,0.699,-1.868,0.318,0.126234,-0.282205,3.115635,99920.02,-69,+58,+259
124661,-1.227,0.328,2.794,0.350784,-0.363617,2.818186,99915.88,-68,+54,+264
124672,4.268,-4.020,5.199,0.829151,-0.361489,2.539360,99915.88,-69,+54,+257
124682,10.549,-9.842,4.820,0.744546,-0.430663,2.569159,99919.02,-72,+50,+255
124692,14.816,-10.930,1.924,0.104950,-0.538682,2.605874,99915.30,-72,+50,+255
124701,12.664,-8.097,1.206,-0.538903,-0.370535,2.294590,99919.55,-72,+46,+260
124711,8.886,-5.032,1.521,-0.812407,-0.205581,1.997140,99915.77,-74,+41,+254
124722,7.512,-2.727,1.770,-0.688958,-0.178443,1.856663,99915.77,-75,+33,+254
124732,7.469,-1.654,1.456,-0.266463,-0.160884,1.750242,99920.79,-75,+33,+254
124741,8.431,-2.656,1.134,0.134748,-0.128425,1.719911,99917.76,-74,+31,+257
124751,9.704,-4.253,0.965,0.282674,-0.062975,1.703948,99918.54,-74,+30,+253
124762,10.076,-4.929,1.175,0.102289,0.031208,1.632113,99920.43,-74,+26,+254
124772,9.828,-4.211,1.620,-0.272848,0.094529,1.543783,99920.43,-74,+26,+254
124781,8.919,-3.879,2.023,-0.513362,0.120070,1.409159,99921.28,-73,+24,+258
124791,8.827,-4.006,1.631,-0.602224,0.112621,1.274003,99920.50,-72,+20,+252
124802,9.291,-3.481,1.716,-0.603288,0.140291,1.125013,99918.94,-72,+14,+254
124812,9.603,-3.422,1.925,-0.604353,0.159979,1.063288,99918.41,-72,+14,+254
124821,9.669,-3.204,1.900,-0.577747,0.165832,1.034554,99918.41,-69,+12,+257
124831,9.420,-2.991,1.755,-0.533050,0.190309,1.022315,99921.14,-70,+9,+252
124841,9.473,-2.965,1.768,-0.534646,0.214786,1.040939,99918.11,-69,+2,+254
124852,9.489,-3.310,2.028,-0.548481,0.236602,1.065416,99917.42,-69,+2,+254
124862,9.254,-3.128,2.897,-0.515490,0.255226,1.081912,99914.91,-65,+2,+258
124871,8.812,-2.553,3.939,-0.399490,0.229153,1.100003,99914.91,-65,+0,+252
124881,8.123,-2.374,4.482,-0.191967,0.168492,1.136187,99920.81,-64,-5,+255
124892,7.500,-3.137,4.257,0.047482,0.090272,1.168646,99919.34,-64,-5,+255
124902,7.456,-4.418,3.206,0.127831,-0.008168,1.177159,99918.03,-61,-5,+257
124912,7.783,-5.209,1.998,0.030454,-0.059251,1.157471,99916.94,-62,-6,+252
124921,8.408,-4.978,1.263,-0.124922,-0.057122,1.129802,99916.94,-62,-11,+254
124932,9.072,-4.415,1.182,-0.221234,-0.052865,1.121820,99921.15,-62,-11,+254
124942,9.424,-4.128,1.559,-0.223362,-0.065104,1.151618,99918.41,-60,-11,+257
124952,9.633,-4.219,1.865,-0.164830,-0.075746,1.204297,99916.54,-60,-13,+251
124961,9.722,-4.637,2.119,-0.136628,-0.074150,1.248994,99919.73,-59,-17,+254
124972,9.712,-5.044,2.495,-0.212188,-0.068829,1.281985,99919.73,-56,-17,+254
124982,9.688,-5.196,2.881,-0.369692,-0.040095,1.310187,99920.70,-56,-18,+256
124992,9.639,-4.992,3.076,-0.525600,-0.001251,1.338389,99918.87,-57,-22,+250
125001,9.603,-4.893,2.791,-0.625637,0.014713,1.386279,99916.62,-55,-27,+253
125011,9.872,-4.905,2.351,-0.678848,0.015777,1.452260,99916.51,-52,-30,+254
125022,10.502,-5.024,1.821,-0.729398,-0.006040,1.533141,99916.51,-52,-30,+254
125032,11.156,-5.268,1.674,-0.788463,-0.039563,1.619343,99919.75,-53,-34,+247
125037,11.770,-5.221,1.542,-0.824646,-0.075214,1.693838,99920.89,-53,-34,+247
125046,12.302,-5.242,1.522,-0.853912,-0.115122,1.777379,99920.89,-49,-41,+251
125057,12.957,-5.347,1.626,-0.878921,-0.170462,1.904553,99921.53,-46,-44,+251
125067,13.635,-5.311,1.656,-0.913508,-0.235379,2.033324,99917.91,-46,-50,+243
125077,13.815,-5.425,1.663,-0.989068,-0.285397,2.146663,99917.91,-46,-50,+243
125087,13.599,-5.499,1.530,-1.090701,-0.322113,2.255214,99919.79,-42,-58,+246
125096,13.441,-5.383,1.446,-1.210426,-0.359893,2.340351,99919.37,-39,-62,+245
125107,14.063,-4.935,1.838,-1.350903,-0.396608,2.415911,99916.38,-37,-69,+236
125117,14.731,-4.300,2.956,-1.513196,-0.405122,2.492535,99916.38,-37,-69,+236
125126,15.065,-4.162,3.654,-1.651012,-0.390223,2.575544,99916.38,-32,-77,+237
125136,15.591,-3.792,3.823,-1.895783,-0.334883,2.625562,99920.02,-28,-82,+234
125147,16.954,-2.882,3.983,-2.311893,-0.288590,2.643654,99918.45,-24,-92,+225
125157,19.350,-0.802,4.270,-2.760461,-0.356168,2.592039,99917.66,-24,-92,+225
125167,21.974,2.202,4.675,-3.004700,-0.547727,2.449434,99920.18,-17,-103,+225
125177,23.331,2.339,4.451,-2.652443,-0.860076,2.478700,99920.18,-13,-110,+217
125187,23.467,-1.308,4.195,-1.748389,-1.228296,2.879379,99918.13,-11,-116,+207
125197,22.283,-4.668,4.631,-0.841673,-1.442204,3.301874,99917.28,-3,-120,+209
125207,20.025,-3.725,5.409,-0.344683,-1.526809,3.263562,99915.61,-3,-120,+209
125217,17.428,-2.000,6.897,0.076216,-1.535855,3.113507,99915.61,+0,-118,+207
125227,16.423,-1.485,7.070,0.567353,-1.517763,3.071470,99917.62,+2,-118,+202
125237,15.239,0.228,6.982,1.130857,-1.396975,2.771360,99917.62,+8,-116,+208
125247,12.850,2.588,5.371,1.407022,-1.282571,2.086003,99916.41,+8,-116,+208
125257,5.825,-1.579,2.861,1.443738,-1.177213,1.590077,99917.93,+9,-109,+208
125266,3.350,-10.273,3.801,1.231958,-0.971819,1.906150,99918.35,+12,-107,+205
125273,8.057,-6.155,4.399,0.863206,-0.911690,1.238352,99918.35,+12,-107,+205
125282,8.546,-0.494,4.649,0.668986,-0.664259,0.170408,99919.35,+13,-105,+211
125292,6.106,2.312,4.205,0.571610,-0.448755,-0.503243,99916.95,+12,-101,+209
125302,3.944,1.592,3.175,0.422619,-0.397140,-0.709702,99916.57,+12,-101,+209
125312,3.259,0.207,1.905,0.371537,-0.313599,-1.117830,99917.26,+8,-100,+204
125322,3.708,-1.066,1.324,0.296509,-0.199196,-1.532876,99917.26,+8,-99,+210
125332,4.015,-1.375,0.628,0.127831,-0.122572,-1.927701,99918.27,+3,-96,+205
125342,4.170,-1.370,0.014,0.009170,-0.030517,-2.329976,99914.66,+3,-96,+205
125351,4.591,-0.994,-0.419,0.054399,0.068988,-2.724802,99913.55,-2,-96,+202
125362,5.203,-0.519,-0.641,0.232656,0.145079,-3.075462,99914.17,-6,-95,+207
125372,5.854,-0.346,-0.864,0.484344,0.181795,-3.365462,99914.17,-14,-91,+204
125382,6.577,-0.427,-1.021,0.741353,0.192969,-3.616617,99912.30,-14,-91,+204
125391,6.940,-0.524,-0.663,1.006344,0.207868,-3.832122,99909.94,-21,-87,+201
125402,7.167,-0.524,0.028,1.217059,0.213190,-4.046030,99906.38,-29,-80,+209
125412,7.343,-0.621,0.656,1.469279,0.223832,-4.247167,99908.67,-37,-69,+205
125422,7.657,-1.303,0.902,1.745444,0.230749,-4.402544,99908.67,-37,-69,+205
125432,7.797,-2.670,0.954,1.964141,0.231813,-4.515882,99911.62,-46,-58,+205
125442,8.065,-3.763,1.147,2.049279,0.257887,-4.636139,99909.84,-53,-45,+213
125452,8.744,-4.309,1.365,1.987554,0.295134,-4.806947,99910.57,-59,-30,+210
125462,9.667,-4.569,1.346,1.770453,0.330254,-5.005424,99910.10,-65,-15,+211
125472,10.760,-4.989,1.238,1.494288,0.370694,-5.195387,99910.10,-65,-15,+211
125481,11.795,-5.640,1.142,1.192050,0.419116,-5.351295,99913.63,-67,+1,+218
125492,12.605,-6.442,0.989,0.904179,0.478712,-5.485387,99914.94,-68,+18,+213
125502,13.165,-7.155,0.952,0.640252,0.545758,-5.598726,99912.69,-68,+34,+214
125512,13.438,-7.482,1.059,0.427940,0.597373,-5.680139,99912.22,-68,+34,+214
125521,13.565,-7.950,1.223,0.348124,0.629831,-5.697166,99912.22,-62,+52,+222
125532,13.890,-8.577,1.087,0.368876,0.622382,-5.666304,99911.71,-53,+69,+218
125542,14.454,-9.399,1.069,0.463592,0.584602,-5.582763,99914.85,-44,+85,+220
125552,14.992,-10.598,1.116,0.605133,0.522345,-5.421534,99915.05,-44,+85,+220
125562,14.976,-12.002,1.227,0.658876,0.451575,-5.195919,99914.59,-28,+96,+227
125572,14.034,-12.666,1.633,0.537023,0.413795,-4.936249,99914.59,-14,+107,+223
125582,12.736,-12.745,2.820,0.355041,0.468602,-4.634543,99918.16,-1,+114,+225
125592,11.957,-13.314,3.398,0.177317,0.594180,-4.282287,99916.01,-1,+114,+225
125602,11.210,-15.345,3.391,-0.004665,0.793721,-3.919388,99916.23,+12,+116,+232
125612,10.330,-17.632,2.409,-0.294665,0.996987,-3.569260,99914.65,+25,+118,+228
125622,9.220,-18.206,0.614,-0.800701,1.134804,-3.126544,99914.65,+37,+116,+230
125632,8.765,-18.053,-0.416,-1.252462,1.134804,-2.484288,99921.13,+37,+116,+230
125642,7.498,-18.996,-0.354,-1.584499,0.971446,-1.721775,99921.59,+49,+111,+237
125651,6.434,-19.146,0.045,-1.728168,0.724547,-0.982674,99921.64,+56,+108,+233
125662,6.077,-18.618,0.434,-1.549912,0.438804,-0.207922,99921.06,+62,+103,+235
125672,5.889,-17.726,1.434,-0.991728,0.157318,0.634407,99921.06,+62,+103,+235
125682,6.699,-16.298,3.777,-0.378738,-0.061911,1.359141,99918.44,+67,+100,+241
125692,8.713,-10.074,11.743,0.111335,-0.098095,1.700223,99919.16,+69,+104,+235
125702,15.469,-3.719,11.510,-0.099912,-0.114058,1.626792,99916.39,+71,+104,+237
125712,33.772,1.073,-10.983,-1.229049,-1.274589,2.099838,99920.00,+71,+104,+237
125722,32.316,-8.515,-6.316,-0.085546,-1.191048,3.179488,99920.00,+69,+102,+243
125732,19.681,-12.700,1.238,1.051041,-0.508351,3.808974,99920.61,+67,+108,+236
125743,10.281,-9.023,1.293,0.719537,-0.348364,3.847463,99920.36,+67,+110,+238
125752,1.962,-1.903,1.725,0.503500,-0.355636,3.566332,99917.31,+67,+110,+238
125762,-1.255,0.525,4.549,0.994637,-0.390223,3.162461,99919.47,+65,+111,+240
125772,2.738,-6.207,6.073,1.549628,-0.391287,3.031562,99919.47,+62,+118,+233
125783,10.139,-11.959,3.544,1.468215,-0.620094,3.046461,99920.84,+60,+124,+234
125792,13.313,-12.160,1.048,0.719537,-0.666388,2.785195,99921.42,+60,+124,+234
125802,12.123,-9.208,1.065,-0.120665,-0.461526,2.349929,99918.17,+59,+125,+237
125812,10.316,-6.697,0.514,-0.496866,-0.371599,2.123783,99919.42,+54,+126,+231
125822,9.201,-4.768,0.367,-0.433013,-0.304021,1.972663,99919.42,+53,+122,+234
125832,8.137,-3.763,0.151,-0.251032,-0.218351,1.832719,99920.13,+53,+122,+234
125842,7.898,-4.002,0.091,-0.085013,-0.135342,1.743856,99919.55,+53,+122,+238
125852,8.949,-4.494,0.101,-0.060004,-0.026792,1.637966,99919.66,+50,+122,+231
125862,9.654,-5.097,0.331,-0.164830,0.114217,1.480462,99919.02,+50,+122,+236
125872,9.624,-5.250,1.000,-0.361710,0.277043,1.325618,99919.02,+50,+122,+236
125882,9.404,-4.830,1.600,-0.608609,0.388786,1.146829,99918.99,+51,+120,+238
125892,9.415,-4.360,1.815,-0.782609,0.432419,0.988260,99918.99,+49,+118,+234
125902,9.812,-3.856,2.093,-0.842738,0.444657,0.870132,99916.95,+51,+116,+239
125912,10.093,-3.416,2.470,-0.787930,0.429226,0.800426,99916.27,+51,+116,+239
125922,9.885,-3.194,2.700,-0.668738,0.391446,0.773288,99916.27,+53,+112,+241
125932,9.392,-3.176,2.646,-0.543160,0.350474,0.762646,99920.14,+51,+111,+236
125942,8.819,-3.378,2.610,-0.470261,0.328125,0.747747,99920.61,+53,+108,+240
125953,8.640,-3.675,2.707,-0.483032,0.316951,0.727527,99918.45,+54,+106,+242
125962,8.890,-3.745,2.756,-0.558059,0.307373,0.706774,99920.30,+54,+106,+242
125972,8.890,-3.579,2.973,-0.647986,0.304712,0.699325,99920.30,+53,+106,+238
125982,8.720,-3.222,3.173,-0.685765,0.306309,0.712095,99919.70,+55,+102,+243
125992,8.543,-2.904,3.389,-0.658628,0.304712,0.741361,99918.18,+56,+100,+244
126002,8.499,-2.567,3.729,-0.580408,0.280768,0.779141,99917.82,+56,+100,+244
126012,8.350,-2.429,4.081,-0.489417,0.219043,0.832884,99917.55,+55,+100,+239
126022,8.133,-2.759,4.157,-0.402151,0.142951,0.899930,99917.55,+56,+98,+244
126032,7.918,-2.960,4.074,-0.345747,0.068456,0.962719,99919.13,+58,+96,+244
126043,7.670,-2.881,3.806,-0.301582,0.037593,1.023912,99920.87,+58,+96,+244
126052,7.568,-3.074,3.537,-0.272316,0.030144,1.091490,99916.84,+56,+96,+239
126062,7.653,-3.603,3.110,-0.238793,0.005135,1.171838,99917.10,+56,+96,+244
126072,7.841,-4.023,2.511,-0.208463,-0.038498,1.252187,99917.10,+56,+96,+243
126083,8.078,-4.472,1.930,-0.211123,-0.089581,1.313912,99922.81,+56,+96,+243
126092,8.616,-4.884,1.298,-0.256353,-0.136407,1.359141,99919.83,+55,+97,+239
126102,9.406,-4.963,0.739,-0.324995,-0.175251,1.400645,99918.16,+56,+95,+244
126112,10.256,-4.826,0.452,-0.368096,-0.222608,1.448003,99918.36,+54,+95,+243
126123,10.778,-4.909,0.719,-0.339362,-0.259324,1.517177,99918.36,+54,+95,+243
126132,10.808,-5.505,1.230,-0.290408,-0.259856,1.595930,99920.47,+51,+95,+239
126142,10.769,-6.243,1.423,-0.351600,-0.236975,1.645416,99919.83,+52,+93,+244
126152,11.026,-6.499,1.821,-0.541031,-0.187489,1.668297,99921.52,+51,+92,+244
126162,11.682,-6.599,2.010,-0.798573,-0.153966,1.691177,99917.84,+51,+92,+244
126172,12.250,-6.322,1.875,-1.022591,-0.139067,1.726297,99917.84,+48,+90,+240
126182,12.550,-5.685,1.885,-1.132738,-0.150774,1.784297,99919.71,+50,+85,+246
126192,12.899,-5.382,1.689,-1.125820,-0.203452,1.877948,99919.55,+48,+81,+244
126202,13.672,-5.340,1.596,-1.085380,-0.281140,1.991287,99919.13,+48,+81,+244
126213,14.699,-5.144,1.795,-1.060548,-0.386676,2.126266,99919.20,+46,+77,+241
126222,15.224,-4.892,2.543,-1.081655,-0.465250,2.236590,99919.20,+47,+72,+247
126232,15.649,-4.459,3.504,-1.133802,-0.514205,2.362700,99922.20,+46,+67,+245
126242,15.883,-4.316,4.333,-1.282260,-0.512076,2.489342,99919.33,+46,+67,+245
126253,15.976,-4.443,4.821,-1.584499,-0.440773,2.589911,99917.33,+45,+63,+241
126262,16.478,-4.492,5.102,-2.051159,-0.309874,2.644186,99915.77,+48,+55,+246
126272,18.235,-3.684,5.351,-2.714700,-0.208773,2.619709,99915.77,+49,+46,+243
126282,20.710,-1.168,6.177,-3.420277,-0.179507,2.518076,99917.34,+49,+46,+243
126292,21.306,2.786,6.602,-3.756571,-0.218351,2.399415,99919.16,+50,+33,+240
126303,20.389,3.642,6.532,-3.229250,-0.463654,2.426553,99919.85,+55,+21,+244
126312,19.981,-0.117,5.276,-2.060205,-0.888810,2.853837,99918.74,+58,+16,+241
126322,19.229,-4.456,3.538,-1.074738,-1.157525,3.241745,99918.74,+58,+16,+241
126332,18.160,-5.146,3.570,-0.767710,-1.228828,3.101268,99917.00,+59,+14,+237
126343,17.240,-3.544,5.723,-0.564976,-1.224039,2.896406,99918.89,+64,+11,+243
126352,16.919,-0.621,6.927,-0.027013,-1.270864,2.778278,99916.59,+65,+14,+239
126362,14.629,3.584,6.770,0.728582,-1.207011,2.356315,99917.58,+65,+14,+239
126372,9.826,5.002,4.709,1.367114,-1.231488,1.669361,99917.58,+68,+18,+237
126383,0.527,-5.808,3.217,1.759279,-1.137837,1.650205,99915.88,+74,+24,+243
126392,4.606,-10.638,2.500,1.282509,-1.158589,1.753966,99919.23,+76,+31,+238
126402,7.997,-2.382,3.674,0.857353,-0.963837,0.400811,99915.55,+76,+31,+238
126412,5.123,0.933,4.264,0.961114,-0.755250,-0.487812,99915.88,+80,+34,+238
126423,2.703,0.916,3.270,0.863206,-0.660535,-0.763445,99915.88,+85,+37,+244
126433,2.314,0.920,1.789,0.845114,-0.579122,-1.109848,99914.11,+88,+41,+239
126442,2.842,0.440,1.593,0.911096,-0.404590,-1.439224,99914.47,+94,+43,+238
126452,3.358,-0.062,1.742,0.911096,-0.295507,-1.757958,99914.89,+94,+43,+238
126462,3.972,-0.669,1.255,0.905775,-0.246553,-2.109150,99916.36,+101,+44,+244
126473,4.961,-1.294,0.374,0.838729,-0.164076,-2.475774,99916.36,+106,+46,+240
126482,5.918,-2.022,-0.817,0.809463,-0.052865,-2.783866,99916.94,+113,+46,+239
126492,6.497,-2.226,-1.670,0.824362,0.062070,-3.045664,99914.48,+113,+46,+239
126502,6.872,-2.330,-1.737,0.851500,0.138162,-3.295223,99913.27,+120,+44,+246
126513,7.033,-2.451,-1.320,0.904711,0.169557,-3.515517,99911.13,+124,+44,+241
126522,7.093,-2.814,-0.753,1.007408,0.188712,-3.713994,99911.13,+131,+39,+242
126532,7.195,-3.238,-0.417,1.173958,0.205740,-3.921516,99912.92,+131,+39,+242
126542,7.324,-3.556,-0.119,1.344233,0.270125,-4.105094,99914.70,+137,+36,+249
126553,7.712,-3.677,0.442,1.483114,0.339300,-4.235993,99911.66,+140,+33,+244
126563,8.210,-3.838,0.837,1.596453,0.391978,-4.352525,99909.14,+144,+29,+246
126572,9.083,-4.321,0.689,1.635297,0.430822,-4.471717,99909.14,+144,+29,+246
126582,10.027,-5.140,0.460,1.517701,0.474988,-4.593571,99912.37,+149,+23,+252
126593,10.882,-5.898,0.222,1.237279,0.525006,-4.689351,99912.46,+151,+18,+249
126603,11.363,-6.604,0.518,0.874380,0.602162,-4.778213,99911.79,+153,+7,+250
126612,11.560,-6.833,1.072,0.529573,0.664951,-4.866011,99910.59,+153,+7,+250
126622,11.306,-6.978,1.575,0.295977,0.726675,-4.957534,99910.59,+152,-3,+258
126632,11.276,-6.921,1.852,0.203922,0.792657,-5.026176,99912.99,+149,-15,+252
126643,11.684,-6.662,1.614,0.227335,0.854382,-5.084176,99913.99,+144,-28,+256
126652,12.278,-6.319,1.219,0.310344,0.903868,-5.117699,99915.30,+144,-28,+256
126662,12.827,-6.116,0.893,0.422619,0.940051,-5.122488,99913.73,+137,-36,+263
126672,13.341,-6.368,0.624,0.517867,0.960272,-5.114506,99913.73,+129,-42,+259
126683,13.737,-6.780,0.473,0.530638,0.977831,-5.112910,99917.34,+122,-48,+264
126692,14.081,-7.045,0.471,0.472106,0.989006,-5.115038,99915.09,+122,-48,+264
126702,14.532,-7.443,0.533,0.400271,0.968253,-5.095350,99914.51,+117,-50,+272
126712,14.875,-8.220,0.551,0.373133,0.899079,-4.997442,99913.04,+112,-53,+267
126723,14.831,-9.578,0.482,0.459335,0.791593,-4.797369,99913.04,+107,-56,+273
126733,14.364,-10.965,0.518,0.586509,0.703263,-4.538231,99918.77,+107,-56,+273
126742,13.470,-12.301,0.971,0.663133,0.663354,-4.220562,99917.92,+104,-56,+278
126752,11.878,-14.191,1.474,0.704637,0.687831,-3.808177,99916.36,+99,-57,+274
126763,10.028,-17.713,1.906,0.609390,0.774033,-3.251590,99915.31,+97,-60,+280
126773,8.524,-21.355,1.468,0.198601,0.846400,-2.529517,99915.31,+97,-60,+280
126783,7.576,-22.543,-0.081,-0.418114,0.809152,-1.720178,99920.79,+99,-62,+284
126792,7.207,-20.016,-0.202,-0.980022,0.619189,-0.882105,99917.54,+97,-67,+277
126802,7.342,-16.291,1.014,-1.036958,0.294070,-0.047757,99919.26,+99,-74,+281
126813,6.548,-13.651,2.283,-0.515490,-0.028920,0.740829,99917.90,+99,-74,+281
126822,5.235,-13.195,3.539,0.274161,-0.260920,1.446939,99917.90,+103,-76,+285
126832,5.129,-12.398,5.545,0.953665,-0.358828,1.943397,99918.84,+105,-73,+282
126842,6.592,-9.429,11.852,1.301665,-0.202920,2.122718,99916.06,+110,-69,+290
126853,12.596,-0.580,17.109,0.916949,0.329722,1.860920,99915.97,+110,-69,+290
126863,29.514,9.088,-5.123,-0.863490,-0.400865,1.612957,99916.64,+118,-65,+291
126872,29.868,-5.863,-10.799,-0.236133,-0.983525,2.724535,99916.64,+117,-70,+286
126882,22.916,-16.247,-0.696,1.289426,-0.523250,3.532809,99921.38,+122,-62,+294
126893,16.915,-13.222,0.514,0.570014,-0.252406,3.624332,99920.71,+128,-62,+294
126903,7.817,-3.902,1.299,-0.241986,-0.170994,3.397653,99918.51,+128,-57,+296
126912,1.936,0.998,4.013,-0.005197,-0.185893,3.209286,99916.93,+130,-58,+290
126918,0.702,-1.372,5.768,0.562032,-0.144388,3.018791,99916.93,+130,-58,+290
126927,4.327,-6.205,5.198,1.080839,-0.207709,2.964516,99916.93,+134,-52,+296
126938,10.124,-10.031,2.112,1.087224,-0.468975,2.898534,99920.12,+137,-42,+299
126948,11.740,-10.656,0.412,0.450821,-0.453544,2.653764,99919.80,+138,-40,+294
126958,11.230,-9.141,0.392,-0.253160,-0.278480,2.343544,99919.85,+138,-40,+294
126967,10.051,-7.236,-0.025,-0.759729,-0.163012,2.038113,99920.21,+141,-40,+299
126978,8.974,-4.691,-0.141,-0.964591,-0.036370,1.724168,99921.10,+142,-40,+298
126988,8.941,-2.540,0.261,-0.829435,0.093465,1.542719,99918.32,+145,-44,+293
126997,9.388,-1.893,0.874,-0.476114,0.193501,1.507067,99918.32,+145,-44,+293
127007,9.824,-2.510,1.542,-0.239857,0.239795,1.507067,99918.16,+147,-43,+298
127017,9.597,-3.664,1.917,-0.193564,0.264804,1.422994,99917.70,+151,-41,+297
127028,9.189,-4.397,2.469,-0.283490,0.297795,1.304866,99917.70,+153,-42,+291
127038,9.037,-4.401,2.821,-0.463876,0.298859,1.153746,99920.97,+153,-42,+291
127047,9.327,-3.834,3.035,-0.642132,0.293006,1.002095,99920.81,+156,-42,+297
127057,9.562,-3.099,3.169,-0.753343,0.283428,0.908444,99916.67,+158,-42,+295
127068,9.619,-2.523,3.016,-0.741105,0.253098,0.876517,99917.77,+160,-46,+289
127078,9.588,-2.086,2.881,-0.619252,0.217446,0.875985,99917.77,+160,-46,+289
127088,9.453,-2.166,2.872,-0.461747,0.186052,0.897270,99919.59,+162,-48,+294
127097,9.151,-2.529,2.830,-0.356921,0.167960,0.919618,99918.28,+164,-47,+291
127108,8.959,-2.840,2.810,-0.355857,0.164235,0.940903,99917.77,+165,-48,+287
127118,8.925,-2.886,2.905,-0.413857,0.163171,0.958462,99917.77,+165,-48,+287
127127,8.744,-2.657,3.152,-0.439398,0.170621,0.971765,99917.77,+167,-47,+293
127137,8.516,-2.708,3.359,-0.417050,0.169557,1.001563,99918.94,+169,-48,+290
127148,8.355,-2.988,3.273,-0.388316,0.147208,1.045728,99916.58,+170,-49,+286
127153,8.375,-3.213,2.998,-0.375545,0.133373,1.074462,99918.94,+170,-49,+286
127163,8.518,-3.308,2.824,-0.384059,0.126988,1.102664,99918.00,+174,-48,+291
127172,8.663,-3.399,2.847,-0.396830,0.119006,1.137251,99918.00,+176,-47,+288
127182,8.639,-3.402,2.906,-0.373949,0.098254,1.183013,99918.69,+176,-47,+288
127193,8.512,-3.140,2.871,-0.284022,0.066327,1.232499,99918.80,+177,-48,+285
127203,8.277,-3.223,2.901,-0.130775,0.017905,1.294224,99917.95,+179,-46,+291
127213,8.132,-3.557,2.780,0.038968,-0.050737,1.360205,99918.17,+181,-42,+286
127222,8.075,-4.052,2.696,0.159757,-0.096498,1.414480,99918.17,+181,-42,+286
127233,8.368,-4.551,2.588,0.204986,-0.119379,1.449600,99920.58,+182,-40,+284
127243,8.897,-4.866,2.464,0.131555,-0.118315,1.476737,99919.63,+185,-36,+291
127253,9.424,-4.699,2.596,0.016620,-0.098095,1.492700,99919.84,+187,-33,+286
127262,9.724,-4.798,2.616,-0.070646,-0.074150,1.528352,99920.11,+187,-33,+286
127272,9.803,-5.176,2.108,-0.142481,-0.060315,1.584223,99920.11,+188,-32,+285
127283,9.795,-5.531,1.534,-0.215912,-0.057654,1.632113,99919.82,+190,-30,+290
127293,9.894,-5.882,1.065,-0.307967,-0.065636,1.682132,99918.87,+192,-27,+286
127302,10.392,-6.046,1.016,-0.392041,-0.092241,1.727361,99919.60,+192,-27,+286
127312,11.266,-5.853,1.227,-0.447380,-0.139067,1.782700,99916.77,+193,-27,+285
127323,12.028,-5.771,1.588,-0.484628,-0.172058,1.872095,99916.77,+195,-25,+290
127333,12.561,-5.821,1.645,-0.540499,-0.203984,1.986498,99919.73,+195,-23,+285
127343,12.855,-5.655,1.725,-0.621912,-0.219948,2.093984,99918.16,+195,-23,+285
127352,13.107,-5.802,1.679,-0.712903,-0.241232,2.198278,99918.53,+195,-25,+285
127363,13.425,-5.614,1.906,-0.817196,-0.267838,2.293526,99919.11,+196,-23,+290
127373,13.668,-5.587,2.308,-0.924151,-0.308810,2.388241,99919.11,+196,-24,+285
127383,14.073,-5.590,2.343,-1.047068,-0.356700,2.480296,99919.37,+196,-24,+284
127392,14.793,-4.972,2.470,-1.244481,-0.376388,2.555324,99919.95,+196,-26,+284
127403,15.797,-4.541,2.732,-1.480737,-0.393416,2.637801,99917.23,+197,-28,+290
127413,17.722,-4.357,2.815,-1.745196,-0.453012,2.706975,99916.70,+195,-31,+283
127423,20.917,-3.256,2.754,-2.148003,-0.555709,2.712296,99916.70,+194,-38,+282
127433,24.243,-0.775,3.098,-2.650315,-0.689269,2.711232,99917.25,+194,-38,+282
127442,25.003,1.861,3.805,-2.925415,-0.828681,2.755397,99917.41,+194,-48,+288
127453,21.858,1.946,4.108,-2.513562,-0.989911,2.836810,99919.66,+192,-56,+280
127463,18.773,-1.392,4.482,-1.272150,-1.268736,3.060296,99915.83,+190,-60,+282
127473,17.280,-6.132,4.772,0.057060,-1.462956,3.342846,99915.83,+190,-60,+282
127482,16.310,-9.157,4.695,0.539683,-1.436351,3.463635,99920.08,+188,-56,+290
127493,16.118,-7.388,6.120,0.393885,-1.255433,3.283250,99918.25,+186,-53,+287
127503,15.350,-2.930,8.107,0.419959,-1.050039,2.906516,99915.58,+185,-52,+290
127513,13.792,1.801,7.327,0.640252,-0.895195,2.348333,99916.00,+185,-52,+290
127522,10.924,4.110,3.447,0.748803,-0.810058,1.738535,99916.00,+182,-50,+298
127533,4.934,-3.541,0.309,0.361959,-0.779195,1.523031,99921.30,+179,-50,+294
127543,3.337,-9.157,4.000,-0.323399,-0.388627,1.654462,99916.02,+179,-56,+297
127553,7.206,-1.285,3.926,-1.028976,-0.185361,0.545545,99915.02,+179,-56,+297
127563,7.683,2.434,3.464,-1.194994,-0.085856,-0.299977,99916.91,+176,-63,+301
127572,5.756,2.313,2.087,-1.006095,-0.102884,-0.571353,99916.91,+172,-71,+294
127583,4.867,1.270,1.097,-0.644261,-0.117251,-0.767702,99917.56,+169,-81,+298
127593,4.796,0.321,0.573,-0.134500,-0.114058,-1.056105,99916.72,+169,-81,+298
127603,4.716,-0.692,0.134,0.328968,-0.147581,-1.363665,99915.89,+164,-85,+304
127612,4.778,-0.980,-0.239,0.601940,-0.180572,-1.696233,99914.42,+158,-89,+300
127623,5.070,-0.471,-0.592,0.788356,-0.193342,-2.099750,99914.42,+149,-93,+307
127633,5.251,-0.269,-0.802,0.995701,-0.207177,-2.404471,99916.14,+149,-93,+307
127643,5.423,-0.580,-0.672,1.234087,-0.228994,-2.683297,99916.98,+139,-94,+315
127652,5.602,-1.040,-0.372,1.436821,-0.254003,-2.946159,99912.89,+130,-95,+312
127663,5.874,-1.197,0.076,1.544307,-0.264645,-3.218067,99911.69,+118,-95,+321
127673,6.222,-1.160,0.581,1.589536,-0.274223,-3.486783,99911.69,+118,-95,+321
127683,6.649,-1.514,0.762,1.637958,-0.283801,-3.715058,99909.69,+104,-90,+329
127693,7.038,-2.402,0.907,1.658710,-0.274223,-3.897571,99910.27,+90,-87,+327
127703,7.249,-3.407,0.951,1.606031,-0.240168,-4.065186,99910.84,+76,-81,+336
127713,7.422,-4.117,1.147,1.468215,-0.174718,-4.256745,99911.00,+76,-81,+336
127723,7.916,-4.278,1.372,1.246325,-0.099159,-4.481296,99911.00,+62,-69,+341
127733,8.584,-4.192,1.646,0.979738,-0.008168,-4.721809,99913.98,+53,-64,+337
127742,9.144,-4.263,1.719,0.715812,0.093465,-4.936781,99909.41,+44,-53,+342
127753,9.480,-4.567,1.630,0.497115,0.212125,-5.101736,99911.15,+44,-53,+342
127763,9.824,-4.878,1.609,0.302895,0.350474,-5.229974,99912.55,+37,-42,+343
127773,10.264,-5.008,1.575,0.128363,0.501593,-5.339056,99912.55,+36,-36,+335
127782,10.834,-5.062,1.689,-0.020096,0.653776,-5.434836,99911.47,+36,-30,+336
127793,11.656,-5.033,1.701,-0.151527,0.797978,-5.519974,99914.77,+36,-30,+336
127803,12.522,-5.141,1.645,-0.231876,0.935262,-5.589680,99914.72,+40,-26,+334
127813,13.246,-5.789,1.463,-0.210591,1.054987,-5.620010,99913.25,+43,-29,+324
127822,13.702,-7.419,1.486,-0.057876,1.164602,-5.585423,99913.25,+45,-27,+327
127833,14.186,-8.750,1.184,0.095904,1.226859,-5.535937,99916.86,+45,-27,+327
127843,14.708,-9.341,0.670,0.111867,1.228987,-5.496029,99915.97,+49,-29,+325
127853,15.612,-10.187,0.297,0.009170,1.160877,-5.377368,99917.22,+48,-31,+319
127858,16.446,-11.396,0.065,-0.145674,1.072015,-5.217203,99915.17,+48,-31,+319
127867,16.715,-13.059,0.035,-0.355325,0.957079,-4.997442,99915.17,+48,-31,+324
127878,15.638,-15.337,0.178,-0.614463,0.822455,-4.655295,99915.17,+48,-36,+323
127888,13.860,-17.300,0.740,-0.774628,0.719226,-4.217369,99917.52,+43,-41,+319
127898,11.757,-18.364,1.269,-0.712371,0.643134,-3.634709,99920.02,+43,-41,+319
127908,9.368,-18.672,1.294,-0.342022,0.568107,-2.923810,99918.23,+45,-44,+325
127918,7.196,-21.179,0.170,0.137941,0.414859,-1.993683,99918.23,+44,-46,+325
127928,5.845,-23.366,0.023,0.402399,0.188712,-0.907647,99922.09,+41,-46,+324
127938,5.127,-23.954,0.886,0.568949,-0.057654,0.051215,99922.09,+41,-46,+324
127948,4.567,-23.630,2.577,0.705702,-0.230058,0.882371,99919.47,+44,-43,+332
127958,6.108,-20.360,6.833,0.753592,-0.219416,1.554957,99917.84,+46,-42,+332
127968,10.305,-14.113,12.225,0.567885,-0.035838,1.811434,99920.63,+46,-41,+331
127978,24.096,-11.615,0.697,-0.093527,-0.578058,2.344608,99920.63,+46,-41,+331
127988,38.892,-6.820,-8.748,-0.610206,-1.283103,3.197580,99920.38,+48,-42,+338
127998,23.574,-7.745,2.609,0.411445,-0.486003,3.780772,99922.05,+49,-44,+336
128008,11.433,-3.838,4.546,1.053169,-0.284333,4.015433,99916.50,+51,-40,+333
128018,-0.639,1.777,3.170,0.993041,-0.414168,3.829726,99916.44,+51,-40,+333
128028,-5.427,3.092,4.421,1.350619,-0.467911,3.238553,99918.42,+56,-34,+341
128038,0.703,-6.147,4.687,2.056196,-0.558902,3.057635,99917.33,+57,-28,+340
128049,9.696,-17.037,0.021,2.106215,-0.762168,3.236424,99916.02,+56,-19,+340
128058,16.135,-18.835,-2.391,0.958454,-0.672241,3.098076,99916.02,+56,-19,+340
128068,14.855,-11.337,-0.233,-0.431949,-0.111397,2.364828,99917.58,+59,-14,+347
128078,10.828,-4.988,0.857,-1.143380,0.187116,2.071104,99917.58,+61,-21,+343
128089,7.421,-2.585,1.618,-0.943839,0.169024,2.076957,99920.41,+61,-27,+340
128098,6.635,-2.749,1.898,-0.388316,0.079630,1.980113,99917.58,+67,-25,+346
128108,7.260,-3.842,1.412,-0.019032,-0.008700,1.858260,99919.88,+67,-25,+346
128118,8.788,-5.038,1.005,0.105482,-0.035838,1.727893,99917.84,+67,-26,+342
128129,10.275,-5.808,1.110,0.059720,0.027483,1.561875,99917.84,+68,-26,+341
128138,10.249,-5.904,1.486,-0.129711,0.129116,1.374040,99916.76,+73,-24,+346
128148,9.392,-5.454,1.620,-0.326591,0.198290,1.192590,99921.09,+73,-24,+346
128158,8.848,-4.932,1.564,-0.411197,0.208401,1.029765,99916.05,+73,-27,+341
128168,8.768,-4.379,1.508,-0.391509,0.195630,0.899398,99916.05,+73,-29,+341
128178,9.030,-3.993,1.480,-0.318610,0.190309,0.815325,99916.05,+78,-30,+346
128188,9.231,-3.923,1.426,-0.244646,0.201483,0.760517,99921.63,+78,-30,+346
128198,9.237,-3.933,1.456,-0.223894,0.229685,0.715288,99919.11,+78,-31,+341
128208,9.157,-3.935,1.578,-0.251564,0.264804,0.667930,99918.27,+79,-33,+339
128218,9.031,-3.641,2.106,-0.249967,0.303648,0.625362,99917.75,+83,-32,+345
128228,8.737,-3.246,2.774,-0.225490,0.310034,0.592371,99917.75,+83,-32,+345
128238,8.483,-3.252,3.137,-0.228151,0.301520,0.578536,99919.88,+83,-36,+339
128248,8.147,-3.368,3.313,-0.219105,0.291410,0.565765,99919.05,+85,-36,+339
128259,7.943,-3.365,3.174,-0.197821,0.261079,0.560444,99918.80,+89,-34,+343
128268,7.906,-3.365,2.894,-0.160573,0.211061,0.575343,99918.80,+89,-34,+343
128278,8.145,-3.196,2.559,-0.099912,0.151997,0.607270,99920.47,+89,-36,+338
128288,8.301,-3.097,2.251,-0.008922,0.107832,0.660481,99920.47,+90,-36,+338
128299,8.471,-3.392,1.937,0.095372,0.068456,0.736040,99918.31,+94,-34,+343
128308,8.768,-4.150,1.549,0.179977,0.037061,0.817453,99918.47,+94,-34,+343
128318,9.307,-4.286,1.253,0.151243,0.028015,0.881306,99917.42,+93,-35,+338
128329,9.549,-4.094,1.565,0.021763,0.078034,0.937533,99917.50,+94,-34,+340
128338,9.372,-4.021,2.047,-0.082353,0.112089,0.996774,99917.50,+98,-31,+345
128349,8.877,-3.877,2.453,-0.133968,0.116346,1.068077,99919.28,+98,-31,+345
128358,8.551,-3.742,2.634,-0.138756,0.100914,1.154279,99919.38,+99,-34,+337
128368,8.538,-4.049,2.736,-0.133435,0.077502,1.239416,99917.91,+99,-34,+340
128378,8.891,-4.513,2.809,-0.174940,0.058346,1.316572,99918.12,+105,-31,+344
128389,9.235,-5.135,2.800,-0.268059,0.066859,1.383618,99920.46,+105,-31,+344
128398,9.474,-5.478,2.829,-0.423967,0.111557,1.444278,99917.23,+105,-34,+337
128408,9.858,-5.633,2.914,-0.646921,0.163703,1.499618,99917.23,+108,-35,+339
128418,10.368,-5.886,3.045,-0.891692,0.191905,1.554425,99916.85,+112,-36,+341
128429,10.737,-6.026,2.836,-1.080591,0.203079,1.617214,99916.85,+112,-36,+341
128438,10.951,-6.146,2.108,-1.221068,0.208401,1.691710,99918.96,+113,-42,+334
128448,11.409,-6.110,1.470,-1.368994,0.202015,1.766737,99918.27,+116,-47,+335
128458,12.229,-5.650,0.987,-1.475416,0.147208,1.856131,99919.48,+121,-50,+335
128468,12.940,-5.217,0.916,-1.455728,0.062070,1.980645,99917.18,+121,-50,+335
128479,13.545,-5.298,1.002,-1.333875,-0.044352,2.121654,99917.18,+122,-58,+328
128488,14.094,-5.534,0.941,-1.228517,-0.154498,2.256810,99918.67,+125,-61,+328
128498,14.422,-5.813,1.083,-1.213618,-0.234315,2.365360,99919.41,+129,-63,+328
128508,14.714,-5.763,1.328,-1.272150,-0.278480,2.458480,99917.31,+129,-63,+328
128519,15.022,-5.482,1.317,-1.398792,-0.311471,2.537232,99917.31,+128,-69,+320
128528,15.897,-4.767,1.454,-1.556829,-0.347122,2.601617,99917.31,+131,-72,+321
128538,17.416,-4.018,1.824,-1.715930,-0.414700,2.647911,99918.63,+135,-78,+318
128548,19.489,-3.167,2.262,-1.891526,-0.505691,2.653232,99919.63,+135,-78,+318
128559,22.199,-1.196,2.718,-2.086278,-0.615837,2.605874,99919.67,+134,-86,+310
128568,23.912,1.784,3.575,-2.223030,-0.755782,2.543085,99918.22,+135,-93,+307
128578,22.220,2.858,4.485,-1.929306,-0.946810,2.530847,99918.22,+136,-100,+304
128588,18.935,-0.696,4.806,-1.001306,-1.178810,2.769232,99918.03,+135,-102,+296
128599,16.876,-6.126,5.586,-0.081289,-1.315030,3.143837,99917.34,+135,-102,+296
128609,16.261,-8.583,6.244,0.274161,-1.286296,3.244406,99917.48,+135,-99,+300
128618,16.000,-6.034,7.161,0.115060,-1.221910,3.032626,99917.48,+137,-96,+300
128628,15.383,-3.463,8.074,0.273096,-1.160186,2.916626,99915.95,+136,-96,+293
128638,14.181,-1.623,8.179,0.625885,-1.040461,2.751140,99917.73,+136,-96,+293
128649,12.358,1.373,6.156,0.670582,-0.843580,2.269581,99917.73,+137,-91,+298
128658,7.939,1.201,2.843,0.413041,-0.773342,1.606572,99915.55,+137,-91,+298
128668,1.790,-9.581,5.143,0.400803,-0.464718,1.776847,99918.05,+136,-90,+290
128678,6.694,-8.094,4.213,-0.174408,-0.282205,1.228774,99918.05,+136,-90,+290
128689,8.081,-1.397,3.332,-0.795380,-0.064040,0.159766,99917.68,+137,-95,+293
128699,5.997,1.839,3.278,-0.968316,0.024291,-0.410124,99918.68,+135,-102,+290
128708,4.606,2.828,2.379,-0.806022,0.071648,-0.669262,99915.16,+132,-110,+281
128718,4.353,2.555,1.488,-0.331912,0.109960,-0.942766,99912.70,+132,-110,+281
128729,4.298,1.561,1.340,0.282674,0.160511,-1.243940,99917.67,+131,-114,+286
128739,4.475,0.878,1.025,0.726986,0.175942,-1.606307,99915.27,+127,-116,+285
128748,4.753,0.248,0.407,0.905243,0.165832,-1.971866,99914.91,+120,-120,+280
128758,5.290,-0.291,-0.310,1.010068,0.181263,-2.357114,99914.91,+120,-120,+280
128769,5.743,-0.568,-0.659,1.069133,0.222768,-2.722673,99912.86,+115,-123,+287
128779,5.792,-0.948,-0.889,1.133518,0.256290,-3.025444,99912.86,+107,-126,+286
128788,5.778,-1.492,-0.878,1.155334,0.285556,-3.307462,99917.16,+96,-131,+282
128799,5.968,-1.954,-0.870,1.145934,0.312517,-3.591786,99914.02,+96,-131,+282
128808,6.253,-2.060,-0.690,1.106912,0.345153,-3.806581,99914.02,+86,-134,+290
128819,6.693,-2.115,-0.245,1.038270,0.377611,-4.031663,99914.13,+73,-139,+288
128829,7.254,-2.413,0.106,0.968564,0.399428,-4.242378,99914.13,+55,-143,+285
128838,7.759,-2.994,0.370,0.925463,0.430822,-4.446177,99912.68,+55,-143,+285
128848,8.235,-3.648,0.423,0.861610,0.474988,-4.654763,99913.13,+39,-145,+291
128859,8.888,-4.211,0.350,0.741353,0.528198,-4.856433,99911.95,+19,-143,+288
128869,9.585,-4.626,0.274,0.579060,0.593116,-5.032561,99911.95,-1,-141,+285
128878,10.252,-4.974,0.168,0.386436,0.659097,-5.168249,99911.95,-1,-141,+285
128888,10.918,-5.336,0.082,0.177317,0.732529,-5.291167,99911.65,-19,-136,+289
128899,11.382,-5.649,0.155,-0.005197,0.812877,-5.421534,99912.76,-39,-129,+286
128909,11.770,-5.950,0.338,-0.063197,0.879391,-5.504543,99912.12,-57,-120,+282
128918,12.425,-6.100,0.308,0.059720,0.905996,-5.531680,99913.07,-57,-120,+282
128928,13.553,-6.053,0.212,0.292252,0.892162,-5.518909,99913.07,-70,-106,+287
128939,14.394,-6.492,0.070,0.617371,0.852785,-5.460378,99913.11,-82,-91,+286
128949,14.591,-7.999,-0.015,0.950472,0.819263,-5.338524,99914.11,-93,-71,+283
128959,14.385,-9.622,0.434,1.152142,0.798510,-5.209754,99913.11,-93,-71,+283
128968,14.363,-10.182,1.352,1.221316,0.762327,-5.117699,99912.08,-97,-54,+290
128978,14.287,-10.752,1.954,1.223977,0.734657,-5.016066,99915.95,-101,-32,+288
128989,14.585,-11.293,2.108,1.150545,0.693685,-4.851112,99916.53,-103,-14,+286
128998,14.465,-12.616,2.235,1.105316,0.637281,-4.626562,99916.53,-103,-14,+286
129008,13.615,-14.815,2.332,0.966968,0.583006,-4.310488,99916.33,-101,+2,+291
129018,12.633,-16.268,1.626,0.647170,0.532987,-3.953975,99913.81,-99,+18,+287
129029,11.002,-16.908,1.174,0.331629,0.532455,-3.508599,99913.81,-97,+29,+284
129039,9.074,-17.797,1.378,0.170931,0.563318,-2.912104,99920.52,-92,+29,+284
129049,7.667,-19.029,1.457,0.040564,0.564382,-2.173004,99919.05,-92,+36,+290
129058,6.908,-20.312,0.541,-0.153123,0.529263,-1.320564,99917.74,-90,+42,+284
129069,6.218,-21.502,-0.563,-0.350004,0.448914,-0.405867,99920.30,-87,+43,+282
129079,5.772,-21.047,-0.061,-0.455362,0.291410,0.429545,99921.13,-84,+41,+288
129089,6.065,-19.120,2.544,-0.416518,0.112621,1.114902,99920.77,-84,+41,+288
129098,7.954,-14.353,7.776,-0.185050,0.000346,1.594333,99917.46,-85,+41,+283
129108,12.253,-11.499,10.415,0.001720,-0.023599,1.864113,99917.05,-87,+37,+282
129119,28.233,-7.424,-4.649,-0.469197,-0.852094,2.437195,99917.05,-90,+32,+287
129128,36.408,-5.940,-7.201,-0.305839,-1.136241,3.085837,99917.05,-90,+32,+287
129138,21.940,-8.017,2.380,0.670050,-0.438645,3.755231,99922.30,-92,+29,+281
129148,10.617,-4.184,2.956,0.985059,-0.286994,3.870699,99919.10,-91,+25,+279
129159,-0.119,1.914,1.998,0.702509,-0.390755,3.567929,99919.68,-89,+21,+285
129169,-5.124,3.880,4.426,1.125536,-0.477489,3.078387,99920.84,-89,+21,+285
129178,0.217,-3.500,6.128,1.967334,-0.567948,2.822443,99920.84,-90,+23,+277
129188,9.246,-14.291,1.569,2.314801,-0.766957,2.908112,99921.66,-93,+27,+277
129199,17.040,-17.538,-2.445,1.526747,-0.890938,2.911305,99916.97,-94,+27,+282
129209,15.859,-12.569,-1.184,0.298106,-0.355104,2.265856,99915.27,-94,+27,+282
129219,11.436,-6.851,0.756,-0.575087,0.049832,1.899232,99915.27,-95,+23,+276
129228,7.999,-3.832,1.808,-0.801233,0.099850,1.896572,99915.27,-93,+16,+277
129239,5.989,-2.481,2.049,-0.537307,0.032804,1.795471,99920.67,-91,+11,+281
129249,6.559,-2.941,1.306,-0.196224,-0.056590,1.662976,99916.91,-91,+11,+281
129259,8.951,-4.040,0.668,-0.086610,-0.101287,1.606572,99919.89,-91,+8,+276
129269,10.435,-5.091,0.966,-0.071179,-0.005330,1.477801,99917.25,-92,+4,+277
129278,10.236,-5.090,1.144,-0.115344,0.123263,1.356480,99917.25,-89,+3,+281
129289,9.302,-4.502,1.384,-0.150463,0.246180,1.228242,99918.56,-89,+3,+281
129299,8.569,-4.115,2.164,-0.145142,0.273850,1.103728,99921.08,-89,+0,+275
129309,8.381,-4.047,2.013,-0.182389,0.237667,0.973893,99918.41,-87,-2,+278
129318,8.825,-4.118,1.642,-0.261674,0.263740,0.858426,99919.83,-85,-5,+283
129329,9.407,-3.809,1.807,-0.373949,0.297795,0.779141,99920.19,-85,-5,+283
129339,9.468,-3.293,1.983,-0.428224,0.308437,0.743490,99919.30,-84,-7,+276
129348,9.439,-2.597,2.120,-0.387784,0.314290,0.742426,99919.30,-83,-11,+278
129358,9.398,-2.136,2.501,-0.309032,0.299391,0.755728,99918.52,-80,-11,+283
129369,9.309,-2.132,2.810,-0.210059,0.262676,0.785527,99916.31,-80,-11,+283
129379,9.013,-2.940,2.827,-0.128114,0.216914,0.822774,99916.31,-78,-14,+276
129389,8.757,-3.726,2.808,-0.105234,0.183391,0.833416,99918.39,-78,-17,+279
129398,8.493,-4.070,2.772,-0.173876,0.157850,0.822242,99917.61,-75,-17,+283
129409,8.434,-3.993,2.416,-0.255289,0.131777,0.814260,99916.72,-75,-17,+283
129419,8.736,-3.721,1.929,-0.298922,0.105171,0.827031,99919.66,-75,-20,+277
129429,9.199,-3.508,1.596,-0.291472,0.080694,0.849912,99919.66,-73,-24,+280
129439,9.496,-3.481,1.479,-0.253692,0.074309,0.893545,99919.63,-72,-25,+283
129448,9.571,-3.635,1.463,-0.221766,0.082823,0.953673,99915.22,-72,-25,+283
129459,9.317,-3.829,1.678,-0.237197,0.100914,1.014334,99916.69,-73,-28,+277
129469,9.126,-4.021,2.155,-0.289344,0.116878,1.070737,99916.69,-69,-31,+280
129478,8.999,-4.014,2.703,-0.328720,0.114749,1.122352,99916.69,-67,-32,+282
129488,8.785,-4.008,2.885,-0.323931,0.101446,1.173435,99918.78,-67,-32,+282
129499,8.622,-4.070,2.882,-0.297857,0.084419,1.228774,99915.48,-67,-36,+276
129509,8.566,-4.365,2.876,-0.285087,0.071648,1.280921,99917.06,-65,-39,+280
129519,8.809,-4.916,2.784,-0.304243,0.062070,1.321361,99917.58,-62,-41,+282
129528,9.138,-5.323,2.852,-0.393105,0.083887,1.345838,99917.58,-62,-41,+282
129539,9.553,-5.620,2.987,-0.553270,0.120070,1.369251,99920.33,-61,-46,+275
129549,10.209,-5.880,3.033,-0.746426,0.155722,1.399049,99918.08,-58,-50,+280
129559,11.016,-5.747,3.019,-0.974169,0.173813,1.435765,99915.36,-55,-55,+280
129568,11.897,-5.541,2.756,-1.159875,0.161043,1.512921,99915.36,-53,-62,+272
129579,12.629,-5.335,2.171,-1.270022,0.130713,1.623067,99920.98,-53,-62,+272
129589,12.899,-5.188,1.449,-1.337600,0.106768,1.752902,99920.98,-48,-69,+277
129599,12.639,-5.275,0.643,-1.345581,0.085483,1.892847,99921.29,-43,-74,+275
129608,12.205,-5.494,-0.488,-1.318976,0.050896,2.014700,99915.68,-39,-80,+266
129618,11.841,-5.718,-1.382,-1.282260,-0.002315,2.097177,99917.57,-39,-80,+266
129629,11.872,-5.698,-1.497,-1.230114,-0.095434,2.167416,99917.57,-33,-89,+270
129639,12.224,-5.388,-0.900,-1.177967,-0.214627,2.209452,99920.14,-30,-92,+267
129649,12.882,-4.856,0.488,-1.091765,-0.335948,2.247232,99918.36,-26,-96,+257
129659,13.718,-4.678,1.940,-1.003967,-0.443966,2.299911,99916.78,-26,-96,+257
129669,14.790,-4.559,2.991,-0.989068,-0.500902,2.339287,99913.80,-20,-101,+260
129679,16.132,-4.143,3.638,-1.127416,-0.521122,2.356847,99917.10,-14,-104,+257
129689,17.913,-2.976,4.105,-1.357820,-0.551452,2.352590,99917.52,-11,-109,+246
129698,19.718,-0.860,4.302,-1.580774,-0.614773,2.293526,99917.52,-11,-109,+246
129709,20.978,1.190,4.377,-1.706884,-0.708425,2.196682,99917.15,-5,-114,+248
129719,21.607,1.225,3.996,-1.590884,-0.859012,2.231801,99915.74,+0,-116,+242
129729,20.904,-1.820,3.812,-1.127416,-1.009067,2.546278,99915.74,+4,-118,+233
129739,19.614,-4.661,4.829,-0.525600,-1.073097,2.917336,99918.04,+4,-118,+233
129748,18.579,-6.181,6.222,-0.202078,-0.987782,3.013470,99918.04,+11,-118,+236
129759,17.819,-5.849,6.329,-0.284022,-0.944681,2.899599,99916.32,+17,-114,+234
129769,16.489,-4.339,6.647,-0.170151,-0.942021,2.865544,99914.59,+25,-113,+226
129779,15.327,-3.375,7.680,0.256601,-0.880828,2.862883,99914.59,+25,-113,+226
129789,13.471,-1.193,7.483,0.458271,-0.723856,2.527122,99918.02,+32,-110,+233
129799,9.656,3.063,3.133,0.153904,-0.738755,1.750774,99917.02,+37,-106,+229
129809,2.417,-6.422,5.433,0.454014,-0.464718,1.652333,99915.88,+40,-102,+225
129819,7.239,-11.776,3.454,0.338014,-0.431195,1.703948,99915.88,+40,-102,+225
129828,9.168,-3.337,4.066,-0.432481,-0.130021,0.670059,99915.88,+46,-100,+230
129839,6.479,2.551,4.018,-0.455894,0.023758,-0.058399,99917.37,+47,-97,+225
129849,4.406,3.515,3.021,-0.169619,0.046107,-0.324986,99915.02,+49,-96,+220
129859,3.690,2.140,2.187,0.284271,0.061538,-0.544216,99914.07,+49,-96,+220
129868,3.819,0.703,1.406,0.644509,0.067924,-0.826766,99914.13,+50,-94,+227
129879,3.842,-0.083,1.354,0.782858,0.101979,-1.190197,99914.13,+49,-89,+224
129889,4.020,-0.420,0.885,0.719537,0.148804,-1.583426,99915.60,+49,-85,+220
129899,4.193,-0.757,0.301,0.602472,0.213722,-1.958031,99914.71,+49,-85,+220
129909,4.212,-1.119,0.016,0.494986,0.298859,-2.281554,99912.62,+48,-81,+228
129918,4.389,-0.960,-0.215,0.390161,0.374951,-2.582196,99912.62,+44,-77,+223
129929,4.962,-0.512,-0.783,0.325775,0.431887,-2.903590,99914.59,+43,-76,+220
129939,5.688,-0.256,-1.187,0.327372,0.468070,-3.207957,99914.59,+43,-76,+220
129949,6.530,-0.267,-1.278,0.348656,0.478180,-3.459645,99913.90,+40,-73,+228
129958,7.121,-0.583,-1.217,0.469445,0.493079,-3.686856,99911.96,+37,-69,+223
129969,7.432,-1.142,-1.015,0.656215,0.498933,-3.873626,99912.59,+35,-67,+221
129974,7.588,-1.700,-0.821,0.796160,0.495208,-3.999737,99912.59,+35,-67,+221
129984,7.687,-2.145,-0.550,0.937169,0.492547,-4.131167,99911.38,+33,-61,+228
129994,7.998,-2.620,-0.166,1.068601,0.490951,-4.320066,99911.69,+30,-56,+223
130003,8.548,-2.667,0.284,1.115958,0.492547,-4.530782,99913.00,+30,-56,+223
130014,9.089,-3.052,0.418,1.104784,0.504254,-4.736176,99909.02,+27,-52,+223
130024,9.705,-3.859,0.185,1.007940,0.527134,-4.910708,99909.02,+25,-45,+230
130034,10.262,-4.650,-0.156,0.837133,0.581942,-5.066616,99912.91,+23,-42,+225
130043,11.009,-4.891,-0.280,0.662069,0.650052,-5.208158,99912.91,+23,-42,+225
130054,11.691,-5.099,-0.204,0.526381,0.716565,-5.324157,99912.49,+23,-39,+223
130064,12.540,-5.448,-0.079,0.411445,0.746364,-5.419405,99914.48,+24,-35,+228
130074,13.670,-5.699,0.077,0.408252,0.738382,-5.514653,99914.48,+23,-36,+223
130084,14.804,-5.895,0.150,0.595023,0.689428,-5.565735,99917.38,+23,-36,+223
130094,15.576,-6.391,0.519,0.986656,0.621318,-5.534341,99912.09,+23,-37,+223
130104,15.836,-7.210,0.531,1.435756,0.525006,-5.442286,99912.98,+21,-36,+229
130114,15.458,-8.144,0.373,1.737995,0.400492,-5.322029,99911.77,+14,-37,+226
130124,15.237,-9.247,0.892,1.941793,0.283960,-5.124616,99911.77,+14,-37,+226
130134,15.311,-10.800,1.577,2.010435,0.162107,-4.852176,99915.16,+6,-36,+230
130144,15.503,-12.938,2.341,1.906673,0.051960,-4.539828,99916.16,-1,-31,+238
130154,14.816,-15.709,3.393,1.668288,-0.015618,-4.214709,99915.65,-14,-23,+238
130164,12.910,-18.221,4.421,1.325610,0.013648,-3.820948,99914.91,-14,-23,+238
130173,10.459,-19.989,4.879,0.837665,0.125924,-3.327150,99914.91,-21,-17,+241
130184,8.094,-20.259,4.924,0.303959,0.292474,-2.724269,99917.62,-24,-11,+248
130194,6.611,-19.711,4.560,-0.156316,0.484566,-2.047426,99916.73,-28,-9,+245
130204,5.608,-19.524,4.007,-0.598499,0.619189,-1.338123,99919.02,-28,-9,+245
130214,4.420,-19.368,3.268,-1.007160,0.646859,-0.669262,99918.09,-26,-9,+248
130224,4.129,-18.065,2.738,-1.379637,0.585134,-0.069574,99918.09,-24,-12,+252
130234,4.384,-17.598,3.407,-1.437104,0.503189,0.518940,99917.95,-25,-17,+249
130244,5.554,-15.891,4.072,-1.236499,0.447318,1.060095,99920.56,-25,-17,+249
130254,9.876,-9.345,4.080,-0.982150,0.281832,1.337324,99916.42,-21,-23,+253
130264,19.812,-2.377,-1.276,-0.729398,-0.418957,1.410223,99917.69,-21,-26,+255
130274,38.409,-6.791,-10.399,-0.551674,-1.487433,2.439856,99917.69,-24,-31,+251
130284,34.241,-13.730,-0.244,0.805206,-0.810058,3.936148,99923.34,-21,-32,+255
130294,16.754,-13.910,4.542,1.742784,-0.125764,4.071304,99919.71,-21,-32,+255
130304,7.238,-3.646,0.625,1.225041,-0.190682,4.002662,99918.24,-16,-29,+259
130314,-3.911,4.700,2.696,0.770087,-0.142792,3.611029,99919.46,-16,-31,+254
130324,-5.985,2.294,7.228,1.150013,-0.148113,2.951745,99919.46,-10,-29,+258
130334,2.481,-11.000,6.667,1.736398,-0.235911,3.001764,99920.52,-10,-29,+258
130344,13.148,-17.915,0.150,1.375628,-0.685012,3.140112,99919.32,-10,-25,+263
130354,16.787,-15.289,-2.007,0.285335,-0.529636,2.755397,99918.80,-10,-27,+258
130364,13.755,-8.956,0.399,-0.744297,-0.055526,2.219030,99922.05,-5,-32,+261
130374,10.055,-4.987,1.881,-1.150829,0.091869,2.094517,99922.05,-5,-32,+261
130384,7.408,-2.353,1.587,-0.785802,0.024291,1.992884,99917.29,-3,-34,+262
130394,6.501,-1.609,0.972,-0.110023,-0.017746,1.857728,99917.02,-3,-39,+257
130404,7.201,-3.160,0.928,0.357702,-0.026260,1.830590,99918.90,+0,-38,+261
130414,9.098,-5.341,0.863,0.384307,-0.007104,1.736939,99914.46,+0,-38,+261
130424,10.052,-6.633,1.032,0.131555,0.127520,1.527820,99914.46,+1,-38,+263
130435,9.699,-6.069,1.658,-0.200481,0.293538,1.320297,99918.30,+3,-41,+258
130444,8.798,-4.877,1.998,-0.435674,0.380272,1.140444,99914.47,+8,-42,+261
130454,8.525,-4.348,1.638,-0.526132,0.397832,0.971233,99919.44,+8,-42,+261
130464,9.041,-4.071,1.503,-0.519215,0.406878,0.850444,99916.67,+8,-44,+263
130475,9.411,-3.513,2.022,-0.439931,0.418584,0.773288,99916.67,+10,-48,+258
130484,9.475,-3.088,2.368,-0.350004,0.419648,0.744022,99920.17,+16,-48,+261
130494,9.381,-2.980,2.456,-0.260610,0.411667,0.751472,99917.61,+16,-48,+261
130504,9.275,-3.301,2.529,-0.187711,0.389850,0.752536,99921.06,+15,-49,+262
130514,9.222,-3.749,2.644,-0.174940,0.356859,0.738701,99918.19,+16,-52,+257
130524,8.987,-4.035,2.845,-0.220169,0.331850,0.728059,99918.19,+22,-52,+261
130534,8.660,-3.805,3.082,-0.281362,0.306841,0.722206,99921.80,+22,-52,+261
130544,8.312,-3.401,3.341,-0.309032,0.277575,0.719545,99917.66,+22,-53,+262
130554,8.095,-3.128,3.388,-0.304243,0.249373,0.727527,99917.46,+23,-56,+257
130565,8.134,-3.458,3.092,-0.281894,0.206804,0.766903,99919.09,+28,-56,+260
130574,8.461,-3.842,2.470,-0.279233,0.158914,0.815325,99919.09,+28,-56,+260
130584,8.994,-3.941,1.923,-0.295197,0.126456,0.868004,99919.81,+27,-58,+260
130594,9.386,-3.888,1.915,-0.308499,0.122731,0.933985,99920.19,+29,-60,+256
130605,9.439,-4.028,2.235,-0.330848,0.131245,1.006352,99917.52,+33,-60,+261
130614,9.208,-4.308,2.313,-0.367032,0.145079,1.071802,99918.72,+33,-60,+261
130624,8.926,-4.482,2.347,-0.418646,0.170621,1.128737,99918.72,+33,-62,+260
130634,8.791,-4.741,2.337,-0.495802,0.183391,1.179288,99918.04,+35,-64,+255
130644,8.870,-4.910,2.393,-0.596371,0.191373,1.226646,99918.55,+40,-65,+259
130654,9.040,-4.974,2.387,-0.696408,0.207868,1.267618,99917.66,+40,-65,+259
130664,9.110,-4.957,2.389,-0.753343,0.229685,1.312847,99919.98,+40,-68,+257
130674,9.189,-4.813,2.235,-0.766114,0.221171,1.358077,99919.98,+44,-72,+252
130684,9.497,-5.096,1.737,-0.739508,0.191373,1.420334,99918.68,+49,-74,+257
130695,10.146,-5.409,1.244,-0.751215,0.169024,1.498021,99918.48,+49,-74,+257
130704,10.948,-5.654,0.966,-0.837949,0.142419,1.584755,99917.12,+49,-76,+255
130714,11.916,-5.466,0.964,-0.943839,0.090804,1.697563,99915.96,+53,-80,+250
130724,12.625,-4.970,1.244,-0.982683,0.022162,1.842297,99915.96,+58,-83,+252
130735,13.064,-4.201,1.593,-0.957673,-0.061379,2.015232,99920.40,+58,-83,+250
130744,12.983,-4.015,1.869,-0.850187,-0.170462,2.198810,99921.13,+58,-87,+250
130754,12.986,-4.798,1.371,-0.713967,-0.300296,2.368553,99918.20,+62,-89,+246
130764,13.657,-5.057,1.011,-0.639472,-0.430663,2.480828,99917.77,+67,-89,+249
130775,14.073,-4.708,1.437,-0.543160,-0.541874,2.570223,99917.77,+67,-92,+246
130784,13.605,-5.084,1.803,-0.411197,-0.602003,2.652700,99919.23,+67,-92,+246
130794,12.824,-5.929,1.312,-0.401619,-0.597214,2.676112,99917.80,+71,-93,+242
130804,12.898,-6.365,0.468,-0.571362,-0.567948,2.613324,99918.96,+76,-94,+246
130814,14.994,-5.834,0.091,-0.847527,-0.616370,2.472847,99918.59,+75,-98,+242
130824,18.224,-4.296,0.431,-1.135398,-0.755782,2.283416,99918.59,+75,-98,+242
130834,20.681,-1.956,0.962,-1.337068,-0.902645,2.125379,99920.89,+79,-100,+237
130844,21.409,0.817,2.386,-1.357820,-1.040461,2.009379,99916.23,+80,-104,+239
130854,19.884,2.392,4.136,-0.962462,-1.172956,1.952975,99918.80,+77,-109,+234
130865,17.134,-1.046,5.751,-0.074903,-1.301727,2.169544,99917.91,+77,-109,+234
130874,15.802,-7.152,7.195,0.778069,-1.347488,2.678773,99917.91,+80,-107,+234
130884,15.591,-10.584,8.180,1.006876,-1.174553,2.948021,99918.71,+82,-104,+241
130894,15.442,-10.583,8.363,0.721665,-0.924993,3.002296,99916.46,+83,-102,+238
130905,15.559,-8.114,7.525,0.142197,-0.685012,2.857562,99916.73,+83,-102,+238
130914,14.134,-4.314,7.701,-0.359582,-0.428535,2.535635,99915.68,+89,-101,+236
130924,12.617,0.580,7.102,-0.657031,-0.136407,2.033324,99915.68,+92,-102,+241
130934,9.410,2.186,2.683,-0.959802,-0.049141,1.463966,99918.30,+91,-109,+235
130945,3.739,-5.543,3.592,-1.170517,0.190841,1.589544,99918.82,+91,-109,+235
130955,6.958,-6.039,4.576,-1.317380,0.381336,1.222921,99916.41,+96,-110,+232
130964,7.929,-1.022,4.021,-1.545655,0.594180,0.346536,99915.59,+97,-116,+234
130974,6.656,1.706,3.792,-1.619618,0.641006,-0.178124,99915.59,+94,-124,+228
130984,5.630,3.363,2.442,-1.379104,0.636217,-0.517078,99916.25,+94,-124,+228
130995,4.863,3.434,0.701,-0.902866,0.596841,-0.813995,99915.72,+96,-126,+226
131004,4.249,1.904,0.157,-0.302114,0.581409,-1.042803,99914.63,+93,-131,+231
131014,4.515,0.632,-0.131,0.152308,0.523942,-1.336527,99914.14,+87,-133,+229
131024,5.016,0.158,-0.686,0.365151,0.444657,-1.682931,99914.14,+87,-133,+229
131035,5.399,0.237,-1.243,0.484876,0.372822,-2.029334,99916.77,+85,-133,+231
131044,5.490,0.107,-1.399,0.649298,0.322804,-2.351793,99912.95,+76,-136,+241
131054,5.369,-0.427,-1.395,0.815848,0.280235,-2.621040,99913.48,+65,-137,+239
131064,5.412,-0.991,-1.322,0.927059,0.236602,-2.882306,99914.26,+65,-137,+239
131075,5.946,-1.151,-1.041,0.957390,0.183391,-3.159003,99914.26,+61,-135,+245
131085,6.666,-1.233,-0.508,0.980802,0.133905,-3.418673,99913.46,+49,-135,+255
131094,7.249,-1.522,-0.115,1.056894,0.086015,-3.625131,99911.30,+33,-134,+255
131104,7.601,-1.971,0.387,1.178747,0.066859,-3.800195,99909.90,+33,-134,+255
131115,7.889,-2.405,0.829,1.285701,0.059942,-3.988030,99909.59,+25,-128,+264
131125,8.241,-2.964,0.944,1.296343,0.051428,-4.187571,99909.59,+8,-126,+275
131134,8.629,-3.399,1.044,1.198435,0.067391,-4.388176,99911.50,-6,-119,+278
131144,9.247,-3.083,0.877,1.041995,0.104639,-4.580268,99912.08,-6,-119,+278
131154,9.906,-2.721,0.752,0.935573,0.160511,-4.750543,99910.67,-16,-109,+286
131165,10.475,-3.081,0.652,0.904711,0.216914,-4.875589,99913.44,-31,-102,+296
131174,10.847,-4.142,0.437,0.882362,0.289813,-4.976690,99913.44,-44,-90,+299
131184,11.028,-5.256,0.304,0.812124,0.371226,-5.077259,99913.91,-44,-90,+299
131194,11.369,-5.415,0.588,0.700913,0.454767,-5.206029,99912.95,-49,-77,+308
131205,12.133,-4.798,0.947,0.622160,0.505850,-5.352891,99913.64,-62,-64,+316
131215,13.197,-4.376,1.065,0.645573,0.516492,-5.473680,99910.81,-69,-47,+315
131224,14.416,-4.901,1.023,0.761041,0.490951,-5.537533,99910.81,-69,-47,+315
131234,15.572,-6.312,0.798,0.923335,0.431887,-5.549240,99915.22,-70,-30,+318
131245,16.179,-7.816,0.682,1.055298,0.345153,-5.527423,99916.27,-73,-9,+316
131255,16.493,-9.235,1.068,1.208013,0.250437,-5.455588,99914.64,-69,+13,+303
131264,16.917,-10.625,1.505,1.307518,0.143483,-5.286910,99914.59,-56,+27,+294
131270,17.064,-11.470,2.040,1.294215,0.081226,-5.108653,99914.59,-56,+27,+294
131279,16.571,-12.368,2.715,1.196307,0.054089,-4.897406,99914.59,-49,+36,+284
131290,15.226,-13.940,3.997,1.033481,0.062070,-4.552066,99917.16,-49,+36,+284
131300,13.645,-16.230,5.043,0.844582,0.129648,-4.124782,99916.74,-42,+36,+269
131310,11.464,-19.099,5.596,0.574271,0.279171,-3.593204,99915.74,-33,+32,+265
131319,9.250,-21.247,5.135,0.303427,0.502125,-2.939774,99915.74,-37,+27,+264
131330,6.550,-22.444,4.239,-0.232940,0.731464,-2.232600,99917.92,-37,+27,+264
131340,5.453,-21.623,3.646,-1.015141,0.842675,-1.457848,99916.25,-35,+17,+257
131349,5.663,-19.591,3.033,-1.595673,0.814474,-0.729390,99916.25,-33,+3,+260
131359,5.490,-17.707,2.166,-1.754774,0.679318,-0.046693,99916.19,-40,-7,+261
131369,4.865,-16.993,2.459,-1.543526,0.529795,0.642389,99919.13,-40,-7,+261
131380,5.834,-14.584,2.351,-1.109857,0.370162,1.246866,99919.13,-41,-18,+258
131390,8.852,-7.795,2.193,-0.578811,0.146144,1.559214,99918.80,-40,-29,+262
131399,15.759,0.668,2.052,0.053867,-0.353507,1.566664,99919.07,-48,-35,+264
131409,29.720,2.281,-6.270,0.316197,-1.368241,2.013104,99915.77,-48,-35,+264
131420,34.553,-8.857,-3.129,1.346362,-1.250112,3.362534,99915.66,-56,-40,+262
131430,18.713,-16.957,4.942,2.472306,-0.291783,3.978185,99920.08,-53,-40,+267
131440,10.681,-11.365,1.712,1.722031,-0.234315,3.913800,99919.50,-55,-40,+271
131449,1.801,-0.972,1.731,0.600344,-0.148645,3.645084,99919.50,-55,-40,+271
131460,-2.860,3.078,4.785,0.542344,-0.128957,3.077323,99916.89,-52,-44,+269
131470,0.927,-5.128,7.606,1.132986,-0.140131,2.918755,99916.89,-49,-47,+275
131479,9.988,-12.217,3.276,1.258564,-0.518993,3.048057,99916.89,-53,-48,+277
131489,14.966,-13.074,-1.239,0.655151,-0.661599,2.930461,99916.88,-53,-48,+275
131500,13.280,-10.225,-1.319,0.137408,-0.298700,2.549470,99919.86,-53,-50,+275
131510,11.038,-8.074,0.254,-0.226555,-0.097563,2.394626,99917.77,-48,-55,+279
131520,8.400,-4.012,1.816,-0.257417,-0.007636,2.189232,99918.39,-50,-60,+279
131529,6.445,-1.545,1.565,-0.025417,0.005135,1.937544,99918.39,-46,-61,+277
131539,6.924,-2.152,0.762,0.292252,-0.057122,1.877948,99918.81,-46,-61,+277
131550,8.919,-3.602,0.434,0.551390,-0.043819,1.813030,99918.66,-42,-63,+281
131560,10.359,-4.735,0.693,0.504564,0.028547,1.685324,99916.61,-44,-65,+282
131569,10.170,-5.206,1.382,0.352381,0.108896,1.537930,99916.61,-41,-65,+280
131579,9.119,-5.463,1.906,0.157097,0.155722,1.380957,99916.61,-41,-65,+280
131590,8.465,-4.995,1.808,-0.050958,0.191905,1.218132,99917.58,-37,-66,+285
131600,8.434,-4.581,1.569,-0.235600,0.253630,1.068077,99918.73,-38,-69,+284
131609,9.096,-4.132,1.315,-0.345215,0.310566,0.952077,99916.11,-33,-71,+281
131620,9.643,-3.654,1.438,-0.390799,0.392333,0.882903,99917.31,-33,-71,+281
131630,9.856,-3.519,1.570,-0.436206,0.385593,0.873857,99917.31,-29,-74,+285
131640,9.730,-3.504,1.472,-0.463876,0.382400,0.874389,99917.27,-31,-77,+283
131650,9.320,-3.868,1.698,-0.511233,0.412199,0.863747,99914.75,-26,-81,+280
131659,9.186,-4.181,2.251,-0.607545,0.427098,0.829160,99914.80,-26,-81,+280
131670,9.084,-4.187,2.561,-0.695343,0.439868,0.786591,99917.45,-21,-84,+285
131680,8.885,-4.436,2.604,-0.760793,0.447850,0.761050,99918.76,-23,-89,+282
131690,8.732,-4.203,2.255,-0.773031,0.431887,0.742426,99916.35,-18,-91,+278
131699,8.722,-3.747,1.923,-0.692151,0.405813,0.746150,99916.35,-18,-91,+278
131709,8.855,-3.949,2.033,-0.588921,0.379740,0.787123,99918.38,-14,-95,+282
131720,8.951,-4.338,2.247,-0.547949,0.377079,0.835545,99914.93,-15,-99,+279
131730,9.172,-4.382,2.323,-0.619784,0.387189,0.873325,99914.93,-10,-100,+277
131740,9.420,-4.229,2.711,-0.729930,0.389850,0.908444,99920.72,-10,-100,+277
131749,9.454,-3.998,3.136,-0.805490,0.379740,0.956866,99917.27,-6,-105,+280
131760,9.273,-3.646,3.699,-0.828371,0.352602,1.018591,99917.53,-6,-110,+277
131770,8.952,-3.704,3.618,-0.779417,0.311630,1.087765,99914.28,+0,-112,+273
131780,8.821,-4.079,3.106,-0.711839,0.264272,1.153214,99918.45,+0,-112,+273
131789,8.879,-4.416,2.390,-0.685233,0.218511,1.200572,99916.55,+2,-115,+277
131800,9.131,-4.725,1.820,-0.690554,0.179135,1.248994,99916.93,+1,-120,+273
131810,9.374,-4.913,1.414,-0.686297,0.144547,1.300609,99913.46,+7,-122,+271
131820,9.673,-4.781,1.326,-0.688426,0.116878,1.360737,99913.46,+7,-122,+271
131829,10.130,-4.671,1.262,-0.688958,0.061538,1.438425,99913.46,+10,-125,+274
131840,10.646,-4.709,1.393,-0.652242,-0.005508,1.533141,99918.77,+10,-130,+270
131850,11.269,-4.921,1.357,-0.597435,-0.088517,1.646480,99917.67,+16,-130,+269
131860,11.874,-4.904,1.789,-0.579343,-0.149177,1.765141,99917.72,+16,-130,+269
131869,12.107,-4.933,2.174,-0.560720,-0.180572,1.881673,99914.53,+19,-133,+272
131879,12.283,-4.931,2.498,-0.527197,-0.194939,1.985966,99914.53,+20,-137,+267
131890,12.351,-5.237,2.107,-0.534114,-0.213030,2.081746,99918.29,+26,-137,+265
131900,12.533,-5.577,1.582,-0.611270,-0.228462,2.172204,99916.57,+26,-137,+265
131910,12.863,-5.678,0.987,-0.738976,-0.268370,2.248828,99916.68,+30,-141,+268
131919,13.531,-5.061,0.988,-0.875729,-0.310406,2.310021,99916.68,+30,-144,+262
131930,14.105,-4.763,1.612,-0.981086,-0.343929,2.383452,99919.33,+35,-145,+260
131940,14.694,-4.571,2.123,-1.124224,-0.323177,2.448902,99919.33,+35,-145,+260
131950,15.446,-4.265,2.335,-1.391875,-0.259856,2.487746,99917.91,+39,-149,+260
131959,16.741,-3.423,2.136,-1.794150,-0.210370,2.473379,99919.64,+41,-156,+252
131970,19.095,-1.180,2.799,-2.190040,-0.259856,2.336094,99915.81,+45,-159,+246
131975,21.366,0.534,3.448,-2.333709,-0.389159,2.199342,99915.81,+45,-159,+246
131985,23.053,1.218,4.007,-2.191104,-0.573269,2.212645,99918.82,+47,-165,+244
131995,22.414,-0.015,4.823,-1.556297,-0.847837,2.518608,99917.24,+46,-170,+236
132004,19.341,-1.765,4.797,-0.743233,-1.080369,2.853305,99916.26,+46,-170,+236
132015,15.791,-3.006,3.763,-0.091931,-1.187323,2.885764,99915.10,+48,-166,+236
132025,13.523,-4.665,3.914,0.167739,-1.161782,2.725599,99915.10,+48,-166,+239
132035,13.792,-6.110,4.795,0.205519,-1.112296,2.476571,99918.07,+45,-161,+236
132044,14.970,-5.783,5.366,0.167739,-1.139966,2.261599,99915.09,+45,-161,+236
132055,14.615,-4.837,5.508,0.150179,-1.141030,2.040241,99916.20,+45,-154,+237
132065,12.727,-3.514,7.450,-0.111619,-0.930314,1.747049,99916.35,+42,-152,+239
132075,10.456,3.101,4.598,-0.662885,-0.885085,1.010609,99916.35,+39,-149,+232
132085,2.502,-0.479,3.065,-0.984811,-0.668516,0.570554,99916.25,+39,-149,+232
132094,6.599,-9.393,3.514,-0.819325,-0.554645,1.002095,99916.58,+35,-144,+233
132105,8.837,-2.383,3.794,-1.073673,-0.271562,0.042169,99915.47,+32,-143,+232
132115,7.288,3.640,3.722,-1.090701,-0.095966,-0.779408,99915.94,+26,-139,+226
132125,4.598,5.027,2.957,-0.832096,-0.020939,-1.105059,99915.94,+26,-139,+226
132134,4.026,3.825,2.397,-0.214848,0.059410,-1.303004,99915.27,+22,-133,+227
132145,4.923,1.883,2.025,0.583849,0.128584,-1.500949,99915.79,+17,-128,+231
132155,5.465,0.118,1.717,1.160123,0.198823,-1.761151,99915.07,+12,-118,+229
132165,5.709,-1.148,0.981,1.285169,0.239263,-2.079885,99912.18,+12,-118,+229
132174,5.621,-1.373,0.424,1.153738,0.313226,-2.436398,99912.18,+7,-104,+235
132185,5.786,-0.652,0.066,0.981867,0.397832,-2.778013,99914.45,+3,-95,+238
132195,5.945,-0.191,-0.542,0.899922,0.473391,-3.066948,99911.98,+0,-84,+234
132205,6.511,-0.355,-1.298,0.867995,0.505850,-3.277663,99910.52,+0,-84,+234
132215,7.222,-1.115,-1.899,0.848839,0.519153,-3.481994,99908.42,-1,-69,+241
132225,7.658,-2.165,-1.767,0.835004,0.546290,-3.688984,99908.42,-1,-60,+243
132235,7.943,-2.794,-1.251,0.799353,0.565446,-3.871498,99908.20,+0,-49,+240
132245,8.153,-2.880,-0.645,0.773280,0.589923,-4.047094,99908.82,+2,-36,+244
132255,8.525,-2.636,-0.129,0.805738,0.608015,-4.237589,99908.98,+2,-36,+244
132264,8.847,-2.855,0.500,0.924399,0.619189,-4.398818,99907.82,+7,-29,+246
132275,9.353,-3.257,0.593,1.047316,0.605354,-4.532378,99907.82,+10,-22,+243
132285,9.936,-3.970,0.338,1.138307,0.589923,-4.652635,99913.52,+17,-13,+248
132295,10.575,-4.778,0.113,1.139371,0.576088,-4.771296,99910.64,+17,-13,+248
132304,11.058,-5.333,0.236,1.011133,0.580345,-4.900066,99914.05,+23,-12,+251
132315,11.524,-5.650,0.555,0.792968,0.605354,-5.039479,99913.94,+25,-13,+249
132325,12.219,-5.961,0.834,0.548197,0.643844,-5.181375,99913.94,+29,-11,+254
132335,12.779,-6.369,1.106,0.419959,0.689428,-5.273607,99916.01,+29,-11,+254
132345,13.433,-7.294,1.108,0.380583,0.741042,-5.320433,99913.13,+29,-17,+255
132355,13.969,-7.951,1.274,0.432729,0.804363,-5.330010,99913.49,+25,-21,+254
132365,14.319,-8.018,1.529,0.562564,0.845868,-5.301277,99913.96,+24,-21,+259
132375,14.643,-8.069,1.638,0.754656,0.852785,-5.226781,99913.96,+24,-21,+259
132385,15.133,-8.689,1.718,0.927591,0.838951,-5.096415,99913.88,+19,-23,+260
132395,15.547,-10.088,1.863,1.027628,0.812345,-4.906451,99913.97,+12,-22,+259
132405,15.452,-12.102,1.941,0.989848,0.768712,-4.669130,99911.47,+9,-19,+264
132415,14.500,-13.977,2.223,0.797757,0.735189,-4.384984,99913.34,+9,-19,+264
132425,13.253,-14.890,2.774,0.481683,0.745299,-4.033259,99913.34,+3,-18,+265
132435,11.616,-15.200,3.309,0.182638,0.812345,-3.609700,99915.80,-2,-14,+264
132445,9.745,-16.905,3.151,-0.023289,0.894290,-3.088233,99915.48,-1,-12,+265
132455,8.099,-18.406,2.907,-0.413857,0.961336,-2.514086,99917.16,-1,-12,+265
132465,7.072,-18.962,2.475,-0.846995,0.985281,-1.890985,99917.89,-5,-14,+265
132475,6.691,-18.544,1.984,-1.235967,0.944840,-1.241812,99917.89,-6,-15,+263
132485,6.286,-18.000,0.964,-1.517453,0.832565,-0.550069,99917.23,-1,-19,+265
132495,6.126,-17.566,-0.385,-1.621214,0.667611,0.158169,99917.90,-1,-19,+265
132505,6.444,-17.658,-1.344,-1.562150,0.446254,0.903123,99915.13,-1,-28,+263
132515,7.352,-14.984,-0.687,-1.347178,0.152529,1.527820,99918.12,+0,-31,+261
132525,8.801,-9.002,6.125,-0.870940,-0.048608,1.880076,99918.12,+4,-36,+263
132535,17.185,-1.150,7.852,-0.610738,-0.343929,2.035985,99918.19,+4,-36,+263
132545,33.755,5.864,-6.386,-0.771967,-1.278314,2.139746,99918.34,+3,-41,+261
132555,32.540,-11.492,-2.116,0.904711,-1.152204,3.511525,99917.88,+1,-42,+260
132560,24.488,-18.904,1.035,2.034912,-0.863801,4.496993,99916.20,+1,-42,+260
132570,15.327,-14.596,0.926,1.684784,-0.683415,4.276699,99916.20,+6,-37,+263
132580,3.107,1.236,1.199,0.511482,-0.380645,3.583892,99916.20,+8,-39,+262
132590,-6.480,4.760,5.356,0.261922,-0.399269,3.311984,99919.00,+9,-38,+260
132600,-2.972,-5.213,5.069,1.250582,-0.555709,3.136388,99917.11,+9,-38,+260
132611,9.478,-14.588,0.972,1.585279,-0.928718,3.184277,99917.06,+14,-34,+265
132620,16.044,-15.165,-1.295,0.856821,-0.943617,2.975158,99917.06,+12,-35,+264
132630,15.280,-10.499,-0.453,-0.283490,-0.489195,2.461140,99918.62,+13,-36,+262
132640,10.942,-7.624,0.269,-1.094958,-0.191746,2.248296,99918.62,+13,-36,+262
132651,8.259,-3.686,0.155,-1.227985,-0.124700,2.068975,99916.52,+17,-42,+263
132660,7.285,-0.803,0.413,-0.791655,-0.024131,1.824205,99916.37,+18,-47,+260
132670,7.245,-2.184,1.266,-0.233472,-0.025728,1.824205,99917.26,+19,-49,+260
132680,8.491,-4.987,0.992,0.109739,-0.070957,1.775783,99917.26,+19,-49,+260
132690,9.591,-6.329,0.931,0.070895,0.023226,1.580499,99918.88,+24,-48,+263
132701,9.447,-6.076,1.318,-0.198885,0.159446,1.363930,99916.37,+25,-52,+260
132710,8.895,-5.054,1.857,-0.457490,0.245116,1.167049,99919.04,+26,-52,+260
132720,8.838,-4.501,2.059,-0.570830,0.271190,1.005820,99915.79,+26,-52,+260
132730,9.121,-4.260,2.077,-0.595307,0.270657,0.889820,99916.90,+32,-53,+261
132741,9.311,-3.743,2.120,-0.564444,0.266401,0.808939,99918.10,+31,-58,+258
132750,9.433,-3.217,2.227,-0.482499,0.260015,0.777013,99918.99,+33,-58,+258
132760,9.716,-2.989,2.396,-0.388316,0.233410,0.775416,99918.99,+33,-58,+258
132770,9.961,-3.283,2.495,-0.353729,0.198290,0.775949,99914.80,+37,-60,+260
132780,9.837,-3.621,2.599,-0.387784,0.191905,0.769563,99914.80,+37,-63,+256
132790,9.315,-3.640,2.791,-0.466536,0.209465,0.767435,99918.30,+38,-63,+256
132796,8.844,-3.519,2.857,-0.504316,0.227024,0.772224,99915.16,+38,-63,+256
132805,8.489,-3.112,3.170,-0.491013,0.234474,0.768499,99918.10,+43,-65,+257
132815,8.076,-2.919,3.368,-0.448976,0.217979,0.779673,99916.95,+42,-69,+255
132825,7.779,-3.069,3.280,-0.384591,0.185520,0.810536,99916.95,+42,-69,+255
132835,7.568,-3.524,2.957,-0.327655,0.149336,0.844591,99917.49,+44,-68,+255
132845,7.560,-3.745,2.679,-0.296793,0.114217,0.872260,99914.87,+48,-69,+256
132855,7.792,-3.847,2.652,-0.269655,0.070584,0.898334,99917.12,+48,-72,+254
132866,8.138,-3.721,2.703,-0.220701,0.021098,0.936646,99918.38,+48,-72,+254
132875,8.508,-3.603,2.639,-0.169619,-0.033177,0.995710,99918.38,+49,-71,+254
132885,8.622,-4.082,2.550,-0.099380,-0.074150,1.064352,99915.02,+54,-72,+255
132895,8.750,-4.727,2.004,-0.073839,-0.098095,1.125013,99918.85,+53,-74,+253
132905,9.030,-4.937,1.610,-0.125986,-0.100223,1.167049,99914.82,+53,-74,+253
132915,9.315,-5.363,1.405,-0.210059,-0.108205,1.195783,99914.87,+55,-72,+254
132925,9.678,-5.470,1.414,-0.321270,-0.099691,1.218664,99914.87,+58,-74,+254
132935,9.902,-5.454,1.846,-0.436206,-0.075214,1.240480,99916.70,+58,-77,+251
132945,10.085,-5.445,1.967,-0.518151,-0.072021,1.274535,99920.05,+58,-77,+251
132956,10.429,-5.505,1.757,-0.582536,-0.072021,1.320829,99915.71,+61,-76,+251
132965,10.860,-5.280,1.832,-0.650646,-0.068297,1.375636,99916.96,+65,-79,+251
132975,11.261,-5.286,1.978,-0.714499,-0.090113,1.462370,99916.96,+64,-83,+248
132985,11.672,-5.197,1.779,-0.773563,-0.126296,1.562939,99921.42,+64,-83,+248
132996,12.089,-5.181,1.801,-0.840077,-0.156627,1.684260,99918.08,+68,-83,+248
133005,12.776,-5.438,1.683,-0.889031,-0.205049,1.806645,99918.81,+72,-87,+247
133015,13.475,-5.430,1.505,-0.933729,-0.259856,1.923709,99916.72,+72,-92,+242
133025,13.990,-5.235,1.613,-0.992261,-0.311471,2.033856,99916.72,+72,-92,+242
133036,14.428,-5.292,1.838,-1.065160,-0.379581,2.146663,99918.78,+75,-92,+243
133045,14.751,-5.207,1.941,-1.184352,-0.425342,2.249361,99917.38,+80,-97,+241
133055,15.109,-4.801,1.906,-1.361545,-0.448755,2.339819,99915.95,+80,-102,+235
133065,15.669,-3.966,2.004,-1.574389,-0.477489,2.420700,99917.89,+80,-102,+235
133075,16.453,-3.149,2.046,-1.739875,-0.532828,2.496792,99917.89,+84,-106,+234
133086,17.692,-2.332,2.038,-1.913343,-0.605195,2.543085,99917.27,+89,-112,+229
133095,19.566,-1.186,2.086,-2.134700,-0.720131,2.526590,99917.78,+89,-122,+222
133105,21.373,0.851,2.471,-2.292205,-0.885617,2.455819,99915.84,+89,-122,+222
133115,22.136,1.888,3.485,-2.038920,-1.128259,2.425489,99917.38,+91,-126,+219
133126,22.054,-1.180,5.287,-1.076866,-1.450718,2.771360,99917.38,+94,-132,+217
133135,21.292,-4.319,6.882,-0.077564,-1.654516,3.300809,99916.97,+94,-135,+213
133145,19.539,-4.597,6.982,0.377390,-1.749231,3.382222,99917.23,+94,-135,+213
133155,16.956,-4.047,7.433,0.543408,-1.682717,3.354020,99916.34,+97,-134,+215
133166,15.812,-2.708,7.950,0.799353,-1.515103,3.306663,99913.09,+100,-135,+217
133175,14.501,0.231,8.263,1.104252,-1.306516,3.014002,99913.09,+99,-136,+216
133185,12.347,2.843,6.631,1.215995,-1.065470,2.430278,99916.23,+100,-136,+216
133195,9.293,1.694,1.126,0.928124,-1.073984,1.732682,99915.39,+100,-134,+220
133206,2.727,-9.208,1.585,0.566821,-0.886681,1.777379,99915.03,+99,-137,+221
133216,6.502,-8.007,3.926,0.001720,-0.683415,1.529948,99912.45,+96,-141,+218
133225,8.143,-0.293,3.683,-0.534114,-0.461526,0.153380,99912.45,+91,-147,+219
133235,6.892,2.463,3.960,-0.629894,-0.299764,-0.431408,99915.48,+91,-147,+219
133245,5.332,3.347,2.650,-0.519215,-0.270498,-0.660748,99915.91,+85,-153,+217
133256,4.968,3.110,1.434,-0.261674,-0.213030,-1.032160,99916.48,+76,-159,+213
133266,4.773,1.742,1.114,0.127476,-0.152192,-1.356215,99912.03,+67,-161,+217
133275,4.840,1.067,1.156,0.469977,-0.112994,-1.648876,99912.03,+67,-161,+217
133285,4.902,-0.146,0.904,0.758913,-0.072021,-1.971866,99913.81,+58,-164,+218
133296,4.993,-1.725,0.703,0.954197,-0.017746,-2.248563,99912.66,+47,-164,+218
133305,5.181,-2.623,0.822,1.122876,0.061538,-2.528453,99912.44,+35,-164,+224
133315,5.466,-2.219,0.863,1.260160,0.125391,-2.876985,99911.77,+35,-164,+224
133325,6.125,-1.209,0.727,1.384142,0.174878,-3.209021,99911.77,+23,-161,+228
133336,7.001,-0.633,0.604,1.524619,0.204144,-3.479333,99911.39,+8,-156,+229
133346,7.714,-1.228,0.831,1.634233,0.223300,-3.661847,99909.88,-3,-149,+237
133355,8.036,-2.555,0.869,1.652325,0.222768,-3.803920,99911.17,-3,-149,+237
133365,8.054,-3.772,0.472,1.543774,0.242988,-3.994415,99909.72,-17,-142,+242
133376,8.179,-4.348,0.134,1.266013,0.294070,-4.224287,99909.72,-32,-133,+242
133386,8.400,-4.344,0.037,0.871365,0.371404,-4.462672,99914.55,-44,-124,+247
133395,8.522,-4.225,0.303,0.639720,0.439336,-4.651039,99910.10,-44,-124,+247
133405,8.818,-4.314,0.370,0.440179,0.489887,-4.836213,99910.95,-57,-115,+249
133415,9.172,-4.330,0.370,0.262454,0.546290,-5.018726,99912.46,-68,-103,+247
133426,9.769,-4.235,0.282,0.113464,0.610676,-5.201240,99912.46,-78,-91,+250
133436,10.641,-3.885,0.119,0.054399,0.663886,-5.359277,99911.91,-78,-91,+250
133445,11.719,-3.987,0.134,0.169335,0.687831,-5.476873,99913.84,-85,-77,+249
133455,12.976,-4.903,-0.128,0.416766,0.666547,-5.533809,99912.86,-91,-62,+246
133466,13.765,-6.222,-0.519,0.631206,0.628767,-5.587019,99911.48,-94,-43,+249
133475,14.138,-7.168,-0.619,0.763170,0.585134,-5.621607,99911.48,-94,-43,+249
133485,14.446,-8.511,-0.516,0.925463,0.509043,-5.592873,99911.59,-95,-25,+246
133495,14.749,-10.492,0.078,1.035610,0.405813,-5.508800,99912.48,-94,-6,+241
133506,14.685,-12.405,0.825,1.134050,0.295134,-5.382157,99913.69,-89,+10,+241
133516,14.544,-14.067,1.668,1.177683,0.204676,-5.207093,99913.58,-89,+10,+241
133525,14.041,-15.739,2.322,1.151610,0.163703,-4.933057,99913.58,-85,+25,+235
133535,12.748,-17.128,3.077,1.103720,0.203079,-4.549938,99914.72,-78,+36,+229
133545,11.161,-18.558,4.072,1.122344,0.281300,-4.056140,99915.66,-72,+46,+228
133556,9.050,-20.948,4.671,1.093078,0.358988,-3.484654,99914.92,-72,+46,+228
133566,6.904,-23.217,4.719,0.842986,0.474455,-2.821113,99915.03,-67,+52,+223
133575,5.309,-24.625,4.172,0.383775,0.656969,-2.088930,99915.03,-62,+54,+220
133585,4.130,-25.406,3.722,-0.346811,0.767116,-1.295023,99916.85,-56,+54,+222
133596,3.380,-24.339,3.274,-1.081655,0.722419,-0.488344,99916.27,-56,+54,+222
133606,3.793,-22.153,4.063,-1.436040,0.593116,0.260334,99917.16,-53,+48,+220
133615,6.724,-18.123,6.577,-1.446150,0.476584,0.994114,99917.10,-51,+42,+218
133621,12.026,-10.462,7.396,-1.479141,0.325997,1.253251,99917.10,-51,+42,+218
133630,22.321,-4.865,-0.590,-1.631856,-0.291250,1.495893,99917.10,-49,+36,+220
133641,42.422,0.552,-13.176,-1.658994,-1.422516,2.276498,99918.82,-52,+27,+217
133651,30.325,-7.927,1.262,0.100161,-0.606259,3.540259,99920.24,-51,+23,+214
133660,15.144,-11.201,5.810,1.692233,-0.179507,4.189433,99915.88,-51,+23,+214
133670,5.455,-5.784,1.575,1.740655,-0.456737,4.051085,99915.88,-49,+23,+215
133681,-4.494,0.917,3.144,1.515041,-0.385966,3.431176,99918.53,-49,+20,+212
133691,-3.605,-2.244,6.689,1.833242,-0.346590,2.930993,99915.34,-48,+21,+212
133700,5.215,-12.077,4.566,2.086526,-0.536553,2.916626,99915.34,-48,+21,+212
133710,14.289,-16.144,-1.270,1.325077,-0.861672,2.838938,99917.53,-48,+23,+213
133721,16.314,-12.612,-1.270,0.237445,-0.502498,2.354186,99919.06,-49,+20,+210
133731,12.681,-7.306,0.471,-0.568169,-0.110865,1.980645,99919.06,-49,+16,+209
133740,9.028,-4.586,1.124,-0.796444,-0.012957,1.935416,99918.01,-49,+16,+209
133750,7.189,-1.927,1.626,-0.379802,-0.008168,1.837508,99916.49,-47,+13,+212
133761,6.581,-1.284,1.348,0.260858,-0.046480,1.714590,99915.55,-46,+9,+209
133771,8.034,-2.994,0.901,0.711555,-0.085324,1.670425,99916.80,-45,+9,+209
133781,10.172,-5.109,0.547,0.716344,-0.057654,1.605508,99918.55,-45,+9,+209
133790,10.766,-5.845,0.683,0.372069,0.036529,1.502810,99918.55,-44,+9,+212
133800,9.536,-5.440,1.270,-0.072243,0.147740,1.342113,99918.55,-44,+6,+210
133811,8.706,-4.449,1.646,-0.406408,0.215850,1.171306,99918.98,-42,+5,+210
133821,8.493,-4.043,1.389,-0.594775,0.246180,1.016994,99918.98,-42,+5,+210
133830,9.023,-3.658,1.073,-0.651710,0.295667,0.910040,99918.98,-41,+3,+212
133840,9.515,-3.432,1.220,-0.612866,0.347281,0.857893,99918.57,-39,-1,+209
133851,9.551,-3.142,1.482,-0.523472,0.381336,0.837673,99919.30,-37,-4,+210
133861,9.297,-2.889,1.722,-0.422903,0.404749,0.835545,99917.52,-37,-4,+210
133871,8.994,-3.110,2.274,-0.387252,0.412731,0.844591,99914.65,-36,-4,+213
133880,9.028,-3.507,2.752,-0.459619,0.391446,0.844591,99914.65,-34,-8,+210
133891,9.102,-3.711,3.006,-0.593178,0.360584,0.827031,99921.31,-33,-9,+210
133901,9.141,-3.530,3.005,-0.692683,0.326529,0.817453,99918.02,-32,-9,+212
133911,9.102,-3.202,2.802,-0.696408,0.284492,0.830224,99916.28,-32,-12,+212
133920,8.903,-3.118,2.362,-0.600096,0.236070,0.862150,99916.28,-30,-16,+209
133931,8.957,-3.270,2.100,-0.465472,0.190309,0.915893,99916.28,-28,-18,+210
133941,9.025,-3.471,2.179,-0.365967,0.145079,0.972297,99918.00,-27,-19,+211
133951,9.001,-3.501,2.305,-0.295197,0.101979,1.032958,99919.52,-27,-19,+211
133960,8.963,-3.477,2.671,-0.243050,0.074841,1.103196,99919.20,-26,-22,+208
133971,8.923,-3.583,2.905,-0.218041,0.031208,1.177337,99915.02,-24,-23,+209
133981,9.038,-3.650,2.920,-0.220701,0.008859,1.250590,99915.02,-23,-25,+211
133991,9.354,-3.862,2.903,-0.234536,0.000346,1.327746,99917.28,-23,-25,+211
134001,9.766,-4.196,2.981,-0.268059,-0.003911,1.397453,99917.44,-21,-29,+207
134010,9.912,-4.788,3.022,-0.335105,0.020034,1.470352,99916.06,-19,-30,+208
134021,10.030,-5.375,2.723,-0.487288,0.059942,1.529948,99915.29,-17,-32,+209
134031,10.079,-5.497,2.119,-0.682573,0.094529,1.581031,99919.16,-17,-32,+209
134041,10.178,-5.435,1.819,-0.865618,0.123795,1.642223,99917.49,-15,-37,+205
134050,10.665,-5.248,1.503,-0.981618,0.108364,1.727361,99917.49,-12,-40,+205
134061,11.127,-4.950,1.274,-1.034829,0.054089,1.815691,99916.96,-9,-45,+205
134071,11.455,-4.793,1.031,-0.981086,-0.021471,1.931691,99916.13,-9,-45,+205
134081,11.787,-5.020,0.671,-0.870940,-0.090645,2.049819,99916.13,-7,-50,+202
134090,12.066,-5.467,0.276,-0.778352,-0.163544,2.153581,99921.11,-4,-53,+202
134100,12.415,-5.704,0.233,-0.751215,-0.238040,2.248296,99918.19,-1,-56,+201
134111,12.741,-5.836,0.784,-0.765582,-0.304021,2.337159,99918.97,-1,-56,+201
134121,13.115,-6.022,1.415,-0.813472,-0.345526,2.405801,99919.48,+1,-61,+196
134131,13.623,-5.927,2.158,-0.920426,-0.349783,2.465397,99919.48,+4,-64,+196
134140,14.181,-5.886,2.836,-1.101875,-0.317856,2.520204,99916.75,+7,-68,+196
134151,14.752,-5.674,3.145,-1.364205,-0.247617,2.557984,99918.27,+7,-68,+196
134161,15.361,-4.802,3.333,-1.716994,-0.141728,2.591507,99916.13,+12,-73,+189
134171,16.131,-3.604,3.254,-2.136829,-0.033177,2.615984,99916.13,+17,-79,+187
134180,17.395,-2.323,2.656,-2.557728,0.001942,2.581929,99916.13,+23,-87,+183
134191,19.327,-0.020,2.366,-2.822718,-0.112462,2.412718,99918.44,+23,-87,+183
134201,20.610,0.648,2.006,-2.617856,-0.326370,2.285012,99919.66,+28,-93,+174
134206,21.129,-1.372,1.973,-2.068719,-0.577526,2.429214,99918.19,+33,-98,+172
134215,21.359,-4.377,2.976,-1.359948,-0.828681,2.767635,99916.92,+33,-98,+172
134225,21.053,-6.401,4.157,-0.578279,-1.042589,3.061892,99916.92,+39,-100,+169
134236,19.294,-5.051,5.125,-0.225490,-1.174021,3.010278,99921.02,+44,-101,+165
134246,16.759,-3.985,6.851,0.097500,-1.230956,3.033690,99917.66,+48,-100,+167
134256,15.596,-3.603,7.766,0.593427,-1.226167,3.109782,99915.83,+48,-100,+167
134265,13.845,-1.143,8.052,1.099995,-1.108571,2.874057,99918.23,+55,-97,+167
134276,11.563,1.297,5.805,1.208013,-0.937764,2.265856,99918.23,+60,-95,+166
134286,7.440,-0.951,1.691,0.876509,-0.937232,1.647544,99915.80,+62,-93,+170
134296,2.549,-9.691,2.178,0.468913,-0.713214,1.758223,99916.76,+62,-93,+170
134305,6.740,-5.661,2.316,-0.268591,-0.575397,1.201636,99918.27,+67,-90,+168
134316,6.991,0.137,3.189,-0.533050,-0.333287,0.168279,99913.51,+69,-93,+165
134326,5.181,1.734,2.832,-0.328365,-0.285575,-0.216791,99913.51,+69,-92,+167
134336,3.734,1.992,1.897,-0.062133,-0.245489,-0.544216,99919.45,+69,-92,+167
134346,3.501,1.006,1.274,0.223078,-0.162480,-0.944362,99914.79,+70,-91,+166
134355,3.425,0.297,1.091,0.502968,-0.095966,-1.309922,99915.52,+69,-90,+165
134366,3.211,-0.036,0.911,0.716876,-0.042223,-1.677609,99912.27,+67,-87,+168
134376,3.307,-0.714,0.721,0.856821,0.026419,-2.011242,99912.27,+67,-87,+168
134386,4.029,-0.821,-0.067,0.888747,0.099850,-2.379462,99918.00,+67,-86,+169
134395,4.870,-0.463,-0.969,0.896197,0.191373,-2.756196,99916.53,+64,-84,+169
134406,5.581,-0.617,-1.638,0.944619,0.266933,-3.059499,99913.17,+62,-81,+173
134416,6.049,-1.333,-2.063,1.033481,0.300988,-3.286709,99914.55,+62,-81,+173
134426,6.356,-2.351,-2.000,1.127133,0.302584,-3.500085,99914.55,+60,-79,+173
134435,6.613,-3.094,-1.597,1.218123,0.260547,-3.744324,99913.11,+56,-77,+174
134441,6.845,-3.615,-1.381,1.261224,0.219575,-3.940140,99913.00,+56,-77,+174
134451,7.226,-3.720,-1.137,1.241004,0.193501,-4.123718,99913.00,+53,-74,+179
134461,7.677,-3.280,-0.350,1.182472,0.192437,-4.319534,99909.55,+50,-72,+180
134471,8.218,-2.722,0.811,1.190986,0.192437,-4.461075,99908.77,+46,-71,+180
134481,8.739,-3.562,1.323,1.219720,0.173813,-4.555259,99908.77,+46,-71,+180
134491,9.219,-5.238,1.110,1.107445,0.161575,-4.649442,99910.00,+42,-67,+183
134501,9.735,-6.525,0.512,0.827555,0.189245,-4.794708,99913.44,+38,-67,+183
134511,10.243,-6.879,0.346,0.508289,0.258951,-4.937314,99911.81,+32,-68,+181
134520,10.689,-6.465,0.375,0.259794,0.319079,-5.055974,99911.81,+32,-68,+181
134531,11.168,-5.972,0.672,0.177317,0.360052,-5.148561,99911.81,+27,-68,+183
134541,11.593,-5.953,0.953,0.274693,0.375483,-5.206029,99912.40,+20,-69,+179
134551,11.980,-6.110,1.221,0.515738,0.371758,-5.213479,99914.96,+10,-69,+178
134561,12.329,-6.359,1.640,0.816381,0.359520,-5.198579,99912.49,+10,-69,+178
134571,12.809,-7.545,1.801,1.045720,0.348345,-5.167717,99912.18,+4,-66,+180
134581,13.501,-8.658,1.619,1.041995,0.346217,-5.158671,99912.18,-4,-64,+177
134591,14.038,-9.306,1.525,0.853096,0.352602,-5.140048,99917.05,-13,-60,+176
134601,14.176,-9.424,1.446,0.604069,0.365373,-5.085240,99913.96,-13,-60,+176
134611,14.004,-9.353,1.452,0.413573,0.373355,-4.970837,99915.46,-21,-57,+178
134621,13.629,-9.545,1.681,0.284803,0.366969,-4.794176,99915.46,-30,-52,+175
134631,12.951,-9.901,2.124,0.206051,0.379740,-4.564305,99918.35,-37,-48,+175
134641,12.326,-10.195,2.478,0.195941,0.429758,-4.286543,99918.35,-37,-48,+175
134651,11.768,-10.732,2.583,0.260326,0.510107,-3.961957,99917.20,-42,-43,+177
134661,11.293,-11.595,2.567,0.316729,0.631960,-3.596397,99915.68,-46,-39,+175
134671,10.738,-12.712,2.235,0.222014,0.758070,-3.194122,99919.24,-49,-34,+176
134681,10.098,-13.648,1.745,-0.085013,0.862363,-2.753536,99919.24,-49,-34,+176
134691,9.388,-14.377,1.423,-0.516554,0.924088,-2.278361,99918.95,-50,-31,+179
134702,8.267,-14.622,1.547,-0.927343,0.923556,-1.749976,99917.90,-52,-32,+178
134711,7.204,-14.136,1.784,-1.167325,0.850657,-1.174234,99919.26,-53,-35,+178
134721,6.835,-13.107,1.399,-1.185416,0.697942,-0.552729,99917.09,-53,-35,+178
134731,7.092,-11.778,0.898,-0.983215,0.485630,0.066646,99921.02,-52,-38,+179
134742,7.019,-11.421,0.614,-0.650646,0.261079,0.634939,99916.99,-53,-42,+177
134751,6.571,-11.663,1.164,-0.335105,0.081226,1.136187,99918.09,-53,-45,+178
134761,6.995,-11.600,1.687,-0.125986,-0.043287,1.526223,99918.09,-53,-45,+178
134771,8.446,-8.774,6.576,0.102821,-0.050737,1.792278,99917.09,-51,-48,+179
134780,14.143,-0.929,9.773,0.038436,-0.030517,1.670957,99917.09,-51,-52,+178
134791,28.212,5.193,-6.038,-0.410132,-0.797819,1.751306,99915.09,-53,-56,+178
134797,32.753,-3.261,-10.551,0.119317,-1.167103,2.446241,99917.23,-53,-56,+178
134806,27.365,-14.461,-0.987,1.443738,-0.745140,3.404039,99918.08,-51,-58,+179
134816,19.884,-15.987,1.437,1.600710,-0.288590,3.824938,99915.98,-48,-60,+179
134825,10.431,-5.320,0.394,0.444968,-0.089581,3.504075,99915.98,-48,-60,+179
134836,0.010,2.524,1.923,-0.074371,-0.059783,3.255048,99918.45,-43,-64,+181
134846,-3.068,1.904,4.531,0.403463,-0.190682,2.897470,99921.54,-39,-67,+181
134856,2.768,-4.798,5.462,0.954197,-0.279012,2.548406,99917.65,-39,-69,+181
134866,9.994,-11.749,3.365,0.959518,-0.404058,2.461672,99915.88,-39,-69,+181
134876,15.389,-12.967,1.042,0.484344,-0.494516,2.407397,99915.88,-37,-69,+183
134886,14.913,-9.025,1.243,-0.088206,-0.263581,2.047691,99918.84,-33,-73,+184
134896,10.695,-5.296,1.522,-0.495270,-0.041159,1.741196,99917.80,-32,-76,+181
134906,7.995,-3.204,1.709,-0.542096,-0.032113,1.675214,99915.81,-32,-76,+181
134916,7.301,-2.467,1.367,-0.238793,-0.089049,1.571453,99917.17,-30,-79,+183
134926,7.789,-3.298,0.998,0.085794,-0.105012,1.449067,99917.17,-28,-79,+183
134936,9.358,-4.562,1.096,0.192216,-0.064040,1.336260,99917.05,-26,-81,+181
134946,10.401,-4.892,1.443,0.066106,0.009392,1.228242,99918.41,-26,-81,+181
134957,10.083,-3.964,1.663,-0.184518,0.074309,1.125545,99914.74,-24,-82,+183
134966,9.028,-3.383,1.944,-0.304243,0.111024,1.020719,99915.12,-21,-83,+183
134976,8.720,-3.362,1.818,-0.307967,0.098786,0.941967,99915.12,-21,-87,+180
134986,9.137,-3.209,1.701,-0.294665,0.106768,0.855233,99920.25,-21,-87,+180
134996,9.528,-3.002,1.821,-0.332444,0.140823,0.797233,99917.47,-18,-87,+181
135006,9.502,-2.722,1.899,-0.356389,0.181795,0.767967,99918.05,-16,-88,+182
135016,9.205,-2.275,2.180,-0.281362,0.224896,0.758921,99919.20,-14,-91,+179
135026,9.041,-1.773,2.845,-0.169087,0.219575,0.753600,99919.20,-14,-91,+179
135031,8.837,-1.939,2.943,-0.152059,0.191905,0.757325,99917.07,-12,-91,+181
135041,8.719,-2.141,2.979,-0.129179,0.181263,0.773820,99917.07,-11,-91,+181
135051,8.751,-2.406,2.984,-0.132371,0.159446,0.810004,99918.18,-11,-91,+181
135061,8.921,-2.693,2.513,-0.168023,0.123795,0.850976,99917.91,-10,-93,+179
135071,9.208,-2.688,2.144,-0.193564,0.095593,0.896205,99916.13,-7,-95,+181
135081,9.368,-2.356,2.317,-0.162701,0.078034,0.949416,99916.81,-5,-96,+181
135092,9.295,-2.478,2.183,-0.101509,0.051960,1.034554,99917.66,-5,-96,+181
135101,9.035,-2.983,2.013,-0.031802,0.042382,1.119691,99915.61,-4,-97,+179
135111,8.914,-3.407,1.892,-0.030738,0.050364,1.182480,99915.61,-1,-96,+181
135121,8.988,-3.385,1.986,-0.125986,0.056749,1.231435,99915.97,+0,-99,+181
135131,9.024,-3.227,2.227,-0.224426,0.065263,1.284646,99915.97,+0,-99,+181
135141,9.091,-3.226,2.383,-0.256885,0.063135,1.347435,99921.07,+1,-100,+179
135147,9.278,-3.143,2.196,-0.240389,0.034401,1.407563,99917.46,+5,-102,+181
135156,9.594,-2.759,2.440,-0.139289,0.005135,1.467159,99915.46,+5,-102,+181
135166,9.770,-3.125,2.900,-0.010518,-0.039030,1.552297,99917.46,+8,-102,+180
135176,9.651,-4.023,3.109,0.072491,-0.070957,1.635306,99917.46,+10,-104,+179
135186,9.219,-5.050,3.137,0.012895,-0.072553,1.684260,99922.07,+14,-104,+181
135196,8.926,-5.697,3.100,-0.128646,-0.049673,1.694902,99917.35,+14,-104,+181
135206,8.827,-6.302,2.802,-0.337233,-0.011893,1.674150,99917.51,+17,-106,+180
135217,8.907,-6.488,2.829,-0.576151,0.059410,1.644884,99915.15,+19,-108,+178
135226,9.437,-6.037,2.889,-0.819857,0.115281,1.621471,99915.15,+23,-110,+178
135236,10.048,-5.336,2.924,-0.935857,0.108364,1.625728,99917.52,+23,-110,+178
135246,10.500,-5.352,2.917,-0.909784,0.089208,1.667232,99916.52,+27,-114,+176
135257,11.221,-5.760,2.217,-0.865618,0.063135,1.733214,99917.05,+30,-116,+173
135267,12.164,-5.930,1.432,-0.925747,0.039012,1.823673,99917.26,+34,-118,+173
135276,12.796,-5.816,1.355,-1.009820,0.031208,1.919452,99917.26,+34,-118,+173
135286,13.535,-5.759,1.086,-1.085380,0.018437,2.051416,99918.63,+37,-120,+170
135297,14.108,-5.622,0.935,-1.151361,-0.010297,2.194553,99915.39,+42,-123,+167
135306,14.546,-5.354,1.023,-1.205637,-0.057122,2.330773,99918.22,+47,-124,+168
135316,14.793,-5.089,1.469,-1.255123,-0.091709,2.471782,99913.92,+47,-124,+168
135326,14.628,-5.365,1.882,-1.339728,-0.092774,2.605342,99913.92,+51,-127,+165
135336,14.650,-5.310,1.943,-1.529159,-0.058719,2.693672,99919.18,+58,-129,+160
135347,15.073,-5.146,1.923,-1.822884,0.001410,2.751672,99917.04,+64,-132,+158
135356,16.468,-4.429,1.689,-2.202278,0.048236,2.776681,99918.82,+64,-132,+158
