110003,9.474,-2.112,2.112,0.010527,0.011177,-0.001743,100041.98,-77,-198,-17
110013,9.422,-2.111,2.191,0.005206,0.012241,-0.004936,100041.98,-77,-198,-17
110023,9.422,-2.073,2.167,0.002545,0.011709,-0.006532,100041.60,-78,-198,-18
110032,9.440,-2.074,2.197,0.003077,0.011709,-0.004936,100042.29,-78,-199,-17
110043,9.425,-2.083,2.176,0.004674,0.011177,-0.003340,100043.24,-78,-199,-17
110053,9.435,-2.044,2.177,0.005206,0.011177,-0.001743,100042.02,-79,-198,-18
110063,9.462,-2.061,2.141,0.008931,0.011709,-0.000147,100042.02,-78,-198,-17
110073,9.470,-2.112,2.143,0.011059,0.012773,-0.000679,100041.24,-79,-199,-17
110083,9.469,-2.087,2.142,0.011059,0.012241,-0.003340,100040.32,-79,-199,-17
110093,9.452,-2.092,2.183,0.011591,0.013837,-0.003340,100038.16,-78,-198,-17
110103,9.453,-2.101,2.147,0.013187,0.014369,-0.003872,100038.16,-79,-198,-17
110112,9.432,-2.098,2.157,0.013187,0.014369,-0.004936,100038.16,-78,-198,-18
110123,9.410,-2.088,2.181,0.009463,0.014369,-0.005468,100043.85,-78,-198,-18
110133,9.438,-2.073,2.197,0.007334,0.014901,-0.006532,100038.98,-78,-198,-17
110143,9.437,-2.059,2.179,0.007334,0.014369,-0.007064,100040.45,-79,-198,-17
110148,9.416,-2.039,2.205,0.008931,0.014369,-0.006000,100039.23,-79,-198,-17
110157,9.440,-2.019,2.202,0.009995,0.015433,-0.006000,100039.23,-79,-198,-17
110168,9.456,-2.021,2.206,0.013720,0.013837,-0.003340,100039.72,-78,-198,-17
110178,9.459,-2.055,2.190,0.014784,0.014369,-0.002808,100040.97,-78,-198,-17
110188,9.458,-2.073,2.195,0.014784,0.014901,-0.004404,100038.77,-79,-198,-17
110198,9.449,-2.055,2.195,0.012655,0.014369,-0.004404,100040.97,-78,-198,-16
110208,9.453,-2.077,2.159,0.012123,0.013837,-0.004404,100040.97,-78,-198,-17
110218,9.433,-2.088,2.219,0.011059,0.014369,-0.003872,100043.95,-78,-198,-17
110228,9.419,-2.052,2.205,0.010527,0.014369,-0.004404,100039.95,-78,-198,-16
110238,9.431,-2.064,2.203,0.008931,0.013305,-0.002808,100040.01,-77,-199,-17
110247,9.443,-2.035,2.223,0.007866,0.013837,-0.003340,100038.21,-78,-198,-17
110258,9.451,-2.040,2.227,0.009995,0.014369,-0.001743,100038.21,-79,-198,-17
110268,9.481,-2.065,2.202,0.011059,0.014901,-0.000679,100043.00,-79,-198,-17
110278,9.455,-2.094,2.185,0.011059,0.014369,-0.002808,100041.84,-78,-199,-17
110287,9.414,-2.087,2.194,0.010527,0.015966,-0.004936,100038.95,-79,-198,-16
110298,9.425,-2.079,2.177,0.009995,0.015966,-0.005468,100041.53,-79,-198,-17
110308,9.428,-2.074,2.189,0.008931,0.017030,-0.006000,100041.53,-79,-198,-17
110318,9.459,-2.044,2.179,0.007866,0.017030,-0.004936,100042.55,-78,-198,-16
110328,9.461,-2.034,2.207,0.007866,0.017562,-0.004404,100038.41,-79,-198,-15
110338,9.439,-2.058,2.199,0.009463,0.017562,-0.003340,100038.25,-79,-198,-16
110348,9.418,-2.010,2.233,0.008931,0.017562,-0.001211,100039.61,-79,-198,-16
110358,9.412,-2.010,2.236,0.010527,0.017562,0.000917,100039.61,-78,-198,-17
110368,9.452,-2.047,2.252,0.012655,0.017030,0.001449,100041.56,-79,-199,-15
110377,9.463,-2.050,2.215,0.013720,0.017562,0.001449,100040.52,-79,-198,-16
110388,9.463,-2.086,2.212,0.013720,0.017562,0.000917,100037.05,-79,-198,-16
110398,9.465,-2.044,2.193,0.013720,0.017562,0.002514,100037.63,-79,-198,-15
110408,9.451,-2.041,2.221,0.013720,0.017562,0.001449,100037.63,-79,-198,-16
110417,9.419,-2.085,2.255,0.012655,0.017562,0.001981,100041.84,-79,-198,-16
110428,9.403,-2.076,2.275,0.011059,0.016498,0.002514,100040.05,-79,-198,-16
110438,9.418,-2.030,2.242,0.011059,0.015433,0.002514,100040.10,-79,-198,-15
110448,9.459,-2.051,2.234,0.011591,0.015433,0.003578,100038.12,-80,-198,-15
110457,9.479,-2.035,2.215,0.011591,0.015966,0.005706,100038.12,-79,-198,-16
110468,9.470,-2.040,2.212,0.011059,0.015966,0.006770,100043.49,-79,-198,-16
110478,9.437,-2.061,2.220,0.012123,0.018626,0.007835,100043.29,-79,-199,-15
110488,9.439,-2.044,2.234,0.016912,0.018626,0.009963,100039.60,-79,-199,-15
110498,9.437,-2.090,2.280,0.020992,0.019336,0.009254,100040.29,-79,-199,-15
110508,9.431,-2.069,2.268,0.020105,0.019158,0.009431,100040.29,-79,-199,-15
110518,9.419,-2.037,2.303,0.016380,0.017030,0.009431,100040.76,-79,-198,-15
110528,9.440,-2.021,2.279,0.016380,0.014901,0.013156,100040.87,-78,-198,-15
110538,9.501,-2.039,2.276,0.018509,0.013305,0.016348,100040.76,-79,-198,-15
110547,9.452,-2.030,2.263,0.018509,0.011177,0.017413,100039.24,-79,-198,-15
110558,9.438,-1.990,2.245,0.019573,0.011709,0.019009,100039.24,-78,-198,-15
110568,9.452,-2.038,2.218,0.024362,0.012773,0.023798,100042.16,-79,-198,-15
110578,9.415,-2.055,2.178,0.026490,0.015433,0.023266,100042.52,-79,-199,-15
110588,9.425,-2.089,2.208,0.028619,0.018626,0.022734,100042.20,-79,-199,-15
110598,9.418,-2.116,2.243,0.030215,0.020222,0.021669,100041.78,-78,-199,-14
110608,9.410,-2.125,2.213,0.028087,0.022351,0.019009,100041.78,-78,-200,-15
110618,9.443,-2.113,2.225,0.023830,0.023947,0.017945,100041.73,-79,-198,-15
110628,9.428,-2.081,2.223,0.021169,0.024479,0.016348,100040.90,-79,-198,-15
110638,9.406,-2.040,2.264,0.023830,0.025543,0.016348,100042.63,-77,-198,-15
110648,9.449,-2.026,2.296,0.029683,0.025011,0.021137,100039.84,-79,-199,-14
110658,9.419,-1.996,2.274,0.036600,0.022351,0.024330,100039.84,-78,-200,-13
110668,9.383,-2.026,2.234,0.044582,0.022351,0.027523,100041.42,-78,-200,-13
110678,9.434,-2.074,2.212,0.049903,0.017562,0.033376,100041.02,-78,-199,-14
110688,9.443,-2.065,2.291,0.049371,0.012773,0.037633,100040.02,-79,-200,-14
110698,9.428,-2.190,2.244,0.046178,0.009580,0.035504,100040.75,-77,-200,-13
110708,9.386,-2.215,2.159,0.033940,0.009048,0.030715,100040.75,-77,-200,-12
110718,9.394,-2.140,2.218,0.017976,0.015433,0.028587,100039.98,-77,-199,-12
110728,9.325,-2.111,2.214,0.012123,0.020222,0.027523,100040.24,-78,-199,-13
110738,9.394,-2.061,2.158,0.020105,0.018626,0.029651,100039.62,-78,-199,-13
110748,9.390,-1.945,2.219,0.034472,0.008516,0.031247,100040.15,-77,-200,-12
110758,9.293,-1.874,2.231,0.066398,0.005323,0.034440,100040.15,-77,-200,-12
110768,9.321,-1.984,2.254,0.110564,0.012773,0.041890,100039.04,-77,-200,-13
110778,9.395,-2.063,2.221,0.132380,0.018094,0.044550,100039.35,-77,-200,-13
110788,9.385,-2.087,2.242,0.136637,0.022883,0.041358,100040.20,-78,-200,-11
110798,9.397,-2.064,2.469,0.149408,0.007984,0.041890,100040.35,-78,-200,-11
110808,9.248,-1.973,2.720,0.179206,-0.028200,0.038697,100040.35,-77,-200,-11
110818,9.192,-2.153,2.594,0.219646,-0.026603,0.030183,100043.82,-77,-200,-11
110828,9.213,-2.559,2.398,0.229756,-0.008512,0.016881,100041.24,-77,-201,-10
110838,9.129,-2.527,2.345,0.191444,0.012773,-0.003340,100039.15,-77,-201,-10
110849,9.022,-2.381,2.215,0.139830,0.036186,-0.018771,100038.73,-77,-200,-10
110858,9.189,-2.302,2.145,0.097261,0.061195,-0.028349,100038.73,-77,-201,-10
110868,9.520,-2.336,2.171,0.054692,0.084076,-0.036330,100042.93,-77,-200,-9
110878,9.583,-2.267,2.136,-0.003308,0.107488,-0.052294,100041.88,-77,-200,-9
110888,9.583,-2.251,2.165,-0.057583,0.123452,-0.061340,100038.68,-77,-200,-8
110898,9.663,-2.057,2.375,-0.093234,0.133562,-0.064000,100038.79,-77,-200,-9
110908,9.641,-2.093,2.590,-0.100152,0.137819,-0.068257,100038.79,-79,-200,-9
110918,9.524,-2.188,2.737,-0.101748,0.138351,-0.073046,100043.95,-79,-200,-9
110928,9.522,-2.270,2.698,-0.138464,0.127709,-0.077303,100042.47,-78,-200,-9
110939,9.637,-2.158,2.664,-0.192207,0.113874,-0.084220,100040.38,-79,-199,-9
110948,9.780,-1.935,2.803,-0.228922,0.096846,-0.078367,100039.27,-79,-200,-10
110958,9.760,-1.771,2.882,-0.226262,0.073433,-0.069321,100039.27,-79,-200,-10
110968,9.631,-1.824,2.915,-0.196464,0.048779,-0.053181,100039.71,-79,-200,-11
110979,9.542,-1.886,2.851,-0.186886,0.029800,-0.040055,100040.62,-79,-200,-11
110988,9.544,-1.985,2.796,-0.191675,0.011177,-0.027285,100039.82,-79,-199,-11
110998,9.596,-2.020,2.582,-0.208702,-0.006915,-0.019303,100038.55,-79,-199,-11
111008,9.492,-1.960,2.513,-0.225198,-0.015429,-0.016642,100038.55,-79,-199,-13
111019,9.453,-1.961,2.458,-0.222005,-0.029264,-0.008661,100041.52,-79,-198,-13
111028,9.463,-2.057,2.372,-0.194335,-0.037245,-0.009193,100041.16,-79,-198,-14
111038,9.367,-2.191,2.303,-0.168262,-0.037245,-0.016110,100042.16,-79,-198,-14
111048,9.358,-2.296,2.324,-0.169858,-0.034053,-0.023560,100037.91,-80,-198,-15
111058,9.420,-2.277,2.296,-0.178372,-0.032989,-0.036863,100037.91,-79,-198,-15
111069,9.380,-2.222,2.313,-0.178904,-0.028200,-0.050697,100042.44,-80,-198,-16
111078,9.291,-2.153,2.323,-0.178372,-0.021814,-0.058679,100041.81,-80,-198,-16
111088,9.312,-2.124,2.257,-0.181565,-0.019154,-0.064000,100040.97,-79,-197,-17
111098,9.449,-2.073,2.220,-0.183161,-0.015429,-0.066661,100039.50,-79,-198,-17
111109,9.449,-2.038,2.252,-0.184225,-0.010640,-0.066129,100039.50,-80,-197,-18
111118,9.378,-2.015,2.254,-0.180501,-0.007447,-0.064532,100040.37,-80,-197,-18
111128,9.343,-2.049,2.257,-0.180501,-0.005319,-0.061872,100041.59,-80,-197,-17
111138,9.324,-2.014,2.351,-0.185822,-0.006915,-0.056551,100041.43,-80,-196,-18
111149,9.350,-1.980,2.493,-0.181565,-0.014897,-0.044312,100039.01,-81,-196,-20
111158,9.349,-2.032,2.516,-0.170923,-0.026603,-0.035266,100039.01,-81,-196,-20
111168,9.323,-2.035,2.528,-0.178372,-0.038842,-0.026220,100042.34,-81,-196,-19
111178,9.333,-1.948,2.548,-0.196996,-0.055869,-0.013982,100042.86,-81,-196,-20
111188,9.337,-1.735,2.559,-0.198060,-0.070236,0.001981,100042.34,-81,-196,-21
111199,9.368,-1.696,2.530,-0.173051,-0.083007,0.023798,100038.19,-81,-196,-21
111204,9.455,-1.697,2.401,-0.146445,-0.092053,0.038697,100038.19,-81,-196,-21
111213,9.488,-1.772,2.360,-0.124097,-0.097374,0.054128,100038.19,-81,-195,-23
111223,9.536,-1.906,2.249,-0.104409,-0.103227,0.073816,100043.84,-81,-195,-23
111234,9.570,-2.083,2.173,-0.095895,-0.105888,0.087119,100041.84,-80,-196,-23
111244,9.511,-2.126,2.205,-0.096427,-0.107484,0.090312,100041.05,-79,-196,-23
111253,9.474,-2.192,2.187,-0.102812,-0.111209,0.091376,100038.15,-79,-196,-23
111263,9.403,-2.154,2.141,-0.106537,-0.118126,0.093504,100041.04,-79,-196,-23
111273,9.291,-1.936,2.254,-0.095363,-0.131961,0.097229,100041.04,-79,-196,-24
111284,9.283,-1.786,2.451,-0.067693,-0.144200,0.114257,100041.04,-79,-196,-25
111293,9.447,-1.919,2.689,-0.047473,-0.165484,0.143523,100039.99,-77,-196,-25
111303,9.620,-1.946,2.735,-0.052262,-0.190493,0.164807,100040.77,-77,-196,-25
111313,9.646,-2.016,2.589,-0.078868,-0.209117,0.181835,100040.77,-77,-196,-25
111324,9.532,-2.071,2.321,-0.101748,-0.223484,0.198330,100043.86,-76,-198,-26
111333,9.506,-2.014,2.236,-0.110262,-0.238383,0.217486,100044.70,-75,-198,-27
111343,9.468,-1.918,2.349,-0.100152,-0.258071,0.241963,100040.77,-75,-198,-27
111353,9.468,-1.961,2.331,-0.076207,-0.278291,0.272825,100039.30,-74,-198,-27
111364,9.482,-2.012,2.278,-0.053326,-0.297447,0.300495,100043.45,-73,-198,-28
111374,9.410,-1.900,2.298,-0.045345,-0.320328,0.334018,100039.31,-72,-198,-28
111383,9.549,-1.612,2.248,-0.024060,-0.361300,0.378715,100042.67,-71,-199,-28
111393,10.095,-1.350,2.173,0.045114,-0.419300,0.438844,100039.52,-71,-199,-28
111404,10.660,-1.117,2.492,0.164307,-0.506566,0.513871,100039.52,-68,-199,-29
111414,11.054,-0.966,3.183,0.303719,-0.615649,0.611779,100039.52,-66,-202,-29
111423,11.402,-1.390,3.709,0.394710,-0.733777,0.715009,100042.54,-62,-203,-28
111433,11.673,-0.501,4.369,0.330857,-0.817318,0.827816,100041.90,-62,-203,-28
111438,12.419,-0.761,5.243,0.241995,-0.869997,0.947541,100040.16,-59,-204,-30
111449,13.822,-2.132,4.395,0.175481,-0.942364,1.058751,100038.85,-59,-204,-30
111458,15.717,-2.739,3.275,0.021169,-0.960988,1.113559,100038.85,-53,-205,-29
111468,15.663,-2.949,2.735,-0.247546,-0.920548,1.117283,100042.96,-49,-206,-31
111478,15.347,-2.152,1.526,-0.614170,-0.910970,1.129522,100041.23,-45,-207,-35
111489,16.193,-0.510,0.981,-0.865326,-0.978015,1.148146,100041.02,-45,-207,-35
111499,17.664,1.459,2.126,-0.954720,-1.041869,1.265210,100041.49,-39,-207,-39
111508,18.521,3.611,1.958,-1.066463,-1.082841,1.430164,100041.49,-34,-208,-42
111518,16.872,1.006,1.551,-0.885014,-1.112639,1.593522,100041.73,-26,-208,-46
111528,15.542,-0.594,0.456,-0.451876,-1.204694,1.670678,100044.24,-26,-208,-46
111539,13.769,-2.523,0.529,-0.024060,-1.233960,1.696219,100043.82,-20,-208,-48
111548,12.603,-3.613,1.193,0.438875,-1.240346,1.809026,100039.66,-11,-210,-47
111558,12.309,-4.627,1.468,0.758141,-1.205759,1.878200,100039.66,-4,-212,-45
111568,11.799,-7.770,1.101,0.875737,-1.128603,1.884054,100042.75,-4,-212,-45
111579,11.514,-11.439,0.190,0.794325,-1.084437,1.948439,100040.55,+3,-214,-44
111589,11.098,-14.538,-0.827,0.491022,-1.041869,1.996861,100040.39,+11,-216,-42
111598,11.123,-12.782,-0.165,-0.050134,-0.982804,1.943118,100040.86,+19,-217,-43
111608,10.806,-9.559,-0.335,-0.555638,-0.950346,1.715907,100040.86,+19,-217,-43
111619,9.289,-8.471,-0.162,-0.595014,-0.868401,1.607889,100041.63,+27,-216,-45
111629,7.455,-7.800,-0.272,-0.440702,-0.839135,1.670678,100041.70,+34,-215,-47
111638,6.118,-7.634,0.083,-0.194867,-0.726860,1.654182,100042.70,+41,-215,-48
111648,5.074,-6.844,0.268,-0.083124,-0.598089,1.501999,100039.16,+46,-216,-48
111659,4.076,-5.835,-0.057,-0.110262,-0.522530,1.343430,100039.16,+46,-216,-48
111669,3.060,-5.043,-0.351,-0.182629,-0.464530,1.225834,100042.92,+51,-214,-49
111678,2.331,-4.564,-0.594,-0.211363,-0.410787,1.139632,100040.94,+55,-214,-49
111688,1.894,-4.141,-0.779,-0.189014,-0.371410,1.053430,100039.72,+60,-214,-51
111698,1.075,-3.283,-0.806,-0.136335,-0.345337,0.938495,100040.83,+60,-214,-51
111709,0.163,-2.481,-0.934,-0.045345,-0.305961,0.794293,100040.83,+63,-214,-50
111719,-0.198,-2.079,-1.141,0.080765,-0.278823,0.675100,100041.95,+66,-213,-51
111728,-0.278,-1.868,-1.366,0.193573,-0.284677,0.578256,100040.64,+69,-214,-49
111738,-0.521,-1.790,-1.550,0.267536,-0.286805,0.460128,100038.75,+69,-214,-49
111749,-0.783,-1.748,-1.590,0.328196,-0.274566,0.326036,100037.91,+70,-214,-49
111759,-1.003,-1.682,-1.427,0.394178,-0.257007,0.201523,100037.91,+71,-213,-47
111768,-1.257,-1.639,-1.265,0.462820,-0.246365,0.073284,100041.90,+73,-214,-45
111778,-1.487,-1.447,-1.121,0.525609,-0.236255,-0.059743,100040.90,+73,-214,-45
111789,-1.695,-1.571,-0.906,0.603829,-0.213906,-0.174147,100043.37,+71,-214,-44
111799,-1.815,-1.913,-0.753,0.683114,-0.185704,-0.286422,100039.32,+69,-215,-41
111808,-1.731,-2.233,-0.758,0.680985,-0.158566,-0.409339,100039.32,+69,-216,-39
111818,-1.577,-2.586,-0.736,0.602233,-0.131429,-0.540770,100041.82,+69,-216,-39
111828,-1.502,-2.845,-0.651,0.502728,-0.099502,-0.675926,100039.62,+66,-217,-37
111839,-1.329,-2.891,-0.591,0.379811,-0.064915,-0.823321,100041.40,+64,-218,-36
111849,-0.946,-2.816,-0.516,0.259554,-0.030860,-0.981889,100040.40,+60,-218,-35
111858,-0.430,-2.659,-0.411,0.170160,0.003195,-1.142587,100040.40,+60,-218,-35
111868,0.124,-2.587,-0.375,0.147811,0.036718,-1.283064,100042.91,+56,-219,-34
111879,0.697,-2.772,-0.263,0.212729,0.090993,-1.404385,100040.65,+51,-220,-34
111889,1.408,-2.908,-0.137,0.322875,0.156975,-1.548054,100037.76,+45,-220,-33
111898,2.128,-3.077,-0.036,0.434618,0.232534,-1.710348,100038.34,+45,-220,-33
111909,2.859,-3.243,-0.084,0.530753,0.315189,-1.882574,100038.34,+38,-220,-30
111919,3.558,-3.401,0.011,0.595316,0.398552,-2.012586,100044.41,+30,-221,-29
111929,4.616,-3.659,0.325,0.656508,0.517213,-2.150403,100043.20,+22,-223,-27
111939,6.286,-4.120,0.475,0.621389,0.638002,-2.291412,100038.99,+22,-223,-27
111948,8.320,-4.865,0.208,0.493150,0.733782,-2.413797,100039.57,+13,-221,-24
111959,10.255,-5.861,0.092,0.343628,0.802424,-2.515430,100039.57,+3,-220,-23
111969,12.131,-6.680,0.229,0.254233,0.840736,-2.615999,100044.88,-7,-220,-21
111979,14.134,-7.296,0.612,0.273921,0.841800,-2.679852,100043.78,-7,-220,-21
111988,15.962,-7.810,1.136,0.421316,0.836479,-2.686237,100040.05,-17,-218,-20
111998,17.679,-7.564,1.765,0.585738,0.853506,-2.641540,100041.94,-28,-217,-17
112009,18.538,-7.331,2.601,0.665554,0.912570,-2.548953,100041.94,-37,-214,-15
112019,17.754,-7.455,3.336,0.553811,1.021121,-2.429760,100042.27,-37,-214,-15
112028,16.021,-7.416,3.849,0.248912,1.200974,-2.295669,100039.07,-46,-212,-11
112038,14.816,-6.856,5.402,-0.272023,1.440955,-2.140293,100038.23,-55,-210,-10
112049,15.087,-3.425,15.036,-0.978665,1.875157,-2.034403,100036.98,-63,-207,-11
112059,39.128,7.548,0.958,-1.699142,1.094552,-1.488458,100036.98,-63,-207,-11
112069,52.617,6.327,-15.441,-1.950830,-0.390566,-0.399761,100046.08,-66,-204,-17
112078,19.986,5.755,-8.531,-0.440702,0.515617,-1.627871,100044.92,-69,-201,-18
112089,4.684,1.745,4.606,-0.767418,1.355818,-1.554972,100039.09,-75,-199,-20
112099,-1.441,0.854,3.227,-0.771142,0.817323,-0.297596,100039.31,-77,-197,-21
112109,1.829,-1.116,0.557,-0.439638,0.519873,-0.167762,100039.31,-77,-197,-21
112118,5.175,-4.476,1.233,-0.010225,0.504442,-0.317284,100042.66,-78,-197,-21
112129,9.032,-5.257,3.227,0.538912,0.456020,-0.033138,100041.39,-79,-197,-18
112139,10.884,-7.062,4.854,0.601169,0.305433,0.173853,100040.77,-78,-198,-17
112149,8.846,-6.043,4.443,-0.018739,0.262332,-0.199156,100041.14,-78,-198,-17
112158,7.373,-2.283,2.804,-0.683876,0.297984,-0.603027,100041.14,-81,-196,-17
112168,8.493,0.032,1.175,-0.767950,0.270314,-0.534385,100045.01,-82,-195,-20
112179,10.308,1.046,0.307,-0.353436,0.246901,-0.290147,100042.23,-84,-194,-20
112189,11.266,1.516,0.305,0.159518,0.279892,-0.137963,100042.54,-84,-194,-20
112199,11.206,0.712,0.876,0.584673,0.306497,-0.031541,100039.66,-83,-195,-18
112208,10.963,-1.093,1.493,0.766123,0.315543,0.029119,100039.66,-85,-196,-15
112219,10.755,-2.609,1.883,0.672471,0.297984,0.056789,100039.06,-84,-196,-13
112229,10.159,-2.888,2.205,0.412802,0.251690,0.053064,100043.64,-84,-196,-13
112239,9.413,-2.354,2.665,0.141426,0.204864,0.028587,100043.06,-84,-198,-11
112248,9.093,-1.620,2.819,0.013187,0.160699,0.031780,100039.28,-85,-197,-11
112259,9.210,-1.412,2.414,0.071365,0.134626,0.047920,100039.28,-83,-197,-11
112269,9.522,-1.769,1.887,0.149940,0.130369,0.045082,100045.12,-83,-197,-11
112279,9.744,-2.183,1.449,0.118013,0.137819,0.031780,100043.49,-84,-196,-10
112288,9.698,-2.194,1.436,-0.049069,0.150057,0.030715,100040.87,-83,-196,-10
112299,9.506,-1.589,1.844,-0.228390,0.144736,0.054128,100040.07,-83,-196,-11
112309,9.312,-0.780,2.290,-0.287987,0.125048,0.099358,100040.07,-83,-196,-11
112319,9.395,-0.660,2.469,-0.178372,0.102167,0.153633,100040.67,-83,-196,-11
112329,9.769,-1.116,2.321,0.003077,0.079819,0.190880,100043.45,-83,-197,-11
112338,9.876,-1.553,2.225,0.130252,0.065984,0.201523,100040.03,-83,-197,-11
112349,9.640,-1.640,2.155,0.158453,0.039378,0.207908,100039.41,-83,-197,-11
112359,9.532,-1.611,2.189,0.151004,0.008516,0.229724,100039.41,-81,-198,-10
112369,9.603,-1.686,1.997,0.143022,-0.004255,0.241963,100043.79,-81,-199,-10
112379,9.681,-2.014,1.894,0.106129,-0.003368,0.252960,100041.48,-80,-200,-10
112389,9.639,-2.177,1.678,0.043518,0.000002,0.258990,100039.59,-80,-200,-10
112399,9.641,-2.304,1.343,-0.045345,0.001599,0.258458,100039.49,-79,-199,-10
112409,9.649,-2.253,1.398,-0.124629,0.021287,0.255266,100039.49,-79,-200,-11
112419,9.487,-2.063,1.729,-0.155491,0.050021,0.257394,100047.13,-77,-200,-11
112429,9.287,-1.965,2.118,-0.136868,0.069176,0.252605,100038.88,-77,-200,-11
112439,9.388,-1.971,2.309,-0.083657,0.069176,0.247816,100040.77,-76,-200,-10
112449,9.526,-1.918,2.307,-0.040556,0.056406,0.239302,100040.09,-76,-200,-11
112458,9.688,-1.749,2.025,-0.030978,0.042039,0.241431,100040.09,-76,-200,-10
112468,9.825,-1.509,1.796,-0.014482,0.032461,0.261119,100043.05,-76,-200,-10
112479,9.815,-1.498,1.583,0.043518,0.021287,0.291449,100039.96,-73,-201,-11
112489,9.754,-1.693,1.405,0.128655,0.015966,0.330825,100042.37,-73,-202,-10
112499,9.577,-2.161,1.667,0.164839,0.030865,0.356899,100043.12,-72,-202,-10
112508,9.293,-2.611,1.988,0.134508,0.045232,0.361156,100043.12,-72,-202,-10
112519,9.111,-2.881,1.996,0.057353,0.053213,0.346256,100045.73,-70,-203,-8
112529,9.230,-2.755,1.903,-0.045345,0.059599,0.316990,100040.33,-69,-204,-10
112539,9.359,-2.401,2.064,-0.107069,0.070241,0.293578,100042.06,-69,-204,-10
112548,9.359,-2.173,1.900,-0.090042,0.081947,0.275486,100040.11,-68,-204,-9
112559,9.360,-2.173,1.733,-0.005436,0.083543,0.265376,100040.11,-68,-204,-9
112569,9.214,-2.310,1.934,0.065334,0.079819,0.262183,100045.69,-67,-204,-10
112579,8.911,-2.650,2.038,0.070655,0.098975,0.254734,100041.17,-66,-206,-9
112589,8.983,-2.842,1.990,0.000417,0.105360,0.253669,100038.02,-66,-206,-9
112599,9.252,-2.616,2.179,-0.100152,0.105892,0.253669,100040.84,-66,-206,-9
112609,9.301,-2.328,2.449,-0.152831,0.106424,0.264844,100040.84,-65,-206,-10
112619,9.439,-2.135,2.461,-0.173051,0.104828,0.278679,100040.70,-64,-206,-10
112629,9.865,-2.517,2.305,-0.180501,0.100571,0.289321,100040.70,-64,-206,-10
112638,10.060,-2.684,2.070,-0.197528,0.091525,0.278146,100040.05,-64,-206,-10
112649,9.802,-2.522,2.176,-0.225198,0.080883,0.264312,100040.23,-62,-207,-11
112659,9.516,-2.271,2.384,-0.216684,0.057470,0.273890,100040.23,-61,-207,-11
112669,9.465,-2.296,2.383,-0.164537,0.031397,0.291981,100043.67,-60,-206,-11
112678,9.371,-2.422,2.421,-0.102812,-0.003723,0.303688,100042.56,-60,-206,-11
112689,9.190,-2.636,2.420,-0.043748,-0.035649,0.313266,100040.00,-59,-207,-12
112699,9.164,-2.808,2.483,0.009995,-0.050548,0.318587,100040.83,-59,-207,-12
112709,9.177,-2.974,2.510,0.031811,-0.059594,0.312734,100040.83,-57,-208,-11
112719,9.315,-3.124,2.286,0.005206,-0.062787,0.300495,100043.35,-57,-208,-11
112730,9.313,-3.012,2.030,-0.059179,-0.059771,0.283468,100039.52,-56,-208,-11
112739,9.237,-2.654,1.964,-0.095363,-0.057466,0.279743,100042.37,-54,-209,-13
112749,9.184,-2.317,2.175,-0.080996,-0.052677,0.296238,100040.88,-53,-210,-12
112759,9.188,-2.475,2.397,-0.021400,-0.052145,0.323908,100040.88,-53,-210,-12
112769,9.152,-2.883,2.375,0.010527,-0.057466,0.346789,100043.32,-53,-209,-13
112779,9.066,-3.417,2.285,-0.028317,-0.061723,0.361688,100042.21,-51,-210,-12
112789,9.232,-3.576,2.126,-0.135803,-0.064915,0.368605,100039.70,-50,-210,-13
112799,9.379,-3.241,2.164,-0.242757,-0.060126,0.374990,100041.05,-50,-210,-13
112808,9.099,-2.905,2.157,-0.291179,-0.047888,0.371266,100041.05,-49,-211,-15
112819,8.808,-2.907,2.051,-0.284794,-0.034053,0.379247,100046.08,-48,-212,-15
112829,8.874,-3.055,2.039,-0.276812,-0.034585,0.395211,100042.30,-46,-212,-16
112839,9.038,-3.045,2.141,-0.287455,-0.046823,0.410110,100042.36,-46,-212,-16
112849,9.146,-2.933,2.256,-0.290647,-0.059594,0.426605,100042.03,-45,-211,-17
112859,9.315,-3.108,2.276,-0.285326,-0.068640,0.442568,100042.03,-43,-212,-19
112869,9.433,-3.188,2.227,-0.295968,-0.079282,0.455871,100044.98,-41,-212,-20
112879,9.501,-3.150,2.194,-0.317785,-0.094713,0.469174,100043.05,-41,-212,-20
112889,9.511,-3.225,2.109,-0.323638,-0.112273,0.484073,100042.52,-40,-212,-20
112899,9.443,-3.107,2.045,-0.335877,-0.132493,0.502165,100039.20,-37,-213,-21
112909,9.344,-2.970,2.063,-0.349179,-0.164952,0.534623,100039.20,-35,-214,-23
112919,9.439,-3.000,2.044,-0.335877,-0.193154,0.574532,100042.13,-35,-214,-23
112929,9.589,-3.199,2.062,-0.307143,-0.212310,0.613908,100041.19,-34,-213,-23
112939,9.567,-3.467,2.175,-0.307675,-0.226144,0.645834,100041.61,-31,-213,-25
112949,9.458,-3.644,2.197,-0.352904,-0.236787,0.670311,100039.45,-28,-214,-27
112959,9.494,-3.743,2.176,-0.408776,-0.244236,0.689467,100039.45,-28,-214,-27
112969,9.603,-3.832,2.093,-0.458794,-0.250621,0.712348,100041.76,-26,-214,-27
112979,9.559,-3.911,1.880,-0.516794,-0.259135,0.727779,100042.96,-23,-215,-30
112989,9.544,-3.956,1.546,-0.580647,-0.271906,0.742146,100040.98,-20,-215,-31
112999,9.821,-3.741,1.236,-0.620555,-0.302236,0.774605,100041.82,-20,-215,-31
113009,10.226,-3.550,1.266,-0.619491,-0.366089,0.820366,100041.82,-17,-216,-33
113019,10.410,-3.561,1.321,-0.581711,-0.427282,0.866660,100041.16,-13,-215,-36
113029,10.427,-3.580,1.343,-0.544464,-0.473575,0.912421,100041.31,-10,-215,-39
113039,10.368,-3.653,1.338,-0.532225,-0.548603,0.960843,100040.95,-5,-215,-40
113049,10.399,-3.745,1.373,-0.519987,-0.600218,1.023100,100042.16,-5,-215,-40
113059,10.543,-3.805,1.278,-0.510409,-0.632144,1.083761,100042.16,-1,-214,-42
113070,10.750,-3.800,1.199,-0.531161,-0.676841,1.142825,100044.66,+3,-216,-44
113079,11.074,-3.731,1.096,-0.547656,-0.745484,1.206146,100042.86,+8,-215,-47
113089,11.505,-3.619,1.071,-0.521583,-0.797630,1.268935,100040.66,+8,-215,-47
113099,11.760,-3.363,1.084,-0.502959,-0.853502,1.321082,100041.61,+13,-214,-48
113110,11.848,-3.161,0.993,-0.482739,-0.917887,1.371632,100041.61,+20,-215,-51
113119,12.322,-3.124,0.994,-0.388555,-0.983869,1.435485,100044.00,+27,-214,-51
113129,13.020,-3.507,1.392,-0.305014,-1.060493,1.495081,100043.38,+27,-214,-51
113139,13.980,-3.929,1.745,-0.303418,-1.152015,1.547760,100042.22,+34,-214,-52
113149,14.911,-3.725,1.963,-0.398665,-1.218529,1.573302,100039.53,+39,-213,-54
113159,15.639,-3.284,2.038,-0.584372,-1.249924,1.571705,100039.53,+47,-212,-56
113169,16.349,-2.251,2.017,-0.855748,-1.276529,1.580219,100042.25,+47,-212,-56
113179,16.920,-0.756,2.194,-1.111160,-1.308988,1.614806,100045.77,+54,-212,-59
113189,16.978,0.876,2.680,-1.246316,-1.332401,1.674935,100040.63,+62,-210,-63
113200,16.458,2.290,3.066,-1.175546,-1.351734,1.779051,100039.25,+70,-207,-66
113209,16.037,1.503,3.011,-0.857876,-1.366456,1.971320,100039.25,+70,-207,-66
113219,16.193,-0.830,2.965,-0.364078,-1.381355,2.298567,100042.66,+79,-204,-68
113229,16.120,-2.755,3.388,-0.028317,-1.372309,2.531631,100043.46,+90,-204,-68
113240,15.009,-4.060,3.688,0.059481,-1.324951,2.565154,100039.35,+100,-202,-66
113249,13.416,-5.353,3.681,0.031279,-1.245667,2.516732,100040.46,+100,-202,-66
113259,12.478,-6.193,3.660,-0.188482,-1.164786,2.439044,100040.46,+111,-200,-66
113269,12.192,-5.387,3.421,-0.577986,-1.162658,2.363484,100040.40,+120,-197,-68
113280,11.505,-4.193,4.021,-0.753051,-1.136584,2.266640,100041.30,+130,-194,-69
113289,10.192,-2.202,4.662,-0.803601,-1.073263,2.022934,100042.82,+130,-194,-69
113299,8.552,0.365,3.548,-0.863197,-0.985997,1.558935,100041.09,+137,-190,-69
113309,6.843,1.010,-0.441,-0.885014,-1.059960,0.995963,100041.09,+141,-187,-72
113319,4.270,-6.562,1.504,-0.424739,-0.731117,1.012458,100039.79,+146,-184,-71
113330,6.585,-4.433,1.909,-0.745601,-0.640658,0.908164,100042.10,+146,-184,-71
113339,7.695,0.581,1.224,-1.387325,-0.715685,0.296770,100041.95,+149,-181,-73
113349,6.331,2.513,2.166,-1.208004,-0.633740,-0.270459,100037.16,+149,-180,-78
113359,5.109,3.719,2.215,-0.579051,-0.624162,-0.533853,100037.16,+149,-180,-78
113370,4.278,3.950,1.526,0.157921,-0.608199,-0.762128,100040.72,+149,-180,-78
113379,4.209,1.662,1.434,1.017279,-0.514016,-0.961669,100041.30,+147,-181,-76
113389,4.148,-0.902,1.557,1.642508,-0.436860,-1.175045,100037.67,+144,-185,-71
113399,4.349,-1.877,1.174,1.790966,-0.375667,-1.459724,100037.67,+139,-189,-64
113410,4.785,-1.403,0.611,1.652086,-0.340016,-1.809852,100037.67,+139,-189,-64
113419,5.006,-0.949,0.597,1.542471,-0.286273,-2.160513,100039.43,+132,-194,-59
113429,5.303,-0.735,0.885,1.524379,-0.215502,-2.455302,100039.32,+124,-198,-55
113435,5.729,-0.674,1.029,1.512673,-0.180383,-2.642072,100034.91,+124,-198,-55
113444,6.323,-1.035,1.011,1.526508,-0.155374,-2.800109,100034.91,+115,-202,-50
113455,7.220,-1.821,1.079,1.539810,-0.122915,-3.001246,100035.65,+104,-208,-45
113465,7.962,-2.501,1.300,1.527572,-0.114401,-3.199723,100035.65,+93,-212,-40
113474,8.256,-2.957,1.825,1.530764,-0.079814,-3.395540,100036.80,+93,-212,-40
113484,8.190,-3.043,2.357,1.541939,-0.010108,-3.592952,100034.88,+80,-216,-36
113495,8.182,-3.093,2.748,1.601003,0.079819,-3.760035,100035.18,+67,-218,-30
113505,8.468,-3.369,2.893,1.702104,0.179855,-3.922328,100035.18,+52,-221,-25
113514,9.073,-3.919,2.925,1.772342,0.281488,-4.075576,100035.18,+52,-221,-25
113524,9.801,-4.509,3.071,1.765957,0.377800,-4.203282,100035.46,+36,-223,-19
113534,10.408,-4.779,3.281,1.709553,0.477837,-4.307576,100035.99,+19,-223,-13
113545,10.973,-4.893,3.446,1.645700,0.578938,-4.364511,100034.84,+2,-220,-7
113554,11.483,-5.439,3.594,1.564819,0.670993,-4.388988,100035.30,+2,-220,-7
113564,11.833,-6.441,3.715,1.418489,0.758259,-4.435282,100035.30,-13,-219,-3
113574,11.885,-7.008,3.840,1.208306,0.854038,-4.507649,100038.12,-30,-216,+2
113585,11.843,-6.901,3.742,0.951297,0.973231,-4.565117,100038.59,-47,-210,+5
113595,11.971,-6.363,3.596,0.735260,1.119029,-4.584805,100037.01,-47,-210,+5
113604,12.335,-5.711,3.290,0.627774,1.266423,-4.552878,100037.01,-63,-206,+8
113614,12.847,-5.272,3.015,0.678325,1.404240,-4.471466,100043.31,-78,-198,+11
113625,13.349,-5.323,2.847,0.858710,1.523432,-4.357062,100037.89,-92,-191,+17
113634,13.498,-5.770,2.673,1.075811,1.617616,-4.246383,100037.89,-92,-191,+17
113644,13.434,-6.521,2.254,1.183297,1.655396,-4.146346,100038.63,-105,-183,+23
113654,13.233,-7.170,1.789,1.137535,1.645285,-4.047374,100039.89,-117,-174,+29
113665,13.167,-7.789,1.684,0.998123,1.626662,-3.910622,100039.89,-129,-164,+34
113670,13.149,-8.307,1.795,0.861370,1.602185,-3.797814,100042.55,-129,-164,+34
113679,12.974,-8.537,1.693,0.696948,1.569726,-3.699374,100039.84,-139,-155,+39
113689,12.505,-8.163,1.507,0.436747,1.530882,-3.587631,100042.20,-147,-147,+43
113699,11.918,-7.839,1.460,0.232417,1.505873,-3.438640,100036.79,-147,-147,+43
113710,11.474,-7.882,1.447,0.133444,1.501084,-3.213558,100036.79,-156,-136,+47
113720,11.266,-8.426,1.455,0.022765,1.517579,-2.955485,100042.92,-162,-129,+50
113729,10.933,-9.299,1.356,-0.167730,1.526625,-2.710182,100043.81,-168,-121,+53
113739,10.288,-9.959,1.353,-0.427399,1.535671,-2.440935,100040.83,-168,-121,+53
113750,10.193,-9.957,1.322,-0.753583,1.541524,-2.113687,100042.03,-171,-115,+56
113760,10.384,-9.772,0.927,-1.084555,1.514919,-1.766219,100042.03,-175,-110,+58
113769,10.460,-9.504,0.276,-1.344225,1.422864,-1.393210,100043.38,-176,-107,+59
113779,10.591,-8.884,-0.631,-1.522481,1.241414,-0.981889,100042.43,-176,-107,+59
113789,10.594,-7.744,-1.523,-1.493215,0.945029,-0.523743,100042.74,-177,-105,+59
113800,10.385,-6.167,-2.133,-1.055289,0.593305,-0.006532,100043.16,-177,-105,+59
113809,10.046,-4.458,-2.398,-0.238500,0.277763,0.517064,100043.16,-176,-107,+59
113819,9.553,-4.078,-2.133,0.788471,0.056938,1.011394,100045.20,-176,-107,+59
113829,9.197,-5.571,-1.988,1.768085,-0.080878,1.463155,100045.73,-173,-109,+61
113840,9.242,-5.822,-2.237,2.364580,-0.247961,1.781889,100043.00,-170,-113,+66
113850,9.608,-2.148,2.219,2.725351,-0.345337,1.912256,100041.42,-167,-117,+70
113859,11.405,8.336,16.766,2.698213,0.039910,1.882989,100041.42,-167,-117,+70
113869,18.749,24.464,14.974,1.437645,0.244241,0.933706,100040.95,-162,-119,+75
113880,25.212,11.667,-9.951,0.229756,-0.251686,0.515999,100045.15,-162,-120,+75
113890,25.580,-9.369,-4.830,3.671974,-0.330970,2.596549,100044.46,-157,-124,+82
113899,17.418,-10.105,-2.798,3.721460,-0.627355,2.915282,100042.52,-157,-124,+82
113905,10.496,-8.144,-6.848,1.888342,-0.652896,2.216090,100042.52,-151,-129,+88
113914,8.807,-2.990,-6.679,0.756545,-0.335227,1.718567,100042.52,-147,-133,+88
113925,9.248,-0.792,-1.286,0.163775,-0.167612,2.296971,100046.10,-147,-133,+88
113935,7.676,-2.076,5.129,-0.091106,0.058002,2.499705,100043.79,-142,-139,+88
113945,8.595,-3.519,9.291,-0.183161,0.224020,2.398072,100040.13,-135,-145,+88
113954,11.650,-5.939,7.527,-0.128354,-0.272438,2.440108,100040.13,-130,-151,+87
113965,11.212,-6.249,3.185,-0.148574,-0.702383,2.025063,100044.56,-130,-151,+87
113975,9.560,-2.460,1.331,-0.370996,-0.697062,1.469008,100041.88,-125,-155,+85
113984,9.652,-0.070,0.117,-0.396005,-0.625759,1.404091,100041.88,-122,-158,+83
113994,10.266,-0.032,-1.047,-0.200721,-0.565630,1.544036,100040.78,-119,-162,+82
114004,10.533,0.033,-1.257,-0.045345,-0.421961,1.537650,100044.98,-119,-162,+82
114015,10.573,-0.191,-0.376,0.144086,-0.244236,1.467412,100044.98,-115,-166,+81
114025,10.384,-0.796,0.527,0.314362,-0.151649,1.437081,100042.94,-111,-168,+81
114034,9.706,-1.581,1.492,0.330857,-0.115998,1.400898,100042.09,-107,-171,+82
114044,9.177,-2.292,2.112,0.190912,-0.142603,1.307779,100040.72,-107,-171,+82
114055,9.176,-2.536,2.172,-0.065565,-0.181979,1.182733,100038.41,-103,-172,+82
114065,9.504,-2.068,1.966,-0.392812,-0.192089,1.051834,100041.34,-100,-176,+81
114075,9.753,-1.412,1.638,-0.657271,-0.147392,0.941155,100041.96,-98,-178,+78
114084,9.968,-0.386,1.295,-0.764757,-0.092053,0.863999,100042.65,-98,-178,+78
114095,9.986,0.098,1.283,-0.686005,-0.034585,0.828348,100039.45,-95,-180,+76
114105,9.840,0.125,1.581,-0.476354,0.007452,0.828348,100039.45,-93,-182,+76
114114,9.512,-0.454,2.047,-0.240097,0.033525,0.841119,100039.45,-90,-182,+76
114124,9.121,-1.202,2.480,-0.096427,0.035121,0.838990,100042.29,-87,-182,+76
114135,8.981,-1.490,2.814,-0.087381,0.019158,0.815045,100042.34,-87,-185,+75
114140,9.002,-1.699,2.980,-0.120904,0.010112,0.794293,100041.55,-85,-186,+74
114150,9.081,-2.050,2.912,-0.188482,-0.005319,0.775137,100041.60,-85,-186,+74
114159,9.628,-2.201,2.073,-0.408776,-0.049484,0.729375,100041.60,-83,-188,+73
114169,10.476,-1.575,1.602,-0.664720,-0.054805,0.688935,100043.98,-81,-190,+72
114180,10.558,-0.838,1.763,-0.802005,-0.039906,0.685210,100042.45,-79,-191,+69
114190,10.093,-0.569,2.160,-0.785509,-0.055869,0.708091,100043.30,-79,-191,+69
114200,9.607,-0.667,2.573,-0.633858,-0.127704,0.740550,100040.14,-76,-192,+66
114209,9.194,-0.893,2.736,-0.448684,-0.194218,0.771412,100040.14,-73,-194,+65
114220,9.046,-1.348,2.809,-0.320977,-0.251154,0.811853,100042.45,-71,-196,+63
114230,9.169,-1.548,2.674,-0.269895,-0.329374,0.856018,100041.25,-71,-196,+63
114240,9.137,-1.474,2.395,-0.244354,-0.385777,0.883155,100042.88,-69,-197,+63
114249,9.026,-1.394,2.307,-0.185822,-0.429942,0.920403,100040.89,-66,-199,+62
114259,8.750,-1.560,2.044,-0.103345,-0.483153,0.979999,100040.89,-64,-200,+61
114270,8.648,-0.740,2.130,-0.059712,-0.506566,1.058219,100044.14,-64,-200,+61
114280,9.178,0.379,3.406,-0.005968,-0.516144,1.173687,100038.78,-60,-202,+61
114289,10.072,-0.756,2.837,0.202619,-0.595429,1.297669,100041.89,-56,-203,+60
114299,10.271,-1.451,1.958,0.387261,-0.611924,1.333852,100041.67,-52,-204,+61
114310,9.792,-2.632,1.623,0.458563,-0.612456,1.329063,100041.67,-52,-204,+61
114320,9.464,-3.145,1.265,0.383536,-0.626823,1.338109,100045.34,-47,-205,+60
114330,9.344,-3.138,1.067,0.261683,-0.630016,1.338109,100044.40,-43,-207,+61
114339,9.303,-3.058,0.842,0.196233,-0.623630,1.331192,100041.82,-39,-208,+61
114350,9.396,-3.204,0.781,0.179206,-0.613520,1.334916,100041.45,-39,-208,+61
114360,9.403,-3.236,0.958,0.152068,-0.605007,1.338109,100041.45,-35,-210,+63
114370,9.433,-3.380,1.179,0.131848,-0.601282,1.342898,100045.91,-30,-210,+61
114375,9.670,-3.796,1.142,0.129187,-0.606071,1.348751,100041.24,-30,-210,+61
114384,10.089,-4.062,1.016,0.092472,-0.593832,1.349815,100041.24,-26,-212,+61
114395,10.384,-4.346,1.230,-0.026189,-0.564034,1.326403,100041.55,-21,-214,+61
114405,10.173,-4.876,2.002,-0.190611,-0.534768,1.301394,100041.09,-17,-214,+59
114415,10.344,-4.592,2.051,-0.415693,-0.507098,1.284898,100044.66,-17,-214,+59
114425,10.706,-4.359,1.981,-0.570005,-0.501777,1.285962,100043.51,-12,-216,+57
114435,11.121,-4.174,1.823,-0.692390,-0.518273,1.307779,100043.87,-8,-217,+55
114445,11.615,-4.102,1.335,-0.797216,-0.552860,1.345026,100041.45,-3,-218,+52
114455,12.222,-3.935,0.609,-0.870647,-0.598621,1.391320,100041.45,-3,-218,+52
114464,13.032,-3.717,-0.193,-0.923858,-0.652364,1.437081,100041.45,+1,-219,+49
114475,13.586,-3.638,-0.623,-0.980261,-0.724199,1.485503,100046.48,+5,-220,+45
114485,13.975,-3.340,-0.574,-1.040390,-0.815190,1.542971,100044.08,+11,-221,+42
114495,14.412,-2.885,-0.200,-1.097858,-0.909905,1.621192,100042.34,+11,-221,+42
114505,15.001,-2.560,0.398,-1.151601,-1.001428,1.711118,100043.61,+17,-221,+37
114514,15.724,-2.320,1.122,-1.214922,-1.109447,1.810623,100043.61,+24,-223,+34
114525,16.788,-2.210,1.637,-1.294738,-1.239281,1.892567,100042.09,+31,-222,+28
114535,18.092,-1.836,2.182,-1.414995,-1.350492,1.946311,100041.94,+31,-222,+28
114545,18.958,-0.923,2.843,-1.571435,-1.418070,1.955889,100041.05,+38,-223,+23
114554,18.879,0.735,3.460,-1.749692,-1.456382,1.924494,100041.05,+46,-222,+18
114565,18.106,3.016,4.043,-1.872609,-1.467556,1.915448,100044.50,+53,-221,+11
114575,17.628,4.975,4.062,-1.860903,-1.463832,1.956421,100044.50,+53,-221,+11
114585,17.558,4.034,3.095,-1.557068,-1.503740,2.121907,100042.77,+60,-220,+6
114594,17.689,-0.461,2.011,-0.853087,-1.618676,2.485870,100040.56,+70,-219,+2
114605,17.328,-3.079,2.673,-0.451344,-1.753832,2.690200,100041.98,+81,-217,+1
114610,15.859,-3.157,3.711,-0.534886,-1.822474,2.598145,100041.98,+81,-217,+1
114620,14.109,-2.109,4.930,-0.487528,-1.807043,2.505558,100041.34,+90,-216,+0
114630,12.638,-1.753,5.351,-0.085785,-1.755428,2.453943,100041.55,+100,-214,+2
114639,12.054,-2.166,5.348,0.290417,-1.677740,2.397539,100040.98,+100,-214,+2
114650,10.716,-1.479,5.738,0.506985,-1.558547,2.191081,100042.34,+109,-211,+4
114660,9.080,0.395,5.372,0.627242,-1.414878,1.770182,100042.34,+117,-210,+7
114670,6.580,1.039,2.215,0.705462,-1.423923,1.156128,100041.77,+121,-208,+10
114680,2.649,-6.868,3.350,1.034306,-1.109979,1.031082,100044.23,+121,-208,+10
114690,5.292,-7.302,2.651,0.531462,-0.950878,0.903375,100041.56,+126,-206,+13
114700,7.526,-2.731,2.120,-0.620555,-0.813061,0.254201,100041.09,+127,-206,+13
114710,6.548,0.757,2.715,-0.999950,-0.745484,-0.356661,100041.09,+127,-206,+10
114720,4.829,2.759,2.473,-0.765821,-0.782731,-0.651981,100041.55,+127,-206,+10
114729,4.045,3.313,2.059,-0.373656,-0.732713,-0.835559,100039.98,+124,-207,+9
114740,4.133,4.039,0.995,0.323407,-0.673117,-1.027651,100040.29,+121,-207,+10
114750,4.436,2.375,1.297,1.185957,-0.465594,-1.245816,100034.62,+118,-208,+15
114760,5.096,-0.610,1.061,1.708489,-0.394291,-1.431522,100034.62,+118,-208,+15
114769,5.011,-2.969,0.998,1.888342,-0.351722,-1.662990,100041.27,+113,-210,+21
114780,4.918,-3.027,1.646,1.855351,-0.270842,-1.991834,100038.60,+106,-211,+26
114790,4.700,-2.335,2.420,1.754783,-0.166016,-2.310568,100035.98,+98,-213,+32
114800,4.722,-1.405,2.466,1.718067,-0.097374,-2.541503,100036.38,+98,-213,+32
114809,5.404,-1.053,1.829,1.867590,-0.021814,-2.738384,100036.38,+89,-215,+38
114820,6.519,-2.256,2.057,2.157058,0.058002,-2.901742,100039.99,+79,-216,+44
114830,7.465,-4.059,2.444,2.296470,0.080883,-3.026255,100035.59,+69,-216,+51
114840,8.317,-5.087,2.944,2.162379,0.116534,-3.191741,100038.52,+58,-217,+57
114850,8.534,-5.056,3.390,1.977205,0.177195,-3.377448,100039.73,+58,-217,+57
114860,8.394,-4.601,3.659,1.916012,0.260736,-3.505154,100039.73,+47,-216,+63
114870,8.375,-5.040,3.982,1.912819,0.349598,-3.559961,100036.48,+35,-216,+69
114880,8.570,-6.057,4.187,1.800544,0.414516,-3.628071,100036.05,+23,-215,+74
114890,8.744,-6.625,4.085,1.539810,0.484222,-3.772273,100037.32,+23,-215,+74
114899,8.967,-6.142,3.658,1.321645,0.568828,-3.917539,100034.68,+11,-213,+78
114910,9.133,-5.628,3.506,1.275884,0.668864,-3.976071,100034.68,-1,-211,+82
114920,9.670,-5.023,3.548,1.370067,0.752938,-4.004805,100036.69,-14,-209,+86
114930,10.601,-4.565,3.667,1.529168,0.813066,-4.048438,100037.52,-14,-209,+86
114940,11.299,-4.852,3.916,1.717003,0.857231,-4.083025,100038.52,-25,-206,+92
114950,11.346,-5.338,4.001,1.877168,0.902992,-4.111759,100035.42,-37,-202,+99
114960,11.110,-5.658,4.143,1.960177,0.977488,-4.129851,100035.42,-49,-196,+105
114970,11.011,-5.823,4.120,2.015517,1.073800,-4.136236,100037.48,-49,-196,+105
114980,11.119,-5.757,4.089,2.041590,1.191928,-4.143686,100037.05,-60,-191,+112
114990,11.473,-5.638,4.025,2.056489,1.303139,-4.139961,100036.48,-70,-185,+120
115000,12.003,-5.569,3.848,2.031480,1.384552,-4.105374,100034.85,-80,-178,+129
115010,12.395,-5.544,3.538,1.938893,1.443616,-4.067594,100034.85,-80,-178,+129
115020,12.725,-5.463,3.296,1.801076,1.501616,-4.019172,100037.32,-90,-170,+137
115030,13.282,-5.429,3.057,1.675498,1.561212,-3.920732,100037.32,-98,-164,+145
115040,13.861,-5.717,3.102,1.645700,1.618680,-3.767484,100037.23,-105,-156,+153
115050,13.895,-6.754,2.746,1.714342,1.691579,-3.580182,100036.96,-105,-156,+153
115060,13.610,-7.916,1.918,1.598342,1.715524,-3.475356,100036.96,-111,-149,+163
115070,13.000,-8.423,1.492,1.177976,1.718717,-3.405649,100040.66,-117,-141,+171
115081,12.100,-8.863,1.122,0.701737,1.685194,-3.207882,100040.09,-120,-134,+178
115090,11.816,-9.569,0.812,0.345224,1.628258,-2.961870,100036.51,-120,-134,+178
115100,12.184,-10.565,0.713,0.039793,1.538332,-2.604292,100039.71,-123,-128,+184
115110,12.449,-11.485,0.736,-0.221473,1.465432,-2.198825,100039.71,-124,-125,+189
115120,12.300,-11.841,0.373,-0.520519,1.394662,-1.764091,100040.72,-124,-123,+193
115130,11.323,-11.718,-0.441,-0.800940,1.269616,-1.254862,100039.67,-124,-123,+193
115140,10.269,-11.442,-1.062,-1.020702,1.090295,-0.676458,100040.14,-123,-123,+195
115150,9.549,-10.884,-1.830,-1.114885,0.854038,-0.108165,100041.30,-121,-125,+197
115160,8.815,-9.868,-2.778,-0.992500,0.601818,0.344660,100041.30,-119,-128,+197
115170,8.079,-8.715,-3.243,-0.699840,0.351727,0.730440,100045.03,-119,-128,+197
115180,7.901,-6.910,-2.518,-0.222537,0.098975,1.079504,100041.83,-114,-131,+197
115190,9.410,-4.883,-1.668,0.483040,-0.178787,1.404091,100041.98,-111,-133,+200
115201,11.362,-1.453,7.459,1.615370,-0.225612,1.821265,100039.69,-107,-133,+204
115210,25.645,14.469,2.097,1.533425,-0.695997,1.865962,100039.69,-107,-133,+204
115220,38.855,10.266,-12.808,1.237572,-1.086566,1.887246,100044.95,-103,-131,+206
115230,27.591,-11.178,-3.115,2.990874,-0.494860,3.245190,100041.91,-98,-131,+211
115240,15.839,-13.246,-1.990,2.215058,-0.536364,2.880695,100043.13,-93,-129,+215
115250,5.991,-7.917,-1.983,0.082362,-0.488475,2.234714,100042.44,-93,-129,+215
115260,-0.815,-1.332,2.033,-0.882353,-0.462933,2.201723,100042.44,-90,-134,+215
115270,1.726,-1.698,7.217,-0.582243,-0.291062,2.478952,100042.63,-85,-141,+212
115280,9.340,-4.874,7.329,-0.010757,-0.120787,2.643906,100040.23,-78,-145,+212
115290,16.255,-5.446,3.132,-0.048005,-0.575208,2.706163,100041.01,-73,-145,+212
115300,14.548,-7.005,0.878,-0.248078,-0.760383,2.285264,100041.74,-73,-148,+212
115310,10.829,-5.435,0.776,-0.577986,-0.654493,1.604164,100041.74,-70,-152,+210
115320,9.492,-2.350,0.600,-0.682280,-0.650236,1.299797,100045.46,-68,-156,+207
115331,8.504,0.152,0.770,-0.266702,-0.589575,1.265742,100044.99,-66,-159,+207
115340,8.326,0.659,0.503,0.368637,-0.554988,1.379081,100044.48,-66,-159,+207
115350,8.921,-0.649,0.724,0.897554,-0.519337,1.448256,100042.32,-64,-158,+208
115360,10.014,-2.061,0.957,1.008233,-0.396420,1.370036,100042.32,-62,-158,+211
115371,10.445,-3.025,1.035,0.758673,-0.271906,1.245522,100041.78,-58,-157,+211
115380,9.784,-3.072,1.320,0.343628,-0.203264,1.097595,100043.67,-58,-157,+211
115390,9.056,-1.989,1.640,-0.018739,-0.161759,0.974678,100041.25,-57,-159,+212
115400,9.050,-1.213,1.507,-0.227858,-0.130365,0.911357,100041.83,-54,-160,+211
115410,9.578,-0.823,1.373,-0.298097,-0.108016,0.887944,100041.83,-52,-161,+211
115421,9.860,-0.667,1.407,-0.258189,-0.079282,0.874641,100044.05,-52,-161,+211
115431,9.771,-0.532,1.403,-0.196819,-0.039551,0.860984,100043.25,-50,-164,+211
115440,9.643,-0.656,1.593,-0.155491,-0.019686,0.861339,100040.89,-48,-165,+210
115450,9.384,-0.878,1.877,-0.143785,-0.047356,0.873045,100042.16,-45,-167,+209
115460,9.215,-1.268,2.171,-0.123565,-0.060658,0.899651,100042.16,-45,-167,+209
115470,9.404,-1.468,2.318,-0.071418,-0.079814,0.924128,100043.68,-43,-168,+211
115480,9.591,-1.622,2.142,-0.038427,-0.112805,0.938495,100044.30,-41,-168,+209
115490,9.572,-1.791,1.915,-0.061308,-0.142071,0.944348,100043.57,-39,-170,+209
115501,9.517,-1.725,1.798,-0.125161,-0.166016,0.962440,100043.20,-39,-170,+209
115510,9.608,-1.397,1.583,-0.199124,-0.179851,0.991174,100043.20,-35,-172,+209
115520,9.731,-0.769,1.525,-0.244886,-0.191025,1.030550,100043.35,-33,-172,+207
115530,9.735,-0.756,1.483,-0.269895,-0.203796,1.064072,100046.40,-31,-174,+207
115540,9.821,-1.062,1.326,-0.248611,-0.202732,1.098660,100043.10,-31,-174,+207
115550,9.888,-1.675,1.423,-0.223601,-0.195282,1.146017,100040.99,-28,-176,+206
115560,9.731,-2.426,1.687,-0.253932,-0.213906,1.180605,100040.99,-25,-178,+206
115570,9.487,-2.708,1.977,-0.323106,-0.239447,1.189118,100043.70,-22,-180,+205
115580,9.407,-2.823,1.970,-0.406115,-0.271374,1.209339,100042.27,-22,-180,+205
115591,9.489,-2.791,1.651,-0.489656,-0.308089,1.226366,100041.74,-19,-181,+204
115600,9.651,-2.501,1.440,-0.569473,-0.326181,1.249247,100039.85,-15,-184,+201
115610,9.586,-1.849,1.860,-0.593950,-0.338420,1.288623,100039.85,-13,-186,+200
115620,9.397,-1.838,2.060,-0.490720,-0.367686,1.329063,100043.28,-13,-186,+200
115631,9.409,-2.348,2.013,-0.318849,-0.400676,1.361522,100044.44,-10,-188,+199
115640,9.362,-2.693,1.715,-0.200189,-0.418236,1.391320,100041.61,-7,-189,+197
115650,9.627,-3.077,1.678,-0.155491,-0.435264,1.422714,100041.55,-3,-190,+197
115660,10.060,-3.597,1.572,-0.219877,-0.467722,1.458366,100041.55,-3,-190,+197
115671,10.210,-3.622,1.532,-0.358757,-0.495924,1.476458,100043.26,+0,-192,+195
115680,10.240,-3.647,1.699,-0.454537,-0.525190,1.501999,100043.30,+3,-193,+195
115690,10.234,-3.935,1.996,-0.501895,-0.545410,1.535522,100044.46,+6,-196,+194
115700,10.215,-4.311,1.823,-0.529032,-0.565630,1.565852,100040.26,+6,-196,+194
115710,10.303,-4.610,1.827,-0.576390,-0.569355,1.588733,100040.26,+11,-197,+192
115721,10.704,-4.870,1.282,-0.640243,-0.575741,1.604164,100044.40,+13,-199,+189
115730,11.432,-4.575,0.150,-0.713674,-0.606071,1.613210,100042.40,+18,-200,+187
115740,12.263,-4.518,-0.217,-0.726445,-0.655557,1.637155,100043.71,+21,-200,+187
115750,13.204,-4.299,-0.672,-0.733895,-0.723667,1.674935,100043.29,+21,-203,+185
115761,13.938,-3.793,-0.758,-0.750390,-0.790713,1.716971,100043.29,+25,-204,+182
115770,14.364,-3.561,-0.479,-0.781252,-0.856694,1.787210,100043.71,+28,-207,+180
115780,14.706,-3.532,-0.015,-0.806262,-0.925869,1.885118,100042.82,+32,-209,+177
115790,15.134,-3.210,0.837,-0.900977,-0.984933,1.993136,100045.13,+32,-209,+177
115801,15.798,-3.197,1.714,-1.034537,-1.040805,2.124035,100042.55,+35,-210,+175
115810,16.382,-3.154,2.491,-1.230353,-1.064217,2.257062,100042.55,+40,-212,+170
115820,16.822,-3.358,3.001,-1.480445,-1.076988,2.355503,100044.52,+45,-217,+166
115830,17.557,-2.818,3.586,-1.809289,-1.073795,2.395411,100041.96,+45,-217,+166
115841,19.039,-1.341,3.882,-2.208371,-1.071667,2.381576,100040.38,+50,-218,+160
115851,19.963,1.331,3.585,-2.612242,-1.122217,2.255998,100039.85,+54,-224,+151
115860,19.035,3.620,2.236,-2.779857,-1.214272,2.020806,100039.85,+57,-227,+142
115870,16.769,3.808,0.351,-2.373857,-1.318034,1.837760,100043.89,+57,-227,+142
115880,15.287,0.499,-0.422,-1.285160,-1.439887,1.999521,100042.00,+58,-228,+136
115891,14.771,-2.355,0.914,-0.318317,-1.546841,2.181503,100043.73,+60,-228,+135
115901,14.428,-4.049,3.067,0.080588,-1.597214,2.165717,100037.80,+62,-225,+134
115910,13.085,-4.223,4.448,0.136105,-1.614419,2.066035,100037.80,+62,-225,+134
115920,11.344,-4.541,6.160,0.279774,-1.565997,1.978769,100042.35,+64,-221,+134
115931,10.767,-4.087,7.151,0.585738,-1.486712,1.881393,100040.98,+65,-218,+134
115941,9.712,-1.705,6.415,0.913517,-1.420731,1.577026,100040.09,+65,-214,+133
115950,7.738,1.075,4.553,1.102948,-1.315905,1.002348,100040.66,+65,-214,+133
115960,2.344,-4.657,1.857,1.050802,-1.059960,0.547926,100040.66,+64,-209,+132
115971,3.803,-7.998,1.635,0.170692,-0.896071,0.640513,100039.47,+62,-207,+131
115981,8.200,-0.331,2.114,-1.344225,-0.831153,0.116385,100040.14,+61,-208,+120
115990,7.672,1.901,3.080,-1.694885,-0.653429,-0.479578,100039.25,+61,-208,+120
116000,6.463,3.112,2.443,-1.349014,-0.576805,-0.805761,100039.30,+58,-207,+111
116011,5.457,2.807,1.255,-0.699840,-0.449098,-0.965394,100039.30,+55,-207,+104
116021,5.514,1.616,1.238,0.238802,-0.235722,-1.127155,100041.76,+52,-206,+101
116030,5.738,0.038,1.452,1.074746,-0.131961,-1.303284,100042.13,+52,-206,+101
116040,5.413,-0.303,1.589,1.654746,-0.056401,-1.558164,100040.13,+49,-204,+101
116050,5.164,-0.264,1.447,2.016581,0.046828,-1.842843,100038.66,+45,-202,+103
116061,5.297,-0.174,1.242,2.201755,0.135158,-2.098256,100038.66,+41,-200,+107
116071,5.508,-0.084,1.526,2.257094,0.242644,-2.362715,100040.92,+41,-200,+107
116080,6.012,-0.180,1.622,2.140562,0.320864,-2.627705,100038.97,+35,-198,+111
116090,6.590,-0.732,1.395,1.907498,0.362901,-2.860769,100036.03,+28,-197,+115
116101,7.113,-1.534,0.960,1.662196,0.421965,-3.072549,100036.03,+20,-196,+118
116111,7.436,-2.198,0.695,1.447755,0.503378,-3.282732,100036.03,+20,-196,+118
116120,7.700,-2.620,0.805,1.276948,0.587451,-3.459925,100035.71,+13,-194,+120
116130,7.841,-2.771,1.235,1.173187,0.655561,-3.621686,100034.80,+3,-192,+123
116136,7.953,-2.745,1.587,1.156159,0.703983,-3.747796,100036.54,+3,-192,+123
116146,8.101,-2.857,1.829,1.213627,0.763580,-3.880824,100036.54,-5,-191,+126
116156,8.437,-3.053,2.094,1.332820,0.863616,-4.050035,100035.23,-17,-188,+129
116165,9.025,-3.295,2.306,1.450416,0.964185,-4.212328,100035.23,-28,-185,+133
116175,9.907,-3.478,2.217,1.534489,1.030167,-4.370365,100037.20,-28,-185,+133
116186,10.641,-3.849,1.935,1.636654,1.083378,-4.483704,100035.90,-39,-180,+139
116196,11.330,-4.278,1.690,1.741480,1.136589,-4.529465,100036.82,-51,-174,+145
116206,11.961,-5.041,1.696,1.796819,1.174368,-4.533190,100036.82,-62,-166,+151
116215,12.396,-5.998,2.149,1.705297,1.200974,-4.566181,100036.82,-62,-166,+151
116226,12.549,-6.757,2.384,1.485535,1.235029,-4.636419,100037.61,-74,-157,+157
116236,12.846,-6.794,2.025,1.249278,1.289304,-4.699740,100038.39,-83,-149,+162
116246,13.269,-6.241,1.580,1.095499,1.378166,-4.720493,100038.19,-93,-139,+167
116255,13.826,-5.786,1.387,1.070490,1.475010,-4.674199,100036.97,-93,-139,+167
116265,14.113,-5.870,0.993,1.110930,1.547909,-4.591190,100036.97,-102,-129,+172
116276,14.092,-6.608,0.555,1.164141,1.618148,-4.482108,100037.88,-108,-118,+178
116286,14.273,-7.297,0.830,1.151902,1.686790,-4.360254,100041.61,-115,-107,+184
116295,14.390,-7.853,0.939,1.011958,1.682001,-4.241594,100037.50,-115,-107,+184
116305,14.239,-8.144,0.948,0.840618,1.642625,-4.133576,100037.75,-119,-95,+189
116316,14.068,-8.071,0.899,0.670343,1.608038,-4.002144,100036.70,-122,-85,+194
116326,13.751,-8.072,0.877,0.517095,1.587818,-3.827613,100039.44,-126,-75,+198
116335,13.257,-8.596,1.024,0.389921,1.587286,-3.613704,100039.44,-126,-75,+198
116345,12.592,-9.185,0.928,0.197297,1.583029,-3.344457,100039.48,-128,-66,+202
116356,12.161,-9.338,0.864,-0.048537,1.601120,-3.067760,100038.70,-127,-58,+204
116366,11.928,-9.575,0.416,-0.284262,1.575047,-2.759136,100038.70,-128,-52,+208
116376,11.759,-10.181,-0.665,-0.504555,1.466497,-2.380806,100040.22,-128,-52,+208
116385,11.814,-11.260,-1.975,-0.673766,1.242478,-1.870513,100041.58,-128,-49,+212
116396,12.012,-11.574,-2.739,-0.758372,0.885965,-1.180899,100039.31,-126,-47,+212
116406,11.740,-10.185,-2.280,-0.717931,0.473048,-0.397101,100041.53,-125,-48,+214
116416,10.919,-8.098,-1.821,-0.420482,0.071305,0.357431,100045.57,-125,-50,+212
116426,9.499,-7.275,-1.216,0.215389,-0.188365,0.982128,100044.37,-125,-50,+212
116435,8.489,-7.281,-1.074,1.006636,-0.326713,1.450384,100040.21,-124,-51,+214
116446,8.467,-6.914,-2.018,1.651021,-0.440053,1.778164,100043.63,-123,-51,+215
116456,8.521,-6.923,-2.154,2.042122,-0.499117,2.004843,100043.63,-122,-49,+216
116465,8.242,-5.879,1.094,2.146948,-0.521465,2.101154,100043.63,-122,-49,+216
116475,7.113,-5.475,12.995,2.249113,-0.075025,2.190017,100043.28,-122,-48,+219
116486,13.580,9.105,20.931,1.169462,0.524662,1.875540,100039.55,-117,-48,+221
116496,27.313,21.022,-1.032,-1.356995,-0.260199,0.638385,100036.19,-118,-54,+219
116506,28.481,2.369,-11.214,-0.372060,-0.701851,1.779760,100045.44,-118,-54,+219
116515,22.718,-8.037,1.480,2.463021,-0.521465,3.213264,100045.44,-116,-56,+221
116526,13.096,-8.581,-1.194,1.563755,-0.636401,2.689136,100042.74,-114,-57,+221
116536,5.551,-6.735,-1.958,0.362784,-0.535832,2.010696,100042.26,-113,-60,+221
116546,3.127,-3.816,2.577,0.230820,-0.428878,2.348585,100040.63,-113,-60,+221
116555,8.164,-3.485,4.657,0.651187,-0.226677,2.845576,100040.63,-109,-64,+221
116566,12.846,-2.891,2.926,0.982159,-0.379924,2.598145,100040.63,-107,-68,+221
116576,11.469,-4.017,2.689,0.988013,-0.493796,2.212897,100044.99,-105,-69,+222
116586,9.730,-4.348,2.829,0.510710,-0.579465,1.975044,100041.46,-105,-69,+222
116595,9.792,-3.999,0.688,0.103114,-0.739098,1.770182,100043.46,-104,-72,+223
116606,9.820,-3.127,-1.134,-0.067693,-0.768896,1.526831,100039.95,-104,-77,+220
116616,9.677,-2.241,-1.309,-0.182629,-0.688016,1.411008,100039.95,-103,-80,+219
116626,9.984,-0.949,-0.261,-0.234244,-0.551263,1.371100,100042.68,-103,-80,+219
116636,9.929,-0.288,0.468,-0.100684,-0.364493,1.309907,100042.77,-102,-83,+217
116645,9.820,0.065,0.835,0.101518,-0.220823,1.277449,100042.62,-102,-85,+218
116656,9.615,-0.243,1.013,0.326600,-0.160163,1.260421,100040.60,-100,-87,+218
116666,9.390,-1.397,1.264,0.473995,-0.139943,1.202421,100043.02,-100,-87,+218
116676,9.470,-2.605,1.551,0.484105,-0.126640,1.123137,100040.71,-98,-87,+219
116685,9.674,-3.561,1.493,0.247848,-0.110145,1.003412,100040.71,-97,-89,+218
116696,9.684,-3.172,1.338,-0.168794,-0.091521,0.856550,100041.40,-96,-91,+218
116706,9.657,-1.901,0.962,-0.530097,-0.068108,0.734697,100042.60,-96,-91,+218
116716,9.875,-0.701,0.793,-0.636519,-0.036713,0.695320,100042.60,-94,-94,+217
116725,9.899,-0.149,1.151,-0.499234,-0.009576,0.714476,100043.73,-93,-97,+217
116736,9.689,-0.193,1.428,-0.249675,-0.001594,0.752256,100041.05,-92,-99,+216
116746,9.385,-0.782,1.721,-0.024060,-0.001594,0.787375,100041.42,-92,-99,+216
116756,9.327,-1.093,1.807,-0.009693,-0.014897,0.805999,100039.69,-90,-100,+216
116766,9.480,-1.177,2.274,-0.137400,-0.051080,0.824623,100042.88,-88,-102,+216
116775,9.689,-1.662,2.239,-0.255528,-0.105888,0.832605,100043.08,-87,-104,+216
116786,9.809,-1.388,1.862,-0.267234,-0.138878,0.816642,100043.50,-87,-104,+216
116796,9.686,-1.099,1.553,-0.206574,-0.163888,0.803871,100042.34,-86,-106,+215
116806,9.528,-1.048,1.338,-0.107069,-0.188365,0.816109,100042.34,-85,-109,+214
116815,9.516,-1.613,1.310,-0.013418,-0.206456,0.853889,100042.34,-85,-109,+214
116826,9.546,-2.077,1.286,0.031811,-0.219227,0.874109,100040.70,-85,-109,+214
116836,9.639,-2.286,1.124,0.010527,-0.229869,0.885284,100043.63,-81,-111,+216
116841,9.699,-2.255,1.103,-0.042152,-0.242108,0.903907,100040.59,-81,-113,+214
116851,9.633,-1.837,1.227,-0.103345,-0.253282,0.937963,100041.65,-81,-113,+214
116860,9.737,-0.664,1.968,-0.161877,-0.282548,1.002880,100041.65,-79,-115,+213
116871,9.791,-1.012,1.974,-0.097491,-0.330970,1.070990,100046.42,-78,-117,+212
116881,9.829,-1.421,1.653,0.025426,-0.358640,1.125265,100043.75,-77,-119,+211
116891,9.543,-2.056,1.456,0.104178,-0.377796,1.155595,100042.75,-77,-119,+211
116900,9.465,-2.427,1.279,0.095132,-0.391631,1.176880,100042.91,-75,-120,+212
116911,9.650,-2.687,1.339,0.026490,-0.407594,1.202953,100042.91,-74,-122,+211
116921,9.756,-2.830,1.528,-0.054923,-0.424089,1.208274,100043.46,-72,-123,+211
116931,9.859,-2.998,1.332,-0.125693,-0.445906,1.207742,100043.93,-72,-123,+211
116941,9.728,-2.793,1.142,-0.170390,-0.455484,1.204550,100042.20,-71,-127,+210
116951,9.669,-2.638,1.389,-0.159216,-0.474640,1.221045,100040.57,-69,-129,+209
116961,9.902,-3.085,1.320,-0.109730,-0.503374,1.258825,100040.57,-68,-131,+208
116971,10.309,-3.404,1.562,-0.128886,-0.509227,1.282238,100041.83,-68,-131,+208
116981,10.691,-3.794,1.819,-0.221473,-0.521997,1.313632,100045.61,-66,-133,+207
116990,10.956,-3.972,1.863,-0.382170,-0.540621,1.334384,100042.36,-64,-136,+205
117001,10.963,-3.910,2.021,-0.543399,-0.558181,1.364182,100041.31,-62,-139,+204
117011,10.840,-4.230,2.698,-0.704629,-0.558181,1.416329,100041.31,-62,-139,+204
117021,11.425,-3.841,1.843,-0.873839,-0.594896,1.458898,100043.85,-60,-143,+202
117030,12.270,-3.286,1.155,-0.931839,-0.658218,1.516898,100045.01,-58,-147,+199
117041,13.312,-3.169,0.515,-0.984518,-0.735373,1.594586,100042.74,-56,-153,+195
117051,14.381,-2.549,0.065,-1.036665,-0.808805,1.688237,100041.12,-56,-153,+195
117061,14.825,-2.243,0.094,-1.056885,-0.909905,1.795723,100041.12,-54,-158,+192
117071,14.871,-2.294,0.120,-1.011124,-1.021649,1.901081,100044.70,-51,-162,+189
117081,15.073,-2.632,0.369,-0.942482,-1.125942,2.018677,100044.23,-47,-167,+185
117091,16.088,-2.913,1.064,-0.948867,-1.221190,2.126163,100046.02,-47,-167,+185
117101,17.695,-2.927,1.811,-1.063271,-1.322823,2.209173,100041.50,-45,-171,+182
117111,19.394,-2.294,2.624,-1.270793,-1.404235,2.255998,100041.50,-41,-176,+176
117121,20.464,-0.725,3.515,-1.581013,-1.437758,2.268237,100040.31,-37,-183,+172
117131,20.148,0.675,3.967,-1.941252,-1.437226,2.282072,100042.20,-34,-190,+164
117141,18.901,2.108,3.916,-2.277013,-1.449465,2.272494,100039.58,-34,-190,+164
117151,17.555,3.149,3.235,-2.413765,-1.500015,2.246952,100040.69,-29,-195,+156
117160,16.770,1.069,2.361,-2.173784,-1.584621,2.275686,100040.69,-24,-202,+148
117171,15.616,-1.558,1.824,-1.996059,-1.685722,2.228328,100042.09,-21,-207,+141
117181,14.225,-2.128,3.209,-1.543766,-1.664969,2.211301,100042.77,-21,-207,+141
117191,13.613,-2.286,4.183,-0.741876,-1.630914,2.283136,100040.99,-15,-210,+137
117200,12.504,-1.758,5.104,0.003609,-1.545245,2.265576,100040.73,-11,-211,+136
117211,10.945,0.343,5.421,0.479316,-1.406896,2.038898,100040.73,-6,-212,+137
117221,8.973,2.885,3.827,0.825187,-1.336125,1.582347,100039.00,-6,-212,+137
117231,4.920,-0.179,2.481,1.245022,-1.191392,1.148146,100040.69,-3,-211,+140
117241,2.504,-7.585,1.984,1.205645,-0.950346,1.224238,100041.05,-2,-209,+143
117251,5.987,-5.283,1.462,0.311701,-0.905116,0.989577,100040.06,+0,-209,+144
117261,7.275,-1.435,2.035,-0.350776,-0.734309,0.379779,100040.06,+0,-209,+144
117271,5.790,1.510,2.636,-0.278941,-0.545410,-0.157651,100038.20,-1,-210,+143
117281,4.608,2.400,1.874,0.022233,-0.438988,-0.430092,100036.62,-3,-210,+143
117291,4.347,1.908,1.122,0.395242,-0.310218,-0.626972,100038.98,-7,-208,+143
117301,4.337,1.215,0.919,0.788471,-0.193686,-0.837688,100036.35,-7,-208,+143
117311,4.317,0.820,1.181,1.084502,-0.092762,-1.097180,100036.35,-11,-206,+147
117321,4.469,0.717,1.358,1.216820,-0.007979,-1.365541,100040.23,-16,-203,+150
117331,4.762,0.410,1.391,1.354104,0.083543,-1.672568,100039.59,-21,-200,+155
117341,4.910,0.033,1.325,1.553645,0.180387,-1.962036,100038.28,-21,-200,+155
117351,5.199,-0.415,1.262,1.745737,0.270314,-2.227026,100038.86,-28,-193,+160
117361,5.870,-0.987,1.142,1.852691,0.325121,-2.460090,100038.86,-35,-188,+166
117371,6.570,-1.444,0.987,1.838324,0.354919,-2.695815,100040.06,-43,-181,+172
117381,7.080,-1.323,1.016,1.767021,0.393763,-2.936329,100039.59,-43,-181,+172
117391,7.437,-1.129,1.258,1.755315,0.437929,-3.143852,100036.45,-51,-174,+177
117401,7.776,-1.382,1.343,1.870250,0.494864,-3.329026,100035.39,-60,-164,+181
117411,8.169,-2.069,1.510,2.071388,0.577873,-3.474824,100035.39,-68,-156,+187
117422,8.485,-2.950,1.716,2.207076,0.661415,-3.571668,100038.60,-68,-156,+187
117431,8.704,-3.735,2.140,2.158122,0.728993,-3.670108,100036.07,-76,-145,+193
117441,9.140,-4.072,2.408,1.948471,0.782736,-3.818035,100034.66,-83,-133,+199
117451,9.710,-4.162,2.448,1.669645,0.844993,-3.993631,100037.80,-90,-122,+204
117462,10.216,-4.321,2.425,1.413700,0.914167,-4.137833,100037.80,-90,-122,+204
117471,10.409,-4.486,2.315,1.204581,1.001433,-4.234144,100038.13,-97,-111,+207
117481,10.648,-4.869,2.421,1.050802,1.093488,-4.273520,100038.49,-103,-99,+211
117491,11.131,-5.310,2.558,0.933205,1.177561,-4.285759,100035.87,-107,-87,+214
117501,11.900,-5.446,2.607,0.865627,1.263763,-4.309704,100034.62,-107,-87,+214
117511,12.676,-5.300,2.521,0.901279,1.357414,-4.339502,100034.62,-112,-77,+219
117521,13.073,-5.185,2.266,1.067829,1.458515,-4.345356,100036.73,-116,-64,+223
117531,13.260,-5.384,1.959,1.306214,1.552166,-4.287888,100035.38,-117,-51,+226
117541,13.518,-5.695,1.817,1.564287,1.620808,-4.178273,100033.64,-117,-51,+226
117551,13.601,-6.160,1.863,1.826617,1.644221,-4.069191,100034.53,-118,-36,+231
117561,13.423,-6.813,1.903,2.059150,1.636772,-3.956383,100034.53,-116,-20,+236
117571,13.403,-7.151,1.708,2.119278,1.588350,-3.859539,100037.98,-115,-4,+240
117581,13.440,-7.118,1.719,2.022434,1.532478,-3.772805,100035.78,-111,+10,+243
117592,13.690,-7.300,1.715,1.859608,1.474478,-3.636053,100036.67,-111,+10,+243
117601,13.943,-7.746,1.619,1.645168,1.435634,-3.467374,100036.05,-108,+26,+246
117611,13.923,-8.222,1.596,1.379113,1.412754,-3.304017,100036.05,-104,+36,+249
117621,13.245,-8.828,1.347,1.108801,1.419139,-3.117778,100041.57,-99,+46,+252
117632,12.324,-9.626,1.199,0.804435,1.461176,-2.883118,100042.57,-99,+46,+252
117641,11.405,-10.782,1.162,0.381940,1.511194,-2.630898,100041.04,-94,+56,+254
117651,10.714,-12.016,0.466,-0.052794,1.480332,-2.260017,100040.52,-88,+60,+256
117661,10.502,-12.964,-0.081,-0.360354,1.367524,-1.759302,100040.52,-84,+63,+258
117671,10.139,-12.489,-0.813,-0.590225,1.160001,-1.286256,100047.77,-84,+63,+258
117682,9.884,-10.985,-1.371,-0.647161,0.892882,-0.782348,100044.51,-79,+62,+260
117691,10.135,-9.638,-1.860,-0.506152,0.611396,-0.226294,100043.99,-77,+62,+262
117701,10.695,-10.024,-2.799,-0.150702,0.335763,0.383504,100043.93,-76,+60,+262
117711,10.540,-10.357,-3.370,0.305316,0.032461,1.012458,100043.93,-76,+60,+262
117722,10.980,-9.860,-0.294,0.854453,-0.227209,1.612146,100044.27,-77,+61,+261
117731,13.442,-4.598,7.783,1.375388,-0.293722,2.091576,100044.89,-77,+61,+261
117741,25.943,12.606,0.545,0.724086,-0.901924,2.041558,100042.95,-82,+60,+259
117751,30.943,8.778,-9.193,0.475059,-0.997704,1.988347,100043.89,-82,+60,+259
117762,21.824,-8.563,-3.859,1.862269,-0.504438,2.975411,100043.89,-85,+60,+258
117771,15.409,-11.720,0.193,1.758507,-0.545410,3.164842,100045.13,-87,+62,+257
117781,7.380,-8.111,0.422,0.246784,-0.728988,2.702438,100042.24,-90,+57,+255
117791,1.001,-1.090,1.363,-0.655675,-0.646511,2.100622,100045.82,-90,+57,+255
117801,1.404,-2.067,5.179,-0.150170,-0.329374,2.295907,100044.91,-92,+51,+255
117811,8.867,-4.124,4.225,0.571903,-0.289998,2.679558,100044.91,-93,+47,+254
117821,14.965,-7.175,-0.527,0.591059,-0.615117,2.668916,100043.18,-96,+44,+254
117831,15.732,-7.371,0.270,0.135573,-0.676841,2.407117,100042.96,-96,+44,+254
117841,11.635,-5.603,1.213,-0.692390,-0.578933,1.842017,100044.01,-97,+40,+252
117852,8.744,-2.021,-0.563,-1.130316,-0.521465,1.386531,100043.76,-99,+32,+252
117861,7.570,0.961,0.223,-0.809454,-0.386309,1.298201,100043.76,-100,+27,+251
117871,7.764,1.174,0.829,-0.226794,-0.270842,1.366843,100046.07,-100,+27,+251
117881,8.979,-0.125,0.693,0.327132,-0.217099,1.436017,100043.02,-100,+24,+250
117892,10.484,-1.667,1.064,0.535719,-0.163355,1.425375,100043.40,-101,+23,+251
117901,10.812,-3.255,2.123,0.387261,-0.132493,1.274256,100042.09,-102,+22,+250
117911,9.969,-3.564,2.091,0.029683,-0.134089,1.052898,100042.09,-102,+22,+250
117921,9.283,-2.924,1.699,-0.294904,-0.093649,0.887412,100043.30,-102,+20,+250
117932,9.166,-2.250,1.364,-0.514133,-0.064915,0.778862,100042.84,-100,+16,+250
117942,9.450,-1.373,1.125,-0.577986,-0.022879,0.705431,100042.84,-101,+13,+250
117951,9.955,-0.817,1.003,-0.502427,0.034589,0.664458,100041.95,-101,+13,+250
117961,10.108,-1.086,0.852,-0.398133,0.084608,0.636256,100041.95,-101,+10,+249
117971,9.936,-1.524,0.922,-0.365675,0.124516,0.606990,100043.67,-100,+8,+250
117982,9.802,-1.972,1.431,-0.425271,0.139415,0.593155,100043.83,-100,+5,+250
117991,9.589,-1.939,2.093,-0.517326,0.114938,0.572403,100039.84,-100,+5,+250
118001,9.253,-1.504,2.479,-0.525308,0.070773,0.528770,100042.89,-99,+2,+251
118011,8.854,-1.248,2.430,-0.382170,0.040975,0.502165,100042.89,-98,+0,+250
118022,8.679,-1.546,2.224,-0.168262,0.011177,0.509082,100044.85,-98,-1,+250
118031,8.896,-1.786,1.865,-0.025124,-0.020750,0.525577,100045.65,-98,-2,+249
118041,9.286,-2.069,1.721,0.016912,-0.043631,0.533559,100041.38,-98,-2,+249
118051,9.602,-1.617,1.550,-0.061308,-0.046291,0.550054,100040.65,-98,-3,+250
118062,10.026,-1.211,1.614,-0.185822,-0.062255,0.576660,100040.65,-98,-5,+250
118072,10.405,-1.132,1.532,-0.206042,-0.073961,0.614972,100043.88,-98,-7,+248
118081,10.174,-1.376,1.435,-0.168262,-0.085135,0.649027,100041.61,-98,-7,+248
118091,9.453,-1.461,1.723,-0.100152,-0.098970,0.657541,100042.61,-97,-10,+249
118102,9.146,-1.502,2.000,-0.042684,-0.135686,0.687339,100040.45,-97,-11,+248
118112,9.380,-1.735,2.006,0.008931,-0.171337,0.732036,100040.45,-96,-12,+248
118121,9.609,-2.118,2.013,0.060545,-0.202732,0.759706,100040.14,-96,-12,+248
118132,9.628,-2.405,2.130,0.058594,-0.241044,0.783651,100041.83,-98,-13,+249
118141,9.535,-2.300,2.199,-0.004372,-0.274034,0.811853,100042.67,-97,-15,+248
118152,9.616,-1.874,2.339,-0.108666,-0.310218,0.853889,100041.67,-98,-16,+248
118161,9.989,-1.529,2.382,-0.194335,-0.355447,0.907632,100041.67,-98,-16,+248
118171,10.411,-1.368,2.047,-0.212959,-0.402805,0.965100,100041.54,-98,-18,+246
118181,10.479,-1.388,1.904,-0.169858,-0.432603,1.020972,100043.70,-99,-22,+246
118192,10.321,-1.860,2.093,-0.135803,-0.472511,1.089614,100041.85,-100,-24,+245
118202,10.154,-2.375,2.161,-0.146978,-0.506566,1.148146,100040.54,-100,-24,+245
118211,10.058,-2.681,2.117,-0.230519,-0.533172,1.195504,100040.54,-101,-27,+244
118221,10.156,-2.671,1.832,-0.351840,-0.566163,1.253504,100041.98,-100,-30,+242
118232,10.151,-2.498,1.693,-0.428996,-0.586915,1.315228,100039.93,-101,-34,+241
118242,10.151,-2.578,1.613,-0.423143,-0.627887,1.378017,100040.93,-101,-34,+241
118251,10.260,-2.944,1.746,-0.408243,-0.659282,1.441338,100041.77,-102,-38,+240
118261,10.446,-3.569,1.911,-0.434849,-0.674713,1.497742,100041.77,-103,-44,+238
118272,10.712,-3.849,1.725,-0.524243,-0.689612,1.530201,100043.73,-103,-48,+236
118282,11.406,-3.928,1.015,-0.622684,-0.741227,1.550421,100042.84,-103,-48,+236
118291,12.141,-3.677,0.632,-0.708885,-0.797098,1.573302,100041.58,-103,-54,+234
118301,12.608,-3.279,0.390,-0.761032,-0.851905,1.608953,100040.80,-104,-58,+231
118311,13.027,-3.242,-0.032,-0.754115,-0.916823,1.664292,100040.80,-104,-64,+229
118322,13.355,-3.082,-0.124,-0.772739,-0.985465,1.727081,100043.04,-104,-64,+229
118332,13.771,-3.035,0.213,-0.831271,-1.048254,1.800512,100043.13,-105,-71,+226
118341,14.134,-3.162,0.708,-0.902041,-1.108915,1.896292,100043.20,-105,-77,+223
118351,14.535,-3.200,1.207,-1.031344,-1.154676,1.980366,100043.13,-104,-83,+220
118362,15.147,-3.087,1.581,-1.220243,-1.191924,2.055393,100043.13,-104,-83,+220
118367,15.821,-3.040,1.817,-1.387325,-1.237153,2.106475,100042.55,-105,-92,+215
118376,16.820,-2.762,1.985,-1.565582,-1.298346,2.141062,100042.55,-105,-100,+210
118386,18.429,-1.682,2.116,-1.861967,-1.363263,2.155430,100044.28,-105,-100,+210
118396,19.654,0.089,2.261,-2.215288,-1.402107,2.140530,100040.56,-104,-110,+204
118407,19.899,2.862,2.674,-2.592554,-1.476602,2.102219,100039.45,-103,-121,+197
118417,18.684,5.049,2.674,-2.672370,-1.603777,2.103815,100043.29,-103,-130,+188
118427,16.824,3.317,1.616,-2.023729,-1.729887,2.215558,100042.38,-103,-130,+188
118436,16.242,-0.995,1.042,-0.962170,-1.854400,2.475760,100043.76,-102,-138,+182
118447,15.699,-4.116,1.954,-0.175179,-1.970400,2.579521,100043.76,-100,-143,+178
118457,14.713,-4.949,3.247,0.170692,-2.042235,2.486402,100038.87,-98,-147,+175
118466,13.399,-3.878,5.190,0.384600,-2.009776,2.400732,100038.87,-98,-147,+175
118476,12.025,-1.700,7.030,0.670343,-1.888987,2.277815,100043.01,-96,-150,+173
118487,10.381,1.610,7.857,1.123168,-1.708070,1.911191,100043.90,-94,-152,+172
118497,8.374,3.569,6.628,1.729241,-1.578767,1.380678,100039.54,-94,-150,+173
118507,4.252,-1.913,3.788,2.353406,-1.482988,1.007669,100039.76,-94,-150,+173
118516,3.068,-9.893,2.078,2.083627,-1.420731,0.988513,100039.76,-94,-145,+177
118526,7.366,-6.422,1.874,0.724618,-1.329740,0.684146,100040.91,-96,-143,+177
118537,7.679,-3.245,2.234,-0.200189,-1.218529,0.095633,100038.39,-99,-145,+173
118547,6.031,0.118,2.387,-0.475289,-1.061557,-0.530660,100037.97,-99,-145,+173
118556,4.611,1.658,1.381,-0.518390,-1.020052,-0.815339,100037.97,-102,-143,+170
118566,4.220,1.861,0.855,-0.204978,-0.924272,-0.984018,100037.97,-107,-142,+168
118577,4.454,1.375,1.070,0.362251,-0.820511,-1.145779,100041.31,-111,-139,+168
118587,4.568,0.614,1.400,0.952361,-0.742823,-1.334146,100039.48,-111,-139,+168
118596,4.491,0.024,1.865,1.466379,-0.654493,-1.562953,100037.80,-116,-133,+168
118602,4.491,-0.356,2.051,1.765957,-0.589043,-1.759834,100040.42,-122,-125,+170
118611,4.471,-0.574,2.072,1.970287,-0.525722,-1.972146,100040.42,-122,-125,+170
118622,4.445,-0.636,2.123,2.107571,-0.429410,-2.234476,100039.50,-126,-115,+173
118632,4.599,-0.877,2.078,2.151204,-0.322456,-2.460623,100037.94,-132,-105,+176
118641,5.102,-1.342,2.154,2.137902,-0.208585,-2.662824,100036.88,-137,-93,+179
118651,5.853,-1.924,2.287,2.056489,-0.101099,-2.849595,100035.72,-137,-93,+179
118662,6.473,-2.566,2.288,1.947406,-0.009044,-3.028384,100035.72,-143,-79,+182
118672,6.907,-2.918,2.246,1.854287,0.079819,-3.219411,100036.30,-147,-67,+184
118682,7.369,-3.053,2.300,1.780324,0.188369,-3.385962,100039.68,-152,-53,+185
118691,8.262,-3.332,2.158,1.707957,0.257011,-3.506750,100033.48,-152,-53,+185
118702,8.676,-4.081,2.685,1.701040,0.343213,-3.579649,100034.32,-154,-39,+189
118712,9.139,-4.590,3.327,1.654214,0.433672,-3.688200,100034.32,-158,-25,+190
118722,9.538,-4.649,3.737,1.601535,0.537433,-3.843044,100036.41,-159,-11,+192
118731,9.912,-4.679,3.867,1.580251,0.663011,-3.977668,100034.89,-159,-11,+192
118742,10.143,-5.049,3.769,1.560031,0.800827,-4.056420,100034.16,-158,+4,+194
118752,10.216,-5.830,3.683,1.471700,0.945029,-4.101649,100034.73,-158,+20,+195
118762,10.382,-6.521,3.609,1.286526,1.083910,-4.123466,100034.73,-156,+34,+198
118771,10.718,-6.778,3.478,1.056123,1.221194,-4.142089,100039.21,-156,+34,+198
118781,11.195,-6.557,3.326,0.850728,1.360075,-4.166566,100039.12,-153,+49,+200
118792,11.741,-6.244,3.125,0.744838,1.511726,-4.178273,100037.16,-147,+62,+204
118802,12.153,-6.016,2.901,0.746967,1.650074,-4.173484,100039.32,-141,+75,+206
118811,12.218,-5.915,2.483,0.780490,1.767139,-4.153796,100039.32,-141,+75,+206
118821,12.173,-5.897,2.183,0.828380,1.877285,-4.088879,100039.52,-134,+88,+209
118832,12.297,-5.828,1.866,0.840618,1.961891,-3.998420,100039.10,-125,+100,+212
118842,12.502,-5.628,1.635,0.829444,2.006056,-3.916475,100038.10,-117,+111,+216
118852,12.832,-5.368,1.414,0.849132,2.031597,-3.813778,100037.79,-117,+111,+216
118861,13.375,-5.377,1.230,0.904471,2.036386,-3.704163,100037.79,-106,+123,+218
118872,13.958,-5.367,0.943,0.910325,1.992221,-3.639778,100037.71,-96,+133,+221
118882,14.429,-5.407,0.742,0.874673,1.925707,-3.569539,100039.18,-86,+142,+222
118892,14.515,-5.858,0.572,0.803903,1.847487,-3.447154,100039.65,-86,+142,+222
118901,13.932,-6.601,0.655,0.744838,1.771396,-3.276347,100039.85,-75,+150,+224
118912,12.937,-7.171,0.549,0.732600,1.701157,-3.036897,100039.85,-65,+158,+226
118922,12.275,-7.673,0.554,0.728875,1.656992,-2.762329,100042.20,-56,+165,+227
118932,11.676,-8.326,0.404,0.716637,1.584093,-2.454769,100042.31,-47,+165,+227
118942,11.235,-9.283,-0.083,0.707591,1.477671,-2.090806,100042.25,-47,+170,+227
118951,11.261,-10.580,-0.436,0.646398,1.348900,-1.675228,100042.83,-41,+175,+228
118962,11.202,-11.636,-0.728,0.415995,1.187139,-1.242091,100042.83,-34,+178,+228
118972,10.673,-12.265,-0.947,0.054692,1.003561,-0.829174,100042.93,-30,+178,+229
118982,9.929,-12.277,-1.558,-0.342262,0.797635,-0.427431,100042.68,-30,+178,+229
118991,9.571,-11.942,-2.058,-0.608849,0.576809,0.048807,100042.99,-28,+178,+231
119002,9.555,-10.813,-2.173,-0.635454,0.332571,0.554311,100042.93,-28,+174,+233
119012,10.187,-8.901,-2.555,-0.352904,0.047892,1.034274,100042.93,-30,+172,+233
119022,10.233,-6.777,-0.363,0.362784,-0.182511,1.509981,100046.45,-30,+172,+233
119031,10.573,-2.190,8.300,1.312600,-0.164952,1.978237,100047.66,-34,+172,+231
119042,18.890,15.482,9.841,1.146581,-0.336823,1.846274,100040.05,-37,+174,+228
119052,26.839,21.376,-7.429,0.643737,-0.873722,1.069926,100044.67,-41,+175,+226
119062,24.171,-2.755,-5.499,2.626379,-0.406530,2.402328,100044.67,-41,+175,+226
119072,18.745,-14.542,-1.485,3.343840,-0.460273,3.189851,100045.92,-48,+182,+220
119081,10.905,-12.691,-2.512,1.419021,-0.546475,2.552916,100044.14,-55,+184,+216
119092,5.346,-5.882,-0.573,-0.473693,-0.420364,1.908531,100045.03,-59,+179,+218
119102,5.313,-3.107,4.862,-0.687069,-0.236255,2.200659,100042.98,-59,+179,+218
119112,9.275,-1.813,6.921,-0.136868,-0.161759,2.429466,100042.98,-64,+174,+218
119121,12.391,-1.607,3.852,0.156325,-0.468254,2.295907,100044.80,-68,+170,+217
119132,11.028,-4.333,2.395,0.248912,-0.624695,2.045283,100043.59,-74,+166,+217
119142,9.924,-4.864,2.525,-0.094299,-0.670456,1.786145,100044.06,-74,+166,+217
119152,9.886,-3.820,0.154,-0.457730,-0.724199,1.499870,100042.70,-78,+164,+216
119161,10.355,-1.274,-1.131,-0.501895,-0.659814,1.329595,100042.70,-83,+160,+216
119172,9.529,0.616,-0.326,-0.231051,-0.475172,1.315760,100045.91,-86,+156,+215
119182,9.408,1.076,0.237,0.170160,-0.292126,1.326935,100041.13,-86,+156,+215
119192,9.969,0.101,0.903,0.566582,-0.193686,1.374292,100042.54,-88,+154,+214
119202,9.718,-1.458,2.226,0.728343,-0.154842,1.348219,100042.13,-92,+154,+213
119212,9.197,-2.669,2.737,0.557536,-0.177722,1.219981,100042.13,-94,+154,+212
119222,9.055,-3.158,2.518,0.156325,-0.201135,1.068329,100046.26,-94,+154,+212
119232,9.500,-2.571,1.936,-0.371528,-0.209649,0.941155,100042.43,-96,+151,+212
119242,9.791,-1.733,1.383,-0.778060,-0.172933,0.841651,100044.95,-97,+147,+212
119251,10.094,-0.455,0.903,-0.943546,-0.105356,0.782054,100042.12,-99,+143,+214
119262,10.141,0.437,0.663,-0.852555,-0.025007,0.753853,100042.12,-99,+143,+214
119272,10.008,0.428,0.997,-0.604592,0.037782,0.785247,100046.71,-100,+139,+215
119282,9.791,-0.482,1.991,-0.359289,0.070773,0.828348,100047.07,-101,+136,+216
119291,9.325,-1.765,2.731,-0.260317,0.046296,0.826219,100042.13,-102,+133,+216
119302,9.185,-2.362,3.004,-0.317785,-0.015429,0.778862,100044.45,-102,+133,+216
119312,9.111,-2.148,2.741,-0.410904,-0.067576,0.711284,100044.45,-102,+131,+216
119322,9.002,-1.546,2.296,-0.435913,-0.087796,0.666054,100044.95,-103,+127,+217
119332,9.166,-0.940,1.960,-0.384299,-0.093649,0.663394,100044.89,-105,+125,+216
119342,9.646,-0.899,1.793,-0.282666,-0.089924,0.686807,100042.42,-105,+125,+216
119352,9.944,-1.306,1.593,-0.214556,-0.092585,0.708623,100044.64,-105,+123,+218
119362,9.944,-1.414,1.564,-0.210299,-0.092585,0.712880,100044.64,-107,+121,+217
119372,9.562,-1.387,2.171,-0.240097,-0.112273,0.733100,100043.98,-107,+119,+217
119382,9.080,-1.511,2.618,-0.223601,-0.143135,0.773009,100043.09,-109,+119,+217
119392,8.908,-1.625,2.740,-0.154427,-0.175062,0.807064,100038.52,-109,+116,+218
119402,9.025,-1.444,2.682,-0.110794,-0.206988,0.843247,100041.83,-111,+115,+216
119412,9.499,-0.880,2.835,-0.124629,-0.235722,0.900183,100041.83,-112,+113,+216
119422,10.103,-0.777,2.633,-0.111326,-0.269777,0.965100,100042.48,-114,+109,+217
119432,10.228,-1.133,2.121,-0.029913,-0.298511,1.003412,100041.23,-114,+109,+217
119442,9.889,-1.703,1.957,0.056288,-0.318732,1.020972,100040.38,-115,+108,+216
119452,9.562,-2.264,1.969,0.074380,-0.338420,1.038531,100042.79,-117,+105,+216
119462,9.652,-2.650,1.881,0.006270,-0.364493,1.061412,100042.79,-119,+103,+214
119472,9.915,-2.658,1.884,-0.106537,-0.391631,1.080568,100043.45,-119,+103,+214
119482,10.074,-2.585,2.017,-0.213491,-0.423557,1.108238,100044.02,-122,+100,+213
119492,10.006,-2.209,2.103,-0.275748,-0.443245,1.137504,100044.51,-123,+96,+212
119502,9.759,-2.239,1.979,-0.271491,-0.458676,1.179540,100041.15,-126,+93,+212
119512,9.680,-2.598,1.617,-0.254996,-0.459741,1.227962,100041.15,-126,+93,+212
119522,9.821,-2.909,1.432,-0.299693,-0.450695,1.268935,100044.19,-126,+88,+211
119532,9.929,-3.053,1.477,-0.396537,-0.448566,1.293944,100045.61,-130,+85,+211
119542,9.819,-2.999,1.744,-0.488060,-0.469319,1.317357,100040.78,-132,+79,+210
119552,9.628,-3.057,2.075,-0.499766,-0.496988,1.341302,100044.23,-132,+79,+210
119562,9.526,-3.516,2.054,-0.447620,-0.520401,1.360458,100044.23,-133,+75,+210
119572,9.554,-4.092,1.690,-0.445491,-0.529447,1.364182,100043.36,-136,+70,+209
119582,9.736,-4.226,1.097,-0.558298,-0.548603,1.363118,100043.47,-138,+65,+208
119592,10.275,-3.836,0.274,-0.686005,-0.605007,1.375357,100043.05,-138,+65,+208
119602,11.047,-3.271,-0.260,-0.718996,-0.677906,1.410476,100045.83,-140,+60,+207
119612,11.706,-3.004,-0.479,-0.659931,-0.751869,1.467944,100045.83,-143,+54,+205
119622,11.941,-3.120,-0.578,-0.546592,-0.832750,1.530201,100045.20,-145,+48,+204
119632,12.042,-3.297,-0.640,-0.426867,-0.918419,1.576494,100044.35,-145,+48,+204
119642,12.216,-3.638,-0.223,-0.350244,-0.999832,1.628641,100042.57,-148,+43,+201
119652,12.784,-4.086,0.624,-0.349179,-1.084970,1.694090,100040.26,-151,+38,+199
119662,13.413,-4.030,1.401,-0.466243,-1.169043,1.763797,100040.26,-153,+32,+197
119672,14.014,-3.976,1.845,-0.629601,-1.247795,1.846274,100043.46,-153,+32,+197
119683,15.089,-3.781,1.909,-0.792959,-1.349960,1.938329,100044.09,-156,+26,+193
119692,16.989,-3.440,2.032,-0.955252,-1.487777,2.028787,100044.82,-159,+17,+190
119702,18.860,-2.441,2.090,-1.139362,-1.622933,2.088384,100043.24,-162,+9,+185
119712,19.675,-1.208,2.130,-1.268133,-1.709666,2.132549,100043.24,-162,+9,+185
119723,20.152,0.322,2.242,-1.338903,-1.788419,2.189485,100044.42,-166,+0,+180
119732,20.431,1.500,2.169,-1.333582,-1.878877,2.260787,100045.20,-168,-10,+175
119742,20.324,2.074,2.345,-1.185656,-1.991685,2.351778,100043.00,-170,-19,+169
119752,20.075,1.288,3.089,-0.861601,-2.169941,2.487466,100043.69,-170,-19,+169
119762,17.670,0.119,4.078,-0.540739,-2.320529,2.542805,100043.69,-173,-27,+163
119772,13.791,-0.531,4.520,0.066398,-2.277428,2.453411,100042.93,-175,-36,+157
119778,11.463,-1.879,4.355,0.646398,-2.148125,2.406585,100041.62,-175,-36,+157
119787,10.325,-3.828,4.052,1.098159,-1.989556,2.403925,100041.62,-176,-41,+152
119797,10.057,-4.293,4.384,1.235444,-1.778841,2.313998,100041.41,-176,-46,+149
119808,9.746,-2.612,5.376,1.170526,-1.555887,2.038898,100042.66,-177,-49,+147
119818,9.021,0.148,5.912,1.165737,-1.360070,1.614274,100044.73,-177,-49,+147
119827,7.629,1.558,3.224,1.105077,-1.307392,1.075247,100042.53,-177,-51,+145
119837,4.748,-4.359,0.118,0.961407,-1.210548,0.845375,100040.28,-179,-52,+142
119847,4.189,-4.467,3.209,0.290417,-1.051447,0.892733,100041.69,-179,-53,+140
119857,6.298,0.450,3.039,-0.388023,-0.979080,0.338275,100041.69,-179,-53,+140
119867,6.813,2.475,3.362,-0.337473,-0.740695,-0.366771,100041.69,-180,-54,+137
119877,6.242,3.029,2.632,-0.073546,-0.688016,-0.656238,100041.98,-181,-52,+135
119887,5.208,2.190,1.595,0.209536,-0.651300,-0.779156,100041.20,-183,-50,+134
119892,4.740,1.693,1.201,0.491022,-0.541153,-0.945706,100040.78,-183,-50,+134
119902,4.837,1.017,1.194,0.781554,-0.433667,-1.117045,100041.36,-185,-45,+134
119912,5.260,-0.109,1.398,1.074214,-0.334695,-1.337339,100041.36,-187,-38,+133
119922,5.702,-0.746,1.606,1.188618,-0.272970,-1.609779,100040.47,-187,-38,+133
119932,5.885,-0.741,1.491,1.198728,-0.217099,-1.945008,100038.05,-189,-31,+135
119943,5.934,-0.337,1.270,1.212031,-0.135154,-2.252568,100040.14,-192,-22,+135
119952,6.203,-0.304,1.080,1.271095,-0.060126,-2.485632,100037.58,-194,-12,+136
119962,6.665,-0.702,1.007,1.346122,-0.001062,-2.693155,100037.58,-194,-12,+136
119972,7.180,-1.105,1.039,1.403058,0.046828,-2.894824,100039.04,-196,+0,+136
119983,7.666,-1.536,1.185,1.483407,0.100571,-3.087448,100039.40,-196,+12,+137
119992,7.883,-2.030,1.493,1.604728,0.158571,-3.264640,100037.51,-196,+25,+138
120002,8.277,-2.391,1.398,1.724985,0.230938,-3.430127,100033.88,-196,+25,+138
120012,8.976,-2.630,1.443,1.830342,0.297452,-3.581246,100033.88,-197,+40,+139
120023,9.406,-3.150,2.167,1.956452,0.387378,-3.703099,100038.21,-196,+57,+139
120032,10.006,-3.543,2.450,2.010727,0.441653,-3.820163,100033.96,-193,+74,+140
120042,10.405,-4.116,2.470,2.022966,0.502314,-3.947869,100036.96,-193,+74,+140
120052,10.692,-4.887,2.503,1.959113,0.561378,-4.084621,100036.23,-190,+90,+141
120062,10.774,-5.436,2.620,1.772342,0.621506,-4.213924,100036.23,-186,+107,+141
120073,10.826,-5.587,2.764,1.500966,0.684828,-4.317686,100040.85,-179,+124,+141
120082,10.885,-5.554,2.832,1.267370,0.756662,-4.394842,100037.76,-179,+124,+141
120092,10.932,-5.553,2.782,1.108801,0.853506,-4.455502,100037.07,-172,+139,+142
120102,11.145,-5.544,2.780,1.009829,0.968974,-4.477851,100036.80,-165,+156,+143
120113,11.456,-5.476,2.809,0.928948,1.092424,-4.487429,100036.80,-155,+170,+144
120122,11.766,-5.487,2.776,0.849664,1.220662,-4.492218,100040.24,-155,+170,+144
120132,11.963,-5.415,2.493,0.771444,1.338258,-4.476254,100039.55,-144,+185,+147
120142,12.124,-5.307,2.284,0.699077,1.454790,-4.441667,100037.13,-133,+198,+148
120153,12.464,-5.211,1.983,0.640545,1.551102,-4.391117,100039.35,-120,+210,+150
120162,12.951,-5.158,1.489,0.570306,1.616552,-4.318218,100039.35,-120,+210,+150
120172,13.646,-5.693,1.276,0.594251,1.663377,-4.204878,100042.40,-107,+221,+152
120182,14.272,-6.625,1.046,0.653315,1.663909,-4.063869,100039.88,-93,+231,+153
120193,14.390,-7.361,0.687,0.650123,1.642625,-3.926053,100038.10,-79,+241,+154
120203,14.073,-7.517,0.495,0.600105,1.621873,-3.770677,100040.66,-79,+241,+154
120212,13.424,-7.443,0.508,0.567646,1.599524,-3.557833,100040.66,-65,+249,+155
120222,12.893,-7.626,0.415,0.563389,1.566533,-3.273686,100041.52,-52,+255,+156
120232,12.670,-8.557,0.318,0.566582,1.525561,-2.958677,100045.34,-41,+261,+157
120243,12.347,-10.340,0.421,0.497407,1.466497,-2.627705,100040.67,-41,+261,+157
120252,11.676,-11.720,-0.040,0.293077,1.332405,-2.235540,100039.67,-30,+266,+158
120262,11.427,-12.498,-0.703,0.073848,1.152020,-1.773669,100039.67,-21,+269,+158
120272,10.544,-12.649,-1.420,-0.103877,0.894479,-1.276678,100043.30,-15,+269,+159
120283,10.220,-12.469,-1.783,-0.218280,0.574149,-0.653578,100043.30,-15,+269,+159
120292,10.175,-12.472,-1.998,-0.153895,0.239984,0.058917,100042.62,-13,+270,+161
120302,10.099,-11.783,-1.867,0.043518,-0.056401,0.734697,100043.09,-14,+269,+160
120312,9.725,-11.331,0.642,0.400563,-0.239447,1.320549,100043.09,-19,+269,+159
120323,9.531,-10.303,8.508,0.904471,-0.074493,1.777632,100041.82,-24,+269,+157
120333,19.107,2.509,8.537,0.265407,-0.071833,1.925558,100043.46,-24,+269,+157
120342,28.857,12.982,-4.733,-0.891399,-0.847649,1.525412,100047.02,-31,+266,+158
120352,24.453,0.199,-1.223,0.356930,-0.433135,2.346989,100042.77,-37,+263,+157
120363,18.956,-7.874,0.948,1.672306,-0.445728,3.103294,100042.77,-47,+263,+153
120373,12.567,-8.758,0.791,1.428067,-0.601814,2.870053,100045.73,-47,+263,+153
120382,4.879,-4.397,0.439,0.421848,-0.684291,2.327833,100044.16,-56,+261,+149
120392,1.798,-0.603,2.864,-0.011290,-0.507098,2.185228,100042.02,-63,+257,+148
120402,4.377,-3.192,4.481,0.367040,-0.271374,2.399668,100040.38,-71,+253,+148
120413,10.830,-5.293,2.321,0.621921,-0.293190,2.361356,100040.38,-71,+253,+148
120423,14.869,-5.774,0.130,0.326600,-0.541153,2.183631,100043.29,-79,+250,+145
120432,14.048,-4.140,1.198,0.008398,-0.567759,1.964934,100043.91,-85,+247,+144
120442,11.833,-2.527,0.895,-0.248078,-0.603942,1.665357,100040.13,-90,+243,+144
120453,9.518,-2.267,-0.534,-0.327363,-0.607135,1.486036,100040.55,-90,+243,+144
120462,8.184,-1.353,-0.245,-0.301289,-0.489007,1.434421,100040.55,-96,+240,+144
120472,7.986,-0.840,-0.047,-0.215088,-0.355447,1.388659,100046.44,-99,+236,+144
120482,9.170,-1.296,0.156,-0.136868,-0.212310,1.346091,100044.08,-103,+233,+144
120493,10.609,-1.505,0.404,-0.215088,-0.146860,1.306715,100042.81,-103,+233,+144
120503,10.525,-1.514,1.370,-0.254996,-0.111209,1.164109,100040.03,-106,+229,+144
120512,9.716,-1.256,2.093,-0.152299,-0.113337,1.020440,100040.03,-109,+227,+145
120522,9.026,-1.476,1.825,0.013720,-0.112805,0.892201,100044.47,-112,+225,+144
120532,9.008,-2.077,1.783,0.052564,-0.089392,0.787375,100044.36,-112,+225,+144
120543,9.487,-2.098,1.340,-0.079932,-0.078218,0.699045,100041.53,-114,+223,+144
120553,9.844,-1.345,1.088,-0.212959,-0.036181,0.614440,100043.00,-115,+222,+145
120562,9.726,-0.816,1.338,-0.194867,0.007984,0.564421,100043.00,-117,+220,+146
120572,9.407,-0.498,1.726,-0.028849,0.025543,0.547394,100043.49,-117,+220,+146
120583,9.183,-0.650,1.963,0.215389,0.045232,0.554843,100043.23,-118,+219,+146
120593,9.204,-1.066,1.946,0.392050,0.043103,0.594220,100043.55,-119,+218,+144
120598,9.500,-1.412,1.915,0.445261,0.028204,0.625082,100038.55,-119,+218,+144
120607,9.680,-1.950,1.935,0.432490,0.010644,0.634660,100038.55,-121,+218,+144
120617,9.626,-2.222,1.819,0.346288,-0.009044,0.647431,100038.55,-122,+217,+143
120628,9.578,-1.819,1.555,0.216985,-0.028732,0.654348,100043.25,-124,+215,+143
120638,9.700,-1.054,1.122,0.091940,-0.056401,0.668715,100041.78,-124,+215,+143
120647,9.955,-0.217,1.339,0.106839,-0.061190,0.728311,100041.72,-125,+214,+143
120657,10.159,0.135,1.346,0.169096,-0.073961,0.803871,100041.72,-127,+212,+142
120668,9.949,-0.180,1.501,0.195701,-0.081411,0.868256,100044.49,-130,+210,+143
120678,9.802,-0.648,1.790,0.141958,-0.108548,0.928917,100044.49,-130,+210,+143
120687,9.795,-1.126,2.074,0.035536,-0.150053,0.986917,100041.76,-133,+208,+141
120697,9.718,-1.289,2.217,-0.099620,-0.199007,1.037999,100043.13,-134,+205,+141
120708,9.607,-0.925,2.190,-0.214556,-0.242640,1.090146,100041.66,-137,+202,+141
120718,9.592,-0.759,2.206,-0.267766,-0.285741,1.142825,100041.66,-137,+202,+141
120728,9.542,-1.402,1.951,-0.240097,-0.325117,1.184329,100044.55,-140,+198,+141
120737,9.547,-1.757,1.636,-0.161877,-0.337355,1.207742,100043.49,-144,+196,+141
120748,9.465,-2.015,1.296,-0.106537,-0.343209,1.208806,100041.71,-146,+192,+141
120758,9.485,-2.347,1.150,-0.087913,-0.341080,1.211999,100041.73,-146,+192,+141
120768,9.568,-2.635,1.091,-0.090574,-0.330438,1.214128,100040.16,-149,+188,+140
120777,9.597,-2.676,1.083,-0.162941,-0.325649,1.209871,100040.64,-153,+184,+139
120787,9.635,-2.903,1.125,-0.259785,-0.325649,1.196036,100044.58,-156,+181,+139
120798,9.718,-2.608,1.365,-0.326831,-0.321392,1.193907,100044.58,-156,+181,+139
120808,9.586,-2.797,1.495,-0.344922,-0.324053,1.194439,100043.00,-158,+177,+139
120817,9.596,-2.896,1.376,-0.312996,-0.327777,1.191247,100043.00,-161,+172,+139
120827,9.653,-3.186,1.428,-0.299161,-0.335227,1.203485,100044.05,-163,+169,+139
120834,9.677,-3.504,1.575,-0.311399,-0.340016,1.214660,100044.69,-163,+169,+139
120843,9.740,-3.476,1.543,-0.352904,-0.352254,1.221045,100042.38,-167,+165,+138
120853,10.024,-3.703,1.551,-0.408243,-0.368750,1.222641,100042.63,-169,+159,+137
120862,10.372,-3.936,1.893,-0.467308,-0.376199,1.233816,100042.63,-169,+159,+137
120872,10.636,-4.201,2.249,-0.547124,-0.384713,1.250843,100045.01,-172,+156,+138
120883,10.935,-4.335,2.280,-0.667381,-0.407594,1.274256,100044.07,-174,+150,+138
120893,10.961,-4.627,3.424,-0.812115,-0.400676,1.321082,100041.76,-177,+145,+138
120902,11.381,-4.475,3.371,-1.037197,-0.410254,1.379081,100040.13,-177,+145,+138
120912,11.972,-3.945,2.914,-1.181931,-0.452291,1.433357,100040.13,-180,+139,+138
120923,12.930,-3.635,2.266,-1.275050,-0.513484,1.517962,100046.29,-183,+132,+139
120933,13.915,-3.185,1.515,-1.367105,-0.585851,1.619063,100046.09,-186,+124,+137
120943,14.461,-2.762,1.211,-1.470335,-0.648640,1.746237,100042.46,-186,+124,+137
120952,15.063,-2.470,1.285,-1.586334,-0.703447,1.900017,100043.77,-188,+116,+138
120963,15.986,-2.727,1.261,-1.671472,-0.847649,2.067631,100043.77,-192,+106,+137
120973,17.487,-2.561,1.923,-1.714573,-1.002493,2.226732,100044.96,-196,+96,+136
120983,19.316,-2.551,2.287,-1.764591,-1.114236,2.348585,100038.98,-196,+96,+136
120992,20.509,-1.775,2.759,-1.929013,-1.142970,2.393815,100043.07,-199,+85,+134
121003,20.309,-0.471,3.179,-2.241362,-1.164786,2.364017,100039.96,-202,+73,+131
121013,19.193,1.488,3.388,-2.582444,-1.200437,2.308677,100039.96,-205,+61,+129
121023,18.142,3.413,3.314,-2.819765,-1.262694,2.265044,100043.98,-205,+61,+129
121032,17.011,3.201,2.346,-2.734095,-1.338786,2.260255,100043.56,-207,+50,+126
121042,16.172,-0.158,1.280,-2.265306,-1.412749,2.334750,100042.89,-209,+38,+122
121053,15.468,-3.334,1.304,-1.839619,-1.483520,2.363484,100040.05,-211,+27,+117
121063,13.977,-3.460,2.250,-1.626243,-1.475538,2.217154,100040.05,-211,+27,+117
121068,12.986,-2.511,2.827,-1.339436,-1.440419,2.138402,100044.78,-212,+18,+113
121077,12.273,-2.164,3.548,-0.908427,-1.368052,2.117118,100044.78,-213,+9,+108
121088,11.414,-1.089,4.368,-0.325766,-1.266419,2.033576,100041.58,-213,+9,+108
121098,9.609,1.357,3.524,0.261151,-1.217997,1.696751,100041.20,-215,+4,+105
121108,5.686,-0.209,2.549,0.890636,-1.072731,1.251375,100040.78,-215,+0,+103
121118,2.218,-5.762,2.980,1.174783,-0.815190,1.099192,100041.11,-214,-2,+100
121127,4.199,-4.731,1.559,0.404820,-0.735373,0.870917,100042.38,-214,-2,+100
121138,6.823,-0.970,0.606,-0.247014,-0.632676,0.414899,100042.16,-215,-4,+99
121148,5.481,1.350,1.092,-0.212427,-0.524658,-0.002275,100042.16,-215,-4,+97
121158,4.296,1.807,0.814,0.172820,-0.446970,-0.232147,100040.00,-216,-2,+96
121167,4.246,1.059,0.677,0.602233,-0.318732,-0.464679,100040.00,-216,-2,+96
121178,4.430,0.237,0.755,0.986416,-0.236787,-0.684440,100041.88,-217,+0,+97
121188,4.240,-0.017,1.192,1.293444,-0.180915,-0.921761,100041.14,-217,+5,+96
121198,4.065,0.375,1.704,1.539810,-0.121319,-1.212293,100040.56,-218,+12,+96
121208,4.102,0.144,1.683,1.777131,-0.045759,-1.501761,100037.89,-218,+12,+96
121218,4.354,-0.293,1.215,1.906434,0.039378,-1.791228,100037.89,-219,+19,+97
121228,4.393,-1.091,1.179,1.846306,0.110149,-2.040788,100039.16,-219,+29,+97
121238,4.690,-1.638,1.264,1.677627,0.193158,-2.270127,100037.30,-219,+40,+98
121248,5.311,-1.493,1.198,1.447223,0.266057,-2.525540,100037.55,-219,+40,+98
121257,6.215,-1.741,0.932,1.238636,0.328314,-2.768182,100037.55,-218,+51,+98
121268,6.928,-2.184,0.693,1.138600,0.378864,-2.996457,100037.55,-217,+63,+100
121278,7.311,-2.288,0.657,1.181700,0.461341,-3.213558,100037.31,-215,+77,+100
121288,7.781,-2.041,0.974,1.307278,0.542222,-3.385429,100040.94,-215,+77,+100
121297,8.250,-1.995,1.294,1.531829,0.580002,-3.475356,100038.89,-211,+91,+101
121304,8.542,-2.480,1.508,1.730838,0.599690,-3.520053,100038.47,-208,+106,+102
121313,8.827,-3.274,1.678,1.920801,0.622039,-3.575392,100038.47,-208,+106,+102
121323,9.148,-4.323,1.977,2.094801,0.666204,-3.682879,100040.43,-204,+121,+102
121333,9.289,-5.107,2.246,2.157590,0.722075,-3.783980,100037.65,-197,+137,+101
121342,9.549,-5.469,2.512,2.118214,0.782204,-3.844108,100037.76,-192,+152,+101
121353,10.021,-5.559,2.699,1.972416,0.848185,-3.896255,100036.76,-192,+152,+101
121363,10.510,-5.531,2.712,1.795755,0.914699,-3.953722,100036.76,-184,+168,+100
121373,10.963,-5.373,2.595,1.625480,0.986534,-4.003209,100037.96,-175,+183,+100
121382,11.572,-5.204,2.513,1.494049,1.062093,-4.011723,100038.12,-166,+197,+101
121393,12.176,-5.390,2.442,1.428599,1.129671,-3.997356,100038.80,-166,+197,+101
121403,12.370,-5.533,2.340,1.412104,1.208423,-3.997888,100040.38,-155,+212,+100
121413,12.450,-5.477,2.170,1.406251,1.294093,-3.981924,100040.38,-144,+223,+99
121423,12.522,-5.426,2.056,1.423278,1.377102,-3.931374,100039.16,-132,+237,+100
121433,12.632,-5.314,1.944,1.453609,1.442552,-3.869117,100041.00,-132,+237,+100
121443,12.842,-5.025,1.716,1.503095,1.485653,-3.810585,100039.36,-120,+248,+98
121453,13.142,-4.950,1.411,1.586104,1.528754,-3.741411,100038.89,-107,+259,+97
121463,13.362,-5.253,1.024,1.627608,1.547909,-3.662658,100038.89,-94,+269,+97
121473,13.200,-5.836,0.841,1.569608,1.546313,-3.594548,100042.37,-94,+269,+97
121483,12.906,-6.148,0.737,1.428067,1.525561,-3.494512,100040.70,-81,+279,+94
121493,12.775,-6.276,0.648,1.259921,1.496827,-3.358824,100039.85,-68,+286,+93
121503,12.840,-6.483,0.480,1.118912,1.452662,-3.194402,100039.27,-56,+293,+91
121512,12.970,-6.853,0.409,1.045480,1.408497,-2.993797,100039.27,-56,+293,+91
121523,12.926,-7.803,0.435,1.009829,1.364864,-2.771907,100043.70,-44,+299,+90
121533,12.445,-9.279,0.351,0.932141,1.312717,-2.554806,100042.18,-33,+304,+88
121538,11.897,-10.503,0.260,0.798581,1.283983,-2.358990,100041.76,-33,+304,+88
121548,11.602,-11.405,0.238,0.544233,1.261102,-2.111559,100041.76,-24,+308,+87
121559,10.866,-12.560,0.136,0.085554,1.196717,-1.752384,100041.49,-15,+310,+88
121568,10.181,-13.477,0.155,-0.426335,1.083378,-1.355963,100041.49,-9,+311,+90
121578,9.735,-12.629,-0.375,-0.877032,0.884901,-0.869082,100043.97,-9,+311,+90
121588,10.020,-10.432,-0.676,-1.052096,0.635341,-0.334312,100043.08,-7,+310,+95
121598,10.040,-8.751,-0.776,-0.830207,0.337360,0.232385,100042.44,-7,+309,+98
121608,9.456,-7.645,-0.685,-0.285326,0.054810,0.787908,100042.44,-11,+308,+98
121618,9.766,-7.807,-0.024,0.418123,-0.114933,1.282238,100042.44,-11,+308,+98
121628,9.552,-7.075,4.005,1.045480,-0.202199,1.681320,100044.19,-15,+308,+95
121638,11.884,0.980,10.785,1.254600,-0.054273,1.917045,100043.30,-23,+308,+91
121648,21.381,18.641,0.984,0.182398,-0.574676,1.295008,100038.67,-28,+306,+91
121658,24.032,13.307,-9.693,0.121738,-0.750273,1.063008,100040.45,-28,+306,+91
121668,21.869,-5.931,-2.860,2.199094,-0.394291,2.522053,100040.45,-34,+306,+86
121678,17.988,-11.730,-0.776,2.509314,-0.409722,2.986585,100042.12,-45,+304,+78
121689,12.379,-8.913,-2.846,1.146049,-0.520933,2.571539,100040.85,-54,+300,+75
121698,7.550,-3.377,-1.350,-0.082592,-0.481557,2.175650,100040.80,-54,+300,+75
121708,4.732,-2.623,4.957,-0.364610,-0.225080,2.234182,100040.80,-62,+297,+74
121718,6.702,-2.790,8.198,-0.200721,-0.127704,2.325172,100040.94,-69,+293,+76
121729,10.527,-2.796,5.086,-0.218280,-0.468254,2.273026,100042.20,-77,+288,+76
121738,10.757,-3.945,2.275,-0.267234,-0.678438,2.077209,100042.20,-77,+288,+76
121748,10.621,-4.245,1.222,-0.540739,-0.735373,1.892035,100040.53,-84,+285,+76
121758,11.107,-3.818,-0.370,-0.810518,-0.772621,1.671742,100039.27,-90,+280,+77
121767,10.220,-1.608,-0.599,-0.811583,-0.644915,1.424843,100039.27,-96,+277,+79
121778,9.111,0.956,0.080,-0.584372,-0.445906,1.360990,100043.52,-96,+277,+79
121788,9.037,1.191,0.645,-0.194335,-0.343209,1.438678,100042.16,-100,+273,+79
121798,9.676,-0.241,1.419,0.263279,-0.359172,1.498806,100041.05,-105,+269,+78
121808,9.743,-1.572,2.092,0.497939,-0.367154,1.429632,100037.65,-110,+267,+76
121819,9.200,-2.687,2.500,0.485701,-0.340548,1.288623,100042.88,-110,+267,+76
121828,9.049,-3.149,2.014,0.245187,-0.332566,1.159852,100044.55,-115,+264,+75
121838,9.513,-2.744,1.376,-0.158152,-0.307025,1.038531,100039.52,-118,+262,+73
121848,10.003,-2.466,0.770,-0.538610,-0.258603,0.915082,100037.83,-120,+259,+75
121858,10.265,-1.391,0.537,-0.719528,-0.199007,0.816642,100037.83,-120,+259,+75
121868,9.975,-0.129,1.086,-0.640775,-0.141007,0.760238,100037.83,-123,+257,+77
121878,9.295,0.158,1.519,-0.365675,-0.091521,0.750128,100045.60,-125,+255,+78
121888,9.036,-0.322,1.821,-0.036299,-0.084603,0.780990,100046.07,-128,+253,+78
121899,9.273,-1.391,2.096,0.172820,-0.102695,0.802807,100041.45,-130,+251,+76
121908,9.494,-2.318,2.093,0.216985,-0.120787,0.796953,100042.60,-130,+251,+76
121918,9.542,-2.573,1.709,0.123334,-0.141007,0.777797,100042.60,-132,+249,+76
121928,9.470,-2.350,1.562,-0.050666,-0.151649,0.751192,100043.55,-134,+247,+76
121938,9.498,-1.451,1.593,-0.256592,-0.133557,0.751724,100043.09,-136,+245,+76
121949,9.852,-0.806,1.238,-0.419950,-0.135686,0.778330,100043.66,-136,+245,+76
121958,10.295,-0.852,1.152,-0.442831,-0.148456,0.819834,100043.66,-139,+243,+77
121968,10.228,-0.852,1.927,-0.357693,-0.170805,0.865063,100043.66,-142,+240,+78
121978,9.689,-1.157,2.475,-0.220941,-0.210181,0.909761,100042.16,-144,+237,+78
121988,9.494,-1.741,2.325,-0.109730,-0.261264,0.950201,100042.48,-144,+237,+78
121998,9.512,-2.373,2.091,-0.082060,-0.303300,0.979467,100042.05,-147,+235,+78
122009,9.573,-2.675,1.858,-0.174115,-0.347465,1.002525,100042.34,-150,+232,+77
122018,9.749,-2.318,1.667,-0.299693,-0.383649,1.015651,100042.34,-153,+228,+77
122029,9.866,-1.718,1.589,-0.374188,-0.411851,1.036935,100042.66,-153,+228,+77
122039,9.853,-1.541,1.571,-0.345987,-0.444842,1.080036,100044.44,-156,+225,+77
122048,9.923,-1.947,1.559,-0.261381,-0.463998,1.134843,100040.42,-159,+222,+76
122058,10.074,-2.506,1.428,-0.220409,-0.466658,1.172623,100040.42,-162,+218,+75
122068,10.211,-3.143,1.217,-0.264042,-0.463998,1.196036,100044.84,-162,+218,+75
122079,10.275,-3.576,1.168,-0.390684,-0.474108,1.207742,100041.75,-164,+214,+75
122088,10.139,-3.537,1.187,-0.558830,-0.493796,1.202421,100041.75,-168,+210,+75
122098,10.047,-2.956,1.425,-0.660996,-0.540621,1.199228,100043.69,-171,+206,+75
122108,9.712,-2.520,1.686,-0.639179,-0.599685,1.224238,100041.59,-171,+206,+75
122118,9.609,-2.617,1.630,-0.491785,-0.631612,1.274788,100041.59,-175,+202,+74
122128,9.860,-3.422,1.484,-0.363014,-0.648107,1.321614,100043.68,-178,+198,+74
122138,10.425,-3.807,1.021,-0.409840,-0.676309,1.342366,100043.41,-181,+193,+73
122148,10.983,-3.871,0.755,-0.551381,-0.706640,1.357265,100040.95,-181,+193,+73
122159,11.635,-3.824,0.233,-0.668445,-0.736970,1.372696,100039.59,-185,+188,+72
122169,12.186,-3.545,-0.175,-0.737087,-0.764639,1.392384,100044.72,-188,+184,+71
122178,12.563,-3.351,-0.676,-0.778060,-0.823172,1.422182,100043.31,-191,+178,+70
122188,12.698,-2.902,-0.970,-0.815840,-0.893410,1.471669,100042.63,-191,+178,+70
122199,12.896,-2.646,-0.946,-0.832867,-0.984933,1.550953,100043.16,-195,+173,+68
122208,13.316,-2.067,-0.645,-0.827014,-1.108382,1.649393,100043.16,-199,+166,+67
122218,13.816,-1.685,0.300,-0.762629,-1.256841,1.764329,100043.16,-202,+160,+65
122228,14.354,-1.912,1.606,-0.656739,-1.404235,1.906934,100043.55,-202,+160,+65
122238,14.955,-2.504,2.596,-0.589693,-1.523960,2.041558,100045.76,-206,+152,+61
122248,15.991,-3.034,3.274,-0.640775,-1.613887,2.141595,100040.26,-210,+145,+57
122258,17.591,-3.064,3.773,-0.844041,-1.696364,2.209705,100042.73,-213,+136,+52
122268,19.446,-2.167,4.386,-1.197894,-1.755428,2.251741,100042.73,-213,+136,+52
122278,21.162,-0.190,5.233,-1.646463,-1.798529,2.278879,100041.48,-217,+129,+49
122289,22.321,2.873,6.194,-2.046077,-1.844290,2.313466,100040.28,-221,+119,+45
122299,22.205,4.991,6.136,-2.071619,-1.927832,2.367209,100038.66,-223,+111,+41
122308,21.052,2.856,4.991,-1.462353,-2.109281,2.543870,100038.66,-223,+111,+41
122318,18.721,-0.767,4.844,-0.802005,-2.273171,2.631668,100038.66,-226,+100,+36
122329,15.448,-2.367,5.244,-0.382702,-2.269446,2.537484,100044.21,-228,+91,+28
122338,13.642,-2.821,5.664,0.088747,-2.149721,2.468310,100039.85,-229,+81,+21
122348,12.704,-3.254,6.309,0.511242,-2.035318,2.420420,100042.01,-230,+81,+15
122358,11.760,-1.010,7.641,1.026857,-1.843758,2.174053,100039.27,-230,+73,+15
122369,9.710,1.743,7.216,1.710086,-1.602180,1.677063,100039.27,-231,+66,+8
122379,6.805,1.528,3.633,2.283700,-1.525024,1.117816,100040.72,-230,+61,+3
122388,1.976,-6.874,-0.373,2.457168,-1.481391,0.801210,100039.94,-230,+59,-1
122398,4.542,-10.667,0.729,1.498306,-1.152548,0.819834,100038.94,-230,+59,-1
122408,7.245,-3.968,0.483,-0.094299,-1.224914,0.318055,100039.67,-230,+56,-5
122419,5.571,0.839,0.420,-0.576390,-1.148823,-0.515761,100036.94,-229,+58,-8
122429,3.820,3.502,0.489,-0.307675,-1.003025,-0.991467,100039.78,-228,+62,-11
122438,2.720,3.987,0.235,0.193041,-0.926401,-1.111724,100039.78,-228,+62,-11
122448,3.207,3.101,0.635,1.050802,-0.713025,-1.284660,100038.83,-228,+67,-15
122459,4.050,1.782,1.043,1.792562,-0.545410,-1.517192,100038.98,-226,+72,-17
122468,4.490,0.772,1.197,2.224103,-0.469851,-1.752916,100038.98,-224,+78,-19
122479,4.356,-0.233,1.333,2.509492,-0.356689,-2.047173,100040.18,-224,+78,-19
122488,4.233,-0.879,1.279,2.607223,-0.222952,-2.296733,100040.18,-224,+84,-22
122499,4.320,-1.666,1.112,2.647131,-0.088860,-2.496274,100036.49,-222,+93,-24
122509,4.812,-2.486,0.987,2.647663,0.018626,-2.678256,100037.43,-220,+100,-25
122519,5.608,-2.944,0.952,2.571039,0.081415,-2.909191,100038.66,-220,+100,-25
122528,6.317,-3.503,0.937,2.416195,0.104828,-3.163007,100036.04,-217,+110,-27
122539,6.710,-4.156,1.309,2.181535,0.120791,-3.415227,100036.57,-213,+120,-28
122549,6.901,-4.439,1.745,1.838324,0.138351,-3.666383,100030.57,-209,+133,-30
122558,7.081,-4.104,2.328,1.454141,0.195819,-3.898383,100030.57,-209,+133,-30
122568,7.323,-3.637,2.964,1.207774,0.296919,-4.083557,100030.57,-204,+145,-31
122578,7.877,-3.186,3.475,1.159884,0.416112,-4.208071,100037.27,-197,+160,-32
122589,8.886,-3.168,3.520,1.303022,0.529451,-4.286823,100034.91,-191,+174,-33
122598,9.953,-3.766,3.428,1.555774,0.639598,-4.330988,100037.12,-191,+174,-33
122608,10.557,-4.674,3.467,1.838324,0.734314,-4.358658,100039.10,-183,+186,-34
122618,10.673,-5.741,3.594,2.078838,0.784864,-4.351209,100039.10,-175,+199,-36
122629,10.801,-6.701,3.855,2.216654,0.815726,-4.337906,100037.32,-166,+211,-39
122639,11.141,-7.190,4.147,2.221975,0.859892,-4.369300,100037.68,-166,+211,-39
122648,11.382,-7.035,4.426,2.116085,0.911506,-4.434750,100037.95,-156,+223,-42
122658,11.429,-6.555,4.438,1.930911,0.987598,-4.484236,100037.95,-146,+233,-44
122669,11.619,-6.095,4.293,1.701572,1.081781,-4.489025,100038.30,-134,+243,-45
122679,11.985,-6.171,4.055,1.522783,1.190332,-4.429961,100038.30,-134,+243,-45
122688,12.444,-6.968,3.508,1.403590,1.299946,-4.343227,100036.73,-123,+253,-47
122698,12.841,-7.633,2.901,1.236508,1.396790,-4.259686,100037.51,-112,+263,-47
122708,13.175,-7.710,2.433,1.019407,1.471818,-4.153796,100037.15,-101,+271,-47
122719,13.446,-7.590,2.213,0.785811,1.524497,-4.007465,100037.15,-101,+271,-47
122729,13.328,-7.438,1.450,0.540508,1.543653,-3.860071,100038.44,-88,+279,-46
122738,13.336,-7.579,1.153,0.381407,1.591542,-3.714805,100036.61,-79,+285,-45
122748,13.823,-8.119,0.341,0.219114,1.576111,-3.501961,100036.97,-68,+292,-43
122759,13.446,-8.624,-0.327,0.060545,1.560148,-3.239099,100037.77,-68,+292,-43
122769,13.217,-9.157,-0.578,-0.101748,1.551634,-2.921962,100041.59,-59,+298,-42
122778,12.739,-9.932,-0.609,-0.340133,1.512790,-2.563320,100039.50,-51,+302,-39
122788,11.704,-10.165,-0.686,-0.649289,1.439891,-2.240329,100039.50,-44,+306,-35
122799,11.066,-10.045,-0.579,-0.905766,1.344643,-1.905632,100038.97,-39,+306,-30
122809,10.773,-10.208,-0.694,-1.035601,1.169579,-1.530495,100040.55,-39,+309,-30
122818,10.483,-10.122,-1.283,-0.956317,0.934387,-1.057981,100040.55,-35,+312,-27
122828,10.520,-10.038,-1.536,-0.651418,0.685360,-0.488092,100040.02,-34,+313,-23
122839,10.114,-9.890,-1.658,-0.282133,0.425158,0.046147,100040.17,-35,+312,-23
122849,9.658,-9.738,-1.922,0.032876,0.193690,0.544201,100043.59,-35,+312,-23
122859,9.627,-8.831,-1.655,0.299995,0.010112,0.983192,100040.44,-38,+311,-23
122868,10.540,-8.217,-1.394,0.578288,-0.159631,1.345026,100040.44,-42,+309,-25
122878,10.221,-8.005,5.907,1.072086,-0.096842,1.757412,100041.50,-49,+306,-29
122889,15.197,4.163,11.506,0.728875,-0.014897,1.898421,100038.28,-49,+306,-29
122899,24.910,18.337,-1.529,-0.529032,-0.691208,1.106109,100040.22,-53,+304,-29
122908,24.098,6.958,-5.992,0.362251,-0.631612,1.498274,100040.22,-58,+302,-30
122918,19.790,-6.156,-0.939,2.440672,-0.488475,2.814713,100040.22,-67,+293,-39
122929,13.222,-9.226,0.114,2.429498,-0.569887,2.706163,100044.28,-67,+293,-39
122939,6.802,-6.338,-1.538,1.292379,-0.574144,2.067631,100039.72,-74,+289,-45
122949,5.353,-2.492,1.785,0.664135,-0.351368,2.157558,100038.19,-81,+284,-47
122958,7.763,-3.504,3.867,0.749627,-0.179319,2.484805,100038.19,-88,+278,-49
122969,11.248,-4.691,2.475,0.644802,-0.300108,2.374127,100038.19,-88,+278,-49
122979,12.179,-5.659,1.460,0.165371,-0.504438,2.174586,100039.80,-94,+274,-51
122989,11.160,-5.478,2.038,-0.375785,-0.581594,1.965999,100039.99,-101,+270,-51
122998,10.633,-4.672,0.202,-0.697711,-0.676841,1.677595,100039.23,-105,+267,-50
123009,10.144,-2.574,-0.718,-0.807858,-0.656089,1.433357,100039.23,-105,+267,-50
123019,9.346,-0.029,0.023,-0.766353,-0.484750,1.319485,100040.38,-109,+264,-49
123029,8.870,1.134,0.442,-0.473693,-0.285209,1.325871,100040.38,-112,+263,-49
123038,9.756,0.925,0.471,-0.157088,-0.193686,1.417393,100039.64,-116,+259,-49
123048,10.154,-0.776,0.998,0.144086,-0.117594,1.394513,100039.75,-116,+259,-49
123059,10.070,-2.233,2.001,0.248912,-0.106420,1.290751,100040.02,-120,+256,-49
123064,9.617,-3.052,2.348,0.219646,-0.145264,1.186990,100040.02,-123,+253,-50
123074,9.174,-3.415,2.068,0.081830,-0.161759,1.059816,100040.30,-123,+253,-50
123083,9.170,-3.049,1.611,-0.223069,-0.154842,0.894862,100039.77,-125,+251,-50
123094,9.711,-2.057,1.240,-0.503491,-0.130897,0.775137,100038.09,-128,+249,-49
123104,10.052,-1.020,0.976,-0.579583,-0.081943,0.704366,100039.30,-130,+247,-49
123114,10.101,-0.526,0.907,-0.498170,-0.035649,0.680954,100039.30,-130,+247,-49
123123,9.862,-0.779,0.907,-0.382702,-0.003723,0.681486,100041.72,-132,+247,-46
123133,9.587,-1.376,1.165,-0.307675,0.025543,0.688935,100041.31,-133,+245,-46
123144,9.626,-1.929,1.514,-0.334280,0.035654,0.685742,100041.16,-136,+244,-44
123154,9.608,-2.020,1.894,-0.449748,0.005323,0.661798,100038.47,-136,+244,-44
123163,9.372,-1.617,2.213,-0.545528,-0.044695,0.637853,100038.47,-137,+242,-44
123173,9.216,-1.211,2.335,-0.548720,-0.089392,0.642642,100040.66,-139,+241,-42
123184,9.208,-0.727,2.552,-0.456133,-0.135154,0.669247,100041.71,-140,+239,-41
123194,9.218,-0.126,2.636,-0.338005,-0.179851,0.721394,100040.24,-140,+239,-41
123204,9.425,-0.453,2.439,-0.217216,-0.218163,0.784183,100038.73,-142,+238,-40
123213,9.695,-1.069,2.060,-0.131546,-0.250089,0.837394,100038.73,-143,+235,-41
123224,9.714,-1.278,1.829,-0.098556,-0.284144,0.876238,100042.26,-146,+234,-42
123234,9.664,-1.287,1.806,-0.066097,-0.305429,0.923063,100041.20,-146,+234,-42
123244,9.669,-1.571,1.686,-0.030446,-0.335227,0.973614,100041.62,-149,+231,-42
123253,9.787,-1.743,1.476,-0.027785,-0.361832,1.012990,100039.46,-151,+228,-44
123264,9.889,-1.891,1.434,-0.041088,-0.396420,1.052366,100039.46,-153,+225,-44
123274,9.944,-2.088,1.296,-0.070886,-0.442713,1.090678,100040.68,-153,+225,-44
123284,9.902,-1.898,1.434,-0.127290,-0.467190,1.121540,100039.79,-155,+223,-45
123293,9.650,-1.802,1.674,-0.132611,-0.499117,1.156660,100041.15,-158,+218,-47
123299,9.412,-1.742,1.754,-0.083657,-0.521997,1.184861,100037.48,-158,+218,-47
123309,9.344,-2.045,1.819,0.005206,-0.544878,1.210403,100037.48,-160,+216,-47
123319,9.364,-2.560,1.717,0.119077,-0.570952,1.228494,100037.48,-162,+212,-48
123329,9.316,-2.882,1.618,0.153664,-0.581062,1.227430,100043.80,-164,+208,-50
123339,9.334,-3.089,1.410,0.121738,-0.585319,1.230091,100039.81,-164,+208,-50
123348,9.528,-3.215,1.316,0.081298,-0.589043,1.239137,100041.38,-166,+205,-52
123359,10.023,-3.509,0.940,0.048839,-0.607135,1.254568,100041.38,-168,+200,-54
123369,10.551,-3.857,0.707,-0.048537,-0.615117,1.272660,100042.84,-171,+197,-54
123378,10.773,-4.120,0.895,-0.260849,-0.602346,1.278513,100042.84,-171,+197,-54
123388,10.725,-3.867,1.323,-0.486996,-0.608731,1.281173,100041.27,-172,+194,-56
123399,10.798,-3.629,1.975,-0.612041,-0.627887,1.308843,100041.80,-173,+190,-56
123409,11.222,-3.728,2.261,-0.674298,-0.631080,1.367375,100039.69,-176,+187,-57
123419,12.021,-3.879,1.553,-0.722188,-0.664071,1.425375,100039.69,-176,+187,-57
123429,12.647,-3.715,0.831,-0.825418,-0.710364,1.463687,100040.38,-178,+184,-56
123439,12.979,-3.458,0.440,-0.955784,-0.772089,1.517430,100042.70,-180,+180,-57
123449,13.361,-2.856,0.122,-1.028151,-0.854034,1.593522,100039.13,-183,+176,-58
123459,13.884,-2.368,0.027,-1.050500,-0.949282,1.683980,100041.23,-183,+176,-58
123469,14.393,-2.155,0.120,-1.019105,-1.049850,1.787742,100043.48,-185,+172,-59
123479,14.581,-2.215,0.535,-0.981326,-1.159465,1.900017,100037.92,-186,+166,-61
123489,14.782,-2.398,1.296,-0.949399,-1.268548,2.003246,100042.02,-188,+162,-63
123499,15.197,-2.573,2.250,-0.969087,-1.365391,2.087319,100042.02,-188,+162,-63
123509,16.082,-2.739,3.153,-1.061142,-1.443079,2.158622,100041.13,-189,+155,-66
123518,17.491,-2.553,4.076,-1.240463,-1.511722,2.193741,100041.13,-190,+151,-68
123529,18.644,-1.385,5.094,-1.509711,-1.553226,2.172457,100042.50,-191,+145,-70
123534,19.000,0.290,5.899,-1.725747,-1.547905,2.129888,100041.55,-191,+145,-70
123544,18.724,2.139,6.312,-1.877931,-1.519703,2.109136,100039.03,-192,+141,-72
123554,17.932,3.701,5.710,-1.939123,-1.478731,2.128824,100038.66,-192,+136,-74
123564,17.509,1.659,3.732,-1.693821,-1.484052,2.282072,100038.66,-192,+136,-74
123574,17.712,-2.834,2.527,-1.290481,-1.573446,2.547062,100040.78,-193,+131,-77
123584,16.604,-4.024,2.737,-1.358591,-1.696364,2.548126,100041.47,-193,+124,-81
123594,14.609,-3.115,3.937,-1.213858,-1.683061,2.507154,100037.58,-193,+118,-84
123603,13.349,-2.824,4.352,-0.725913,-1.617612,2.453411,100037.89,-193,+118,-84
123614,12.085,-1.765,4.425,-0.350776,-1.517043,2.270365,100037.89,-192,+111,-88
123624,10.077,0.545,4.031,-0.066097,-1.386144,1.898953,100039.55,-192,+106,-92
123634,7.801,1.745,2.999,0.322343,-1.243006,1.431228,100039.46,-192,+100,-95
123643,3.486,-3.658,1.975,0.880526,-1.037612,1.188054,100039.46,-192,+100,-95
123654,3.814,-6.995,1.221,0.906600,-0.896071,1.290751,100039.98,-190,+95,-98
123664,6.617,-1.860,0.939,0.422380,-0.768896,0.859742,100039.98,-190,+91,-101
123674,6.080,0.132,1.066,0.283499,-0.584254,0.280275,100038.32,-189,+89,-102
123684,4.574,1.393,1.212,0.499536,-0.404933,-0.139560,100040.26,-189,+89,-102
123694,3.870,1.346,0.787,0.637884,-0.326181,-0.354000,100038.57,-188,+89,-102
123704,3.607,0.808,0.341,0.868288,-0.210181,-0.592385,100037.99,-187,+89,-104
123714,3.705,0.475,0.304,1.094434,-0.077686,-0.858972,100037.99,-187,+91,-104
123724,3.821,0.164,0.393,1.217884,0.035654,-1.138330,100041.51,-187,+91,-104
123734,4.248,-0.088,-0.245,1.293976,0.121323,-1.447486,100038.10,-185,+93,-105
123744,4.591,-0.276,-0.320,1.303554,0.202204,-1.748660,100038.57,-185,+95,-106
123754,4.815,-0.431,-0.418,1.298765,0.267121,-2.011522,100038.95,-183,+99,-106
123764,4.989,-0.740,-0.337,1.298765,0.355452,-2.275980,100038.95,-183,+99,-106
123769,5.351,-0.966,-0.314,1.292379,0.416644,-2.449448,100037.30,-183,+105,-105
123779,5.853,-1.205,-0.362,1.279077,0.448039,-2.592586,100037.30,-181,+110,-105
123789,6.439,-1.512,-0.358,1.323242,0.496993,-2.798512,100036.26,-181,+110,-105
123799,6.918,-1.745,-0.095,1.472764,0.590644,-3.031044,100035.37,-178,+117,-104
123809,7.489,-2.053,0.110,1.648893,0.674717,-3.232182,100036.93,-177,+124,-105
123820,8.009,-2.437,0.183,1.795223,0.744424,-3.383833,100037.10,-174,+131,-105
123829,8.266,-2.792,0.410,1.867590,0.809873,-3.495576,100035.16,-174,+131,-105
123839,8.511,-3.388,0.725,1.805865,0.867873,-3.586567,100036.52,-171,+139,-104
123849,9.009,-4.168,0.921,1.635590,0.920020,-3.696714,100036.52,-168,+146,-104
123858,9.523,-4.506,1.187,1.382838,0.993983,-3.847833,100034.54,-163,+156,-103
123869,9.978,-4.554,1.413,1.134343,1.078589,-3.977135,100034.54,-163,+156,-103
123879,10.351,-4.764,1.402,0.953957,1.156809,-4.046842,100037.39,-160,+166,-102
123889,10.904,-4.918,1.393,0.823591,1.231304,-4.100053,100037.66,-153,+176,-101
123899,11.807,-4.926,1.353,0.744838,1.292497,-4.142089,100036.66,-147,+187,-98
123910,12.712,-5.000,1.337,0.758673,1.353689,-4.150603,100036.45,-147,+187,-98
123919,13.246,-5.119,1.460,0.862435,1.413818,-4.144750,100036.45,-142,+197,-97
123929,13.237,-5.093,1.576,0.998123,1.470754,-4.141025,100038.38,-136,+206,-95
123939,13.003,-5.142,1.710,1.131150,1.520772,-4.122933,100036.95,-130,+214,-94
123950,12.902,-5.278,1.726,1.235444,1.545249,-4.081429,100036.95,-130,+214,-94
123959,12.894,-5.398,1.669,1.304086,1.557487,-4.022365,100036.95,-121,+222,-93
123969,13.021,-5.492,1.689,1.330691,1.561212,-3.967025,100036.95,-115,+229,-93
123979,13.175,-5.542,1.691,1.310471,1.552166,-3.912218,100040.86,-107,+235,-93
123990,13.395,-5.506,1.632,1.238636,1.537799,-3.850493,100037.44,-107,+235,-93
123999,13.568,-5.499,1.593,1.131682,1.515983,-3.791429,100037.86,-100,+243,-93
124005,13.575,-5.434,1.606,1.035902,1.491506,-3.743539,100033.39,-90,+248,-93
124014,13.337,-5.418,1.449,0.926820,1.464368,-3.674897,100033.39,-90,+248,-93
124024,12.960,-5.537,1.371,0.826251,1.463304,-3.524310,100037.97,-83,+253,-92
124034,12.633,-5.961,1.382,0.763994,1.470221,-3.303484,100037.86,-77,+258,-91
124044,12.124,-6.879,1.446,0.700141,1.489377,-3.058182,100041.22,-69,+262,-91
124054,11.547,-7.865,1.312,0.611279,1.501084,-2.796916,100036.39,-69,+262,-91
124064,11.049,-8.514,0.888,0.477719,1.501616,-2.509045,100036.39,-64,+266,-90
124075,10.804,-9.084,0.395,0.275518,1.477139,-2.209999,100037.19,-60,+269,-89
124084,10.487,-9.475,-0.133,-0.004372,1.407432,-1.908825,100037.61,-56,+272,-86
124094,10.321,-9.459,-0.506,-0.320977,1.288240,-1.575192,100034.98,-56,+272,-86
124104,10.066,-9.163,-0.643,-0.567876,1.133396,-1.238899,100037.81,-53,+274,-83
124114,9.805,-8.849,-0.843,-0.662592,0.941836,-0.873339,100037.81,-52,+277,-81
124124,9.463,-8.251,-1.137,-0.602996,0.742827,-0.465743,100039.40,-52,+278,-78
124134,9.078,-7.541,-1.365,-0.380042,0.542754,-0.038991,100039.02,-52,+278,-78
124144,8.672,-7.677,-1.940,0.018509,0.334699,0.401064,100037.87,-52,+279,-76
124154,8.007,-8.755,-2.980,0.527205,0.144736,0.834201,100033.93,-55,+277,-77
124164,7.689,-9.841,-3.814,0.934269,-0.036713,1.250843,100033.93,-59,+273,-80
124174,8.496,-7.821,-2.675,1.165737,-0.227741,1.573834,100040.18,-59,+273,-80
124184,8.784,-4.135,8.506,1.570673,-0.134622,1.814347,100038.49,-64,+269,-83
124194,14.956,13.857,18.713,1.354104,0.365029,1.789338,100034.93,-69,+263,-88
124205,33.033,27.540,-6.587,-0.796684,-0.678438,0.670311,100033.15,-70,+264,-86
124214,31.007,-0.837,-6.899,1.331223,-0.543282,2.250677,100033.15,-70,+264,-86
124224,19.564,-11.211,0.430,3.380910,-0.391631,3.108970,100041.05,-79,+255,-95
124234,9.080,-10.947,-1.692,1.210434,-0.471447,2.137870,100039.73,-84,+246,-98
124239,1.745,-11.918,1.417,0.173885,-0.133557,1.631834,100036.84,-84,+246,-98
124249,3.472,-12.050,3.028,0.204215,-0.009576,2.228328,100036.84,-89,+243,-98
124259,16.561,-7.596,2.177,0.351609,-0.347998,3.253172,100035.44,-98,+235,-100
124269,19.031,-3.594,-0.107,0.080765,-0.912566,2.920071,100035.44,-102,+230,-102
124279,10.342,-1.587,3.104,0.002013,-0.511355,1.956953,100038.77,-102,+230,-102
124290,7.039,-3.164,3.831,-0.614170,-0.636933,1.882457,100039.72,-106,+227,-102
124300,6.464,-3.734,-0.457,-0.900977,-0.900328,1.841485,100038.92,-109,+223,-102
124309,7.008,-1.545,-0.739,-0.602464,-0.598089,1.439742,100038.92,-111,+221,-101
124319,9.165,0.519,-0.726,-0.310867,-0.480493,1.375357,100038.92,-111,+221,-101
124329,11.746,0.173,-0.373,0.047775,-0.371943,1.441870,100042.56,-115,+217,-101
124339,12.062,-0.928,0.695,0.354802,-0.194750,1.341302,100040.78,-117,+214,-102
124349,10.737,-1.546,1.748,0.352673,-0.171337,1.222641,100035.73,-119,+212,-103
124359,8.954,-1.977,3.359,0.141958,-0.210713,1.094403,100038.20,-119,+212,-103
124369,7.761,-2.325,3.525,-0.160280,-0.212842,0.929449,100038.20,-122,+208,-103
124380,7.931,-1.929,3.135,-0.417289,-0.187833,0.781522,100038.10,-123,+207,-103
124389,8.902,-0.864,2.396,-0.487528,-0.167612,0.675632,100037.99,-124,+206,-103
124399,9.711,0.038,1.827,-0.304482,-0.131429,0.625082,100036.96,-124,+206,-103
124409,10.039,0.105,1.911,-0.019803,-0.102163,0.632532,100036.96,-124,+206,-103
124420,9.967,-0.403,1.420,0.024362,-0.104823,0.645834,100038.96,-126,+204,-102
124430,10.071,-1.244,0.995,-0.124629,-0.096310,0.651688,100039.54,-128,+202,-103
124439,10.181,-0.932,1.165,-0.330023,-0.070768,0.680421,100039.54,-128,+202,-103
124449,9.999,-0.253,2.209,-0.464647,-0.069704,0.730972,100038.54,-129,+202,-102
124460,9.638,-0.477,2.598,-0.397601,-0.103227,0.781522,100038.65,-130,+200,-101
124469,9.265,-0.848,2.223,-0.257124,-0.138346,0.795889,100038.65,-132,+199,-101
124479,9.087,-1.356,2.146,-0.153895,-0.161759,0.798550,100038.60,-132,+199,-101
124489,9.148,-1.469,2.213,-0.110262,-0.204860,0.812385,100039.82,-134,+196,-102
124499,9.282,-1.352,1.906,-0.052262,-0.227209,0.809724,100036.24,-134,+195,-102
124510,9.455,-1.565,1.653,0.043518,-0.237319,0.803871,100035.93,-136,+194,-102
124520,9.702,-2.137,1.339,0.089279,-0.243172,0.808128,100037.83,-136,+194,-102
124529,9.799,-2.416,1.030,0.019041,-0.239447,0.802807,100037.56,-137,+191,-103
124539,9.724,-2.178,1.417,-0.119308,-0.243172,0.798018,100036.20,-137,+189,-103
124550,9.605,-1.213,1.836,-0.226794,-0.265521,0.823027,100036.20,-139,+186,-103
124559,9.684,-0.289,2.381,-0.210299,-0.291594,0.879430,100036.56,-139,+186,-103
124569,9.987,-0.575,2.454,-0.083657,-0.320860,0.953394,100036.56,-141,+185,-103
124579,10.193,-1.256,2.195,0.043518,-0.357576,0.996495,100036.61,-142,+182,-104
124590,9.854,-1.840,2.007,0.103646,-0.387374,1.008201,100036.30,-143,+180,-105
124599,9.327,-2.088,2.114,0.104178,-0.417704,1.022568,100036.97,-144,+180,-105
124609,9.178,-2.231,2.157,0.071720,-0.461337,1.051302,100036.03,-144,+177,-106
124619,9.382,-2.258,2.195,0.041921,-0.512952,1.075779,100036.03,-145,+174,-107
124630,9.458,-2.185,2.143,0.017976,-0.566163,1.106109,100038.58,-145,+172,-109
124640,9.401,-1.619,2.074,0.011591,-0.598621,1.154531,100038.31,-147,+168,-110
124649,9.587,-1.371,2.087,0.052564,-0.631612,1.222641,100041.83,-147,+168,-110
124659,9.792,-1.735,2.041,0.116417,-0.650768,1.283834,100041.83,-148,+165,-112
124669,9.966,-2.391,1.771,0.129719,-0.649172,1.325871,100041.83,-149,+160,-114
124680,10.288,-2.887,1.402,0.050435,-0.653429,1.356201,100037.13,-149,+157,-115
124689,10.477,-3.397,1.254,-0.042684,-0.676841,1.370568,100038.91,-149,+157,-115
124699,10.279,-3.352,1.486,-0.186886,-0.686419,1.373760,100039.49,-151,+153,-116
124710,10.182,-3.575,1.467,-0.256415,-0.687661,1.392030,100036.63,-151,+150,-117
124720,10.264,-3.626,1.598,-0.300225,-0.683759,1.396109,100036.63,-151,+147,-119
124730,10.270,-3.986,2.177,-0.370996,-0.684823,1.424843,100038.48,-151,+147,-119
124739,10.999,-3.869,1.735,-0.493913,-0.724199,1.464219,100036.85,-151,+144,-119
124749,11.757,-3.996,1.260,-0.601931,-0.761447,1.494017,100036.95,-152,+141,-121
124760,12.623,-3.610,0.706,-0.734959,-0.814126,1.547760,100036.95,-153,+139,-121
124770,13.310,-3.088,0.489,-0.846170,-0.907777,1.610017,100041.88,-153,+139,-121
124779,13.963,-2.544,0.320,-0.861601,-1.012603,1.704201,100036.36,-153,+135,-122
124789,14.779,-2.409,0.457,-0.813179,-1.109447,1.828714,100036.36,-153,+133,-124
124800,15.322,-2.612,0.939,-0.823821,-1.194584,1.943650,100034.84,-152,+129,-127
124810,15.881,-2.824,1.113,-0.909491,-1.290896,2.052732,100036.31,-152,+129,-127
124819,16.932,-2.672,1.363,-1.057417,-1.392529,2.156494,100036.31,-152,+125,-127
124829,18.351,-2.118,1.924,-1.237270,-1.500015,2.242696,100040.31,-151,+122,-131
124839,19.462,-1.606,2.491,-1.406481,-1.569722,2.309741,100038.95,-149,+119,-133
124850,19.592,-1.006,2.887,-1.618793,-1.590474,2.328365,100037.73,-149,+119,-133
124860,19.131,0.336,3.452,-1.954022,-1.588878,2.285264,100038.84,-147,+117,-135
124869,18.733,2.444,3.949,-2.303618,-1.588878,2.219815,100038.24,-146,+117,-136
124879,18.034,4.333,3.791,-2.435582,-1.611226,2.190017,100036.77,-145,+115,-139
124890,17.566,3.047,3.471,-2.073747,-1.695300,2.290053,100037.76,-145,+115,-139
124900,17.044,0.166,3.227,-1.457032,-1.881538,2.450218,100036.24,-142,+115,-141
124909,15.107,-1.700,3.930,-0.852023,-1.941666,2.474695,100036.24,-139,+110,-144
124919,13.090,-2.775,4.540,-0.187418,-1.860786,2.399668,100036.24,-137,+103,-148
124930,11.767,-3.037,5.596,0.328196,-1.720309,2.302292,100041.03,-137,+103,-148
124940,10.848,-0.949,6.368,0.601169,-1.566529,2.047943,100039.39,-136,+98,-151
124949,9.568,2.873,4.923,0.866692,-1.497887,1.556806,100039.50,-134,+91,-154
124959,5.618,1.620,2.722,1.296104,-1.432969,1.035871,100037.98,-130,+86,-159
124969,1.992,-7.511,3.128,1.528104,-1.155740,1.068329,100037.98,-130,+86,-159
124980,5.709,-4.985,2.592,0.538912,-1.071667,0.757577,100038.81,-128,+79,-160
124990,7.859,-0.933,2.330,-0.415693,-0.951410,0.092972,100038.19,-126,+80,-162
124999,6.002,1.498,2.598,-0.394941,-0.818915,-0.512569,100036.25,-124,+82,-163
125009,4.570,2.266,1.889,-0.100684,-0.752933,-0.780220,100036.25,-124,+82,-163
125020,4.410,1.692,1.344,0.320215,-0.644915,-0.981889,100036.25,-122,+85,-165
125030,4.591,1.174,1.470,0.930545,-0.520401,-1.206440,100038.99,-120,+85,-166
125039,4.716,0.958,1.989,1.510012,-0.438456,-1.441100,100038.90,-119,+85,-168
125049,4.548,0.790,2.398,1.949003,-0.320328,-1.713008,100035.85,-117,+85,-168
125060,4.769,0.268,2.474,2.249645,-0.191025,-1.988641,100038.41,-117,+83,-170
125070,4.944,-0.603,2.637,2.381076,-0.075557,-2.261081,100038.41,-116,+81,-172
125080,5.277,-1.334,2.400,2.292213,-0.011172,-2.520219,100038.22,-115,+80,-172
125089,5.881,-1.719,2.024,2.107571,0.055874,-2.767650,100036.38,-113,+81,-175
125100,7.056,-2.299,1.835,1.846306,0.105360,-2.974108,100035.80,-113,+81,-175
125110,8.122,-2.677,1.515,1.664324,0.121855,-3.168329,100033.54,-113,+84,-175
125120,9.009,-2.755,1.614,1.630269,0.154314,-3.369998,100036.38,-111,+87,-175
