79996,9.254,-3.014,2.319,0.010234,0.008327,0.004389,99916.25,-94,+47,-84
80007,9.168,-3.058,2.338,0.009170,0.009924,0.002261,99916.25,-92,+48,-89
80017,9.152,-3.100,2.353,0.003317,0.011520,-0.000932,99916.64,-95,+46,-81
80027,9.190,-3.113,2.310,-0.003601,0.013648,-0.005189,99915.17,-94,+47,-85
80037,9.172,-3.056,2.277,-0.008390,0.015245,-0.008913,99917.47,-94,+47,-85
80048,9.188,-3.010,2.288,-0.008922,0.016841,-0.008913,99915.48,-91,+48,-88
80057,9.190,-3.015,2.272,-0.005197,0.018969,-0.008381,99917.11,-95,+47,-81
80067,9.216,-3.003,2.280,-0.000408,0.019502,-0.008913,99915.64,-93,+48,-85
80077,9.230,-3.000,2.342,0.003317,0.020034,-0.007849,99915.64,-93,+48,-85
80087,9.238,-3.022,2.375,0.003317,0.020566,-0.008913,99917.05,-92,+49,-87
80097,9.208,-3.051,2.347,0.003317,0.021630,-0.011042,99913.44,-96,+47,-80
80107,9.188,-3.057,2.353,0.001720,0.021630,-0.013170,99913.44,-93,+48,-85
80112,9.192,-3.067,2.299,0.000124,0.021630,-0.013170,99915.62,-93,+48,-85
80122,9.159,-3.028,2.299,0.000124,0.023226,-0.014234,99916.55,-91,+48,-87
80132,9.144,-3.034,2.294,0.003849,0.023758,-0.013702,99914.99,-96,+45,-79
80142,9.202,-3.050,2.301,0.007042,0.023758,-0.013702,99917.13,-96,+45,-79
80152,9.210,-3.043,2.317,0.008638,0.024823,-0.013702,99917.13,-93,+48,-86
80162,9.194,-3.021,2.314,0.006509,0.026951,-0.015299,99915.95,-92,+48,-87
80172,9.196,-2.990,2.329,0.005977,0.028547,-0.014766,99917.77,-96,+47,-80
80182,9.226,-3.010,2.330,0.005445,0.029612,-0.014234,99916.77,-96,+47,-80
80192,9.225,-3.022,2.367,0.006509,0.029612,-0.014766,99914.74,-93,+48,-86
80202,9.217,-3.008,2.334,0.007574,0.030676,-0.015299,99914.74,-92,+48,-87
80212,9.198,-3.001,2.281,0.010234,0.031740,-0.016363,99917.42,-96,+46,-78
80222,9.206,-3.032,2.325,0.014491,0.031740,-0.017427,99914.75,-96,+46,-78
80232,9.203,-3.016,2.351,0.015023,0.034046,-0.018491,99916.64,-93,+49,-85
80242,9.194,-3.027,2.337,0.013427,0.035465,-0.018491,99916.58,-93,+49,-86
80252,9.198,-2.997,2.319,0.013427,0.038658,-0.019555,99916.58,-97,+47,-79
80262,9.181,-2.990,2.349,0.012363,0.040786,-0.020088,99915.91,-97,+47,-79
80272,9.220,-3.002,2.377,0.011298,0.041850,-0.020088,99917.90,-94,+48,-87
80282,9.192,-2.955,2.350,0.009702,0.043447,-0.019023,99915.49,-94,+48,-85
80292,9.199,-2.923,2.409,0.010766,0.045575,-0.015831,99915.23,-97,+46,-78
80302,9.217,-2.974,2.353,0.015023,0.046107,-0.014234,99915.23,-97,+46,-78
80312,9.175,-2.990,2.375,0.018216,0.048768,-0.013170,99915.45,-93,+48,-86
80322,9.157,-2.979,2.373,0.020344,0.050364,-0.012638,99918.02,-94,+48,-84
80332,9.188,-2.970,2.401,0.024069,0.050364,-0.011042,99916.44,-97,+47,-79
80343,9.178,-2.921,2.453,0.029390,0.049832,-0.007317,99916.03,-92,+48,-87
80352,9.155,-2.933,2.444,0.032583,0.050364,-0.003592,99916.03,-92,+48,-87
80362,9.180,-3.001,2.454,0.030987,0.049832,-0.000932,99918.39,-94,+48,-84
80372,9.222,-3.141,2.413,0.020876,0.045575,0.002261,99915.63,-97,+46,-78
80382,9.272,-3.196,2.235,-0.013179,0.047703,-0.000932,99915.94,-93,+48,-86
80392,9.311,-3.055,2.238,-0.052023,0.062070,-0.004656,99918.61,-93,+48,-86
80402,9.180,-2.852,2.331,-0.058408,0.071648,-0.005189,99918.61,-94,+48,-84
80412,9.090,-2.797,2.410,-0.036059,0.074841,0.001197,99917.80,-97,+46,-77
80422,9.113,-2.820,2.429,0.000124,0.073245,0.006518,99917.55,-93,+48,-86
80432,9.091,-3.019,2.426,0.029390,0.070052,0.010775,99918.53,-93,+48,-86
80442,9.087,-3.101,2.466,0.037372,0.070052,0.008646,99917.17,-94,+48,-82
80452,9.134,-3.034,2.520,0.037904,0.067391,0.004389,99917.17,-97,+46,-77
80462,9.167,-2.897,2.598,0.058656,0.059942,0.003857,99918.09,-94,+48,-87
80473,9.111,-2.862,2.611,0.092179,0.046639,0.009711,99916.30,-94,+48,-87
80482,8.983,-2.976,2.499,0.121445,0.042914,0.011839,99916.09,-96,+46,-82
80492,9.003,-3.064,2.433,0.129427,0.043979,0.013435,99915.51,-97,+46,-77
80502,9.076,-3.022,2.547,0.123574,0.040786,0.011307,99915.51,-94,+47,-85
80513,9.113,-2.919,2.571,0.121977,0.042382,0.009711,99915.64,-94,+47,-85
80522,9.151,-2.866,2.598,0.125170,0.041318,0.010775,99917.06,-96,+46,-80
80532,9.217,-2.827,2.578,0.131023,0.039722,0.012371,99917.11,-97,+46,-77
80542,9.236,-3.107,2.592,0.141133,0.042914,0.007050,99916.95,-94,+47,-86
80552,9.286,-3.302,2.527,0.118253,0.047171,-0.007849,99916.95,-94,+47,-86
80562,9.285,-3.083,2.695,0.078876,0.045575,-0.024877,99919.77,-96,+46,-81
80572,9.098,-2.906,2.656,0.078876,0.032804,-0.035519,99916.58,-98,+45,-77
80582,8.837,-3.048,2.675,0.122864,0.032272,-0.039421,99918.56,-94,+46,-86
80592,8.716,-3.208,2.690,0.120381,0.050364,-0.045097,99915.17,-94,+46,-86
80602,8.921,-3.238,2.594,0.072491,0.069520,-0.063188,99915.17,-97,+46,-80
80612,9.218,-3.027,2.650,0.019812,0.075373,-0.075959,99918.02,-98,+45,-77
80622,9.293,-2.708,2.612,0.005977,0.078034,-0.074363,99916.45,-94,+46,-85
80632,9.286,-2.691,2.636,0.028858,0.078034,-0.059464,99914.98,-94,+46,-85
80643,9.478,-2.781,2.642,0.043225,0.068988,-0.044033,99915.66,-97,+46,-79
80652,9.569,-2.961,2.806,0.038436,0.058346,-0.033390,99915.66,-99,+46,-77
80662,9.533,-2.977,2.938,0.010766,0.043979,-0.029666,99917.91,-95,+47,-85
80672,9.371,-2.903,3.041,-0.016903,0.028547,-0.028069,99919.06,-95,+47,-85
80683,9.302,-2.843,3.139,-0.025949,0.001410,-0.024344,99916.86,-97,+45,-78
80692,9.163,-2.813,3.110,-0.019032,-0.029985,-0.017427,99915.92,-98,+46,-77
80703,9.096,-2.935,2.938,-0.008390,-0.052156,-0.012106,99915.92,-94,+47,-85
80712,9.104,-3.000,2.827,-0.012646,-0.062975,-0.010510,99916.57,-94,+47,-85
80722,9.145,-2.980,2.757,-0.031802,-0.069893,-0.014234,99916.51,-97,+45,-77
80733,9.206,-2.992,2.640,-0.045105,-0.074682,-0.017959,99917.62,-97,+46,-78
80742,9.267,-2.973,2.584,-0.049362,-0.076278,-0.023280,99911.91,-94,+48,-85
80752,9.234,-3.012,2.553,-0.050426,-0.074150,-0.027005,99911.91,-94,+48,-85
80762,9.180,-3.134,2.484,-0.058408,-0.070957,-0.033390,99918.67,-97,+46,-77
80773,9.204,-3.123,2.480,-0.074903,-0.067232,-0.046161,99916.22,-97,+46,-79
80782,9.189,-2.995,2.591,-0.078628,-0.070425,-0.058399,99915.33,-94,+48,-85
80792,9.052,-2.964,2.670,-0.060536,-0.079471,-0.065317,99915.11,-97,+48,-85
80802,8.986,-3.018,2.609,-0.041380,-0.080003,-0.072234,99915.11,-97,+46,-77
80813,8.994,-3.099,2.527,-0.054151,-0.076810,-0.081280,99918.47,-97,+47,-80
80822,9.066,-3.001,2.490,-0.079160,-0.069361,-0.089262,99918.27,-94,+48,-87
80832,9.133,-2.855,2.458,-0.089270,-0.064572,-0.090858,99913.30,-97,+47,-78
80842,9.176,-2.753,2.517,-0.085013,-0.059251,-0.082877,99914.44,-97,+47,-78
80852,9.193,-2.815,2.428,-0.080224,-0.055526,-0.073299,99914.44,-97,+48,-81
80863,9.229,-2.893,2.372,-0.085546,-0.050205,-0.066381,99919.54,-94,+49,-87
80872,9.256,-2.815,2.401,-0.094591,-0.045416,-0.060528,99915.04,-97,+48,-79
80882,9.292,-2.752,2.453,-0.099380,-0.042755,-0.054143,99915.45,-97,+48,-79
80892,9.283,-2.810,2.447,-0.094591,-0.042755,-0.046161,99915.04,-96,+49,-81
80903,9.279,-2.830,2.502,-0.092995,-0.045948,-0.040308,99915.04,-93,+50,-86
80912,9.236,-2.850,2.509,-0.098848,-0.047544,-0.033922,99919.37,-97,+48,-78
80922,9.153,-2.892,2.457,-0.115876,-0.044352,-0.025941,99918.43,-97,+48,-78
80932,9.168,-2.899,2.508,-0.144078,-0.043287,-0.018491,99916.23,-96,+50,-83
80943,9.161,-2.834,2.448,-0.168555,-0.039563,-0.010510,99914.87,-92,+50,-87
80952,9.163,-2.814,2.293,-0.192500,-0.031049,0.004389,99914.87,-97,+49,-79
80962,9.265,-2.846,2.211,-0.211123,-0.024664,0.016096,99918.64,-97,+49,-79
80972,9.246,-2.778,2.220,-0.219105,-0.014021,0.027802,99916.22,-96,+50,-82
80983,9.254,-2.724,2.272,-0.211656,-0.011361,0.041637,99914.30,-93,+53,-86
80993,9.400,-2.776,2.488,-0.191435,-0.017746,0.053876,99914.23,-97,+50,-78
81002,9.365,-2.844,2.635,-0.172279,-0.028388,0.067178,99914.23,-97,+50,-78
81012,9.248,-2.855,2.706,-0.164830,-0.043819,0.074628,99915.52,-95,+52,-83
81022,9.159,-2.711,2.778,-0.160041,-0.067232,0.086334,99916.97,-92,+53,-87
81033,9.145,-2.476,2.848,-0.132903,-0.095966,0.107619,99917.23,-97,+50,-79
81042,9.228,-2.424,2.742,-0.092995,-0.130553,0.145399,99915.05,-97,+50,-79
81052,9.303,-2.435,2.773,-0.053087,-0.161948,0.192224,99915.05,-94,+52,-84
81062,9.254,-2.385,2.832,-0.030206,-0.194407,0.245967,99918.77,-92,+52,-86
81073,9.322,-2.368,2.864,-0.017435,-0.225801,0.303435,99915.83,-96,+48,-79
81083,9.457,-2.344,2.909,-0.002004,-0.266773,0.366224,99915.83,-96,+48,-79
81092,9.449,-2.116,2.851,0.033647,-0.310406,0.436463,99916.25,-92,+50,-86
81102,9.475,-2.146,2.732,0.099097,-0.349783,0.512554,99916.25,-91,+49,-89
81113,9.904,-2.414,2.610,0.155500,-0.410975,0.594499,99919.69,-94,+45,-81
81123,10.428,-2.453,2.752,0.190619,-0.488131,0.683361,99916.97,-94,+45,-81
81132,10.547,-2.026,3.031,0.204986,-0.551452,0.794040,99917.48,-90,+45,-89
81142,10.737,-2.241,3.175,0.191684,-0.642443,0.913233,99915.34,-90,+44,-91
81153,11.073,-2.779,3.137,0.160289,-0.735030,1.028169,99915.34,-92,+38,-84
81163,11.441,-2.885,3.094,0.086326,-0.805269,1.130866,99917.73,-92,+38,-84
81173,12.769,-2.779,3.306,-0.015839,-0.893599,1.229838,99916.74,-88,+39,-92
81182,14.557,-3.184,3.193,-0.072243,-0.959048,1.296884,99915.95,-85,+38,-93
81192,16.271,-4.017,2.626,-0.083417,-0.956920,1.360737,99914.54,-87,+32,-89
81203,17.555,-4.450,1.162,-0.114812,-0.926590,1.428847,99914.54,-87,+32,-89
81213,18.638,-2.856,0.685,-0.048298,-0.988846,1.525159,99919.38,-82,+33,-98
81222,17.642,-1.526,0.993,0.063977,-0.960112,1.618810,99917.95,-81,+31,-98
81232,14.528,-2.603,1.232,0.039500,-0.921801,1.844425,99915.34,-81,+25,-93
81243,11.788,-5.703,3.167,0.115060,-0.896259,1.931159,99916.44,-81,+25,-93
81253,10.980,-11.269,3.829,0.223610,-0.865929,2.095581,99916.44,-76,+24,-102
81262,11.209,-14.968,3.514,0.083133,-0.743012,2.264792,99917.00,-75,+19,-101
81272,11.107,-15.273,1.974,-0.438866,-0.595085,2.300975,99919.41,-76,+13,-96
81283,9.305,-13.683,0.696,-0.999710,-0.484406,2.254149,99915.69,-71,+15,-105
81293,7.802,-12.238,0.370,-1.331214,-0.398737,2.288204,99913.34,-71,+15,-105
81302,7.779,-9.755,0.440,-1.368462,-0.361489,2.235526,99913.34,-71,+13,-103
81312,7.299,-7.918,0.436,-1.202976,-0.364150,2.174865,99917.82,-72,+9,-100
81323,6.426,-6.434,0.047,-0.963527,-0.383838,2.138149,99915.66,-66,+12,-108
81333,5.464,-5.836,-0.104,-0.728334,-0.378516,2.101966,99916.40,-66,+12,-108
81343,4.650,-5.050,-0.058,-0.547949,-0.360957,2.017893,99913.88,-66,+9,-106
81352,3.941,-4.286,0.040,-0.436206,-0.335948,1.890186,99913.88,-66,+4,-102
81362,3.321,-3.556,0.163,-0.356921,-0.301361,1.753434,99916.72,-62,+6,-110
81373,2.763,-3.051,0.309,-0.284022,-0.258260,1.612425,99917.03,-62,+6,-110
81383,2.324,-2.718,0.131,-0.227087,-0.217819,1.463434,99914.58,-62,+3,-107
81392,1.983,-2.405,-0.068,-0.188775,-0.187489,1.314444,99914.78,-63,-1,-104
81402,1.578,-2.235,-0.128,-0.138756,-0.155563,1.159068,99914.78,-59,+1,-111
81413,1.299,-2.121,-0.141,-0.094059,-0.115122,0.995178,99915.67,-59,+1,-111
81423,1.134,-1.983,-0.105,-0.064793,-0.077342,0.827563,99916.36,-60,-1,-108
81432,1.011,-1.805,-0.216,-0.042445,-0.044352,0.657288,99918.03,-62,-4,-105
81442,0.867,-1.683,-0.287,-0.029142,-0.012957,0.491270,99914.73,-58,+0,-112
81453,0.750,-1.617,-0.356,-0.009986,0.010988,0.324187,99914.73,-58,+0,-112
81463,0.695,-1.613,-0.338,0.023537,0.030676,0.156041,99917.34,-60,-3,-107
81473,0.683,-1.704,-0.370,0.084730,0.048768,-0.012106,99915.92,-61,-5,-104
81482,0.878,-1.955,-0.453,0.145390,0.068988,-0.173867,99916.34,-59,-1,-111
81492,1.105,-2.162,-0.487,0.185298,0.091336,-0.345739,99912.95,-59,-1,-111
81503,1.360,-2.308,-0.396,0.224142,0.116346,-0.515482,99912.95,-61,-3,-106
81513,1.622,-2.523,-0.285,0.259262,0.139226,-0.681500,99919.41,-62,-5,-104
81523,2.029,-2.818,-0.104,0.293494,0.161043,-0.862417,99916.09,-60,+0,-110
81532,2.348,-3.130,0.073,0.319922,0.177006,-1.012472,99916.36,-60,+0,-110
81543,2.745,-3.542,0.179,0.349720,0.188712,-1.165188,99913.75,-63,-2,-105
81553,3.140,-3.933,0.229,0.377390,0.196162,-1.312050,99913.75,-64,-1,-102
81563,3.622,-4.209,0.352,0.407720,0.209997,-1.450931,99918.58,-63,+3,-109
81572,4.288,-4.397,0.518,0.447628,0.226492,-1.588215,99916.33,-63,+3,-109
81583,5.092,-4.606,0.703,0.480619,0.230749,-1.720710,99914.75,-67,+1,-103
81593,5.787,-4.914,0.927,0.507225,0.225960,-1.843628,99915.64,-68,+1,-101
81603,6.343,-5.217,1.086,0.528509,0.224896,-1.959628,99915.64,-67,+9,-108
81612,6.932,-5.511,1.201,0.546601,0.233410,-2.077224,99916.62,-67,+9,-108
81623,7.576,-5.773,1.365,0.535427,0.262144,-2.196417,99917.45,-71,+8,-102
81633,8.162,-6.002,1.540,0.482216,0.309501,-2.310288,99915.88,-72,+10,-100
81643,8.837,-6.182,1.723,0.376503,0.372468,-2.423627,99917.87,-71,+17,-106
81652,9.514,-6.286,1.909,0.264583,0.427630,-2.513554,99917.87,-71,+17,-106
81662,10.200,-6.243,2.264,0.146454,0.489355,-2.596031,99918.30,-76,+17,-98
81673,10.840,-6.138,2.608,0.044821,0.582474,-2.651902,99917.67,-77,+21,-98
81683,11.609,-5.882,2.682,-0.079692,0.691024,-2.682765,99918.94,-75,+29,-103
81692,12.465,-5.077,2.770,-0.244646,0.805428,-2.702985,99915.58,-75,+29,-103
81702,13.438,-4.192,3.049,-0.339894,0.929941,-2.702985,99915.58,-81,+32,-95
81713,11.678,-10.938,4.944,-0.186114,1.112455,-2.468325,99920.08,-82,+37,-95
81723,14.437,-18.733,7.946,0.487537,1.265171,-1.803187,99915.47,-81,+42,-100
81733,21.104,-18.497,0.600,0.899922,0.725079,-1.516380,99917.09,-81,+42,-100
81742,28.387,-17.810,-12.947,0.716344,0.107832,-0.798564,99917.56,-87,+40,-91
81753,30.482,-2.584,-11.270,-0.771967,0.493079,-0.958729,99917.56,-85,+42,-93
81763,15.642,9.609,0.936,-1.601526,1.386492,-1.444013,99918.91,-85,+49,-96
81773,5.936,12.486,6.730,-1.251398,1.396070,-0.807610,99917.81,-91,+50,-86
81782,5.938,4.420,5.094,-0.266463,0.885776,-0.265390,99916.77,-91,+50,-86
81793,8.139,-5.378,3.071,0.761573,0.485098,-0.250491,99916.50,-91,+50,-88
81803,7.306,-9.071,2.797,1.093610,0.262144,-0.351060,99916.50,-89,+50,-92
81813,8.889,-7.938,3.321,0.824894,0.151465,-0.236656,99919.05,-93,+48,-85
81823,7.797,-4.970,4.190,0.397078,0.187648,-0.190895,99917.80,-93,+48,-85
81832,4.916,-2.230,4.539,-0.002536,0.288749,-0.269647,99918.16,-92,+48,-88
81843,5.460,-1.011,3.997,-0.373949,0.385593,-0.313812,99918.42,-90,+51,-91
81853,8.132,-2.011,2.265,-0.461747,0.385593,-0.256876,99918.42,-95,+49,-82
81863,9.886,-3.506,0.564,-0.343619,0.329722,-0.133427,99918.09,-95,+49,-82
81872,10.688,-3.397,0.150,-0.243050,0.312694,-0.034987,99918.16,-94,+52,-86
81883,10.930,-1.880,0.951,-0.147802,0.333978,0.027270,99915.17,-91,+52,-89
81893,10.518,-1.503,1.753,0.042161,0.327061,0.092720,99915.42,-96,+51,-80
81903,9.732,-2.658,2.069,0.268307,0.307905,0.148059,99915.42,-96,+51,-80
81912,9.226,-3.162,2.481,0.350784,0.296199,0.199674,99917.97,-94,+50,-84
81923,8.988,-2.716,3.122,0.289592,0.278639,0.251821,99917.61,-94,+50,-87
81933,9.056,-2.490,3.350,0.241170,0.260015,0.301839,99915.09,-97,+46,-78
81943,9.144,-2.887,3.225,0.191684,0.236602,0.357710,99916.45,-97,+46,-78
81952,9.265,-3.375,3.181,0.085262,0.215318,0.392830,99916.45,-96,+47,-83
81963,9.463,-3.706,3.205,-0.017968,0.191373,0.405600,99918.52,-95,+47,-86
81973,9.528,-3.743,3.057,-0.084481,0.164768,0.402408,99917.69,-99,+44,-77
81983,9.474,-3.593,2.650,-0.133968,0.129648,0.395490,99916.89,-99,+44,-77
81993,9.162,-3.797,2.994,-0.156848,0.129116,0.390169,99916.31,-96,+44,-82
82002,9.498,-3.505,2.587,-0.180261,0.103043,0.378995,99916.31,-96,+45,-84
82013,9.419,-3.586,2.699,-0.146206,0.087612,0.380059,99916.37,-99,+43,-77
82023,9.620,-3.443,2.539,-0.096720,0.048236,0.380059,99917.30,-99,+43,-77
82033,9.259,-3.549,2.802,-0.038188,0.014713,0.385380,99915.27,-97,+44,-82
82042,9.025,-3.686,2.865,0.003317,-0.013489,0.385912,99916.05,-96,+44,-84
82053,8.773,-3.994,2.806,-0.003601,-0.030517,0.381123,99916.05,-99,+40,-76
82063,8.570,-4.166,2.639,-0.052555,-0.034241,0.361435,99918.91,-99,+40,-76
82073,8.465,-4.309,2.484,-0.124390,-0.026792,0.333765,99919.07,-97,+42,-83
82082,8.471,-4.134,2.317,-0.186114,-0.012425,0.300243,99918.60,-96,+41,-84
82093,8.659,-3.911,2.317,-0.217509,0.000346,0.276298,99917.09,-99,+39,-76
82103,8.756,-3.878,2.404,-0.212188,0.007263,0.268316,99917.09,-99,+39,-76
82113,8.833,-3.838,2.551,-0.202432,0.006021,0.270267,99918.56,-97,+40,-84
82123,8.860,-3.674,2.822,-0.214316,0.000878,0.280022,99916.67,-96,+41,-84
82132,8.754,-3.372,3.114,-0.236133,-0.014553,0.303435,99915.89,-99,+39,-76
82143,8.643,-3.101,3.198,-0.244646,-0.036902,0.341215,99916.67,-99,+39,-76
82153,8.661,-2.935,3.194,-0.219105,-0.072021,0.389105,99916.67,-96,+41,-84
82163,8.685,-2.964,3.084,-0.158445,-0.110333,0.445508,99919.91,-96,+40,-84
82172,8.676,-2.962,2.990,-0.083949,-0.142792,0.507765,99916.23,-99,+36,-77
82183,8.673,-3.012,2.979,-0.010518,-0.171526,0.573747,99915.61,-99,+36,-77
82193,8.806,-3.396,2.733,0.057060,-0.205581,0.639728,99918.33,-96,+38,-85
82203,9.072,-3.902,2.380,0.083133,-0.232718,0.699857,99918.33,-95,+36,-84
82213,9.311,-4.266,2.017,0.037904,-0.242829,0.748811,99918.49,-98,+33,-78
82223,9.383,-4.453,1.885,-0.047766,-0.234847,0.788187,99917.65,-98,+33,-78
82233,9.333,-4.314,1.982,-0.126518,-0.226865,0.819582,99916.82,-94,+34,-85
82243,9.187,-3.921,2.300,-0.142481,-0.230590,0.856297,99915.98,-94,+32,-85
82253,8.962,-4.168,2.427,-0.109490,-0.246021,0.902591,99915.98,-96,+28,-79
82263,8.834,-4.547,2.556,-0.070646,-0.255599,0.941435,99918.13,-92,+29,-88
82273,8.654,-4.652,2.912,-0.067986,-0.252939,0.974426,99916.30,-92,+29,-88
82283,8.798,-4.636,2.687,-0.077032,-0.286994,0.991985,99917.66,-92,+27,-86
82293,8.958,-5.372,2.572,-0.067454,-0.306150,1.012205,99916.10,-94,+23,-81
82302,9.001,-5.250,2.517,-0.102041,-0.304021,1.019655,99916.10,-91,+25,-89
82313,8.989,-4.966,2.504,-0.138224,-0.301361,1.028701,99918.15,-91,+25,-89
82323,9.256,-5.254,2.466,-0.130243,-0.283269,1.038811,99918.84,-91,+21,-86
82333,9.636,-5.527,2.306,-0.174408,-0.260920,1.052646,99916.68,-92,+18,-82
82343,9.984,-5.825,2.105,-0.275509,-0.251342,1.074994,99914.76,-88,+19,-91
82349,10.633,-5.851,1.679,-0.362775,-0.247617,1.104260,99914.76,-88,+19,-91
82358,11.096,-5.766,1.595,-0.433545,-0.247085,1.138847,99914.76,-89,+17,-87
82368,11.424,-5.350,1.624,-0.479839,-0.248682,1.200040,99919.69,-89,+17,-87
82378,11.639,-5.474,1.373,-0.505912,-0.267838,1.276664,99918.86,-90,+14,-83
82388,12.163,-5.555,1.106,-0.577215,-0.288058,1.353820,99913.52,-86,+16,-93
82398,12.608,-5.233,1.134,-0.650646,-0.302425,1.421930,99916.39,-86,+12,-89
82408,12.585,-4.752,1.170,-0.666609,-0.331691,1.516113,99919.48,-86,+12,-89
82418,12.013,-4.752,1.067,-0.635215,-0.377452,1.623599,99919.64,-87,+9,-85
82428,11.724,-4.611,1.294,-0.601160,-0.428003,1.706077,99919.64,-82,+10,-95
82438,11.873,-4.829,1.745,-0.591050,-0.484938,1.771526,99915.45,-83,+5,-91
82448,12.032,-5.080,2.238,-0.633619,-0.522186,1.811966,99917.70,-81,+5,-89
82458,11.789,-5.109,2.793,-0.727270,-0.531232,1.823141,99917.70,-81,+3,-89
82468,11.729,-4.848,3.229,-0.860297,-0.513672,1.810902,99917.11,-78,+5,-98
82478,12.420,-4.544,3.217,-1.026848,-0.509416,1.774719,99918.36,-77,+0,-94
82488,13.611,-3.889,3.035,-1.220003,-0.508883,1.708737,99915.33,-78,+0,-93
82498,14.229,-2.882,2.644,-1.413692,-0.471104,1.652866,99913.23,-78,+0,-93
82508,14.125,-1.518,2.240,-1.584499,-0.406186,1.629453,99917.48,-73,+4,-102
82519,14.168,-0.959,1.704,-1.625471,-0.405654,1.676278,99915.34,-73,+0,-98
82528,14.652,-2.336,1.437,-1.447747,-0.501966,1.855067,99916.23,-72,+0,-98
82538,15.451,-4.682,1.709,-1.112517,-0.631801,2.141874,99914.40,-72,+0,-98
82548,15.697,-5.275,2.530,-0.773563,-0.689269,2.353654,99914.40,-67,+3,-106
82557,14.945,-5.017,3.401,-0.555398,-0.649360,2.411122,99914.40,-67,-4,-101
82568,13.765,-4.673,3.968,-0.566041,-0.594553,2.356847,99918.95,-65,-6,-102
82578,12.845,-4.692,4.431,-0.455894,-0.612113,2.291929,99916.86,-65,-6,-102
82583,12.606,-4.601,4.489,-0.230811,-0.663727,2.298315,99915.55,-62,-4,-109
82593,12.148,-4.325,4.812,0.018216,-0.680755,2.267452,99916.33,-62,-4,-109
82603,11.155,-3.784,5.256,0.253941,-0.658938,2.117929,99916.33,-59,-13,-103
82613,9.893,-2.512,4.329,0.232656,-0.633397,1.815691,99915.06,-56,-15,-104
82623,7.032,-1.618,2.141,0.053335,-0.582315,1.382022,99917.27,-53,-13,-111
82633,2.715,-6.179,2.162,-0.128114,-0.459397,1.364994,99915.38,-53,-13,-111
82643,6.823,-4.425,3.152,-0.182389,-0.481214,1.089893,99915.86,-52,-20,-105
82653,8.390,0.460,3.759,-0.024353,-0.402994,0.353986,99915.86,-50,-19,-107
82663,6.930,1.667,3.132,0.252876,-0.414700,0.047490,99917.02,-49,-15,-112
82673,5.685,1.360,2.395,0.454546,-0.439177,-0.156308,99914.30,-49,-15,-112
82683,5.332,0.892,1.809,0.566289,-0.408847,-0.486216,99915.20,-47,-21,-105
82693,5.302,0.292,1.478,0.629610,-0.335948,-0.794307,99915.57,-47,-21,-107
82703,5.461,-0.379,1.062,0.620032,-0.274755,-1.102931,99915.57,-46,-17,-113
82713,5.593,-1.061,0.653,0.567353,-0.227929,-1.413151,99913.08,-46,-17,-105
82723,5.544,-1.446,0.660,0.518931,-0.162480,-1.698894,99912.66,-46,-21,-105
82734,5.755,-1.360,0.970,0.502968,-0.097030,-1.988362,99911.45,-45,-16,-107
82743,6.097,-1.009,1.050,0.539151,-0.051801,-2.283150,99909.05,-44,-13,-111
82753,6.544,-0.731,0.705,0.606197,-0.020407,-2.544416,99909.05,-45,-14,-104
82763,7.052,-0.657,0.470,0.682289,0.018969,-2.783866,99913.81,-45,-14,-104
82774,7.506,-0.787,0.545,0.784454,0.061538,-3.015333,99907.38,-46,-11,-106
82783,7.831,-1.222,0.649,0.900986,0.091336,-3.239884,99908.73,-46,-7,-110
82793,8.138,-1.786,0.618,0.977078,0.113685,-3.446342,99910.92,-46,-10,-102
82803,8.250,-2.505,0.761,1.069665,0.153061,-3.629920,99910.92,-46,-10,-102
82813,8.425,-3.040,0.852,1.128197,0.190841,-3.814562,99911.99,-48,-6,-105
82823,8.850,-3.330,1.042,1.172362,0.232345,-3.994947,99910.05,-47,-3,-107
82833,9.370,-3.390,1.401,1.190986,0.279703,-4.173736,99911.26,-51,-7,-100
82843,9.894,-3.720,1.587,1.181408,0.326529,-4.325920,99909.52,-51,-7,-100
82853,10.506,-4.219,1.479,1.120747,0.376015,-4.472250,99909.52,-54,-3,-103
82864,11.143,-4.580,1.321,1.003683,0.444657,-4.618048,99915.24,-55,+0,-106
82873,11.792,-4.835,1.296,0.819573,0.514364,-4.739901,99915.09,-62,+0,-98
82883,12.317,-4.989,1.450,0.592362,0.585666,-4.823442,99911.88,-62,+0,-98
82893,12.583,-5.291,1.687,0.363555,0.668143,-4.892616,99909.74,-67,+4,-102
82904,12.915,-5.685,2.000,0.131555,0.746896,-4.950084,99909.74,-71,+12,-106
82913,13.130,-6.108,2.258,-0.016903,0.826712,-4.993717,99915.88,-79,+17,-100
82923,13.490,-6.244,2.465,-0.015307,0.905996,-5.013405,99913.63,-79,+17,-100
82933,13.920,-6.186,2.588,0.125702,0.973574,-5.002763,99913.16,-83,+28,-105
82944,14.350,-6.241,2.647,0.342803,1.015079,-4.941039,99912.00,-87,+38,-107
82953,14.646,-6.500,2.541,0.552986,1.040088,-4.836213,99912.00,-90,+46,-102
82963,14.707,-6.938,2.222,0.652491,1.056051,-4.710103,99914.35,-90,+46,-102
82973,14.536,-7.225,2.064,0.606197,1.061905,-4.577075,99915.24,-92,+57,-105
82983,14.333,-7.394,2.226,0.505628,1.053391,-4.414250,99913.71,-92,+65,-107
82994,14.120,-7.944,2.205,0.384840,1.045409,-4.210984,99914.71,-94,+73,-100
83003,13.604,-8.929,2.193,0.212968,1.062969,-3.984837,99914.71,-94,+73,-100
83013,12.809,-10.052,2.205,0.014491,1.084785,-3.717186,99917.86,-94,+83,-104
83023,11.826,-11.340,2.140,-0.160041,1.108198,-3.397388,99916.88,-90,+89,-103
83034,10.640,-12.667,1.946,-0.336169,1.123097,-2.994049,99919.33,-93,+95,-95
83043,9.486,-13.570,1.502,-0.520811,1.115648,-2.468857,99917.19,-93,+95,-95
83053,8.048,-13.995,0.732,-0.660224,1.066162,-1.856930,99917.19,-93,+103,-99
83063,6.806,-14.098,-0.027,-0.836352,0.954951,-1.167848,99920.19,-92,+105,-97
83074,6.167,-14.274,-0.735,-0.949692,0.768712,-0.422363,99919.19,-93,+106,-90
83083,5.804,-14.955,-1.304,-0.944903,0.525006,0.309288,99919.03,-93,+106,-90
83093,5.529,-15.640,-1.953,-0.843270,0.224364,1.007948,99916.63,-94,+109,-95
83103,5.490,-15.831,-2.980,-0.597435,-0.069361,1.676810,99916.63,-94,+106,-94
83113,5.761,-15.653,-3.560,-0.172279,-0.377984,2.271177,99921.56,-96,+100,-90
83124,5.831,-13.064,1.603,0.417298,-0.630737,2.705911,99919.53,-96,+100,-90
83133,7.817,-3.227,21.463,0.758381,-0.267306,2.609067,99916.23,-96,+96,-98
83143,25.800,27.935,14.994,-0.640004,0.090272,1.237820,99912.94,-95,+91,-100
83153,36.952,13.985,-16.661,-2.180462,-1.141562,1.792278,99912.94,-95,+90,-97
83164,30.088,-24.988,-1.583,1.752894,-1.308112,4.494864,99921.73,-95,+90,-97
83173,18.364,-25.753,3.886,2.069499,-0.996296,4.408130,99916.45,-96,+77,-105
83183,5.159,-8.288,-1.151,0.190619,-0.656810,3.301874,99915.88,-96,+66,-105
83193,1.680,5.089,1.455,0.074087,-0.631269,3.246534,99917.66,-96,+59,-100
83204,-0.712,4.260,3.713,1.292619,-0.780792,3.197048,99917.66,-95,+59,-108
83214,3.778,-5.267,1.172,1.813554,-0.772810,2.920883,99921.30,-95,+51,-108
83223,10.649,-14.139,-1.714,1.098931,-0.756847,2.915030,99920.03,-94,+40,-108
83233,13.153,-15.206,-0.298,-0.198885,-0.449819,2.588846,99914.91,-94,+34,-105
83244,12.165,-9.579,1.655,-1.047600,-0.126296,2.063122,99917.78,-92,+34,-111
83254,10.123,-3.568,1.241,-0.978426,0.001410,1.717783,99917.78,-92,+34,-111
83263,8.275,-2.188,0.976,-0.593178,0.041850,1.639031,99922.73,-91,+32,-109
83273,7.807,-3.283,1.630,-0.255289,0.082823,1.673618,99918.59,-92,+28,-105
83283,8.625,-4.054,1.879,-0.179197,0.126988,1.642755,99918.63,-91,+27,-111
83289,9.453,-4.537,1.966,-0.274444,0.134437,1.585288,99918.12,-91,+27,-111
83298,9.418,-5.639,1.964,-0.405343,0.153593,1.486847,99918.12,-90,+23,-108
83308,9.480,-5.901,1.789,-0.607013,0.195630,1.347435,99918.12,-90,+23,-108
83318,9.201,-4.726,2.007,-0.766646,0.256290,1.158003,99917.99,-92,+23,-103
83329,9.091,-4.196,2.266,-0.811875,0.275446,1.033490,99918.68,-91,+24,-110
83339,9.383,-3.968,2.305,-0.727802,0.267997,0.981343,99917.46,-90,+21,-107
83349,9.727,-3.458,2.155,-0.609142,0.238731,0.939306,99917.46,-90,+21,-107
83358,9.635,-3.330,2.313,-0.478243,0.225428,0.912169,99919.14,-92,+20,-103
83368,9.544,-3.277,2.512,-0.372353,0.211593,0.892481,99919.14,-92,+21,-109
83379,9.382,-4.043,2.419,-0.361710,0.190309,0.885031,99916.42,-91,+19,-106
83388,9.390,-4.053,2.377,-0.403747,0.175410,0.852572,99918.00,-91,+19,-106
83398,9.246,-3.923,2.769,-0.498995,0.190309,0.808407,99916.78,-92,+17,-101
83408,9.035,-3.860,2.957,-0.578811,0.182327,0.785527,99916.78,-92,+19,-108
83419,9.054,-3.814,2.873,-0.627233,0.163703,0.775949,99919.10,-91,+17,-105
83429,9.224,-3.555,2.954,-0.646389,0.136566,0.783398,99914.55,-92,+15,-102
83438,9.456,-3.264,3.197,-0.669802,0.108896,0.817453,99914.66,-92,+15,-102
83448,9.515,-3.202,3.649,-0.710242,0.109960,0.875453,99915.69,-92,+17,-108
83459,9.219,-3.342,3.922,-0.782609,0.128052,0.948884,99914.44,-91,+15,-103
83469,8.926,-3.329,3.938,-0.881582,0.160511,1.015398,99916.84,-93,+15,-102
83479,8.928,-3.302,3.810,-0.978426,0.191905,1.085636,99914.64,-93,+15,-102
83488,9.059,-3.310,3.636,-1.041747,0.208933,1.163324,99914.64,-92,+15,-107
83499,9.062,-3.253,3.302,-1.055582,0.193501,1.247398,99915.11,-91,+13,-102
83509,8.846,-3.161,2.882,-1.017802,0.151465,1.339453,99915.11,-93,+12,-102
83519,8.277,-3.358,2.330,-0.907123,0.091869,1.438957,99918.14,-93,+12,-102
83524,7.841,-3.589,2.023,-0.790591,0.047171,1.513985,99912.53,-92,+13,-107
83533,7.493,-3.771,1.870,-0.662353,-0.003379,1.573581,99917.41,-92,+13,-107
83544,7.303,-4.150,1.838,-0.509105,-0.093306,1.638499,99915.83,-90,+7,-103
83554,7.159,-4.691,1.973,-0.367032,-0.185893,1.690113,99915.83,-92,+5,-103
83563,7.129,-5.232,2.214,-0.269123,-0.256131,1.718847,99917.37,-89,+5,-109
83573,7.204,-5.819,2.465,-0.227619,-0.301893,1.722040,99917.21,-89,+5,-109
83584,7.492,-6.407,2.362,-0.235600,-0.328498,1.712462,99917.41,-87,+0,-104
83594,8.121,-6.769,1.970,-0.318077,-0.349783,1.701820,99917.63,-88,-2,-105
83603,9.074,-6.773,1.487,-0.461215,-0.354039,1.697563,99917.63,-85,-2,-110
83613,10.294,-6.590,0.960,-0.587857,-0.366810,1.707141,99917.71,-85,-2,-110
83623,11.338,-6.280,0.772,-0.619252,-0.385434,1.755563,99917.96,-83,-7,-105
83634,11.957,-6.249,0.831,-0.552738,-0.405654,1.827397,99917.34,-83,-9,-108
83644,12.204,-6.670,1.089,-0.480371,-0.410975,1.908810,99916.87,-80,-9,-113
83653,12.419,-7.277,1.230,-0.489949,-0.400865,1.972131,99916.87,-80,-9,-113
83663,12.812,-7.347,1.229,-0.572426,-0.366810,2.004058,99919.38,-76,-16,-107
83674,13.676,-6.991,1.315,-0.690554,-0.338608,2.031195,99918.13,-76,-19,-110
83684,15.299,-6.380,1.500,-0.860829,-0.327434,2.095049,99916.29,-73,-19,-114
83693,17.251,-5.733,2.225,-1.074206,-0.299232,2.213177,99915.35,-70,-24,-109
83703,19.648,-4.990,3.097,-1.394536,-0.245489,2.373342,99915.35,-70,-24,-109
83714,22.673,-3.608,3.679,-1.917599,-0.159287,2.540957,99918.14,-70,-24,-111
83724,25.791,-1.890,4.237,-2.642865,-0.061911,2.680369,99916.78,-67,-22,-116
83734,27.359,0.285,4.167,-3.385690,0.010456,2.701122,99918.66,-63,-25,-113
83743,26.505,2.488,4.348,-3.701763,-0.026260,2.529782,99918.30,-63,-25,-113
83753,24.228,0.051,4.620,-2.829103,-0.342865,2.587250,99918.30,-62,-23,-116
83764,21.096,-5.949,5.422,-1.306205,-0.731837,3.157140,99917.09,-59,-25,-119
83774,17.122,-8.263,6.408,-0.441527,-0.885085,3.223121,99914.78,-53,-34,-113
83783,13.899,-4.869,7.428,-0.236133,-0.914883,2.787856,99916.78,-53,-34,-113
83793,12.690,-1.302,8.471,-0.038720,-0.977672,2.497856,99913.95,-52,-37,-117
83804,11.357,1.156,8.014,0.643977,-1.031415,2.220094,99913.95,-49,-42,-118
83814,7.233,2.882,5.672,1.147885,-0.903177,1.622003,99916.32,-45,-52,-111
83823,0.067,1.018,1.519,1.251114,-1.164975,1.180352,99916.99,-45,-52,-111
83833,-2.694,-11.645,2.774,1.324545,-0.990443,1.436297,99914.43,-44,-56,-113
83844,3.683,-8.875,2.664,0.957390,-0.920736,0.676976,99915.59,-43,-60,-114
83854,5.629,-2.322,2.695,0.419427,-0.928718,-0.416509,99915.59,-42,-64,-108
83864,2.773,2.078,1.420,0.416766,-0.996828,-1.038546,99916.16,-42,-64,-108
83873,1.069,2.946,0.880,0.483280,-1.012791,-1.305133,99915.38,-46,-62,-111
83884,1.913,1.507,0.691,0.841390,-0.962773,-1.647811,99914.86,-48,-62,-112
83894,3.213,-0.203,1.176,1.180876,-0.889874,-1.983573,99911.81,-49,-64,-105
83904,3.516,-0.761,1.333,1.233555,-0.855819,-2.292728,99911.81,-49,-64,-105
83913,3.363,-0.818,1.801,1.211738,-0.817507,-2.548673,99912.83,-55,-60,-108
83923,3.375,-1.079,1.966,1.363921,-0.771746,-2.823774,99910.47,-58,-58,-109
83934,4.055,-1.728,1.883,1.560802,-0.718003,-3.090893,99907.64,-62,-59,-102
83944,4.934,-2.375,1.339,1.682123,-0.669581,-3.333535,99907.13,-62,-59,-102
83953,5.879,-2.510,0.744,1.722031,-0.628608,-3.577773,99907.13,-70,-54,-105
83963,6.473,-2.636,0.132,1.737995,-0.593489,-3.837975,99909.90,-74,-50,-104
83974,6.599,-3.584,-0.177,1.716178,-0.541874,-4.057204,99911.79,-80,-46,-98
83984,6.705,-4.320,-0.183,1.599114,-0.481746,-4.225883,99908.76,-80,-46,-98
83994,6.930,-4.467,0.087,1.434160,-0.415764,-4.380195,99911.63,-87,-38,-102
84003,7.335,-4.286,0.763,1.241536,-0.337012,-4.511626,99911.63,-92,-30,-102
84014,7.904,-4.412,1.364,1.053169,-0.266241,-4.623369,99910.48,-97,-22,-97
84024,8.652,-4.631,1.481,0.878105,-0.196535,-4.729791,99909.48,-97,-22,-97
84034,9.636,-5.096,1.091,0.726986,-0.122040,-4.808011,99911.16,-102,-9,-102
84043,10.553,-5.899,0.723,0.590766,-0.024131,-4.859094,99910.95,-105,+1,-100
84054,11.293,-6.489,0.743,0.461995,0.067391,-4.904323,99910.95,-108,+12,-95
84064,11.588,-6.630,0.915,0.436986,0.124327,-4.931460,99915.07,-108,+12,-95
84074,11.658,-6.616,1.092,0.531702,0.153593,-4.924543,99913.09,-109,+27,-99
84083,11.846,-6.635,1.282,0.678564,0.163703,-4.901662,99912.55,-107,+39,-97
84093,12.172,-6.633,1.614,0.847243,0.161043,-4.858029,99914.71,-106,+50,-91
84104,12.407,-6.567,1.851,1.010068,0.143483,-4.796305,99914.71,-106,+50,-91
84114,12.589,-6.637,1.897,1.135646,0.120248,-4.718084,99916.04,-103,+63,-93
84124,12.917,-6.678,1.949,1.187261,0.116346,-4.649442,99914.99,-99,+72,-92
84133,13.551,-6.926,2.068,1.185133,0.124327,-4.559515,99912.85,-94,+81,-87
84144,14.209,-7.602,2.086,1.096802,0.156254,-4.452030,99913.85,-89,+91,-90
84154,14.415,-8.719,2.249,0.903646,0.221703,-4.324323,99913.85,-89,+91,-90
84164,13.876,-9.847,2.107,0.682289,0.292474,-4.149259,99915.52,-84,+97,-89
84173,12.997,-10.513,1.959,0.451353,0.364841,-3.908214,99916.72,-80,+104,-85
84184,12.153,-11.154,1.992,0.290124,0.429226,-3.572984,99914.73,-74,+112,-90
84194,11.176,-11.823,2.067,0.153904,0.479244,-3.171242,99914.73,-74,+112,-90
84204,10.033,-12.883,2.219,-0.003601,0.533520,-2.703517,99914.73,-72,+116,-88
84214,9.204,-13.944,2.278,-0.263270,0.589923,-2.197481,99916.06,-69,+121,-84
84224,8.695,-14.301,2.129,-0.655435,0.622382,-1.683463,99915.44,-66,+126,-89
84230,7.971,-14.200,1.964,-0.985343,0.623978,-1.294490,99919.36,-66,+126,-89
84239,7.391,-13.523,2.110,-1.276407,0.592052,-0.892748,99919.36,-64,+129,-87
84249,6.987,-12.628,2.535,-1.490847,0.503721,-0.352124,99916.86,-64,+129,-87
84259,6.741,-12.009,2.879,-1.470095,0.405813,0.154977,99916.86,-65,+131,-82
84269,6.341,-11.822,3.043,-1.324297,0.321208,0.612591,99917.60,-65,+134,-87
84279,6.399,-10.934,3.610,-1.143912,0.254162,0.986132,99917.65,-66,+133,-85
84289,7.526,-9.810,3.482,-0.940114,0.194566,1.251123,99915.87,-66,+133,-85
84299,8.968,-8.179,5.903,-0.714499,0.214254,1.486315,99915.87,-67,+132,-82
84308,13.747,-5.413,5.065,-0.745894,0.148272,1.559214,99915.87,-68,+131,-88
84319,25.162,2.229,-4.480,-1.306737,-0.556241,1.674150,99919.45,-69,+131,-87
84329,26.811,1.281,-2.560,-0.727270,-0.645636,2.067379,99921.75,-69,+131,-87
84339,20.361,-7.612,3.168,0.904711,-0.213030,2.942168,99918.52,-72,+127,-84
84349,14.354,-12.260,1.743,1.452784,-0.173122,3.513653,99915.56,-74,+119,-93
84359,7.617,-7.889,1.207,0.824362,-0.129489,3.286974,99915.56,-76,+111,-92
84369,2.983,-1.648,4.264,0.226803,0.062070,2.893745,99916.77,-80,+104,-89
84379,2.670,-2.685,6.344,0.357170,0.065795,2.694204,99918.81,-80,+104,-89
84389,6.758,-7.239,3.559,0.637060,-0.174186,2.561177,99916.33,-80,+100,-95
84399,10.768,-9.387,0.346,0.267775,-0.369471,2.397819,99916.33,-82,+93,-93
84409,12.406,-7.389,0.334,-0.241454,-0.247085,2.194553,99918.65,-84,+89,-92
84419,12.087,-5.734,0.282,-0.607545,-0.117251,2.045563,99918.43,-84,+89,-92
84428,10.354,-4.893,0.178,-0.764518,-0.026260,1.946058,99918.43,-84,+90,-97
84439,8.703,-3.344,0.512,-0.615527,0.079098,1.744388,99919.70,-86,+85,-93
84449,8.642,-1.403,1.031,-0.324995,0.132841,1.582627,99920.26,-87,+83,-90
84459,9.078,-2.636,1.618,-0.089802,0.147208,1.527820,99920.26,-87,+83,-90
84469,9.659,-4.970,1.719,-0.115344,0.159446,1.460774,99919.99,-87,+81,-95
84480,9.716,-5.200,1.767,-0.358518,0.225428,1.270279,99918.10,-89,+77,-91
84489,9.412,-4.197,1.982,-0.583600,0.279703,1.057967,99920.20,-89,+77,-90
84499,9.497,-3.586,2.268,-0.662353,0.282364,0.933453,99917.52,-89,+77,-90
84509,9.749,-3.064,2.389,-0.659692,0.269061,0.849912,99920.79,-90,+79,-93
84519,9.899,-2.617,2.244,-0.620848,0.251501,0.796169,99919.05,-90,+76,-89
84529,10.129,-2.838,2.033,-0.543160,0.215318,0.788719,99917.90,-91,+75,-89
84539,10.164,-3.154,2.013,-0.473454,0.181263,0.786591,99915.76,-91,+75,-89
84549,9.796,-3.486,2.288,-0.476114,0.178070,0.777013,99915.76,-92,+77,-92
84559,9.455,-3.319,2.312,-0.575087,0.181795,0.767967,99915.76,-92,+73,-87
84569,9.241,-2.824,2.288,-0.667141,0.196694,0.764774,99919.59,-93,+74,-86
84579,9.125,-2.705,2.229,-0.660756,0.200951,0.802022,99919.28,-93,+74,-86
84589,9.035,-3.036,2.141,-0.609142,0.195098,0.855765,99920.06,-93,+75,-90
84599,8.920,-3.305,2.198,-0.591050,0.192969,0.903123,99917.03,-94,+71,-85
84609,8.910,-3.208,2.430,-0.623509,0.197226,0.944095,99917.03,-95,+71,-85
84619,8.987,-2.892,2.907,-0.684169,0.205208,0.988260,99917.49,-95,+71,-85
84629,9.207,-2.763,3.266,-0.737380,0.205740,1.038811,99917.35,-96,+71,-88
84639,9.455,-2.722,3.365,-0.768242,0.197758,1.101068,99916.96,-96,+69,-83
84649,9.485,-2.764,3.233,-0.772499,0.175942,1.179288,99916.96,-97,+68,-83
84659,9.285,-2.808,3.028,-0.731527,0.131777,1.265490,99916.96,-97,+68,-83
84669,8.961,-2.794,2.739,-0.633619,0.072180,1.357012,99918.34,-98,+68,-87
84679,8.718,-2.710,2.888,-0.475582,0.013116,1.453324,99918.65,-98,+63,-82
84689,8.477,-2.730,2.952,-0.281894,-0.066700,1.552297,99915.20,-99,+62,-84
84699,8.256,-3.379,2.847,-0.096188,-0.161416,1.660847,99916.62,-99,+62,-84
84709,8.221,-4.059,2.588,0.051739,-0.253471,1.748113,99916.62,-100,+60,-87
84719,8.137,-4.576,2.398,0.160289,-0.324773,1.791214,99915.63,-99,+52,-83
84729,8.094,-5.621,1.912,0.209243,-0.378516,1.816755,99915.80,-99,+49,-86
84740,8.335,-6.378,1.395,0.148051,-0.392351,1.799196,99917.01,-99,+49,-86
84749,8.634,-6.539,1.134,0.007042,-0.362553,1.752902,99916.57,-99,+46,-89
84759,9.078,-6.747,0.752,-0.153123,-0.323709,1.711930,99919.82,-97,+40,-85
84769,9.892,-6.526,0.526,-0.310628,-0.268902,1.674150,99919.29,-98,+38,-88
84779,10.762,-6.012,0.476,-0.448976,-0.218351,1.661911,99919.29,-98,+38,-88
84789,11.409,-5.801,0.571,-0.535710,-0.174718,1.702884,99919.49,-97,+36,-90
84799,11.756,-5.986,0.992,-0.600628,-0.148113,1.757691,99918.93,-97,+31,-85
84809,12.241,-5.803,1.247,-0.724077,-0.151306,1.810902,99918.93,-97,+30,-88
84819,12.616,-5.587,1.758,-0.860475,-0.166027,1.883269,99919.53,-97,+29,-91
84829,12.989,-5.491,2.029,-0.927875,-0.182700,1.965214,99919.53,-97,+29,-91
84839,13.337,-5.572,2.135,-1.033765,-0.185893,2.049287,99916.39,-95,+24,-86
84849,13.839,-5.370,2.051,-1.218939,-0.183232,2.115801,99917.17,-94,+23,-89
84859,14.386,-5.056,2.108,-1.462646,-0.172058,2.168480,99917.17,-95,+21,-91
84870,15.178,-4.677,2.041,-1.763288,-0.150241,2.212113,99918.54,-95,+21,-91
84879,16.861,-3.890,2.274,-2.199085,-0.115122,2.214773,99917.85,-92,+19,-87
84889,20.049,-1.491,3.137,-2.700865,-0.145985,2.170608,99919.27,-93,+20,-90
84899,23.509,2.123,4.492,-3.035030,-0.323709,2.140278,99919.27,-92,+21,-93
84909,23.876,3.708,5.020,-2.625305,-0.627012,2.198810,99919.27,-92,+21,-93
84919,21.179,-0.652,4.193,-1.467967,-0.921801,2.542021,99920.05,-89,+17,-90
84929,17.783,-6.577,4.707,-0.550609,-1.060681,2.950681,99916.34,-88,+15,-94
84939,16.013,-7.824,6.004,-0.253692,-1.038333,2.966112,99915.60,-86,+7,-97
84950,15.244,-7.019,6.377,-0.191967,-0.982461,2.898534,99916.87,-86,+7,-97
84959,14.425,-5.265,6.327,-0.294665,-0.917012,2.764443,99916.87,-82,+0,-93
84969,13.370,-3.694,6.493,-0.272316,-0.902645,2.617580,99916.85,-83,-3,-98
84979,11.483,-2.527,7.620,-0.011050,-0.744076,2.350461,99915.84,-81,-9,-99
84989,9.806,1.592,3.750,-0.010518,-0.769617,1.676278,99918.05,-81,-9,-99
85000,2.983,-1.257,2.913,-0.067454,-0.597214,1.190994,99918.05,-81,-16,-96
85009,1.649,-9.202,3.547,-0.137160,-0.452480,1.306462,99918.46,-82,-17,-102
85019,5.399,-5.314,2.504,-0.493674,-0.266773,0.462536,99918.46,-84,-17,-102
85029,6.056,0.005,2.246,-0.813472,-0.161416,-0.282418,99917.32,-84,-17,-102
85040,4.869,3.120,2.028,-0.776756,-0.145985,-0.741096,99917.32,-85,-17,-98
85049,3.790,4.347,1.037,-0.410665,-0.090645,-1.124215,99915.07,-90,-13,-105
85055,3.206,3.656,0.728,0.026730,-0.023067,-1.322160,99915.07,-90,-13,-105
85064,3.053,2.033,1.096,0.443904,0.047703,-1.475940,99915.88,-92,-12,-105
85074,3.734,0.726,0.897,0.873848,0.074841,-1.734013,99914.05,-95,-13,-102
85084,4.311,0.015,0.228,1.110637,0.055685,-2.026674,99914.88,-95,-13,-102
85094,4.948,-0.529,-0.477,1.252178,0.055153,-2.349664,99910.91,-101,-7,-106
85104,5.683,-0.822,-1.023,1.276123,0.062602,-2.688618,99910.91,-104,-5,-106
85114,6.183,-1.006,-1.212,1.300068,0.069520,-2.985003,99914.29,-106,-3,-103
85125,6.475,-1.039,-1.078,1.377224,0.079098,-3.241480,99912.88,-111,+4,-107
85134,6.770,-1.416,-0.872,1.520894,0.062070,-3.460177,99912.98,-111,+4,-107
85144,7.154,-2.069,-0.401,1.750765,0.034933,-3.639498,99914.13,-114,+11,-106
85154,7.509,-2.790,0.081,1.977444,-0.008700,-3.802324,99914.13,-115,+15,-103
85165,7.922,-3.545,0.443,2.101426,-0.059251,-3.974195,99915.14,-117,+23,-109
85174,8.229,-4.322,0.755,2.072160,-0.082131,-4.160433,99912.63,-117,+23,-109
85184,8.630,-4.856,1.207,1.879536,-0.074682,-4.353589,99913.73,-116,+31,-108
85194,9.196,-5.007,1.668,1.624123,-0.047544,-4.525461,99911.31,-115,+36,-106
85204,9.834,-5.163,2.015,1.412876,-0.005508,-4.664341,99911.31,-112,+47,-111
85215,10.414,-5.565,2.207,1.250050,0.043979,-4.778745,99914.94,-112,+47,-111
85224,10.824,-6.032,2.470,1.139903,0.095593,-4.855369,99913.48,-110,+53,-111
85234,11.154,-6.471,2.691,1.061683,0.140823,-4.905387,99913.48,-110,+58,-110
85244,11.502,-6.767,2.963,1.002619,0.191373,-4.945827,99909.55,-110,+66,-115
85254,11.864,-6.754,3.189,0.934509,0.254694,-4.984672,99909.55,-110,+66,-115
85264,12.188,-6.533,3.254,0.877041,0.329722,-5.004891,99917.19,-109,+73,-113
85274,12.538,-6.284,3.183,0.844582,0.420180,-5.003295,99917.77,-110,+79,-112
85284,13.055,-6.290,3.145,0.838729,0.510107,-4.986800,99915.14,-110,+90,-116
85289,13.530,-6.541,3.036,0.854692,0.572896,-4.960726,99913.00,-110,+90,-116
85299,13.816,-6.969,2.925,0.833940,0.632492,-4.909112,99913.00,-109,+98,-115
85309,13.814,-7.678,2.863,0.741353,0.709648,-4.815993,99913.00,-110,+98,-115
85319,13.818,-8.218,2.605,0.546069,0.757538,-4.684030,99916.75,-110,+106,-112
85329,13.713,-8.566,2.653,0.306619,0.804896,-4.501516,99914.39,-106,+116,-117
85340,13.340,-8.961,2.852,0.113464,0.850125,-4.267920,99914.08,-105,+124,-113
85349,12.700,-9.559,2.945,-0.075968,0.920363,-3.998672,99914.08,-105,+132,-110
85359,11.957,-10.232,2.909,-0.310096,1.027318,-3.712397,99917.48,-105,+132,-110
85369,11.137,-11.115,2.525,-0.581472,1.159813,-3.386746,99917.48,-104,+142,-113
85380,10.197,-12.318,1.900,-0.906591,1.284859,-2.985003,99916.70,-102,+149,-106
85389,9.164,-13.254,1.116,-1.240224,1.347116,-2.518343,99916.49,-103,+157,-102
85399,8.666,-13.527,0.447,-1.603655,1.305611,-2.005389,99914.60,-103,+157,-102
85409,8.613,-13.266,0.174,-1.792022,1.149171,-1.394527,99914.60,-103,+166,-102
85420,8.202,-12.416,0.127,-1.701031,0.925152,-0.751738,99920.70,-103,+170,-95
85430,7.542,-11.104,0.235,-1.343985,0.678253,-0.117996,99917.14,-105,+172,-91
85439,7.036,-10.298,0.167,-0.714499,0.411134,0.488077,99918.14,-105,+172,-91
85449,6.419,-10.911,-0.512,0.033647,0.137630,1.043600,99916.41,-106,+174,-96
85459,5.600,-12.333,-0.866,0.661004,-0.090645,1.503343,99920.91,-107,+168,-94
85470,6.347,-10.854,1.473,0.986656,-0.274755,1.779508,99918.87,-112,+164,-97
85480,7.285,-7.646,12.520,1.149481,-0.194407,1.827397,99916.62,-112,+164,-97
85489,14.711,-2.668,14.476,0.540216,-0.014021,1.776847,99916.62,-113,+159,-103
85499,32.359,6.924,-8.136,-1.053453,-1.004810,1.895508,99913.43,-113,+155,-101
85510,29.200,-6.677,-7.122,0.667922,-1.135177,2.872993,99913.43,-118,+147,-105
85520,23.870,-17.322,-1.100,2.009371,-0.913287,3.900497,99921.27,-118,+147,-105
85525,18.012,-16.603,-0.919,1.402765,-0.713746,4.019158,99920.44,-121,+135,-111
85534,10.026,-7.270,0.439,0.401867,-0.432792,3.670626,99917.56,-121,+135,-111
85544,0.188,1.909,2.507,-0.089270,-0.346590,3.364130,99919.08,-124,+126,-108
85555,-2.077,1.193,2.640,0.455610,-0.502498,3.023048,99919.08,-128,+118,-110
85564,4.963,-5.306,1.706,0.958986,-0.634993,2.721874,99920.78,-128,+110,-116
85574,10.865,-10.180,1.054,0.897261,-0.649893,2.555324,99920.20,-128,+101,-113
85584,13.439,-11.600,0.710,0.453482,-0.485471,2.428149,99920.98,-128,+101,-113
85595,13.428,-8.638,0.732,-0.017435,-0.302957,2.168480,99915.64,-131,+96,-115
85604,9.941,-5.315,0.628,-0.362243,-0.132682,1.842297,99915.64,-131,+93,-119
85614,7.768,-3.581,1.245,-0.450573,-0.065104,1.703948,99922.21,-131,+88,-115
85624,7.367,-2.917,1.830,-0.225490,-0.052865,1.582627,99920.85,-131,+88,-115
85635,8.345,-3.385,1.631,0.089519,-0.046480,1.473544,99917.93,-133,+85,-115
85645,9.459,-4.531,1.885,0.292252,-0.008168,1.402774,99917.45,-134,+80,-119
85654,9.694,-4.996,2.375,0.265647,0.037593,1.325618,99917.45,-134,+77,-114
85664,9.167,-4.662,2.545,0.081537,0.050896,1.231435,99920.93,-134,+77,-114
85675,8.785,-4.307,2.428,-0.114812,0.039722,1.125545,99920.15,-136,+74,-116
85685,8.821,-4.421,2.190,-0.272316,0.045043,1.033490,99919.26,-136,+72,-118
85694,9.177,-3.964,1.938,-0.402151,0.073777,0.953141,99916.12,-136,+71,-113
85704,9.427,-3.124,2.011,-0.498995,0.101446,0.897802,99916.12,-136,+71,-113
85714,9.529,-2.345,2.246,-0.489949,0.111024,0.889820,99920.04,-138,+69,-115
85725,9.363,-1.987,2.179,-0.385655,0.107832,0.905783,99918.10,-137,+68,-117
85734,9.426,-1.836,2.181,-0.222830,0.079630,0.937178,99919.84,-138,+65,-112
85744,9.189,-2.476,2.301,-0.072775,0.049832,0.969637,99917.63,-138,+65,-112
85754,8.962,-3.374,2.266,0.005445,0.038125,0.995178,99917.63,-139,+63,-113
85761,8.792,-3.761,2.371,-0.014775,0.037593,0.999967,99918.27,-138,+62,-116
85770,8.510,-3.908,2.229,-0.113215,0.045575,0.994646,99918.27,-138,+62,-116
85780,8.628,-3.596,1.900,-0.241986,0.067391,0.992517,99917.85,-138,+58,-111
85789,9.017,-3.101,1.885,-0.296793,0.083355,1.004756,99919.70,-140,+56,-113
85799,9.389,-2.686,1.990,-0.265399,0.082823,1.056370,99916.45,-140,+54,-116
85810,9.522,-2.789,2.226,-0.204738,0.072713,1.129269,99917.20,-140,+54,-116
85820,9.390,-3.411,2.521,-0.179197,0.058878,1.200572,99919.09,-140,+52,-111
85829,9.208,-3.969,2.719,-0.234536,0.056749,1.253251,99916.05,-141,+49,-115
85839,8.982,-4.271,2.885,-0.338298,0.065263,1.286774,99916.05,-140,+47,-115
85850,8.759,-4.325,3.030,-0.428756,0.073777,1.319233,99915.22,-140,+47,-115
85860,8.689,-4.377,2.938,-0.484096,0.086547,1.355416,99915.22,-140,+44,-110
85869,8.631,-4.638,3.404,-0.523472,0.121667,1.393196,99917.77,-141,+42,-113
85879,8.679,-5.233,3.831,-0.646389,0.196162,1.418737,99916.52,-140,+39,-113
85890,9.254,-5.649,3.580,-0.834756,0.249905,1.421930,99918.82,-140,+39,-113
85900,9.830,-5.719,3.306,-1.055582,0.297795,1.423526,99915.84,-142,+37,-109
85910,10.449,-5.249,3.022,-1.222664,0.313758,1.452792,99915.84,-144,+34,-111
85919,10.939,-4.911,2.665,-1.282792,0.276511,1.523563,99916.85,-142,+34,-113
85929,11.538,-4.865,2.159,-1.252462,0.204676,1.635838,99918.48,-142,+34,-113
85940,12.401,-4.871,1.790,-1.202444,0.124327,1.769397,99918.05,-142,+31,-106
85950,12.848,-5.178,1.910,-1.164132,0.047703,1.910407,99918.05,-144,+28,-111
85959,13.031,-5.673,1.943,-1.163600,0.011520,2.045563,99918.05,-142,+26,-111
85969,13.252,-6.009,2.010,-1.254059,-0.000186,2.152517,99922.23,-142,+26,-111
85980,13.677,-6.222,1.895,-1.391343,-0.021471,2.248828,99920.13,-140,+22,-105
85990,14.431,-5.724,1.825,-1.541930,-0.042223,2.337159,99917.46,-142,+18,-110
85995,14.983,-5.174,2.026,-1.655801,-0.050737,2.403672,99918.46,-142,+18,-110
86004,15.524,-4.990,2.284,-1.734022,-0.073086,2.494131,99918.46,-138,+16,-110
86014,16.743,-4.112,2.531,-1.895251,-0.096498,2.608535,99920.23,-137,+9,-106
86025,17.725,-3.235,3.344,-2.144278,-0.092774,2.704314,99918.92,-137,+9,-106
86035,18.390,-3.204,3.072,-2.425232,-0.100755,2.784131,99918.61,-137,+8,-110
86044,20.389,-1.957,2.494,-2.838149,-0.134810,2.722406,99917.88,-133,+5,-110
86054,23.179,0.610,2.319,-3.271819,-0.243361,2.536168,99917.88,-130,+3,-108
86065,24.316,1.395,2.903,-3.204773,-0.458333,2.475507,99917.14,-128,+5,-114
86075,22.456,-2.034,3.551,-2.294333,-0.759507,2.825635,99918.50,-128,+5,-114
86084,19.530,-5.812,4.626,-1.227453,-0.938296,3.139580,99918.34,-122,+0,-115
86094,16.346,-6.641,5.136,-0.630426,-0.964369,2.961323,99914.94,-117,-9,-114
86105,13.848,-4.800,6.284,-0.337233,-0.868057,2.753801,99914.94,-115,-13,-119
86115,13.004,-2.898,7.183,0.055464,-0.748865,2.636204,99917.55,-115,-13,-119
86124,11.419,-0.343,6.982,0.523720,-0.623287,2.372810,99915.56,-109,-21,-118
86134,8.411,1.709,4.243,0.695592,-0.490260,1.813030,99916.72,-105,-30,-115
86145,2.566,0.197,1.183,0.504564,-0.526975,1.239416,99918.66,-105,-33,-121
86155,-0.112,-9.982,1.727,0.248087,-0.290186,1.345306,99918.66,-105,-33,-121
86165,5.250,-6.674,1.196,-0.621380,-0.131618,0.737105,99916.80,-102,-36,-119
86174,6.219,-0.592,2.101,-1.054517,-0.007104,-0.065849,99917.16,-101,-36,-118
86184,3.883,2.908,1.609,-0.790059,0.006731,-0.551665,99914.59,-103,-33,-124
86195,2.585,3.325,1.269,-0.350536,0.068456,-0.857628,99916.06,-103,-33,-124
86205,3.003,2.260,0.958,0.201794,0.167428,-1.197646,99916.06,-103,-32,-121
86214,3.060,1.218,0.899,0.703041,0.233410,-1.480197,99915.39,-106,-31,-119
86224,3.112,0.622,0.840,1.075518,0.272254,-1.764876,99914.41,-110,-27,-123
86231,3.386,0.192,1.020,1.228233,0.288749,-1.980912,99913.67,-110,-27,-123
86240,3.883,-0.312,1.096,1.334655,0.301520,-2.216637,99913.67,-111,-27,-119
86250,4.695,-0.751,0.989,1.442674,0.326529,-2.550802,99913.09,-115,-27,-119
86260,5.373,-0.962,0.431,1.498545,0.348345,-2.848783,99913.09,-115,-25,-116
86269,5.823,-1.281,-0.228,1.531536,0.370162,-3.108985,99911.08,-119,-19,-119
86280,6.200,-1.753,-0.806,1.557609,0.385593,-3.337792,99910.45,-122,-15,-116
86290,6.723,-2.285,-1.063,1.553352,0.396767,-3.554893,99912.39,-125,-8,-113
86300,7.275,-2.958,-0.803,1.490031,0.398364,-3.760287,99912.39,-125,-8,-113
86309,7.515,-3.781,-0.293,1.389995,0.385593,-3.971003,99912.39,-129,+0,-118
86320,7.625,-4.495,0.194,1.263353,0.393043,-4.191296,99910.93,-130,+8,-115
86330,7.931,-4.898,0.479,1.039867,0.420180,-4.405736,99911.66,-132,+19,-114
86340,8.341,-4.835,0.926,0.757316,0.480841,-4.583993,99911.62,-132,+19,-114
86349,8.998,-4.399,1.361,0.484344,0.550015,-4.716488,99912.13,-133,+32,-119
86360,9.897,-4.267,1.316,0.278950,0.600033,-4.820782,99912.13,-132,+44,-116
86370,10.851,-4.741,1.044,0.162950,0.641538,-4.896873,99912.88,-131,+58,-116
86380,11.483,-5.487,0.836,0.140601,0.686767,-4.942635,99912.25,-131,+58,-116
86390,11.871,-6.147,0.686,0.169867,0.729868,-4.961258,99911.33,-129,+72,-120
86400,12.346,-6.244,0.792,0.233188,0.759666,-4.974561,99911.33,-126,+83,-118
86410,12.755,-5.933,1.053,0.363555,0.764987,-4.977222,99915.82,-123,+95,-118
86420,13.039,-5.644,1.298,0.579060,0.740510,-4.951681,99909.76,-123,+95,-118
86429,13.261,-5.514,1.510,0.824894,0.698474,-4.897937,99909.76,-119,+108,-122
86439,13.419,-5.662,1.682,1.040399,0.649520,-4.819185,99912.26,-114,+116,-119
86450,13.458,-6.017,1.808,1.184600,0.612272,-4.726066,99910.90,-110,+126,-121
86460,13.512,-6.462,2.021,1.268142,0.589923,-4.612195,99910.90,-110,+126,-121
86465,13.492,-6.749,2.241,1.288894,0.576088,-4.511626,99914.11,-103,+135,-126
86474,13.459,-7.139,2.316,1.272931,0.563850,-4.393497,99913.17,-103,+135,-126
86484,13.353,-7.638,2.513,1.196839,0.561721,-4.218966,99911.28,-96,+142,-123
86495,13.192,-8.148,2.907,1.068068,0.583538,-4.022617,99914.27,-90,+149,-126
86505,12.880,-8.901,3.182,0.903114,0.620786,-3.781571,99914.27,-82,+155,-130
86515,12.174,-9.821,3.181,0.698252,0.696345,-3.495296,99916.40,-76,+155,-127
86524,11.240,-10.989,2.896,0.430069,0.813409,-3.181884,99916.29,-76,+157,-127
86535,10.477,-12.252,2.393,0.050675,0.952822,-2.839737,99913.84,-72,+163,-127
86545,9.576,-13.491,1.880,-0.455362,1.082657,-2.471517,99916.51,-69,+168,-129
86555,8.308,-14.154,1.344,-1.018334,1.157152,-2.055408,99916.51,-65,+170,-123
86564,7.547,-13.844,0.778,-1.499893,1.135868,-1.579169,99920.22,-65,+170,-123
86575,7.507,-12.651,0.520,-1.748921,0.992198,-1.039610,99920.28,-65,+177,-121
86585,7.639,-11.109,0.267,-1.623343,0.716033,-0.439390,99919.08,-64,+181,-120
86595,7.388,-10.813,-0.052,-1.108261,0.374419,0.236389,99916.03,-62,+181,-116
86604,6.806,-11.681,-0.681,-0.402151,0.057281,0.925471,99916.03,-62,+181,-116
86615,6.218,-12.621,-1.741,0.278950,-0.200792,1.518242,99920.00,-64,+180,-119
86625,6.768,-11.906,-0.941,0.834472,-0.423746,1.972663,99918.48,-65,+175,-126
86635,7.186,-9.639,9.844,1.309114,-0.324773,2.203067,99918.27,-65,+167,-125
86645,13.488,2.223,19.907,1.020179,0.263740,1.880608,99914.88,-65,+167,-125
86654,33.596,20.630,-3.602,-1.269490,-0.482278,1.154811,99914.88,-67,+166,-129
86665,31.155,-1.967,-11.382,-0.124390,-1.215525,2.576076,99922.89,-66,+165,-134
86675,23.565,-19.827,1.557,2.650563,-0.896791,4.006919,99918.39,-69,+150,-134
86685,13.979,-17.874,-0.401,1.425114,-0.566351,3.643488,99917.66,-69,+150,-134
86694,4.498,-3.741,0.167,-0.310096,-0.285397,3.126810,99919.59,-75,+144,-136
86701,0.170,1.657,3.625,-0.397894,-0.319984,3.075195,99919.59,-77,+138,-139
86710,0.106,-0.620,5.845,0.455078,-0.349783,2.934718,99919.59,-77,+138,-139
86720,6.461,-8.401,3.956,1.291022,-0.465250,2.799562,99919.84,-78,+129,-136
86730,12.494,-11.796,1.008,0.970160,-0.675434,2.750076,99920.52,-80,+123,-141
86740,12.907,-9.080,1.357,0.169335,-0.459397,2.428682,99920.21,-81,+123,-144
86750,10.614,-6.050,1.660,-0.407472,-0.289654,2.150388,99916.42,-81,+118,-144
86760,8.544,-5.150,1.083,-0.490481,-0.276884,1.977985,99918.25,-81,+116,-140
86770,8.198,-3.804,1.129,-0.352665,-0.255599,1.748113,99917.05,-84,+114,-143
86779,8.696,-3.156,1.099,-0.203142,-0.225269,1.577306,99917.05,-84,+111,-145
86790,9.449,-3.549,1.118,-0.025949,-0.176847,1.503343,99919.98,-84,+111,-145
86800,9.939,-3.992,1.276,0.094308,-0.073618,1.442150,99919.36,-84,+108,-140
86810,9.661,-3.774,1.679,0.067702,0.009392,1.367123,99919.36,-87,+106,-143
86820,8.746,-3.781,2.087,-0.064084,0.037593,1.256089,99920.02,-88,+103,-145
86830,8.500,-3.987,2.165,-0.219637,0.036529,1.146829,99920.02,-88,+103,-145
86840,9.006,-3.702,1.938,-0.440995,0.053557,1.022315,99916.92,-88,+101,-140
86850,9.503,-3.192,2.046,-0.577215,0.111557,0.907912,99916.81,-89,+102,-143
86860,9.599,-2.862,2.238,-0.590518,0.153061,0.869600,99916.81,-90,+102,-142
86871,9.420,-2.656,2.366,-0.499527,0.174878,0.854701,99917.71,-90,+102,-142
86880,9.126,-2.638,2.342,-0.404811,0.177538,0.856829,99918.87,-90,+101,-138
86890,8.876,-2.815,2.538,-0.332977,0.175942,0.858426,99916.62,-93,+100,-140
86900,8.955,-3.087,2.773,-0.318077,0.152529,0.859490,99916.62,-92,+98,-140
86909,9.189,-2.858,2.939,-0.375013,0.122731,0.853105,99916.62,-92,+98,-140
86920,9.322,-2.745,2.858,-0.469729,0.100382,0.867471,99921.16,-93,+98,-137
86930,9.333,-2.581,2.519,-0.495270,0.092401,0.899930,99916.86,-95,+98,-140
86940,9.378,-2.498,2.272,-0.469729,0.088676,0.947288,99917.81,-96,+96,-139
86950,9.295,-2.650,2.229,-0.427160,0.086015,1.016462,99917.59,-96,+96,-139
86960,9.165,-3.014,2.298,-0.392041,0.086547,1.089893,99917.59,-96,+95,-135
86970,8.971,-3.411,2.446,-0.400022,0.077502,1.152682,99920.91,-97,+95,-139
86980,8.813,-3.672,2.757,-0.451105,0.063135,1.195251,99918.23,-97,+93,-138
86990,8.782,-3.590,2.998,-0.503784,0.038125,1.235159,99918.97,-97,+93,-138
87000,8.836,-3.245,3.157,-0.520279,0.007263,1.293159,99918.97,-98,+91,-134
87010,8.792,-3.264,3.240,-0.486224,-0.031049,1.364462,99918.30,-101,+89,-138
87020,8.825,-3.630,3.106,-0.425564,-0.080003,1.440554,99918.30,-100,+88,-137
87030,8.921,-4.118,3.052,-0.372885,-0.100755,1.502278,99919.30,-100,+88,-137
87040,8.982,-4.820,2.630,-0.363307,-0.112462,1.543783,99918.66,-101,+85,-134
87050,9.043,-5.425,2.328,-0.401619,-0.106076,1.561875,99917.73,-103,+83,-138
87060,9.319,-5.685,2.305,-0.513894,-0.082663,1.549636,99917.73,-101,+81,-138
87070,9.664,-5.766,2.396,-0.652242,-0.048608,1.541655,99916.15,-101,+81,-138
87080,10.002,-5.613,2.244,-0.773031,-0.011893,1.545911,99919.71,-103,+79,-134
87091,10.416,-5.515,1.843,-0.867215,0.000878,1.576774,99917.40,-105,+77,-139
87100,11.067,-5.582,1.266,-0.952352,-0.033177,1.632645,99914.05,-104,+75,-136
87110,11.818,-5.373,1.177,-1.009820,-0.091177,1.707673,99916.97,-104,+75,-136
87120,12.645,-5.509,1.358,-1.005563,-0.162480,1.808774,99921.22,-105,+73,-134
87130,13.401,-5.718,1.494,-1.023655,-0.225269,1.912535,99921.22,-107,+71,-138
87140,13.926,-5.783,1.680,-1.096554,-0.284865,2.016829,99917.97,-105,+69,-135
87150,14.491,-5.493,1.796,-1.169453,-0.358828,2.123783,99918.59,-105,+69,-135
87160,14.794,-5.008,1.804,-1.248205,-0.414168,2.225415,99918.59,-106,+66,-132
87171,15.028,-4.261,1.861,-1.340438,-0.461526,2.361813,99917.88,-106,+63,-136
87180,15.272,-4.070,1.928,-1.405710,-0.502498,2.485085,99917.88,-104,+60,-133
87190,16.123,-3.537,2.237,-1.542462,-0.526443,2.593103,99917.06,-104,+60,-133
87200,17.342,-2.864,2.847,-1.737746,-0.558370,2.679837,99919.47,-104,+57,-129
87211,19.118,-1.859,3.543,-1.992095,-0.627544,2.719746,99919.47,-103,+54,-134
87221,21.485,0.018,4.230,-2.277838,-0.732902,2.647911,99918.37,-100,+52,-131
87230,22.889,2.454,4.215,-2.440131,-0.862204,2.495727,99915.65,-97,+52,-131
87240,21.862,2.551,3.960,-2.096388,-1.063342,2.429746,99914.65,-97,+51,-129
87250,19.065,-2.268,3.391,-1.097086,-1.330461,2.762314,99914.65,-94,+50,-134
87260,16.907,-6.411,3.963,-0.205802,-1.465617,3.006021,99914.65,-89,+43,-132
87270,15.693,-7.205,5.027,0.314601,-1.456571,2.912369,99916.96,-85,+34,-131
87280,14.978,-5.795,5.423,0.440179,-1.404956,2.799030,99916.49,-85,+34,-131
87290,14.376,-3.693,5.690,0.527445,-1.350681,2.681434,99916.65,-81,+29,-136
87300,12.725,-1.563,6.630,0.848307,-1.178810,2.408993,99916.54,-74,+19,-132
87310,10.658,1.768,3.747,0.751995,-1.088351,1.817819,99916.54,-71,+13,-132
87320,2.839,-0.564,1.630,0.294913,-0.986186,1.310187,99918.79,-71,+13,-132
87330,2.885,-8.746,1.900,0.132087,-0.813782,1.431508,99916.46,-67,+11,-136
87341,7.653,-4.875,2.779,-0.181857,-0.573801,0.642389,99919.10,-63,+9,-132
87350,7.153,0.310,3.766,-0.351600,-0.387030,-0.053078,99919.10,-60,+9,-131
87360,4.525,2.994,3.161,-0.256885,-0.354039,-0.506436,99917.54,-60,+9,-131
87370,3.209,2.985,2.672,-0.019032,-0.299764,-0.835812,99917.54,-59,+11,-135
87380,3.140,2.046,1.885,0.364087,-0.231654,-1.169445,99916.45,-56,+11,-130
87390,3.510,0.857,1.656,0.667922,-0.133214,-1.466362,99920.16,-55,+11,-129
87400,3.770,0.125,1.466,0.806270,-0.048076,-1.792545,99915.29,-55,+11,-129
87405,3.862,-0.340,1.317,0.800417,0.020566,-2.051151,99915.29,-54,+15,-131
87415,4.197,-0.519,1.135,0.736032,0.092401,-2.307095,99913.34,-54,+15,-131
87426,4.810,-0.550,0.789,0.642913,0.195630,-2.647645,99909.78,-52,+16,-127
87435,5.428,-0.560,0.374,0.564693,0.289813,-2.940306,99907.80,-52,+19,-126
87445,5.983,-0.659,-0.232,0.547665,0.349942,-3.172838,99907.80,-50,+23,-129
87455,6.380,-1.020,-0.608,0.611518,0.403685,-3.385682,99907.80,-50,+23,-129
87465,6.768,-1.491,-0.437,0.729114,0.449978,-3.578305,99910.33,-48,+27,-124
87475,7.298,-1.696,-0.081,0.833940,0.478712,-3.772526,99912.84,-46,+30,-124
87485,8.089,-1.795,0.325,0.935573,0.481905,-3.971003,99909.13,-46,+32,-126
87495,8.816,-2.131,0.502,1.054234,0.465942,-4.156709,99910.55,-42,+32,-126
87505,9.438,-2.911,0.610,1.173426,0.445722,-4.325920,99910.55,-42,+32,-121
87516,10.008,-3.642,0.743,1.245793,0.431355,-4.487681,99911.14,-42,+32,-121
87526,10.461,-4.481,0.976,1.264772,0.437385,-4.632592,99912.44,-44,+33,-123
87535,10.823,-5.011,1.154,1.185133,0.463813,-4.740433,99913.64,-44,+32,-117
87545,11.249,-5.493,1.402,0.976546,0.504786,-4.858029,99911.97,-44,+32,-117
87556,11.586,-6.087,1.661,0.720601,0.552676,-4.975093,99911.97,-48,+35,-117
87565,11.792,-6.597,1.899,0.502968,0.616529,-5.084708,99915.73,-52,+39,-118
87575,12.113,-6.917,1.876,0.345463,0.693685,-5.169313,99913.89,-53,+45,-111
87585,12.655,-6.860,1.767,0.265115,0.774033,-5.225717,99912.17,-53,+45,-111
87596,13.216,-6.803,1.674,0.300766,0.844804,-5.241148,99914.42,-56,+52,-110
87605,13.529,-6.962,1.669,0.469977,0.895886,-5.211350,99914.42,-58,+60,-111
87615,13.692,-7.149,1.584,0.704105,0.918235,-5.139515,99915.97,-55,+65,-105
87625,13.883,-7.394,1.628,0.925463,0.912914,-5.050653,99912.52,-55,+65,-105
87635,14.248,-7.818,1.583,1.073922,0.885244,-4.928800,99914.56,-54,+70,-105
87646,14.726,-8.466,1.503,1.128729,0.850125,-4.765974,99912.58,-52,+74,-105
87655,14.937,-9.284,1.587,1.098399,0.796914,-4.577608,99912.58,-49,+73,-100
87665,14.454,-10.416,1.852,1.003151,0.733061,-4.359442,99916.59,-49,+73,-100
87675,13.196,-11.664,2.132,0.909500,0.681978,-4.072103,99914.44,-51,+75,-100
87686,11.628,-12.637,2.377,0.891408,0.627703,-3.683663,99913.81,-51,+77,-102
87695,10.344,-13.829,2.255,0.991445,0.565446,-3.157939,99915.55,-51,+76,-97
87705,9.415,-15.351,1.792,1.105316,0.509043,-2.561976,99915.55,-51,+76,-97
87715,8.169,-17.416,0.880,0.983995,0.442529,-1.905885,99918.33,-52,+77,-97
87726,7.058,-18.611,0.342,0.595555,0.377611,-1.152949,99918.69,-53,+76,-100
87736,6.364,-18.157,0.185,0.154968,0.297263,-0.401610,99916.39,-54,+74,-94
87745,5.628,-16.796,0.280,-0.071711,0.162639,0.338554,99915.66,-54,+74,-94
87755,5.272,-15.155,0.449,0.004913,-0.003911,1.006352,99915.66,-56,+73,-96
87766,5.817,-12.489,1.472,0.302895,-0.173122,1.506535,99916.98,-56,+69,-97
87776,7.121,-10.763,4.585,0.703041,-0.269434,1.856663,99918.70,-56,+63,-93
87785,10.277,-5.831,14.956,1.011133,-0.034241,1.946058,99914.63,-56,+63,-93
87795,27.237,5.575,-0.833,-0.205270,-0.481746,1.639563,99916.50,-58,+58,-96
87805,39.387,-3.204,-11.017,-0.584664,-1.136773,2.676645,99916.50,-56,+56,-97
87816,26.948,-15.771,3.650,1.847077,-0.408847,4.222956,99919.56,-57,+44,-93
87825,14.557,-15.483,3.517,1.738527,-0.263581,4.226149,99919.81,-57,+44,-93
87835,2.945,-5.165,-0.059,0.169867,-0.120443,3.803653,99920.70,-58,+35,-96
87845,-4.272,3.599,3.199,-0.342022,-0.063508,3.347635,99916.31,-57,+30,-96
87856,-2.394,-0.245,6.130,0.433794,-0.178975,2.846388,99916.31,-58,+24,-93
87866,6.805,-12.129,3.419,1.060087,-0.326370,2.806479,99919.56,-58,+24,-93
87875,16.543,-15.661,-0.325,0.684949,-0.550920,2.901195,99920.09,-57,+17,-95
87885,16.041,-10.249,0.652,-0.057876,-0.191214,2.310553,99918.05,-55,+13,-95
87896,11.666,-5.322,1.176,-0.460683,0.113153,1.975324,99919.41,-55,+10,-92
87906,8.720,-3.780,1.543,-0.390977,0.104107,2.024278,99919.41,-55,+10,-92
87915,6.918,-3.116,1.573,-0.110023,0.053025,1.892315,99919.04,-55,+8,-95
87925,6.808,-3.943,1.071,0.121445,-0.002315,1.693306,99917.20,-54,+6,-95
87936,8.149,-4.907,1.133,0.261390,-0.017746,1.526223,99919.82,-53,+2,-91
87946,10.060,-4.750,1.433,0.167739,0.017373,1.351159,99918.40,-53,+2,-91
87955,10.669,-4.118,1.560,-0.045637,0.088676,1.268150,99918.40,-54,+0,-93
87965,9.718,-3.142,2.421,-0.060536,0.147208,1.201636,99918.76,-53,-1,-93
87975,8.696,-2.886,2.445,-0.019564,0.128584,1.113838,99918.55,-52,-3,-90
87986,8.375,-3.227,2.155,0.063445,0.109428,1.002627,99920.23,-53,-4,-93
87996,9.001,-3.428,2.019,0.115592,0.092401,0.900462,99917.04,-53,-4,-93
88005,9.625,-3.440,2.044,0.113996,0.084419,0.841398,99917.04,-52,-6,-93
88015,9.581,-3.249,2.209,0.128895,0.086015,0.803618,99923.34,-51,-7,-90
88026,9.143,-3.115,2.051,0.172528,0.076969,0.792444,99918.63,-51,-9,-93
88036,8.737,-3.264,1.753,0.224674,0.068456,0.792976,99919.30,-51,-9,-93
88045,8.697,-3.478,1.515,0.229463,0.063135,0.800958,99916.70,-51,-9,-92
88055,9.006,-3.225,1.547,0.171996,0.081226,0.807343,99916.70,-50,-13,-89
88066,9.320,-2.837,1.395,0.083133,0.100914,0.820646,99920.11,-49,-13,-92
88076,9.475,-2.497,1.223,0.051739,0.121667,0.851508,99915.83,-49,-13,-92
88085,9.310,-2.747,1.323,0.066638,0.146144,0.899930,99916.66,-49,-14,-91
88095,9.189,-2.986,1.555,0.100161,0.161043,0.937178,99916.66,-49,-16,-87
88105,8.914,-3.438,1.632,0.082601,0.184456,0.983471,99916.66,-49,-17,-92
88116,8.763,-3.838,1.757,0.004913,0.209465,1.028169,99918.63,-49,-17,-92
88125,8.728,-4.026,1.898,-0.112151,0.229153,1.055306,99918.37,-48,-19,-89
88135,8.815,-3.896,2.056,-0.234536,0.250437,1.085636,99916.96,-48,-21,-87
88145,8.919,-3.680,2.414,-0.330848,0.261079,1.130866,99915.65,-48,-22,-91
88156,9.129,-3.371,2.654,-0.385655,0.251501,1.182480,99915.65,-48,-22,-91
88166,9.303,-3.154,2.758,-0.390444,0.236070,1.242077,99920.71,-46,-22,-87
88175,9.352,-3.532,2.731,-0.360646,0.216382,1.313912,99918.73,-47,-25,-87
88185,9.307,-4.228,2.717,-0.334573,0.200419,1.370847,99916.63,-46,-26,-90
88196,9.195,-4.846,2.774,-0.366499,0.200419,1.397985,99916.12,-46,-26,-90
88206,9.182,-5.329,2.972,-0.464408,0.228089,1.409691,99916.12,-45,-27,-87
88215,9.041,-5.630,3.126,-0.589453,0.267997,1.411820,99918.45,-44,-29,-86
88225,9.080,-5.546,3.489,-0.745894,0.325465,1.412884,99916.94,-44,-29,-90
88231,9.443,-5.403,3.537,-0.862958,0.355795,1.420334,99919.77,-44,-29,-90
88241,9.776,-5.521,3.602,-0.959270,0.368566,1.444278,99919.77,-42,-29,-88
88251,10.360,-5.676,3.650,-1.083251,0.376015,1.480994,99918.72,-42,-31,-88
88261,10.894,-5.784,3.642,-1.207765,0.382933,1.523031,99918.72,-42,-31,-88
88270,11.291,-5.895,3.084,-1.288114,0.392511,1.589012,99918.52,-42,-29,-92
88281,11.899,-5.948,1.542,-1.340792,0.368033,1.674150,99917.42,-42,-29,-90
88291,12.660,-5.700,0.701,-1.372187,0.331318,1.772590,99919.05,-40,-29,-90
88301,13.695,-5.421,0.344,-1.338664,0.237667,1.904553,99919.05,-40,-29,-90
88310,14.483,-5.108,0.739,-1.274811,0.119006,2.064186,99919.05,-40,-29,-95
88321,15.039,-5.172,1.309,-1.221600,0.025887,2.229140,99918.38,-37,-30,-93
88331,15.523,-5.500,1.577,-1.268958,-0.015618,2.388773,99917.59,-37,-31,-94
88341,16.302,-5.547,2.006,-1.459985,-0.032645,2.525526,99916.80,-37,-31,-94
88350,17.709,-5.033,2.541,-1.728701,-0.076810,2.617580,99915.28,-36,-30,-99
88360,19.993,-3.808,3.403,-2.020297,-0.178975,2.655360,99915.28,-33,-30,-99
88371,22.554,-1.750,4.489,-2.273049,-0.317324,2.675581,99918.27,-32,-29,-102
88381,23.566,-0.123,4.752,-2.462480,-0.411507,2.677177,99917.02,-32,-29,-102
88391,22.390,0.527,4.051,-2.562516,-0.451948,2.621837,99917.06,-30,-26,-108
88400,19.456,-1.677,3.189,-2.298590,-0.512608,2.617048,99917.06,-28,-25,-108
88411,17.786,-4.927,3.417,-1.690921,-0.638186,2.810736,99917.21,-26,-25,-110
88421,17.107,-4.553,4.740,-1.072077,-0.762700,2.821911,99919.68,-26,-25,-110
88430,15.214,-3.134,5.466,-0.324995,-0.781324,2.746351,99919.68,-25,-25,-115
88440,13.568,-3.662,6.371,0.191684,-0.685544,2.736241,99914.49,-22,-28,-111
88451,12.998,-1.589,6.448,0.583316,-0.596149,2.498920,99917.74,-20,-32,-113
88461,11.776,2.859,5.117,0.726986,-0.507819,1.901893,99917.74,-20,-32,-113
88466,9.134,3.640,2.181,0.598216,-0.496645,1.351159,99919.64,-20,-33,-115
88475,3.268,-2.095,2.578,0.173592,-0.272627,1.192058,99918.33,-21,-34,-110
88485,3.235,-3.702,1.786,-0.417582,-0.236975,1.190994,99913.77,-21,-34,-110
88496,9.195,1.304,2.673,-0.575087,-0.116186,0.463068,99914.61,-22,-35,-113
88506,7.422,3.711,2.773,-0.032335,-0.032645,-0.157904,99914.61,-23,-32,-116
88516,5.163,3.991,2.660,0.483812,0.034933,-0.537298,99917.39,-27,-33,-111
88525,4.925,2.772,2.016,0.803078,0.095061,-0.851243,99914.78,-27,-33,-111
88536,4.943,1.360,1.758,1.041463,0.150401,-1.197114,99913.27,-30,-32,-112
88546,4.855,0.766,2.069,1.150013,0.182859,-1.524362,99912.11,-33,-32,-113
88556,4.796,0.316,2.022,1.156931,0.200419,-1.871830,99912.11,-38,-32,-108
88565,5.141,-0.364,1.747,1.096802,0.247245,-2.229939,99910.96,-38,-32,-108
88576,5.806,-1.123,1.388,0.962179,0.280235,-2.556655,99909.18,-44,-31,-109
88586,6.404,-1.518,0.693,0.816913,0.302052,-2.849847,99907.13,-49,-26,-110
88596,7.080,-1.385,-0.156,0.671115,0.322272,-3.146232,99907.87,-55,-23,-106
88605,7.990,-1.178,-1.021,0.510417,0.311630,-3.414416,99907.87,-55,-23,-106
88615,8.780,-1.258,-1.563,0.421555,0.300988,-3.652269,99908.92,-62,-17,-107
88626,9.261,-1.587,-1.641,0.422619,0.288749,-3.852342,99910.39,-66,-8,-110
88636,9.463,-2.186,-1.427,0.491261,0.272254,-4.026342,99909.61,-72,+0,-105
88646,9.557,-2.597,-1.015,0.598216,0.256290,-4.196617,99913.58,-72,+0,-105
88655,9.584,-2.730,-0.432,0.696124,0.233942,-4.364764,99913.58,-76,+7,-108
88666,9.797,-2.813,0.254,0.814252,0.203079,-4.513222,99912.34,-77,+17,-111
88676,10.220,-3.115,0.878,0.952069,0.182327,-4.651571,99913.54,-81,+27,-107
88686,10.822,-3.579,1.215,1.043059,0.168492,-4.780873,99911.29,-81,+27,-107
88695,11.488,-4.042,1.199,1.093610,0.158914,-4.904323,99910.82,-81,+32,-112
88701,11.880,-4.371,1.195,1.136711,0.162107,-4.991589,99910.82,-79,+40,-116
88711,12.249,-4.880,1.158,1.185133,0.171685,-5.055442,99910.82,-79,+40,-116
88721,12.721,-5.710,1.026,1.191518,0.174346,-5.121956,99913.53,-82,+49,-114
88731,13.255,-6.645,0.934,1.048380,0.188180,-5.188469,99914.27,-83,+53,-120
88741,13.541,-7.031,1.328,0.800949,0.237134,-5.252855,99913.11,-83,+61,-124
88751,13.324,-7.179,2.004,0.594491,0.314823,-5.285314,99912.73,-83,+61,-124
88761,13.128,-7.374,2.569,0.518931,0.403153,-5.286910,99914.47,-86,+72,-123
88771,13.204,-7.723,2.766,0.535427,0.480841,-5.252855,99914.67,-88,+80,-128
88780,13.371,-8.551,2.966,0.637060,0.547887,-5.138451,99914.67,-85,+90,-131
88791,13.507,-9.849,3.126,0.775408,0.583538,-4.944231,99912.42,-85,+90,-131
88801,13.699,-11.121,3.294,0.892472,0.584602,-4.705314,99913.11,-85,+102,-128
88811,13.944,-12.317,3.019,0.905775,0.585134,-4.436066,99913.11,-83,+105,-132
88821,13.856,-13.790,2.518,0.796692,0.589391,-4.089131,99915.55,-81,+111,-133
88830,12.734,-15.427,2.213,0.663665,0.585134,-3.636838,99918.32,-81,+111,-133
88841,10.438,-17.336,2.290,0.550858,0.578749,-3.085572,99917.85,-80,+120,-130
88851,8.012,-19.117,2.332,0.420491,0.572896,-2.423627,99917.74,-82,+120,-134
88861,6.337,-20.110,2.055,0.229463,0.571299,-1.689316,99918.25,-81,+121,-133
88871,5.496,-19.814,1.461,-0.049894,0.537776,-0.935316,99918.98,-81,+121,-133
88881,5.235,-19.186,0.727,-0.294133,0.420712,-0.195684,99917.94,-82,+127,-130
88891,4.724,-18.762,0.497,-0.404811,0.227557,0.499784,99918.36,-85,+122,-132
88901,4.984,-16.874,1.680,-0.340958,0.030144,1.073398,99918.36,-87,+121,-132
88910,6.243,-14.960,4.964,-0.182389,-0.050737,1.515581,99918.36,-87,+121,-132
88921,10.431,-7.436,13.299,-0.030206,0.082823,1.682132,99919.22,-89,+121,-131
88931,27.301,5.051,-1.980,-1.031105,-0.430663,1.504939,99916.28,-93,+114,-134
88936,43.089,5.337,-17.712,-1.865453,-1.325672,1.979049,99919.38,-93,+114,-134
88946,36.658,-9.216,-5.481,-0.133435,-0.769617,3.355617,99920.84,-91,+113,-135
88955,20.936,-16.122,6.116,1.830050,-0.089581,4.317671,99920.84,-97,+102,-134
88966,9.514,-9.809,1.779,1.107977,-0.263049,4.000534,99917.70,-101,+88,-138
88976,-2.684,0.438,1.115,0.017152,-0.160884,3.596663,99920.63,-101,+88,-138
88986,-4.725,2.779,4.602,0.159757,-0.201324,3.126810,99916.59,-101,+83,-137
88995,2.329,-5.509,7.128,0.963775,-0.316792,2.845323,99918.42,-103,+77,-137
89006,10.853,-14.457,3.816,1.231958,-0.480682,2.903323,99918.42,-105,+63,-141
89016,16.957,-13.734,0.034,0.584381,-0.608920,2.784663,99919.03,-105,+63,-141
89026,13.730,-8.214,0.576,-0.115344,-0.242296,2.245636,99919.23,-103,+60,-140
89036,10.241,-4.411,1.991,-0.461747,-0.067232,2.087067,99917.98,-105,+58,-139
89046,8.059,-3.310,1.923,-0.395233,-0.140131,2.091856,99918.83,-106,+50,-142
89056,7.038,-3.415,1.455,-0.085546,-0.166205,1.949783,99918.83,-106,+50,-142
89066,7.160,-3.778,0.925,0.218289,-0.173654,1.820480,99917.77,-103,+48,-141
89076,8.566,-4.387,1.133,0.393353,-0.145985,1.682664,99918.66,-106,+44,-140
89085,10.039,-4.995,1.328,0.404528,-0.083728,1.562939,99919.40,-105,+35,-142
89096,10.133,-4.915,1.591,0.301298,-0.007104,1.478866,99917.15,-105,+35,-142
89106,9.181,-4.385,1.704,0.173060,0.046107,1.381490,99917.15,-104,+35,-140
89116,8.381,-4.026,1.610,0.080473,0.070052,1.263361,99921.40,-106,+32,-140
89126,8.461,-4.119,1.394,0.002253,0.103043,1.145233,99920.55,-106,+26,-142
89136,8.995,-4.314,1.311,-0.105766,0.159446,1.051049,99917.57,-106,+26,-142
89146,9.473,-4.041,1.358,-0.282958,0.223300,0.982407,99920.71,-105,+29,-139
89156,9.704,-3.134,1.407,-0.457490,0.272254,0.939838,99920.71,-108,+27,-139
89166,9.418,-2.593,1.740,-0.489949,0.296199,0.922279,99921.22,-107,+23,-142
89171,9.192,-2.590,1.978,-0.415986,0.295134,0.923343,99916.63,-107,+23,-142
89181,9.070,-2.700,2.208,-0.291472,0.280768,0.927068,99916.63,-106,+25,-139
89191,8.876,-3.241,2.284,-0.168023,0.255758,0.938242,99917.45,-109,+24,-137
89201,8.731,-3.778,2.371,-0.156848,0.239795,0.947820,99915.98,-109,+24,-137
89211,8.764,-3.772,2.410,-0.260078,0.240859,0.946756,99915.98,-109,+17,-140
89222,9.046,-3.475,2.228,-0.408536,0.242456,0.957930,99916.43,-108,+21,-137
89231,9.292,-3.399,1.892,-0.492077,0.238731,0.987728,99916.74,-111,+19,-138
89241,9.453,-3.221,1.911,-0.487820,0.237667,1.031361,99915.38,-111,+19,-138
89251,9.474,-3.123,2.131,-0.452169,0.230749,1.094150,99915.38,-110,+14,-140
89261,9.225,-3.532,2.326,-0.388848,0.212657,1.165453,99915.38,-108,+17,-136
89271,8.841,-4.127,2.520,-0.355857,0.202015,1.227710,99917.76,-112,+14,-136
89281,8.555,-4.409,2.523,-0.393105,0.203612,1.272407,99917.71,-112,+14,-136
89291,8.604,-4.362,2.669,-0.469729,0.204144,1.314444,99920.16,-110,+9,-139
89300,8.713,-4.236,3.055,-0.514958,0.194034,1.364462,99916.98,-110,+11,-136
89311,8.744,-4.336,3.677,-0.491013,0.177538,1.424590,99916.98,-112,+7,-136
89321,8.743,-5.101,3.962,-0.463876,0.159979,1.470352,99919.66,-112,+7,-136
89331,9.001,-5.812,3.877,-0.509105,0.170621,1.486315,99917.48,-110,+2,-138
89341,9.518,-6.506,3.632,-0.680976,0.184988,1.478866,99916.41,-110,+4,-136
89351,10.162,-6.304,3.476,-0.921490,0.217979,1.472480,99916.41,-112,+2,-137
89361,10.699,-6.004,3.420,-1.147637,0.264804,1.490572,99919.01,-112,+2,-137
89371,11.667,-5.564,2.760,-1.284389,0.276511,1.554957,99919.01,-110,+0,-140
89381,12.775,-5.158,1.462,-1.293435,0.211593,1.665104,99919.73,-110,+1,-136
89391,13.358,-5.047,0.575,-1.233306,0.125924,1.818884,99916.76,-111,+0,-137
89401,13.707,-5.121,-0.300,-1.139655,0.031208,1.995012,99917.12,-111,+0,-137
89406,13.657,-5.344,-0.773,-1.060903,-0.047544,2.118462,99917.12,-109,-3,-139
89416,13.518,-5.681,-0.840,-0.981618,-0.134810,2.227544,99920.68,-108,-3,-137
89426,13.906,-5.753,-0.559,-0.923086,-0.252939,2.337691,99918.54,-108,-3,-137
89436,14.331,-5.466,0.625,-0.941710,-0.329562,2.424957,99917.74,-108,-8,-139
89446,14.629,-5.511,1.719,-0.994921,-0.382773,2.506902,99916.29,-104,-13,-142
89456,15.206,-5.157,2.629,-1.156150,-0.406718,2.555324,99916.29,-103,-13,-139
89466,16.301,-4.603,3.309,-1.386022,-0.427471,2.584058,99920.20,-103,-13,-139
89476,18.540,-3.624,3.521,-1.651545,-0.500902,2.592039,99919.98,-103,-16,-142
89486,21.761,-2.113,3.338,-1.964425,-0.639782,2.563837,99915.48,-96,-18,-145
89496,24.317,0.277,3.337,-2.238994,-0.820700,2.498388,99917.37,-96,-15,-143
89506,24.129,1.376,3.844,-2.136297,-1.003745,2.502113,99917.37,-96,-15,-143
89517,21.524,-1.741,4.304,-1.350370,-1.209140,2.827232,99917.30,-92,-19,-148
89526,19.076,-5.077,4.394,-0.567637,-1.307580,3.176828,99915.48,-85,-25,-149
89536,16.945,-4.294,4.895,-0.354793,-1.204351,3.063488,99915.74,-85,-30,-146
89546,15.407,-1.591,6.027,-0.269655,-1.028755,2.780938,99915.63,-85,-30,-146
89556,14.449,0.031,7.112,-0.029142,-0.901580,2.563837,99915.63,-83,-37,-147
89566,13.288,1.357,7.123,0.480619,-0.792498,2.270645,99919.28,-78,-45,-147
89576,11.258,1.992,5.616,0.779133,-0.611048,1.815159,99917.75,-81,-51,-140
89586,7.945,2.861,2.568,0.704637,-0.493984,1.211214,99916.88,-81,-51,-140
89596,1.096,-1.920,-0.288,0.319390,-0.556241,0.924407,99915.83,-81,-57,-140
89606,3.594,-12.609,2.822,0.279482,-0.238040,1.106389,99915.83,-81,-61,-138
89616,8.385,-6.407,3.582,-0.326591,-0.106076,0.285343,99915.56,-87,-60,-133
89626,9.283,1.261,3.462,-0.547949,-0.104480,-0.520271,99917.70,-87,-60,-133
89636,5.629,4.264,2.549,-0.113747,-0.092774,-1.053445,99918.17,-92,-58,-134
89641,4.027,3.623,1.803,0.267243,-0.065636,-1.232766,99915.03,-95,-55,-131
89651,3.595,2.586,1.269,0.703041,0.004070,-1.374839,99915.03,-95,-55,-131
89661,4.082,0.768,1.759,1.284105,0.125924,-1.578105,99915.03,-102,-52,-124
89671,5.007,-0.683,1.608,1.572508,0.127520,-1.831389,99915.48,-107,-52,-123
89681,5.666,-1.768,0.915,1.539518,0.097190,-2.151187,99913.48,-110,-46,-118
89692,5.965,-2.887,0.456,1.371371,0.116878,-2.493866,99913.17,-110,-46,-118
89701,6.145,-3.106,0.191,1.097335,0.169024,-2.837609,99913.17,-115,-38,-113
89711,6.511,-2.342,-0.107,0.798821,0.232878,-3.179755,99915.02,-120,-31,-113
89721,6.789,-1.618,-0.534,0.567885,0.280768,-3.476140,99915.02,-121,-21,-110
89732,7.131,-0.908,-1.061,0.388032,0.288749,-3.708140,99909.89,-121,-21,-110
89741,7.546,-0.493,-1.228,0.330032,0.298859,-3.931626,99911.09,-123,-9,-105
89751,7.920,-0.723,-1.180,0.370473,0.289813,-4.136488,99911.00,-124,-1,-106
89761,8.549,-1.143,-1.219,0.426344,0.241923,-4.321662,99911.00,-124,+9,-102
89772,9.077,-1.882,-0.880,0.507225,0.204676,-4.502048,99912.37,-124,+9,-102
89782,9.352,-2.986,-0.395,0.603004,0.175942,-4.655295,99911.68,-125,+19,-99
89791,9.603,-3.664,0.000,0.641316,0.154125,-4.806415,99914.15,-126,+26,-100
89801,10.010,-3.760,0.461,0.663133,0.169557,-4.974561,99910.80,-127,+37,-97
89811,10.677,-3.408,0.867,0.740289,0.192969,-5.148561,99913.62,-127,+37,-97
89822,11.628,-3.319,0.936,0.885023,0.187648,-5.284249,99914.73,-129,+49,-93
89831,12.596,-4.000,0.738,1.111169,0.151465,-5.366726,99911.16,-129,+60,-95
89841,13.510,-5.205,0.555,1.392123,0.098254,-5.399717,99911.16,-129,+74,-93
89851,14.054,-6.733,1.025,1.682123,0.028015,-5.393864,99910.80,-129,+74,-93
89862,14.339,-8.576,1.838,1.869958,-0.053930,-5.362469,99910.80,-126,+89,-92
89871,14.424,-9.507,2.032,1.723628,-0.110333,-5.317240,99916.05,-121,+100,-95
89877,14.318,-9.459,2.651,1.482582,-0.085856,-5.275735,99914.69,-121,+100,-95
89886,14.338,-9.124,3.059,1.204821,-0.033177,-5.224653,99915.25,-111,+114,-94
89896,14.265,-9.790,3.965,0.844582,0.062070,-5.091625,99914.05,-103,+126,-93
89906,13.680,-12.319,5.148,0.695059,0.168492,-4.833020,99914.05,-93,+134,-97
89916,12.844,-15.186,5.339,0.631738,0.271190,-4.450965,99917.44,-93,+134,-97
89926,11.794,-16.727,5.341,0.495518,0.427630,-4.073699,99916.81,-84,+140,-94
89936,10.476,-16.431,4.634,0.244895,0.609079,-3.684195,99915.81,-80,+144,-94
89947,9.705,-15.971,3.916,-0.059472,0.773501,-3.228177,99911.69,-75,+149,-94
89956,9.146,-17.085,2.906,-0.429821,0.827244,-2.687554,99911.69,-75,+149,-94
89966,8.123,-18.016,2.020,-0.801765,0.836822,-2.101169,99916.47,-73,+153,-90
89976,7.068,-17.683,1.897,-1.158811,0.839483,-1.461573,99917.77,-71,+157,-88
89987,5.512,-16.712,2.038,-1.402517,0.810749,-0.787922,99917.03,-71,+160,-87
89996,4.716,-14.786,1.932,-1.473820,0.727208,-0.183977,99919.77,-71,+160,-87
90006,4.098,-13.604,1.290,-1.190737,0.546822,0.357710,99919.77,-70,+163,-82
90016,3.552,-12.634,0.629,-0.627233,0.279171,0.863215,99919.54,-72,+163,-81
90027,4.147,-12.035,3.739,0.007574,0.107300,1.277196,99918.60,-73,+160,-83
90037,9.633,-2.925,9.985,0.499775,-0.037434,1.256444,99917.29,-73,+160,-83
90046,23.040,-0.450,1.172,0.423151,-0.759507,1.214939,99919.32,-73,+159,-82
90056,49.670,-14.080,-15.448,0.280014,-1.828516,3.117232,99919.32,-73,+155,-86
90066,30.392,-20.933,0.920,1.637426,-0.457801,4.129304,99922.04,-78,+143,-89
90077,12.979,-14.735,3.064,1.170766,0.154657,3.911671,99918.90,-78,+143,-89
90086,3.250,-2.423,1.190,-0.117472,-0.000186,3.984570,99919.38,-82,+136,-87
90096,-7.070,7.034,4.130,-0.055747,-0.097563,3.300809,99917.80,-87,+129,-89
90106,-3.979,1.444,8.011,0.959518,-0.266241,2.813397,99917.80,-87,+122,-92
90112,3.182,-10.314,7.664,1.691169,-0.307214,2.965580,99917.30,-87,+122,-92
90122,12.521,-16.253,2.004,1.674674,-0.637122,3.205030,99917.30,-89,+114,-92
90132,18.853,-16.740,-1.802,0.815316,-0.704168,3.047525,99919.59,-91,+107,-93
90141,13.684,-13.552,-0.390,-0.123857,-0.208773,2.441984,99917.81,-91,+107,-93
90151,10.226,-6.688,1.656,-0.632022,-0.021471,2.075893,99917.03,-91,+104,-95
90162,6.388,-1.137,1.748,-0.450041,0.037061,1.761948,99916.50,-93,+102,-92
90172,6.344,-0.010,1.302,0.070895,-0.035306,1.765141,99915.97,-96,+97,-93
90181,7.014,-2.889,0.868,0.635463,-0.075746,1.816223,99918.64,-96,+97,-93
90191,9.259,-5.564,0.671,0.676436,-0.012957,1.721508,99918.64,-95,+93,-95
90202,10.334,-6.924,0.854,0.234252,0.095593,1.568792,99916.61,-97,+89,-93
90211,9.921,-5.774,1.361,-0.256885,0.213722,1.366058,99916.61,-98,+87,-93
90221,8.801,-4.549,1.545,-0.543160,0.327061,1.151618,99919.30,-98,+87,-93
90232,8.611,-4.047,1.707,-0.621735,0.279881,0.986841,99918.04,-99,+86,-93
90242,9.206,-3.282,2.080,-0.580940,0.275446,0.896205,99918.04,-100,+86,-91
90252,9.471,-2.824,1.978,-0.464408,0.267465,0.861618,99916.21,-102,+84,-91
90261,9.483,-2.965,2.093,-0.263802,0.265336,0.860022,99916.21,-102,+84,-91
90271,9.153,-3.510,2.089,-0.164298,0.264804,0.850444,99917.48,-102,+82,-90
90281,8.844,-3.872,2.150,-0.231876,0.273850,0.815857,99915.66,-103,+81,-89
90292,8.859,-3.851,2.201,-0.397894,0.279703,0.783930,99917.20,-104,+79,-90
90302,9.132,-3.308,2.259,-0.518151,0.285024,0.768499,99917.20,-104,+79,-90
90311,9.316,-3.137,2.245,-0.557527,0.280768,0.779141,99917.20,-104,+80,-89
90321,9.389,-3.300,2.114,-0.544756,0.269593,0.819049,99920.43,-106,+79,-87
90332,9.281,-3.334,2.198,-0.520279,0.257355,0.868536,99918.16,-106,+78,-87
90342,9.048,-3.391,2.551,-0.504848,0.232345,0.926536,99917.23,-106,+78,-87
90351,8.955,-3.501,2.751,-0.462279,0.197758,0.984004,99915.87,-106,+77,-87
90361,8.842,-3.757,2.788,-0.408536,0.169557,1.034022,99915.87,-107,+75,-84
90372,8.776,-3.913,2.841,-0.387784,0.148272,1.084040,99918.02,-108,+73,-85
90382,8.768,-3.999,2.757,-0.408004,0.134969,1.136719,99917.62,-108,+73,-85
90392,8.780,-4.122,2.476,-0.430353,0.139758,1.194187,99917.16,-108,+71,-85
90401,8.907,-4.113,2.171,-0.462279,0.156254,1.264957,99917.16,-110,+70,-83
90412,9.030,-4.122,2.308,-0.498995,0.190309,1.343710,99917.92,-110,+67,-84
90422,9.293,-4.604,2.677,-0.531986,0.197226,1.430976,99916.83,-110,+67,-84
90431,9.566,-4.952,3.006,-0.589453,0.194034,1.493232,99916.83,-110,+65,-84
90441,9.578,-5.379,3.399,-0.667141,0.204676,1.541655,99917.45,-112,+63,-82
90451,9.642,-5.695,3.589,-0.773031,0.222235,1.580499,99917.34,-112,+60,-82
90462,9.947,-6.028,3.181,-0.920426,0.241923,1.603911,99917.34,-112,+60,-82
90467,10.518,-6.014,2.562,-1.047068,0.257887,1.628921,99920.54,-112,+59,-82
90476,11.224,-5.888,2.217,-1.180627,0.275979,1.668829,99918.24,-114,+57,-81
90486,12.459,-5.639,1.754,-1.326425,0.268529,1.756627,99920.34,-114,+57,-81
90497,13.154,-5.126,1.421,-1.381765,0.226492,1.896040,99917.82,-113,+54,-81
90507,12.978,-4.646,1.134,-1.345581,0.153593,2.071636,99917.82,-113,+53,-81
90517,12.386,-4.768,0.945,-1.290774,0.069520,2.236590,99920.55,-115,+49,-79
90526,12.018,-5.460,0.877,-1.278003,-0.003911,2.370149,99918.41,-115,+49,-79
90536,12.139,-6.057,0.817,-1.338132,-0.053397,2.455819,99920.09,-114,+45,-81
90547,12.725,-6.113,1.188,-1.479141,-0.076278,2.507966,99915.54,-113,+43,-81
90557,13.787,-5.819,1.804,-1.667508,-0.091177,2.543617,99915.54,-113,+38,-79
90566,15.622,-5.457,2.316,-1.899508,-0.122040,2.576608,99918.98,-113,+38,-79
90576,18.707,-3.895,3.034,-2.150664,-0.206645,2.586718,99914.91,-112,+36,-82
90587,21.482,-2.055,4.054,-2.331049,-0.323177,2.601617,99915.84,-110,+34,-82
90597,22.415,-0.470,3.923,-2.357654,-0.426406,2.626626,99914.02,-109,+31,-82
90606,21.625,-0.219,3.896,-2.264535,-0.581250,2.611195,99914.02,-109,+31,-82
90616,20.630,-2.341,3.675,-1.856407,-0.832406,2.721342,99918.65,-106,+29,-87
90627,19.644,-4.756,4.073,-1.242884,-1.022901,2.970369,99919.27,-103,+26,-89
90637,18.754,-5.779,5.059,-0.754408,-1.053764,3.072534,99915.87,-99,+20,-90
90647,17.473,-4.805,5.792,-0.591050,-1.052700,2.946956,99913.04,-99,+20,-90
90656,15.658,-3.985,6.922,-0.310096,-1.019709,2.849048,99913.04,-94,+16,-95
90667,14.739,-3.379,7.646,0.208179,-0.929250,2.796901,99916.19,-89,+11,-96
90677,13.313,-1.907,7.128,0.634931,-0.734498,2.497856,99915.98,-86,+3,-97
90687,10.604,0.318,5.116,0.884491,-0.536553,1.950315,99914.83,-86,+3,-97
90696,3.795,-1.739,2.402,0.787647,-0.453012,1.446939,99916.88,-81,+0,-101
90702,0.539,-10.537,2.644,0.433262,-0.297636,1.561875,99916.88,-78,-3,-101
90712,4.802,-11.053,1.384,-0.277637,-0.115654,1.241545,99916.88,-78,-3,-101
90722,8.017,-5.032,1.063,-1.313655,0.083355,0.381123,99919.83,-76,-4,-102
90732,6.222,0.812,1.116,-1.440297,0.119006,-0.348399,99916.06,-72,-2,-106
90741,3.886,3.778,0.313,-1.014077,0.109428,-0.782601,99919.89,-72,+0,-106
90752,3.526,3.346,-0.024,-0.223894,0.141355,-1.064087,99917.72,-72,+0,-106
90762,4.015,1.725,0.170,0.662601,0.170621,-1.325353,99916.47,-71,+0,-106
90772,4.094,0.824,0.428,1.420325,0.176474,-1.630252,99914.80,-69,+0,-108
90781,4.027,0.340,0.757,1.859848,0.170089,-1.948985,99914.80,-69,-1,-106
90791,4.163,-0.275,0.695,2.006710,0.154657,-2.291132,99914.89,-69,-1,-106
90802,4.531,-0.653,0.485,2.004050,0.177538,-2.647645,99910.55,-70,-4,-105
90812,4.920,-1.020,0.339,1.907205,0.220107,-2.981278,99910.55,-69,-4,-107
90822,5.402,-1.543,-0.116,1.691169,0.253098,-3.261700,99912.64,-71,-3,-105
90831,6.076,-2.008,-0.672,1.423518,0.274914,-3.520838,99909.81,-71,-3,-105
90842,6.684,-2.188,-1.102,1.184068,0.305777,-3.757094,99907.25,-73,-3,-103
90852,7.188,-2.109,-1.154,1.014857,0.334511,-3.967810,99906.16,-74,-1,-105
90862,7.561,-2.213,-1.134,0.915353,0.335043,-4.156177,99909.67,-76,+1,-103
90872,7.947,-2.619,-1.016,0.837133,0.324401,-4.332305,99907.59,-76,+1,-103
90882,8.338,-3.062,-0.640,0.729647,0.315887,-4.493534,99909.31,-80,+5,-103
90892,8.676,-3.445,-0.133,0.624821,0.324933,-4.652635,99908.73,-82,+9,-105
90902,9.062,-3.653,0.559,0.526381,0.357923,-4.817589,99908.73,-85,+15,-103
90911,9.547,-3.771,1.128,0.425280,0.401024,-4.975626,99908.73,-85,+15,-103
90921,10.202,-3.805,1.328,0.350784,0.452639,-5.110781,99914.27,-89,+21,-103
90932,10.802,-4.168,1.312,0.340142,0.512235,-5.192194,99913.70,-90,+27,-105
90942,11.445,-4.726,1.214,0.402399,0.570767,-5.239552,99910.29,-94,+36,-103
90952,12.117,-5.438,1.123,0.454546,0.616529,-5.273075,99913.01,-94,+36,-103
90961,12.656,-6.003,1.153,0.502968,0.653244,-5.312983,99913.01,-97,+43,-104
90972,13.164,-6.355,1.351,0.556179,0.675593,-5.350231,99913.01,-99,+51,-109
90982,13.715,-6.523,1.455,0.633335,0.681446,-5.367258,99914.41,-99,+61,-106
90992,14.199,-6.884,1.643,0.759445,0.678786,-5.346506,99911.01,-99,+61,-106
91001,14.298,-7.857,1.770,0.906839,0.676657,-5.270414,99911.01,-102,+69,-108
91012,14.109,-8.680,1.800,0.969096,0.667079,-5.149093,99911.01,-103,+78,-113
91022,14.124,-9.110,1.813,0.921206,0.649520,-5.002231,99916.19,-101,+87,-114
91032,14.415,-9.556,1.982,0.798821,0.630896,-4.811736,99916.23,-101,+87,-114
91041,14.690,-10.394,2.196,0.657812,0.625042,-4.547809,99915.34,-101,+94,-117
91052,14.470,-11.785,2.227,0.542876,0.612804,-4.225883,99917.02,-100,+100,-122
91062,13.469,-13.474,2.173,0.485408,0.592584,-3.834250,99917.02,-99,+106,-123
91072,11.721,-15.338,2.164,0.502968,0.578749,-3.360673,99916.47,-101,+111,-126
91082,9.791,-16.821,2.009,0.462528,0.563318,-2.759389,99916.00,-101,+111,-126
91091,8.465,-17.183,1.478,0.350784,0.526602,-2.031995,99916.83,-102,+113,-130
91102,7.572,-16.520,0.869,0.225207,0.445722,-1.249261,99915.73,-103,+115,-129
91112,7.268,-15.423,0.167,0.116656,0.282364,-0.472913,99918.45,-106,+114,-132
91122,7.003,-14.489,-0.408,0.088454,0.084419,0.245967,99920.27,-106,+114,-132
91131,6.424,-13.818,-0.396,0.170931,-0.109801,0.873325,99920.27,-109,+112,-136
91142,6.301,-11.737,1.487,0.359298,-0.225269,1.330407,99920.80,-111,+108,-137
91152,7.140,-9.529,3.332,0.573738,-0.306682,1.628921,99921.27,-113,+101,-142
91162,9.372,-2.713,11.734,0.781261,-0.203452,1.661911,99921.27,-113,+101,-142
91171,18.294,-2.638,5.293,0.505628,-0.394480,1.718315,99919.63,-117,+95,-146
91182,35.352,-9.966,-10.544,-0.254224,-1.448057,2.956534,99918.84,-116,+90,-149
91192,34.023,-19.867,0.045,0.676968,-0.739819,4.022350,99920.78,-120,+79,-152
91202,21.018,-13.621,4.784,0.952601,-0.035306,4.018626,99918.00,-120,+79,-152
91212,9.589,-0.722,3.136,0.040032,-0.040095,3.943066,99918.00,-122,+67,-153
91222,-5.265,8.561,3.965,-0.173344,-0.194939,3.787158,99920.70,-124,+60,-151
91232,-9.684,6.775,4.755,0.753059,-0.451416,3.270479,99917.05,-124,+48,-155
91242,0.547,-5.333,5.585,1.909334,-0.572737,3.044865,99913.55,-124,+48,-155
91252,10.627,-18.158,1.855,2.274361,-0.716406,3.203965,99913.55,-125,+35,-158
91261,19.537,-20.671,-2.053,1.170233,-0.856351,3.155543,99913.55,-122,+24,-158
91272,16.203,-13.295,0.077,-0.127050,-0.250278,2.307360,99922.02,-123,+18,-160
91282,10.362,-5.685,1.154,-0.834756,0.178070,1.874755,99923.02,-123,+18,-160
91292,7.509,-2.201,1.807,-0.918829,0.131245,1.987031,99918.67,-123,+17,-161
91301,5.690,-1.133,1.564,-0.519215,0.023226,1.881673,99919.14,-122,+15,-158
91312,6.576,-3.085,0.782,-0.123325,-0.032645,1.736939,99919.14,-122,+9,-161
91322,8.531,-4.872,0.992,0.077280,-0.031581,1.623067,99919.40,-122,+9,-161
91332,10.000,-5.235,1.405,0.066638,0.041318,1.449600,99917.57,-122,+6,-162
91342,10.140,-4.982,1.326,-0.033399,0.144547,1.309655,99918.77,-121,+4,-159
91352,9.383,-4.553,1.339,-0.135032,0.227557,1.201636,99918.77,-122,+0,-161
91362,8.896,-4.297,1.397,-0.247307,0.265336,1.087765,99923.13,-122,+0,-161
91372,8.828,-4.258,1.418,-0.370224,0.269593,0.986664,99923.13,-121,-1,-161
91382,9.105,-4.259,1.476,-0.492609,0.263208,0.905251,99920.62,-122,-1,-158
91392,9.649,-3.982,1.366,-0.601692,0.258951,0.839270,99918.73,-122,-2,-161
91402,9.700,-3.514,1.414,-0.680444,0.286089,0.790848,99917.95,-122,-2,-161
91412,9.497,-3.117,1.504,-0.697472,0.310034,0.781270,99917.95,-122,-2,-160
91422,9.399,-2.905,1.504,-0.623509,0.310034,0.780738,99920.56,-122,-1,-158
91432,9.190,-3.318,1.527,-0.510701,0.308437,0.791912,99917.27,-124,-2,-160
91442,9.019,-3.745,1.620,-0.426096,0.328125,0.791380,99919.52,-124,-2,-160
91452,8.985,-4.029,1.814,-0.452701,0.344621,0.783930,99916.38,-124,-2,-160
91462,9.023,-4.275,2.057,-0.534646,0.352602,0.764242,99918.85,-124,-1,-156
91472,9.062,-4.257,2.311,-0.622444,0.359520,0.745086,99920.68,-126,-3,-159
91482,9.064,-3.998,2.463,-0.683637,0.352070,0.748279,99920.68,-126,-3,-159
91492,9.012,-3.778,2.422,-0.691619,0.338235,0.758921,99917.18,-126,-3,-158
91502,8.980,-3.597,2.296,-0.672995,0.311098,0.781802,99916.29,-126,-1,-155
91512,9.254,-3.091,2.272,-0.650114,0.255758,0.852572,99916.29,-126,-3,-158
91522,9.487,-2.588,2.566,-0.521876,0.199355,0.966444,99917.34,-126,-3,-157
91532,9.323,-2.952,2.875,-0.345747,0.153061,1.092554,99917.96,-126,-3,-157
91542,9.003,-3.622,2.799,-0.229747,0.106768,1.214407,99917.12,-125,-4,-155
91552,8.792,-3.955,2.812,-0.186646,0.056217,1.295820,99913.20,-126,-9,-158
91563,8.719,-4.348,2.833,-0.188243,0.022162,1.363930,99913.20,-125,-11,-158
91572,8.909,-4.688,2.811,-0.223362,0.001410,1.428847,99917.75,-125,-11,-158
91582,8.992,-5.004,2.588,-0.265399,-0.005508,1.475141,99917.48,-124,-14,-156
91592,8.998,-5.276,2.232,-0.292004,-0.001783,1.509196,99915.03,-123,-17,-159
91602,9.073,-5.609,1.643,-0.321802,-0.007104,1.537398,99915.03,-123,-19,-159
91612,9.321,-5.678,1.163,-0.353729,-0.013489,1.556021,99915.03,-123,-19,-159
91622,9.708,-5.741,1.089,-0.370224,-0.027856,1.586352,99919.39,-122,-22,-157
91632,10.300,-5.928,0.805,-0.381399,-0.049141,1.631581,99920.11,-121,-26,-160
91642,10.974,-5.782,0.786,-0.422371,-0.050382,1.713349,99916.45,-120,-29,-160
91652,11.659,-5.897,1.209,-0.473986,-0.066700,1.789086,99916.45,-120,-29,-160
91662,12.357,-5.824,2.006,-0.546885,-0.089049,1.886994,99916.45,-117,-30,-158
91672,12.778,-5.876,2.707,-0.625105,-0.112994,1.991287,99920.48,-116,-33,-162
91682,13.123,-5.889,2.829,-0.730463,-0.130553,2.091856,99917.39,-115,-35,-160
91693,13.457,-5.906,2.670,-0.872536,-0.130553,2.198810,99914.70,-115,-35,-160
91702,13.909,-5.871,2.445,-1.065160,-0.126829,2.298847,99914.70,-112,-38,-160
91712,14.346,-5.547,2.258,-1.265233,-0.124700,2.396223,99918.88,-110,-40,-165
91722,14.972,-5.111,2.106,-1.446150,-0.128425,2.488278,99918.88,-107,-40,-163
91732,16.113,-4.555,2.119,-1.665912,-0.143856,2.551067,99913.18,-107,-40,-163
91742,18.455,-3.367,2.313,-1.908554,-0.225269,2.568626,99916.12,-105,-39,-163
91752,21.879,-1.336,2.585,-2.116608,-0.390755,2.549470,99916.43,-103,-40,-168
91762,24.791,1.144,3.145,-2.207067,-0.605195,2.507966,99916.43,-99,-38,-169
91772,25.056,2.456,3.922,-1.772866,-0.896259,2.559048,99921.27,-99,-38,-169
91783,20.339,-1.937,3.551,-0.732591,-1.172424,2.946956,99917.09,-94,-39,-171
91792,15.363,-9.593,4.008,0.172528,-1.263947,3.489708,99916.55,-88,-46,-174
91802,13.482,-11.120,5.074,0.426876,-1.178277,3.479066,99915.03,-83,-54,-173
91812,13.484,-7.520,7.275,0.361427,-0.963305,3.206094,99916.33,-83,-54,-173
91823,14.163,-3.379,7.540,0.329500,-0.837195,2.936846,99916.02,-76,-60,-174
91832,12.533,0.107,7.513,0.471573,-0.681287,2.559048,99915.91,-73,-67,-176
91842,10.093,3.074,5.063,0.355041,-0.563159,1.969471,99915.91,-70,-71,-174
91852,5.694,-0.765,0.382,-0.301582,-0.596149,1.507067,99914.97,-70,-71,-174
91863,2.750,-7.521,1.152,-0.978958,-0.315728,1.527288,99914.97,-67,-73,-175
91872,7.153,-1.513,3.256,-1.795746,-0.108737,0.690279,99918.22,-67,-69,-180
91878,7.889,2.857,3.613,-1.982517,0.010988,-0.131299,99914.77,-67,-69,-180
91887,6.635,3.300,2.903,-1.787765,0.072180,-0.537830,99918.48,-69,-62,-180
91897,5.448,3.272,1.229,-1.458921,0.045575,-0.819316,99915.28,-71,-56,-184
91907,5.111,2.065,0.027,-0.927875,0.062070,-1.046527,99915.28,-75,-51,-187
91917,5.471,0.781,-0.581,-0.303178,0.093997,-1.300344,99917.84,-75,-51,-187
91927,5.877,0.683,-0.927,0.183702,0.078034,-1.630784,99917.73,-79,-49,-184
91937,6.064,0.667,-0.221,0.616307,0.068456,-1.966013,99915.84,-83,-46,-186
91948,6.230,0.844,0.531,1.045188,0.073777,-2.291664,99913.70,-89,-44,-187
91957,6.293,0.466,1.249,1.445866,0.100382,-2.568893,99913.70,-89,-44,-187
91967,6.157,-0.447,1.267,1.742252,0.103575,-2.829095,99913.79,-94,-43,-183
91977,6.270,-1.275,0.902,1.889646,0.123263,-3.086636,99911.21,-99,-40,-183
91987,6.801,-1.816,0.693,1.940196,0.179135,-3.331939,99907.91,-106,-35,-183
91997,7.467,-2.305,0.518,1.900820,0.211593,-3.551700,99906.55,-106,-35,-183
92007,8.016,-2.801,0.151,1.775774,0.212125,-3.754434,99906.55,-112,-31,-178
92017,8.545,-3.405,0.138,1.575701,0.202547,-3.948654,99907.66,-117,-21,-181
92027,9.006,-3.984,0.124,1.286233,0.197226,-4.152984,99909.08,-122,-9,-180
92038,9.362,-4.565,0.230,0.924399,0.227024,-4.365828,99909.80,-122,-9,-180
92047,9.712,-4.931,0.515,0.542344,0.280235,-4.570690,99906.14,-124,+3,-177
92057,10.109,-5.000,0.908,0.160821,0.355795,-4.735644,99906.14,-124,+20,-179
92067,10.546,-4.683,1.400,-0.174940,0.444125,-4.864947,99914.98,-122,+38,-178
92078,11.028,-4.349,1.698,-0.367564,0.534584,-4.976690,99914.25,-122,+38,-178
92087,11.694,-4.361,1.649,-0.392573,0.617593,-5.057570,99911.64,-119,+57,-175
92097,12.247,-4.921,1.376,-0.278701,0.694749,-5.093754,99913.31,-112,+73,-174
92107,12.635,-5.783,1.153,-0.078628,0.769244,-5.073001,99913.31,-105,+90,-174
92112,12.941,-6.445,1.092,0.081005,0.809152,-5.039479,99912.90,-105,+90,-174
92122,13.160,-6.930,1.065,0.239041,0.834162,-5.003295,99912.90,-97,+99,-171
92132,13.427,-7.149,1.302,0.457739,0.856510,-4.973497,99914.77,-87,+107,-174
92142,13.604,-7.078,1.597,0.666326,0.846932,-4.935185,99913.79,-87,+107,-174
92152,13.585,-7.128,1.771,0.869059,0.819795,-4.862286,99912.43,-81,+112,-174
92163,13.614,-7.270,1.759,1.029757,0.768712,-4.772892,99916.01,-76,+114,-173
92173,13.561,-7.441,1.739,1.108509,0.700070,-4.669130,99913.23,-74,+116,-178
92182,13.364,-7.610,1.889,1.140435,0.634088,-4.538231,99917.63,-74,+116,-178
92192,13.259,-7.988,1.947,1.142032,0.563850,-4.366892,99917.63,-71,+120,-180
92203,13.028,-8.582,2.007,1.127133,0.509043,-4.162562,99913.38,-68,+124,-180
92212,12.456,-9.581,2.073,1.135646,0.488290,-3.911406,99913.38,-62,+126,-185
92222,11.466,-10.993,2.026,1.136178,0.511703,-3.605975,99916.60,-62,+126,-185
92232,10.493,-11.881,2.004,1.074454,0.571832,-3.260104,99916.66,-56,+129,-187
92242,9.584,-12.457,2.104,0.974417,0.627703,-2.863682,99915.71,-53,+128,-187
92253,9.030,-13.033,1.995,0.865335,0.629299,-2.393829,99914.66,-47,+125,-191
92262,8.513,-14.299,1.500,0.727518,0.578749,-1.862784,99914.66,-47,+125,-191
92272,7.075,-15.661,1.035,0.470509,0.529263,-1.282784,99918.72,-44,+124,-192
92282,5.752,-16.578,1.041,0.134748,0.495208,-0.667665,99917.78,-44,+122,-190
92293,5.029,-17.026,1.019,-0.205270,0.439868,-0.040308,99918.61,-44,+118,-192
92303,4.710,-17.046,1.345,-0.414921,0.343556,0.567894,99918.61,-44,+118,-192
92312,5.112,-15.819,1.911,-0.499527,0.205740,1.104792,99918.61,-43,+118,-192
92322,6.249,-14.516,3.649,-0.469729,0.031208,1.647012,99919.70,-46,+114,-191
92333,9.880,-6.241,12.340,-0.505380,0.032272,1.870498,99918.50,-44,+109,-194
92343,23.074,4.250,5.119,-1.003967,-0.398737,1.748645,99915.00,-44,+109,-194
92352,42.513,-1.792,-15.910,-1.314187,-1.511910,2.785727,99917.25,-42,+112,-194
92362,31.701,-20.945,-0.267,0.817977,-0.768021,4.661946,99917.25,-44,+104,-194
92372,16.160,-16.720,4.243,1.359132,-0.202388,4.608736,99918.35,-46,+91,-197
92383,4.117,-2.214,-0.772,0.065042,-0.200260,4.068112,99916.99,-46,+91,-197
92393,-7.746,5.901,1.387,-0.214316,-0.300828,3.603048,99917.02,-47,+87,-195
92402,-3.834,0.999,3.705,0.914821,-0.570608,3.103397,99917.02,-48,+79,-194
92412,6.569,-10.347,4.717,1.867829,-0.694058,2.977819,99916.81,-45,+67,-199
92423,13.666,-19.013,2.070,1.844949,-0.656278,3.083709,99916.81,-45,+67,-199
92432,18.086,-16.668,0.128,0.754656,-0.466315,2.800626,99918.34,-44,+59,-198
92442,12.725,-8.512,0.458,-0.336169,-0.014021,2.132828,99916.61,-45,+55,-196
92452,8.330,-4.539,1.286,-0.839013,0.147740,1.988627,99917.03,-43,+54,-199
92463,5.981,-4.369,1.898,-0.667674,0.073777,2.030663,99917.03,-44,+54,-196
92473,5.955,-4.064,2.002,-0.283490,-0.008168,1.793875,99921.29,-44,+55,-196
92482,7.492,-3.828,1.466,-0.068518,-0.067232,1.542187,99918.37,-46,+51,-196
92492,9.225,-4.196,1.473,0.121445,-0.044884,1.425122,99918.73,-44,+50,-199
92503,10.413,-4.545,1.525,0.240106,0.020566,1.350627,99914.54,-46,+48,-197
92513,10.077,-4.708,1.382,0.165610,0.090272,1.279324,99917.68,-46,+48,-197
92523,9.019,-4.358,1.462,0.048546,0.157318,1.185673,99919.57,-46,+44,-196
92532,8.345,-3.984,1.451,-0.041380,0.177006,1.077123,99915.74,-44,+43,-199
92542,8.502,-4.010,1.509,-0.083949,0.190309,0.986664,99915.74,-48,+44,-196
92553,9.022,-3.939,1.632,-0.125454,0.217979,0.915361,99916.43,-48,+44,-196
92562,9.332,-3.692,1.875,-0.172812,0.253098,0.882371,99916.43,-48,+41,-195
92572,9.177,-3.256,1.948,-0.201545,0.281832,0.879710,99920.69,-46,+40,-198
92583,9.137,-2.790,1.767,-0.198530,0.285911,0.884676,99916.77,-49,+42,-195
92593,9.274,-2.577,1.809,-0.153656,0.278639,0.878646,99916.77,-49,+42,-195
92603,9.431,-2.830,1.752,-0.143013,0.262676,0.879710,99916.81,-51,+40,-194
92612,9.490,-3.238,1.948,-0.143013,0.260015,0.881838,99916.81,-49,+39,-197
92622,9.301,-3.986,2.294,-0.185582,0.253098,0.881838,99919.46,-52,+40,-194
92633,8.888,-4.248,2.556,-0.268591,0.241391,0.866407,99918.15,-52,+40,-194
92643,8.532,-3.968,2.690,-0.346279,0.243520,0.853105,99915.12,-52,+38,-193
92652,8.375,-3.542,2.622,-0.377674,0.244584,0.861086,99915.12,-51,+37,-196
92662,8.631,-3.463,2.351,-0.349472,0.214786,0.895673,99915.12,-54,+38,-193
92673,9.026,-3.585,2.215,-0.249435,0.171685,0.945692,99919.70,-54,+38,-193
92683,9.291,-3.609,2.338,-0.133435,0.128052,0.995178,99918.85,-53,+36,-192
92692,9.277,-3.957,2.429,-0.064261,0.092401,1.055306,99918.23,-52,+36,-196
92702,9.108,-4.411,2.471,-0.041380,0.080694,1.105325,99917.80,-55,+34,-192
92712,9.007,-4.664,2.452,-0.066390,0.088144,1.136187,99917.80,-55,+34,-192
92723,8.891,-5.168,2.196,-0.165362,0.130713,1.167049,99917.53,-53,+32,-192
92733,9.082,-5.293,2.314,-0.304243,0.161043,1.193655,99917.06,-52,+32,-196
92742,9.165,-5.085,2.820,-0.436206,0.188712,1.206425,99915.89,-56,+32,-192
92752,9.158,-5.148,3.339,-0.516022,0.230217,1.255912,99915.89,-56,+32,-192
92763,9.363,-5.734,3.223,-0.587857,0.244052,1.287306,99917.72,-55,+30,-192
92773,9.710,-5.988,3.316,-0.715031,0.272786,1.306462,99917.72,-54,+31,-194
92782,10.196,-6.026,3.474,-0.871472,0.308969,1.324554,99917.72,-56,+32,-191
92792,10.906,-5.973,3.215,-1.030572,0.341428,1.369251,99917.61,-56,+32,-191
92803,12.010,-5.557,2.069,-1.143912,0.321740,1.460242,99915.67,-57,+32,-191
92813,12.795,-5.071,1.486,-1.220003,0.268529,1.592205,99915.67,-56,+35,-193
92818,13.231,-5.202,1.150,-1.217343,0.213190,1.708737,99917.49,-56,+35,-193
92827,13.513,-5.396,0.886,-1.192866,0.149336,1.831654,99917.34,-58,+35,-189
92837,13.483,-5.322,0.801,-1.175838,0.069520,1.982241,99916.71,-57,+33,-190
92848,13.593,-4.941,0.996,-1.175838,-0.014553,2.123783,99914.51,-56,+35,-191
92858,13.862,-4.969,1.563,-1.189673,-0.083196,2.255746,99914.51,-56,+35,-191
92867,14.200,-5.129,1.852,-1.242352,-0.102352,2.370149,99917.98,-56,+34,-187
92877,14.399,-5.152,2.355,-1.396132,-0.077874,2.453159,99918.83,-54,+32,-189
92888,14.577,-5.087,2.505,-1.645691,-0.022535,2.504241,99915.73,-53,+36,-191
92898,15.309,-4.576,2.284,-1.979856,0.037593,2.529782,99914.27,-53,+36,-191
92907,17.436,-3.186,1.988,-2.386388,0.025355,2.508498,99914.27,-53,+36,-186
92917,20.381,-0.589,1.880,-2.730131,-0.097030,2.434003,99919.16,-50,+39,-189
92928,22.672,1.828,1.682,-2.806755,-0.286462,2.365360,99917.33,-48,+44,-190
92938,23.523,1.021,1.935,-2.409801,-0.565819,2.504241,99919.05,-48,+44,-190
92948,22.834,-1.741,2.745,-1.565875,-0.862204,2.940571,99915.97,-45,+43,-186
92957,19.980,-3.279,3.974,-0.733123,-1.002681,3.204498,99915.97,-39,+40,-191
92967,16.699,-4.448,4.302,-0.225490,-1.005874,3.151287,99919.96,-35,+34,-191
92978,14.521,-4.421,4.839,-0.031270,-0.934571,2.935250,99916.46,-35,+34,-191
92988,13.745,-3.505,6.062,0.168803,-0.853158,2.750076,99917.04,-32,+25,-189
92997,13.063,-2.029,5.869,0.557243,-0.831342,2.491470,99918.45,-24,+18,-191
93007,10.368,-0.344,5.365,0.843518,-0.682883,2.084939,99918.45,-22,+9,-192
93018,3.635,3.189,2.205,0.613647,-0.716938,1.403306,99916.32,-22,+9,-192
93028,0.587,-10.383,2.865,0.531170,-0.571140,1.511324,99915.95,-20,+1,-189
93038,5.750,-9.995,1.683,-0.265399,-0.343929,0.915361,99916.52,-15,-3,-193
93047,7.430,-3.273,3.344,-1.221600,-0.084260,0.140610,99914.27,-17,-5,-195
93058,4.941,2.365,2.990,-1.237563,-0.078939,-0.448436,99914.27,-17,-5,-195
93068,2.787,4.120,2.472,-0.794316,-0.023067,-0.854436,99916.63,-17,-5,-192
93078,2.713,2.925,1.658,-0.207399,0.041318,-1.134858,99916.31,-18,-6,-197
93087,3.264,1.065,1.326,0.303427,0.137630,-1.400380,99912.91,-23,-11,-197
93097,3.704,-0.080,1.294,0.621628,0.222768,-1.697830,99913.17,-23,-11,-197
93108,4.118,-0.809,1.417,0.772748,0.307373,-1.986765,99913.17,-29,-17,-194
93118,4.577,-1.243,1.527,0.830215,0.393043,-2.296985,99914.61,-33,-22,-198
93127,5.229,-1.166,1.493,0.837133,0.448382,-2.630086,99914.41,-42,-26,-198
93137,5.845,-0.754,1.349,0.851500,0.485630,-2.957865,99910.11,-42,-26,-198
93148,6.511,-0.417,0.847,0.945683,0.506914,-3.254783,99911.11,-51,-31,-195
93158,7.243,-0.595,0.225,1.024435,0.504786,-3.490507,99911.11,-60,-32,-197
93168,7.972,-1.321,-0.250,1.072857,0.493079,-3.668232,99913.55,-75,-32,-197
93177,8.501,-2.150,-0.569,1.085096,0.475520,-3.843296,99910.68,-75,-32,-197
93188,8.736,-2.693,-0.700,1.073922,0.453171,-4.019424,99908.68,-87,-32,-193
93198,8.843,-2.913,-0.726,1.079775,0.442529,-4.192360,99906.54,-99,-27,-199
93208,9.096,-3.130,-0.405,1.078711,0.430822,-4.370617,99906.54,-113,-21,-198
93217,9.576,-3.514,-0.094,1.034546,0.398896,-4.535038,99914.15,-124,-11,-196
93228,10.082,-4.121,0.124,0.935041,0.374419,-4.676580,99909.76,-124,-11,-196
93238,10.583,-4.694,0.261,0.767959,0.374419,-4.794708,99913.41,-133,+3,-202
93248,11.125,-4.883,0.409,0.587041,0.395171,-4.928800,99909.71,-143,+18,-201
93257,11.616,-4.898,0.637,0.488069,0.420180,-5.067680,99909.71,-146,+36,-200
93267,12.101,-5.152,0.846,0.507757,0.424437,-5.168781,99915.48,-146,+36,-200
93278,12.571,-5.517,1.026,0.624289,0.417520,-5.221992,99912.91,-147,+58,-206
93288,13.058,-5.967,1.189,0.767959,0.396235,-5.252855,99913.43,-147,+75,-205
93298,13.538,-6.229,1.395,0.916949,0.356859,-5.277332,99912.34,-140,+91,-204
93307,14.048,-6.094,1.751,1.099463,0.302584,-5.283185,99912.34,-140,+91,-204
93318,14.746,-5.973,2.074,1.355940,0.236070,-5.254983,99915.79,-130,+105,-209
93328,15.400,-6.440,2.459,1.686380,0.169024,-5.169846,99912.76,-123,+114,-209
93338,15.639,-7.511,2.742,1.989150,0.098254,-5.024580,99911.80,-109,+119,-209
93347,15.442,-8.803,2.853,2.157297,0.022162,-4.817057,99913.27,-109,+119,-209
93358,14.908,-10.238,3.152,2.220618,-0.034774,-4.537167,99913.27,-98,+119,-216
93368,14.113,-12.120,3.559,2.196141,-0.042755,-4.164690,99912.58,-91,+114,-217
93378,12.855,-14.529,3.551,2.033315,0.031740,-3.727828,99915.72,-81,+110,-217
93387,11.170,-16.988,3.160,1.668288,0.173281,-3.256911,99915.92,-81,+110,-217
93398,9.099,-19.346,3.022,1.187793,0.333978,-2.712031,99915.66,-78,+104,-224
93408,7.262,-20.825,2.964,0.549971,0.459024,-2.016741,99915.66,-80,+101,-222
93418,6.332,-20.568,3.054,-0.005197,0.504786,-1.372178,99915.61,-77,+100,-221
93428,5.690,-18.777,3.013,-0.505912,0.461153,-0.655959,99916.56,-77,+100,-221
93437,5.209,-16.710,2.855,-0.680444,0.336107,0.061325,99917.39,-79,+100,-226
93448,4.558,-15.360,2.802,-0.519215,0.160511,0.716884,99914.83,-82,+99,-225
93458,4.541,-15.697,2.840,-0.221766,0.006199,1.298480,99914.83,-79,+95,-226
93468,5.670,-15.463,3.131,-0.036591,-0.050205,1.750774,99917.27,-79,+95,-226
93477,9.857,-9.256,6.967,-0.055747,0.014713,1.866774,99918.09,-80,+91,-232
93488,21.997,3.306,1.735,-0.589453,-0.315195,1.601783,99914.86,-84,+87,-232
93498,35.385,4.059,-10.363,-1.418481,-1.023433,1.987562,99918.36,-75,+89,-234
93508,26.973,-12.924,2.405,0.618968,-0.244957,3.578571,99918.36,-75,+89,-234
93517,17.148,-17.693,5.839,1.899756,0.028547,4.137818,99919.66,-80,+77,-239
93528,8.125,-9.884,0.133,0.952601,-0.095966,3.807378,99916.16,-83,+62,-236
93538,-0.716,0.610,0.731,-0.016903,0.125391,3.266754,99915.22,-80,+56,-236
93548,-1.768,0.697,5.052,0.074087,0.065795,2.814461,99915.47,-80,+56,-236
93558,3.266,-8.882,6.793,0.717940,-0.005508,2.716553,99915.47,-82,+50,-241
93568,12.550,-13.192,2.381,0.767959,-0.307214,2.744223,99919.77,-83,+39,-237
93578,14.992,-10.442,0.285,0.186895,-0.268370,2.406333,99917.25,-77,+36,-238
93588,12.201,-5.862,0.702,-0.199949,0.027483,2.045563,99917.94,-77,+36,-238
93598,10.444,-4.160,1.603,-0.291472,0.071648,2.073764,99916.41,-80,+33,-242
93607,8.336,-4.079,1.243,-0.128646,0.010988,2.014168,99916.41,-81,+29,-238
93618,7.455,-4.236,0.970,0.006509,-0.028920,1.840168,99918.30,-76,+27,-239
93628,7.443,-4.033,0.869,0.074620,-0.020939,1.621471,99917.72,-76,+27,-239
93638,9.164,-3.889,0.689,0.079409,0.014713,1.467159,99918.72,-78,+23,-243
93647,10.157,-4.047,0.946,0.068234,0.108896,1.378297,99917.20,-79,+19,-238
93658,9.679,-4.243,1.776,0.011298,0.202015,1.284646,99917.20,-76,+19,-239
93668,8.846,-4.394,1.862,-0.068518,0.221703,1.162260,99918.38,-76,+19,-239
93678,8.539,-4.296,1.511,-0.110555,0.237134,1.015398,99920.78,-78,+16,-242
93688,8.900,-4.151,1.114,-0.183986,0.274914,0.896738,99918.06,-80,+15,-238
93698,9.504,-3.832,1.057,-0.271252,0.329189,0.820114,99918.38,-78,+15,-238
93708,9.686,-3.307,1.458,-0.318610,0.377611,0.780738,99918.38,-81,+14,-240
93718,9.415,-2.801,1.834,-0.287747,0.407942,0.772756,99919.08,-81,+14,-240
93728,9.078,-2.517,2.152,-0.179729,0.417520,0.784462,99918.88,-83,+13,-235
93737,8.925,-2.866,2.496,-0.080757,0.396767,0.804150,99919.08,-81,+15,-237
93748,8.843,-3.469,2.620,-0.078628,0.362712,0.811068,99915.94,-85,+11,-238
93758,8.926,-3.917,2.342,-0.163766,0.339300,0.804150,99915.94,-85,+11,-238
93768,9.120,-3.998,1.995,-0.310628,0.328125,0.794572,99918.12,-86,+10,-233
93778,9.345,-3.686,1.606,-0.447380,0.335043,0.798297,99916.76,-83,+13,-236
93788,9.569,-3.377,1.545,-0.519747,0.352070,0.829160,99918.12,-87,+11,-237
93798,9.575,-3.314,1.995,-0.524004,0.357923,0.885031,99916.96,-87,+11,-237
93808,9.238,-3.555,2.350,-0.504848,0.353667,0.948884,99916.96,-88,+11,-232
93818,8.866,-3.836,2.718,-0.495802,0.345153,1.007416,99916.28,-86,+13,-234
93828,8.670,-4.099,2.794,-0.498995,0.321740,1.050517,99916.33,-90,+11,-236
93838,8.819,-4.024,2.913,-0.518151,0.304712,1.095214,99914.92,-90,+11,-236
93848,8.943,-4.012,3.187,-0.544224,0.293006,1.150554,99916.33,-90,+11,-232
93858,8.910,-4.085,3.041,-0.580940,0.282364,1.219196,99916.33,-87,+13,-234
93868,8.779,-4.409,2.816,-0.622444,0.296199,1.286242,99917.94,-91,+10,-235
93879,8.667,-5.013,2.549,-0.692328,0.303293,1.341581,99918.89,-91,+10,-235
93888,8.713,-5.116,2.502,-0.765582,0.323336,1.373508,99914.91,-91,+11,-231
93898,9.102,-5.089,2.584,-0.857105,0.343024,1.398517,99917.05,-90,+13,-234
93907,9.734,-5.002,2.475,-0.935325,0.330786,1.426719,99917.05,-93,+11,-235
93918,10.295,-5.275,2.082,-0.944371,0.296199,1.471948,99919.38,-93,+11,-235
93928,10.780,-5.506,1.381,-0.924683,0.248841,1.528884,99916.97,-92,+13,-231
93938,10.881,-5.485,1.166,-0.923086,0.202547,1.584755,99917.33,-92,+15,-234
93948,11.172,-5.406,0.996,-0.891692,0.125924,1.662443,99916.13,-94,+11,-234
93958,11.702,-5.199,0.812,-0.829435,0.047171,1.755563,99916.13,-94,+11,-234
93968,12.322,-5.254,0.873,-0.767710,-0.018278,1.854535,99920.03,-92,+11,-230
93978,12.879,-5.158,1.091,-0.723545,-0.091709,1.967342,99919.94,-89,+13,-234
93988,13.410,-4.823,1.768,-0.730995,-0.183232,2.088131,99918.47,-90,+7,-234
93998,13.816,-4.699,2.361,-0.740573,-0.279544,2.212113,99917.73,-90,+7,-234
94008,14.072,-4.853,2.755,-0.737380,-0.341269,2.332370,99917.73,-87,+6,-230
94018,14.292,-4.831,2.599,-0.776756,-0.368406,2.422296,99919.45,-85,+6,-234
94028,14.518,-4.746,2.290,-0.907123,-0.352975,2.482957,99916.67,-83,-1,-234
94039,14.808,-4.697,1.961,-1.091233,-0.314131,2.519140,99919.34,-83,-1,-234
94048,15.649,-4.373,1.707,-1.387086,-0.266241,2.508498,99915.69,-78,+0,-230
94058,17.489,-2.821,1.718,-1.784040,-0.247085,2.437195,99915.69,-77,+1,-234
94068,20.406,-0.335,2.298,-2.132572,-0.330094,2.329177,99918.16,-76,+0,-233
94078,23.775,1.275,3.743,-2.109691,-0.551452,2.320663,99916.48,-76,+0,-233
94088,25.862,0.914,5.633,-1.582370,-0.827085,2.640461,99914.95,-70,+3,-231
94098,24.609,-1.142,7.550,-0.817196,-0.990443,3.107121,99916.53,-66,+3,-234
94108,21.489,-4.133,7.973,-0.172279,-1.050571,3.418938,99916.53,-62,-9,-233
94118,18.740,-5.484,6.991,0.150711,-1.021305,3.482259,99916.30,-62,-9,-233
94128,17.073,-5.099,5.989,-0.052023,-0.941489,3.319433,99915.09,-56,-15,-229
94138,15.455,-3.585,6.410,-0.113747,-0.853158,3.089562,99916.45,-53,-19,-232
94148,13.283,-2.684,7.998,0.231060,-0.664259,2.807012,99913.84,-50,-33,-229
94158,10.644,1.838,3.808,0.111335,-0.608388,2.133361,99913.84,-50,-33,-229
94169,2.284,-1.642,3.622,-0.190903,-0.392351,1.515049,99915.51,-47,-34,-223
94178,3.833,-13.133,2.594,-0.152059,-0.299764,1.786425,99913.30,-48,-36,-226
94188,7.080,-6.316,1.804,-0.985875,-0.055526,0.762114,99914.20,-49,-41,-223
94198,5.719,1.067,1.934,-1.328022,0.035465,-0.159500,99915.15,-51,-33,-219
94209,3.013,5.003,1.830,-1.051325,0.042382,-0.663940,99915.15,-51,-33,-219
94218,2.369,4.924,1.224,-0.426628,0.046107,-0.949151,99917.24,-56,-29,-221
94228,2.471,2.742,1.238,0.365684,0.084951,-1.234894,99916.35,-59,-34,-217
94238,2.566,0.946,1.455,0.944619,0.105703,-1.567463,99912.27,-64,-31,-210
94248,2.915,0.120,1.117,1.183536,0.100382,-1.953242,99910.70,-64,-31,-210
94258,3.127,-0.818,0.650,1.218123,0.105703,-2.338490,99910.70,-70,-30,-212
94268,3.533,-1.415,0.125,1.168637,0.135502,-2.729590,99915.12,-76,-34,-205
94278,4.299,-1.265,-0.373,1.053169,0.166896,-3.099939,99914.96,-81,-27,-200
94288,5.216,-1.024,-0.926,0.934509,0.194566,-3.437829,99910.10,-81,-27,-200
94299,6.388,-0.827,-1.514,0.866931,0.214254,-3.734746,99908.01,-88,-21,-202
94308,7.608,-1.044,-1.929,0.854692,0.225960,-3.977388,99908.01,-94,-19,-197
94318,8.463,-1.637,-1.879,0.906839,0.228089,-4.171607,99907.02,-97,-7,-192
94328,8.794,-2.253,-1.562,0.986124,0.207868,-4.354653,99906.97,-97,-7,-192
94339,8.890,-2.943,-1.162,1.027628,0.167960,-4.525461,99909.64,-103,+1,-194
94349,8.939,-3.721,-0.711,0.999426,0.146853,-4.718439,99906.61,-105,+7,-189
94358,8.853,-3.911,-0.006,0.951536,0.173813,-4.908048,99906.61,-105,+20,-187
94368,8.941,-3.921,0.656,0.931848,0.232345,-5.102268,99914.43,-105,+20,-187
94379,9.493,-3.944,0.843,0.910564,0.283960,-5.262433,99909.60,-106,+31,-189
94388,10.334,-3.864,0.909,0.897793,0.324933,-5.393864,99907.46,-105,+38,-185
94398,11.278,-3.950,0.836,0.923335,0.353134,-5.496561,99911.96,-103,+50,-181
94408,12.078,-4.468,0.658,0.979206,0.359520,-5.579038,99911.96,-103,+50,-181
94418,12.838,-5.317,0.485,1.015390,0.361648,-5.656726,99913.87,-102,+60,-185
94429,13.694,-5.973,0.496,0.996234,0.368566,-5.735478,99908.79,-101,+65,-180
94438,14.496,-6.324,0.558,0.920674,0.355263,-5.789753,99914.12,-98,+77,-177
94448,15.095,-6.970,1.011,0.881830,0.318015,-5.782836,99912.02,-98,+77,-177
94458,15.666,-8.284,1.686,0.972289,0.269061,-5.703552,99912.02,-94,+84,-181
94469,16.171,-9.778,2.215,1.098931,0.231281,-5.565203,99916.01,-92,+91,-176
94478,16.511,-11.154,2.448,1.140435,0.220107,-5.380029,99912.87,-89,+97,-174
94488,16.359,-12.672,2.603,1.075518,0.243520,-5.124616,99916.95,-89,+97,-174
94498,15.159,-13.920,2.792,0.915885,0.301520,-4.789919,99914.91,-86,+103,-179
94509,13.415,-15.086,3.009,0.701445,0.380804,-4.388176,99914.91,-83,+110,-174
94519,11.911,-16.569,2.891,0.428473,0.456896,-3.905021,99915.28,-80,+118,-172
94528,10.183,-18.394,2.780,0.135280,0.530327,-3.338324,99919.41,-80,+118,-172
94538,8.437,-19.974,2.726,-0.260078,0.605887,-2.691811,99915.17,-78,+122,-176
94548,7.151,-20.330,2.664,-0.732059,0.657501,-1.967077,99918.16,-76,+127,-170
94559,5.979,-19.740,1.922,-1.160939,0.642070,-1.225316,99918.16,-74,+134,-166
94568,4.910,-18.758,1.593,-1.551508,0.557997,-0.453757,99917.10,-74,+134,-166
94578,4.412,-18.236,1.766,-1.716994,0.436676,0.295454,99918.52,-74,+139,-169
94584,4.375,-17.573,2.141,-1.697306,0.343024,0.799894,99916.23,-75,+141,-162
94594,5.397,-15.888,2.569,-1.638242,0.282896,1.185673,99916.23,-75,+141,-162
94604,7.491,-12.761,3.938,-1.647288,0.201483,1.549636,99915.23,-76,+145,-158
94613,12.273,-2.408,10.192,-1.743067,0.208933,1.485251,99915.23,-78,+146,-161
94623,27.763,10.410,-1.883,-2.591783,-0.445030,1.156407,99918.90,-76,+150,-153
94633,39.111,-5.266,-7.418,-2.146939,-1.048975,2.465397,99920.60,-76,+150,-153
94644,29.696,-19.260,4.798,0.649298,-0.488131,4.324057,99917.46,-78,+147,-154
94653,15.606,-15.053,4.106,1.077646,-0.335948,4.144736,99917.46,-83,+134,-161
94663,2.744,-0.129,1.127,-0.040316,-0.213030,3.666901,99917.46,-86,+126,-155
94673,-5.563,6.793,3.546,-0.345747,-0.322113,3.324754,99918.21,-86,+126,-155
94684,-3.692,2.277,4.221,0.681225,-0.568480,2.861287,99919.93,-88,+122,-157
94693,5.958,-7.841,3.130,1.398509,-0.743012,2.685158,99917.52,-88,+111,-163
94703,13.820,-15.601,-0.196,1.209610,-0.838259,2.818718,99917.95,-87,+102,-159
94713,17.674,-14.605,-0.777,0.250748,-0.625415,2.707507,99917.95,-87,+102,-159
94724,13.864,-8.445,0.186,-0.777288,-0.208241,2.214773,99918.43,-88,+98,-161
94734,9.072,-4.157,0.778,-1.129545,-0.039030,1.954040,99917.12,-89,+97,-165
94743,6.359,-2.615,0.568,-0.711839,-0.070957,1.847085,99916.57,-90,+95,-158
94753,6.650,-2.614,0.558,-0.066390,-0.066168,1.709269,99916.57,-90,+95,-158
94764,7.932,-4.369,1.187,0.197537,-0.046480,1.631049,99918.05,-91,+93,-160
94774,9.459,-5.836,1.220,0.019280,-0.044352,1.507599,99917.58,-92,+87,-165
94783,10.173,-5.338,1.227,-0.256885,0.055153,1.309655,99917.58,-92,+86,-158
94793,9.649,-4.512,1.705,-0.461215,0.151997,1.146829,99915.91,-92,+86,-158
94803,9.000,-3.987,1.859,-0.493674,0.184456,1.021783,99916.95,-94,+86,-160
94814,8.665,-4.037,1.669,-0.422371,0.194566,0.896738,99916.95,-94,+84,-162
94819,8.775,-4.065,1.640,-0.375545,0.200419,0.821178,99919.62,-94,+84,-162
94828,9.103,-3.863,1.767,-0.368096,0.201483,0.763710,99918.20,-94,+83,-156
94838,9.535,-3.495,1.956,-0.348408,0.205740,0.711563,99917.41,-96,+83,-158
94849,9.499,-3.319,1.995,-0.295729,0.208933,0.695600,99915.16,-96,+83,-161
94859,9.320,-3.323,2.077,-0.265931,0.208401,0.687086,99915.16,-96,+83,-161
94868,9.234,-3.381,2.166,-0.294665,0.206804,0.665270,99918.62,-97,+81,-154
94878,9.304,-3.293,2.286,-0.356921,0.204676,0.648242,99917.48,-100,+82,-158
94888,9.348,-3.162,2.355,-0.411197,0.203079,0.647710,99916.74,-99,+81,-160
94899,9.415,-3.162,2.229,-0.436738,0.192969,0.664206,99916.74,-99,+81,-160
94908,9.339,-3.256,2.208,-0.432481,0.188180,0.684958,99916.74,-101,+80,-153
94918,9.123,-3.372,2.290,-0.418114,0.184988,0.713160,99918.45,-102,+81,-157
94928,8.842,-3.494,2.319,-0.414389,0.183924,0.740829,99917.77,-101,+79,-157
94939,8.658,-3.426,2.490,-0.415986,0.180199,0.765306,99914.84,-101,+79,-157
94949,8.435,-3.280,2.724,-0.384591,0.162107,0.795105,99917.98,-103,+80,-152
94958,8.288,-3.189,3.048,-0.329784,0.124859,0.845123,99917.98,-104,+79,-155
94968,8.366,-3.227,3.148,-0.290940,0.071648,0.903123,99919.55,-103,+76,-156
94979,8.714,-3.523,3.069,-0.292536,0.023758,0.972829,99918.03,-103,+76,-156
94989,9.143,-3.851,2.826,-0.353729,-0.010829,1.042536,99916.05,-104,+75,-150
94998,9.436,-4.152,2.670,-0.435142,-0.007636,1.108517,99916.41,-106,+74,-155
95008,9.451,-4.136,2.465,-0.542096,0.003006,1.173967,99916.41,-105,+72,-155
95019,9.131,-3.824,2.361,-0.597435,0.013116,1.248462,99918.63,-105,+72,-155
95029,8.804,-3.651,2.470,-0.577747,0.001410,1.342113,99916.69,-105,+71,-150
95039,8.750,-3.822,2.563,-0.508041,-0.044884,1.435765,99917.27,-106,+71,-155
95048,8.740,-4.351,2.465,-0.430885,-0.095966,1.517177,99915.28,-105,+67,-155
95054,8.943,-4.826,2.299,-0.406408,-0.134810,1.561875,99915.28,-105,+67,-155
95064,9.189,-5.288,2.044,-0.423967,-0.172058,1.599122,99915.28,-105,+64,-149
95074,9.591,-5.809,1.930,-0.469729,-0.198131,1.632113,99918.85,-105,+63,-155
95084,10.088,-5.979,1.992,-0.560187,-0.202388,1.651269,99918.16,-105,+63,-155
95093,10.595,-6.025,2.045,-0.679380,-0.205049,1.676278,99919.01,-104,+60,-155
95104,11.191,-5.815,1.905,-0.766114,-0.228462,1.728957,99918.67,-104,+58,-150
95114,11.755,-5.742,1.678,-0.806022,-0.266773,1.791214,99919.25,-104,+58,-155
95124,12.213,-5.810,1.624,-0.832628,-0.309874,1.875287,99918.00,-104,+58,-155
95133,12.737,-5.810,1.443,-0.867215,-0.353507,1.969471,99918.00,-103,+54,-157
95143,13.073,-5.869,1.418,-0.916169,-0.381177,2.067911,99916.31,-101,+52,-152
95154,13.291,-6.040,1.201,-0.983215,-0.397672,2.166883,99916.69,-101,+51,-159
95164,13.738,-6.006,1.008,-1.091765,-0.411507,2.258939,99916.69,-101,+51,-159
95173,14.374,-5.579,1.322,-1.220003,-0.461526,2.350993,99920.45,-97,+48,-159
95183,15.219,-5.098,1.661,-1.327490,-0.528039,2.445709,99917.84,-96,+45,-155
95194,16.592,-4.564,2.243,-1.459453,-0.588168,2.521269,99918.00,-95,+45,-163
95204,19.047,-3.567,2.993,-1.668572,-0.690865,2.586186,99915.42,-95,+45,-163
95214,22.787,-1.508,4.002,-1.939948,-0.880296,2.631948,99915.03,-90,+42,-163
95223,25.399,0.386,4.986,-2.133104,-1.085690,2.679305,99916.64,-88,+42,-162
95234,24.286,0.909,5.053,-2.061269,-1.232020,2.725067,99914.55,-84,+44,-170
95244,20.278,-1.591,4.841,-1.586627,-1.333653,2.811268,99916.23,-84,+44,-170
95253,16.553,-5.004,4.749,-0.925747,-1.406020,2.924608,99916.23,-78,+40,-171
95263,13.991,-6.007,5.389,-0.405343,-1.378351,2.879910,99916.23,-73,+35,-171
95273,12.816,-5.633,6.101,0.071427,-1.272993,2.749544,99915.70,-67,+31,-179
95284,12.278,-4.332,6.999,0.512014,-1.100589,2.604810,99915.01,-67,+31,-179
95289,11.945,-2.140,6.970,0.794032,-0.955324,2.387709,99915.54,-63,+21,-179
95298,10.844,0.223,5.375,1.001555,-0.829746,2.038113,99914.85,-59,+14,-177
95308,7.974,1.142,1.929,0.934509,-0.793030,1.491636,99914.85,-59,+14,-177
95319,1.445,-6.468,0.727,0.711555,-0.628608,1.295288,99919.57,-56,+9,-184
95329,2.502,-9.124,1.897,0.206051,-0.430131,1.359673,99917.59,-53,+3,-183
95339,6.741,-1.830,2.799,-0.294665,-0.328498,0.388573,99914.76,-53,+2,-181
95348,5.811,2.201,3.101,-0.248371,-0.197067,-0.443115,99914.76,-53,+2,-181
95358,4.390,3.502,2.735,-0.025949,-0.118315,-0.758124,99914.76,-52,+3,-187
95369,4.315,3.900,2.089,0.286931,-0.046480,-1.072601,99919.10,-51,+1,-184
95379,4.469,3.168,2.067,0.830747,0.053557,-1.370050,99916.02,-54,-1,-182
95388,4.442,2.196,2.325,1.338380,0.113685,-1.605775,99911.77,-54,-1,-182
95398,4.492,0.691,1.973,1.629444,0.116346,-1.875022,99913.24,-56,-4,-187
95409,4.615,-1.277,1.189,1.682655,0.101979,-2.174600,99913.24,-55,-9,-183
95419,4.937,-2.693,1.032,1.568252,0.146676,-2.473114,99914.09,-60,-13,-181
95429,5.696,-2.432,0.826,1.287830,0.220639,-2.818453,99910.79,-60,-13,-181
95438,6.874,-1.328,-0.024,0.932913,0.257355,-3.172306,99910.07,-64,-14,-186
95449,7.850,-0.944,-1.138,0.666858,0.245116,-3.468691,99908.23,-67,-14,-181
95459,8.489,-2.028,-1.679,0.524784,0.225428,-3.682067,99908.23,-73,-13,-180
95469,8.805,-3.267,-1.717,0.490197,0.228621,-3.890122,99909.84,-73,-13,-180
95478,8.531,-3.754,-1.488,0.556179,0.265336,-4.083277,99908.01,-78,-9,-187
95489,8.250,-3.343,-0.716,0.637592,0.313758,-4.223222,99908.16,-83,-6,-183
95499,8.497,-2.815,0.310,0.725390,0.346749,-4.328048,99910.26,-90,-2,-183
95509,9.263,-3.025,0.899,0.841390,0.343024,-4.454690,99910.26,-90,-2,-183
95519,10.117,-3.871,0.940,0.923867,0.325997,-4.598360,99911.86,-96,+1,-191
95524,10.573,-4.587,0.714,0.956857,0.328125,-4.693607,99911.97,-100,+6,-187
95534,10.926,-5.236,0.419,0.960050,0.355795,-4.750543,99911.97,-100,+6,-187
95544,11.387,-5.827,0.131,0.939298,0.414859,-4.793112,99912.33,-107,+12,-189
95554,11.858,-6.057,0.271,0.908435,0.477648,-4.836213,99912.48,-113,+17,-197
95564,12.186,-6.357,0.710,0.877573,0.520749,-4.879313,99912.48,-116,+24,-194
95574,12.487,-6.618,1.164,0.870656,0.550015,-4.902727,99913.20,-116,+24,-194
95584,12.870,-6.871,1.626,0.903114,0.572896,-4.917625,99913.66,-123,+31,-196
95594,13.117,-7.015,1.944,0.961114,0.590455,-4.921350,99915.13,-129,+36,-205
95603,13.180,-6.962,2.041,1.041995,0.610676,-4.907516,99915.13,-133,+42,-201
95613,13.255,-6.948,2.010,1.153738,0.618125,-4.845791,99915.13,-133,+42,-201
95624,13.381,-6.999,2.031,1.272399,0.611208,-4.740965,99914.45,-142,+49,-205
95634,13.611,-7.298,2.160,1.378288,0.611740,-4.601020,99915.34,-148,+56,-212
95644,13.815,-8.394,2.247,1.403298,0.624510,-4.421699,99914.66,-153,+63,-207
