200024,9.471,-2.024,2.149,0.002545,0.005855,0.003046,100036.49,-79,-198,-15
200035,9.464,-2.085,2.125,-0.003840,0.007629,0.003933,100035.71,-79,-198,-15
200044,9.452,-2.014,2.142,-0.008097,0.008516,0.002514,100035.71,-79,-198,-14
200053,9.446,-1.982,2.169,-0.008629,0.006388,0.003578,100035.71,-79,-198,-15
200065,9.463,-1.997,2.129,-0.004372,0.006388,0.002514,100037.70,-79,-198,-15
200074,9.483,-2.018,2.102,0.002013,0.006388,0.001981,100036.85,-79,-198,-15
200084,9.475,-2.002,2.135,0.006270,0.003727,0.005174,100037.05,-79,-198,-14
200094,9.506,-2.026,2.124,0.011059,0.004791,0.001449,100037.05,-79,-198,-15
200104,9.489,-2.041,2.087,0.011591,0.007452,-0.001211,100035.80,-79,-198,-15
200114,9.441,-2.026,2.122,0.005206,0.009048,-0.002808,100035.80,-79,-198,-15
200124,9.452,-1.977,2.153,0.003077,0.007984,-0.001743,100034.84,-79,-198,-15
200134,9.479,-2.006,2.127,0.003609,0.007984,0.000385,100037.16,-79,-198,-15
200144,9.480,-2.008,2.145,0.003077,0.008516,0.000385,100036.06,-79,-197,-14
200154,9.477,-1.977,2.171,0.002013,0.005855,0.003046,100036.06,-79,-197,-14
200164,9.470,-1.959,2.191,0.005206,0.004259,0.003578,100035.66,-79,-198,-15
200174,9.508,-1.998,2.185,0.005738,0.003727,0.002514,100036.30,-79,-199,-15
200184,9.511,-1.972,2.197,0.003077,-0.001062,0.003046,100038.04,-79,-198,-14
200195,9.497,-1.959,2.130,0.005738,-0.001594,0.003578,100038.02,-79,-198,-14
200204,9.465,-2.006,2.084,0.013187,-0.000530,0.003578,100035.59,-79,-198,-15
200214,9.423,-2.010,2.130,0.014784,0.001599,0.005174,100037.06,-79,-198,-14
200224,9.451,-1.991,2.145,0.016380,0.001599,0.005706,100034.66,-78,-198,-13
200233,9.413,-2.007,2.147,0.017444,0.002131,0.004642,100034.66,-78,-198,-13
200244,9.425,-1.988,2.161,0.014252,0.003727,0.007303,100034.08,-79,-198,-14
200254,9.486,-2.010,2.138,0.012655,0.003727,0.007303,100034.08,-79,-198,-14
200264,9.477,-1.984,2.182,0.010527,0.002663,0.006770,100040.00,-79,-198,-15
200269,9.471,-1.994,2.149,0.011059,0.001599,0.007835,100035.69,-79,-198,-15
200279,9.458,-1.989,2.115,0.013187,0.000534,0.006238,100035.27,-79,-198,-14
200289,9.493,-2.008,2.115,0.019041,0.000534,0.008367,100035.80,-79,-198,-14
200299,9.468,-2.022,2.111,0.021701,0.002663,0.006238,100035.80,-79,-198,-14
200309,9.476,-1.996,2.154,0.025426,0.003195,0.005174,100038.01,-79,-199,-13
200320,9.450,-1.967,2.211,0.030215,0.001599,0.005706,100040.16,-79,-199,-14
200329,9.449,-1.960,2.195,0.036600,0.000002,0.008899,100032.98,-79,-198,-13
200339,9.440,-1.952,2.155,0.041921,-0.001062,0.012092,100035.76,-79,-198,-13
200349,9.450,-1.976,2.189,0.043518,-0.003723,0.014752,100035.76,-79,-198,-13
200359,9.458,-1.946,2.191,0.040325,-0.005319,0.018477,100037.35,-79,-198,-14
200369,9.508,-1.937,2.200,0.037664,-0.005319,0.021669,100038.41,-79,-198,-13
200379,9.536,-2.012,2.163,0.042453,-0.007979,0.024330,100034.68,-79,-198,-13
200389,9.513,-2.075,2.112,0.045646,-0.008512,0.023266,100034.63,-79,-198,-13
200399,9.475,-2.062,2.088,0.040325,-0.004787,0.021137,100034.63,-79,-199,-13
200409,9.504,-2.100,2.047,0.029151,-0.000530,0.020073,100040.10,-79,-200,-13
200419,9.457,-2.064,2.009,0.018509,0.005855,0.016881,100036.95,-79,-200,-13
200429,9.422,-2.006,2.026,0.011591,0.011177,0.015284,100040.68,-79,-199,-13
200439,9.446,-1.945,2.128,0.015316,0.012241,0.018477,100037.68,-79,-199,-13
200449,9.433,-1.978,2.154,0.029151,0.012773,0.018477,100037.68,-79,-199,-13
200459,9.462,-2.033,2.166,0.040325,0.015433,0.019541,100037.31,-79,-199,-13
200469,9.467,-2.083,2.154,0.037664,0.017562,0.019541,100037.05,-79,-199,-12
200479,9.464,-2.086,2.100,0.028619,0.022351,0.016881,100037.09,-78,-198,-13
200489,9.401,-2.067,2.063,0.017444,0.028736,0.015284,100034.94,-79,-199,-12
200499,9.416,-2.035,2.066,0.011059,0.036186,0.016348,100034.94,-79,-199,-12
200509,9.462,-2.032,2.094,0.009463,0.043103,0.015816,100037.45,-78,-199,-12
200519,9.489,-2.015,2.166,0.008931,0.044699,0.013688,100037.92,-78,-198,-13
200529,9.445,-2.040,2.211,0.015848,0.038314,0.011559,100036.34,-78,-199,-12
200539,9.432,-2.105,2.152,0.026490,0.041507,0.009431,100036.19,-78,-199,-12
200549,9.403,-2.159,2.138,0.024894,0.046296,0.004110,100036.19,-78,-199,-11
200559,9.409,-2.039,2.182,0.015316,0.045764,-0.001743,100039.05,-79,-199,-12
200569,9.452,-1.954,2.233,0.024362,0.043103,-0.001211,100037.43,-79,-199,-11
200580,9.444,-1.912,2.288,0.047242,0.036186,0.001449,100037.52,-79,-199,-11
200589,9.397,-1.933,2.264,0.072252,0.034589,0.006770,100033.80,-79,-200,-11
200599,9.398,-2.101,2.287,0.082362,0.035121,0.009963,100033.80,-79,-200,-11
200609,9.392,-2.123,2.233,0.067995,0.037782,0.008899,100036.01,-78,-200,-11
200620,9.408,-2.171,2.161,0.052564,0.042039,0.003046,100037.23,-78,-198,-11
200629,9.415,-2.103,2.057,0.031811,0.052149,-0.004404,100036.76,-78,-198,-11
200639,9.384,-2.043,1.979,0.016380,0.065984,-0.007597,100037.54,-79,-200,-10
200649,9.465,-2.013,1.993,0.013187,0.074498,-0.006532,100037.54,-79,-199,-10
200659,9.524,-1.984,2.153,0.014784,0.077158,-0.007597,100036.88,-79,-200,-10
200669,9.421,-1.995,2.133,0.023298,0.083543,-0.009725,100036.55,-79,-200,-10
200679,9.422,-2.059,2.282,0.025426,0.084076,-0.010789,100037.03,-79,-199,-10
200689,9.429,-1.991,2.497,0.039261,0.068644,-0.014514,100034.66,-79,-200,-10
200699,9.361,-1.913,2.531,0.079169,0.064387,-0.019303,100034.66,-79,-200,-9
200710,9.426,-2.044,2.456,0.118545,0.060663,-0.018771,100038.20,-79,-200,-9
200719,9.523,-1.965,2.590,0.128123,0.044699,-0.022496,100038.52,-79,-199,-9
200729,9.361,-1.867,2.516,0.151536,0.035654,-0.024092,100036.31,-79,-199,-8
200739,9.210,-2.089,2.220,0.183995,0.045764,-0.024092,100037.25,-79,-199,-8
200750,9.209,-2.352,2.087,0.170692,0.060131,-0.027817,100037.25,-79,-199,-8
200759,9.195,-2.429,2.032,0.107371,0.081947,-0.037927,100036.66,-79,-200,-7
200769,9.073,-2.311,1.839,0.025958,0.107488,-0.053890,100035.34,-79,-199,-6
200779,9.210,-2.317,1.971,-0.034170,0.131433,-0.059743,100038.23,-80,-199,-6
200790,9.253,-2.233,2.026,-0.090042,0.169745,-0.068257,100036.44,-80,-199,-6
200799,9.383,-2.371,1.894,-0.152831,0.206461,-0.082624,100036.44,-80,-200,-6
200809,9.723,-2.379,2.061,-0.242225,0.229342,-0.095395,100035.77,-81,-199,-8
200819,9.765,-1.921,2.394,-0.335877,0.249030,-0.116147,100038.55,-81,-198,-8
200829,9.904,-1.986,2.341,-0.363014,0.261268,-0.125193,100036.46,-81,-198,-8
200840,9.919,-2.173,2.389,-0.368867,0.278828,-0.126789,100036.66,-82,-198,-8
200849,9.749,-2.211,2.657,-0.412500,0.300112,-0.136899,100036.66,-83,-198,-9
200859,9.671,-2.014,3.057,-0.478482,0.295323,-0.137963,100037.00,-83,-197,-11
200869,9.599,-1.554,3.554,-0.502427,0.260736,-0.124661,100039.16,-83,-197,-11
200880,9.558,-1.417,3.697,-0.454005,0.204864,-0.108165,100037.11,-84,-197,-11
200889,9.590,-1.631,3.592,-0.383766,0.146865,-0.090606,100037.63,-83,-196,-13
200899,9.565,-1.549,3.441,-0.339069,0.086204,-0.073578,100037.63,-84,-196,-14
200909,9.492,-1.589,3.052,-0.300225,0.031397,-0.061340,100035.59,-84,-196,-14
200920,9.546,-1.754,2.662,-0.252335,-0.001594,-0.048037,100036.05,-83,-195,-14
200929,9.643,-1.885,2.612,-0.215620,-0.021814,-0.036330,100037.63,-85,-196,-15
200939,9.617,-2.030,2.540,-0.199124,-0.033521,-0.035266,100034.49,-84,-196,-16
200949,9.502,-2.192,2.528,-0.202849,-0.038310,-0.046973,100034.49,-84,-196,-16
200960,9.376,-2.219,2.432,-0.220409,-0.036713,-0.064532,100038.57,-85,-195,-16
200970,9.283,-2.231,2.389,-0.235308,-0.035649,-0.081028,100037.63,-85,-194,-17
200979,9.269,-2.147,2.437,-0.237436,-0.044695,-0.089541,100037.52,-85,-194,-17
200989,9.221,-2.172,2.401,-0.234776,-0.044695,-0.108697,100035.37,-85,-194,-17
200999,9.148,-2.231,2.309,-0.239033,-0.037778,-0.127853,100035.37,-84,-194,-18
201010,9.172,-2.116,2.378,-0.255528,-0.033521,-0.137431,100037.41,-85,-194,-20
201019,9.250,-1.967,2.521,-0.261381,-0.031924,-0.142220,100036.41,-86,-194,-20
201029,9.353,-1.901,2.580,-0.256060,-0.034053,-0.144881,100035.83,-86,-194,-20
201039,9.303,-1.769,2.701,-0.262445,-0.027667,-0.141688,100036.14,-86,-193,-21
201050,9.264,-1.651,2.719,-0.267766,-0.026603,-0.132110,100036.14,-86,-192,-22
201060,9.286,-1.548,2.634,-0.262445,-0.032456,-0.119872,100037.50,-87,-192,-22
201069,9.380,-1.402,2.604,-0.237436,-0.038842,-0.100184,100036.81,-88,-192,-23
201079,9.410,-1.421,2.539,-0.187950,-0.047888,-0.072514,100037.70,-88,-192,-23
201090,9.434,-1.497,2.378,-0.137932,-0.059062,-0.046441,100035.92,-88,-191,-24
201099,9.498,-1.674,2.335,-0.103345,-0.069172,-0.025688,100035.92,-86,-192,-25
201109,9.477,-1.888,2.336,-0.092702,-0.077154,-0.010789,100040.66,-87,-191,-25
201119,9.477,-1.949,2.322,-0.121436,-0.086200,-0.003872,100035.95,-87,-191,-25
201129,9.477,-1.808,2.281,-0.156556,-0.102163,0.003578,100038.37,-88,-190,-25
201140,9.451,-1.699,2.313,-0.158152,-0.113337,0.019541,100036.52,-87,-191,-26
201149,9.371,-1.716,2.351,-0.135803,-0.117594,0.037101,100036.52,-86,-191,-26
201159,9.317,-1.798,2.367,-0.115583,-0.124511,0.054660,100037.27,-86,-191,-26
201169,9.485,-1.758,2.365,-0.118244,-0.132493,0.069559,100037.01,-86,-191,-27
201180,9.601,-1.758,2.349,-0.114519,-0.138346,0.083926,100036.74,-86,-190,-27
201189,9.657,-1.704,2.187,-0.106537,-0.142071,0.094569,100033.34,-86,-191,-28
201199,9.582,-1.675,2.106,-0.094831,-0.142071,0.111596,100033.34,-86,-191,-28
201209,9.536,-1.736,2.024,-0.079400,-0.146328,0.135009,100038.08,-85,-191,-28
201220,9.511,-1.821,2.175,-0.061308,-0.158034,0.157357,100037.19,-85,-191,-29
201230,9.462,-1.844,2.258,-0.054923,-0.184640,0.182367,100035.92,-83,-192,-29
201239,9.443,-1.748,2.260,-0.059712,-0.212842,0.209504,100035.23,-83,-192,-29
201249,9.507,-1.579,2.547,-0.052794,-0.226677,0.250477,100035.23,-83,-192,-30
201260,9.485,-1.458,2.596,-0.053858,-0.220291,0.284000,100037.78,-82,-193,-31
201270,9.538,-1.546,2.839,-0.018207,-0.195814,0.323908,100036.36,-81,-193,-30
201279,9.435,-1.873,2.677,0.018509,-0.189429,0.352642,100034.36,-81,-193,-30
201289,9.310,-2.204,2.516,0.011591,-0.197411,0.372862,100037.36,-79,-193,-30
201299,9.561,-2.380,2.339,-0.048537,-0.225080,0.394146,100037.36,-77,-194,-32
201310,9.927,-2.144,2.527,-0.111326,-0.257007,0.409578,100037.16,-77,-194,-32
201320,10.106,-1.806,2.697,-0.152299,-0.294787,0.436183,100036.96,-77,-194,-32
201329,10.192,-1.420,2.797,-0.167198,-0.337887,0.488862,100036.85,-75,-195,-33
201339,10.210,-0.817,2.935,-0.156023,-0.396952,0.575596,100035.01,-72,-196,-34
201350,10.299,-0.416,3.125,-0.116647,-0.467722,0.707027,100035.01,-69,-197,-34
201360,10.964,-0.362,3.229,-0.070886,-0.562970,0.879963,100037.12,-69,-197,-34
201369,12.501,-0.277,3.539,-0.045877,-0.705043,1.074183,100036.74,-66,-198,-35
201379,14.663,0.881,4.125,-0.045877,-0.899263,1.279577,100035.23,-61,-200,-37
201390,17.221,0.763,4.378,0.041389,-1.132859,1.532861,100035.80,-54,-202,-38
201400,20.066,-0.161,3.696,0.135041,-1.319098,1.774971,100035.80,-54,-202,-38
201409,23.943,0.513,3.499,0.069059,-1.463300,1.931944,100040.10,-47,-204,-39
201419,27.665,2.710,4.078,-0.156556,-1.573979,2.078274,100034.63,-39,-206,-41
201430,26.534,4.519,4.327,-0.480610,-1.626657,2.084127,100034.79,-29,-208,-44
201440,22.444,1.903,3.485,-0.402922,-1.720309,2.050072,100033.26,-29,-208,-44
201449,20.409,-4.889,2.863,-0.005436,-1.813428,2.284200,100033.26,-22,-208,-46
201459,19.997,-7.509,3.177,0.365444,-1.887391,2.591759,100036.77,-10,-211,-47
201469,17.033,-5.530,3.095,0.791132,-1.807043,2.327301,100037.77,+0,-212,-45
201480,13.373,-8.471,1.332,1.431792,-1.726694,2.165540,100036.30,+0,-212,-45
201490,12.176,-15.514,-0.757,1.977737,-1.712327,2.539613,100033.83,+10,-215,-41
201499,11.630,-20.890,-1.770,1.983590,-1.692107,2.764695,100033.83,+21,-218,-34
201509,10.811,-19.332,-0.855,1.325902,-1.618676,2.532695,100037.43,+32,-220,-30
201520,9.422,-13.854,-0.266,0.578288,-1.538327,2.121907,100036.70,+41,-220,-30
201530,4.473,-10.154,1.228,0.074380,-1.363263,1.792531,100036.23,+41,-220,-30
201539,1.490,-8.596,0.903,-0.091638,-1.305795,1.807430,100036.60,+49,-220,-31
201549,-0.180,-8.114,0.499,0.047775,-1.191392,1.749430,100036.60,+56,-220,-30
201560,-0.904,-7.451,0.031,0.094600,-1.072731,1.610549,100034.71,+63,-219,-30
201570,-1.100,-5.790,-0.770,0.014784,-1.018988,1.448788,100035.87,+63,-219,-30
201580,-2.036,-4.030,-0.289,-0.002776,-0.904052,1.337577,100033.24,+69,-219,-30
201589,-3.266,-1.547,-0.050,0.002545,-0.804016,1.167834,100034.76,+73,-218,-30
201600,-3.599,0.208,-0.264,0.041389,-0.706640,0.980531,100034.76,+78,-218,-29
201610,-3.235,1.234,-0.719,0.145683,-0.647575,0.881027,100038.39,+78,-218,-29
201620,-3.266,1.745,-1.092,0.251041,-0.619374,0.801210,100036.13,+81,-218,-28
201629,-3.614,1.934,-1.303,0.344160,-0.577337,0.667119,100032.45,+85,-217,-27
201639,-3.985,1.830,-1.455,0.418123,-0.516144,0.537284,100032.13,+86,-217,-25
201650,-4.328,1.658,-1.500,0.454306,-0.459209,0.429266,100032.13,+86,-217,-25
201660,-4.777,1.512,-1.536,0.492086,-0.405998,0.302623,100034.00,+88,-218,-24
201669,-4.972,1.447,-1.415,0.522416,-0.341080,0.168000,100034.00,+89,-216,-22
201679,-4.967,1.430,-1.189,0.520820,-0.275099,0.040825,100033.36,+90,-219,-20
201690,-4.968,1.332,-0.890,0.524545,-0.200071,-0.085285,100031.78,+90,-219,-20
201700,-4.978,1.017,-0.852,0.506985,-0.121851,-0.228422,100031.78,+88,-219,-17
201710,-4.724,0.471,-0.804,0.435683,-0.039374,-0.380073,100033.04,+87,-219,-17
201719,-4.314,-0.120,-0.612,0.306380,0.038846,-0.551945,100033.04,+85,-220,-15
201730,-3.893,-0.490,-0.330,0.108967,0.113342,-0.746697,100030.35,+85,-220,-15
201740,-3.596,-0.897,0.044,-0.072482,0.205397,-0.955816,100034.62,+83,-220,-16
201750,-3.081,-1.401,-0.066,-0.258189,0.324057,-1.164935,100034.62,+77,-221,-16
201759,-2.364,-2.040,0.142,-0.436445,0.469323,-1.371394,100034.72,+73,-221,-18
201769,-1.482,-2.751,0.378,-0.618427,0.612461,-1.590091,100035.61,+73,-221,-18
201780,-0.307,-3.300,0.565,-0.854151,0.752405,-1.852953,100036.81,+66,-220,-21
201790,1.387,-3.388,0.532,-1.132977,0.871598,-2.124329,100035.50,+56,-221,-23
201799,3.422,-3.237,0.306,-1.347949,0.988662,-2.355265,100035.50,+48,-220,-28
201809,5.296,-3.302,-0.188,-1.356995,1.137121,-2.527136,100037.09,+48,-220,-28
201820,6.882,-3.701,-1.028,-1.115417,1.303671,-2.641008,100033.00,+37,-220,-32
201830,8.248,-4.551,-0.999,-0.731234,1.465432,-2.710182,100033.31,+26,-218,-34
201840,9.695,-4.843,-0.094,-0.377381,1.587818,-2.805430,100035.41,+14,-218,-35
201849,11.323,-4.607,0.822,-0.182629,1.670295,-2.964530,100035.41,+14,-218,-35
201860,13.070,-4.762,1.083,-0.161877,1.761285,-3.147044,100039.45,+1,-216,-37
201870,15.093,-5.071,0.784,-0.306610,1.869304,-3.279540,100040.13,-11,-214,-35
201880,17.344,-5.666,0.325,-0.492317,1.979450,-3.305613,100036.71,-25,-212,-35
201889,19.436,-6.285,0.494,-0.641840,2.066184,-3.288053,100036.18,-25,-212,-35
201900,20.552,-6.221,0.737,-0.820096,2.099175,-3.311998,100036.18,-39,-208,-36
201910,20.802,-5.834,0.547,-0.928647,2.128973,-3.289650,100037.75,-51,-203,-36
201920,19.386,-5.895,13.959,-0.713674,2.433340,-3.102347,100038.86,-64,-198,-35
201930,45.778,-15.620,20.386,0.570839,3.788091,-1.588495,100030.45,-64,-198,-35
201939,78.341,-11.294,1.786,-1.957215,0.452828,0.264844,100035.17,-69,-199,-29
201950,18.011,18.020,-25.603,-1.997123,-1.247263,-2.985283,100035.17,-72,-194,-41
201960,-17.921,7.696,8.282,-1.391050,2.061395,-2.671338,100036.60,-84,-187,-40
201970,-14.978,0.338,6.294,-2.100353,0.635341,0.454807,100035.80,-81,-186,-46
201979,1.841,-0.862,1.625,-0.121436,0.663543,0.207908,100037.07,-81,-186,-46
201990,11.194,-6.952,0.499,1.822893,0.786993,-0.031009,100036.87,-83,-187,-40
202000,14.079,-5.758,4.338,2.378415,0.552332,0.514403,100036.87,-82,-191,-32
202010,12.617,-7.251,7.898,1.182233,0.250626,0.495247,100036.20,-81,-192,-31
202019,9.251,-4.300,3.684,-0.474225,0.200075,-0.289083,100036.98,-81,-192,-31
202030,10.234,0.429,0.380,-1.085619,0.233066,-0.427431,100036.67,-83,-190,-34
202040,11.960,0.524,-0.423,-0.603528,0.244773,-0.131046,100035.63,-83,-190,-35
202050,10.707,1.826,-0.317,0.074912,0.367158,0.001981,100035.63,-84,-189,-33
202060,9.384,1.570,0.946,0.443664,0.452828,0.130220,100038.00,-84,-189,-33
202070,9.661,-1.900,2.955,0.521352,0.435268,0.305284,100037.53,-83,-190,-31
202080,10.124,-4.518,3.712,0.295206,0.322993,0.351578,100031.95,-83,-192,-30
202090,10.339,-4.644,3.655,-0.117712,0.202736,0.288256,100035.38,-83,-192,-30
202100,10.094,-3.020,3.691,-0.482207,0.121855,0.206312,100035.38,-83,-192,-30
202109,8.852,-1.249,3.412,-0.574262,0.068112,0.182899,100037.01,-81,-192,-32
202120,8.539,-0.943,2.545,-0.440170,0.027140,0.237706,100037.32,-81,-192,-32
202130,9.702,-1.311,2.181,-0.249143,-0.001062,0.297302,100035.07,-80,-192,-34
202140,10.413,-1.864,2.521,-0.101748,-0.052145,0.294110,100035.48,-80,-192,-34
202149,9.963,-2.049,3.082,-0.041088,-0.152181,0.267504,100035.48,-79,-192,-34
202160,8.960,-2.176,3.270,0.016380,-0.246897,0.258990,100037.72,-78,-193,-34
202170,8.316,-2.313,2.720,0.139830,-0.277227,0.245156,100035.98,-77,-194,-34
202180,8.450,-2.402,2.041,0.263279,-0.280420,0.248348,100038.03,-77,-194,-34
202190,9.185,-2.434,1.458,0.350013,-0.283080,0.267504,100032.16,-76,-193,-33
202200,9.799,-2.435,1.024,0.363848,-0.257539,0.265376,100032.16,-74,-195,-33
202210,9.865,-2.513,1.138,0.356930,-0.194218,0.257394,100038.16,-73,-195,-32
202220,9.528,-2.926,1.321,0.336178,-0.130365,0.231321,100037.12,-73,-195,-32
202230,8.953,-3.150,1.618,0.289352,-0.083007,0.189284,100037.74,-73,-196,-32
202240,8.532,-2.814,2.197,0.247316,-0.070768,0.165871,100035.70,-73,-196,-30
202250,8.540,-2.381,2.568,0.252637,-0.096842,0.174917,100035.70,-73,-197,-30
202260,8.714,-2.158,2.703,0.307444,-0.130365,0.219082,100038.26,-73,-197,-30
202270,9.067,-1.978,2.815,0.319151,-0.173466,0.291981,100037.16,-70,-198,-29
202279,9.613,-1.724,2.683,0.225499,-0.229337,0.382440,100033.96,-70,-200,-29
202290,9.968,-1.362,2.281,0.084490,-0.284677,0.473431,100035.37,-68,-200,-28
202300,10.065,-1.001,1.948,-0.015546,-0.325649,0.550054,100035.37,-68,-200,-28
202310,10.024,-1.180,1.610,0.002013,-0.347998,0.624550,100037.85,-65,-200,-28
202320,9.787,-1.777,1.680,0.096729,-0.349594,0.687871,100037.43,-64,-202,-30
202330,9.540,-2.553,1.800,0.160050,-0.361300,0.718201,100037.74,-60,-202,-29
202340,9.367,-3.124,1.865,0.122270,-0.375135,0.722990,100035.80,-60,-202,-29
202350,9.259,-3.156,1.942,0.002013,-0.391631,0.728311,100035.80,-57,-203,-30
202360,9.310,-2.799,2.172,-0.124629,-0.419832,0.740550,100038.10,-55,-204,-31
202370,9.348,-2.234,2.120,-0.166666,-0.453887,0.760770,100037.57,-52,-204,-32
202380,9.331,-1.822,2.201,-0.082060,-0.489539,0.790568,100034.10,-52,-204,-32
202390,9.279,-2.062,1.857,0.089811,-0.520401,0.824091,100036.52,-48,-206,-31
202400,9.418,-2.280,1.272,0.280839,-0.512419,0.843779,100036.52,-46,-208,-32
202411,9.523,-2.851,0.931,0.396306,-0.486878,0.855485,100034.51,-43,-209,-31
202420,9.518,-3.699,0.688,0.412802,-0.452823,0.845908,100038.04,-39,-209,-30
202430,9.421,-4.152,0.623,0.323407,-0.414511,0.819302,100038.13,-39,-210,-30
202440,9.279,-3.922,0.763,0.167499,-0.373007,0.784183,100036.40,-36,-211,-30
202450,9.317,-4.027,0.769,0.032876,-0.338952,0.763431,100036.40,-34,-211,-30
202460,9.416,-4.235,0.782,-0.074611,-0.301704,0.744807,100036.14,-30,-212,-30
202470,9.291,-4.023,1.051,-0.166666,-0.280952,0.721394,100038.41,-30,-212,-30
202480,9.001,-3.558,1.216,-0.199124,-0.272438,0.711816,100036.52,-28,-213,-32
202490,8.954,-3.460,1.529,-0.148042,-0.274034,0.733100,100035.03,-25,-213,-32
202500,9.079,-3.593,1.582,-0.074079,-0.292658,0.758642,100035.03,-22,-214,-32
202510,9.319,-4.129,1.581,-0.027785,-0.307025,0.785247,100038.41,-22,-214,-32
202520,9.795,-4.363,1.204,-0.065565,-0.331502,0.794293,100038.98,-18,-215,-33
202530,10.022,-4.306,1.267,-0.183161,-0.347465,0.795357,100037.19,-16,-214,-34
202540,9.961,-4.543,1.481,-0.263510,-0.363429,0.805999,100038.34,-12,-215,-35
202550,9.888,-4.724,1.865,-0.330555,-0.373539,0.831541,100038.34,-12,-215,-35
202560,9.834,-5.286,2.958,-0.434849,-0.332566,0.881027,100036.57,-9,-215,-37
202570,10.503,-4.877,2.671,-0.653546,-0.345869,0.906036,100036.82,-5,-215,-39
202580,11.710,-4.302,2.269,-0.816904,-0.400144,0.933706,100038.40,-1,-214,-42
202590,12.693,-4.007,1.465,-0.931839,-0.455484,0.976807,100037.62,-1,-214,-42
202600,13.169,-3.692,0.715,-1.015381,-0.499649,1.027889,100037.62,+2,-214,-44
202610,12.994,-3.398,0.053,-1.115949,-0.548071,1.085357,100040.31,+6,-213,-49
202615,13.154,-3.301,-0.611,-1.165968,-0.582658,1.142293,100036.58,+6,-213,-49
202625,13.443,-3.672,-1.289,-1.208537,-0.613520,1.236476,100036.58,+11,-212,-53
202635,13.870,-4.719,-2.026,-1.361252,-0.646511,1.366843,100038.64,+17,-211,-57
202645,14.563,-5.201,-1.824,-1.707655,-0.704511,1.430696,100035.42,+24,-208,-64
202655,15.865,-3.443,-0.382,-2.185490,-0.874254,1.425907,100035.42,+24,-208,-64
202665,17.042,-0.050,1.277,-2.358958,-1.152015,1.402494,100039.98,+30,-206,-71
202676,17.760,1.771,2.378,-1.780555,-1.359538,1.488164,100036.75,+37,-204,-77
202685,17.917,1.388,3.117,-0.925454,-1.497887,1.606292,100036.33,+45,-202,-80
202695,16.871,0.283,3.598,-0.432188,-1.583024,1.681852,100036.33,+45,-202,-80
202705,15.498,-0.455,4.015,-0.401326,-1.640492,1.731338,100036.33,+54,-201,-80
202715,14.432,-0.896,4.055,-0.646629,-1.687850,1.779760,100039.48,+62,-200,-82
202725,14.147,-0.708,3.925,-0.903638,-1.727758,1.835100,100038.17,+71,-198,-85
202735,14.365,-1.438,3.529,-0.894592,-1.772455,1.959081,100036.23,+71,-198,-85
202745,14.874,-2.183,3.488,-0.596078,-1.840565,2.167136,100036.86,+81,-195,-86
202756,14.678,-2.532,3.532,-0.347583,-1.919318,2.257062,100036.86,+92,-193,-86
202766,13.577,-2.912,3.863,-0.210299,-1.933685,2.199063,100034.65,+102,-191,-85
202775,12.901,-2.973,4.129,0.039261,-1.901758,2.205448,100036.62,+102,-191,-85
202785,12.358,-3.084,4.630,0.366508,-1.812364,2.247484,100034.65,+113,-189,-84
202796,11.596,-2.275,5.029,0.596912,-1.703281,2.194806,100034.65,+123,-188,-80
202806,10.932,-0.525,4.788,0.817737,-1.610162,1.966531,100038.80,+131,-187,-76
202815,9.669,0.164,3.912,1.058251,-1.548969,1.621724,100038.80,+131,-187,-76
202825,8.183,-0.938,1.622,1.171590,-1.541520,1.251907,100037.02,+137,-186,-72
202835,6.382,-5.249,1.340,1.317388,-1.374437,1.117283,100035.70,+143,-188,-67
202845,7.560,-7.867,3.050,1.264177,-1.096676,1.279045,100037.22,+149,-188,-62
202851,8.138,-5.468,2.379,0.707059,-1.130731,0.979467,100037.22,+149,-188,-62
202860,7.727,-2.352,2.148,0.256362,-1.079116,0.453211,100036.73,+151,-187,-60
202870,6.850,0.302,2.602,0.188784,-0.924805,-0.053890,100034.63,+151,-187,-60
202881,5.504,1.574,2.481,0.471866,-0.857227,-0.331119,100034.73,+151,-188,-57
202890,4.915,1.582,1.928,0.787939,-0.743887,-0.619523,100034.15,+151,-188,-55
202900,4.687,0.616,1.668,1.114123,-0.615649,-0.907926,100034.15,+148,-192,-51
202910,4.216,-0.346,1.576,1.373260,-0.517741,-1.158018,100036.92,+145,-194,-46
202920,4.359,-1.002,1.389,1.462654,-0.417704,-1.430990,100034.72,+145,-194,-46
202931,4.574,-1.148,1.450,1.489260,-0.320860,-1.735889,100034.72,+139,-198,-42
202940,4.916,-1.153,1.626,1.532361,-0.229337,-2.019504,100031.72,+132,-202,-37
202950,5.426,-1.186,1.426,1.543535,-0.156438,-2.303650,100031.72,+123,-206,-32
202960,5.807,-1.273,1.233,1.539810,-0.088860,-2.602696,100034.59,+123,-206,-32
202971,6.133,-1.281,1.317,1.575462,-0.026071,-2.865026,100032.28,+113,-211,-27
202980,6.453,-1.150,1.151,1.582379,0.010644,-3.106072,100031.92,+102,-214,-22
202990,6.619,-1.378,1.094,1.615370,0.065984,-3.322640,100029.81,+90,-218,-17
203000,6.845,-1.795,1.406,1.680819,0.141543,-3.510475,100029.81,+90,-218,-17
203011,6.912,-2.197,1.721,1.712746,0.206993,-3.694585,100032.29,+76,-220,-10
203020,6.851,-2.973,1.993,1.743608,0.301176,-3.876034,100030.40,+60,-224,-5
203030,7.075,-3.589,2.328,1.762764,0.420369,-4.065465,100030.77,+45,-226,+0
203040,7.561,-3.768,2.462,1.732434,0.550204,-4.237869,100027.41,+45,-226,+0
203051,8.323,-3.808,2.780,1.650489,0.685360,-4.378878,100027.41,+29,-225,+6
203061,9.273,-4.132,2.545,1.505223,0.789653,-4.499135,100034.59,+11,-224,+11
203070,9.892,-4.683,2.539,1.291315,0.891818,-4.600236,100032.12,-4,-222,+16
203080,10.397,-5.305,2.433,1.059847,1.000901,-4.717300,100031.23,-4,-222,+16
203086,10.810,-5.834,2.343,0.926288,1.097745,-4.809887,100031.90,-23,-219,+18
203096,11.081,-6.604,2.262,0.855517,1.187139,-4.837025,100031.90,-41,-219,+23
203106,11.388,-7.394,2.124,0.777297,1.296221,-4.802970,100031.90,-41,-214,+23
203115,11.904,-7.151,1.874,0.647994,1.411157,-4.816804,100032.84,-58,-208,+25
203125,12.737,-6.631,1.437,0.619793,1.520772,-4.815741,100031.26,-73,-201,+30
203136,13.427,-6.595,0.810,0.776765,1.596864,-4.718364,100032.15,-89,-194,+35
203146,13.603,-7.539,0.452,1.119976,1.640496,-4.540108,100032.15,-89,-194,+35
203156,13.712,-8.769,0.418,1.510012,1.650074,-4.335245,100035.54,-102,-184,+40
203165,13.916,-9.224,0.475,1.724452,1.609634,-4.188915,100035.54,-115,-176,+47
203175,14.060,-8.885,0.317,1.732966,1.543121,-4.110695,100032.96,-126,-166,+55
203186,14.220,-8.598,0.191,1.691994,1.476075,-4.014383,100033.70,-126,-166,+55
203195,14.299,-8.875,0.227,1.634526,1.373910,-3.862732,100035.96,-135,-156,+62
203205,14.032,-9.399,0.444,1.537150,1.263231,-3.674365,100035.96,-143,-145,+69
203215,13.865,-9.638,0.687,1.432856,1.177561,-3.409374,100040.29,-152,-136,+73
203226,13.530,-10.201,0.906,1.383902,1.134460,-3.052861,100035.55,-152,-136,+73
203236,12.741,-11.378,0.903,1.336012,1.116901,-2.647925,100037.82,-156,-127,+80
203245,11.923,-13.014,0.782,1.141260,1.123818,-2.199357,100035.85,-162,-119,+84
203255,11.305,-14.909,0.269,0.635224,1.109451,-1.722054,100039.07,-164,-113,+88
203266,10.453,-16.258,-0.154,-0.183693,1.038680,-1.254330,100037.70,-164,-113,+88
203276,10.022,-15.478,-0.595,-1.132977,0.862552,-0.783945,100035.43,-165,-111,+89
203285,10.695,-12.462,-0.976,-1.834298,0.561910,-0.272055,100035.43,-166,-112,+86
203295,11.247,-8.786,-1.053,-1.890169,0.222424,0.273890,100035.49,-164,-115,+83
203305,10.967,-5.559,-0.397,-1.391582,-0.075025,0.784715,100035.49,-164,-115,+83
203316,10.252,-4.759,1.444,-0.487528,-0.238383,1.260953,100040.05,-162,-117,+81
203325,8.971,-4.596,8.682,0.538380,-0.094713,1.723889,100039.65,-158,-123,+82
203335,11.822,6.140,15.160,0.450050,0.234131,1.756347,100034.60,-155,-127,+83
203345,19.356,17.377,5.692,-0.978133,0.133562,0.855485,100034.02,-155,-127,+83
203356,20.537,7.932,-6.853,-1.104243,-0.247429,0.870917,100034.02,-154,-129,+80
203366,20.240,-5.572,-0.759,0.950233,-0.261264,2.175650,100036.98,-149,-133,+80
203375,16.107,-9.173,0.758,1.561095,-0.394823,2.600805,100038.55,-143,-139,+83
203385,11.000,-4.273,-3.787,0.692692,-0.521465,2.009099,100034.82,-143,-139,+83
203396,8.987,-0.182,-4.081,-0.053326,-0.366089,1.688237,100034.82,-140,-143,+83
203406,8.067,-0.630,1.289,-0.241693,-0.155374,2.029852,100034.82,-135,-148,+81
203415,8.242,-1.846,5.361,-0.226262,0.071837,2.103815,100040.39,-128,-153,+81
203425,10.157,-2.464,6.426,-0.224666,0.084608,2.071356,100036.77,-128,-153,+81
203436,10.247,-3.563,5.269,-0.175712,-0.200603,1.998989,100035.55,-124,-158,+81
203446,9.288,-3.401,3.746,-0.189014,-0.337887,1.731338,100037.03,-119,-162,+80
203455,9.705,-2.276,1.902,-0.210299,-0.342144,1.488696,100037.03,-115,-166,+79
203465,10.518,-1.144,0.426,-0.265106,-0.325117,1.411008,100038.26,-115,-166,+79
203475,10.513,-0.835,-0.336,-0.413032,-0.306493,1.370568,100037.73,-111,-168,+77
203486,10.907,-0.576,-0.398,-0.551381,-0.230933,1.291283,100035.79,-108,-172,+76
203496,11.195,-0.194,0.881,-0.536482,-0.151117,1.254568,100035.79,-104,-174,+74
203505,10.405,-0.333,2.176,-0.386959,-0.123979,1.223705,100039.05,-104,-174,+74
203515,9.716,-1.200,2.898,-0.253400,-0.138878,1.172623,100039.05,-101,-177,+74
203526,9.319,-1.910,2.829,-0.270959,-0.197411,1.104513,100038.27,-97,-180,+73
203536,9.310,-1.745,2.385,-0.387491,-0.219227,1.006073,100035.27,-94,-182,+71
203545,9.696,-1.356,2.164,-0.461454,-0.199539,0.927320,100033.64,-92,-182,+69
203555,9.882,-1.359,1.989,-0.436445,-0.183576,0.882091,100033.64,-92,-184,+69
203566,9.767,-1.466,1.814,-0.378445,-0.168677,0.838458,100035.70,-89,-186,+67
203576,9.633,-1.709,1.738,-0.357693,-0.147924,0.799082,100037.33,-87,-188,+67
203586,9.623,-1.837,1.796,-0.433253,-0.123979,0.768220,100037.97,-85,-189,+65
203595,9.799,-1.722,1.856,-0.587032,-0.117594,0.743210,100034.81,-85,-189,+65
203606,9.984,-1.339,2.018,-0.697711,-0.111741,0.724586,100037.75,-82,-190,+63
203616,10.119,-1.019,2.270,-0.721124,-0.129833,0.718201,100038.97,-81,-191,+61
203626,9.981,-0.905,2.427,-0.664188,-0.151649,0.734164,100034.81,-79,-194,+59
203635,9.571,-1.071,2.523,-0.601931,-0.160695,0.754385,100034.81,-79,-194,+59
203645,9.281,-1.309,2.524,-0.576390,-0.186768,0.776733,100034.13,-76,-194,+57
203656,9.192,-1.311,2.705,-0.559363,-0.226677,0.803339,100034.13,-73,-196,+56
203666,9.062,-1.136,3.160,-0.518922,-0.258071,0.827816,100040.50,-70,-198,+53
203671,8.914,-1.096,3.303,-0.465711,-0.281484,0.846440,100036.19,-70,-198,+53
203680,8.752,-1.132,3.403,-0.391216,-0.303300,0.867192,100035.81,-68,-199,+52
203691,8.507,-1.237,3.476,-0.253400,-0.338952,0.895394,100033.92,-68,-199,+52
203701,8.179,-1.803,3.332,-0.055987,-0.379924,0.921999,100033.92,-64,-201,+51
203711,7.971,-2.579,3.010,0.078637,-0.402273,0.938495,100038.49,-62,-200,+51
203720,8.252,-3.474,2.521,0.057885,-0.408126,0.939559,100034.38,-60,-202,+51
203730,8.880,-3.659,1.489,-0.135271,-0.416640,0.915082,100034.85,-60,-202,+51
203741,9.634,-2.875,0.639,-0.372592,-0.421429,0.889541,100036.38,-56,-204,+48
203751,9.876,-2.043,0.100,-0.457730,-0.444309,0.894862,100036.38,-52,-205,+47
203760,9.620,-1.364,0.010,-0.368867,-0.475172,0.937430,100039.18,-49,-206,+45
203770,9.271,-0.768,0.525,-0.161877,-0.508695,0.997559,100038.40,-49,-206,+45
203781,9.027,-0.547,1.635,0.144619,-0.581594,1.079504,100038.24,-47,-208,+45
203791,8.552,-0.783,2.894,0.486765,-0.672584,1.146550,100033.66,-43,-208,+45
203800,7.889,-1.517,3.653,0.817205,-0.694933,1.185926,100033.66,-39,-210,+47
203810,7.455,-2.993,3.689,1.089646,-0.686951,1.242329,100037.05,-35,-210,+50
203821,7.503,-4.634,3.172,1.167333,-0.650236,1.287559,100037.16,-35,-210,+50
203831,8.317,-5.719,2.221,0.905536,-0.595429,1.276384,100035.74,-32,-212,+52
203841,9.607,-5.563,0.781,0.400563,-0.557117,1.225302,100035.27,-27,-214,+54
203850,10.724,-4.123,-0.623,-0.058647,-0.553392,1.162513,100035.27,-24,-213,+52
203860,11.336,-2.392,-1.405,-0.253400,-0.580530,1.146017,100038.59,-24,-213,+52
203871,11.469,-1.721,-1.749,-0.115051,-0.612988,1.208806,100035.38,-18,-214,+51
203881,11.477,-2.088,-1.499,0.166435,-0.638529,1.304054,100037.49,-14,-216,+51
203890,11.536,-3.270,-0.907,0.370233,-0.669392,1.392384,100036.80,-9,-217,+52
203900,11.899,-4.542,-0.345,0.404288,-0.712493,1.461026,100036.80,-9,-217,+52
203911,12.427,-5.040,0.366,0.173352,-0.733777,1.478054,100039.84,-5,-217,+52
203921,12.981,-4.783,0.725,-0.182629,-0.756126,1.471669,100037.68,+0,-218,+52
203931,13.425,-3.816,0.745,-0.445491,-0.802951,1.490292,100035.52,+4,-219,+49
203940,13.816,-2.737,1.035,-0.524776,-0.881704,1.547228,100033.99,+4,-219,+49
203951,13.885,-2.399,1.377,-0.438042,-0.974823,1.657375,100033.99,+11,-220,+48
203961,14.080,-2.706,1.648,-0.324170,-1.063153,1.788806,100037.81,+17,-222,+47
203971,14.300,-3.197,1.777,-0.288519,-1.146694,1.897356,100038.34,+24,-221,+45
203980,14.467,-3.535,2.080,-0.371528,-1.225447,1.967595,100036.19,+24,-221,+45
203991,14.621,-3.749,2.381,-0.543399,-1.288236,2.022934,100036.34,+30,-223,+44
204001,14.717,-3.734,2.631,-0.780720,-1.313245,2.064439,100036.34,+37,-222,+40
204011,14.724,-3.623,2.494,-1.115949,-1.301538,2.079870,100038.85,+45,-222,+37
204020,15.082,-2.827,2.267,-1.551747,-1.280254,2.076677,100035.65,+45,-222,+37
204030,16.354,-1.181,2.269,-2.019472,-1.273869,2.058053,100035.38,+53,-222,+30
204041,18.113,1.108,2.603,-2.402059,-1.299942,2.030384,100037.45,+60,-222,+23
204051,19.080,2.837,2.675,-2.566481,-1.378694,2.033576,100037.45,+69,-221,+15
204061,18.652,2.977,2.481,-2.274352,-1.503208,2.160751,100037.70,+69,-221,+15
204070,18.305,1.780,2.879,-1.462885,-1.670823,2.450750,100035.28,+77,-219,+8
204081,17.815,0.563,3.991,-0.537014,-1.841630,2.674769,100034.50,+88,-216,+7
204091,17.099,-0.665,5.260,0.100453,-1.969868,2.700310,100032.28,+97,-214,+8
204101,15.943,-1.713,6.119,0.447389,-2.028400,2.632732,100032.28,+97,-214,+8
204110,14.947,-1.785,6.538,0.820398,-2.049685,2.547594,100038.26,+108,-212,+12
204121,13.859,-1.244,7.514,1.347719,-2.004455,2.403925,100035.37,+117,-210,+18
204131,12.174,-0.753,7.286,1.944214,-1.940602,2.121907,100036.32,+124,-209,+25
204141,9.644,-0.344,4.449,2.240244,-1.860786,1.615516,100034.27,+124,-209,+25
204150,7.647,-4.888,-0.459,2.207608,-1.817685,1.193907,100034.27,+130,-206,+33
204161,6.097,-13.583,2.337,1.674434,-1.445208,1.249247,100033.64,+134,-205,+40
204171,6.353,-6.438,2.859,-0.028317,-1.388804,0.655944,100031.69,+136,-204,+41
204181,5.978,1.525,1.971,-1.529931,-1.214272,-0.450844,100033.42,+136,-204,+41
204191,5.289,2.791,1.778,-1.562389,-1.067942,-0.841945,100032.69,+134,-204,+38
204200,4.210,1.356,0.909,-1.205876,-1.054107,-0.799908,100032.69,+131,-205,+34
204211,4.022,0.627,0.931,-0.699308,-0.889153,-1.015944,100034.45,+128,-206,+32
204221,4.684,0.914,0.074,-0.100152,-0.768364,-1.434715,100030.51,+128,-206,+32
204231,4.410,0.913,0.772,0.507517,-0.644383,-1.764091,100036.60,+123,-207,+34
204240,4.286,0.559,1.296,1.157755,-0.551796,-1.966825,100032.51,+116,-208,+37
204251,4.539,0.305,1.431,1.807462,-0.449631,-2.177540,100032.51,+109,-210,+44
204261,4.745,-0.538,1.485,2.449186,-0.375667,-2.387724,100033.93,+101,-210,+52
204271,4.890,-1.522,1.622,2.846140,-0.322988,-2.643668,100031.62,+101,-212,+52
204280,5.052,-2.464,2.079,2.934470,-0.265521,-2.890567,100032.26,+91,-212,+61
204291,5.317,-3.124,2.549,2.810488,-0.197411,-3.097558,100028.37,+80,-212,+69
204301,5.425,-3.327,2.857,2.568911,-0.123979,-3.313062,100028.37,+69,-214,+78
204311,5.534,-3.484,3.114,2.262948,-0.036713,-3.520585,100030.53,+69,-214,+78
204321,5.951,-3.605,3.283,1.918140,0.055342,-3.710548,100026.70,+58,-212,+84
204331,6.629,-3.447,3.136,1.556306,0.147929,-3.917007,100030.80,+44,-212,+88
204341,7.351,-3.502,2.890,1.281205,0.264461,-4.078236,100025.64,+31,-211,+91
204351,8.015,-4.201,3.007,1.082196,0.393231,-4.179869,100025.64,+31,-211,+91
204361,8.529,-4.901,3.320,0.889572,0.520938,-4.297997,100030.23,+18,-209,+95
204370,8.779,-4.988,3.505,0.664490,0.664075,-4.468805,100029.96,+3,-208,+97
204377,8.842,-4.735,3.332,0.522949,0.775286,-4.590658,100029.02,+3,-208,+97
204386,9.010,-4.585,3.043,0.493683,0.904589,-4.672071,100029.02,-9,-206,+98
204396,9.422,-4.897,2.688,0.603297,1.081249,-4.733263,100031.54,-24,-203,+102
204406,9.913,-5.281,2.360,0.781022,1.246735,-4.759869,100031.54,-24,-203,+102
204417,10.355,-5.253,2.385,0.963535,1.406900,-4.757740,100032.91,-37,-198,+105
204426,10.903,-5.213,2.469,1.121040,1.568130,-4.741777,100029.57,-49,-194,+109
204436,11.605,-5.113,2.227,1.221609,1.698496,-4.736456,100032.88,-61,-188,+115
204446,12.279,-5.304,1.759,1.341333,1.808643,-4.710382,100032.88,-61,-188,+115
204455,12.987,-5.763,1.571,1.503095,1.896441,-4.642272,100032.88,-72,-182,+122
204466,13.701,-5.980,1.707,1.636654,1.929964,-4.581612,100035.02,-83,-175,+129
204476,14.566,-5.799,1.432,1.677627,1.892184,-4.551814,100033.75,-92,-166,+137
204486,15.276,-6.963,1.175,1.795223,1.852276,-4.469337,100031.13,-102,-158,+146
204496,15.986,-8.858,0.778,1.803205,1.787891,-4.328328,100033.22,-102,-158,+146
204506,16.094,-10.483,0.634,1.636654,1.727230,-4.178273,100033.22,-109,-150,+154
204516,15.389,-11.904,0.906,1.382838,1.672955,-3.980860,100035.63,-117,-140,+163
204526,14.334,-12.720,0.884,1.066233,1.613359,-3.711081,100035.69,-122,-133,+170
204536,13.550,-13.042,0.800,0.763994,1.566533,-3.386494,100035.88,-122,-133,+170
204546,12.738,-13.256,0.330,0.465481,1.494166,-3.086916,100035.88,-126,-126,+176
204556,11.718,-13.864,-0.248,0.133976,1.394130,-2.735723,100038.36,-130,-121,+180
204566,11.295,-14.768,-0.613,-0.179968,1.274405,-2.216384,100038.45,-132,-119,+184
204576,11.254,-15.590,-0.902,-0.560959,1.102534,-1.625210,100038.45,-132,-119,+184
204585,10.928,-15.345,-1.364,-0.948867,0.866277,-1.039889,100035.09,-132,-118,+187
204596,10.697,-13.857,-1.709,-1.156922,0.572020,-0.383798,100035.83,-131,-121,+187
204606,10.360,-12.180,-1.988,-1.107436,0.241048,0.323376,100035.83,-130,-124,+187
204616,9.795,-11.068,-2.208,-0.800408,-0.061723,0.985320,100036.34,-130,-124,+187
204626,9.847,-8.720,-2.028,-0.281601,-0.330438,1.518494,100037.29,-127,-129,+187
204636,9.960,-3.811,6.160,0.503793,-0.370346,1.929815,100038.38,-122,-133,+188
204646,14.876,19.305,17.126,0.721426,-0.201135,1.716971,100033.55,-119,-135,+190
204656,27.198,32.366,-2.439,-0.703032,-0.475172,0.125431,100035.99,-119,-135,+190
204666,28.495,-3.316,-8.760,0.735260,-0.236255,1.894164,100039.98,-119,-138,+189
204677,24.336,-17.209,1.477,4.142891,-0.260732,3.709190,100037.93,-110,-137,+199
204686,13.224,-12.776,-2.937,1.894195,-0.639062,2.763099,100037.93,-105,-139,+201
204696,4.541,-3.989,-3.164,-0.521051,-0.309686,1.512641,100038.15,-105,-139,+201
204706,2.571,1.692,3.691,-0.951528,-0.217631,1.879265,100038.15,-102,-145,+199
204717,3.054,0.415,9.433,-0.258189,-0.044163,2.360292,100038.47,-96,-150,+199
204727,9.590,-1.295,8.073,0.438875,0.125757,2.343442,100034.77,-90,-154,+200
204736,14.766,-4.288,4.100,0.539976,-0.433667,2.460328,100034.77,-90,-154,+200
204746,13.752,-6.848,1.804,0.464949,-0.741759,2.204384,100036.47,-85,-156,+202
204756,11.510,-5.331,0.906,-0.060776,-0.703447,1.586604,100036.47,-82,-159,+202
204766,10.651,-2.517,-1.178,-0.360354,-0.722071,1.228494,100038.42,-81,-162,+199
204776,9.141,-1.141,-2.076,-0.233711,-0.639594,1.259889,100038.38,-81,-162,+199
204786,8.738,-0.883,-0.963,0.006802,-0.524658,1.397705,100036.58,-79,-164,+199
204796,9.548,-0.423,0.213,0.186123,-0.389502,1.393981,100036.58,-75,-166,+199
204806,10.053,-0.401,0.976,0.356930,-0.232530,1.304586,100036.58,-72,-167,+199
204816,9.850,-0.806,1.660,0.445793,-0.132493,1.214660,100036.31,-72,-167,+199
204826,9.451,-1.291,1.853,0.384600,-0.098970,1.131118,100036.78,-69,-168,+201
204836,9.137,-2.282,1.807,0.258490,-0.091521,1.023100,100038.25,-67,-169,+202
204847,9.317,-2.688,1.343,-0.097491,-0.070059,0.906745,100035.62,-64,-170,+201
204856,9.817,-2.201,1.236,-0.503491,-0.052145,0.812917,100035.62,-64,-170,+201
204866,10.145,-1.127,1.108,-0.804133,-0.044695,0.725119,100040.24,-62,-173,+199
204876,10.035,0.343,1.316,-0.744005,-0.028732,0.686807,100036.46,-60,-176,+197
204887,9.561,0.785,1.640,-0.402390,-0.009044,0.718201,100036.73,-58,-178,+197
204897,9.220,0.483,1.833,0.005206,-0.011704,0.795357,100037.63,-58,-178,+197
204906,9.248,-0.251,1.922,0.258490,-0.028200,0.870917,100036.27,-56,-180,+198
204916,9.597,-1.093,1.999,0.279242,-0.047888,0.922531,100038.01,-53,-180,+199
204926,9.750,-1.541,2.218,0.118545,-0.077154,0.940623,100038.01,-50,-180,+199
204936,9.663,-1.668,1.819,-0.095895,-0.102695,0.937430,100034.43,-47,-180,+199
204946,9.783,-1.318,1.649,-0.223069,-0.111209,0.935834,100035.48,-47,-182,+199
204956,9.671,-0.957,1.610,-0.231583,-0.129300,0.954990,100035.48,-45,-182,+197
204961,9.548,-0.844,1.608,-0.189014,-0.141007,0.980531,100036.77,-45,-182,+197
204972,9.553,-0.958,1.643,-0.137932,-0.145796,1.011926,100036.20,-42,-185,+197
204981,9.585,-1.326,1.774,-0.101216,-0.167080,1.043852,100035.09,-39,-186,+198
204991,9.645,-1.511,1.847,-0.127290,-0.196346,1.065137,100034.20,-36,-188,+197
205001,9.780,-1.425,1.853,-0.168262,-0.221355,1.090146,100034.20,-36,-188,+197
205011,9.747,-1.359,1.878,-0.157088,-0.247961,1.124733,100035.76,-33,-188,+197
205021,9.716,-1.409,1.593,-0.100684,-0.275631,1.163577,100037.12,-31,-190,+196
205031,9.779,-1.722,1.525,-0.035767,-0.294254,1.207742,100036.80,-28,-191,+196
205041,9.585,-2.274,1.498,-0.013418,-0.311282,1.233283,100036.18,-28,-191,+196
205051,9.408,-2.410,1.356,-0.059179,-0.323521,1.237008,100036.18,-23,-192,+195
205062,9.384,-2.518,1.558,-0.119308,-0.343741,1.242329,100038.81,-20,-194,+195
205071,9.431,-2.372,1.977,-0.154959,-0.372475,1.251375,100035.66,-17,-195,+195
205081,9.508,-2.246,2.143,-0.136335,-0.403869,1.261485,100037.34,-17,-195,+195
205091,9.738,-2.596,1.977,-0.068225,-0.427814,1.273724,100033.45,-13,-196,+194
205102,9.841,-3.024,1.798,-0.034170,-0.439520,1.270531,100033.45,-11,-198,+194
205111,9.680,-3.286,1.593,-0.056519,-0.431539,1.256696,100036.82,-8,-198,+193
205121,9.645,-3.455,1.533,-0.098023,-0.415043,1.259889,100039.98,-8,-198,+193
205131,9.799,-3.515,1.492,-0.170923,-0.397484,1.270531,100037.24,-5,-199,+194
205142,10.150,-3.597,1.325,-0.261381,-0.383649,1.288623,100037.71,-2,-201,+193
205151,10.515,-3.790,1.286,-0.375785,-0.380456,1.321614,100037.71,+1,-202,+192
205161,10.645,-3.775,1.359,-0.517858,-0.400676,1.353540,100038.01,+4,-202,+192
205171,10.673,-3.535,2.128,-0.646097,-0.424089,1.395577,100036.43,+4,-204,+190
205181,10.938,-3.538,2.199,-0.698775,-0.462401,1.470072,100039.43,+8,-206,+187
205192,11.526,-3.541,1.979,-0.678555,-0.520933,1.541375,100036.27,+11,-208,+185
205197,12.040,-3.751,1.912,-0.676427,-0.574144,1.592458,100036.27,+11,-208,+185
205206,12.683,-3.999,1.685,-0.732830,-0.623630,1.640880,100036.27,+17,-210,+183
205216,13.320,-3.637,1.328,-0.848298,-0.686951,1.706861,100039.57,+19,-212,+181
205227,13.521,-3.255,0.972,-0.939289,-0.749208,1.782953,100039.15,+19,-212,+181
205237,13.836,-3.203,0.628,-1.005803,-0.813061,1.874476,100037.73,+24,-214,+177
205246,14.573,-2.975,0.518,-1.089876,-0.881172,1.987815,100034.93,+28,-218,+175
205256,15.393,-2.664,0.968,-1.204280,-0.952474,2.110732,100039.66,+34,-220,+170
205266,15.946,-2.368,1.666,-1.338903,-1.009410,2.235246,100039.60,+34,-220,+170
205277,16.448,-2.144,2.385,-1.525142,-1.043997,2.350714,100039.60,+39,-223,+166
205286,17.417,-1.467,3.211,-1.805564,-1.095612,2.437448,100035.88,+45,-226,+161
205296,18.913,-0.431,4.110,-2.099820,-1.185538,2.483209,100037.13,+51,-229,+154
205306,20.541,1.266,4.695,-2.373857,-1.245667,2.478952,100037.13,+51,-229,+154
205317,21.329,3.628,5.169,-2.647361,-1.278658,2.381576,100039.52,+55,-233,+147
205326,21.050,5.725,4.581,-2.839453,-1.364859,2.259723,100038.20,+59,-237,+138
205336,20.643,5.476,3.228,-2.684077,-1.517575,2.283668,100035.94,+63,-239,+130
205346,20.534,1.363,1.750,-1.960408,-1.774052,2.545466,100032.53,+63,-239,+130
205357,19.624,-1.139,2.206,-1.116482,-2.011905,2.756181,100036.66,+68,-241,+127
205367,17.020,-2.165,3.467,-0.386959,-2.134822,2.718402,100033.88,+71,-239,+125
205376,14.376,-3.959,4.953,0.275518,-2.101831,2.621558,100036.45,+74,-236,+127
205386,12.775,-4.339,6.742,0.735793,-1.936877,2.517264,100034.55,+76,-232,+129
205396,10.952,-0.871,7.712,1.137003,-1.774052,2.176182,100034.55,+76,-232,+129
205407,8.181,3.166,5.415,1.603131,-1.645813,1.475393,100034.55,+75,-227,+133
205416,1.307,-2.608,1.636,1.822893,-1.511190,0.852825,100036.96,+71,-219,+136
205426,1.881,-11.470,0.963,0.999719,-1.254713,1.023100,100033.71,+69,-216,+133
205436,7.446,-5.776,0.263,-0.553509,-1.226511,0.575064,100034.80,+69,-216,+133
205447,6.682,-1.393,1.253,-1.314426,-1.011539,-0.334844,100033.96,+66,-213,+126
205457,4.928,1.913,0.475,-1.052628,-0.953006,-0.882385,100033.96,+60,-212,+117
205466,3.017,2.090,0.434,-0.350776,-0.816254,-1.048403,100035.27,+54,-210,+111
205476,2.850,1.537,1.000,0.712912,-0.639062,-1.156954,100034.23,+54,-210,+111
205487,2.817,0.324,1.362,1.750526,-0.494860,-1.386293,100034.73,+51,-206,+111
205497,2.401,-0.609,2.284,2.461957,-0.329374,-1.642770,100034.73,+45,-202,+114
205506,2.437,-0.844,3.050,2.905736,-0.163888,-1.921595,100034.73,+41,-198,+117
205516,2.703,-1.474,3.387,3.062176,-0.029264,-2.228091,100033.87,+41,-198,+117
205527,2.984,-1.721,2.554,2.947773,0.070241,-2.546292,100033.76,+36,-192,+123
205537,3.584,-1.643,1.448,2.641810,0.202204,-2.840549,100034.45,+29,-190,+127
205546,4.532,-2.109,0.814,2.157058,0.350663,-3.077338,100029.18,+22,-189,+129
205556,5.435,-2.776,0.326,1.588764,0.461873,-3.277411,100029.18,+22,-189,+129
205566,6.003,-2.817,0.053,1.116783,0.537433,-3.494512,100031.45,+15,-186,+132
205577,6.117,-1.974,-0.144,0.885847,0.603947,-3.728640,100030.55,+7,-186,+132
205587,6.166,-1.414,0.047,0.950233,0.693873,-3.927117,100027.82,-1,-184,+134
205596,6.616,-1.633,0.551,1.230122,0.782736,-4.049502,100026.70,-1,-184,+134
205606,7.320,-2.196,1.108,1.592489,0.858295,-4.139429,100031.63,-13,-181,+137
205617,7.941,-3.093,1.757,1.873443,0.941836,-4.252768,100029.48,-22,-178,+142
205627,8.376,-4.148,1.974,1.961773,1.015268,-4.386328,100029.48,-34,-171,+148
205636,8.776,-4.774,1.824,1.864929,1.089231,-4.529465,100030.59,-34,-171,+148
205646,9.491,-4.891,1.404,1.733498,1.152020,-4.666217,100030.52,-43,-166,+153
205657,10.332,-5.225,0.604,1.631865,1.194057,-4.761465,100030.52,-55,-159,+158
205667,11.109,-6.308,0.294,1.503627,1.210552,-4.751355,100034.04,-65,-152,+163
205676,11.694,-7.561,0.367,1.205645,1.190332,-4.693887,100030.73,-65,-152,+163
205686,12.471,-7.941,0.772,0.825187,1.182882,-4.714108,100032.62,-75,-143,+168
205697,13.260,-7.302,0.974,0.567646,1.188203,-4.788603,100032.09,-85,-136,+171
205707,13.765,-6.534,1.024,0.549022,1.200974,-4.781153,100032.09,-94,-127,+175
205717,13.876,-6.047,0.938,0.743774,1.202038,-4.655043,100034.70,-94,-127,+175
205726,13.920,-5.878,0.770,0.989609,1.203634,-4.475190,100035.30,-102,-117,+179
205736,14.354,-6.121,0.958,1.217884,1.204699,-4.275649,100032.82,-109,-107,+183
205747,14.851,-6.648,1.079,1.362618,1.179690,-4.087282,100032.82,-113,-96,+189
205756,14.740,-6.911,0.785,1.375388,1.169579,-3.938823,100032.82,-113,-96,+189
205766,14.342,-6.974,0.815,1.392948,1.195653,-3.767484,100035.49,-119,-85,+193
205776,13.883,-7.885,0.677,1.437113,1.212148,-3.492383,100038.65,-122,-72,+198
205787,13.352,-9.302,0.712,1.407847,1.215341,-3.151833,100036.80,-124,-62,+202
205797,13.381,-10.622,0.527,1.249278,1.200442,-2.804898,100035.76,-124,-62,+202
205807,13.000,-11.364,0.476,0.895425,1.162662,-2.514898,100035.76,-125,-53,+207
205816,11.874,-11.621,0.339,0.405884,1.102001,-2.260549,100038.59,-125,-46,+209
205827,11.075,-11.155,0.447,-0.116647,1.047194,-1.927449,100037.38,-125,-42,+212
205837,10.926,-10.462,0.980,-0.575858,0.959928,-1.523045,100035.44,-124,-40,+214
205847,10.360,-9.862,1.113,-0.854684,0.840736,-1.110660,100035.44,-124,-40,+214
205856,10.252,-8.976,0.567,-0.877032,0.666204,-0.643468,100040.32,-124,-41,+214
205867,10.216,-8.687,0.169,-0.695051,0.474112,-0.141156,100040.32,-122,-42,+215
205877,9.995,-8.478,-0.346,-0.504023,0.261800,0.344128,100037.27,-121,-45,+214
205887,10.150,-6.995,-0.499,-0.339601,0.057470,0.773541,100039.05,-121,-45,+214
205896,10.569,-6.663,0.005,-0.020868,-0.091521,1.154531,100038.96,-120,-48,+215
205902,10.249,-6.368,2.726,0.390985,-0.128236,1.462623,100038.96,-120,-48,+215
205912,9.831,-5.799,8.834,0.911921,0.067048,1.798916,100037.58,-119,-50,+215
205922,16.072,3.448,9.777,0.520288,0.176131,1.933008,100036.27,-117,-52,+218
205932,24.289,12.877,-2.086,-0.623216,-0.489539,1.401962,100037.00,-116,-57,+216
205941,22.394,3.871,-3.455,0.385664,-0.346933,1.776567,100041.31,-116,-57,+216
205952,18.547,-6.307,-0.787,1.776067,-0.209649,2.664659,100041.31,-114,-59,+217
205962,12.846,-8.503,-0.120,1.571205,-0.264456,2.617301,100041.50,-111,-59,+219
205972,5.669,-7.681,1.429,0.445793,-0.159099,2.124567,100037.83,-108,-63,+219
205981,5.167,-5.650,3.296,-0.110262,0.045764,2.107008,100037.05,-108,-63,+219
205991,10.279,-3.455,3.551,0.004142,-0.062787,2.417228,100038.98,-105,-68,+219
206002,11.311,-2.422,2.341,0.263811,-0.225080,2.109668,100038.98,-103,-72,+219
206012,10.484,-1.304,3.062,0.271793,-0.203264,1.774439,100035.13,-100,-75,+219
206021,10.114,-1.881,3.143,0.312765,-0.318732,1.747301,100034.91,-100,-75,+219
206031,10.100,-3.255,1.022,0.295738,-0.442713,1.598311,100039.65,-98,-77,+220
206042,10.042,-3.484,-0.557,0.125995,-0.424089,1.389192,100037.70,-98,-80,+219
206052,10.124,-2.267,-0.660,-0.123033,-0.344273,1.235944,100037.70,-96,-83,+218
206062,10.153,-0.968,-0.032,-0.278409,-0.210181,1.142293,100041.76,-95,-83,+218
206071,10.130,-0.085,0.524,-0.327895,-0.072365,1.109302,100039.51,-95,-85,+219
206082,9.814,-0.011,1.137,-0.237436,0.034589,1.077375,100037.66,-93,-89,+218
206092,9.580,-0.315,1.810,-0.127822,0.081947,1.021504,100035.24,-91,-91,+217
206102,9.451,-1.468,2.190,-0.113455,0.084076,0.940623,100035.24,-88,-93,+218
206111,9.710,-2.749,1.847,-0.284262,0.069709,0.835797,100038.75,-88,-93,+218
206121,10.156,-2.840,1.376,-0.591821,0.080351,0.711284,100040.48,-88,-95,+217
206132,10.120,-1.779,1.082,-0.877564,0.112277,0.578788,100040.91,-86,-99,+216
206142,9.718,-0.650,1.327,-0.957913,0.148461,0.510678,100036.02,-85,-102,+214
206151,9.585,-0.067,1.569,-0.810518,0.154314,0.525045,100036.02,-85,-102,+214
206161,9.508,0.027,1.910,-0.530629,0.144736,0.551651,100038.64,-84,-105,+213
206172,9.362,-0.283,2.451,-0.290647,0.111745,0.575596,100037.59,-82,-108,+214
206182,9.238,-0.786,2.747,-0.203913,0.080883,0.595284,100039.16,-81,-109,+212
206192,9.295,-1.211,2.707,-0.232647,0.040443,0.608054,100036.84,-81,-109,+212
206201,9.289,-0.974,2.950,-0.264042,-0.030328,0.613908,100036.84,-80,-111,+212
206212,9.101,-0.436,3.239,-0.240097,-0.105888,0.621889,100037.30,-79,-112,+212
206222,8.864,-0.180,3.253,-0.142189,-0.139943,0.648495,100040.15,-77,-113,+211
206232,8.797,-0.210,3.365,-0.030446,-0.155374,0.688935,100036.68,-77,-113,+211
206241,8.653,-0.170,3.743,0.050967,-0.208053,0.744275,100036.73,-77,-114,+211
206253,8.589,0.423,3.949,0.136992,-0.245655,0.820898,100036.73,-75,-116,+211
206262,9.115,0.720,3.379,0.248380,-0.278823,0.918274,100039.83,-74,-117,+212
206272,10.186,-0.109,2.136,0.432490,-0.315007,1.043320,100035.89,-74,-117,+212
206281,10.962,-1.242,1.270,0.533059,-0.354383,1.135375,100035.63,-73,-117,+212
206291,10.701,-1.670,1.288,0.478783,-0.384181,1.161981,100037.30,-71,-118,+212
206302,9.864,-1.803,1.181,0.376618,-0.390566,1.172091,100037.30,-68,-118,+213
206312,9.536,-2.061,1.267,0.330857,-0.400676,1.210935,100039.05,-68,-118,+213
206322,9.582,-2.465,1.442,0.300527,-0.424089,1.246586,100035.65,-68,-119,+214
206331,9.641,-2.798,1.683,0.247316,-0.435264,1.248183,100035.59,-66,-121,+212
206342,9.547,-2.585,1.953,0.168564,-0.454420,1.240733,100036.74,-64,-122,+212
206352,9.528,-1.941,2.075,0.100986,-0.461337,1.244990,100036.74,-64,-122,+212
206362,9.797,-2.026,2.037,0.141958,-0.466126,1.264146,100040.80,-64,-123,+213
206371,9.999,-2.530,1.659,0.207940,-0.464530,1.274788,100036.91,-62,-124,+212
206382,9.814,-2.952,1.328,0.204747,-0.444842,1.262550,100036.33,-60,-125,+213
206392,9.651,-3.297,1.167,0.162710,-0.432603,1.252439,100035.81,-60,-125,+213
206402,9.620,-3.455,1.173,0.083958,-0.429942,1.241265,100035.81,-60,-127,+212
206412,9.622,-3.628,1.284,-0.000647,-0.422493,1.226366,100039.60,-56,-129,+211
206422,9.718,-3.612,1.538,-0.072482,-0.411319,1.211467,100040.98,-55,-131,+211
206432,9.667,-3.778,1.719,-0.129418,-0.405998,1.192311,100038.40,-55,-131,+211
206442,9.726,-3.857,1.887,-0.198060,-0.395887,1.185394,100038.34,-54,-132,+211
206452,9.968,-3.989,2.084,-0.286390,-0.391098,1.187522,100038.34,-52,-135,+209
206461,10.153,-4.179,2.778,-0.398133,-0.380456,1.197632,100040.23,-50,-137,+208
206472,10.761,-3.828,2.199,-0.538610,-0.407594,1.212531,100038.23,-50,-137,+208
206482,11.326,-3.602,1.833,-0.608317,-0.453355,1.246586,100038.14,-48,-141,+207
206487,11.799,-3.600,1.577,-0.650886,-0.484750,1.285962,100040.08,-47,-144,+204
206496,12.160,-3.691,1.373,-0.716867,-0.499649,1.325871,100040.08,-47,-144,+204
206507,12.250,-3.732,0.805,-0.841913,-0.523062,1.386531,100040.08,-43,-147,+203
206517,12.423,-3.547,0.310,-0.991436,-0.567759,1.451448,100036.87,-42,-151,+200
206527,12.920,-3.059,-0.082,-1.130316,-0.635337,1.525944,100040.96,-39,-156,+197
206537,13.439,-2.856,-0.259,-1.201619,-0.695465,1.613742,100039.93,-39,-156,+197
206547,13.855,-2.508,-0.009,-1.287289,-0.763043,1.697815,100039.93,-37,-162,+193
206557,14.204,-2.045,0.547,-1.370298,-0.877447,1.768054,100039.23,-34,-166,+189
206567,15.201,-1.539,1.416,-1.330922,-1.040805,1.858512,100039.23,-31,-170,+184
206577,16.711,-1.474,2.286,-1.198959,-1.204694,1.951632,100040.80,-31,-170,+184
206586,18.246,-1.289,3.378,-1.120206,-1.325483,2.017081,100036.18,-28,-175,+180
206597,18.833,-1.026,4.284,-1.193105,-1.376566,2.060182,100037.18,-25,-180,+177
206607,18.488,-0.052,4.701,-1.502261,-1.346236,2.096365,100037.18,-20,-184,+171
206617,17.821,1.622,4.497,-1.923692,-1.289832,2.120842,100037.63,-20,-184,+171
206627,16.921,3.478,3.227,-2.183894,-1.271740,2.134145,100037.09,-17,-191,+165
206637,16.253,2.967,1.746,-1.974775,-1.325483,2.255466,100038.52,-13,-196,+157
206647,15.911,0.280,1.195,-1.324004,-1.441483,2.515136,100037.23,-8,-201,+153
206657,14.335,-1.457,1.023,-0.891931,-1.517043,2.585906,100036.49,-8,-201,+153
206667,11.983,-1.996,1.422,-0.752518,-1.442015,2.417760,100037.70,-1,-204,+150
206678,10.697,-2.990,2.086,-0.506152,-1.326548,2.266108,100037.23,+2,-206,+147
206687,10.813,-4.897,2.779,-0.244886,-1.239281,2.197466,100037.23,+7,-207,+146
206697,10.894,-5.128,3.473,-0.196996,-1.221722,2.110200,100033.98,+7,-207,+146
206707,10.176,-3.113,4.235,-0.145913,-1.206823,1.908531,100033.98,+12,-209,+146
206717,8.742,-0.150,2.697,0.025426,-1.249392,1.471136,100037.30,+14,-210,+144
206723,5.791,-3.090,2.190,0.321811,-1.075392,1.146550,100035.41,+14,-210,+144
206732,2.910,-5.122,4.065,0.532527,-0.829557,1.083761,100033.98,+17,-208,+146
206742,4.463,-2.395,2.668,-0.015014,-0.774750,0.720330,100034.14,+18,-209,+146
206752,7.473,0.979,2.309,-0.572133,-0.612988,0.174917,100034.14,+17,-210,+144
206761,6.230,2.399,2.960,-0.364610,-0.541686,-0.212459,100037.75,+17,-210,+144
206772,4.988,2.785,2.687,0.082362,-0.492731,-0.412532,100036.64,+15,-210,+144
206782,4.828,2.103,2.139,0.489958,-0.430475,-0.616330,100035.80,+11,-209,+146
206792,4.672,1.458,1.636,0.791664,-0.357043,-0.879192,100032.91,+7,-207,+148
206801,4.942,1.009,1.383,0.942783,-0.282548,-1.175577,100032.91,+7,-207,+148
206812,5.167,0.645,1.194,0.972049,-0.214438,-1.483669,100034.57,+2,-205,+151
206822,5.496,0.172,0.952,0.930013,-0.151117,-1.768348,100034.66,-3,-202,+154
206832,5.716,-0.263,0.973,0.948636,-0.088860,-2.025889,100032.57,-11,-199,+158
206842,6.068,-0.543,1.243,1.095499,-0.040970,-2.247247,100032.46,-11,-199,+158
206852,6.635,-0.690,1.617,1.310471,-0.010640,-2.462219,100032.46,-19,-194,+161
206862,7.177,-0.813,2.037,1.540342,0.021287,-2.676127,100034.67,-28,-190,+165
206872,7.724,-0.907,2.029,1.777131,0.064387,-2.893760,100033.14,-37,-183,+171
206882,7.961,-1.059,2.279,1.996893,0.137287,-3.106072,100031.52,-37,-183,+171
206892,8.249,-1.460,2.625,2.192709,0.208589,-3.280604,100029.20,-46,-175,+177
206902,8.606,-1.965,2.659,2.331590,0.255947,-3.435980,100029.20,-56,-165,+183
206912,9.028,-2.440,2.535,2.436947,0.322993,-3.579117,100032.14,-65,-155,+190
206922,9.439,-2.840,2.663,2.482709,0.404938,-3.694053,100030.78,-65,-155,+190
206932,9.662,-3.337,3.149,2.415131,0.502314,-3.789833,100031.63,-73,-142,+196
206942,10.065,-4.051,3.523,2.231553,0.593837,-3.899980,100030.31,-81,-131,+202
206952,10.473,-4.947,3.738,2.000618,0.670993,-4.043117,100030.31,-89,-118,+207
206962,10.697,-5.627,3.805,1.755315,0.751341,-4.203282,100033.28,-96,-118,+212
206972,10.873,-5.669,3.749,1.487664,0.849249,-4.340034,100034.97,-96,-107,+212
206982,11.163,-5.392,3.608,1.198196,0.960460,-4.449117,100034.33,-102,-95,+216
206992,11.461,-4.874,3.374,0.937994,1.094552,-4.534786,100031.39,-107,-83,+218
207002,11.748,-4.521,3.329,0.811884,1.255249,-4.575227,100031.39,-111,-70,+221
207012,12.366,-4.427,3.336,0.864563,1.401579,-4.564053,100032.90,-111,-70,+221
207022,13.230,-4.165,3.239,1.015150,1.507469,-4.541704,100029.32,-114,-58,+225
207032,13.855,-3.626,2.959,1.168398,1.576111,-4.533722,100032.21,-115,-45,+230
207042,14.109,-3.118,2.612,1.314728,1.626130,-4.536915,100032.16,-116,-30,+234
207052,14.310,-2.738,2.431,1.449352,1.652203,-4.508713,100032.16,-116,-30,+234
207063,14.390,-3.181,2.255,1.608985,1.650607,-4.437410,100034.37,-115,-16,+238
207072,14.384,-4.825,2.242,1.855884,1.654863,-4.303319,100031.48,-114,+0,+242
207082,14.692,-6.644,2.592,2.112893,1.680405,-4.076640,100031.05,-109,+16,+246
207092,15.022,-8.277,3.347,2.242727,1.722441,-3.798879,100033.63,-109,+16,+246
207102,14.511,-9.049,4.029,2.254966,1.782570,-3.604659,100033.63,-105,+32,+249
207112,13.712,-8.615,3.569,2.150140,1.871432,-3.455136,100034.98,-99,+48,+252
207122,13.246,-9.126,1.787,2.046379,2.004460,-3.230585,100035.66,-91,+61,+255
207132,13.528,-11.466,0.031,1.616434,1.954441,-2.999650,100038.18,-91,+61,+255
207142,12.438,-14.550,-0.307,0.646398,1.779377,-2.769246,100039.02,-84,+72,+259
207152,11.870,-17.605,-0.551,-0.531161,1.540992,-2.328127,100039.02,-77,+75,+260
207162,11.535,-17.889,-1.844,-1.644867,1.205231,-1.730568,100040.48,-73,+72,+263
207172,11.212,-13.898,-2.591,-2.234976,0.746020,-0.855779,100039.69,-73,+72,+263
207182,10.680,-9.428,-2.109,-2.042352,0.234663,0.118513,100040.80,-71,+66,+265
207193,9.016,-7.631,-1.614,-1.029038,-0.181092,0.948605,100038.28,-72,+59,+264
207202,8.216,-8.062,-0.882,0.171224,-0.301172,1.447724,100038.28,-73,+58,+264
207212,8.779,-7.701,-0.323,1.183829,-0.391098,1.772311,100040.84,-73,+58,+264
207222,8.819,-7.516,10.923,2.035205,0.005855,2.131485,100037.13,-75,+61,+264
207233,20.640,7.740,8.696,0.708655,0.058534,2.026659,100036.17,-74,+63,+264
207242,31.121,13.491,-9.527,-1.017509,-0.824768,1.345559,100038.86,-78,+55,+263
207252,25.675,-3.784,-1.919,0.715572,-0.352254,2.491723,100038.86,-78,+55,+263
207262,20.023,-11.166,-1.041,1.745205,-0.428346,3.110567,100038.98,-79,+57,+262
207272,13.193,-9.772,-4.334,0.716637,-0.605539,2.578989,100041.25,-81,+56,+260
207282,5.803,-5.246,-0.063,-0.290115,-0.365025,2.015485,100039.03,-83,+51,+261
207292,4.422,-4.176,6.660,-0.367271,-0.021282,2.303888,100034.94,-83,+51,+261
207302,8.836,-2.666,6.945,-0.053326,-0.043099,2.595484,100034.94,-83,+46,+261
207312,11.544,-2.379,3.660,0.052031,-0.353319,2.328897,100038.10,-85,+41,+260
207323,10.727,-4.121,3.392,-0.173583,-0.485814,2.028787,100039.26,-85,+37,+260
207332,10.492,-4.460,2.455,-0.623748,-0.583190,1.853723,100038.63,-85,+37,+260
207342,10.452,-2.857,-0.199,-0.879693,-0.619374,1.546696,100037.63,-87,+31,+260
207352,9.519,-0.300,-0.992,-0.788170,-0.461337,1.350880,100037.63,-88,+26,+258
207363,9.321,1.201,-0.649,-0.489124,-0.340548,1.366311,100039.26,-90,+22,+257
207372,10.161,0.472,0.203,-0.059712,-0.210713,1.367375,100039.10,-90,+22,+257
207382,10.848,-1.311,1.314,0.208472,-0.135686,1.333852,100037.48,-90,+18,+257
207392,10.242,-2.443,1.884,0.139297,-0.126640,1.208806,100037.68,-90,+18,+257
207403,9.287,-2.726,2.166,-0.111326,-0.097906,1.014054,100037.68,-90,+16,+257
207413,9.127,-2.245,1.942,-0.412500,-0.098970,0.869320,100038.33,-90,+16,+257
207422,9.426,-1.674,1.496,-0.662592,-0.082475,0.749596,100036.59,-90,+12,+257
207432,9.896,-0.776,1.018,-0.746133,-0.048420,0.657541,100034.70,-90,+8,+257
207442,10.348,0.130,1.021,-0.627473,-0.011704,0.628275,100037.48,-90,+4,+257
207453,10.355,0.056,1.491,-0.365143,0.022883,0.639981,100037.48,-89,+2,+256
207462,9.827,-0.812,1.878,-0.117179,0.042571,0.653284,100037.95,-89,+2,+256
207472,9.188,-1.663,2.366,-0.058647,0.045232,0.625614,100039.17,-88,+2,+257
207482,8.906,-1.781,2.846,-0.150702,0.039910,0.578788,100039.33,-88,+0,+256
207493,8.736,-1.606,3.125,-0.267234,0.034589,0.552183,100038.69,-88,-2,+256
207502,8.813,-1.209,2.969,-0.377913,0.023415,0.533027,100038.69,-88,-2,+256
207512,9.153,-0.807,2.898,-0.422078,0.005323,0.527706,100041.09,-88,-4,+256
207522,9.343,-0.459,2.862,-0.378445,-0.003723,0.539412,100039.14,-88,-6,+255
207533,9.294,-0.648,2.855,-0.290115,-0.015961,0.552715,100038.25,-86,-9,+256
207543,9.370,-1.049,2.285,-0.221473,-0.044695,0.571339,100036.73,-86,-9,+256
207552,9.512,-1.186,2.024,-0.223601,-0.067576,0.589431,100036.73,-87,-10,+256
207562,9.537,-1.287,2.274,-0.244354,-0.086200,0.613376,100037.85,-87,-12,+256
207572,9.413,-1.236,2.565,-0.245950,-0.119190,0.635192,100036.12,-87,-14,+255
207583,9.191,-1.126,2.923,-0.211895,-0.146328,0.667651,100037.70,-87,-14,+255
207592,9.137,-0.721,3.214,-0.209234,-0.173466,0.707027,100034.85,-86,-16,+255
207602,9.446,-0.745,3.045,-0.222537,-0.213906,0.744275,100034.85,-86,-18,+255
207612,9.862,-0.667,2.612,-0.214556,-0.243172,0.791632,100036.91,-87,-20,+253
207623,9.880,-0.720,2.488,-0.184225,-0.260732,0.828348,100036.29,-87,-20,+253
207632,9.707,-1.068,2.407,-0.127290,-0.279888,0.869852,100037.49,-87,-22,+253
207642,9.621,-1.522,2.333,-0.064501,-0.310218,0.911357,100035.45,-87,-25,+253
207652,9.647,-1.952,2.202,-0.037363,-0.337887,0.932641,100035.45,-88,-26,+252
207663,9.729,-2.381,2.123,-0.072305,-0.364138,0.943284,100037.63,-88,-26,+252
207672,9.749,-2.429,2.032,-0.137400,-0.380988,0.939027,100035.83,-87,-28,+252
207682,9.641,-2.223,2.012,-0.203381,-0.393759,0.931045,100037.47,-89,-31,+250
207692,9.546,-2.043,1.946,-0.220941,-0.419832,0.939559,100035.42,-89,-33,+249
207703,9.561,-1.783,1.989,-0.187950,-0.442181,0.968825,100035.42,-89,-33,+249
207713,9.631,-2.041,2.037,-0.115051,-0.465062,1.006073,100038.15,-89,-35,+250
207722,9.872,-2.721,1.660,-0.075675,-0.486878,1.041192,100037.84,-90,-37,+248
207732,10.071,-3.178,1.292,-0.148042,-0.499117,1.065137,100035.68,-90,-40,+248
207742,9.932,-3.224,1.158,-0.298097,-0.498053,1.067265,100038.20,-90,-40,+248
207753,9.851,-3.067,0.989,-0.436445,-0.515080,1.077375,100038.20,-90,-43,+246
207762,9.969,-2.788,0.915,-0.511473,-0.535300,1.102384,100037.14,-92,-47,+245
207772,10.168,-2.701,1.085,-0.539142,-0.560309,1.142825,100038.30,-92,-50,+243
207782,10.263,-2.836,1.194,-0.530629,-0.585319,1.191247,100038.88,-92,-50,+243
207793,10.328,-2.967,1.280,-0.531693,-0.623630,1.231687,100036.61,-91,-55,+241
207802,10.550,-2.992,1.616,-0.561491,-0.709300,1.279045,100036.61,-92,-58,+240
207812,10.914,-2.888,1.683,-0.581711,-0.785392,1.329595,100038.80,-94,-62,+238
207822,10.964,-2.744,1.204,-0.568941,-0.841263,1.369503,100038.02,-94,-62,+238
207833,10.738,-2.715,0.985,-0.525308,-0.891282,1.413136,100036.02,-94,-67,+236
207843,10.703,-2.742,0.828,-0.483803,-0.950878,1.482311,100039.85,-94,-71,+234
207852,11.132,-3.036,1.040,-0.432188,-1.022713,1.569577,100039.85,-96,-76,+231
207862,11.686,-3.529,1.349,-0.416225,-1.101997,1.639815,100037.23,-96,-76,+231
207873,12.146,-4.066,1.345,-0.447620,-1.162126,1.690366,100037.77,-96,-80,+229
207883,12.650,-4.474,1.210,-0.509344,-1.196181,1.720164,100039.50,-96,-85,+226
207892,13.273,-4.321,1.121,-0.695051,-1.228107,1.724421,100036.14,-97,-90,+223
207902,13.963,-3.728,0.816,-0.910555,-1.275465,1.734531,100036.14,-98,-97,+219
207912,14.880,-3.132,0.823,-1.010060,-1.370180,1.765925,100038.74,-98,-97,+219
207923,16.490,-2.519,1.392,-1.060078,-1.501612,1.795723,100038.90,-99,-103,+216
207933,17.990,-1.749,2.019,-1.144151,-1.606969,1.807962,100037.16,-100,-109,+210
207942,18.865,0.104,2.591,-1.267601,-1.682529,1.813815,100037.90,-100,-115,+204
207952,18.548,1.982,3.325,-1.332518,-1.768731,1.839889,100037.90,-100,-115,+204
207963,17.490,3.000,3.305,-1.208004,-1.839501,1.909595,100041.87,-100,-123,+200
207973,16.352,3.305,2.947,-0.988775,-1.831520,1.944714,100035.93,-102,-127,+194
207982,15.258,2.008,2.193,-0.723252,-1.821409,1.945246,100039.02,-101,-133,+190
207992,14.256,-1.573,1.669,-0.284262,-1.871960,2.049008,100039.45,-101,-133,+190
208003,14.316,-4.903,2.013,0.071720,-2.003923,2.227797,100039.45,-101,-137,+185
208013,13.733,-6.040,3.992,0.066931,-2.017758,2.213429,100039.30,-100,-141,+183
208022,13.136,-4.871,5.573,0.113756,-1.933153,2.140530,100037.16,-100,-144,+179
208032,12.511,-3.964,5.999,0.433022,-1.855465,2.135209,100037.52,-100,-144,+179
208043,11.799,-2.737,6.234,0.793792,-1.769263,2.077741,100037.36,-98,-145,+178
208053,10.908,-0.925,6.029,1.133811,-1.639428,1.849467,100037.36,-96,-147,+178
208063,9.718,0.341,4.691,1.481810,-1.552162,1.534990,100035.24,-96,-146,+178
208072,8.278,0.075,1.880,1.604196,-1.623465,1.141761,100035.88,-96,-146,+178
208082,5.900,-5.161,-0.441,1.573865,-1.585685,0.917210,100037.35,-98,-143,+178
208093,6.409,-7.953,2.991,1.450416,-1.254181,1.183797,100033.93,-98,-141,+180
208103,7.949,-3.606,3.183,0.961407,-1.301006,0.873577,100033.93,-99,-140,+180
208112,7.643,0.408,3.272,0.605426,-1.195648,0.086055,100035.47,-99,-140,+180
208122,6.696,1.683,3.412,0.800178,-1.109979,-0.336972,100038.78,-102,-139,+178
208133,5.492,1.571,3.208,1.185425,-1.114236,-0.474789,100036.36,-105,-135,+178
208143,4.888,0.885,2.828,1.613242,-1.013667,-0.698807,100036.84,-109,-129,+180
208152,4.851,-0.457,2.584,1.964966,-0.878511,-0.997853,100036.84,-109,-129,+180
208162,5.028,-1.754,1.857,1.991572,-0.802951,-1.299027,100036.51,-114,-122,+183
208173,5.298,-2.399,0.962,1.727113,-0.757190,-1.620953,100033.30,-119,-114,+184
208183,5.226,-2.498,0.956,1.436049,-0.689612,-1.930641,100036.35,-123,-105,+185
208193,5.387,-1.904,1.078,1.183297,-0.626823,-2.224366,100032.35,-123,-105,+185
208202,5.873,-1.174,1.080,1.084857,-0.558713,-2.500531,100032.35,-130,-97,+185
208212,6.680,-0.957,1.177,1.184893,-0.507098,-2.729338,100033.66,-136,-87,+185
208223,7.135,-1.251,1.349,1.406783,-0.478897,-2.939521,100032.24,-142,-77,+187
208233,7.181,-1.485,1.739,1.636654,-0.434199,-3.178439,100032.46,-142,-77,+187
208242,7.154,-1.594,2.257,1.836728,-0.364493,-3.414696,100032.46,-148,-64,+187
208248,7.087,-1.637,2.870,1.994764,-0.291062,-3.574328,100032.46,-153,-49,+187
208258,7.066,-1.717,3.355,2.116085,-0.222952,-3.716934,100032.46,-153,-49,+187
208268,6.951,-2.354,3.569,2.256562,-0.130897,-3.884016,100032.16,-157,-33,+190
208278,6.910,-3.126,3.755,2.344893,0.006920,-4.042585,100031.73,-160,-16,+190
208288,7.163,-3.810,3.693,2.384801,0.164956,-4.195833,100030.58,-162,+2,+192
208297,7.534,-4.341,3.450,2.339571,0.336828,-4.324603,100029.19,-162,+2,+192
208308,7.884,-4.868,3.620,2.151204,0.516149,-4.412933,100031.66,-162,+20,+193
208318,8.428,-5.353,3.991,1.837260,0.670993,-4.495410,100032.03,-161,+38,+194
208327,9.413,-5.639,4.290,1.503095,0.821580,-4.601832,100032.03,-158,+56,+195
208337,10.368,-5.908,4.487,1.281205,0.981213,-4.732199,100033.45,-158,+56,+195
208348,11.028,-6.236,4.279,1.171590,1.150956,-4.852456,100033.92,-153,+72,+197
208358,11.341,-6.331,3.694,1.138600,1.335598,-4.901410,100033.92,-148,+89,+198
208368,11.542,-6.516,3.167,1.168398,1.530350,-4.875337,100035.07,-140,+105,+201
208377,11.839,-7.190,2.841,1.251939,1.702753,-4.793924,100032.23,-140,+105,+201
208388,12.390,-7.856,2.371,1.250875,1.818753,-4.710382,100032.38,-130,+121,+203
208398,12.990,-8.113,2.179,1.113590,1.904955,-4.636951,100032.23,-120,+133,+206
208408,13.684,-8.244,2.068,0.967260,1.940074,-4.541172,100036.67,-108,+147,+207
208418,14.405,-8.816,1.879,0.826251,1.925707,-4.416126,100037.61,-108,+147,+207
208428,15.146,-10.012,1.678,0.638416,1.872496,-4.256493,100035.94,-96,+158,+209
208438,15.191,-10.699,1.472,0.339371,1.816625,-4.081961,100037.25,-85,+168,+211
208448,14.348,-10.647,1.037,0.002545,1.787891,-3.896255,100037.25,-73,+174,+214
208457,13.522,-10.833,0.694,-0.135271,1.774056,-3.646695,100037.25,-73,+174,+214
208467,12.735,-11.138,-0.077,-0.227326,1.701157,-3.284328,100037.98,-62,+179,+216
208478,12.324,-11.192,-0.876,-0.225198,1.618148,-2.803301,100039.77,-52,+184,+218
208483,12.344,-11.573,-1.401,-0.185822,1.524497,-2.380274,100037.09,-52,+184,+218
208493,11.925,-12.380,-1.817,-0.225198,1.374974,-1.959375,100040.98,-43,+186,+221
208502,11.202,-12.939,-2.085,-0.401858,1.115304,-1.434715,100040.98,-37,+187,+223
208513,11.056,-13.103,-2.128,-0.532757,0.844993,-0.910055,100039.27,-32,+186,+224
208523,10.858,-13.036,-2.067,-0.601931,0.585323,-0.366771,100038.38,-32,+186,+224
208533,10.514,-11.725,-1.450,-0.684408,0.335763,0.156825,100039.00,-32,+185,+226
208543,10.969,-9.250,-1.921,-0.667381,0.074498,0.619761,100039.84,-32,+182,+228
208552,11.830,-7.485,1.529,-0.237436,-0.177190,1.132715,100039.84,-35,+180,+227
208563,13.531,-0.698,11.744,0.206875,-0.068108,1.605228,100036.94,-35,+180,+227
208573,22.668,15.580,6.017,-0.588629,-0.391631,1.355137,100041.36,-38,+178,+227
208583,25.299,13.156,-5.750,-0.608849,-0.651300,1.058751,100040.63,-42,+173,+228
208592,18.757,-1.670,-0.551,1.828746,-0.388970,2.283136,100040.63,-47,+176,+224
208603,14.462,-7.972,2.323,2.823259,-0.431539,2.908897,100040.63,-47,+176,+224
208613,8.951,-7.144,0.193,2.051168,-0.612456,2.481613,100039.61,-53,+181,+219
208623,5.161,-3.682,-0.125,1.140196,-0.553924,1.980898,100038.86,-59,+182,+216
208632,6.713,-2.035,1.811,0.665022,-0.437924,2.117650,100039.08,-65,+180,+215
208643,9.178,-2.243,3.441,0.493150,-0.289466,2.171393,100037.39,-65,+180,+215
208653,10.454,-2.652,3.344,0.328196,-0.197943,2.015485,100037.39,-68,+177,+214
208663,11.802,-3.771,2.026,0.071187,-0.267117,1.956421,100039.95,-72,+174,+214
208673,12.446,-4.425,1.219,-0.251271,-0.418768,1.902145,100038.31,-77,+170,+214
208683,11.122,-3.885,1.254,-0.472629,-0.432071,1.655779,100038.27,-77,+170,+214
208693,9.516,-2.089,0.508,-0.488060,-0.380988,1.383870,100037.69,-80,+165,+213
208703,8.999,-0.798,0.247,-0.327363,-0.293722,1.293944,100037.69,-84,+162,+214
208713,9.303,-0.610,0.645,-0.107069,-0.183044,1.325871,100040.87,-87,+160,+214
208718,9.974,-0.684,1.017,-0.020868,-0.112273,1.362586,100040.98,-87,+160,+214
208728,10.477,-1.016,1.204,-0.028317,-0.078218,1.358329,100040.98,-89,+156,+213
208738,10.247,-1.627,1.644,-0.154959,-0.038842,1.252439,100036.77,-90,+154,+214
208748,9.628,-1.937,1.721,-0.328427,-0.030328,1.120476,100038.60,-90,+154,+214
208758,9.343,-2.232,1.667,-0.441234,-0.014365,1.035339,100038.60,-92,+150,+214
208769,9.432,-2.616,1.477,-0.556170,-0.010108,0.943284,100038.78,-93,+147,+215
208778,9.808,-2.128,1.267,-0.705693,0.017562,0.850164,100038.28,-96,+143,+216
208788,9.945,-1.237,1.198,-0.807858,0.062259,0.787908,100039.64,-96,+143,+216
208798,9.996,-0.494,1.343,-0.765821,0.105892,0.769284,100039.64,-96,+139,+218
208807,10.033,-0.480,1.717,-0.597675,0.127176,0.775137,100039.64,-97,+135,+219
208818,9.917,-0.735,2.110,-0.445491,0.150057,0.774605,100038.20,-97,+133,+219
208828,9.737,-1.435,2.512,-0.423675,0.143672,0.761834,100038.68,-97,+133,+219
208838,9.881,-1.691,2.724,-0.552977,0.095250,0.735229,100039.84,-98,+131,+221
208847,9.931,-1.492,2.529,-0.659931,0.029800,0.696385,100039.41,-98,+127,+221
208858,9.951,-0.853,2.633,-0.628005,0.003195,0.677229,100039.41,-100,+123,+222
208868,9.616,-0.854,2.804,-0.471032,-0.045227,0.703834,100040.48,-100,+123,+222
208878,9.370,-1.453,2.580,-0.285858,-0.127704,0.746403,100039.56,-100,+121,+222
208888,9.420,-1.915,2.313,-0.250207,-0.187300,0.786843,100036.86,-101,+119,+222
208898,9.944,-1.892,2.187,-0.431124,-0.221888,0.811320,100036.86,-103,+115,+221
208908,10.466,-1.412,2.110,-0.678023,-0.247429,0.828880,100040.34,-103,+115,+221
208918,10.695,-0.716,2.433,-0.854684,-0.236255,0.861339,100040.34,-105,+111,+222
208928,10.409,-0.582,2.857,-0.905766,-0.214970,0.910293,100037.45,-106,+107,+223
208937,9.791,-0.982,3.069,-0.845106,-0.204860,0.958715,100039.34,-109,+102,+223
208948,9.299,-1.815,3.023,-0.766353,-0.208053,0.998091,100037.88,-109,+102,+223
208953,9.127,-2.492,2.841,-0.743473,-0.218695,1.014586,100037.88,-109,+97,+224
208963,9.109,-2.815,2.641,-0.776996,-0.233062,1.011926,100039.12,-110,+93,+223
208973,9.170,-2.808,2.448,-0.860537,-0.249557,0.991174,100039.12,-110,+93,+223
208983,9.208,-2.629,2.318,-0.922794,-0.264456,0.968825,100037.96,-112,+88,+223
208993,9.297,-2.603,1.841,-0.919069,-0.289466,0.958183,100038.13,-114,+84,+224
209003,9.373,-2.496,1.362,-0.865858,-0.326713,0.960843,100038.13,-115,+78,+224
209013,9.440,-2.416,1.136,-0.786041,-0.353319,0.975210,100037.85,-115,+78,+224
209022,9.407,-2.420,1.153,-0.683344,-0.366621,0.998623,100038.70,-117,+74,+223
209033,9.297,-2.433,1.477,-0.601399,-0.374603,1.016183,100039.05,-118,+70,+222
209043,9.152,-2.468,1.984,-0.543399,-0.374603,1.028953,100037.96,-119,+66,+221
209053,8.990,-2.748,2.463,-0.471032,-0.374071,1.044384,100037.96,-119,+66,+221
209063,8.805,-2.942,2.507,-0.411436,-0.384713,1.058219,100039.88,-121,+62,+221
209073,8.637,-2.984,2.340,-0.389620,-0.407594,1.069394,100039.68,-122,+58,+221
209083,8.613,-2.762,2.053,-0.374721,-0.446438,1.093871,100040.77,-125,+54,+220
209093,8.603,-2.614,1.947,-0.291711,-0.504438,1.128458,100036.63,-125,+54,+220
209103,8.763,-2.660,1.805,-0.142189,-0.589575,1.173155,100036.63,-126,+51,+219
209113,9.155,-2.759,1.795,0.044582,-0.678970,1.238605,100038.52,-128,+48,+218
209123,9.528,-3.188,1.915,0.217518,-0.771557,1.300861,100038.78,-130,+44,+216
209133,9.595,-3.878,1.705,0.342031,-0.793373,1.354072,100039.83,-130,+44,+216
209143,9.924,-4.923,1.106,0.307444,-0.789649,1.385467,100040.52,-133,+42,+214
209153,10.724,-5.062,0.335,0.045646,-0.787520,1.395045,100040.52,-135,+40,+213
209163,11.741,-4.813,-0.169,-0.213491,-0.804016,1.401962,100040.19,-136,+36,+211
209173,12.517,-4.352,-0.679,-0.347051,-0.843392,1.405687,100040.61,-136,+36,+211
209183,12.735,-3.628,-0.751,-0.443363,-0.869465,1.414201,100039.34,-139,+32,+209
209188,12.809,-3.334,-0.568,-0.472097,-0.897667,1.448788,100038.67,-140,+26,+207
209198,12.967,-2.929,-0.312,-0.443895,-0.947685,1.506788,100038.67,-140,+26,+207
209208,13.299,-3.009,0.283,-0.372592,-1.030694,1.592458,100038.67,-143,+22,+206
209218,13.824,-3.685,0.940,-0.315656,-1.119025,1.684512,100042.35,-146,+16,+203
209228,14.569,-3.765,1.520,-0.436977,-1.192988,1.756879,100039.09,-148,+10,+200
209239,15.269,-3.658,1.945,-0.684941,-1.270676,1.812219,100036.30,-148,+10,+200
209248,15.972,-3.468,2.195,-0.914280,-1.356346,1.862237,100036.30,-151,+2,+196
209258,17.182,-2.556,2.541,-1.124463,-1.437758,1.893632,100039.98,-153,-4,+192
209268,18.914,-0.945,2.930,-1.377747,-1.501612,1.883522,100039.98,-156,-12,+188
209278,20.078,0.997,3.634,-1.636353,-1.573979,1.874476,100038.30,-156,-12,+188
209288,19.734,2.964,3.936,-1.644867,-1.652199,1.944714,100037.52,-158,-22,+183
209298,18.520,3.772,3.211,-1.135638,-1.726694,2.077741,100036.05,-160,-30,+178
209308,17.262,0.290,1.503,-0.273620,-1.857593,2.296971,100036.05,-162,-37,+173
209318,16.406,-4.403,1.711,0.609150,-1.975721,2.722659,100039.63,-162,-37,+173
209329,16.003,-6.294,3.251,0.858710,-2.014565,2.912090,100038.90,-162,-44,+169
209338,14.947,-5.622,5.385,0.354802,-1.964015,2.809925,100037.48,-163,-50,+165
209348,13.652,-2.574,7.320,0.033408,-1.815024,2.632200,100036.19,-163,-58,+161
209358,12.360,-0.000,8.321,0.228160,-1.626657,2.390090,100037.23,-163,-58,+161
209369,10.916,1.744,8.365,0.569774,-1.412217,1.998989,100035.61,-162,-63,+157
209378,9.971,2.490,2.330,0.558600,-1.349428,1.399834,100033.98,-162,-67,+154
209388,7.070,-7.261,-1.533,0.138765,-1.235557,1.172091,100033.98,-164,-69,+153
209398,4.392,-8.169,4.519,-0.232115,-0.945557,1.341302,100038.03,-164,-69,+153
209409,6.158,0.670,4.581,-0.730170,-0.838071,0.484073,100038.03,-164,-72,+151
209418,6.875,3.210,4.056,-0.630665,-0.616713,-0.398165,100037.83,-164,-73,+147
209428,5.562,3.638,2.735,0.086086,-0.504970,-0.579615,100035.73,-166,-71,+146
209438,4.462,1.642,2.311,0.769848,-0.385777,-0.595578,100036.31,-168,-71,+146
209448,3.918,0.207,2.246,1.237572,-0.274034,-0.823321,100034.58,-168,-68,+147
209459,3.311,-0.005,2.391,1.398269,-0.149521,-1.194733,100034.58,-168,-62,+148
209468,3.064,-0.060,2.416,1.297700,-0.018090,-1.566678,100035.71,-171,-55,+149
209478,3.439,-0.146,1.795,1.108269,0.101103,-1.919467,100033.12,-173,-48,+151
209488,4.120,-0.647,1.090,0.928416,0.184112,-2.213192,100031.59,-173,-48,+151
209499,4.621,-1.238,0.292,0.815077,0.236791,-2.475522,100031.59,-175,-39,+152
209508,5.194,-1.332,-0.386,0.764526,0.261268,-2.734659,100031.59,-178,-29,+154
209518,5.708,-1.346,-0.266,0.818802,0.274571,-2.975173,100033.23,-179,-19,+154
209528,6.224,-1.026,0.183,0.950765,0.262332,-3.192806,100035.13,-179,-19,+154
209539,6.708,-0.640,0.839,1.102416,0.252754,-3.399264,100030.61,-181,-6,+156
209548,7.148,-0.688,1.397,1.292911,0.267121,-3.588163,100031.55,-183,+7,+158
209558,7.350,-1.237,1.906,1.603664,0.326185,-3.770677,100031.55,-183,+22,+159
209568,7.809,-1.947,1.996,1.926122,0.394296,-3.931906,100029.45,-183,+22,+159
209579,8.417,-2.850,2.196,2.212929,0.485286,-4.042585,100030.03,-182,+38,+160
209589,9.105,-3.731,2.318,2.374158,0.558185,-4.114952,100030.42,-181,+57,+161
209598,9.858,-4.674,2.656,2.316691,0.593837,-4.179869,100030.42,-179,+75,+161
209608,10.572,-5.755,3.037,2.117682,0.612461,-4.250108,100032.73,-179,+75,+161
209618,11.460,-6.741,2.953,1.787241,0.660883,-4.385796,100032.73,-174,+93,+163
209629,12.128,-7.142,2.834,1.437113,0.751873,-4.533722,100034.63,-168,+109,+163
209638,12.528,-6.969,2.559,1.189682,0.853506,-4.577355,100033.25,-162,+126,+164
209648,12.484,-6.665,2.287,1.075811,0.974295,-4.524144,100033.89,-162,+126,+164
209658,12.411,-6.757,2.075,1.058606,1.110870,-4.431025,100034.87,-154,+140,+165
209669,12.288,-6.946,1.990,1.127425,1.210020,-4.336842,100034.87,-145,+156,+167
209679,12.326,-7.096,1.701,1.265774,1.278662,-4.220842,100033.02,-136,+170,+168
209688,12.629,-7.102,1.778,1.331755,1.349432,-4.112823,100034.76,-136,+170,+168
209698,12.829,-6.616,2.217,1.422214,1.408497,-3.980860,100033.23,-124,+183,+168
209709,13.211,-7.257,2.048,1.571737,1.440955,-3.831869,100037.27,-113,+195,+169
209719,13.247,-8.471,1.422,1.637719,1.426056,-3.652549,100037.74,-102,+207,+168
209728,13.081,-9.198,0.881,1.474361,1.397322,-3.518989,100033.32,-102,+207,+168
209738,12.620,-8.913,0.766,1.159352,1.362203,-3.405649,100033.32,-91,+218,+168
209748,12.154,-7.967,0.991,0.823058,1.328148,-3.274218,100033.01,-81,+227,+168
209758,12.192,-7.335,1.010,0.507517,1.297286,-3.122035,100033.01,-69,+233,+169
209768,12.379,-8.020,0.302,0.318618,1.281855,-2.909723,100034.10,-69,+233,+169
209778,12.313,-9.583,-0.139,0.240930,1.294625,-2.597907,100037.21,-58,+239,+170
209788,11.782,-10.965,-0.091,0.088215,1.297818,-2.229155,100037.30,-50,+244,+172
209799,10.747,-11.096,-0.431,-0.176776,1.230240,-1.874238,100036.21,-41,+245,+173
209809,10.002,-11.025,-0.514,-0.349179,1.117433,-1.539008,100036.21,-41,+245,+173
209818,9.602,-10.910,-0.579,-0.415693,0.939708,-1.171321,100039.02,-35,+247,+175
209828,9.346,-10.334,-0.961,-0.386427,0.736974,-0.759468,100037.61,-31,+247,+178
209839,9.084,-10.404,-1.382,-0.271491,0.558717,-0.361982,100037.45,-30,+246,+179
209849,8.600,-10.440,-1.953,-0.096959,0.386846,0.034972,100037.45,-30,+246,+179
209858,8.078,-10.096,-2.747,0.182930,0.219231,0.426073,100037.45,-28,+246,+180
209868,8.360,-8.038,-2.735,0.506985,0.035121,0.754917,100040.65,-30,+247,+178
209879,8.757,-8.084,1.787,1.064104,-0.044163,1.120476,100041.38,-34,+247,+177
209889,11.654,-4.693,15.178,1.662196,0.269782,1.629173,100038.34,-37,+247,+177
209894,22.041,8.778,13.716,0.988013,0.226149,1.643540,100034.93,-37,+249,+173
209903,35.146,15.337,-4.512,-0.391216,-0.453355,1.156660,100034.93,-41,+247,+173
209913,31.420,-2.209,-7.059,0.634692,-0.463998,2.023466,100040.16,-41,+247,+173
209924,19.933,-10.835,-1.129,2.053296,-0.491667,2.711484,100038.80,-49,+246,+169
209934,9.722,-7.849,-1.978,0.726215,-0.495924,2.051668,100039.38,-55,+245,+165
209943,0.810,-0.795,-2.350,-0.562555,-0.397484,1.509981,100038.80,-60,+241,+168
209953,0.460,3.733,2.195,-0.369399,-0.270310,1.927687,100038.80,-60,+241,+168
209964,6.315,0.976,5.248,0.589462,-0.044695,2.255998,100039.72,-68,+238,+167
209974,11.899,-3.389,4.685,1.114123,-0.053209,2.282604,100038.45,-73,+237,+164
209983,14.126,-7.361,3.324,0.852325,-0.258603,2.161815,100037.88,-79,+235,+163
209993,13.210,-7.437,2.070,-0.007565,-0.342144,1.712182,100038.30,-79,+235,+163
210003,10.843,-3.776,0.974,-0.775399,-0.313943,1.155595,100038.30,-83,+231,+163
210014,8.692,0.002,1.106,-0.923326,-0.245300,0.975742,100039.61,-86,+227,+165
210023,7.646,1.224,1.622,-0.582775,-0.231998,1.090678,100037.92,-89,+224,+166
210033,8.879,0.604,1.641,-0.079400,-0.239447,1.179008,100035.52,-89,+224,+166
210043,10.460,-0.508,1.543,0.310637,-0.223484,1.161449,100037.41,-93,+221,+165
210054,10.987,-1.162,1.748,0.491022,-0.220823,1.099192,100037.41,-96,+220,+163
210064,10.319,-1.611,2.171,0.501132,-0.270842,1.020440,100039.89,-100,+219,+163
210073,9.298,-1.662,1.924,0.329261,-0.272970,0.943284,100039.69,-100,+219,+163
210083,8.949,-1.251,1.450,0.041921,-0.241576,0.896458,100040.38,-102,+218,+161
210094,9.252,-0.707,1.046,-0.254996,-0.193686,0.849100,100039.27,-104,+215,+161
210104,9.966,-0.158,0.887,-0.399730,-0.122915,0.801742,100039.27,-106,+212,+163
210113,10.288,0.338,1.098,-0.368867,-0.053209,0.776201,100039.33,-106,+212,+163
210123,9.844,0.013,1.292,-0.255528,-0.002658,0.760238,100038.64,-108,+211,+164
210134,9.328,-0.678,1.646,-0.128354,0.027672,0.757045,100036.38,-109,+209,+163
210144,9.250,-1.061,2.281,-0.044813,0.032461,0.766623,100036.86,-111,+207,+163
210153,9.195,-0.970,2.726,-0.017675,0.005323,0.759706,100036.86,-113,+207,+163
210163,8.912,-1.043,2.758,-0.006501,-0.019686,0.749596,100038.80,-113,+205,+164
210173,8.905,-1.418,2.489,0.031811,-0.029264,0.766623,100037.70,-114,+204,+164
210184,9.494,-1.640,1.977,0.021701,-0.062787,0.791100,100039.91,-117,+202,+164
210194,10.129,-1.595,1.294,-0.037895,-0.090989,0.808660,100040.74,-118,+200,+163
210203,10.314,-1.423,0.897,-0.128886,-0.070236,0.831008,100040.74,-118,+200,+163
210213,10.182,-1.676,0.932,-0.165069,-0.063319,0.865596,100041.09,-120,+197,+164
210224,10.051,-1.482,1.092,-0.228390,-0.069172,0.899118,100038.88,-122,+195,+164
210234,10.050,-1.164,1.784,-0.291711,-0.055337,0.931577,100037.05,-124,+192,+165
210243,9.932,-1.411,2.116,-0.333748,-0.083007,0.959779,100039.04,-124,+192,+165
210253,9.797,-1.681,2.218,-0.339601,-0.108016,0.982128,100039.04,-127,+189,+165
210264,9.625,-1.891,2.161,-0.326831,-0.120255,0.991174,100040.05,-128,+186,+166
210274,9.426,-2.073,2.104,-0.293840,-0.133557,0.983724,100040.94,-130,+182,+166
210283,9.449,-2.257,1.740,-0.270959,-0.156438,0.978935,100041.14,-130,+182,+166
210293,9.580,-2.166,1.655,-0.248611,-0.177722,0.970421,100037.73,-133,+180,+166
210304,9.446,-1.839,1.920,-0.209234,-0.228273,0.974146,100037.73,-135,+177,+166
210314,9.200,-1.655,2.343,-0.108134,-0.276163,0.986385,100038.94,-137,+174,+165
210324,9.018,-1.861,2.533,0.036600,-0.310218,0.998623,100037.20,-137,+174,+165
210333,8.851,-2.179,2.505,0.163242,-0.336291,1.009265,100038.47,-141,+172,+165
210343,8.914,-2.471,2.261,0.228692,-0.353851,1.019907,100038.42,-143,+169,+163
210354,9.225,-2.701,1.994,0.223903,-0.376199,1.040660,100038.42,-145,+168,+163
210364,9.558,-2.959,1.795,0.186655,-0.399257,1.059638,100039.95,-145,+168,+163
210373,9.851,-3.184,1.503,0.125463,-0.407594,1.068861,100039.15,-147,+165,+161
210383,10.003,-3.248,1.236,0.023830,-0.409190,1.072054,100038.79,-150,+162,+161
210394,10.054,-3.330,1.085,-0.098556,-0.406530,1.082696,100038.52,-153,+158,+160
210404,10.126,-3.133,1.320,-0.201253,-0.420364,1.096531,100038.52,-153,+158,+160
210414,9.780,-2.896,1.729,-0.241693,-0.440585,1.117283,100041.18,-155,+155,+159
210423,9.269,-3.066,2.547,-0.175179,-0.436328,1.156660,100040.23,-159,+151,+159
210434,9.300,-3.622,2.902,-0.118244,-0.422493,1.207742,100036.40,-161,+147,+157
210444,10.084,-3.976,2.511,-0.148574,-0.450163,1.244458,100039.13,-161,+147,+157
210454,10.974,-4.373,2.187,-0.268299,-0.492731,1.275320,100039.13,-164,+143,+156
210463,11.578,-4.126,1.970,-0.489656,-0.532640,1.299265,100040.73,-166,+138,+156
210473,12.100,-3.624,1.503,-0.691326,-0.576805,1.341834,100037.42,-170,+133,+156
210484,12.530,-3.073,1.272,-0.790298,-0.635337,1.408880,100036.73,-170,+133,+156
210494,13.123,-2.940,1.078,-0.810518,-0.706640,1.516898,100038.78,-173,+127,+154
210503,13.764,-3.128,1.085,-0.822225,-0.777410,1.638751,100038.78,-176,+121,+153
210513,14.198,-3.252,1.217,-0.914812,-0.844456,1.741980,100037.30,-179,+114,+153
210524,14.405,-3.210,1.499,-1.073913,-0.903520,1.847338,100039.56,-179,+114,+153
210534,14.545,-3.137,1.687,-1.247913,-0.950346,1.953228,100037.41,-183,+107,+151
210544,14.927,-3.201,1.759,-1.407014,-1.005153,2.052732,100036.78,-187,+97,+149
210553,16.039,-2.985,1.810,-1.568243,-1.094015,2.143723,100036.78,-189,+87,+148
210564,17.517,-2.530,2.044,-1.752353,-1.179685,2.204916,100040.06,-189,+87,+148
210574,18.931,-1.579,2.217,-2.002976,-1.211612,2.232053,100039.02,-194,+76,+145
210584,19.666,0.362,2.425,-2.399398,-1.228639,2.204384,100036.64,-197,+65,+143
210593,19.098,3.112,2.554,-2.799545,-1.245667,2.127228,100035.39,-198,+53,+139
210599,18.270,5.345,2.396,-2.886811,-1.268015,2.072420,100035.39,-198,+53,+139
210609,17.551,5.697,1.988,-2.565416,-1.312181,2.077741,100035.39,-202,+42,+136
210619,16.721,1.738,1.112,-1.607619,-1.419667,2.273026,100040.45,-204,+32,+132
210629,15.731,-3.649,1.613,-0.546592,-1.548969,2.623154,100038.45,-204,+32,+132
210638,14.188,-5.061,2.527,-0.098023,-1.640492,2.700842,100038.91,-205,+23,+127
210649,12.408,-5.086,4.072,0.028619,-1.547905,2.623686,100036.58,-207,+14,+123
210659,11.309,-4.991,5.382,0.098325,-1.404768,2.567815,100039.20,-207,+4,+119
210669,10.557,-3.148,6.106,0.113224,-1.295685,2.404457,100036.84,-207,+4,+119
210678,8.916,-0.501,6.081,0.193573,-1.200437,2.020274,100036.84,-208,-1,+115
210689,6.770,1.053,4.715,0.218050,-1.103061,1.458366,100036.78,-209,-6,+114
210699,3.774,-2.914,0.754,0.155793,-1.073263,1.001284,100036.63,-209,-10,+110
210709,3.158,-9.735,2.094,-0.096959,-0.824768,1.118880,100036.63,-209,-10,+110
210714,5.545,-6.763,2.523,-0.948867,-0.778474,0.928385,100039.02,-209,-13,+107
210723,6.030,-1.133,1.681,-1.974242,-0.800823,0.230257,100038.59,-210,-16,+104
210734,6.298,3.170,1.237,-2.265306,-0.685887,-0.485431,100034.59,-210,-16,+104
210744,5.582,3.802,0.180,-1.703399,-0.767832,-0.659431,100036.02,-212,-16,+100
210754,4.442,2.778,0.041,-0.829142,-0.726328,-0.701468,100036.02,-213,-14,+97
210763,4.317,1.610,0.787,0.279774,-0.590640,-0.822789,100037.35,-215,-10,+96
210774,4.643,1.348,0.961,1.200324,-0.501777,-1.071284,100033.21,-215,-10,+96
210784,4.628,1.668,0.591,1.782452,-0.449098,-1.352770,100035.88,-216,-4,+96
210794,4.377,0.751,1.006,2.316691,-0.366621,-1.550715,100034.26,-217,+4,+96
210803,4.394,-0.208,1.375,2.742378,-0.267117,-1.773669,100034.26,-217,+13,+96
210813,4.473,-1.113,1.557,2.962140,-0.166016,-2.040256,100034.25,-217,+13,+96
210824,4.979,-2.234,1.492,2.956286,-0.104291,-2.266935,100034.03,-218,+24,+96
210834,5.790,-3.381,1.335,2.702470,-0.075380,-2.485986,100033.98,-219,+37,+97
210844,6.258,-3.980,1.292,2.374691,-0.059594,-2.688366,100033.83,-218,+50,+96
210853,6.492,-3.921,1.242,2.024562,-0.031392,-2.921962,100033.83,-218,+50,+96
210864,6.890,-3.197,1.169,1.745205,0.022351,-3.127356,100031.95,-218,+63,+95
210874,7.605,-2.871,1.654,1.522251,0.106424,-3.270494,100034.88,-216,+77,+95
210884,8.171,-3.361,2.166,1.307278,0.167617,-3.402457,100033.84,-213,+92,+95
210893,8.465,-3.630,2.492,1.134343,0.241048,-3.586035,100032.26,-213,+92,+95
210904,8.837,-3.454,2.500,1.041756,0.346938,-3.772805,100032.26,-210,+105,+95
210914,9.125,-3.321,2.292,1.091242,0.481029,-3.897851,100033.80,-205,+121,+95
210924,9.433,-3.974,1.981,1.302489,0.619378,-3.932438,100034.65,-200,+135,+95
210934,9.872,-5.031,1.810,1.515865,0.733249,-3.932438,100030.66,-200,+135,+95
210944,10.657,-5.667,2.143,1.608985,0.826369,-3.968622,100034.49,-194,+152,+95
210950,11.425,-5.918,2.624,1.618030,0.884901,-4.019172,100034.49,-186,+167,+95
210959,12.097,-5.962,2.790,1.609517,0.930662,-4.078768,100034.49,-186,+167,+95
210969,12.421,-6.001,2.825,1.605792,1.013671,-4.137300,100034.16,-177,+182,+95
210979,12.310,-6.175,2.985,1.622819,1.119561,-4.153796,100037.36,-168,+198,+94
210989,11.924,-6.308,3.260,1.638783,1.214277,-4.143154,100031.05,-156,+211,+94
210999,11.658,-6.036,3.823,1.588232,1.303139,-4.123466,100033.00,-156,+211,+94
211009,12.054,-5.107,4.028,1.365278,1.359543,-4.086750,100036.41,-145,+225,+95
211019,12.325,-5.344,3.824,1.206178,1.476075,-4.000016,100036.41,-133,+237,+94
211028,12.945,-6.246,3.502,1.114655,1.628258,-3.844640,100036.41,-120,+249,+95
211039,13.623,-6.946,3.218,1.001847,1.766074,-3.664255,100035.36,-120,+249,+95
211049,13.808,-7.352,2.874,0.848068,1.873561,-3.538145,100035.52,-108,+259,+96
211059,13.549,-7.827,2.293,0.673536,1.949652,-3.410439,100035.52,-96,+265,+98
211068,13.336,-8.621,1.436,0.453774,1.969872,-3.241760,100038.34,-83,+274,+99
211079,12.894,-8.866,1.119,0.128123,1.946992,-3.090108,100036.60,-83,+274,+99
211089,12.245,-8.126,0.938,-0.214556,1.873561,-2.929411,100036.02,-72,+279,+103
211099,11.560,-7.000,0.493,-0.432188,1.770863,-2.747430,100032.09,-60,+284,+107
211109,11.219,-5.894,0.105,-0.484335,1.661781,-2.556402,100032.09,-49,+287,+110
211119,10.897,-5.365,-0.136,-0.418886,1.567598,-2.360054,100037.14,-49,+287,+110
211129,10.485,-5.375,-0.530,-0.301289,1.485121,-2.150935,100036.30,-40,+290,+113
211139,10.151,-5.721,-0.867,-0.176244,1.417543,-1.926916,100035.25,-32,+292,+116
211149,10.059,-5.960,-1.101,-0.110262,1.336662,-1.692256,100035.25,-23,+295,+117
211159,9.777,-5.966,-1.079,-0.109730,1.227579,-1.452274,100035.25,-23,+295,+117
211169,9.386,-5.749,-1.607,-0.062372,1.088167,-1.194733,100039.57,-17,+297,+119
211179,9.344,-5.495,-2.510,0.129187,0.917892,-0.877064,100038.32,-11,+298,+119
211184,9.431,-5.755,-2.991,0.405884,0.767837,-0.583871,100035.79,-11,+298,+119
211194,9.349,-6.120,-3.439,0.741114,0.582130,-0.291743,100035.37,-9,+300,+119
211204,9.173,-6.440,-4.095,1.247150,0.324589,0.086055,100035.37,-8,+301,+114
211214,8.924,-7.099,-4.488,1.813847,0.091525,0.479816,100038.81,-11,+303,+109
211224,8.432,-7.521,-2.884,2.424177,-0.099502,0.902311,100041.44,-11,+303,+109
211234,8.195,-8.394,2.300,3.029718,-0.143135,1.343962,100038.55,-14,+306,+100
211244,7.704,-8.118,18.443,3.611846,0.431011,1.851595,100035.72,-20,+308,+88
211254,19.930,9.116,16.202,2.107039,0.626295,1.718567,100035.72,-25,+308,+84
211264,33.407,11.579,-11.406,0.166967,-0.716218,0.947008,100038.29,-25,+308,+84
211274,28.991,-10.317,-3.696,1.754251,-0.457080,2.359228,100037.93,-30,+307,+81
211283,18.246,-12.645,-1.547,0.883187,-0.623098,2.575264,100037.82,-41,+305,+77
211294,10.240,-5.931,-2.840,-1.162243,-0.512419,1.953760,100036.60,-47,+301,+80
211304,4.021,0.513,-1.594,-1.635821,-0.528915,1.963870,100036.60,-47,+301,+80
211314,4.854,2.706,1.855,-0.718996,-0.461337,2.370934,100041.38,-56,+297,+84
211324,7.891,1.087,4.335,0.411738,-0.217099,2.283136,100035.55,-64,+292,+83
211334,9.766,-2.359,5.772,1.028985,-0.078750,2.223540,100034.66,-71,+289,+79
211344,11.684,-6.128,5.300,0.992269,-0.216034,2.290586,100033.98,-71,+289,+79
211354,12.779,-6.860,2.833,0.478251,-0.533704,2.084127,100033.98,-79,+287,+77
211364,11.056,-4.935,1.419,-0.048005,-0.619374,1.590329,100038.30,-85,+283,+76
211374,9.048,-1.517,1.177,-0.416757,-0.583190,1.278513,100037.61,-90,+280,+76
211384,8.384,-0.217,0.541,-0.552445,-0.552860,1.267871,100039.50,-90,+280,+76
211394,9.274,-0.585,0.099,-0.466776,-0.447502,1.300329,100038.03,-94,+278,+77
211404,10.290,-0.495,0.517,-0.345987,-0.320860,1.310439,100038.03,-98,+274,+78
211415,10.339,-0.188,1.090,-0.221473,-0.220823,1.280109,100038.17,-103,+271,+78
211420,9.998,-0.452,1.359,-0.070886,-0.197411,1.248715,100037.17,-103,+271,+78
211429,9.576,-1.159,1.640,0.075444,-0.184640,1.206678,100037.17,-107,+269,+77
211439,9.123,-1.741,1.631,0.075976,-0.180915,1.127394,100037.08,-110,+266,+77
211449,9.123,-2.475,1.368,-0.124097,-0.155906,1.033210,100032.45,-110,+266,+77
211460,9.686,-2.743,1.103,-0.425271,-0.137814,0.949669,100032.45,-112,+264,+78
211469,10.103,-2.399,1.454,-0.706225,-0.086732,0.859742,100037.67,-115,+261,+79
211479,9.996,-1.504,1.760,-0.890867,-0.050548,0.771944,100037.44,-119,+259,+82
211489,9.535,-0.547,2.280,-0.872243,-0.041502,0.712880,100035.91,-119,+259,+82
211500,9.092,-0.254,2.285,-0.667913,-0.034053,0.697981,100035.91,-120,+256,+83
211509,9.216,-0.318,2.330,-0.447620,-0.024475,0.737889,100035.91,-122,+254,+85
211519,9.502,-1.141,2.553,-0.313528,-0.046291,0.775137,100039.21,-126,+251,+85
211529,9.579,-1.827,2.573,-0.257656,-0.069704,0.770880,100039.84,-126,+251,+85
211539,9.542,-1.898,2.135,-0.327363,-0.092053,0.744807,100037.01,-127,+249,+86
211549,9.433,-1.686,1.991,-0.440170,-0.103759,0.716605,100038.21,-129,+247,+86
211559,9.518,-1.156,1.824,-0.512537,-0.110145,0.729908,100038.21,-132,+245,+88
211569,9.613,-0.932,2.029,-0.490188,-0.106420,0.763963,100039.19,-132,+245,+88
211579,9.536,-0.993,1.975,-0.417289,-0.101631,0.785779,100038.88,-134,+243,+89
211590,9.613,-1.221,1.916,-0.361950,-0.105356,0.810788,100035.77,-136,+240,+90
211599,9.774,-1.650,2.234,-0.333216,-0.118658,0.838990,100035.77,-138,+237,+91
211609,9.767,-1.821,2.381,-0.338005,-0.147924,0.854421,100040.59,-138,+237,+91
211619,9.555,-1.855,2.403,-0.335877,-0.181979,0.854421,100040.59,-140,+234,+91
211630,9.415,-2.070,2.293,-0.290115,-0.227741,0.870385,100038.80,-143,+232,+91
211639,9.601,-2.015,2.056,-0.237968,-0.283612,0.907100,100037.81,-146,+229,+91
211649,9.730,-2.039,1.856,-0.220941,-0.320328,0.936898,100034.81,-146,+229,+91
211654,9.742,-2.049,1.843,-0.226262,-0.338952,0.952862,100034.81,-148,+227,+91
211664,9.712,-2.044,1.932,-0.228922,-0.355447,0.975742,100039.92,-152,+224,+91
211675,9.732,-2.001,1.994,-0.227326,-0.373007,0.998091,100038.77,-152,+224,+91
211684,9.809,-2.232,2.027,-0.209767,-0.385245,1.015651,100036.50,-154,+220,+90
211694,9.877,-2.708,1.807,-0.218812,-0.395887,1.031614,100037.92,-156,+217,+90
211704,9.974,-2.836,1.584,-0.299161,-0.394291,1.033210,100037.92,-160,+214,+90
211715,10.108,-2.846,1.503,-0.414629,-0.396420,1.048109,100038.21,-160,+214,+90
211724,10.229,-2.951,1.417,-0.515730,-0.412915,1.088017,100037.48,-162,+210,+90
211734,10.182,-2.498,1.656,-0.615234,-0.444842,1.125265,100036.32,-166,+207,+90
211744,9.712,-2.179,2.159,-0.643436,-0.511887,1.173155,100039.10,-170,+202,+90
211755,9.508,-2.453,2.178,-0.542867,-0.572016,1.256696,100039.10,-170,+202,+90
211764,9.781,-3.102,1.810,-0.447087,-0.589575,1.329063,100040.21,-173,+198,+90
211774,10.078,-4.090,1.777,-0.491253,-0.611924,1.371100,100038.10,-176,+194,+88
211784,10.381,-4.479,1.401,-0.643436,-0.649172,1.400366,100038.68,-180,+189,+88
211794,11.219,-4.152,0.840,-0.842977,-0.682695,1.414201,100040.57,-180,+189,+88
211805,12.188,-3.199,0.527,-0.998353,-0.776878,1.432292,100040.57,-183,+182,+87
211814,12.613,-2.478,0.624,-0.969087,-0.879043,1.492953,100041.33,-187,+178,+87
211824,12.870,-2.237,0.543,-0.793491,-0.971098,1.585540,100037.13,-190,+171,+86
211834,13.014,-2.659,0.433,-0.619491,-1.043997,1.690366,100036.88,-190,+171,+86
211845,13.236,-3.342,0.256,-0.604592,-1.118492,1.803705,100037.92,-194,+166,+83
211854,13.750,-3.925,0.035,-0.723785,-1.198309,1.909595,100037.92,-198,+158,+81
211864,14.475,-4.174,-0.102,-0.962170,-1.295153,1.984622,100040.69,-203,+150,+79
211874,15.380,-4.253,-0.190,-1.256426,-1.393061,2.043154,100040.75,-203,+150,+79
211885,16.901,-4.269,-0.027,-1.579949,-1.500547,2.091044,100039.33,-206,+142,+75
211890,18.814,-3.840,-0.781,-1.926885,-1.631978,2.100090,100039.95,-211,+133,+74
211899,20.901,-2.259,0.238,-2.360022,-1.717116,2.076677,100039.95,-211,+133,+74
211909,22.338,1.136,0.632,-2.956517,-1.813960,1.989411,100039.95,-214,+124,+71
211919,20.619,5.269,1.068,-3.093269,-1.918786,1.850531,100037.47,-218,+116,+68
211930,17.796,9.496,1.592,-2.541471,-2.051813,1.735595,100039.27,-221,+107,+63
211940,15.969,9.647,1.874,-1.113821,-2.167281,1.775503,100036.30,-221,+107,+63
211949,15.968,3.664,2.020,0.760270,-2.282749,2.170329,100036.30,-223,+101,+56
211959,15.820,-3.434,3.032,1.992636,-2.421629,2.555576,100039.38,-226,+93,+47
211970,14.816,-6.970,4.059,2.305516,-2.512088,2.605062,100039.38,-228,+84,+38
211980,13.787,-8.002,4.826,2.146948,-2.495593,2.532163,100038.34,-228,+84,+38
211989,12.796,-7.023,5.680,1.838324,-2.428015,2.394347,100037.38,-230,+75,+30
211999,10.986,-3.907,5.875,1.496709,-2.266253,2.099026,100036.49,-231,+67,+22
212009,8.795,0.314,5.820,1.210966,-2.032657,1.622256,100036.49,-231,+62,+15
212020,6.263,2.145,5.759,1.168398,-1.749043,1.109834,100037.92,-231,+62,+15
212030,3.852,1.980,1.080,0.869352,-1.804914,0.550054,100034.08,-231,+58,+10
212039,2.215,-4.826,0.505,0.668747,-1.738400,0.484605,100037.55,-230,+58,+2
212049,4.342,-7.565,5.432,0.480380,-1.297814,0.672440,100036.75,-230,+55,-1
212060,6.273,-3.109,5.255,-0.300225,-1.203098,0.083394,100036.97,-230,+55,-1
212070,6.158,0.788,5.130,-0.666317,-1.006750,-0.714770,100038.22,-229,+57,-4
212079,4.701,1.735,4.960,-0.560959,-0.879043,-1.031908,100033.81,-228,+60,-7
212089,3.785,1.614,4.031,-0.207106,-0.780603,-1.178238,100033.81,-228,+66,-10
212100,3.517,0.511,3.458,0.264875,-0.650236,-1.388421,100035.06,-228,+66,-10
212109,3.829,-1.024,3.066,0.719297,-0.524126,-1.590623,100035.06,-227,+71,-12
212119,4.591,-2.027,2.712,1.017279,-0.426218,-1.782183,100034.49,-226,+77,-13
212129,5.441,-2.105,2.335,1.077407,-0.337355,-2.046109,100035.65,-224,+85,-15
212140,5.994,-1.382,1.995,1.028985,-0.260732,-2.372292,100035.18,-224,+85,-15
212150,6.270,-0.714,1.553,1.042820,-0.195814,-2.650054,100036.45,-222,+94,-17
212159,6.364,-0.549,1.337,1.137003,-0.122383,-2.837356,100036.45,-221,+103,-18
212169,6.728,-0.886,1.468,1.196067,-0.039906,-2.981558,100033.01,-217,+114,-20
212179,7.494,-1.685,1.495,1.337077,0.046296,-3.101815,100031.65,-217,+114,-20
212190,8.357,-2.129,1.951,1.520122,0.174534,-3.261980,100031.49,-213,+125,-21
212200,9.006,-2.267,2.171,1.735095,0.262332,-3.417356,100031.49,-209,+135,-23
212209,9.158,-2.451,2.445,2.103315,0.376736,-3.554108,100031.49,-205,+147,-24
212219,9.262,-2.565,2.693,2.426305,0.484222,-3.628071,100033.54,-200,+147,-26
212230,9.361,-3.063,3.049,2.677461,0.564571,-3.624879,100031.91,-200,+158,-26
212240,9.598,-4.091,3.239,2.865296,0.632149,-3.629136,100030.18,-194,+170,-29
212249,9.919,-5.174,3.384,2.905736,0.703451,-3.696714,100032.16,-188,+180,-32
212259,10.046,-5.702,3.882,2.815277,0.802956,-3.802603,100032.16,-181,+190,-35
212270,10.209,-5.847,4.007,2.621057,0.899268,-3.917007,100034.52,-181,+190,-35
212280,10.379,-6.170,3.855,2.334250,1.005157,-4.051099,100031.00,-173,+202,-37
212290,10.501,-6.345,3.476,1.962838,1.117433,-4.207539,100031.45,-164,+212,-37
212299,10.749,-5.996,3.026,1.568012,1.239286,-4.341098,100031.45,-154,+223,-37
212310,11.262,-5.441,2.540,1.289187,1.354221,-4.423043,100034.37,-154,+223,-37
212320,11.979,-5.063,2.112,1.233315,1.453726,-4.455502,100034.37,-144,+235,-37
212329,12.741,-5.270,2.045,1.440306,1.540460,-4.433686,100033.37,-134,+246,-37
212339,13.453,-5.848,1.930,1.707425,1.564405,-4.398566,100033.41,-123,+257,-39
212349,13.752,-6.606,1.898,1.873975,1.579836,-4.353337,100033.99,-123,+257,-39
212360,13.920,-7.316,2.011,1.946342,1.576111,-4.251704,100033.99,-111,+265,-40
212370,13.963,-8.131,1.792,1.870783,1.543653,-4.126126,100035.80,-100,+273,-44
212379,14.262,-9.009,1.739,1.661664,1.512258,-3.979796,100034.17,-88,+280,-45
212389,14.540,-9.642,1.295,1.315792,1.487781,-3.823356,100035.27,-88,+280,-45
212400,14.165,-10.841,1.571,0.977370,1.530882,-3.714273,100035.58,-78,+286,-44
212410,13.678,-11.903,1.132,0.556472,1.543653,-3.579649,100038.11,-68,+291,-45
212420,12.761,-11.573,0.494,0.060545,1.588350,-3.340732,100041.11,-58,+298,-44
212429,12.602,-10.851,-0.014,-0.299693,1.626662,-2.938457,100036.75,-58,+298,-44
212440,12.002,-11.272,-0.476,-0.498170,1.567065,-2.463815,100036.75,-50,+302,-40
212450,11.504,-12.070,-0.998,-0.629069,1.420203,-2.030678,100033.95,-43,+306,-37
212459,10.952,-12.858,-1.483,-0.725381,1.203102,-1.627871,100033.95,-39,+308,-33
212469,10.539,-12.814,-2.015,-0.806262,0.930662,-1.136201,100037.56,-39,+308,-33
212480,10.651,-11.720,-2.408,-0.815307,0.629488,-0.540770,100039.20,-36,+310,-30
212490,10.876,-10.379,-2.912,-0.601399,0.313415,0.097229,100035.67,-37,+310,-27
212500,10.864,-9.977,-3.234,-0.084721,-0.002658,0.749596,100036.78,-39,+310,-27
212509,10.084,-10.057,-0.765,0.639481,-0.223484,1.362586,100036.78,-39,+310,-27
212519,9.750,-7.676,8.149,1.310471,-0.095778,1.886182,100037.05,-45,+307,-30
212530,15.988,7.890,10.703,0.666618,-0.060658,1.809026,100035.83,-51,+304,-33
212540,22.759,17.026,-1.325,-0.605656,-0.408658,0.925724,100037.52,-54,+302,-32
212550,20.663,1.710,-3.479,0.373958,-0.260732,1.551485,100037.52,-54,+302,-32
212559,18.621,-7.853,0.215,1.943682,-0.307025,2.673172,100037.52,-62,+298,-35
212570,11.881,-8.488,0.083,1.462122,-0.460805,2.508218,100039.82,-70,+291,-42
212580,6.171,-4.097,-0.879,0.283499,-0.442713,1.844145,100039.24,-76,+288,-42
212590,6.556,-0.170,0.839,-0.159748,-0.387374,1.837228,100039.93,-76,+288,-42
212599,7.841,-0.339,3.721,0.048839,-0.289998,2.039962,100037.88,-82,+285,-42
212610,8.672,-1.524,5.828,0.385664,-0.089924,1.936733,100037.88,-88,+281,-43
212620,11.034,-2.438,5.000,0.472930,-0.167612,1.983558,100037.56,-95,+277,-45
212630,12.010,-3.359,3.378,0.464949,-0.522530,2.016017,100038.39,-95,+277,-45
212640,10.176,-3.476,1.668,0.347885,-0.602346,1.685045,100036.19,-99,+271,-47
212649,9.374,-4.035,-0.823,0.197297,-0.520933,1.410476,100036.19,-103,+269,-49
212660,11.049,-4.038,-1.535,0.123866,-0.485282,1.471669,100039.54,-107,+265,-50
212670,11.257,-2.415,-0.557,-0.159748,-0.423557,1.470604,100039.54,-107,+265,-50
212679,9.821,-0.653,0.439,-0.360886,-0.273502,1.304586,100037.76,-111,+263,-50
212689,9.377,0.808,1.613,-0.360354,-0.144732,1.258293,100038.23,-115,+260,-48
212700,9.377,0.390,2.571,-0.030978,-0.191557,1.273724,100034.34,-118,+257,-49
212710,9.301,-0.178,2.632,0.322875,-0.202199,1.281705,100034.34,-121,+253,-50
212720,9.161,-1.394,2.196,0.524013,-0.233594,1.247650,100038.12,-121,+253,-50
212729,9.422,-2.688,1.662,0.462820,-0.230401,1.174751,100036.45,-125,+250,-52
212740,9.908,-3.090,0.966,0.159518,-0.204328,1.077907,100034.49,-127,+247,-52
212750,10.168,-2.525,1.003,-0.208702,-0.169209,0.972550,100036.76,-130,+245,-52
212760,9.920,-1.293,0.938,-0.404519,-0.137282,0.877834,100038.24,-130,+245,-52
212770,9.561,-0.378,0.817,-0.303418,-0.108548,0.838990,100036.60,-132,+243,-52
212780,9.337,-0.527,0.942,-0.014482,-0.082475,0.859742,100036.66,-134,+242,-52
212790,9.510,-1.281,1.071,0.232949,-0.059594,0.872513,100036.66,-136,+239,-52
212800,9.613,-2.103,1.252,0.280839,-0.039906,0.863467,100037.91,-136,+239,-52
212809,9.549,-2.574,1.641,0.140894,-0.035117,0.838990,100037.91,-139,+237,-52
212819,9.404,-2.320,1.839,-0.085785,-0.043099,0.817706,100039.02,-141,+234,-52
212830,9.495,-1.496,1.819,-0.256592,-0.046291,0.813449,100036.23,-143,+233,-52
212840,9.578,-1.037,1.799,-0.301822,-0.059062,0.831008,100034.92,-143,+233,-52
212850,9.615,-0.644,1.853,-0.239033,-0.073961,0.854953,100036.23,-145,+231,-52
212859,9.643,-0.982,1.590,-0.136868,-0.089392,0.885816,100036.23,-147,+228,-52
212870,9.562,-1.493,1.703,-0.057051,-0.106420,0.909761,100038.51,-149,+226,-52
212880,9.420,-1.820,1.885,-0.043748,-0.127704,0.928385,100037.46,-149,+226,-52
212890,9.370,-2.000,1.927,-0.069822,-0.144732,0.950201,100034.37,-152,+223,-52
212899,9.443,-2.420,1.626,-0.149106,-0.156438,0.977339,100034.37,-154,+220,-52
212910,9.645,-2.474,1.702,-0.300225,-0.171337,0.992238,100034.37,-157,+218,-51
212920,9.779,-1.907,1.807,-0.450280,-0.201135,1.006073,100040.23,-157,+218,-51
212930,9.844,-1.335,1.796,-0.447620,-0.229869,1.040128,100038.27,-158,+216,-51
212939,9.670,-1.409,1.782,-0.302354,-0.261264,1.076843,100038.12,-160,+212,-51
212950,9.632,-1.836,1.735,-0.135271,-0.276695,1.105577,100035.02,-162,+210,-51
212960,9.783,-2.562,1.528,-0.053858,-0.289466,1.121540,100035.02,-162,+210,-51
212970,9.877,-3.227,1.317,-0.081528,-0.293190,1.112494,100038.20,-165,+208,-52
212980,9.893,-3.533,1.170,-0.185822,-0.299576,1.088017,100038.15,-168,+203,-52
212989,9.820,-3.551,1.216,-0.303950,-0.294254,1.059816,100036.76,-170,+201,-52
213000,9.744,-3.500,1.406,-0.368867,-0.297979,1.039595,100036.76,-170,+201,-52
213010,9.549,-3.278,1.602,-0.373124,-0.304365,1.029485,100037.77,-171,+198,-52
213020,9.628,-3.365,1.671,-0.329491,-0.297979,1.037999,100040.86,-173,+196,-52
213029,9.815,-3.723,1.507,-0.297033,-0.296383,1.047045,100040.86,-175,+193,-52
213040,9.993,-3.759,1.443,-0.353436,-0.297447,1.052366,100039.02,-175,+193,-52
213050,10.113,-3.872,1.817,-0.430592,-0.305429,1.081632,100038.70,-177,+188,-52
213060,10.331,-3.629,2.212,-0.543931,-0.302768,1.124201,100038.70,-179,+187,-52
213069,10.829,-3.556,1.786,-0.605656,-0.341612,1.168366,100038.34,-181,+183,-52
213080,11.316,-3.662,1.268,-0.631730,-0.385777,1.230091,100040.66,-181,+183,-52
213090,11.949,-3.782,0.739,-0.698775,-0.421961,1.300861,100036.97,-181,+181,-52
213100,12.632,-3.725,0.312,-0.853619,-0.479429,1.350348,100037.45,-184,+177,-51
213110,13.174,-3.230,0.125,-0.986115,-0.554456,1.415797,100040.41,-186,+174,-52
213120,13.674,-2.596,0.300,-1.001014,-0.637997,1.502531,100038.78,-186,+174,-52
213130,13.622,-2.373,0.532,-0.915344,-0.709832,1.589265,100042.92,-188,+170,-51
213140,13.424,-2.644,0.762,-0.828078,-0.776878,1.703668,100042.92,-190,+165,-53
213150,13.527,-3.242,1.066,-0.848830,-0.843392,1.822329,100035.25,-192,+160,-54
213159,14.102,-3.795,1.375,-0.993564,-0.899795,1.922898,100035.25,-194,+160,-54
213170,15.117,-4.059,1.741,-1.283564,-0.952474,2.000586,100040.41,-194,+154,-55
213180,16.676,-3.857,2.056,-1.675197,-1.044529,2.044751,100036.73,-196,+150,-56
213190,18.275,-2.523,2.524,-2.123765,-1.108382,2.030384,100036.58,-198,+145,-56
213200,18.957,-0.786,2.450,-2.571802,-1.137116,1.974512,100037.78,-199,+141,-56
213210,18.578,2.089,1.977,-2.930976,-1.154676,1.901081,100037.78,-199,+141,-56
213220,17.881,5.111,1.556,-3.123067,-1.229703,1.870219,100039.17,-200,+139,-56
213230,17.515,5.486,0.642,-2.712279,-1.393061,1.993136,100036.23,-200,+135,-57
213240,18.217,2.169,0.136,-1.692756,-1.659116,2.322512,100037.91,-200,+129,-61
213250,16.557,0.137,1.853,-1.003674,-1.866639,2.481081,100037.91,-200,+129,-61
213260,13.852,-0.472,4.450,-0.197528,-1.878877,2.494383,100037.91,-201,+123,-66
213270,12.741,-2.627,5.286,0.659169,-1.851208,2.589099,100038.96,-202,+113,-71
213280,12.517,-3.722,6.149,1.051334,-1.782033,2.638053,100036.70,-201,+103,-78
213289,12.156,-2.205,7.236,1.122636,-1.653795,2.484273,100035.91,-201,+103,-78
213300,11.350,0.258,7.157,1.291315,-1.487245,2.112861,100037.18,-200,+93,-81
213310,9.839,2.464,5.598,1.548856,-1.406896,1.612146,100037.18,-200,+85,-87
213320,6.307,-1.147,3.139,1.671241,-1.305263,1.193907,100037.40,-197,+79,-91
213330,4.744,-8.969,2.315,1.321113,-1.096676,1.205614,100037.04,-197,+79,-91
213340,6.617,-5.858,2.483,-0.161345,-0.970034,0.653816,100034.12,-196,+75,-94
213350,7.194,-1.272,3.515,-1.162243,-0.746016,-0.029945,100034.12,-194,+76,-96
213360,6.061,1.711,4.153,-1.270793,-0.595429,-0.504055,100040.45,-192,+81,-97
213370,4.828,2.824,3.309,-1.061142,-0.543282,-0.758936,100036.77,-192,+81,-97
213380,4.070,2.962,2.074,-0.614702,-0.442713,-1.031908,100036.77,-191,+85,-98
213390,3.867,2.207,1.404,0.000417,-0.282548,-1.303284,100037.52,-189,+90,-100
213400,3.889,1.106,1.313,0.573499,-0.155906,-1.532091,100036.19,-188,+94,-100
213410,4.027,0.369,1.715,0.997058,-0.040970,-1.777926,100036.19,-188,+94,-100
213415,4.420,-0.162,1.831,1.193407,0.034589,-1.991834,100035.94,-187,+99,-100
213425,4.688,-0.512,1.710,1.316324,0.121855,-2.241925,100035.73,-185,+103,-101
213435,4.999,-0.895,1.727,1.418489,0.255415,-2.569705,100036.27,-185,+103,-101
213445,5.369,-1.324,1.811,1.544599,0.372479,-2.854916,100032.42,-184,+109,-102
213455,5.984,-1.719,1.704,1.630269,0.479965,-3.104475,100032.42,-181,+116,-101
213465,6.825,-1.898,1.374,1.729774,0.567763,-3.311998,100036.13,-179,+124,-101
213475,7.422,-2.062,1.103,1.870250,0.650240,-3.475888,100034.09,-179,+124,-101
213485,7.748,-2.501,1.236,1.928250,0.739103,-3.588695,100036.02,-175,+131,-102
213495,8.066,-3.290,1.727,1.836728,0.812002,-3.654145,100034.71,-172,+138,-102
213505,8.463,-4.373,2.199,1.575462,0.873194,-3.744071,100034.71,-169,+147,-102
213515,8.952,-5.065,2.639,1.243957,0.981213,-3.919135,100034.25,-169,+147,-102
213525,9.426,-5.281,2.534,0.968324,1.112112,-4.119741,100032.47,-164,+159,-100
213535,9.822,-5.559,2.122,0.751224,1.261102,-4.265539,100035.20,-159,+169,-98
213544,10.220,-5.720,1.608,0.528802,1.401047,-4.353869,100031.73,-154,+182,-96
213555,10.595,-5.632,1.242,0.350013,1.538332,-4.396970,100031.73,-154,+182,-96
213565,11.073,-5.300,1.130,0.282967,1.668698,-4.390053,100034.91,-149,+192,-92
213575,11.791,-4.706,1.071,0.355866,1.783102,-4.365044,100036.23,-142,+204,-89
213585,12.666,-4.440,0.912,0.591591,1.869836,-4.329924,100033.96,-136,+214,-86
213595,13.265,-4.485,0.708,0.959811,1.940074,-4.253832,100032.38,-136,+214,-86
213605,13.646,-4.505,0.809,1.334416,1.984239,-4.170824,100032.38,-127,+223,-84
213615,13.765,-4.363,0.961,1.594618,1.958166,-4.127191,100035.13,-120,+231,-84
213625,13.671,-4.104,0.811,1.758507,1.928900,-4.123998,100033.44,-113,+238,-85
213635,13.642,-5.105,0.356,1.924526,1.908148,-4.061209,100032.91,-113,+238,-85
213645,13.573,-7.257,0.424,2.011260,1.847487,-3.947869,100033.97,-105,+244,-85
213651,13.680,-8.219,0.675,1.912819,1.785230,-3.856347,100033.97,-96,+249,-86
213660,13.962,-8.423,1.052,1.729241,1.735212,-3.793025,100033.97,-96,+249,-86
213670,14.247,-8.722,1.616,1.581315,1.706478,-3.713209,100035.91,-88,+254,-87
213681,14.260,-9.407,1.771,1.490324,1.693175,-3.568475,100038.43,-81,+259,-88
213690,14.036,-9.241,1.191,1.347719,1.686258,-3.389686,100034.38,-74,+263,-89
213700,13.609,-8.383,0.888,1.129022,1.685194,-3.205044,100036.38,-74,+263,-89
213710,12.663,-7.481,0.591,0.862967,1.626662,-2.999650,100038.07,-68,+267,-89
213721,11.796,-7.355,0.197,0.609683,1.546845,-2.758604,100035.23,-60,+270,-89
213730,11.570,-8.482,-0.188,0.409077,1.448937,-2.427632,100035.23,-56,+273,-87
213740,11.570,-10.106,-0.896,0.176545,1.326020,-2.051430,100034.23,-56,+273,-87
213750,11.407,-11.523,-1.806,-0.115051,1.162662,-1.610843,100034.54,-52,+276,-85
213761,11.176,-11.928,-2.577,-0.373656,0.912038,-1.037229,100034.54,-50,+277,-83
213770,11.140,-10.468,-2.897,-0.508812,0.564039,-0.358789,100037.01,-50,+279,-81
213780,10.791,-8.221,-2.066,-0.400794,0.210186,0.323376,100036.38,-50,+279,-81
213790,9.827,-6.582,-1.311,0.049371,-0.093649,0.875706,100037.54,-53,+279,-80
213800,8.803,-5.545,-0.447,0.750160,-0.258071,1.262017,100033.96,-56,+276,-83
213811,8.654,-4.231,1.041,1.479150,-0.323521,1.529136,100039.89,-60,+271,-87
213820,8.571,-5.471,6.125,2.202287,-0.162823,1.782953,100035.11,-60,+271,-87
213830,10.545,-2.131,12.634,2.409810,0.258075,2.004310,100033.84,-66,+265,-93
213840,22.497,11.974,3.166,0.944380,-0.269777,1.630237,100036.42,-71,+259,-97
213850,25.305,8.357,-8.017,0.612343,-0.741227,1.367907,100036.42,-73,+255,-100
213860,22.169,-7.067,-1.687,2.116085,-0.293722,2.556640,100036.42,-73,+255,-100
213870,18.884,-10.021,-1.578,1.861737,-0.382053,2.898255,100038.44,-81,+245,-106
213880,12.152,-8.596,-2.202,0.386196,-0.377264,2.532695,100038.44,-87,+239,-107
213885,6.996,-5.307,-0.489,-0.703032,-0.355979,2.165008,100038.08,-87,+239,-107
213895,4.004,-3.218,3.541,-0.993564,-0.263924,2.131485,100035.55,-92,+237,-105
213905,5.649,-2.336,7.052,-0.535418,-0.120255,2.293246,100035.55,-99,+233,-105
213915,10.074,-1.211,5.214,-0.040556,-0.317667,2.245356,100031.71,-103,+229,-105
213925,11.336,-1.874,2.761,0.371829,-0.548603,2.027191,100036.38,-103,+229,-105
213936,10.807,-2.987,2.539,0.497407,-0.612988,1.888843,100033.12,-107,+223,-108
213945,11.562,-4.225,0.718,0.227096,-0.696529,1.841485,100035.59,-111,+218,-109
213955,11.180,-4.004,-0.323,-0.225198,-0.631080,1.622256,100035.59,-111,+216,-109
213965,8.908,-1.898,-0.245,-0.608317,-0.462933,1.329595,100036.41,-111,+216,-109
213976,8.193,0.516,0.033,-0.689730,-0.350126,1.239669,100033.94,-115,+214,-109
213985,8.999,1.041,0.888,-0.349711,-0.249025,1.289687,100033.47,-117,+212,-108
213995,10.062,0.581,1.443,0.005738,-0.155906,1.309375,100036.41,-119,+208,-109
214005,10.139,-0.375,2.025,0.253701,-0.120255,1.256164,100036.41,-119,+208,-109
214016,9.291,-1.500,2.466,0.361187,-0.133557,1.160917,100037.18,-122,+206,-110
214025,8.802,-2.399,2.624,0.352141,-0.138346,1.046513,100035.45,-125,+202,-110
214035,9.194,-2.907,1.892,0.124931,-0.137814,0.933706,100033.98,-126,+200,-111
214045,9.984,-2.350,1.187,-0.204978,-0.103759,0.808660,100036.24,-126,+200,-111
214055,10.238,-1.303,0.853,-0.397069,-0.050548,0.710220,100036.24,-128,+198,-110
214066,10.005,-0.321,0.860,-0.387491,0.002663,0.678825,100037.60,-129,+197,-109
214075,9.643,-0.204,1.391,-0.242757,0.032993,0.699045,100035.66,-130,+196,-109
214085,9.378,-0.743,1.806,-0.092702,0.031929,0.722458,100034.93,-130,+196,-109
214095,9.432,-1.469,2.134,-0.032042,0.025011,0.745871,100034.93,-132,+194,-109
214106,9.450,-1.595,2.361,-0.117179,0.016498,0.752788,100034.93,-134,+192,-109
214115,9.512,-0.603,2.552,-0.300757,-0.007979,0.744807,100036.01,-135,+191,-107
214121,9.443,-0.593,2.389,-0.381638,-0.039906,0.757045,100034.34,-135,+191,-107
214130,9.705,-0.527,2.199,-0.357693,-0.052677,0.790036,100034.34,-137,+190,-107
214140,9.910,-0.553,2.067,-0.259785,-0.075557,0.826219,100034.96,-138,+188,-107
214151,9.701,-0.763,1.981,-0.128354,-0.094181,0.843247,100034.45,-138,+188,-107
214160,9.453,-1.213,1.891,-0.018739,-0.105356,0.871449,100034.45,-139,+186,-106
214170,9.451,-1.911,1.924,-0.005436,-0.122915,0.893797,100036.59,-141,+185,-107
214180,9.541,-2.073,2.132,-0.094299,-0.148456,0.896990,100032.50,-142,+182,-107
214191,9.506,-1.830,2.140,-0.205510,-0.172401,0.904440,100033.86,-142,+182,-107
214200,9.550,-1.657,2.145,-0.286390,-0.190493,0.929981,100033.86,-145,+180,-106
214210,9.817,-1.461,1.814,-0.340666,-0.215502,0.967761,100033.86,-145,+178,-107
214220,10.045,-0.945,1.909,-0.343326,-0.234126,1.014054,100035.76,-147,+176,-107
214231,9.972,-1.081,2.014,-0.266702,-0.264988,1.077907,100035.09,-147,+176,-107
214241,9.811,-1.674,2.135,-0.145913,-0.298511,1.117283,100033.93,-147,+173,-106
214250,9.547,-2.383,2.191,-0.059179,-0.325649,1.118880,100034.13,-149,+170,-108
214260,9.508,-3.058,2.033,-0.058647,-0.349062,1.109834,100034.13,-150,+167,-108
214270,9.621,-3.284,1.817,-0.158152,-0.364493,1.086421,100035.77,-150,+167,-108
214281,9.728,-3.107,1.732,-0.305014,-0.365025,1.068329,100035.70,-151,+164,-109
214291,9.811,-2.742,1.550,-0.417289,-0.363961,1.070990,100033.09,-153,+162,-109
214300,9.833,-2.443,1.346,-0.450812,-0.354383,1.085357,100033.09,-154,+161,-109
214310,9.864,-2.769,1.308,-0.425803,-0.350658,1.122072,100037.79,-154,+161,-109
214321,9.961,-3.246,1.335,-0.463583,-0.348530,1.149742,100037.79,-154,+158,-109
214330,10.083,-3.617,1.303,-0.584372,-0.334163,1.172091,100035.37,-156,+156,-110
214340,10.259,-3.356,1.987,-0.742408,-0.349062,1.180072,100034.52,-158,+154,-109
214350,10.077,-2.950,2.713,-0.813179,-0.394291,1.197100,100035.48,-158,+154,-109
214361,10.169,-2.756,2.675,-0.728041,-0.435796,1.241797,100035.48,-158,+154,-109
214371,10.394,-3.223,1.999,-0.581179,-0.468787,1.290219,100038.44,-160,+150,-110
214380,10.757,-3.599,1.329,-0.556702,-0.514016,1.320017,100036.48,-159,+147,-110
214390,11.068,-3.602,0.749,-0.637583,-0.581594,1.353540,100036.22,-159,+147,-110
214401,11.579,-3.150,0.359,-0.709418,-0.645979,1.415265,100033.71,-160,+144,-110
214411,12.104,-2.824,0.408,-0.744005,-0.710364,1.489760,100036.76,-162,+141,-112
214421,12.480,-2.966,0.542,-0.722188,-0.785392,1.587136,100038.34,-162,+138,-112
214430,12.953,-3.161,0.900,-0.720592,-0.855098,1.696751,100038.34,-162,+138,-112
214440,13.392,-3.514,1.295,-0.825950,-0.933850,1.789338,100035.55,-163,+135,-114
214451,13.729,-3.412,1.853,-1.015913,-1.018456,1.882989,100032.98,-163,+131,-115
214460,14.061,-3.304,2.364,-1.154794,-1.113703,1.970788,100032.98,-163,+128,-117
214470,14.776,-3.131,2.920,-1.250041,-1.216933,2.051136,100036.36,-163,+128,-117
214480,16.057,-3.084,3.398,-1.359124,-1.312713,2.126696,100034.36,-162,+125,-117
214491,17.701,-2.612,3.663,-1.518224,-1.381355,2.188420,100033.73,-162,+122,-120
214501,19.231,-1.061,4.115,-1.794922,-1.402639,2.218219,100034.73,-160,+119,-122
214510,19.592,0.721,4.249,-2.089710,-1.400511,2.232585,100034.73,-160,+119,-122
214520,18.744,1.980,3.204,-2.212628,-1.398382,2.247484,100036.36,-160,+117,-123
214531,17.845,2.157,1.953,-2.116316,-1.419667,2.290586,100035.05,-159,+115,-124
214541,17.757,0.445,1.195,-1.719894,-1.521300,2.435851,100034.20,-158,+113,-126
214550,17.977,-1.055,1.821,-1.259087,-1.687318,2.591759,100034.20,-156,+107,-129
214560,16.464,-1.630,3.045,-1.123399,-1.802786,2.523117,100034.20,-156,+107,-129
214571,14.273,-1.204,4.182,-0.773271,-1.810235,2.411374,100038.99,-154,+103,-133
214581,13.075,-1.500,4.542,-0.179968,-1.768198,2.357099,100033.43,-152,+98,-137
214591,11.490,-1.721,4.904,0.280661,-1.680578,2.216445,100033.59,-150,+91,-141
214600,9.836,-0.603,5.287,0.662893,-1.540456,1.911191,100033.59,-150,+91,-141
214610,8.546,1.701,3.699,1.096031,-1.478731,1.443467,100033.59,-147,+85,-144
214621,4.839,-0.453,1.492,1.566948,-1.471813,1.041724,100035.66,-143,+76,-147
214631,1.533,-7.886,1.959,1.757975,-1.243538,1.050238,100033.82,-141,+70,-151
214641,5.548,-5.565,1.477,1.020471,-1.209483,1.006605,100031.96,-141,+70,-151
214650,7.241,-0.622,1.392,0.536783,-1.208951,0.465981,100031.96,-138,+66,-153
214661,6.163,2.148,3.020,0.795389,-1.006750,-0.237468,100032.71,-136,+65,-154
214671,5.036,1.254,1.794,1.027389,-0.947153,-0.489156,100032.71,-133,+63,-157
214680,4.283,-2.179,0.764,1.086985,-0.873722,-0.577486,100032.87,-133,+63,-157
214690,4.224,-3.804,0.596,0.985884,-0.794970,-0.836623,100033.02,-132,+62,-158
214701,4.211,-3.436,0.481,0.682049,-0.721007,-1.220807,100034.02,-128,+64,-160
214711,4.148,-2.195,0.331,0.480380,-0.653429,-1.600201,100034.02,-127,+66,-161
214721,4.295,-1.121,-0.308,0.637352,-0.616181,-1.906164,100036.15,-127,+66,-161
214730,4.506,-0.806,-0.726,1.065701,-0.565630,-2.117944,100038.35,-125,+69,-162
214740,4.833,-1.407,-0.355,1.523315,-0.506566,-2.267467,100032.99,-123,+70,-164
214751,5.113,-2.161,0.361,1.838324,-0.474108,-2.431889,100032.77,-121,+71,-165
214761,5.114,-2.567,1.106,2.012856,-0.452291,-2.648989,100034.71,-121,+71,-165
214771,5.086,-2.447,1.521,2.143223,-0.406530,-2.871411,100033.82,-119,+72,-166
214780,5.246,-2.669,1.683,2.315626,-0.349062,-3.041687,100033.51,-117,+72,-168
214791,5.819,-3.260,1.786,2.458764,-0.287869,-3.185888,100033.51,-116,+74,-170
214801,6.580,-4.017,1.983,2.488562,-0.242108,-3.336475,100031.73,-116,+74,-170
214810,7.193,-5.008,2.276,2.418856,-0.201667,-3.489723,100031.73,-113,+75,-171
214820,7.572,-5.520,2.627,2.249645,-0.155374,-3.639246,100032.81,-112,+76,-173
214831,7.877,-5.533,3.056,2.009663,-0.090989,-3.774934,100030.03,-111,+79,-175
214841,8.115,-5.547,3.323,1.775003,-0.012768,-3.899980,100028.30,-111,+79,-175
214851,8.335,-5.617,3.423,1.569608,0.096314,-4.013319,100029.92,-109,+83,-175
214860,8.666,-5.694,3.463,1.402526,0.229874,-4.103245,100029.92,-106,+88,-175
214871,8.991,-5.696,3.201,1.280673,0.376204,-4.168163,100032.38,-105,+94,-176
214881,8.965,-5.761,3.141,1.210434,0.538497,-4.199557,100035.35,-105,+94,-176
214891,9.207,-5.907,3.217,1.221609,0.703451,-4.192108,100032.79,-105,+99,-175
214900,9.680,-6.045,3.341,1.318985,0.852974,-4.186255,100032.79,-103,+105,-176
214910,10.034,-6.060,3.489,1.460526,0.995048,-4.194236,100032.79,-104,+109,-176
214921,10.410,-6.043,3.585,1.541939,1.132864,-4.216053,100033.71,-104,+109,-176
214931,10.804,-6.211,3.167,1.548856,1.260570,-4.216053,100035.35,-103,+115,-175
214940,11.272,-6.509,2.756,1.524379,1.388277,-4.170291,100032.40,-103,+118,-174
214950,11.626,-6.818,2.499,1.495645,1.499488,-4.072915,100031.88,-103,+122,-172
214961,11.934,-6.789,2.376,1.437113,1.595799,-3.987246,100031.88,-104,+122,-171
214971,12.361,-6.253,2.316,1.370600,1.661249,-3.924989,100035.74,-104,+127,-171
214981,13.027,-5.672,1.929,1.322710,1.691047,-3.849429,100031.63,-104,+132,-170
214990,13.559,-5.743,1.373,1.290251,1.709671,-3.770145,100030.59,-104,+135,-168
215001,14.008,-6.307,0.639,1.177444,1.704350,-3.685007,100030.59,-104,+140,-166
215011,14.322,-6.976,0.168,0.991737,1.669230,-3.548255,100034.16,-104,+140,-166
215021,14.302,-7.381,0.075,0.787407,1.608038,-3.371594,100034.16,-104,+145,-165
215030,13.627,-7.817,0.013,0.601169,1.522900,-3.162475,100032.34,-103,+151,-163
215041,12.830,-8.458,-0.172,0.483572,1.440423,-2.899081,100033.80,-103,+155,-160
215051,12.388,-9.562,-0.439,0.408545,1.371781,-2.585668,100033.65,-103,+155,-160
215061,11.745,-10.439,-0.815,0.312765,1.281855,-2.236604,100033.65,-103,+160,-160
215071,10.738,-10.884,-0.519,0.199426,1.204699,-1.799210,100036.57,-104,+164,-157
215080,10.397,-11.651,-0.515,0.073316,1.027506,-1.249009,100036.52,-103,+165,-156
215091,10.354,-11.985,-1.132,-0.066097,0.731653,-0.655706,100036.57,-103,+165,-156
215101,10.366,-11.716,-1.302,-0.104941,0.420369,-0.065596,100032.36,-104,+168,-154
215111,10.096,-10.997,-1.553,-0.145381,0.138883,0.508018,100036.16,-105,+166,-154
