40004,8.353,-4.818,1.161,-0.003854,-0.016592,-0.002903,99808.78,-204,+70,-57
40014,8.364,-4.861,1.193,-0.001725,-0.014996,-0.002371,99804.33,-204,+70,-57
40024,8.344,-4.861,1.189,-0.002790,-0.012335,-0.003435,99804.33,-203,+70,-56
40034,8.316,-4.850,1.206,-0.006514,-0.009675,-0.005564,99807.66,-202,+70,-56
40044,8.333,-4.837,1.174,-0.008643,-0.005950,-0.005564,99807.66,-203,+70,-56
40054,8.348,-4.810,1.159,-0.007046,-0.004886,-0.004499,99807.98,-203,+70,-56
40064,8.353,-4.789,1.158,-0.003854,-0.003290,-0.005032,99807.71,-204,+70,-54
40074,8.351,-4.813,1.151,-0.001193,-0.003822,-0.004499,99805.23,-203,+69,-56
40079,8.340,-4.871,1.131,0.001999,-0.002757,-0.006096,99805.23,-203,+69,-56
40089,8.340,-4.866,1.121,0.003064,-0.000629,-0.006628,99808.04,-203,+70,-56
40099,8.335,-4.860,1.146,0.003596,0.000967,-0.005564,99809.02,-204,+70,-57
40109,8.335,-4.864,1.168,0.003596,0.002564,-0.005032,99806.70,-204,+70,-57
40119,8.332,-4.846,1.145,0.003596,0.003628,-0.005564,99804.87,-204,+69,-56
40129,8.315,-4.829,1.213,0.003064,0.003096,-0.005032,99804.87,-204,+70,-55
40139,8.314,-4.830,1.263,0.001467,0.003628,-0.002903,99806.45,-203,+69,-57
40148,8.352,-4.823,1.265,-0.001193,0.002032,-0.000775,99806.88,-204,+70,-57
40159,8.363,-4.831,1.231,-0.001193,-0.000629,0.000822,99807.19,-204,+70,-57
40169,8.382,-4.787,1.228,-0.001725,-0.003290,0.003482,99806.36,-203,+70,-56
40179,8.390,-4.828,1.204,0.000935,-0.004886,0.001886,99806.36,-203,+69,-56
40188,8.378,-4.859,1.117,0.004660,-0.004886,0.003482,99809.34,-203,+69,-57
40199,8.339,-4.833,1.109,0.004128,-0.003290,0.003482,99807.33,-203,+69,-57
40209,8.354,-4.788,1.114,0.003064,-0.000629,0.005611,99805.92,-203,+69,-57
40219,8.371,-4.798,1.139,0.005192,-0.000097,0.007739,99806.66,-203,+69,-57
40228,8.352,-4.800,1.188,0.008385,-0.001693,0.011996,99806.66,-203,+70,-57
40239,8.353,-4.817,1.177,0.010513,-0.002225,0.015189,99806.38,-203,+70,-57
40249,8.323,-4.833,1.213,0.012642,-0.004354,0.018913,99807.63,-204,+70,-55
40259,8.362,-4.829,1.254,0.013174,-0.004886,0.020510,99807.78,-203,+69,-57
40269,8.431,-4.817,1.317,0.014238,-0.006482,0.020510,99805.59,-204,+69,-56
40279,8.400,-4.873,1.249,0.019559,-0.009675,0.017317,99805.59,-204,+69,-56
40289,8.417,-4.953,1.096,0.020091,-0.010739,0.013060,99806.84,-203,+70,-56
40299,8.362,-4.957,1.068,0.010513,-0.002757,0.009335,99807.78,-203,+68,-57
40309,8.316,-4.906,1.066,-0.004386,0.008417,0.006675,99808.30,-203,+69,-56
40318,8.333,-4.877,1.067,-0.011835,0.017995,0.006143,99807.25,-203,+69,-56
40329,8.310,-4.801,1.068,-0.009707,0.020655,0.004014,99807.25,-204,+69,-56
40339,8.323,-4.792,1.169,-0.001725,0.020123,0.005611,99808.48,-204,+69,-56
40349,8.281,-4.800,1.181,0.006788,0.018527,0.009335,99811.79,-204,+68,-57
40359,8.290,-4.809,1.234,0.013174,0.014802,0.013592,99806.55,-204,+68,-57
40369,8.321,-4.810,1.267,0.015302,0.011610,0.019446,99806.45,-204,+68,-55
40379,8.315,-4.827,1.246,0.014770,0.010545,0.024234,99806.45,-203,+68,-57
40389,8.311,-4.847,1.231,0.013174,0.009481,0.025831,99806.52,-203,+68,-56
40399,8.358,-4.843,1.192,0.012642,0.008949,0.027959,99806.48,-203,+68,-56
40409,8.363,-4.866,1.214,0.013174,0.007353,0.029023,99808.76,-204,+68,-56
40419,8.347,-4.815,1.277,0.014770,0.007885,0.030620,99803.15,-204,+68,-56
40429,8.336,-4.827,1.265,0.017431,0.005224,0.029556,99803.15,-203,+68,-55
40434,8.376,-4.892,1.155,0.023284,0.004692,0.027959,99808.78,-203,+68,-55
40443,8.429,-4.943,1.049,0.025944,0.004692,0.025831,99808.78,-204,+68,-55
40454,8.377,-4.946,1.059,0.024880,0.006821,0.024234,99805.98,-204,+68,-55
40464,8.284,-4.862,1.108,0.019559,0.012674,0.023702,99807.38,-204,+68,-55
40474,8.297,-4.829,1.167,0.020623,0.016931,0.025299,99804.22,-203,+67,-56
40484,8.298,-4.847,1.147,0.027541,0.018527,0.026895,99807.73,-204,+68,-56
40495,8.298,-4.852,1.205,0.031265,0.019591,0.028491,99806.85,-203,+66,-56
40504,8.286,-4.880,1.240,0.033926,0.017995,0.029023,99804.35,-203,+66,-56
40514,8.335,-4.831,1.284,0.036587,0.014270,0.031152,99804.35,-204,+67,-55
40524,8.391,-4.833,1.325,0.038715,0.011610,0.034877,99805.45,-204,+67,-55
40534,8.329,-4.971,1.255,0.037651,0.011077,0.034877,99805.45,-204,+66,-56
40544,8.274,-5.016,1.217,0.032330,0.012674,0.032216,99807.38,-204,+66,-56
40554,8.256,-4.921,1.235,0.023284,0.017463,0.030088,99806.71,-204,+66,-55
40564,8.262,-4.910,1.225,0.018495,0.020655,0.029023,99806.60,-204,+66,-56
40574,8.272,-4.922,1.188,0.019027,0.023848,0.029023,99807.85,-204,+66,-55
40584,8.208,-4.885,1.208,0.019027,0.021720,0.030088,99807.85,-204,+66,-55
40594,8.237,-4.848,1.289,0.022752,0.019059,0.032216,99808.61,-204,+66,-54
40604,8.340,-4.917,1.273,0.027541,0.015866,0.036473,99803.67,-204,+66,-55
40614,8.358,-4.962,1.302,0.044568,0.007885,0.039134,99807.78,-204,+66,-55
40625,8.370,-4.974,1.147,0.049889,0.006288,0.038601,99807.78,-204,+66,-55
40634,8.165,-5.138,0.999,0.029137,0.008949,0.044987,99807.78,-204,+66,-55
40644,8.144,-5.041,1.163,-0.013964,0.014802,0.055097,99810.37,-203,+66,-55
40654,8.408,-4.777,1.420,-0.056533,0.022252,0.066803,99809.80,-204,+65,-55
40664,8.573,-4.452,1.795,-0.068239,0.019591,0.088088,99806.59,-204,+65,-55
40674,8.533,-4.539,1.913,-0.030991,-0.004886,0.101390,99806.99,-204,+66,-55
40684,8.436,-4.781,1.881,0.023816,-0.042666,0.099262,99806.99,-204,+65,-55
40694,8.619,-4.981,1.607,0.067449,-0.080445,0.085959,99809.45,-204,+65,-55
40705,8.877,-5.126,1.168,0.082880,-0.090556,0.059886,99808.36,-204,+65,-55
40714,8.678,-5.406,0.763,0.098843,-0.075124,0.026363,99807.59,-204,+64,-56
40724,8.352,-5.550,0.677,0.078091,-0.029895,-0.000243,99807.59,-203,+64,-55
40734,8.245,-5.362,0.588,0.025412,0.025977,-0.028976,99805.45,-204,+64,-56
40744,8.397,-5.230,0.536,-0.016092,0.077591,-0.050261,99807.89,-204,+64,-56
40754,8.418,-4.971,0.800,-0.025138,0.101536,-0.059307,99807.89,-204,+64,-55
40764,8.320,-4.734,1.117,-0.013432,0.110582,-0.057178,99803.94,-204,+65,-55
40774,8.171,-4.738,1.468,0.009449,0.105261,-0.050261,99807.06,-204,+64,-54
40784,8.102,-4.777,1.678,0.031798,0.089298,-0.040683,99807.06,-204,+64,-54
40790,8.117,-4.835,1.700,0.040311,0.079187,-0.034830,99806.49,-204,+65,-53
40799,8.152,-5.008,1.613,0.035522,0.071738,-0.030573,99805.66,-204,+65,-53
40809,8.026,-5.047,1.682,0.014238,0.070142,-0.027380,99807.23,-204,+65,-53
40819,7.919,-4.974,1.582,-0.012368,0.077591,-0.022059,99802.23,-205,+64,-54
40829,7.998,-4.842,1.399,-0.014496,0.069610,-0.022059,99802.23,-204,+64,-53
40839,8.041,-4.800,1.283,0.007320,0.053114,-0.023123,99809.94,-204,+64,-53
40849,8.086,-4.861,1.146,0.027009,0.047261,-0.020463,99806.92,-204,+64,-53
40859,8.176,-4.943,0.979,0.046697,0.043004,-0.022059,99805.58,-205,+65,-53
40869,8.093,-4.991,0.961,0.059999,0.043536,-0.029509,99807.81,-204,+66,-53
40879,7.971,-4.974,0.985,0.060531,0.052582,-0.035362,99807.81,-204,+66,-53
40889,8.061,-4.892,1.070,0.059467,0.060032,-0.036426,99807.69,-204,+66,-53
40899,8.195,-4.855,1.205,0.069577,0.057371,-0.034298,99808.16,-205,+65,-53
40909,8.267,-4.779,1.500,0.085541,0.050986,-0.030573,99807.69,-204,+64,-53
40920,8.344,-4.702,1.620,0.106825,0.041408,-0.020995,99804.73,-205,+64,-53
40929,8.382,-4.843,1.542,0.131302,0.029169,-0.013545,99804.73,-205,+64,-53
40939,8.235,-4.977,1.461,0.143008,0.022252,-0.013545,99808.25,-204,+64,-53
40949,8.128,-5.083,1.344,0.127577,0.030765,-0.014610,99808.98,-205,+64,-53
40960,8.278,-5.146,1.217,0.104164,0.041408,-0.020463,99806.91,-206,+64,-53
40969,8.352,-5.040,1.210,0.078623,0.052582,-0.030573,99807.89,-206,+64,-53
40979,8.212,-4.795,1.261,0.074898,0.058967,-0.033233,99807.89,-205,+65,-52
40989,8.156,-4.633,1.313,0.092990,0.053114,-0.028444,99808.45,-206,+65,-52
40999,8.078,-4.673,1.612,0.125449,0.036619,-0.019931,99808.71,-206,+64,-52
41010,7.976,-4.903,1.649,0.131834,0.037683,-0.014610,99810.21,-206,+64,-52
41019,8.095,-5.055,1.619,0.114275,0.040876,-0.012481,99805.74,-206,+64,-52
41025,8.206,-5.041,1.700,0.097779,0.043004,-0.013545,99805.74,-206,+64,-51
41034,8.187,-4.943,1.711,0.078623,0.050986,-0.014077,99805.74,-206,+64,-51
41044,8.192,-4.781,1.450,0.064788,0.056839,-0.014610,99807.83,-205,+64,-52
41055,8.389,-4.751,1.298,0.075431,0.053646,-0.013545,99806.69,-206,+64,-52
41064,8.414,-4.841,1.292,0.091394,0.056307,-0.012481,99805.55,-206,+64,-51
41074,8.242,-4.886,1.200,0.097247,0.064288,-0.016738,99807.59,-206,+64,-51
41084,8.129,-4.956,1.272,0.091926,0.077591,-0.018866,99808.67,-206,+64,-50
41095,8.187,-5.161,1.532,0.069045,0.095683,-0.026848,99806.19,-207,+64,-51
41104,8.312,-5.366,1.635,0.025944,0.116435,-0.038554,99806.19,-205,+64,-50
41114,8.467,-5.382,1.651,-0.038973,0.141976,-0.055582,99806.08,-205,+64,-50
41124,8.723,-5.346,1.615,-0.092716,0.155279,-0.069949,99809.20,-206,+65,-50
41135,8.861,-5.219,1.530,-0.125175,0.161132,-0.081123,99809.20,-206,+65,-49
41144,8.642,-5.151,1.390,-0.156037,0.168582,-0.086976,99807.40,-206,+65,-49
41154,8.424,-4.982,1.557,-0.194881,0.174967,-0.083252,99809.23,-206,+65,-49
41164,8.387,-4.770,2.026,-0.215101,0.168582,-0.078995,99807.30,-207,+66,-49
41175,8.423,-4.807,2.161,-0.208716,0.153151,-0.081123,99803.93,-207,+66,-47
41185,8.429,-5.147,1.848,-0.203395,0.138784,-0.096554,99803.93,-207,+68,-47
41194,8.393,-5.323,1.655,-0.239578,0.140380,-0.120499,99807.53,-207,+68,-47
41204,8.463,-5.156,1.661,-0.295982,0.149426,-0.141252,99806.28,-206,+67,-47
41214,8.579,-4.889,1.821,-0.317799,0.143041,-0.159343,99807.02,-207,+68,-46
41225,8.551,-4.670,1.904,-0.310349,0.128674,-0.163068,99807.02,-206,+70,-46
41234,8.413,-4.595,1.870,-0.289065,0.104729,-0.158811,99807.02,-206,+70,-46
41244,8.303,-4.579,1.943,-0.269909,0.081848,-0.149765,99808.51,-206,+70,-46
41254,8.247,-4.617,1.891,-0.265120,0.062692,-0.140720,99806.90,-208,+72,-46
41265,8.202,-4.691,1.789,-0.258202,0.046197,-0.135398,99806.59,-206,+72,-46
41274,8.174,-4.708,1.741,-0.246496,0.030233,-0.133270,99805.76,-206,+72,-46
41284,8.090,-4.719,1.794,-0.239578,0.018527,-0.133270,99805.76,-207,+73,-46
41294,8.080,-4.660,1.744,-0.237450,0.012674,-0.130077,99805.73,-208,+72,-45
41305,8.043,-4.625,1.694,-0.230000,0.006288,-0.127417,99807.98,-207,+73,-45
41315,7.993,-4.706,1.954,-0.225744,0.012674,-0.120499,99806.24,-207,+73,-45
41324,8.189,-4.646,1.478,-0.247028,0.015866,-0.117307,99806.24,-207,+73,-46
41334,8.321,-4.566,1.246,-0.235854,0.004160,-0.115178,99809.51,-207,+75,-45
41345,8.341,-4.497,1.271,-0.214569,-0.004886,-0.109857,99809.51,-208,+76,-46
41355,8.363,-4.361,1.238,-0.189560,-0.011271,-0.099215,99807.59,-208,+76,-46
41364,8.566,-4.320,1.192,-0.150184,-0.027234,-0.084848,99808.15,-207,+77,-46
41374,8.676,-4.412,1.368,-0.107083,-0.048519,-0.072077,99804.98,-208,+76,-45
41379,8.632,-4.572,1.562,-0.090588,-0.057033,-0.064628,99804.98,-208,+76,-45
41390,8.539,-4.727,1.664,-0.093248,-0.056501,-0.058243,99809.44,-207,+77,-45
41400,8.441,-4.721,1.650,-0.107615,-0.054904,-0.050793,99805.75,-207,+77,-46
41409,8.384,-4.703,1.626,-0.121982,-0.058097,-0.046536,99806.63,-207,+77,-46
41419,8.263,-4.613,1.686,-0.128367,-0.060757,-0.039619,99805.08,-207,+77,-46
41430,8.202,-4.581,1.566,-0.137413,-0.065014,-0.030573,99805.08,-207,+77,-46
41440,8.297,-4.649,1.462,-0.144331,-0.076189,-0.019399,99807.45,-206,+77,-46
41449,8.438,-4.635,1.617,-0.149120,-0.093748,-0.006628,99806.46,-206,+79,-46
41459,8.505,-4.552,1.734,-0.154441,-0.109711,0.007207,99806.46,-206,+79,-46
41469,8.485,-4.537,1.700,-0.152845,-0.129400,0.024234,99806.87,-206,+77,-47
41480,8.421,-4.520,1.584,-0.150716,-0.149620,0.045519,99806.87,-206,+79,-47
41489,8.512,-4.418,1.603,-0.143799,-0.176757,0.068932,99805.79,-206,+78,-47
41499,8.545,-4.443,1.659,-0.133156,-0.208152,0.094473,99806.52,-206,+78,-47
41509,8.558,-4.423,1.465,-0.129964,-0.226244,0.124271,99806.79,-206,+78,-47
41520,8.571,-4.573,1.188,-0.131028,-0.245399,0.152473,99806.88,-206,+78,-49
41530,8.627,-4.718,1.186,-0.129964,-0.262959,0.171097,99806.88,-206,+77,-50
41539,8.622,-4.728,1.255,-0.140606,-0.276794,0.187060,99808.80,-206,+77,-50
41549,8.685,-4.655,1.206,-0.148588,-0.297014,0.208344,99806.88,-204,+77,-50
41560,8.937,-4.427,1.035,-0.139010,-0.341179,0.232822,99806.61,-205,+77,-50
41570,9.583,-4.197,1.328,-0.095909,-0.427381,0.265812,99805.58,-204,+75,-52
41579,10.318,-4.253,2.246,-0.038441,-0.543913,0.309977,99805.58,-204,+75,-52
41589,10.593,-4.896,2.592,-0.002790,-0.665766,0.356803,99807.26,-204,+75,-54
41600,10.490,-5.448,2.378,-0.037377,-0.770060,0.403097,99806.63,-203,+72,-56
41610,10.406,-5.655,2.183,-0.192221,-0.831252,0.469610,99807.57,-202,+72,-59
41619,10.835,-5.574,1.778,-0.434863,-0.853601,0.558473,99807.66,-202,+72,-59
41629,11.645,-5.042,1.184,-0.683358,-0.856261,0.661170,99807.66,-202,+72,-61
41639,12.073,-4.441,1.678,-0.878110,-0.842427,0.795794,99807.15,-201,+69,-64
41650,13.070,-3.910,1.922,-1.003688,-0.828060,0.930417,99805.43,-200,+67,-65
41660,14.092,-4.256,1.315,-1.018055,-0.883931,1.012362,99803.62,-199,+65,-68
41669,15.519,-4.865,0.698,-0.878110,-0.972261,1.056527,99805.65,-199,+65,-68
41679,16.390,-4.447,0.625,-0.763707,-1.113803,1.083133,99805.65,-198,+62,-71
41690,15.441,-3.106,0.738,-0.649303,-1.197344,1.199665,99807.18,-197,+58,-74
41700,12.897,-3.848,-0.077,-0.559376,-1.237784,1.255536,99804.79,-195,+55,-77
41709,11.086,-7.062,-0.406,-0.215101,-1.370279,1.338546,99807.70,-195,+55,-77
41719,10.251,-9.688,-0.383,0.135027,-1.482555,1.359830,99806.60,-192,+51,-83
41730,9.286,-11.564,-0.622,0.253155,-1.495325,1.353977,99806.60,-190,+46,-85
41735,8.620,-12.460,-0.837,0.201008,-1.472445,1.366747,99806.41,-190,+46,-85
41744,8.019,-12.932,-1.687,0.059999,-1.428279,1.339610,99806.41,-188,+41,-90
41755,7.278,-13.352,-3.380,-0.200202,-1.397949,1.331096,99806.30,-185,+36,-94
41764,6.389,-12.674,-3.456,-0.361964,-1.383582,1.312472,99808.84,-185,+36,-94
41775,5.451,-11.345,-1.454,-0.505101,-1.202665,1.248087,99806.43,-183,+34,-98
41785,5.119,-9.557,0.314,-0.629615,-0.988225,1.180509,99804.41,-181,+31,-100
41795,5.298,-7.959,-0.525,-0.769560,-0.890316,1.140601,99807.48,-179,+29,-104
41804,4.698,-7.182,-1.584,-0.832349,-0.869032,1.139004,99806.85,-179,+29,-104
41815,3.881,-7.077,-1.453,-0.765303,-0.788151,1.139004,99806.85,-177,+27,-107
41825,3.341,-6.360,-1.071,-0.688147,-0.684922,1.100693,99806.02,-176,+25,-108
41834,3.003,-5.151,-1.177,-0.629083,-0.608830,1.035243,99806.02,-174,+23,-110
41844,2.761,-4.289,-1.601,-0.541285,-0.575308,0.976711,99805.59,-174,+23,-110
41854,2.456,-3.768,-1.891,-0.393890,-0.569454,0.928821,99803.88,-172,+21,-111
41865,2.234,-3.510,-1.996,-0.237450,-0.552959,0.872417,99805.06,-171,+19,-114
41875,1.968,-3.173,-1.903,-0.129964,-0.513583,0.787812,99804.66,-170,+17,-115
41884,1.746,-2.758,-1.766,-0.038441,-0.469418,0.703207,99804.66,-168,+15,-116
41894,1.540,-2.445,-1.605,0.046697,-0.423656,0.614876,99806.20,-168,+15,-116
41905,1.288,-2.231,-1.449,0.122256,-0.374170,0.513775,99801.13,-167,+13,-118
41915,1.044,-2.129,-1.301,0.186109,-0.318299,0.407354,99802.67,-167,+13,-119
41925,0.839,-2.163,-1.094,0.220164,-0.244867,0.291354,99802.67,-166,+11,-119
41934,0.775,-2.144,-1.051,0.226018,-0.166647,0.178014,99802.67,-166,+11,-119
41945,0.760,-2.072,-1.183,0.216440,-0.090556,0.068932,99806.20,-166,+11,-119
41955,0.652,-2.046,-1.380,0.186641,-0.012868,-0.044408,99804.33,-166,+9,-119
41965,0.591,-2.052,-1.525,0.152586,0.070674,-0.161472,99806.09,-167,+9,-119
41970,0.667,-1.957,-1.695,0.121192,0.131334,-0.252995,99805.16,-167,+9,-119
41979,0.815,-1.971,-1.836,0.100972,0.187206,-0.345582,99805.16,-167,+11,-118
41990,1.074,-2.082,-1.918,0.092458,0.255848,-0.479141,99808.01,-167,+11,-118
42000,1.336,-2.107,-1.837,0.106293,0.320765,-0.614829,99806.96,-169,+12,-117
42009,1.633,-2.114,-1.622,0.133963,0.388875,-0.746793,99805.87,-169,+14,-115
42019,2.128,-2.301,-1.410,0.179192,0.447407,-0.875563,99804.05,-169,+16,-115
42030,2.718,-2.485,-1.364,0.242513,0.484655,-1.003802,99804.05,-169,+16,-115
42040,3.142,-2.742,-1.332,0.324458,0.511261,-1.121930,99807.48,-172,+19,-113
42050,3.517,-3.048,-1.326,0.411724,0.544784,-1.243251,99807.02,-173,+21,-112
42059,3.745,-3.295,-1.338,0.485155,0.591609,-1.369893,99807.84,-175,+24,-111
42070,3.983,-3.492,-1.256,0.541559,0.659719,-1.492810,99806.28,-175,+24,-111
42080,4.200,-3.695,-1.124,0.587320,0.750178,-1.610407,99806.28,-177,+28,-108
42090,4.479,-3.936,-0.834,0.627228,0.860325,-1.722682,99807.42,-178,+32,-105
42099,5.034,-4.222,-0.581,0.652238,0.991224,-1.837618,99807.42,-180,+37,-103
42109,5.821,-4.645,-0.426,0.630953,1.127976,-1.958406,99806.02,-180,+37,-103
42120,6.778,-5.053,-0.153,0.558586,1.278563,-2.081856,99806.27,-183,+41,-98
42130,8.057,-5.032,0.119,0.439926,1.442453,-2.222865,99806.27,-185,+48,-95
42140,9.683,-5.044,0.459,0.329247,1.610067,-2.360681,99808.41,-188,+55,-90
42149,11.563,-5.038,0.804,0.270715,1.771829,-2.475085,99807.05,-189,+55,-84
42160,13.613,-4.986,1.384,0.336164,1.929333,-2.525635,99805.55,-189,+63,-84
42170,15.781,-5.852,1.314,0.611797,1.978819,-2.511268,99804.72,-191,+70,-78
42179,10.031,-21.829,-3.707,0.653302,2.147498,-2.135067,99804.72,-192,+77,-72
42189,26.126,-37.109,-11.970,1.255650,1.512159,-0.862260,99810.88,-194,+77,-71
42200,41.068,-36.141,-7.988,2.191631,-0.493363,-0.315784,99811.44,-194,+77,-71
42210,34.767,1.348,-1.801,0.890623,0.082912,-1.158113,99808.84,-193,+77,-72
42220,17.306,14.611,8.164,-1.245266,1.830361,-1.031471,99806.83,-195,+82,-68
42229,-2.306,12.194,6.193,-1.902421,1.846324,-0.069417,99806.83,-198,+84,-61
42240,1.246,0.853,3.283,-1.401706,1.206728,0.331262,99803.75,-198,+84,-61
42250,6.127,-7.118,1.054,0.162697,0.639499,-0.015674,99807.23,-198,+85,-58
42260,6.937,-10.696,0.069,0.897540,0.213811,-0.238096,99806.14,-199,+84,-58
42269,9.867,-10.065,0.706,1.034824,0.072802,-0.207233,99808.22,-199,+83,-59
42279,9.302,-5.557,2.046,0.760788,0.087169,-0.212022,99808.22,-199,+83,-59
42290,4.803,-2.150,3.895,0.547412,0.217004,-0.253527,99809.90,-200,+83,-58
42300,3.285,-2.714,4.587,0.262201,0.474013,-0.263637,99809.12,-199,+83,-58
42310,6.459,-4.694,1.574,0.034990,0.602251,-0.244481,99805.07,-200,+83,-55
42319,10.460,-5.092,-1.485,0.126513,0.486784,-0.175839,99806.73,-200,+83,-55
42326,11.938,-4.931,-2.166,0.259541,0.360141,-0.121031,99806.73,-201,+85,-53
42335,11.510,-4.660,-1.046,0.264862,0.320233,-0.073142,99806.73,-201,+85,-53
42345,9.762,-3.917,0.945,0.149926,0.389407,-0.020463,99809.61,-201,+84,-53
42355,8.718,-3.273,1.212,0.110018,0.411224,0.011464,99808.00,-202,+83,-52
42364,8.856,-4.119,0.542,0.256348,0.323426,0.021574,99803.53,-201,+84,-51
42375,9.527,-5.129,1.026,0.347871,0.230307,0.044987,99803.42,-201,+84,-50
42385,9.822,-4.734,2.291,0.228678,0.199976,0.095005,99807.11,-201,+83,-50
42395,9.265,-3.847,2.809,0.057339,0.172839,0.151409,99807.16,-202,+83,-50
42404,8.529,-3.537,2.409,0.007853,0.103665,0.226436,99807.16,-203,+81,-50
42415,8.089,-4.046,1.879,0.056807,-0.000629,0.300399,99806.89,-202,+79,-50
42425,8.092,-4.560,1.578,0.075963,-0.068739,0.358932,99807.27,-202,+79,-50
42435,8.347,-4.634,1.551,0.027541,-0.085234,0.421188,99807.27,-203,+79,-50
42445,8.213,-4.122,1.751,-0.006869,-0.119822,0.510051,99807.87,-203,+77,-50
42455,7.776,-3.552,1.846,-0.022478,-0.112904,0.629243,99807.87,-203,+75,-50
42465,7.786,-4.739,1.448,-0.020881,-0.077785,0.744711,99805.20,-203,+75,-50
42475,7.927,-5.188,0.752,-0.018221,-0.073528,0.572308,99807.16,-203,+72,-51
42485,8.451,-4.619,0.335,0.000403,-0.049583,0.450987,99807.16,-203,+71,-50
42494,8.934,-4.467,0.566,0.044036,-0.016592,0.422785,99809.91,-203,+69,-51
42505,9.149,-4.600,1.175,0.123320,-0.019253,0.422785,99804.80,-203,+69,-51
42515,9.176,-4.834,1.643,0.190898,-0.053308,0.421720,99805.84,-203,+68,-51
42525,8.757,-5.257,2.063,0.197816,-0.093748,0.418528,99805.84,-204,+66,-50
42534,8.007,-5.426,2.377,0.150990,-0.119289,0.404693,99805.84,-204,+64,-52
42545,7.599,-5.161,2.050,0.094054,-0.136849,0.400968,99805.65,-204,+64,-52
42555,7.781,-4.910,1.664,0.078091,-0.161858,0.409482,99807.99,-203,+63,-52
42565,8.065,-4.932,1.527,0.103632,-0.201766,0.414271,99804.09,-203,+61,-52
42575,8.377,-4.977,1.028,0.137155,-0.233161,0.434491,99802.90,-202,+60,-53
42585,8.558,-5.290,0.789,0.127045,-0.244867,0.458968,99802.90,-202,+60,-53
42595,8.540,-5.518,0.902,0.067449,-0.226244,0.473867,99809.02,-203,+58,-53
42605,8.396,-5.120,1.213,-0.008643,-0.200702,0.491959,99805.27,-202,+56,-54
42615,8.280,-4.943,1.164,-0.029927,-0.191124,0.508986,99802.83,-202,+54,-55
42625,8.170,-5.253,1.091,0.015302,-0.202299,0.522821,99802.83,-202,+54,-55
42635,7.956,-5.743,1.076,0.056807,-0.215601,0.522821,99807.79,-202,+53,-55
42645,7.811,-6.133,0.964,0.044036,-0.211877,0.497812,99807.79,-202,+51,-56
42655,7.751,-6.508,0.764,-0.027799,-0.179950,0.460564,99806.90,-202,+49,-56
42664,7.726,-6.428,0.787,-0.135817,-0.126207,0.427042,99807.05,-202,+49,-56
42675,7.716,-6.021,0.995,-0.224147,-0.076189,0.396711,99806.49,-202,+48,-57
42680,7.770,-5.659,1.004,-0.255542,-0.053840,0.385537,99806.49,-202,+47,-57
42690,7.891,-5.406,0.986,-0.250221,-0.046390,0.381812,99808.05,-202,+47,-57
42700,8.041,-5.390,1.046,-0.215633,-0.047987,0.384473,99806.45,-202,+46,-57
42710,8.042,-5.655,0.988,-0.174129,-0.067143,0.389794,99806.18,-202,+45,-57
42720,8.014,-5.846,1.146,-0.164019,-0.074060,0.387133,99807.43,-202,+44,-57
42730,7.931,-5.931,1.468,-0.200734,-0.081510,0.380216,99807.43,-202,+44,-57
42740,7.818,-5.826,1.504,-0.249156,-0.081510,0.373831,99808.47,-202,+43,-57
42749,7.875,-5.688,1.052,-0.267248,-0.083638,0.374895,99806.75,-202,+41,-57
42760,8.048,-5.734,0.748,-0.258202,-0.096941,0.380748,99807.73,-201,+41,-57
42770,7.974,-5.840,0.789,-0.252349,-0.108115,0.392454,99806.33,-201,+41,-57
42780,7.855,-5.884,0.925,-0.259266,-0.111840,0.407886,99806.33,-202,+40,-58
42790,7.800,-5.969,0.931,-0.281615,-0.109711,0.420124,99807.86,-201,+39,-58
42800,7.820,-5.868,1.104,-0.316202,-0.112904,0.432895,99807.30,-201,+37,-58
42810,7.779,-5.606,1.210,-0.316202,-0.122482,0.454179,99807.55,-201,+37,-58
42820,7.763,-5.510,1.048,-0.260863,-0.164519,0.471739,99806.83,-201,+37,-59
42830,7.626,-5.539,1.071,-0.172000,-0.221455,0.494087,99806.83,-201,+36,-59
42840,7.468,-5.667,1.074,-0.122514,-0.255510,0.513243,99806.02,-201,+34,-60
42850,7.412,-5.979,1.026,-0.131028,-0.258702,0.533996,99808.68,-201,+34,-60
42860,7.549,-6.305,0.897,-0.183707,-0.250721,0.549959,99807.07,-200,+32,-60
42870,7.750,-6.241,0.959,-0.253945,-0.242739,0.569115,99804.57,-199,+30,-61
42880,7.792,-6.279,0.907,-0.301303,-0.246996,0.586142,99804.57,-199,+29,-63
42890,7.914,-6.554,0.464,-0.324184,-0.262959,0.602638,99807.13,-199,+29,-63
42900,8.091,-6.641,0.385,-0.389101,-0.254977,0.626051,99807.34,-199,+27,-63
42910,8.174,-6.853,0.302,-0.463065,-0.243803,0.651592,99807.03,-199,+25,-64
42915,8.158,-6.884,0.321,-0.501376,-0.244335,0.675005,99805.47,-199,+25,-64
42925,8.134,-6.824,0.211,-0.535964,-0.245932,0.700014,99805.47,-197,+24,-65
42935,7.886,-7.277,0.995,-0.587578,-0.237418,0.733537,99805.47,-197,+22,-66
42945,8.605,-6.232,0.799,-0.645578,-0.265088,0.752161,99807.65,-197,+21,-66
42955,8.627,-6.492,0.325,-0.642385,-0.304464,0.760674,99807.90,-197,+21,-66
42966,9.007,-6.625,-0.028,-0.594496,-0.382152,0.787812,99807.51,-195,+20,-67
42975,9.056,-6.944,-0.026,-0.587046,-0.431106,0.818674,99807.51,-194,+17,-69
42985,9.211,-7.196,-0.026,-0.620037,-0.449730,0.852197,99809.04,-194,+14,-71
42995,9.417,-7.245,0.045,-0.670055,-0.463564,0.881995,99809.04,-194,+14,-71
43005,9.487,-7.251,-0.032,-0.694000,-0.486977,0.911794,99807.59,-192,+13,-72
43015,9.480,-7.352,-0.178,-0.721138,-0.503473,0.947977,99805.46,-192,+11,-74
43025,9.996,-6.631,-0.568,-0.757853,-0.528482,0.996931,99805.26,-191,+8,-76
43035,10.675,-6.092,-1.269,-0.741535,-0.585950,1.054222,99806.52,-191,+8,-76
43045,11.152,-6.030,-1.598,-0.644514,-0.676941,1.111335,99806.52,-189,+6,-77
43056,11.524,-6.552,-1.230,-0.562037,-0.772188,1.174124,99807.93,-187,+2,-80
43065,11.747,-7.261,-0.876,-0.552991,-0.833381,1.223610,99808.82,-185,+0,-83
43075,11.865,-7.618,-0.275,-0.648771,-0.838702,1.259793,99806.27,-185,+0,-83
43085,11.778,-7.498,0.281,-0.856826,-0.800922,1.285335,99806.35,-183,-2,-85
43096,11.835,-6.733,0.636,-1.071798,-0.753032,1.309812,99808.23,-181,-5,-88
43105,11.885,-6.282,1.067,-1.236752,-0.738133,1.354509,99803.29,-178,-7,-90
43115,12.678,-5.279,1.751,-1.433101,-0.745051,1.389628,99803.29,-178,-7,-90
43125,15.007,-3.538,3.120,-1.586880,-0.797729,1.357169,99803.29,-176,-9,-93
43134,16.754,-3.464,4.646,-1.489504,-0.921179,1.385371,99803.29,-172,-11,-97
43145,16.046,-4.835,3.917,-1.364458,-0.995674,1.526912,99806.90,-170,-13,-100
43155,14.947,-4.294,3.152,-1.579431,-1.010573,1.645573,99806.37,-170,-13,-100
43165,15.258,-3.592,2.702,-1.611889,-1.177656,1.856820,99802.59,-166,-15,-104
43175,16.668,-3.309,2.969,-1.299541,-1.499582,2.067004,99805.45,-162,-18,-109
43185,16.633,-4.046,3.494,-0.861615,-1.826830,2.275591,99805.45,-155,-24,-113
43195,16.062,-5.213,3.706,-0.576936,-1.993912,2.409683,99805.03,-155,-24,-113
43205,14.719,-7.234,3.185,-0.417303,-2.028499,2.508655,99802.72,-148,-30,-119
43215,13.193,-8.133,3.182,-0.354514,-1.980077,2.516637,99803.95,-141,-37,-124
43226,11.835,-7.217,4.898,-0.353982,-1.830554,2.379884,99803.95,-135,-43,-128
43235,11.146,-6.787,6.502,-0.326844,-1.644848,2.113297,99803.95,-135,-43,-128
43245,10.043,-5.866,7.523,-0.248092,-1.360169,1.713683,99806.60,-128,-46,-131
43255,9.211,-3.422,3.914,-0.394422,-1.013766,1.307151,99804.68,-123,-50,-133
43266,1.603,-7.434,-1.363,-1.110642,-0.592867,1.269371,99805.55,-120,-51,-136
43275,3.559,-15.213,-0.781,-1.933284,0.228178,1.426876,99805.24,-120,-51,-136
43285,8.182,-8.145,2.501,-2.276495,0.516582,0.893170,99805.24,-118,-49,-138
43295,7.404,0.806,2.865,-2.220091,0.619811,0.386601,99805.91,-119,-45,-139
43305,6.704,4.238,3.289,-1.722036,0.783701,0.093409,99805.04,-121,-41,-139
43316,5.382,2.918,0.958,-0.998367,0.728361,-0.110389,99805.95,-121,-41,-139
43325,4.984,1.087,-0.466,-0.273101,0.611297,-0.240756,99805.95,-122,-40,-139
43335,4.993,-0.434,-0.865,0.370751,0.539462,-0.411031,99803.52,-124,-41,-137
43345,4.356,-1.955,-0.350,0.915100,0.515517,-0.630261,99805.40,-126,-43,-134
43355,4.182,-2.381,-0.142,1.293962,0.575114,-0.961233,99805.40,-126,-43,-134
43365,4.296,-2.207,-0.308,1.476476,0.688453,-1.335306,99803.21,-128,-45,-131
43375,4.489,-2.234,-0.559,1.470090,0.844361,-1.650315,99800.04,-132,-46,-127
43385,4.744,-2.199,-1.346,1.315778,1.027407,-1.898810,99800.04,-137,-46,-122
43396,4.981,-2.617,-1.790,1.038017,1.282820,-2.138259,99802.55,-143,-46,-122
43405,5.624,-3.183,-1.938,0.699063,1.498324,-2.379305,99802.66,-143,-42,-117
43415,5.916,-3.514,-2.020,0.465467,1.628159,-2.629929,99800.94,-148,-38,-113
43425,5.982,-3.273,-1.939,0.437797,1.732985,-2.868314,99795.58,-155,-33,-107
43436,6.002,-3.312,-1.786,0.567100,1.836746,-3.083286,99803.42,-162,-26,-102
43446,6.257,-3.403,-1.750,0.733118,1.919755,-3.269525,99800.63,-162,-26,-102
43455,6.733,-3.641,-1.576,0.950219,1.983608,-3.417984,99799.31,-167,-19,-96
43465,7.318,-4.194,-1.186,1.189136,2.024049,-3.555800,99798.70,-172,-12,-90
43475,7.841,-5.084,-1.353,1.351962,2.067149,-3.678717,99798.70,-177,-3,-84
43485,8.280,-5.934,-1.610,1.471154,2.101204,-3.781414,99798.70,-177,-3,-84
43495,8.618,-6.623,-1.884,1.604182,2.118232,-3.864956,99805.21,-183,+3,-77
43505,8.672,-7.660,-2.013,1.743062,2.112911,-3.912313,99803.02,-187,+11,-70
43515,8.581,-9.124,-1.601,1.774989,2.126746,-3.954350,99801.82,-192,+20,-65
43526,8.379,-10.155,-0.852,1.603118,2.196984,-4.011818,99802.66,-192,+20,-65
43535,8.300,-10.271,-0.106,1.280127,2.340654,-4.069818,99802.66,-195,+28,-58
43545,8.723,-9.658,0.068,0.927338,2.518378,-4.111323,99803.68,-199,+40,-52
43555,9.580,-8.651,-0.423,0.622971,2.687057,-4.119304,99804.26,-201,+51,-44
43566,10.646,-8.019,-1.097,0.412256,2.828066,-4.082057,99801.76,-201,+51,-44
43576,11.918,-8.098,-1.651,0.366495,2.892452,-4.017139,99801.76,-204,+62,-36
43585,13.083,-8.204,-1.926,0.443118,2.868507,-3.944772,99801.76,-206,+75,-28
43595,13.841,-7.989,-1.887,0.622971,2.782305,-3.864956,99806.45,-207,+86,-20
43606,13.856,-7.898,-1.754,0.849650,2.653002,-3.761194,99805.04,-207,+86,-20
43615,13.271,-7.993,-1.511,1.060366,2.492837,-3.636148,99803.43,-207,+96,-13
43625,12.541,-8.503,-1.544,1.206164,2.310324,-3.495672,99805.82,-208,+107,-7
43635,11.677,-9.514,-1.746,1.288641,2.119296,-3.306772,99805.82,-206,+117,-3
43645,10.666,-10.421,-1.376,1.424329,1.899003,-3.071580,99806.11,-206,+117,-3
43656,10.212,-10.488,-0.857,1.577576,1.686159,-2.880553,99803.45,-204,+126,+1
43665,9.963,-10.148,-0.823,1.650475,1.513755,-2.694846,99804.86,-204,+136,+3
43675,9.347,-10.422,-1.290,1.603118,1.357847,-2.464443,99805.70,-201,+143,+5
43685,8.324,-11.536,-1.519,1.432310,1.251425,-2.188278,99811.05,-201,+143,+5
43696,7.326,-12.942,-1.707,1.090696,1.213646,-1.886572,99806.70,-198,+151,+8
43705,6.456,-13.622,-1.697,0.620311,1.241315,-1.573691,99806.70,-196,+156,+11
43715,6.042,-13.532,-1.944,0.112146,1.299315,-1.253361,99807.84,-194,+161,+15
43725,6.040,-13.083,-2.452,-0.334294,1.314214,-0.916536,99806.07,-194,+161,+15
43736,6.367,-12.677,-2.953,-0.684954,1.257811,-0.565875,99806.07,-193,+164,+19
43746,6.516,-12.164,-3.184,-0.930257,1.115205,-0.221068,99809.85,-193,+164,+25
43755,6.620,-10.999,-3.435,-1.010073,0.892251,0.100326,99807.37,-192,+164,+28
43765,6.863,-9.498,-3.828,-0.940899,0.613958,0.381812,99807.93,-192,+164,+28
43776,7.249,-7.823,-4.461,-0.716349,0.283518,0.613812,99808.13,-194,+162,+31
43786,6.622,-6.733,-5.061,-0.261927,-0.126207,0.843683,99808.13,-195,+161,+32
43796,6.447,-6.145,-5.157,0.383522,-0.571583,1.109738,99806.74,-199,+157,+30
43805,6.156,-6.213,-6.156,1.057705,-0.995142,1.339610,99807.77,-199,+157,+30
43815,7.543,-6.139,-4.298,1.781374,-1.415509,1.571610,99806.27,-201,+152,+25
43826,6.030,-11.195,3.759,2.353925,-1.502243,1.873848,99806.27,-204,+146,+18
43835,18.856,6.059,32.933,2.736511,-0.940335,1.809995,99806.27,-209,+139,+14
43845,42.940,18.735,-0.715,-0.052808,0.467628,0.264748,99803.02,-209,+139,+14
43855,35.633,-16.686,-23.404,-0.459340,-1.527252,2.699150,99811.02,-209,+138,+15
43866,21.415,-29.595,-1.007,2.218236,-2.297747,3.499443,99808.95,-213,+126,+4
43875,6.833,-17.215,0.119,0.160036,-1.532573,2.663499,99804.74,-215,+115,+0
43885,-2.963,-2.159,-0.782,-2.021082,-0.656188,2.188325,99804.74,-215,+115,+0
43895,-4.816,0.821,5.960,-1.458110,-0.360335,1.930252,99808.03,-217,+109,+1
43906,3.719,-7.945,8.708,-0.535431,-0.605106,2.006343,99807.61,-218,+102,+0
43916,13.116,-10.579,3.063,-0.172533,-1.247894,2.042527,99805.17,-219,+94,-3
43925,12.681,-8.821,-0.451,-0.228404,-1.518738,1.650362,99805.17,-219,+94,-7
43935,10.338,-8.267,0.001,-0.544477,-1.081876,1.413573,99809.27,-219,+89,-7
43945,8.754,-4.605,-0.559,-0.748807,-0.844555,1.227335,99809.27,-220,+85,-10
43956,7.332,-1.090,-1.411,-0.381652,-0.733344,1.109206,99806.15,-220,+81,-12
43965,7.082,-0.523,-0.294,0.246770,-0.673216,1.094839,99805.63,-219,+77,-14
43975,7.848,-2.678,0.325,0.625632,-0.624262,1.123041,99806.68,-219,+77,-14
43985,9.306,-5.171,0.938,0.621907,-0.538592,1.109206,99806.68,-220,+73,-16
43996,9.453,-6.592,2.111,0.373944,-0.419931,1.035775,99809.34,-220,+68,-18
44006,8.431,-6.323,2.860,0.096715,-0.344372,0.910197,99809.49,-220,+65,-19
44015,7.509,-5.257,2.791,-0.102826,-0.341179,0.785684,99806.21,-220,+65,-19
44025,7.491,-4.599,2.435,-0.293854,-0.311913,0.701610,99806.47,-220,+63,-19
44036,8.357,-3.907,1.969,-0.487009,-0.233693,0.652124,99809.69,-220,+60,-20
44046,9.148,-2.821,1.605,-0.551927,-0.167711,0.644674,99807.41,-220,+58,-20
44056,9.368,-1.944,1.435,-0.386973,-0.163455,0.677665,99806.67,-220,+58,-20
44065,9.114,-2.181,1.526,-0.117725,-0.219326,0.731940,99806.67,-219,+56,-21
44076,8.682,-3.311,1.891,0.065320,-0.285840,0.792069,99805.06,-221,+53,-22
44086,8.514,-4.290,2.246,0.059999,-0.332133,0.840491,99805.06,-220,+50,-22
44095,8.527,-4.721,2.525,-0.056533,-0.358207,0.864968,99809.37,-220,+50,-22
44105,8.480,-4.793,2.447,-0.210845,-0.376298,0.879335,99805.37,-220,+47,-23
44115,8.532,-4.491,2.178,-0.342808,-0.398115,0.900087,99804.23,-220,+43,-25
44126,8.678,-3.896,2.037,-0.409321,-0.419931,0.924032,99806.62,-219,+41,-26
44136,8.876,-3.412,1.520,-0.383248,-0.444941,0.961280,99806.62,-219,+41,-26
44145,9.040,-3.473,0.745,-0.279487,-0.482188,1.015555,99805.92,-218,+37,-27
44155,8.860,-4.120,0.830,-0.188496,-0.508262,1.065573,99805.97,-218,+34,-30
44166,8.426,-4.835,1.200,-0.164019,-0.515711,1.098564,99805.77,-217,+30,-30
44176,8.079,-5.149,1.369,-0.225744,-0.508262,1.113995,99805.77,-217,+30,-30
44185,7.909,-5.287,1.576,-0.326312,-0.486977,1.121445,99805.77,-217,+26,-32
44195,8.092,-5.251,1.655,-0.420496,-0.460372,1.126234,99809.19,-216,+22,-33
44206,8.436,-5.086,1.415,-0.474771,-0.440684,1.132087,99806.39,-216,+18,-34
44216,8.520,-5.082,1.129,-0.487542,-0.436427,1.142729,99805.61,-216,+18,-34
44225,8.503,-5.166,1.187,-0.456679,-0.438555,1.152839,99804.16,-215,+15,-36
44235,8.327,-5.540,1.231,-0.425285,-0.439087,1.148582,99804.16,-213,+12,-38
44246,8.237,-6.342,1.049,-0.427413,-0.430574,1.135280,99809.19,-213,+8,-39
44256,8.198,-6.982,0.758,-0.496055,-0.410354,1.120913,99808.14,-213,+8,-39
44266,8.107,-7.267,0.350,-0.677505,-0.330537,1.108142,99804.97,-212,+5,-41
44275,8.219,-7.150,0.064,-0.899927,-0.229436,1.120913,99804.97,-211,+2,-42
44285,8.593,-6.429,0.810,-1.087761,-0.176757,1.155500,99809.34,-209,-1,-42
44296,8.869,-5.643,1.536,-1.136715,-0.190592,1.223078,99809.34,-209,-1,-42
44306,8.802,-5.724,1.541,-1.032954,-0.261895,1.288527,99806.80,-209,-3,-44
44315,8.469,-6.538,1.354,-0.894606,-0.365124,1.317793,99809.08,-208,-7,-45
44325,8.232,-7.649,2.241,-0.842459,-0.414610,1.377922,99806.38,-206,-11,-47
44336,9.015,-8.298,1.866,-0.954379,-0.381974,1.509708,99808.34,-206,-11,-47
44346,11.043,-7.795,-0.147,-1.132459,-0.431106,1.497646,99808.34,-204,-15,-48
44356,12.441,-7.549,-0.650,-1.277725,-0.507197,1.462527,99807.89,-202,-18,-50
44365,13.193,-7.228,-0.627,-1.432036,-0.554555,1.466252,99806.02,-199,-21,-53
44376,13.847,-6.221,-1.066,-1.544844,-0.569986,1.481683,99804.88,-199,-21,-53
44386,14.588,-5.686,-1.491,-1.581559,-0.648739,1.550857,99806.81,-197,-24,-57
44396,15.167,-5.851,-1.396,-1.558146,-0.779106,1.639188,99807.38,-193,-26,-60
44405,15.332,-6.182,-0.725,-1.553890,-0.894573,1.722729,99807.06,-188,-29,-64
44416,15.404,-6.222,0.464,-1.616146,-0.972794,1.783389,99807.06,-188,-29,-64
44426,15.719,-6.099,2.159,-1.761944,-1.006316,1.853628,99804.83,-185,-31,-68
44436,16.645,-5.444,2.809,-1.925302,-1.053674,1.908435,99804.83,-181,-34,-74
44445,18.728,-3.671,4.062,-2.023742,-1.111674,1.874380,99805.48,-176,-34,-79
44455,20.520,-1.490,5.136,-1.998201,-1.226078,1.808931,99805.02,-171,-35,-85
44466,19.991,-2.050,5.387,-1.861449,-1.403802,1.935041,99805.91,-171,-35,-85
44476,18.981,-2.163,5.390,-1.750238,-1.618243,2.154270,99805.64,-165,-37,-91
44486,18.750,-4.311,5.192,-1.434697,-1.958261,2.494288,99805.64,-158,-39,-98
44495,18.612,-7.732,6.376,-0.942495,-2.266352,2.932746,99806.67,-149,-44,-105
44506,18.089,-8.708,6.756,-0.670055,-2.365857,3.128031,99804.42,-149,-44,-105
44516,17.254,-8.584,6.931,-0.855762,-2.214738,3.095040,99804.20,-140,-50,-112
44526,16.424,-6.062,7.068,-1.263358,-1.939637,2.830581,99804.20,-131,-53,-118
44535,14.330,-3.655,7.427,-1.355413,-1.626756,2.500673,99804.20,-123,-54,-123
44546,12.851,-2.606,6.823,-1.180881,-1.383050,2.106380,99805.47,-123,-54,-123
44556,11.735,0.636,3.181,-0.996238,-1.422958,1.601940,99803.39,-116,-54,-128
44566,3.267,-7.437,-0.515,-1.065413,-1.170738,1.616307,99805.94,-111,-54,-132
44575,4.218,-15.536,-1.011,-1.424587,-0.610959,1.743481,99804.84,-107,-53,-136
44585,5.681,-11.012,2.330,-1.806642,-0.053840,1.212968,99804.84,-107,-53,-136
44596,6.184,-2.754,4.481,-1.773651,0.248398,0.605830,99803.47,-105,-50,-138
44606,4.817,3.641,4.310,-1.460770,0.415481,0.066271,99803.89,-105,-46,-140
44616,4.105,4.917,3.143,-0.893541,0.472949,-0.183820,99802.28,-106,-43,-141
44625,2.832,3.858,1.668,-0.253413,0.487316,-0.353563,99802.28,-106,-43,-141
44636,2.508,2.482,1.145,0.326054,0.571921,-0.527563,99803.31,-108,-42,-140
44646,2.466,0.803,1.237,0.699595,0.706545,-0.699435,99803.20,-111,-41,-140
44655,2.457,-0.844,1.408,0.868274,0.856068,-0.929838,99803.20,-115,-41,-138
44665,3.026,-1.189,0.959,1.017797,1.011976,-1.285820,99801.17,-115,-41,-138
44676,3.598,-0.765,0.354,1.191265,1.167884,-1.672664,99800.92,-119,-41,-135
44686,3.954,-0.614,-0.187,1.363136,1.309425,-1.983416,99800.92,-126,-40,-133
44691,4.153,-0.604,-0.476,1.492971,1.399884,-2.188810,99800.84,-126,-40,-133
44700,4.555,-0.554,-0.551,1.622274,1.469590,-2.385690,99794.60,-134,-37,-128
44710,5.097,-0.616,-0.648,1.768604,1.557388,-2.637911,99799.54,-141,-36,-124
44721,5.862,-0.744,-0.687,1.897906,1.655297,-2.882149,99797.88,-149,-31,-119
44731,6.518,-1.104,-0.596,1.965484,1.770232,-3.115213,99797.88,-149,-31,-119
44741,7.138,-1.902,-0.543,1.979851,1.869205,-3.316883,99798.04,-157,-25,-112
44750,7.404,-2.958,-0.563,1.986769,1.937847,-3.508974,99798.82,-166,-18,-106
44761,7.354,-4.147,-0.491,1.972934,1.994783,-3.705855,99797.99,-172,-9,-99
44771,7.188,-5.161,-0.381,1.871833,2.099608,-3.909653,99797.01,-172,-9,-99
44781,7.184,-5.842,-0.275,1.660586,2.277333,-4.125690,99797.01,-179,+2,-93
44790,7.630,-5.899,-0.180,1.406769,2.516782,-4.321506,99802.12,-183,+15,-86
44801,8.470,-5.623,-0.211,1.247668,2.737608,-4.455598,99802.38,-188,+28,-78
44811,9.419,-5.448,-0.390,1.242879,2.889259,-4.559891,99800.62,-188,+28,-78
44821,10.383,-5.568,-0.843,1.334934,2.971736,-4.656735,99796.20,-190,+43,-70
44830,11.448,-5.734,-1.535,1.430714,3.006855,-4.729102,99796.20,-192,+56,-63
44840,12.489,-6.063,-2.250,1.541393,2.990360,-4.767946,99803.55,-193,+70,-56
44851,13.505,-6.893,-2.649,1.703154,2.910543,-4.794020,99800.47,-193,+70,-56
44861,14.390,-8.057,-2.706,1.844163,2.786030,-4.821157,99799.39,-193,+84,-49
44871,14.935,-9.106,-2.801,1.881943,2.641828,-4.845634,99801.98,-192,+96,-44
44880,15.034,-9.968,-3.011,1.814897,2.510397,-4.843506,99801.98,-188,+111,-38
44891,15.003,-10.929,-2.884,1.737741,2.388012,-4.780717,99803.38,-188,+111,-38
44901,15.022,-11.883,-2.576,1.650475,2.267755,-4.672166,99803.42,-186,+125,-33
44911,15.318,-12.957,-2.584,1.631852,2.139516,-4.482735,99802.80,-181,+138,-31
44920,15.144,-14.214,-3.405,1.718585,1.958599,-4.223598,99805.50,-176,+152,-30
44926,13.863,-15.525,-3.359,1.832457,1.769168,-3.963928,99805.50,-176,+152,-30
44936,12.363,-17.195,-3.581,1.899503,1.622838,-3.633488,99805.50,-171,+161,-30
44946,10.340,-18.312,-4.948,1.861191,1.438196,-3.126919,99804.61,-167,+169,-31
44956,8.711,-19.653,-6.297,1.733485,1.237058,-2.528828,99805.70,-167,+169,-31
44966,7.010,-21.945,-7.096,1.409430,0.985902,-1.847728,99807.22,-164,+174,-33
44976,5.439,-23.512,-7.220,0.818788,0.765609,-1.207067,99806.48,-162,+177,-34
44986,3.975,-22.934,-7.053,0.136623,0.534141,-0.591417,99809.80,-162,+178,-34
44996,3.403,-20.467,-6.279,-0.327377,0.231903,0.057225,99808.72,-162,+178,-34
45005,4.151,-16.533,-5.140,-0.316734,-0.196445,0.714913,99808.72,-163,+176,-36
45016,5.916,-15.106,-4.973,0.129174,-0.626922,1.298105,99806.84,-165,+173,-38
45026,7.393,-13.477,-3.706,0.806017,-1.141472,1.840325,99808.45,-169,+166,-44
45036,15.673,-0.786,16.573,1.526494,-1.435729,2.146288,99808.45,-169,+166,-44
45046,42.778,14.417,4.378,-0.024251,-0.520323,0.986466,99805.52,-171,+158,-50
45056,34.533,-14.268,-20.260,-1.604972,-1.212775,2.737994,99805.52,-174,+153,-51
45066,21.680,-26.268,-4.679,1.277467,-1.899197,4.063479,99809.73,-177,+138,-58
45076,8.316,-18.840,4.505,1.246604,-1.957729,3.165278,99804.33,-177,+138,-58
45086,-1.436,-5.890,2.434,-0.564698,-1.279821,2.719903,99804.33,-178,+128,-63
45096,-5.897,-1.520,4.745,-0.981872,-0.626922,2.347958,99807.67,-181,+123,-63
45106,2.254,-7.674,5.628,0.015302,-0.640225,2.483114,99806.97,-182,+115,-65
45116,10.859,-8.998,3.167,0.697999,-1.458078,2.456508,99805.09,-182,+115,-65
45126,11.585,-8.863,-0.195,0.520274,-1.609729,1.952068,99805.09,-182,+106,-69
45135,11.676,-9.344,-0.435,-0.194349,-1.171803,1.749866,99805.09,-183,+100,-73
45146,10.417,-6.735,-0.731,-0.598220,-0.976518,1.557775,99811.56,-182,+96,-76
45156,8.004,-3.347,-1.714,-0.547670,-0.914794,1.375261,99807.50,-182,+96,-76
45166,6.953,-1.807,-1.687,-0.191689,-0.837106,1.289591,99808.66,-183,+92,-76
45175,6.741,-2.581,-1.411,0.156843,-0.746647,1.230527,99806.88,-182,+89,-79
45186,7.988,-4.276,-0.986,0.268054,-0.580096,1.178380,99806.88,-182,+84,-80
45196,9.397,-5.350,-0.434,0.153651,-0.377363,1.132087,99807.85,-182,+84,-80
45206,9.662,-4.879,0.561,-0.006514,-0.210280,1.088454,99808.45,-182,+81,-81
45216,8.836,-3.981,2.038,-0.044294,-0.141638,1.018748,99805.15,-183,+77,-82
45225,7.855,-3.972,2.483,0.001999,-0.174097,0.919243,99805.15,-183,+74,-82
45236,7.460,-4.631,1.876,-0.030991,-0.198574,0.833573,99810.35,-183,+74,-82
45246,8.103,-4.878,1.358,-0.178386,-0.158666,0.771849,99810.35,-182,+73,-83
45256,9.001,-4.493,1.187,-0.341743,-0.097473,0.739390,99807.45,-183,+70,-83
45265,9.409,-3.650,1.054,-0.363560,-0.074060,0.742051,99807.24,-183,+68,-82
45276,9.281,-2.874,1.064,-0.227340,-0.095877,0.775041,99805.88,-183,+68,-82
45281,9.046,-2.599,0.817,-0.093780,-0.138978,0.817610,99805.88,-183,+66,-82
45291,8.922,-2.669,0.866,0.046697,-0.179418,0.868693,99810.18,-183,+62,-83
45301,8.804,-3.172,1.132,0.147797,-0.226776,0.928289,99809.24,-183,+62,-83
45310,8.739,-4.053,1.485,0.156311,-0.251253,0.971922,99803.68,-183,+60,-84
45321,8.522,-4.695,1.714,0.086605,-0.269344,1.000656,99804.51,-183,+56,-84
45331,8.178,-5.093,1.516,-0.031524,-0.269877,1.002784,99804.51,-182,+53,-85
45341,8.177,-5.137,1.253,-0.133156,-0.253913,0.997463,99808.73,-182,+53,-85
45350,8.263,-4.722,0.866,-0.202863,-0.240610,1.003849,99808.15,-183,+50,-85
45361,8.649,-4.350,0.573,-0.242239,-0.214537,1.015023,99804.93,-183,+47,-86
45371,8.906,-4.423,0.597,-0.216698,-0.212941,1.030986,99806.18,-183,+44,-87
45381,8.794,-4.946,0.436,-0.192753,-0.208152,1.046949,99806.18,-183,+44,-87
45391,8.536,-5.480,0.642,-0.231597,-0.178354,1.054931,99809.50,-182,+41,-87
45401,8.294,-5.614,1.132,-0.299707,-0.141638,1.052803,99808.20,-181,+38,-87
45411,8.151,-5.682,1.526,-0.375266,-0.110776,1.044821,99805.13,-181,+36,-87
45421,8.115,-5.803,1.442,-0.415707,-0.107051,1.041096,99806.84,-181,+36,-87
45431,8.277,-5.772,1.404,-0.442844,-0.115033,1.046417,99806.84,-181,+33,-88
45441,8.582,-5.928,1.506,-0.512551,-0.119289,1.067170,99807.63,-181,+30,-88
45451,8.839,-5.863,1.469,-0.596624,-0.130996,1.112399,99808.77,-180,+28,-88
45461,9.056,-5.785,1.516,-0.695064,-0.169840,1.167206,99804.99,-180,+28,-88
45471,9.355,-5.821,1.503,-0.808404,-0.214005,1.240105,99807.79,-181,+25,-89
45480,9.617,-6.153,1.480,-0.934514,-0.260299,1.318325,99807.79,-180,+23,-90
45491,9.771,-6.326,1.528,-1.070202,-0.301271,1.400802,99809.41,-179,+19,-91
45501,9.506,-7.054,2.232,-1.216000,-0.317766,1.484344,99808.00,-179,+19,-91
45511,9.548,-8.374,3.394,-1.350624,-0.294354,1.573206,99808.36,-178,+17,-92
45521,11.711,-6.921,0.965,-1.494293,-0.328941,1.626417,99805.34,-176,+16,-93
45531,12.569,-6.619,-0.421,-1.567724,-0.387473,1.618435,99805.34,-176,+13,-95
45541,12.985,-6.524,-0.993,-1.584220,-0.490170,1.658876,99808.70,-176,+13,-95
45551,13.301,-5.900,-1.015,-1.634238,-0.550830,1.729114,99808.34,-174,+11,-96
45561,13.539,-5.384,-0.950,-1.596990,-0.653528,1.799885,99805.06,-171,+8,-98
45571,13.708,-5.524,-1.064,-1.540055,-0.773252,1.862142,99808.28,-169,+5,-100
45581,13.884,-5.834,-0.988,-1.551761,-0.862647,1.912692,99808.28,-169,+5,-100
45591,14.080,-5.766,-0.356,-1.670954,-0.907876,1.944086,99805.98,-165,+2,-103
45601,14.379,-5.314,0.659,-1.849743,-0.937142,1.972288,99808.27,-163,+0,-106
45611,14.885,-4.471,1.614,-1.972660,-0.993546,2.024435,99806.30,-159,-1,-109
45621,16.228,-2.708,2.620,-2.017889,-1.072830,2.089885,99809.09,-159,-1,-109
45631,19.032,-0.704,3.787,-1.905082,-1.250023,2.118618,99809.09,-155,-2,-113
45637,21.211,-0.463,4.832,-1.654990,-1.472445,2.197903,99806.43,-151,-5,-117
45646,22.177,-1.198,5.092,-1.319761,-1.744353,2.414472,99806.43,-151,-5,-117
45657,22.083,-3.659,5.745,-1.037211,-2.037545,2.687976,99806.70,-145,-9,-121
45666,20.182,-6.801,5.696,-0.696661,-2.361600,3.052471,99803.10,-138,-17,-126
45676,18.639,-9.063,6.266,-0.415707,-2.526022,3.344599,99804.09,-130,-24,-132
45686,18.338,-9.590,6.917,-0.458276,-2.478664,3.375462,99806.66,-130,-24,-132
45697,17.771,-10.259,7.141,-0.714752,-2.286572,3.295645,99803.80,-121,-31,-137
45706,16.610,-8.253,7.133,-1.017523,-1.974756,2.995535,99805.41,-113,-36,-141
45716,14.152,-4.424,6.820,-1.238881,-1.565564,2.501738,99805.41,-107,-38,-144
45726,12.809,0.808,5.250,-1.143633,-1.336224,1.923334,99803.06,-107,-38,-144
45736,4.805,-3.003,3.273,-0.845651,-1.141472,1.677500,99803.06,-104,-39,-147
45746,1.507,-13.671,1.605,-1.161725,-0.550830,1.615775,99808.44,-100,-40,-149
45757,4.898,-13.167,1.933,-2.132470,0.103665,1.178026,99805.50,-100,-36,-150
45766,4.903,-5.201,3.067,-2.406329,0.368123,0.619665,99805.50,-100,-36,-150
45776,3.941,2.896,3.436,-2.317467,0.724105,-0.091233,99803.14,-101,-30,-150
45787,3.725,5.393,3.144,-2.004586,0.983774,-0.470095,99803.14,-104,-23,-150
45796,3.242,5.173,1.572,-1.371908,0.992820,-0.643563,99805.50,-107,-17,-149
45806,2.558,4.953,0.445,-0.629615,0.968343,-0.871838,99801.28,-107,-17,-149
45816,2.884,3.671,0.080,0.091394,0.973664,-1.090003,99805.34,-111,-14,-147
45827,3.073,1.753,-0.124,0.717687,0.953444,-1.275710,99805.34,-114,-12,-144
45836,3.299,0.485,-0.215,1.266824,0.969939,-1.530590,99805.34,-118,-11,-141
45846,3.565,-0.002,-0.396,1.699962,1.043370,-1.871673,99802.09,-118,-11,-141
45856,3.827,-0.349,-0.458,1.945796,1.159370,-2.204773,99800.78,-122,-9,-136
45867,3.951,-0.524,-0.292,2.070310,1.289205,-2.491580,99803.02,-127,-7,-133
45876,4.358,-0.669,-0.034,2.175668,1.425957,-2.759232,99800.22,-132,-3,-128
45886,4.974,-0.750,0.087,2.258145,1.544086,-3.010920,99800.22,-132,-3,-128
45896,5.747,-1.015,-0.063,2.300714,1.656361,-3.250369,99799.31,-137,+0,-122
45906,6.505,-1.590,-0.274,2.279429,1.770764,-3.463745,99800.36,-143,+5,-119
45917,7.005,-2.669,-0.445,2.190567,1.870801,-3.647855,99797.38,-146,+12,-114
45926,6.944,-4.089,-0.484,2.004860,1.969241,-3.841011,99797.38,-146,+12,-114
45936,6.821,-5.065,-0.330,1.721246,2.079920,-4.060240,99801.29,-151,+20,-107
45946,6.911,-5.660,-0.147,1.349301,2.288507,-4.300754,99800.66,-155,+31,-103
45956,7.284,-6.231,0.082,0.956072,2.570525,-4.530625,99800.66,-159,+43,-98
45966,8.134,-6.111,0.228,0.622439,2.867443,-4.702497,99801.70,-162,+43,-98
45976,9.216,-5.583,0.288,0.414917,3.144140,-4.803065,99803.30,-162,+56,-92
45986,10.557,-5.352,-0.059,0.404274,3.345809,-4.848827,99803.30,-165,+72,-85
45991,11.610,-5.709,-0.658,0.526660,3.416580,-4.855744,99803.38,-165,+72,-85
46001,12.348,-6.580,-1.625,0.761852,3.416580,-4.828074,99802.95,-166,+85,-77
46011,12.883,-8.176,-2.821,1.197650,3.337296,-4.744533,99803.63,-165,+98,-70
46021,13.334,-9.866,-3.382,1.710604,3.195222,-4.649818,99800.00,-164,+110,-64
46031,14.306,-11.572,-3.573,2.145337,3.006323,-4.590221,99800.00,-164,+110,-64
46042,15.034,-13.200,-3.484,2.354456,2.765810,-4.529561,99803.34,-161,+121,-59
46051,14.913,-14.193,-3.518,2.271980,2.549773,-4.436974,99804.21,-157,+130,-54
46061,13.902,-14.882,-3.655,1.915998,2.409828,-4.292772,99806.91,-153,+141,-50
46071,12.861,-15.488,-3.174,1.392402,2.366195,-4.087378,99804.37,-153,+141,-50
46082,12.262,-15.272,-3.015,0.865614,2.423663,-3.864956,99804.37,-148,+149,-47
46091,12.068,-15.697,-2.482,0.622439,2.453461,-3.626570,99806.55,-144,+158,-42
46101,10.878,-16.644,-3.412,0.538366,2.385883,-3.303580,99807.08,-139,+164,-38
46111,10.224,-17.128,-5.104,0.404806,2.389608,-2.897580,99806.50,-139,+164,-38
46121,9.721,-17.482,-7.189,0.141944,2.276268,-2.355892,99808.16,-135,+172,-33
46131,8.608,-17.394,-9.722,-0.100166,1.944764,-1.763122,99808.16,-134,+175,-29
46141,7.813,-17.760,-11.507,-0.060257,1.347737,-1.174077,99811.31,-132,+177,-26
46151,7.078,-18.860,-11.486,0.049889,0.594270,-0.522242,99807.05,-132,+177,-26
46161,7.868,-19.619,-11.143,0.093522,-0.093216,0.199831,99808.09,-131,+177,-26
46172,6.316,-16.476,-8.273,0.282953,-0.780702,1.084197,99809.55,-130,+175,-28
46181,5.524,-15.197,-3.171,0.563907,-1.017491,1.523188,99809.55,-132,+170,-33
46191,4.746,-13.143,15.250,0.809210,-0.801986,1.948343,99806.58,-132,+170,-33
46201,23.674,8.121,22.613,-0.169872,0.199444,1.294380,99805.44,-134,+164,-34
46212,31.133,10.258,-10.382,-2.912366,0.236160,0.450454,99807.30,-135,+164,-31
46221,26.421,-11.190,-6.718,-1.181945,-1.102096,2.136710,99808.86,-137,+160,-33
46227,23.883,-20.562,-3.835,0.749081,-1.770426,2.893903,99808.86,-137,+160,-33
46236,14.513,-18.123,0.934,0.475045,-1.751802,2.653921,99808.86,-140,+152,-38
46246,6.642,-11.819,-2.195,-0.454551,-1.302169,2.418729,99809.40,-142,+145,-39
46257,7.762,-4.957,1.560,-0.285872,-1.245766,2.348490,99806.13,-142,+145,-39
46267,5.984,-1.296,6.173,0.783669,-1.477766,2.291554,99806.49,-145,+139,-43
46276,3.931,-2.866,5.383,0.647449,-1.648041,2.258031,99805.69,-146,+132,-47
46286,4.940,-7.109,1.401,-0.149652,-1.732114,2.175022,99811.25,-147,+126,-51
46297,7.934,-8.526,-1.859,-0.581725,-1.476701,1.847775,99808.95,-147,+126,-51
46306,10.841,-6.203,-2.270,-0.548734,-1.170738,1.462527,99808.95,-147,+123,-53
46316,11.145,-2.437,-0.373,-0.455615,-0.955234,1.348656,99806.72,-148,+120,-55
46326,8.971,-1.845,-0.515,-0.260331,-0.830188,1.284270,99808.75,-149,+117,-57
46337,8.005,-2.527,-0.148,-0.007579,-0.797729,1.276821,99808.75,-149,+117,-57
46347,8.651,-3.881,0.921,0.077559,-0.696274,1.225206,99808.46,-149,+113,-58
46356,9.028,-5.489,1.952,-0.076221,-0.589142,1.154436,99808.46,-149,+110,-60
46366,8.778,-6.012,2.802,-0.301835,-0.490170,1.027261,99806.66,-149,+108,-60
46376,8.103,-5.040,2.801,-0.480624,-0.394390,0.888381,99805.01,-149,+108,-60
46387,7.476,-4.052,2.190,-0.496055,-0.345968,0.789940,99805.01,-149,+106,-61
46397,7.496,-3.627,1.553,-0.375266,-0.347032,0.720766,99809.30,-151,+104,-61
46406,8.096,-3.534,1.074,-0.255542,-0.347565,0.682986,99807.00,-149,+103,-62
46416,8.541,-4.064,0.737,-0.201267,-0.308721,0.651060,99806.84,-149,+103,-62
46427,8.514,-4.927,0.548,-0.224679,-0.238482,0.608491,99806.84,-150,+100,-62
46436,8.174,-5.200,0.628,-0.321523,-0.148023,0.549959,99806.84,-150,+99,-62
46446,7.701,-5.026,0.929,-0.446037,-0.067143,0.498344,99808.58,-150,+98,-63
46456,7.510,-4.542,1.279,-0.528514,-0.031491,0.464289,99812.00,-150,+98,-63
46467,7.886,-3.601,1.994,-0.557248,-0.020317,0.456840,99806.97,-151,+98,-61
46477,8.648,-3.084,2.682,-0.534899,-0.054904,0.472271,99805.34,-152,+98,-61
46486,9.336,-3.476,2.240,-0.448698,-0.120886,0.499409,99805.34,-152,+96,-62
46496,9.609,-4.154,1.418,-0.356110,-0.171968,0.516968,99809.20,-152,+96,-63
46507,9.265,-4.774,0.794,-0.325248,-0.196445,0.521757,99807.98,-152,+96,-63
46517,8.731,-4.631,0.688,-0.348661,-0.197510,0.513243,99805.87,-152,+95,-63
46526,8.323,-4.387,0.896,-0.347597,-0.190060,0.513775,99805.87,-153,+93,-63
46536,8.206,-4.454,0.926,-0.335890,-0.188464,0.522289,99806.31,-153,+92,-64
46546,8.277,-4.544,1.145,-0.322588,-0.208152,0.535592,99806.31,-153,+92,-64
46557,8.334,-4.387,1.686,-0.327909,-0.229968,0.569647,99808.14,-152,+91,-64
46566,8.572,-3.698,2.579,-0.360899,-0.248592,0.636161,99805.13,-153,+90,-64
46576,8.601,-3.181,3.546,-0.355046,-0.295950,0.726619,99806.47,-153,+89,-65
46586,8.449,-3.167,4.080,-0.273101,-0.384280,0.831445,99806.47,-153,+89,-65
46597,8.323,-3.615,3.763,-0.169872,-0.483785,0.925628,99807.28,-153,+87,-66
46607,8.517,-4.686,2.502,-0.121450,-0.566794,0.997463,99807.58,-153,+84,-67
46616,8.874,-5.601,1.235,-0.177322,-0.614152,1.041628,99807.38,-152,+80,-69
46626,9.065,-5.931,0.196,-0.298643,-0.628519,1.065573,99804.89,-152,+80,-69
46637,9.083,-6.113,-0.653,-0.416239,-0.629583,1.065573,99808.11,-152,+79,-70
46647,9.210,-5.994,-0.873,-0.542349,-0.592335,1.055995,99805.98,-151,+75,-71
46657,9.195,-5.849,-0.580,-0.637064,-0.541785,1.051206,99808.69,-152,+74,-72
46666,9.059,-5.642,-0.128,-0.677505,-0.519436,1.057592,99808.69,-152,+74,-72
46676,8.803,-5.436,0.187,-0.686551,-0.527950,1.076748,99806.14,-151,+72,-73
46687,8.614,-5.826,0.664,-0.698789,-0.546041,1.105482,99806.14,-152,+70,-74
46697,8.688,-6.309,0.961,-0.752000,-0.558812,1.137408,99807.56,-151,+68,-76
46706,9.076,-6.183,0.425,-0.850440,-0.578500,1.156032,99807.20,-151,+68,-76
46716,9.211,-6.021,0.138,-0.938239,-0.609363,1.169335,99808.08,-149,+66,-77
46727,9.214,-5.965,0.311,-0.980275,-0.653528,1.201261,99806.63,-149,+64,-78
46737,9.586,-5.528,-0.531,-0.992514,-0.737601,1.224142,99806.63,-149,+62,-80
46747,10.035,-5.439,-0.810,-0.933450,-0.844555,1.250747,99809.55,-149,+62,-80
46756,10.417,-6.018,-0.845,-0.871193,-0.953105,1.275757,99808.59,-149,+59,-81
46767,10.735,-6.402,-0.737,-0.863211,-1.026537,1.299702,99807.55,-148,+57,-84
46777,10.919,-6.637,-0.633,-0.935046,-1.053674,1.329500,99807.55,-146,+54,-86
46786,11.310,-6.575,-0.594,-1.034018,-1.083472,1.370472,99807.55,-146,+54,-86
46796,11.737,-6.232,-0.290,-1.122881,-1.135087,1.419426,99809.91,-144,+53,-88
46807,12.137,-6.167,-0.041,-1.172899,-1.220757,1.473169,99807.63,-142,+51,-91
46817,12.454,-6.520,0.336,-1.235156,-1.321325,1.528509,99805.86,-140,+48,-93
46826,12.843,-7.010,1.230,-1.366055,-1.379857,1.584912,99804.30,-140,+48,-93
46836,13.544,-7.214,2.012,-1.559743,-1.397949,1.652490,99804.30,-139,+46,-97
46846,14.455,-6.748,2.810,-1.801853,-1.391564,1.740821,99810.05,-137,+44,-100
46857,15.885,-5.675,3.345,-2.039174,-1.401674,1.840857,99805.99,-134,+42,-103
46867,18.421,-4.186,3.525,-2.172201,-1.507032,1.924931,99804.65,-134,+42,-103
46876,21.101,-2.418,4.080,-2.030128,-1.736903,2.010600,99804.65,-131,+40,-107
46886,21.612,-2.150,4.840,-1.632642,-2.029564,2.217059,99803.70,-127,+38,-112
46897,19.783,-5.291,4.204,-1.062220,-2.392994,2.599114,99803.70,-121,+33,-118
46907,18.439,-9.115,3.369,-0.537560,-2.752701,2.964673,99804.32,-121,+33,-118
46916,18.769,-11.518,4.635,-0.398679,-2.921912,3.112600,99806.76,-115,+27,-123
46926,17.783,-12.237,5.475,-0.749872,-2.801655,3.041297,99802.96,-108,+21,-129
46938,16.039,-10.600,5.478,-0.981339,-2.575686,2.920863,99806.13,-101,+16,-135
46947,14.630,-7.222,5.611,-0.844055,-2.410022,2.635297,99806.13,-101,+16,-135
46957,11.603,-3.037,6.138,-0.384312,-2.241343,2.200031,99805.61,-95,+13,-141
46966,8.360,-1.560,4.942,0.127577,-1.990719,1.700912,99804.88,-88,+8,-144
46977,4.747,-3.046,-1.959,0.110018,-1.917288,1.184766,99803.06,-82,+5,-149
46987,-1.809,-9.603,-0.955,-0.211377,-1.508628,1.162417,99807.73,-77,+5,-149
46997,0.080,-7.980,1.528,-0.473707,-0.940335,0.651592,99805.86,-77,+3,-152
47006,2.678,-0.597,2.201,-1.063284,-0.369381,-0.173710,99805.34,-75,+5,-154
47016,3.633,2.715,2.226,-1.338385,0.032362,-0.556297,99805.34,-76,+8,-157
47027,3.538,4.153,1.578,-1.080312,0.184545,-0.757967,99803.27,-75,+8,+0
47037,2.738,3.866,0.588,-0.444973,0.214343,-0.901104,99803.27,-75,+12,-157
47046,2.256,2.495,0.471,0.343082,0.225518,-1.050627,99803.39,-77,+14,-158
47056,2.230,1.346,-0.096,0.919889,0.271279,-1.273049,99803.50,-77,+11,-158
47067,2.044,0.533,-0.274,1.239687,0.381958,-1.540168,99804.17,-79,+10,-158
47077,2.474,-0.224,-0.004,1.445613,0.580435,-1.822719,99801.36,-79,+10,-158
47087,3.036,-0.645,-0.113,1.550971,0.779444,-2.113250,99801.36,-82,+10,-157
47096,3.579,-0.738,-0.489,1.658457,0.927370,-2.381434,99800.97,-84,+9,-155
47107,4.023,-0.858,-1.018,1.759026,1.055077,-2.645360,99801.80,-89,+8,-153
47117,4.465,-1.068,-1.252,1.827136,1.170545,-2.886938,99801.28,-89,+8,-153
47127,4.598,-1.971,-1.120,1.861191,1.263132,-3.107231,99801.28,-94,+8,-151
47136,4.514,-3.027,-0.966,1.829796,1.351994,-3.329653,99801.28,-99,+10,-149
47147,4.533,-3.960,-0.961,1.716989,1.505242,-3.537176,99800.56,-104,+11,-145
47157,5.035,-4.582,-0.946,1.547778,1.694141,-3.706387,99800.41,-104,+11,-145
47167,5.771,-5.315,-0.906,1.440292,1.848452,-3.844203,99800.56,-111,+16,-142
47176,6.821,-5.967,-1.285,1.435503,1.948489,-3.957011,99800.56,-117,+20,-139
47186,7.770,-6.637,-2.093,1.492439,1.986801,-4.030442,99800.56,-123,+24,-136
47197,8.280,-7.804,-2.797,1.644622,1.937847,-4.046405,99803.45,-123,+24,-136
47207,8.263,-9.343,-3.251,1.935686,1.776618,-4.035231,99802.98,-129,+29,-131
47217,7.987,-10.751,-3.428,2.269851,1.594636,-4.019800,99802.23,-134,+32,-129
47226,8.045,-12.004,-3.296,2.468860,1.453095,-3.999047,99802.23,-138,+35,-126
47237,8.075,-13.092,-3.161,2.495466,1.342416,-3.967653,99807.87,-138,+35,-126
47247,7.872,-13.994,-2.788,2.383190,1.298251,-3.902735,99803.02,-142,+40,-123
47256,7.521,-14.740,-2.317,2.170879,1.307829,-3.823451,99803.02,-147,+44,-122
47266,7.154,-14.706,-1.865,1.812237,1.372214,-3.752681,99802.98,-149,+50,-119
47277,7.173,-13.671,-1.723,1.348769,1.512159,-3.689892,99802.87,-149,+50,-119
47287,7.949,-12.088,-2.269,0.918292,1.665939,-3.621781,99802.87,-153,+58,-117
47297,9.284,-11.305,-2.798,0.744292,1.730324,-3.523341,99806.26,-157,+65,-112
47307,10.272,-11.038,-3.234,0.799632,1.669132,-3.391910,99803.77,-160,+73,-109
47316,10.624,-10.625,-3.428,1.018329,1.521205,-3.242919,99805.54,-160,+73,-109
47327,10.544,-10.149,-3.422,1.268421,1.336031,-3.063598,99805.38,-161,+80,-106
47337,10.219,-9.863,-3.385,1.483393,1.131168,-2.841709,99810.41,-163,+87,-105
47347,9.695,-9.806,-3.038,1.664842,0.919921,-2.593213,99807.62,-164,+90,-104
47356,9.280,-10.367,-2.711,1.804255,0.725701,-2.328755,99808.13,-164,+90,-104
47367,8.850,-11.769,-2.513,1.872365,0.557554,-2.037691,99805.59,-164,+94,-104
47377,7.908,-13.364,-2.607,1.762751,0.462839,-1.746627,99805.59,-164,+95,-104
47387,6.933,-14.241,-2.890,1.429118,0.455921,-1.427361,99805.59,-164,+96,-103
47396,6.015,-14.020,-3.509,1.014604,0.440490,-1.073508,99811.09,-164,+96,-103
47407,5.228,-13.697,-4.270,0.757595,0.347903,-0.679215,99809.73,-164,+98,-103
47417,5.122,-14.167,-5.128,0.736843,0.124949,-0.227986,99807.85,-164,+98,-103
47427,4.838,-15.037,-5.397,0.796971,-0.198042,0.213666,99807.38,-164,+96,-104
47437,5.047,-15.523,-5.210,0.826770,-0.450794,0.557941,99807.38,-164,+96,-104
47447,5.198,-13.359,-4.659,0.816659,-0.697693,0.943720,99809.88,-164,+92,-107
47457,7.035,-8.705,-0.896,0.820384,-0.806775,1.083133,99808.70,-163,+87,-109
47467,10.951,-2.074,17.202,0.894347,-0.371509,1.150711,99803.84,-164,+82,-111
47477,30.120,14.326,13.846,-0.479028,0.544784,0.274326,99803.84,-164,+82,-111
47486,24.282,-0.815,-4.800,-1.849743,0.149426,0.811225,99803.84,-165,+85,-109
47497,18.763,-21.908,-7.608,-0.170404,-0.255510,2.547499,99809.88,-166,+81,-108
47507,15.338,-24.724,-3.840,0.770898,-1.135087,2.676270,99811.54,-165,+71,-111
47517,4.716,-4.631,0.218,0.428751,-1.262793,1.653555,99809.57,-163,+71,-113
47527,0.967,2.849,1.698,-0.841927,-0.184029,1.285512,99806.13,-163,+66,-113
47537,2.495,1.689,0.275,-0.537028,-0.227308,1.348656,99806.13,-164,+65,-113
47547,6.583,-3.109,0.606,0.554329,-0.733344,1.498178,99808.58,-163,+59,-115
47557,10.067,-5.717,1.066,0.881577,-0.905216,1.300766,99807.02,-160,+54,-118
47567,11.439,-8.218,0.281,0.380329,-0.644482,1.115592,99807.69,-160,+54,-118
47577,11.316,-7.498,-0.701,-0.241707,-0.412482,0.988949,99805.05,-160,+52,-119
47587,9.749,-4.575,-0.715,-0.388037,-0.283711,0.792601,99806.71,-160,+50,-119
47597,8.231,-2.131,-0.463,-0.221487,-0.193253,0.647867,99807.76,-159,+48,-119
47606,7.498,-1.584,-0.287,0.013174,-0.158666,0.583482,99807.76,-159,+48,-119
47617,8.089,-2.858,0.102,0.155779,-0.141106,0.562730,99806.98,-160,+47,-120
47627,9.377,-4.293,0.652,0.121724,-0.105455,0.531335,99805.93,-159,+45,-120
47637,9.949,-4.616,1.078,0.006788,-0.069803,0.478656,99805.93,-159,+43,-121
47647,9.580,-4.296,1.408,-0.037377,-0.066078,0.415867,99809.09,-159,+43,-121
47656,8.845,-3.954,1.945,-0.052808,-0.087363,0.360528,99808.62,-158,+43,-121
47667,8.400,-3.822,1.906,-0.133156,-0.089491,0.316895,99804.24,-159,+42,-120
47677,8.532,-3.619,1.206,-0.276826,-0.074592,0.280179,99807.21,-159,+41,-122
47687,9.032,-3.166,0.589,-0.346532,-0.050647,0.247721,99807.21,-159,+41,-122
47697,9.278,-2.942,0.507,-0.306624,-0.030427,0.220051,99808.46,-158,+42,-121
47707,9.168,-2.972,0.595,-0.207120,-0.025638,0.209941,99806.55,-158,+41,-120
47717,8.905,-3.088,0.703,-0.104955,-0.046923,0.207280,99805.68,-158,+41,-121
47727,8.564,-3.385,1.095,-0.028863,-0.058097,0.200363,99805.68,-158,+41,-121
47736,8.656,-3.659,1.048,-0.009175,-0.058629,0.191317,99805.68,-158,+40,-120
47747,8.925,-3.799,0.782,-0.056533,-0.066078,0.180143,99808.22,-159,+41,-121
47757,9.233,-3.783,0.821,-0.120386,-0.071932,0.184400,99808.38,-158,+40,-122
47767,9.496,-3.288,0.965,-0.167744,-0.086299,0.199831,99807.17,-158,+40,-122
47777,9.535,-2.959,0.842,-0.159230,-0.118757,0.226436,99806.23,-158,+39,-122
47787,9.409,-2.958,0.682,-0.076753,-0.176757,0.258363,99806.23,-157,+39,-123
47797,9.189,-3.151,1.012,0.048293,-0.238482,0.282308,99810.15,-157,+38,-123
47807,9.075,-3.487,0.940,0.130238,-0.293821,0.294546,99806.85,-157,+38,-123
47817,9.080,-4.028,0.507,0.138752,-0.354482,0.296143,99805.79,-156,+38,-123
47827,9.033,-4.579,0.149,0.066917,-0.382152,0.285500,99805.79,-155,+36,-124
47837,9.091,-4.445,0.012,-0.087927,-0.364060,0.279647,99808.82,-155,+36,-125
47847,9.246,-3.980,0.325,-0.237450,-0.345968,0.292418,99808.82,-155,+36,-125
47857,9.462,-3.481,0.682,-0.336955,-0.370977,0.319555,99807.37,-153,+36,-126
47866,9.657,-3.220,0.969,-0.367817,-0.397583,0.353610,99805.65,-153,+34,-126
47877,9.864,-3.178,1.426,-0.351854,-0.444941,0.394583,99806.07,-151,+36,-128
47887,9.893,-3.651,1.439,-0.338551,-0.517840,0.422785,99806.07,-151,+36,-128
47897,9.760,-4.044,1.093,-0.315670,-0.568922,0.427574,99809.13,-150,+35,-129
47907,9.238,-3.859,1.110,-0.295982,-0.614152,0.435023,99807.41,-148,+34,-131
47918,8.912,-3.688,1.226,-0.271505,-0.662574,0.427574,99805.80,-147,+34,-133
47927,8.676,-3.738,1.424,-0.208184,-0.736005,0.436620,99807.47,-147,+34,-133
47937,8.587,-3.949,0.958,-0.125707,-0.804647,0.441409,99807.78,-145,+34,-134
47947,8.749,-4.217,0.425,-0.092716,-0.844555,0.436620,99807.72,-143,+32,-136
47958,8.808,-4.728,0.023,-0.096973,-0.865307,0.423317,99806.95,-141,+31,-138
47967,8.899,-4.661,0.120,-0.132092,-0.863711,0.403629,99806.95,-141,+31,-138
47977,8.906,-4.666,0.138,-0.161890,-0.871693,0.373298,99807.20,-139,+30,-141
47987,9.012,-4.733,-0.166,-0.181578,-0.879142,0.344032,99807.20,-137,+30,-142
47997,9.041,-4.776,-0.435,-0.203927,-0.883399,0.327005,99808.95,-135,+30,-145
48003,8.998,-4.667,-0.639,-0.207652,-0.896702,0.314234,99805.98,-135,+30,-145
48012,8.879,-4.661,-0.714,-0.203927,-0.923839,0.288693,99805.30,-132,+30,-146
48022,8.840,-4.787,-0.827,-0.185303,-0.932885,0.261555,99806.91,-130,+29,-148
48032,8.879,-4.840,-1.110,-0.165615,-0.933950,0.238143,99806.91,-130,+29,-148
48041,8.857,-4.726,-1.407,-0.139010,-0.927032,0.214730,99808.10,-128,+29,-150
48052,8.838,-4.739,-1.668,-0.146459,-0.905216,0.196106,99810.23,-125,+28,-152
48062,8.857,-4.563,-1.873,-0.176789,-0.900959,0.151941,99807.59,-123,+28,-154
48072,9.265,-4.143,-2.067,-0.192753,-0.910005,0.107244,99804.57,-123,+28,-154
48081,9.760,-3.536,-2.491,-0.164019,-0.979711,0.055629,99804.57,-120,+30,-157
48092,9.654,-4.083,-1.025,-0.082074,-1.036115,0.047647,99809.63,-118,+29,-158
48102,10.257,-4.199,-1.273,-0.096973,-1.071234,0.079574,99805.42,-115,+29,-161
48112,10.867,-3.918,-1.405,-0.084202,-1.159564,0.093941,99807.70,-115,+29,-161
48122,11.290,-4.290,-1.244,-0.118257,-1.234059,0.120014,99807.55,-112,+30,-163
48132,11.802,-4.271,-1.260,-0.179982,-1.285674,0.151941,99807.55,-108,+29,-165
48142,12.169,-4.131,-1.510,-0.214037,-1.355380,0.187060,99810.44,-104,+29,-168
48152,12.499,-4.020,-1.679,-0.248092,-1.449564,0.204088,99805.75,-104,+29,-168
48162,12.815,-3.678,-1.393,-0.260863,-1.551197,0.216326,99808.45,-100,+30,-171
48172,12.976,-3.724,-1.165,-0.247028,-1.673050,0.230161,99807.78,-95,+30,-172
48182,13.188,-3.939,-0.910,-0.280019,-1.793307,0.245060,99807.78,-89,+30,-176
48192,13.399,-3.853,-0.508,-0.374734,-1.886958,0.261555,99809.56,-89,+30,-176
48202,13.397,-3.850,-0.186,-0.469450,-1.972096,0.273262,99808.89,-84,+32,-179
48212,13.307,-3.678,0.427,-0.590771,-2.028499,0.271666,99806.86,-77,+32,-182
48222,13.388,-3.119,1.596,-0.737633,-2.069472,0.266877,99805.94,-71,+35,-186
48232,14.114,-2.376,3.267,-0.781798,-2.148224,0.272198,99805.94,-71,+35,-186
48238,14.732,-2.833,4.796,-0.711028,-2.239747,0.297207,99809.45,-63,+36,-188
48247,14.671,-4.056,6.467,-0.569486,-2.361600,0.359464,99809.45,-56,+37,-191
48258,13.804,-6.778,7.087,-0.404000,-2.468022,0.511647,99806.27,-56,+37,-191
48267,13.533,-7.971,4.433,-0.399211,-2.550499,0.607959,99802.16,-48,+38,-194
48277,13.459,-8.068,3.731,-0.456679,-2.833581,0.580289,99806.68,-39,+39,-197
48287,12.681,-9.033,6.617,-0.239046,-3.161361,0.654252,99805.95,-29,+37,-199
48297,13.517,-8.700,7.858,0.190898,-3.334297,0.835702,99805.86,-29,+37,-199
48308,13.092,-6.610,7.219,0.615522,-3.345471,0.861243,99803.56,-17,+36,-203
48317,12.633,-5.544,6.455,1.002898,-3.228407,0.760674,99803.56,-6,+32,-204
48327,11.840,-4.949,4.546,1.464769,-3.202866,0.657977,99804.30,+3,+25,-205
48337,9.550,-4.755,2.003,2.008053,-3.360370,0.610619,99804.30,+3,+25,-205
48347,7.127,-9.376,1.963,2.696603,-3.523728,0.769720,99808.34,+16,+17,-204
48357,6.802,-10.263,1.377,3.563410,-4.058498,0.995867,99806.10,+29,+4,-203
48367,7.059,-5.228,4.670,4.404675,-4.255911,0.615941,99805.68,+43,-10,-199
48377,6.597,-5.779,7.063,4.879849,-3.839269,0.425977,99804.54,+43,-10,-199
48388,5.911,-7.027,6.631,4.762785,-3.551929,0.372234,99804.54,+56,-26,-193
48397,4.946,-6.987,5.705,4.415318,-3.298645,0.216326,99804.98,+66,-42,-187
48407,4.988,-6.544,4.712,3.894382,-2.930958,0.046583,99801.91,+74,-54,-180
48417,5.257,-5.988,4.107,3.229777,-2.605838,-0.129545,99803.79,+74,-54,-180
48428,5.132,-5.382,4.674,2.710438,-2.288701,-0.361545,99803.79,+81,-64,-174
48437,5.330,-5.153,5.194,2.341154,-1.936444,-0.619086,99803.79,+85,-71,-168
48447,5.656,-4.797,4.898,2.049026,-1.662940,-0.864389,99804.56,+89,-77,-161
48457,5.589,-4.293,4.121,1.820218,-1.443179,-1.115545,99805.03,+89,-77,-161
48467,5.449,-4.009,3.346,1.646219,-1.205858,-1.351801,99803.06,+90,-83,-157
48477,5.405,-3.905,2.967,1.527558,-0.962683,-1.601893,99802.28,+89,-87,-152
48487,5.427,-3.829,2.639,1.480732,-0.743454,-1.868480,99802.28,+88,-92,-147
48497,5.609,-3.578,2.388,1.512659,-0.533803,-2.137195,99802.37,+88,-92,-147
48507,5.704,-3.251,2.247,1.605246,-0.327344,-2.405911,99801.18,+84,-96,-142
48518,5.782,-2.906,2.336,1.740934,-0.129932,-2.669837,99801.98,+79,-102,-138
48527,6.006,-2.800,2.629,1.934622,0.056839,-2.907158,99801.98,+72,-108,-133
48537,6.271,-3.076,2.939,2.173007,0.223389,-3.101378,99801.53,+65,-108,-127
48547,6.451,-3.655,3.097,2.418310,0.380362,-3.252497,99800.75,+65,-113,-127
48558,6.629,-4.214,3.333,2.657227,0.558618,-3.357323,99800.75,+55,-119,-121
48567,6.820,-5.006,3.445,2.871135,0.760820,-3.404681,99798.88,+44,-125,-114
48577,6.953,-5.959,3.485,3.013208,0.987499,-3.434479,99800.48,+33,-129,-106
48587,6.987,-6.810,3.284,3.044603,1.248765,-3.474387,99800.48,+33,-129,-106
48592,7.167,-7.255,3.259,2.996713,1.471187,-3.511635,99800.45,+20,-134,-97
48603,7.339,-7.683,3.113,2.888163,1.713829,-3.553139,99803.57,+20,-134,-97
48612,7.623,-8.200,2.984,2.681172,2.035755,-3.612204,99801.90,+7,-135,-89
48622,8.333,-8.520,2.701,2.374145,2.370452,-3.697873,99798.52,-5,-136,-80
48632,9.195,-8.940,2.433,1.994218,2.698232,-3.796846,99798.52,-18,-134,-73
48643,10.030,-9.392,1.908,1.585558,3.002599,-3.878790,99801.67,-18,-134,-73
48652,10.789,-9.665,1.307,1.214145,3.255883,-3.927745,99801.56,-32,-131,-68
48662,11.448,-9.574,0.919,0.902329,3.460745,-3.972442,99804.06,-44,-128,-63
48672,12.196,-9.010,0.721,0.647449,3.623570,-4.005433,99799.75,-58,-125,-58
48683,12.907,-8.378,0.149,0.468128,3.736378,-4.001708,99799.75,-58,-125,-58
48693,13.356,-7.889,-0.992,0.395229,3.780011,-3.942644,99804.43,-70,-120,-52
48702,13.752,-7.830,-2.184,0.475577,3.750745,-3.835690,99804.12,-83,-115,-48
48712,13.982,-8.157,-3.150,0.689485,3.612928,-3.700534,99800.95,-96,-108,-41
48722,13.932,-8.644,-3.981,0.927870,3.400084,-3.557396,99804.16,-96,-108,-41
48732,13.963,-9.141,-4.520,1.125815,3.162763,-3.408406,99804.16,-107,-103,-33
48742,13.982,-10.264,-4.826,1.284916,2.905222,-3.242919,99805.52,-117,-97,-26
48752,13.345,-12.003,-5.013,1.410494,2.609901,-3.034864,99806.66,-125,-90,-19
48762,11.802,-14.348,-5.125,1.462641,2.299681,-2.805525,99804.99,-125,-90,-19
48773,10.140,-15.927,-5.719,1.419540,2.021920,-2.523507,99807.02,-131,-85,-12
48782,9.033,-16.285,-6.156,1.292366,1.784067,-2.174443,99807.02,-135,-78,-7
48792,7.933,-16.765,-6.315,1.113045,1.504177,-1.748223,99805.59,-139,-75,-3
48802,6.609,-17.547,-6.712,0.898604,1.152453,-1.236333,99810.63,-139,-75,-3
48813,5.578,-18.147,-6.639,0.583595,0.812435,-0.654738,99807.93,-141,-73,+0
48822,5.092,-19.064,-6.836,0.237724,0.550637,-0.108793,99806.48,-142,-72,+1
48832,5.409,-16.927,-7.278,0.114807,0.015334,0.679794,99806.48,-141,-73,+0
48842,4.673,-14.632,-7.515,0.205265,-0.423124,1.214032,99809.94,-139,-77,+0
48852,4.672,-12.857,-7.738,0.478238,-0.887656,1.626949,99810.98,-139,-77,+0
48863,6.913,-10.904,-4.876,0.899136,-1.295784,2.012197,99808.86,-134,-81,-1
48872,4.984,-9.233,16.585,1.489778,-1.239380,2.448527,99805.16,-130,-88,-1
48882,34.205,21.097,22.743,0.815063,-0.352886,1.627481,99805.16,-127,-91,-1
48892,44.223,12.377,-27.170,-2.289798,-0.749840,0.759610,99809.01,-127,-91,-1
48903,31.214,-20.200,-11.176,1.322164,-2.503673,3.587241,99809.32,-122,-96,-7
48912,17.155,-26.044,0.819,2.672126,-2.732481,3.455810,99808.18,-113,-106,-7
48922,3.270,-13.087,-3.556,0.443651,-1.942297,2.589536,99806.51,-107,-110,-10
48932,-5.305,-1.236,2.246,-0.765835,-0.956298,2.269206,99806.51,-107,-110,-10
48943,-2.029,-5.872,6.625,-0.225744,-0.764739,2.458105,99806.34,-102,-115,-13
48948,5.716,-10.033,4.277,0.213779,-1.386243,2.577829,99806.65,-102,-115,-13
48957,9.239,-10.540,0.928,0.162697,-1.753931,2.195775,99806.65,-96,-120,-13
48967,10.914,-11.132,-0.918,-0.376863,-1.476701,1.774876,99805.66,-90,-123,-18
48977,11.363,-8.620,-2.274,-0.796165,-1.111674,1.480619,99805.82,-86,-126,-21
48988,10.146,-4.510,-1.481,-0.772220,-0.882335,1.250215,99805.82,-86,-126,-21
48998,8.710,-1.992,-0.143,-0.384844,-0.777509,1.170399,99809.15,-83,-127,-25
49007,7.837,-0.819,-1.077,0.047229,-0.790812,1.169867,99806.02,-79,-129,-25
49017,7.466,-2.420,-1.271,0.360641,-0.734408,1.188491,99806.70,-76,-131,-25
49028,8.675,-5.423,-0.406,0.384586,-0.582757,1.154436,99806.70,-76,-131,-25
49037,9.720,-6.463,0.593,0.079687,-0.386941,1.061849,99806.70,-72,-133,-25
49047,9.037,-6.092,1.858,-0.294386,-0.195381,0.948509,99810.04,-70,-134,-26
49057,7.734,-5.414,2.768,-0.539688,-0.093216,0.839959,99806.98,-68,-136,-28
49068,7.502,-4.202,2.971,-0.665798,-0.055436,0.722895,99807.13,-66,-136,-29
49078,8.399,-3.337,2.107,-0.687083,-0.037877,0.653720,99807.29,-66,-136,-29
49087,9.316,-3.074,1.345,-0.584386,-0.051179,0.622858,99807.29,-64,-136,-31
49097,9.639,-3.117,1.509,-0.434863,-0.061822,0.617005,99808.96,-62,-137,-32
49107,9.434,-3.526,1.855,-0.376863,-0.052244,0.619133,99806.70,-62,-137,-32
49118,9.062,-4.342,1.746,-0.433266,-0.041069,0.624454,99806.04,-62,-137,-32
49128,8.625,-5.079,2.054,-0.559376,-0.026702,0.613812,99806.04,-59,-138,-33
49137,8.419,-5.131,2.613,-0.692936,-0.026702,0.597849,99807.88,-58,-138,-35
49147,8.072,-4.589,2.980,-0.780202,-0.050115,0.574968,99807.88,-57,-138,-38
49158,7.650,-4.242,2.860,-0.787119,-0.099601,0.578161,99806.05,-57,-138,-38
49168,7.551,-4.024,2.452,-0.729119,-0.168776,0.591996,99806.37,-54,-138,-40
49177,7.916,-3.741,2.312,-0.650899,-0.227308,0.622858,99806.12,-53,-138,-41
49187,8.322,-3.737,2.336,-0.558844,-0.274133,0.659573,99806.12,-51,-138,-42
49198,8.601,-4.060,2.129,-0.463065,-0.324152,0.695225,99808.05,-51,-138,-42
49208,8.715,-4.659,1.832,-0.398679,-0.365656,0.714381,99807.16,-49,-138,-44
49218,8.753,-5.139,1.504,-0.413046,-0.379491,0.735133,99804.97,-46,-140,-45
49227,8.808,-5.097,1.354,-0.499780,-0.355546,0.754821,99804.27,-45,-140,-47
49238,8.779,-4.514,1.632,-0.588642,-0.333730,0.788344,99806.73,-45,-140,-47
49248,8.414,-3.702,2.230,-0.585982,-0.352354,0.840491,99807.91,-42,-140,-48
49258,7.963,-3.327,2.801,-0.468386,-0.411950,0.905940,99805.95,-40,-140,-50
49267,7.496,-3.720,3.097,-0.306624,-0.498684,0.978839,99805.95,-36,-141,-52
49277,7.042,-4.539,3.150,-0.192221,-0.573711,1.053335,99804.48,-36,-141,-52
49288,6.920,-5.557,2.422,-0.186900,-0.617344,1.123041,99804.48,-32,-142,-51
49298,7.363,-6.323,1.196,-0.265652,-0.640225,1.167206,99808.31,-28,-143,-53
49307,8.034,-6.907,0.448,-0.409321,-0.628519,1.198601,99807.80,-24,-144,-55
49317,9.237,-6.815,-0.809,-0.591303,-0.604574,1.212436,99805.70,-24,-144,-55
49328,9.923,-6.323,-1.276,-0.739762,-0.588078,1.222013,99804.83,-21,-144,-57
49338,10.066,-5.939,-0.790,-0.792440,-0.578500,1.259793,99804.83,-15,-143,-60
49348,9.829,-5.855,0.059,-0.799890,-0.589142,1.301830,99807.50,-12,-143,-61
49357,9.668,-6.253,0.674,-0.794569,-0.630115,1.345995,99807.69,-12,-143,-61
49368,10.016,-6.536,0.449,-0.816385,-0.688647,1.385903,99804.98,-7,-144,-64
49378,10.690,-6.524,-0.062,-0.864807,-0.776445,1.426876,99804.98,-2,-143,-66
49387,11.274,-6.676,-0.106,-0.920679,-0.861583,1.477958,99804.98,+2,-142,-69
49397,12.020,-6.704,0.102,-0.971761,-0.915858,1.555114,99809.40,+2,-142,-69
49408,12.677,-6.704,-0.300,-1.036679,-0.979179,1.640784,99807.68,+8,-142,-73
49418,13.266,-6.710,-0.560,-1.095211,-1.052610,1.723261,99808.52,+14,-141,-76
49427,13.677,-6.828,-0.525,-1.183009,-1.126573,1.765830,99806.49,+21,-139,-79
49437,14.149,-6.671,-0.399,-1.319761,-1.180848,1.811591,99806.49,+21,-139,-79
49447,14.979,-6.246,0.046,-1.484715,-1.232463,1.860545,99809.67,+28,-138,-84
49458,15.883,-5.576,1.129,-1.614018,-1.305894,1.932912,99808.00,+35,-135,-88
49468,16.648,-5.199,2.166,-1.681596,-1.387839,2.015389,99805.44,+43,-132,-92
49477,17.030,-5.109,3.045,-1.773651,-1.440518,2.099463,99805.44,+43,-132,-92
49487,17.489,-4.689,3.696,-1.925834,-1.452756,2.143096,99806.58,+51,-129,-97
49498,19.128,-3.480,4.727,-2.106220,-1.480426,2.122875,99806.58,+59,-125,-101
49508,21.627,-1.622,6.297,-2.199871,-1.580463,2.119683,99807.88,+67,-119,-107
49517,23.142,-1.426,6.893,-2.118990,-1.792243,2.275591,99804.39,+67,-119,-107
49527,20.276,-6.379,5.204,-1.639559,-2.257839,2.709793,99804.03,+78,-115,-111
49539,18.629,-9.329,5.739,-1.032422,-2.571429,3.082624,99806.45,+89,-110,-114
49548,18.649,-9.718,6.940,-0.896734,-2.605306,3.175389,99806.45,+103,-106,-115
49558,18.299,-9.036,8.040,-1.129798,-2.458976,3.108875,99805.51,+115,-106,-115
49567,17.327,-6.980,8.488,-1.441082,-2.176958,2.784288,99806.02,+115,-101,-117
49577,14.803,-3.720,7.869,-1.430440,-1.895472,2.352747,99801.09,+126,-95,-120
49588,11.674,-1.927,7.711,-1.097339,-1.550665,1.872784,99803.03,+133,-91,-121
49598,9.595,1.135,2.331,-0.766367,-1.603876,1.320986,99801.31,+141,-88,-123
49608,1.206,-9.706,-1.350,-0.813193,-1.412316,1.353445,99803.95,+141,-88,-123
49617,3.610,-15.987,1.670,-0.830752,-0.854665,1.467848,99803.95,+146,-85,-123
49628,5.492,-7.388,2.725,-1.100000,-0.600849,0.432895,99802.72,+149,-81,-126
49638,3.742,1.615,3.190,-1.230899,-0.141638,-0.376976,99802.72,+149,-81,-130
49647,3.690,4.577,4.063,-1.020716,0.207426,-0.597802,99803.34,+149,-81,-130
49657,2.951,4.212,2.439,-0.367285,0.238820,-0.722848,99803.03,+148,-81,-132
49668,1.835,2.770,1.729,0.280825,0.295756,-0.864921,99804.23,+146,-84,-133
49678,2.171,1.398,1.678,0.663944,0.456985,-1.067655,99801.94,+142,-90,-134
49688,2.606,0.442,1.413,0.909779,0.599591,-1.293269,99801.94,+142,-90,-134
49698,2.887,-0.236,0.818,1.183815,0.743260,-1.573159,99804.38,+137,-94,-134
49708,3.197,-0.829,0.338,1.512659,0.875756,-1.873269,99801.81,+131,-103,-133
49718,3.407,-1.144,0.072,1.769136,1.010912,-2.152627,99799.91,+121,-111,-131
49728,3.523,-1.114,0.308,1.895778,1.180655,-2.427195,99799.91,+121,-111,-131
49737,3.937,-0.749,0.374,1.939411,1.356783,-2.683672,99799.91,+112,-122,-128
49747,4.530,-0.442,0.216,1.973998,1.530251,-2.914608,99799.26,+99,-131,-125
49758,5.166,-0.765,0.028,2.000072,1.706911,-3.112020,99799.10,+84,-140,-122
49768,5.644,-1.720,-0.142,1.976127,1.855902,-3.278571,99798.70,+84,-140,-122
49777,5.737,-2.920,0.009,1.938879,1.979884,-3.458956,99800.20,+67,-148,-117
49787,5.915,-3.774,0.211,1.905356,2.089498,-3.669671,99800.20,+49,-154,-111
49798,6.273,-4.361,0.524,1.792017,2.239553,-3.885708,99799.99,+29,-157,-105
49808,6.876,-5.053,0.481,1.605246,2.451333,-4.101745,99801.20,+29,-157,-105
49818,7.841,-5.579,0.078,1.373246,2.697700,-4.280002,99800.76,+7,-158,-98
49827,8.888,-5.953,-0.416,1.160934,2.925442,-4.392809,99800.76,-12,-155,-90
49838,9.803,-6.416,-0.981,0.997577,3.115406,-4.460919,99801.92,-34,-147,-82
49848,10.413,-7.145,-1.637,0.899136,3.249497,-4.493378,99801.03,-34,-147,-82
49858,10.728,-8.080,-1.935,0.951283,3.310690,-4.492846,99801.03,-50,-138,-74
49867,11.037,-8.844,-2.012,1.119430,3.315479,-4.500827,99801.61,-63,-126,-64
49878,11.761,-9.109,-2.309,1.314714,3.301644,-4.524240,99801.66,-73,-113,-55
49888,12.687,-9.741,-2.692,1.560549,3.247369,-4.521579,99801.66,-73,-113,-55
49893,13.267,-10.564,-2.997,1.736677,3.167552,-4.489653,99801.89,-77,-102,-47
49903,13.565,-11.364,-3.256,1.848952,3.072305,-4.439634,99802.78,-80,-92,-41
49912,13.778,-12.097,-3.309,1.894714,2.949388,-4.378442,99801.80,-80,-92,-41
49923,14.065,-12.632,-3.295,1.774457,2.837112,-4.308203,99800.28,-82,-84,-38
49933,14.436,-13.162,-3.470,1.540329,2.720580,-4.209763,99800.28,-83,-79,-35
49943,14.387,-13.643,-3.603,1.283320,2.615222,-4.092699,99804.77,-86,-75,-34
49952,13.772,-14.093,-3.295,1.073668,2.507736,-3.920827,99805.29,-86,-75,-34
49963,12.642,-14.475,-2.972,0.950219,2.409296,-3.634552,99803.30,-89,-73,-33
49973,11.412,-14.825,-3.127,0.927870,2.317241,-3.244516,99804.04,-93,-72,-33
49983,10.352,-15.805,-3.974,0.887430,2.236892,-2.764020,99804.04,-97,-73,-31
49993,9.421,-16.728,-5.537,0.699595,2.078856,-2.256388,99808.80,-97,-73,-31
50002,8.407,-17.395,-7.703,0.390440,1.822911,-1.750884,99805.59,-101,-73,-28
50013,7.666,-18.269,-9.914,0.073834,1.364765,-1.193765,99807.09,-104,-75,-28
50023,7.014,-18.919,-10.901,-0.135285,0.717187,-0.498829,99806.37,-104,-76,-29
50033,8.014,-18.263,-9.873,-0.192753,0.012142,0.299335,99806.37,-104,-76,-29
50042,6.713,-15.047,-8.625,0.056807,-0.674812,1.128894,99809.55,-103,-81,-31
50053,5.997,-12.940,-6.111,0.556458,-1.164353,1.588105,99808.21,-98,-87,-33
50063,4.059,-12.451,2.270,1.102934,-1.368683,1.966967,99804.77,-94,-92,-34
50073,8.733,-8.661,24.619,1.403044,-0.749840,2.374031,99801.55,-94,-92,-34
50082,32.717,14.662,8.016,-0.895138,0.160600,1.078876,99801.55,-88,-99,-34
50093,31.579,0.090,-17.307,-2.459008,-0.855197,1.345995,99811.51,-86,-100,-41
50103,27.587,-22.411,-5.675,0.505375,-1.941233,3.312141,99807.09,-77,-108,-44
50113,17.476,-20.877,-0.242,0.743228,-2.147692,3.100893,99809.18,-77,-108,-44
50123,4.585,-10.309,0.406,-0.788184,-1.553325,2.502270,99808.18,-70,-114,-46
50128,1.708,-4.033,1.645,-1.219725,-1.137215,2.410747,99808.18,-63,-116,-49
50138,1.449,-0.006,3.990,-0.381120,-1.213307,2.470343,99808.18,-63,-116,-49
50148,2.393,-2.505,2.067,0.626696,-1.627288,2.473536,99807.13,-57,-121,-50
50158,7.433,-8.910,0.558,0.427155,-1.818848,2.400105,99805.31,-50,-125,-52
50168,10.460,-10.143,-0.301,-0.308753,-1.685288,2.216527,99807.80,-42,-127,-55
50178,10.816,-7.242,-1.492,-0.824367,-1.246830,1.846178,99808.46,-42,-127,-55
50188,10.053,-3.995,-0.864,-0.797229,-0.957362,1.581720,99808.77,-38,-129,-58
50198,8.357,-2.158,0.493,-0.470514,-0.890849,1.473169,99807.62,-33,-130,-60
50208,7.340,-2.234,0.805,-0.195945,-0.849876,1.382711,99807.62,-29,-132,-61
50217,7.289,-3.817,0.423,0.009449,-0.862115,1.323647,99804.66,-29,-132,-61
50228,8.320,-4.952,0.135,0.100440,-0.799858,1.202858,99805.91,-26,-133,-62
50238,9.197,-5.747,0.408,-0.008111,-0.645546,1.093775,99805.91,-21,-134,-62
50248,9.082,-5.942,0.797,-0.147701,-0.497974,0.964472,99807.41,-18,-135,-63
50257,8.614,-5.681,1.105,-0.273101,-0.381620,0.860179,99807.41,-18,-135,-63
50268,7.959,-5.161,1.178,-0.383248,-0.273069,0.751096,99805.02,-15,-134,-63
50278,7.824,-4.436,0.980,-0.417303,-0.195913,0.653720,99805.73,-14,-135,-65
50288,8.113,-4.103,0.689,-0.381652,-0.150684,0.580821,99805.73,-12,-136,-66
50298,8.296,-4.171,0.709,-0.331101,-0.111840,0.528142,99808.91,-12,-136,-66
50308,8.382,-4.425,0.824,-0.306092,-0.071932,0.488766,99807.59,-11,-135,-67
50318,8.464,-4.670,1.122,-0.319927,-0.045858,0.463757,99806.13,-10,-136,-68
50328,8.385,-4.850,1.554,-0.371010,-0.020317,0.445665,99806.13,-8,-135,-68
50337,8.201,-4.788,2.052,-0.442312,0.009481,0.439280,99806.13,-8,-135,-68
50348,8.093,-4.591,2.207,-0.525321,0.033958,0.440876,99808.52,-7,-134,-69
50358,8.403,-4.361,1.863,-0.607266,0.036087,0.448858,99809.34,-6,-134,-71
50368,8.837,-4.179,1.730,-0.629615,0.010545,0.467482,99807.78,-5,-134,-72
50378,9.046,-4.199,1.691,-0.603009,-0.025106,0.492491,99805.03,-5,-134,-72
50388,8.917,-4.422,1.456,-0.579597,-0.058097,0.516968,99805.03,-5,-132,-74
50398,8.701,-4.573,1.302,-0.568954,-0.082574,0.536124,99808.95,-2,-132,-75
50408,8.510,-4.617,1.068,-0.551927,-0.113436,0.552087,99805.70,-1,-133,-77
50418,8.267,-4.671,1.083,-0.532239,-0.141638,0.566986,99805.05,-1,-133,-77
50428,8.065,-4.631,1.260,-0.525853,-0.155473,0.587207,99805.05,+0,-132,-77
50438,7.873,-4.633,1.418,-0.510422,-0.179950,0.610087,99809.20,+1,-131,-79
50448,7.740,-4.712,1.510,-0.477431,-0.215601,0.638289,99809.20,+3,-130,-80
50458,7.795,-4.862,1.767,-0.463065,-0.243271,0.671812,99807.80,+3,-130,-80
50468,7.893,-4.883,1.754,-0.483285,-0.276794,0.708528,99807.80,+5,-130,-81
50478,7.878,-4.746,2.273,-0.516808,-0.306592,0.754289,99805.46,+7,-130,-83
50484,7.962,-4.366,2.759,-0.534367,-0.324152,0.797390,99805.46,+7,-130,-83
50493,7.874,-3.847,3.366,-0.523193,-0.364592,0.845812,99806.09,+10,-130,-84
50503,7.887,-3.288,3.973,-0.396551,-0.461436,0.920839,99807.09,+13,-130,-85
50513,7.615,-3.376,3.858,-0.176257,-0.593399,1.007573,99804.95,+17,-130,-85
50523,7.477,-4.546,2.791,0.044568,-0.724830,1.086858,99808.17,+17,-130,-85
50533,7.441,-5.929,1.617,0.140880,-0.813161,1.141133,99808.17,+20,-130,-85
50543,7.607,-7.048,0.431,0.047229,-0.819546,1.178380,99807.41,+25,-132,-86
50553,8.193,-7.063,-0.574,-0.161358,-0.794005,1.189555,99806.79,+30,-132,-87
50563,8.800,-6.694,-1.448,-0.343872,-0.772188,1.194876,99806.99,+30,-132,-87
50573,9.526,-6.395,-1.703,-0.453487,-0.764206,1.203922,99806.63,+34,-131,-87
50583,9.845,-6.331,-1.011,-0.514679,-0.756757,1.227335,99806.63,+38,-132,-90
50593,9.909,-6.616,-0.356,-0.554587,-0.751436,1.262986,99809.79,+43,-131,-90
50604,10.004,-7.219,-0.193,-0.589707,-0.758353,1.300766,99806.57,+43,-131,-90
50613,10.348,-7.764,-0.349,-0.656220,-0.764739,1.304491,99806.20,+47,-130,-92
50623,11.106,-7.799,-0.843,-0.784459,-0.760482,1.307151,99807.04,+52,-129,-94
50633,11.880,-7.459,-1.155,-0.897798,-0.764206,1.329500,99807.04,+56,-128,-96
50643,12.348,-6.901,-1.125,-0.982936,-0.809968,1.367280,99807.27,+56,-128,-96
50653,12.571,-6.692,-0.915,-0.998367,-0.893509,1.426344,99807.42,+61,-126,-98
50663,13.067,-6.409,-0.831,-1.002624,-0.989821,1.486472,99805.50,+67,-123,-99
50673,13.581,-6.658,-0.622,-1.030826,-1.074426,1.544472,99807.06,+71,-123,-103
50683,14.045,-6.901,-0.112,-1.133523,-1.146261,1.594490,99807.06,+71,-123,-103
50693,14.456,-6.963,0.702,-1.287302,-1.199472,1.650894,99808.01,+77,-120,-105
50703,14.938,-6.824,1.778,-1.491101,-1.218096,1.724325,99809.62,+84,-117,-109
50713,15.400,-6.433,2.863,-1.733743,-1.189362,1.800417,99808.27,+89,-113,-111
50723,15.778,-5.641,3.545,-1.995008,-1.137748,1.891940,99805.20,+89,-113,-111
50733,17.009,-4.187,3.843,-2.252550,-1.111674,1.927591,99805.20,+97,-109,-115
50743,19.369,-2.355,4.475,-2.381852,-1.186170,1.897261,99806.56,+103,-104,-120
50753,20.905,0.021,5.634,-2.388770,-1.337289,1.906307,99806.61,+111,-98,-124
50763,19.332,-1.756,5.203,-2.126440,-1.648573,2.131921,99802.86,+111,-98,-124
50774,17.281,-5.340,3.780,-1.585816,-2.059362,2.541646,99801.52,+118,-94,-128
50783,16.610,-8.120,4.733,-1.073394,-2.353618,2.890710,99801.52,+130,-90,-129
50793,16.966,-9.341,5.614,-0.835009,-2.425985,3.046086,99806.10,+141,-85,-129
50803,17.403,-9.645,6.385,-0.965376,-2.326481,3.039701,99804.54,+141,-85,-129
50813,16.841,-8.636,6.844,-1.259101,-2.125875,2.798123,99805.70,+152,-81,-128
50823,14.899,-6.042,6.770,-1.380954,-1.889619,2.426178,99804.60,+161,-76,-130
50833,12.543,-4.142,7.029,-1.191523,-1.600151,2.022839,99804.60,+169,-73,-131
50843,11.579,-1.039,4.061,-0.933982,-1.484151,1.467848,99803.02,+174,-73,-131
50853,4.363,-4.048,-1.273,-0.951541,-1.580463,1.230527,99806.59,+174,-70,-131
50863,2.893,-14.156,-0.451,-0.784991,-1.122316,1.559903,99804.67,+180,-68,-132
50873,5.236,-11.217,2.336,-0.744551,-0.757289,1.002252,99802.55,+184,-66,-134
50883,4.495,-2.879,2.579,-0.845119,-0.513051,0.087556,99802.55,+184,-66,-136
50893,3.823,2.487,3.575,-0.794569,-0.116097,-0.338132,99806.14,+184,-66,-136
50904,3.513,4.246,3.005,-0.377395,0.050986,-0.554169,99804.06,+183,-67,-137
50913,2.572,3.375,2.073,0.215375,0.133463,-0.705288,99804.64,+180,-72,-138
50923,2.213,2.087,1.826,0.757595,0.222857,-0.857471,99800.89,+178,-75,-138
50933,2.128,0.369,1.365,1.053980,0.353224,-1.054884,99800.89,+178,-75,-138
50944,2.181,-1.031,0.774,1.216274,0.520839,-1.302315,99804.14,+174,-82,-137
50953,2.471,-1.554,0.385,1.334402,0.757095,-1.625306,99802.22,+167,-91,-136
50963,2.880,-1.521,0.107,1.415815,0.975260,-1.934462,99799.36,+161,-98,-135
50973,3.069,-1.245,-0.138,1.472751,1.151921,-2.207434,99798.38,+161,-98,-135
50983,3.506,-0.791,-0.402,1.538732,1.305168,-2.449544,99798.38,+150,-106,-134
50994,4.239,-0.488,-0.470,1.637173,1.452563,-2.670901,99801.94,+141,-115,-133
51003,5.129,-0.606,-0.331,1.740934,1.601021,-2.869378,99799.17,+129,-123,-130
51013,5.745,-1.397,-0.025,1.814365,1.715425,-3.048699,99799.13,+129,-123,-130
51023,5.851,-2.454,-0.064,1.848420,1.799498,-3.239727,99797.16,+116,-132,-127
51033,5.748,-3.471,0.051,1.844163,1.897939,-3.429158,99797.16,+101,-138,-125
51043,5.757,-4.370,0.251,1.730292,2.033627,-3.629231,99804.83,+86,-145,-122
51053,6.010,-4.892,0.361,1.523833,2.236892,-3.830901,99801.03,+86,-145,-122
51063,6.859,-4.913,0.296,1.331742,2.466764,-4.005965,99800.83,+69,-150,-118
51074,8.085,-4.950,-0.026,1.236139,2.664531,-4.146619,99801.66,+52,-153,-114
51083,9.010,-5.461,-0.441,1.206696,2.786030,-4.232644,99801.66,+34,-155,-111
51093,9.891,-6.136,-0.773,1.150824,2.906819,-4.299689,99801.67,+34,-155,-111
51103,10.598,-6.899,-0.849,1.078457,3.010048,-4.347047,99803.23,+16,-155,-107
51113,11.023,-7.838,-0.949,1.061430,3.070709,-4.385359,99801.58,-1,-155,-103
51123,11.353,-8.674,-1.168,1.108788,3.104764,-4.406111,99799.55,-18,-154,-98
51133,11.821,-9.314,-1.242,1.228512,3.118066,-4.402387,99799.55,-18,-154,-98
51143,12.423,-9.755,-1.292,1.389742,3.105828,-4.392277,99801.93,-34,-153,-92
51153,13.049,-10.084,-1.614,1.543521,3.061131,-4.353965,99804.01,-51,-151,-85
51164,13.507,-10.472,-1.948,1.676549,2.971204,-4.287983,99802.45,-67,-149,-78
51173,13.666,-10.799,-2.053,1.741998,2.854140,-4.206038,99800.10,-67,-149,-78
51183,13.959,-11.393,-2.199,1.688787,2.780709,-4.102809,99800.10,-82,-146,-70
51193,14.264,-11.917,-2.682,1.553631,2.697700,-3.976166,99803.97,-98,-142,-63
51204,14.153,-12.435,-3.189,1.444017,2.575314,-3.820791,99804.08,-111,-136,-55
51213,13.443,-13.161,-3.405,1.388677,2.437498,-3.601029,99804.70,-111,-136,-55
51223,12.496,-13.687,-3.508,1.336531,2.297553,-3.331249,99805.06,-123,-130,-47
51233,11.581,-14.191,-3.903,1.243944,2.169847,-3.008791,99805.06,-134,-124,-40
51244,10.413,-15.227,-4.496,1.105063,2.042140,-2.613966,99806.78,-142,-119,-34
51253,8.996,-16.470,-5.458,0.867742,1.908581,-2.198920,99807.03,-142,-119,-34
51263,7.545,-17.655,-6.701,0.461210,1.735113,-1.762590,99804.91,-148,-113,-28
51273,7.033,-19.422,-8.196,0.019559,1.558985,-1.334774,99809.73,-153,-109,-25
51283,6.991,-19.079,-8.684,-0.427413,1.068912,-0.562150,99809.73,-154,-107,-23
51294,5.814,-17.409,-8.720,-0.498716,0.599059,-0.000243,99809.95,-154,-107,-23
51303,6.498,-16.253,-8.200,-0.518936,0.062692,0.574968,99807.41,-153,-106,-22
51313,6.009,-14.839,-7.868,-0.390698,-0.467821,1.192747,99808.55,-151,-108,-24
51323,6.980,-11.697,-5.401,-0.123046,-0.886060,1.629078,99806.56,-148,-112,-26
51334,6.167,-9.862,4.427,0.343082,-1.003124,1.869059,99806.56,-148,-112,-26
51343,20.649,6.222,23.587,0.773026,-0.518904,1.813720,99805.10,-143,-117,-26
51353,37.299,21.226,-4.258,-1.234092,-0.119822,0.371702,99804.54,-141,-119,-28
51363,27.052,-5.302,-12.659,-0.435395,-1.600151,2.187793,99809.99,-135,-123,-32
51374,20.912,-21.787,-3.411,2.303374,-2.293490,3.485076,99807.87,-125,-133,-32
51383,7.823,-19.747,3.034,1.604182,-2.115765,2.772049,99807.87,-125,-133,-32
51393,2.682,-16.711,-1.247,0.006788,-1.169142,2.638490,99810.59,-117,-138,-34
51403,5.809,-7.762,3.282,-0.214037,-1.179252,2.607095,99810.59,-110,-145,-37
51414,4.865,-3.505,3.277,0.352128,-1.453289,2.248986,99807.47,-102,-149,-38
51424,5.866,-5.817,2.222,0.120660,-1.496922,1.982931,99808.98,-102,-149,-38
51429,7.559,-7.878,1.157,-0.232129,-1.508628,1.892472,99808.98,-96,-152,-41
51438,8.743,-8.309,0.412,-0.690275,-1.383050,1.731243,99808.98,-96,-152,-41
51448,9.586,-6.149,-1.331,-1.089358,-1.175527,1.455610,99808.19,-90,-154,-46
51459,9.363,-4.102,-2.384,-0.958459,-0.981839,1.263518,99806.47,-86,-155,-49
51469,8.640,-2.748,-1.254,-0.499248,-0.839234,1.149647,99806.00,-82,-157,-51
51478,8.731,-1.787,0.109,-0.060790,-0.730151,1.108142,99806.29,-82,-157,-51
51488,8.523,-2.299,0.200,0.319137,-0.680133,1.094839,99808.95,-78,-158,-52
51499,8.284,-3.789,0.499,0.541027,-0.625326,1.079408,99806.09,-74,-161,-52
51509,8.560,-4.995,1.346,0.498990,-0.505601,1.027794,99806.09,-70,-163,-52
51518,8.648,-5.388,2.277,0.214843,-0.394390,0.959151,99806.60,-70,-163,-52
51528,8.067,-5.443,2.751,-0.128367,-0.315106,0.854326,99805.35,-67,-164,-52
51538,7.685,-5.352,2.586,-0.410918,-0.242739,0.721298,99805.35,-65,-165,-53
51549,7.938,-4.841,2.113,-0.623762,-0.184207,0.617537,99808.59,-63,-166,-55
51558,8.584,-3.754,1.479,-0.739762,-0.140042,0.581886,99806.88,-61,-166,-55
51568,9.251,-2.624,1.004,-0.686019,-0.115033,0.600509,99805.84,-61,-165,-57
51578,9.522,-2.143,0.908,-0.475835,-0.142702,0.666491,99808.55,-59,-165,-59
51589,9.323,-2.359,1.196,-0.212973,-0.215601,0.747904,99808.55,-57,-166,-59
51599,8.978,-3.106,1.657,-0.041634,-0.290629,0.815482,99807.38,-54,-167,-60
51608,8.587,-4.436,2.117,-0.016624,-0.344904,0.862839,99805.54,-54,-167,-60
51618,8.328,-5.321,2.300,-0.165083,-0.360867,0.880931,99806.16,-51,-168,-60
51629,8.284,-5.418,2.094,-0.430606,-0.334262,0.876674,99806.16,-47,-169,-62
51639,8.620,-4.879,1.799,-0.637597,-0.295418,0.873482,99806.16,-45,-168,-63
51648,9.020,-4.229,1.272,-0.692404,-0.289032,0.877739,99810.55,-45,-168,-63
51658,9.104,-3.955,0.769,-0.610459,-0.319895,0.897959,99809.32,-42,-169,-66
51668,8.919,-4.103,0.594,-0.477964,-0.357675,0.924564,99806.04,-38,-169,-68
51679,8.505,-4.584,0.637,-0.394954,-0.375766,0.949573,99808.38,-35,-169,-69
51689,8.217,-4.967,1.091,-0.384312,-0.383216,0.965537,99808.38,-35,-169,-69
51698,7.952,-5.162,1.503,-0.414643,-0.392262,0.969793,99807.81,-31,-170,-71
51708,7.871,-5.084,1.490,-0.440184,-0.403436,0.969261,99805.09,-28,-170,-72
51719,7.974,-5.137,1.508,-0.449762,-0.409821,0.962344,99806.05,-24,-171,-73
51729,8.241,-5.421,1.436,-0.457211,-0.414078,0.961280,99806.05,-24,-171,-73
51738,8.418,-5.651,1.249,-0.485945,-0.402904,0.965537,99806.90,-21,-171,-75
51748,8.535,-5.758,1.036,-0.546606,-0.381087,0.969261,99806.90,-17,-171,-76
51759,8.680,-5.430,0.946,-0.619505,-0.364060,0.995335,99808.93,-14,-170,-78
51769,8.761,-5.225,1.014,-0.664734,-0.368849,1.040564,99807.62,-14,-170,-78
51778,8.821,-5.222,1.101,-0.687615,-0.404500,1.108674,99805.18,-10,-169,-80
51784,8.857,-5.376,1.246,-0.712092,-0.436959,1.161353,99805.18,-6,-169,-83
51793,8.798,-5.660,1.443,-0.741890,-0.476335,1.218289,99808.37,-6,-170,-83
51804,8.560,-6.073,1.808,-0.799358,-0.524757,1.285867,99806.13,-3,-168,-85
51814,8.207,-6.711,2.504,-0.861083,-0.548702,1.347059,99805.04,+3,-168,-88
51823,8.111,-7.686,3.162,-0.946752,-0.521032,1.407720,99805.66,+3,-168,-88
51833,9.028,-7.558,1.560,-1.104257,-0.519968,1.434325,99805.66,+8,-168,-92
51844,9.956,-7.011,0.184,-1.230899,-0.543913,1.450821,99805.64,+13,-164,-95
51854,10.543,-6.617,-0.688,-1.342642,-0.590207,1.462527,99805.17,+19,-163,-98
51863,11.097,-6.044,-1.255,-1.359137,-0.658317,1.514674,99805.80,+25,-161,-102
51873,11.311,-5.800,-1.610,-1.325614,-0.745051,1.593958,99806.06,+25,-161,-102
51884,11.680,-5.934,-1.784,-1.271871,-0.845087,1.691866,99806.06,+31,-159,-106
51894,11.974,-6.380,-1.393,-1.280385,-0.943527,1.774343,99808.45,+38,-156,-108
51903,12.472,-7.173,-0.732,-1.355413,-1.023876,1.848839,99807.93,+46,-153,-112
51913,13.244,-8.029,0.087,-1.516642,-1.060592,1.923866,99807.15,+46,-153,-112
51923,14.251,-8.567,0.861,-1.775779,-1.057399,1.988784,99804.51,+54,-149,-117
51934,15.847,-8.297,1.363,-2.120587,-1.016426,2.042527,99804.51,+61,-144,-122
51944,18.764,-7.160,2.273,-2.459540,-0.993014,2.087756,99807.28,+69,-138,-128
51953,22.078,-5.673,3.521,-2.637265,-1.087197,2.152674,99806.03,+69,-138,-128
51963,24.649,-3.304,5.184,-2.576072,-1.281417,2.273995,99806.97,+78,-130,-133
51974,24.947,-1.070,6.145,-2.271706,-1.537894,2.441077,99802.92,+88,-123,-138
51984,21.332,-3.124,4.678,-1.800788,-1.852371,2.676802,99802.92,+100,-117,-140
51993,16.857,-8.341,2.146,-1.325082,-2.087564,2.922104,99806.84,+100,-117,-140
52003,14.354,-10.969,3.337,-1.158000,-2.066279,3.008838,99806.84,+112,-111,-141
52014,13.520,-11.361,5.541,-1.332000,-1.826830,2.916783,99803.78,+122,-104,-142
52024,13.527,-9.705,6.206,-1.748110,-1.522463,2.735866,99801.44,+132,-97,-144
52033,13.175,-6.858,6.342,-1.827926,-1.325050,2.550692,99801.44,+132,-97,-144
52043,12.489,-4.008,6.105,-1.577302,-1.187234,2.166508,99803.85,+139,-89,-147
52054,10.591,-0.330,5.477,-1.157468,-1.120188,1.625885,99803.60,+146,-83,-148
52064,5.311,-0.331,2.100,-0.887688,-1.080812,1.245958,99804.74,+151,-79,-149
52074,-0.510,-7.491,1.389,-0.862147,-0.715252,1.164546,99803.80,+151,-79,-149
52083,0.586,-10.943,0.912,-1.081908,-0.203363,0.944784,99803.80,+153,-74,-150
52093,2.080,-5.918,1.365,-1.592201,0.165389,0.386069,99808.95,+153,-70,-153
52104,2.637,0.917,2.422,-1.746513,0.496362,-0.301949,99804.39,+152,-65,-156
52114,3.487,5.009,1.784,-1.452789,0.724105,-0.781912,99803.30,+152,-65,-156
52123,3.268,6.000,0.748,-0.757853,0.735279,-0.984114,99801.78,+149,-62,-159
52133,2.728,4.431,0.171,0.163761,0.705481,-1.095857,99801.78,+144,-64,-160
52140,3.003,3.241,-0.136,0.809742,0.658123,-1.200150,99805.29,+144,-64,-160
52149,3.133,2.235,-0.363,1.337063,0.583095,-1.332645,99805.29,+141,-68,-158
52159,2.620,0.776,-0.152,1.859595,0.573517,-1.544957,99803.77,+135,-75,-157
52169,2.378,-0.106,0.491,2.220897,0.677811,-1.791324,99801.49,+129,-83,-153
52178,2.796,-0.199,0.882,2.440126,0.827334,-2.082920,99799.05,+129,-83,-153
52189,3.438,-0.131,0.771,2.544420,0.973132,-2.371856,99800.78,+122,-92,-150
52199,4.084,-0.371,0.232,2.601356,1.089664,-2.619287,99800.27,+113,-102,-145
52209,4.658,-1.031,-0.429,2.622640,1.190765,-2.848626,99799.48,+104,-110,-142
52218,5.250,-1.786,-0.956,2.568897,1.283884,-3.060938,99799.48,+104,-110,-142
52229,5.590,-2.501,-1.157,2.414053,1.377003,-3.278571,99800.78,+93,-118,-138
52239,5.897,-3.073,-0.894,2.221429,1.470654,-3.515892,99800.78,+79,-125,-133
52249,6.146,-3.760,-0.734,1.999539,1.564306,-3.756937,99803.08,+67,-130,-128
52258,6.405,-4.753,-0.650,1.722842,1.707443,-3.978827,99800.63,+67,-130,-128
52269,6.941,-5.514,-0.663,1.389742,1.915498,-4.179433,99798.50,+53,-134,-126
52279,7.792,-5.815,-0.679,1.090696,2.147498,-4.319910,99800.67,+37,-136,-123
52289,8.797,-5.788,-1.169,0.985338,2.301810,-4.402387,99800.67,+22,-137,-120
52299,9.840,-5.891,-2.001,1.172641,2.326819,-4.441231,99803.45,+22,-137,-120
52308,10.769,-6.415,-2.949,1.598861,2.199645,-4.448148,99802.08,+4,-140,-117
52319,11.572,-7.387,-3.362,2.151723,1.974030,-4.425267,99805.92,-9,-140,-111
52329,12.162,-8.790,-3.536,2.665209,1.710104,-4.395469,99805.92,-22,-142,-104
52338,12.634,-10.573,-3.592,3.023319,1.455755,-4.358754,99805.92,-22,-142,-104
52348,13.079,-12.171,-3.540,3.173906,1.221627,-4.307139,99807.77,-37,-144,-95
52359,12.980,-13.725,-3.615,3.105263,1.052948,-4.231579,99804.60,-48,-145,-87
52369,12.253,-15.263,-3.817,2.873264,0.949719,-4.074075,99804.45,-60,-145,-79
52374,11.740,-15.982,-3.737,2.689154,0.884802,-3.925616,99805.90,-60,-145,-79
52383,11.509,-16.206,-3.294,2.519411,0.817756,-3.770772,99805.90,-72,-144,-72
52393,10.970,-16.211,-3.004,2.300181,0.733682,-3.529727,99808.01,-81,-142,-66
52404,10.175,-16.037,-3.022,2.159172,0.638967,-3.228020,99807.91,-81,-142,-66
52414,9.398,-15.351,-3.212,2.105961,0.503811,-2.868846,99803.18,-89,-140,-60
52424,8.651,-14.257,-3.131,2.103301,0.361738,-2.472424,99803.80,-97,-138,-55
52433,7.858,-13.618,-3.186,2.052218,0.226582,-2.066957,99803.80,-101,-137,-51
52444,6.755,-13.725,-3.204,1.917062,0.091958,-1.677453,99808.83,-101,-137,-51
52454,5.821,-13.677,-2.799,1.692512,-0.002225,-1.319875,99807.27,-105,-136,-46
52464,5.351,-12.699,-2.630,1.363136,-0.010739,-0.985710,99807.27,-107,-136,-44
52473,5.492,-11.085,-2.949,1.047595,-0.026170,-0.653673,99804.56,-110,-136,-41
52484,5.478,-11.297,-3.556,0.845925,-0.078849,-0.378040,99804.56,-110,-136,-41
52494,6.090,-12.050,-3.691,0.945253,-0.329828,0.202137,99812.39,-109,-137,-41
52504,6.717,-10.972,-2.036,1.113045,-0.472078,0.428638,99807.55,-108,-138,-38
52513,8.127,-14.591,3.826,1.200843,-0.316702,0.805904,99805.38,-105,-142,-36
52524,23.013,-20.887,2.901,0.687889,-0.353950,1.748270,99806.20,-105,-142,-36
52534,24.411,-10.946,3.440,0.144605,-0.963748,1.819041,99806.20,-100,-146,-36
52544,17.627,-20.746,-0.693,-0.136881,-0.043198,2.569316,99807.08,-93,-151,-36
52554,17.377,-19.129,-2.124,-1.001560,-0.428445,3.079609,99808.59,-86,-155,-40
52563,4.885,-4.220,0.215,-0.710496,-0.927564,2.187261,99806.45,-86,-155,-40
52574,1.228,3.432,4.188,-0.999431,-0.296482,1.847775,99804.58,-79,-157,-43
52584,2.140,1.507,2.360,-0.622165,-0.614152,1.830215,99804.58,-74,-159,-46
52594,6.507,-2.909,0.446,0.295724,-1.091986,1.900453,99806.39,-67,-162,-46
52603,10.322,-5.868,-0.208,0.594770,-1.157436,1.645041,99804.94,-67,-162,-46
52614,11.539,-7.698,-2.485,0.440990,-0.998335,1.408784,99804.72,-61,-166,-46
52624,11.767,-5.674,-2.543,0.203137,-0.754629,1.197004,99804.25,-58,-167,-47
52634,9.914,-4.007,-1.600,0.085541,-0.590739,1.078344,99804.25,-54,-169,-47
52643,8.005,-3.463,-0.784,0.079155,-0.478464,0.986289,99808.65,-54,-169,-47
52654,7.376,-3.622,-0.310,0.051486,-0.378959,0.879867,99806.04,-51,-170,-47
52664,8.081,-4.410,0.046,-0.027267,-0.299675,0.793665,99803.65,-48,-171,-47
52674,9.538,-4.652,0.904,-0.179982,-0.229436,0.721298,99806.66,-45,-172,-47
52683,9.945,-4.088,1.237,-0.250753,-0.206023,0.652124,99806.66,-45,-172,-47
52694,9.216,-3.546,1.101,-0.201799,-0.195381,0.597849,99808.67,-44,-172,-49
52704,8.403,-3.663,0.977,-0.152845,-0.181014,0.555280,99808.05,-42,-173,-49
52714,8.286,-3.702,0.792,-0.178918,-0.142170,0.511115,99806.23,-40,-173,-50
52724,8.427,-3.896,0.329,-0.197010,-0.115565,0.480253,99806.08,-40,-173,-50
52729,8.620,-3.951,0.029,-0.193817,-0.112372,0.464289,99806.08,-38,-173,-50
52739,8.621,-4.072,-0.027,-0.170936,-0.119822,0.440876,99806.08,-37,-174,-50
52749,8.451,-4.133,-0.053,-0.132624,-0.140574,0.400436,99809.79,-37,-174,-50
52759,8.032,-4.252,-0.106,-0.095909,-0.153344,0.359464,99806.82,-35,-174,-51
52769,8.113,-4.271,-0.421,-0.098037,-0.140574,0.317427,99805.88,-35,-174,-52
52780,8.547,-4.065,-0.403,-0.108679,-0.145363,0.279115,99809.02,-33,-174,-52
52789,8.605,-4.101,-0.101,-0.087395,-0.163987,0.254638,99809.34,-33,-174,-52
52799,8.782,-3.918,-0.326,-0.051744,-0.173033,0.243996,99806.79,-33,-174,-52
52809,9.027,-3.937,-0.421,-0.025670,-0.191124,0.237078,99806.79,-31,-175,-52
52818,8.877,-4.015,-0.153,-0.002790,-0.224647,0.232289,99804.45,-31,-174,-53
52829,8.876,-3.951,-0.013,0.012109,-0.240078,0.225904,99804.65,-31,-174,-53
52839,8.729,-4.041,-0.119,0.044568,-0.266684,0.213133,99804.65,-29,-175,-52
52849,8.346,-4.172,-0.086,0.116935,-0.287436,0.188124,99807.88,-29,-175,-53
52858,8.126,-4.071,-0.345,0.177596,-0.294354,0.157794,99804.20,-29,-176,-53
52869,7.962,-4.364,-0.371,0.185045,-0.279987,0.133849,99806.49,-29,-176,-53
52879,8.056,-4.759,-0.378,0.140348,-0.241675,0.108308,99805.91,-28,-176,-53
52889,8.547,-4.639,-0.429,0.056275,-0.185271,0.079042,99809.56,-27,-176,-52
52899,9.140,-4.536,-0.295,-0.032588,-0.151748,0.051372,99806.08,-27,-176,-53
52909,9.645,-3.960,-0.168,-0.054404,-0.161326,0.033812,99808.05,-27,-176,-53
52919,9.466,-3.562,0.084,-0.020349,-0.188996,0.038069,99804.56,-26,-177,-53
52929,9.726,-4.095,0.525,0.085009,-0.236886,0.031684,99804.56,-26,-176,-53
52939,9.344,-3.991,1.222,0.157375,-0.366188,0.134913,99804.56,-25,-176,-53
52948,8.814,-3.910,1.259,0.173339,-0.385344,0.069996,99805.91,-25,-176,-53
52959,9.106,-4.290,1.157,0.119064,-0.453986,0.093409,99806.80,-25,-178,-53
52965,9.369,-4.380,1.217,0.033926,-0.509326,0.136510,99810.87,-24,-178,-53
52974,9.627,-4.235,1.323,-0.049083,-0.562005,0.188656,99801.24,-24,-178,-53
52983,9.838,-3.609,0.866,-0.101762,-0.626390,0.264216,99801.24,-21,-177,-54
52994,9.624,-3.532,0.728,-0.086331,-0.709399,0.341904,99807.44,-21,-178,-55
53004,9.512,-3.711,0.495,-0.058129,-0.788151,0.413207,99809.14,-18,-177,-55
53014,9.383,-3.890,0.086,-0.000661,-0.852537,0.505794,99804.67,-18,-177,-55
53024,9.231,-4.103,-0.330,0.045632,-0.907344,0.561665,99805.83,-14,-178,-56
53033,9.377,-5.267,-0.938,0.003596,-0.932353,0.570179,99805.83,-12,-179,-57
53044,9.566,-5.612,-1.376,-0.139010,-0.932353,0.424381,99808.64,-10,-178,-57
53054,9.350,-5.053,-1.254,-0.320459,-0.892977,0.283904,99809.11,-10,-178,-57
53064,9.517,-4.106,-1.097,-0.404000,-0.878610,0.217390,99809.73,-8,-178,-59
53074,9.762,-3.765,-1.182,-0.348129,-0.925436,0.207280,99806.83,-5,-178,-61
53084,10.185,-3.840,-1.818,-0.251817,-1.007913,0.209941,99806.83,-4,-178,-62
53094,10.488,-3.293,-2.552,-0.158698,-1.168610,0.180143,99808.36,-4,-178,-62
53104,10.006,-4.837,-0.494,-0.047487,-1.232995,0.210473,99806.58,-2,-177,-63
53114,10.891,-5.445,-0.815,-0.154973,-1.209582,0.240271,99804.09,+0,-178,-64
53124,11.184,-4.868,-0.884,-0.222019,-1.241509,0.238143,99804.97,+2,-178,-66
53134,11.209,-4.867,-0.900,-0.259799,-1.281417,0.220051,99804.97,+2,-178,-66
53144,11.278,-4.615,-1.022,-0.301835,-1.327179,0.217922,99808.68,+5,-176,-68
53154,11.194,-4.141,-1.114,-0.310881,-1.386775,0.231225,99807.34,+7,-176,-69
53164,11.112,-4.125,-1.392,-0.310349,-1.468188,0.238675,99807.13,+11,-177,-69
53174,11.262,-4.070,-1.543,-0.313542,-1.552261,0.236546,99804.48,+11,-177,-69
53184,11.334,-4.075,-1.564,-0.326844,-1.630481,0.238675,99804.48,+14,-176,-72
53194,11.791,-3.633,-1.313,-0.361964,-1.715087,0.246656,99807.57,+16,-174,-73
53204,12.205,-3.154,-0.798,-0.373670,-1.822041,0.271666,99809.23,+21,-174,-74
53214,12.465,-3.112,0.017,-0.348661,-1.939637,0.316895,99807.10,+21,-174,-74
53224,12.470,-3.450,0.634,-0.308753,-2.057765,0.358932,99804.60,+25,-174,-76
53234,12.581,-3.828,1.229,-0.344404,-2.177490,0.400968,99804.60,+30,-173,-78
53244,12.790,-4.144,2.103,-0.373670,-2.261031,0.416932,99809.41,+35,-173,-79
53254,13.764,-4.567,4.040,-0.507762,-2.322756,0.419060,99804.00,+35,-173,-79
53264,14.889,-5.277,5.987,-0.567358,-2.382352,0.468546,99805.56,+39,-172,-80
53274,15.252,-6.026,6.813,-0.535964,-2.480793,0.538785,99803.80,+45,-171,-82
53284,14.387,-7.434,5.781,-0.448165,-2.617013,0.652656,99803.80,+51,-170,-84
53294,14.700,-8.255,3.124,-0.393890,-2.867636,0.751096,99807.52,+51,-170,-84
53304,14.142,-9.020,4.909,-0.402404,-3.190095,0.736197,99805.82,+58,-168,-84
53314,14.596,-8.828,7.314,-0.101230,-3.494462,0.811757,99803.95,+67,-168,-85
53324,15.293,-6.135,6.775,0.467063,-3.630682,0.896894,99805.82,+76,-168,-82
53334,14.293,-4.290,5.840,1.084311,-3.683893,0.852729,99805.82,+76,-168,-82
53344,13.012,-4.475,3.489,1.620145,-3.730718,0.746307,99806.98,+84,-170,-77
53354,11.462,-5.038,0.613,2.013374,-3.850975,0.707463,99804.13,+93,-172,-70
53364,8.601,-9.494,1.808,2.798236,-4.069673,0.930950,99804.50,+100,-175,-60
53374,8.256,-10.694,2.201,3.727300,-4.454388,1.094307,99803.72,+109,-180,-46
53384,8.364,-4.398,4.060,4.473850,-4.548571,0.531867,99803.72,+109,-180,-46
53394,6.833,-4.758,6.409,4.731923,-4.027103,0.293482,99805.82,+114,-184,-30
53404,5.327,-6.467,5.936,4.491409,-3.709434,0.271666,99805.26,+118,-187,-13
53414,3.420,-6.428,4.897,4.003997,-3.410388,0.099794,99803.54,+119,-190,+0
53424,3.324,-6.312,4.308,3.474548,-2.925636,-0.056646,99803.54,+119,-190,+0
53434,3.686,-6.338,3.551,2.723741,-2.463233,-0.284389,99803.54,+119,-192,+10
53444,3.504,-6.125,3.401,1.984108,-2.049784,-0.572261,99804.88,+118,-193,+18
53454,3.793,-5.371,3.404,1.366861,-1.619839,-0.894187,99805.26,+116,-194,+22
53465,4.356,-4.230,3.184,0.935852,-1.270243,-1.187379,99801.98,+116,-194,+22
53474,4.789,-3.370,2.483,0.791118,-1.016426,-1.447049,99802.09,+111,-195,+26
53484,4.927,-2.791,1.964,0.848586,-0.855729,-1.683306,99802.09,+105,-197,+28
53494,4.914,-2.595,1.832,1.003430,-0.726427,-1.905728,99804.77,+99,-199,+33
53505,5.031,-2.516,1.703,1.193925,-0.622665,-2.122828,99802.38,+99,-199,+33
53514,5.293,-2.485,1.585,1.386017,-0.512519,-2.341525,99805.39,+91,-201,+36
53524,5.639,-2.588,1.704,1.618549,-0.396519,-2.553837,99800.55,+82,-202,+41
53534,5.970,-2.817,2.016,1.933026,-0.316170,-2.765085,99800.55,+73,-203,+46
53544,6.233,-2.923,2.238,2.303374,-0.265088,-2.959305,99803.56,+73,-203,+46
53554,6.386,-3.333,2.364,2.715227,-0.239014,-3.114149,99801.02,+63,-204,+55
53564,6.415,-4.041,2.401,3.104731,-0.227840,-3.227488,99799.41,+51,-204,+63
53574,6.410,-4.870,2.343,3.413355,-0.209748,-3.316350,99801.38,+40,-202,+74
53584,6.554,-5.743,2.465,3.585758,-0.140042,-3.399892,99801.38,+40,-202,+74
53595,6.756,-6.470,2.739,3.628859,-0.025106,-3.488754,99800.78,+27,-200,+85
53604,7.018,-7.112,2.876,3.565538,0.119628,-3.576020,99800.78,+15,-197,+95
53614,7.409,-7.841,3.027,3.405905,0.307995,-3.659029,99799.59,+3,-192,+104
53624,7.954,-8.675,3.385,3.183484,0.538398,-3.757469,99798.61,+3,-192,+104
53635,8.682,-9.488,3.560,2.907851,0.797536,-3.866020,99798.61,-7,-186,+112
53644,9.025,-10.204,3.525,2.581667,1.076893,-3.961267,99803.63,-20,-180,+120
53654,9.007,-10.756,3.297,2.240053,1.373278,-4.020332,99800.62,-31,-174,+126
53664,8.783,-10.771,3.014,1.914934,1.668067,-4.043745,99803.27,-31,-174,+126
53675,8.774,-10.218,2.894,1.615001,1.990526,-4.045518,99801.24,-41,-167,+133
53684,9.198,-9.425,2.791,1.413687,2.244342,-4.034167,99801.24,-50,-161,+138
53694,9.713,-8.795,2.592,1.231173,2.508268,-4.001708,99801.73,-58,-152,+144
53704,10.118,-8.736,2.204,1.085375,2.751975,-3.945836,99803.96,-58,-152,+144
53714,10.407,-8.840,1.736,0.990659,2.958433,-3.871873,99803.29,-63,-144,+151
53725,10.769,-8.814,1.332,0.912439,3.140415,-3.799506,99803.13,-67,-136,+157
53734,11.150,-8.776,0.995,0.860292,3.294194,-3.730864,99803.13,-68,-128,+164
53744,11.551,-8.827,0.345,0.830494,3.389974,-3.660625,99803.28,-68,-128,+164
53754,11.850,-9.372,-0.812,0.810806,3.432011,-3.564846,99804.02,-69,-119,+169
53765,12.284,-10.387,-2.249,0.790586,3.399552,-3.436075,99804.80,-68,-113,+176
53774,12.591,-11.376,-3.535,0.721944,3.298451,-3.314222,99805.47,-67,-107,+181
53784,12.603,-12.080,-4.146,0.622439,3.156378,-3.193965,99805.47,-67,-107,+181
53794,12.587,-12.401,-4.177,0.574549,2.939277,-3.018901,99808.84,-65,-102,+187
53805,12.292,-13.233,-4.343,0.628293,2.664177,-2.755507,99806.34,-64,-96,+191
53814,11.256,-15.167,-4.878,0.761852,2.308195,-2.408039,99804.84,-63,-91,+195
53824,9.340,-16.889,-6.187,0.808678,1.933590,-1.942975,99806.23,-63,-91,+195
53834,7.678,-18.212,-7.560,0.718219,1.564306,-1.347544,99806.23,-62,-86,+199
53844,5.945,-19.550,-8.640,0.392568,1.167352,-0.660059,99809.91,-60,-83,+202
53855,5.330,-20.299,-8.850,0.004660,0.776251,-0.016206,99807.15,-58,-83,+203
53864,5.332,-17.437,-8.222,-0.328973,0.238820,0.740986,99808.76,-56,-83,+203
53874,4.580,-15.239,-7.727,-0.394422,-0.168776,1.160821,99804.40,-56,-86,+203
53884,4.449,-15.126,-7.219,-0.307156,-0.633840,1.635995,99804.40,-56,-89,+203
53895,6.477,-11.469,-3.580,-0.040569,-1.052078,2.037206,99809.94,-55,-91,+201
53904,7.582,-6.119,16.795,0.296256,-0.961619,2.308050,99806.14,-52,-93,+202
53914,32.507,18.469,19.884,-0.090056,-0.225179,1.560967,99803.02,-52,-93,+202
53924,40.119,11.711,-21.728,-2.255210,-0.776445,0.923500,99809.78,-52,-98,+199
53935,29.310,-15.468,-9.486,1.208292,-2.540921,3.320655,99809.78,-52,-102,+198
53944,17.826,-22.867,1.741,2.913172,-2.857526,3.519131,99810.09,-52,-98,+199
53954,3.212,-12.902,0.858,1.579173,-2.450994,2.656049,99804.42,-52,-98,+199
53964,-2.617,0.799,-2.177,0.353192,-1.669325,2.343701,99807.70,-52,-99,+199
53975,-2.678,1.681,1.913,0.424495,-1.359637,2.293683,99805.56,-51,-101,+199
53984,2.602,-8.664,2.712,0.690549,-1.297912,2.369774,99805.56,-50,-103,+198
53994,10.301,-15.943,-1.272,0.198880,-1.259601,2.267077,99808.69,-50,-103,+198
54004,13.280,-13.588,-2.845,-0.795101,-1.112206,1.906839,99807.34,-49,-106,+196
54014,12.531,-8.466,-1.218,-1.516110,-0.515179,1.585977,99807.28,-46,-112,+193
54025,9.827,-4.684,-0.268,-1.592201,-0.304464,1.479555,99808.48,-44,-117,+190
54030,7.327,-2.455,-0.435,-1.226110,-0.355014,1.409316,99808.48,-44,-117,+190
54039,7.017,-1.124,-0.882,-0.714752,-0.414078,1.361426,99808.48,-42,-121,+188
54049,7.552,-0.760,-0.796,-0.194349,-0.478464,1.353445,99807.53,-42,-121,+188
54060,7.907,-3.858,0.100,0.067449,-0.435363,1.334289,99807.28,-40,-122,+188
54070,8.970,-6.364,0.636,0.080220,-0.368317,1.198601,99807.02,-38,-123,+187
54080,9.124,-6.651,1.122,-0.166147,-0.219326,1.053335,99806.78,-36,-125,+186
54089,8.261,-6.265,1.752,-0.416771,-0.074592,0.918179,99806.83,-36,-125,+186
54099,7.708,-5.298,2.226,-0.486477,-0.023510,0.776638,99808.59,-35,-126,+187
54110,7.819,-4.482,2.232,-0.471578,-0.024042,0.657445,99808.59,-33,-128,+185
54119,8.565,-4.001,1.473,-0.416239,-0.042666,0.577629,99804.33,-32,-130,+184
54129,9.270,-3.610,0.955,-0.334826,-0.046923,0.536656,99804.13,-31,-130,+184
54139,9.433,-3.706,1.087,-0.253945,-0.030959,0.529739,99804.13,-31,-130,+184
54150,9.153,-4.060,1.333,-0.199138,-0.032556,0.537720,99808.99,-28,-132,+183
54159,8.605,-4.507,1.554,-0.213505,-0.035748,0.532399,99807.07,-28,-134,+182
54169,8.107,-4.999,1.904,-0.306624,-0.017656,0.521225,99803.99,-26,-135,+182
54179,7.850,-4.956,2.270,-0.415707,0.001499,0.512711,99800.30,-26,-135,+182
54190,7.769,-4.599,2.307,-0.487009,0.011077,0.508986,99809.16,-25,-136,+180
54200,7.807,-4.285,2.388,-0.501376,-0.000097,0.513243,99806.97,-23,-138,+179
54210,8.041,-3.999,2.294,-0.467854,-0.034684,0.534528,99805.88,-22,-140,+178
54219,8.251,-3.835,2.194,-0.399211,-0.069803,0.562197,99805.45,-22,-140,+178
54230,8.199,-4.035,2.080,-0.301303,-0.118225,0.590931,99805.45,-21,-141,+178
54240,8.190,-4.210,1.945,-0.200202,-0.163987,0.620730,99805.45,-20,-142,+177
54249,8.292,-4.232,2.171,-0.141670,-0.193253,0.645739,99809.28,-19,-142,+176
54259,8.220,-4.117,2.919,-0.102294,-0.208152,0.677665,99809.59,-19,-142,+176
54269,7.771,-4.135,3.366,-0.060257,-0.235822,0.723959,99805.44,-17,-143,+176
54280,7.440,-4.642,3.020,0.003064,-0.303399,0.768656,99805.48,-15,-144,+176
54290,7.802,-5.218,2.286,0.021155,-0.383748,0.813885,99805.48,-14,-145,+176
54299,8.521,-5.575,1.453,-0.062918,-0.430574,0.858050,99806.91,-14,-145,+176
54309,9.119,-5.806,0.514,-0.215101,-0.448665,0.914454,99806.87,-14,-145,+176
54320,9.547,-5.432,-0.078,-0.396551,-0.447069,0.984160,99805.05,-12,-146,+174
54330,9.645,-5.046,0.114,-0.528514,-0.427381,1.071427,99805.05,-10,-149,+172
54339,9.241,-4.970,0.518,-0.566294,-0.440684,1.161885,99805.05,-10,-149,+172
54349,8.705,-5.344,0.806,-0.551395,-0.467821,1.237977,99809.59,-8,-150,+172
54360,8.432,-5.957,1.080,-0.541285,-0.493363,1.297573,99805.96,-5,-153,+170
54370,8.028,-6.949,1.602,-0.589175,-0.480060,1.335353,99804.65,-2,-155,+169
54379,7.831,-7.840,2.007,-0.717945,-0.423656,1.357702,99803.15,-2,-155,+169
54385,8.256,-8.297,1.832,-0.850440,-0.362464,1.371004,99803.15,+0,-158,+166
54394,9.061,-7.765,0.697,-1.021780,-0.357675,1.341206,99807.39,+3,-161,+163
54405,9.662,-7.363,0.452,-1.208018,-0.339583,1.319390,99807.50,+3,-161,+163
54415,10.406,-6.719,-0.094,-1.319229,-0.371509,1.328436,99806.25,+7,-163,+161
54424,11.096,-5.632,-0.683,-1.341578,-0.462500,1.356637,99805.22,+9,-166,+157
54434,11.689,-5.216,-0.900,-1.227174,-0.612023,1.434857,99805.22,+12,-170,+154
54445,12.101,-5.688,-0.809,-1.069138,-0.751436,1.531701,99808.17,+12,-170,+154
54455,12.307,-6.499,-1.144,-0.985064,-0.862115,1.615243,99807.34,+15,-172,+151
54464,12.584,-6.963,-1.460,-1.001027,-0.951509,1.669518,99810.52,+20,-174,+148
54474,13.047,-7.115,-0.957,-1.122881,-0.993546,1.710490,99807.13,+23,-177,+144
54484,13.681,-7.257,-0.266,-1.271871,-1.030261,1.756252,99807.13,+23,-177,+144
54495,14.321,-6.985,0.677,-1.442146,-1.054206,1.780729,99809.43,+28,-180,+140
54505,15.026,-6.644,1.601,-1.628385,-1.058995,1.835004,99805.79,+32,-182,+135
54514,15.848,-6.250,2.336,-1.835376,-1.058995,1.898325,99805.73,+37,-185,+130
54524,16.571,-5.461,2.919,-2.100899,-1.041436,1.975481,99805.05,+37,-185,+130
54535,17.543,-4.059,3.633,-2.396751,-1.003124,2.029756,99805.05,+42,-187,+123
54545,19.606,-0.785,4.639,-2.602678,-1.012702,2.027096,99805.45,+49,-191,+115
54554,21.562,0.068,5.282,-2.478164,-1.204261,2.087756,99805.29,+54,-194,+109
54564,20.840,-2.253,4.789,-2.043431,-1.542683,2.345829,99802.63,+54,-194,+109
54575,18.594,-5.332,4.153,-1.622000,-1.924206,2.683719,99803.57,+61,-195,+104
54585,16.934,-8.600,5.410,-1.088826,-2.267417,3.028526,99803.57,+70,-194,+101
54595,16.590,-11.024,6.649,-0.766367,-2.399380,3.231260,99808.87,+79,-193,+100
54604,17.504,-10.615,7.595,-0.940367,-2.309985,3.205187,99806.12,+79,-193,+100
54615,17.566,-6.664,8.462,-1.222385,-2.138114,2.930618,99802.74,+88,-193,+96
54621,16.468,-3.848,7.842,-1.282513,-1.990719,2.594857,99805.02,+96,-193,+94
54630,14.402,-2.291,7.588,-1.189394,-1.831619,2.203224,99805.02,+96,-193,+94
54640,13.080,2.258,5.393,-0.972826,-1.718279,1.554050,99805.02,+101,-192,+92
54649,6.529,0.469,1.183,-0.673248,-1.737967,1.269903,99804.84,+104,-192,+92
54660,2.994,-13.075,0.017,-0.620037,-1.387307,1.443371,99804.45,+109,-192,+90
54670,5.591,-13.602,1.987,-0.931321,-0.967472,0.921904,99802.81,+109,-192,+90
54680,6.049,-5.060,3.531,-1.100532,-0.675344,0.089684,99802.81,+109,-193,+87
54690,4.202,1.922,4.035,-0.980807,-0.283711,-0.547251,99804.38,+109,-195,+84
54700,3.435,3.453,3.630,-0.707835,0.012674,-0.827141,99804.38,+106,-197,+82
54710,2.406,2.776,2.073,-0.295982,0.100472,-1.001673,99805.27,+106,-197,+82
54720,1.572,1.805,1.232,0.078091,0.234031,-1.238994,99803.13,+104,-198,+83
54729,1.764,1.020,1.084,0.347339,0.447940,-1.495471,99800.22,+100,-200,+82
54739,1.962,-0.017,1.176,0.592109,0.638967,-1.704058,99800.22,+95,-202,+83
54750,2.204,-0.720,1.571,0.969907,0.782637,-1.940315,99799.67,+95,-202,+83
54760,3.142,-0.729,1.528,1.434971,0.924710,-2.285654,99800.77,+89,-204,+87
54770,4.011,-0.604,1.220,1.808512,1.042306,-2.609177,99798.11,+81,-205,+92
54779,4.600,-0.663,0.798,2.043172,1.130636,-2.845965,99795.78,+73,-206,+98
54790,5.153,-0.838,0.349,2.232071,1.202471,-3.035929,99801.08,+73,-206,+98
54800,5.393,-1.313,0.097,2.448108,1.278031,-3.199818,99798.22,+63,-206,+104
54810,5.680,-2.144,0.082,2.609869,1.383921,-3.347745,99797.50,+52,-206,+112
54819,5.907,-3.392,0.210,2.654034,1.505774,-3.478112,99797.50,+42,-204,+120
54830,6.015,-4.448,0.560,2.579007,1.617517,-3.623378,99798.28,+42,-204,+120
54840,6.170,-5.259,0.914,2.417245,1.723407,-3.801102,99798.28,+31,-202,+128
54850,6.372,-6.247,1.242,2.168218,1.882507,-4.007561,99801.63,+19,-199,+134
54859,6.826,-7.245,1.137,1.835650,2.087902,-4.235837,99802.31,+7,-196,+141
54870,7.501,-7.598,0.704,1.417411,2.348635,-4.443359,99800.48,+7,-196,+141
54880,8.435,-7.284,0.536,1.034292,2.635975,-4.581176,99800.95,-3,-193,+146
54890,9.317,-7.228,0.591,0.830494,2.864782,-4.646625,99800.95,-15,-187,+151
54900,10.087,-7.093,0.247,0.795907,2.989296,-4.692387,99802.08,-26,-182,+155
54909,10.982,-6.907,-0.201,0.905522,3.059002,-4.725378,99802.05,-26,-182,+155
54920,11.973,-7.174,-0.821,1.095485,3.076562,-4.742405,99800.80,-35,-174,+161
54930,13.042,-8.001,-1.452,1.383356,3.015901,-4.730699,99800.80,-44,-166,+168
54939,14.217,-9.344,-2.155,1.637173,2.891920,-4.717396,99800.80,-52,-156,+176
54949,15.205,-11.067,-2.722,1.760622,2.713663,-4.689726,99802.91,-52,-156,+176
54960,15.715,-12.493,-3.072,1.723907,2.531149,-4.633854,99802.80,-56,-144,+184
54970,15.576,-13.240,-3.069,1.533943,2.398654,-4.513597,99806.70,-61,-134,+190
54980,15.111,-13.395,-2.748,1.301411,2.318305,-4.319377,99804.72,-65,-125,+196
54989,14.483,-13.176,-2.762,1.159338,2.218269,-4.063965,99804.72,-65,-125,+196
55000,13.139,-13.588,-2.497,1.131136,2.114507,-3.754809,99806.40,-67,-116,+201
55010,11.594,-15.808,-2.591,1.147100,2.014471,-3.396167,99806.82,-66,-109,+206
55020,9.948,-16.999,-3.895,0.951283,1.986269,-2.967286,99804.90,-66,-102,+210
55030,9.168,-17.376,-5.033,0.581467,1.984141,-2.505415,99804.90,-66,-102,+210
55040,7.954,-18.066,-5.693,0.024880,1.948489,-2.022792,99806.99,-63,-98,+214
55050,6.396,-18.229,-6.299,-0.595028,1.782471,-1.539636,99806.99,-61,-97,+215
55060,6.057,-18.476,-6.514,-1.069670,1.604746,-1.130444,99807.82,-59,-99,+215
55070,6.732,-17.692,-6.307,-1.404899,1.179058,-0.449343,99809.80,-59,-99,+215
55079,5.438,-15.344,-6.167,-1.321890,0.766673,0.115225,99806.48,-56,-103,+214
55090,6.182,-13.948,-6.426,-1.111174,0.348435,0.555280,99806.48,-54,-107,+212
55100,6.295,-11.700,-7.217,-0.732312,-0.182078,1.059188,99812.89,-52,-111,+210
55110,7.446,-9.255,-6.702,-0.208184,-0.704610,1.440711,99809.25,-52,-111,+210
55120,7.484,-9.591,-3.116,0.386715,-1.081876,1.716344,99807.55,-51,-112,+211
55130,14.371,-0.766,15.850,1.099742,-1.162225,1.923334,99806.50,-51,-113,+211
55140,35.951,18.754,8.378,0.016366,-0.545509,0.785151,99807.12,-50,-113,+210
55150,30.224,-3.206,-18.182,-1.344238,-1.271307,1.754123,99809.82,-49,-120,+206
55160,21.646,-26.470,-7.824,1.342916,-2.029032,3.704838,99808.01,-49,-120,+206
55170,12.397,-27.039,4.542,1.457852,-1.980609,3.228067,99808.01,-46,-119,+207
55180,4.835,-15.644,1.547,-0.249689,-1.339949,2.567187,99803.23,-44,-122,+205
55190,3.537,-2.280,3.844,-1.015394,-1.025472,2.435224,99803.23,-41,-128,+203
55200,-0.240,0.837,5.302,-0.189028,-1.162757,2.187793,99808.60,-41,-128,+203
55211,3.524,-5.124,3.644,0.080042,-1.501888,2.085805,99805.71,-40,-130,+202
55220,8.138,-7.072,0.639,-0.095377,-1.670389,1.965903,99805.71,-39,-132,+199
55230,10.971,-7.846,-1.489,-0.450294,-1.454885,1.709426,99805.37,-38,-136,+198
55240,11.461,-7.148,-2.240,-0.626954,-1.228738,1.483279,99805.37,-38,-136,+198
55250,10.245,-5.101,-1.541,-0.457211,-1.058463,1.315665,99808.41,-37,-138,+195
55260,8.535,-2.668,-0.748,-0.163487,-0.910005,1.204986,99805.70,-37,-141,+194
55270,7.412,-1.864,-0.531,0.139816,-0.822739,1.166674,99804.41,-35,-142,+194
55280,7.151,-2.930,-0.248,0.394696,-0.733344,1.170931,99804.41,-35,-142,+194
55289,8.231,-4.558,0.737,0.400550,-0.577436,1.143261,99804.41,-35,-142,+193
55300,9.221,-5.333,1.826,0.167486,-0.428977,1.095371,99807.95,-33,-142,+194
55310,8.662,-5.484,2.617,-0.103890,-0.319895,0.992674,99806.91,-31,-144,+193
55320,7.704,-5.311,2.487,-0.272569,-0.260831,0.833041,99806.44,-31,-144,+193
55330,7.382,-4.770,2.443,-0.402404,-0.202831,0.676069,99807.58,-29,-145,+193
55340,7.928,-4.029,1.997,-0.503505,-0.160262,0.589335,99807.58,-28,-147,+191
55350,8.824,-3.115,1.220,-0.460404,-0.163987,0.582950,99808.03,-28,-149,+190
55360,9.390,-2.623,0.709,-0.233193,-0.227840,0.635096,99806.84,-28,-149,+190
55370,9.332,-2.805,0.619,0.041376,-0.296482,0.697353,99807.25,-26,-149,+190
55380,8.894,-3.807,0.597,0.208458,-0.343308,0.755353,99809.14,-25,-149,+190
55390,8.330,-4.971,0.900,0.187706,-0.354482,0.794729,99808.78,-24,-150,+190
55400,8.093,-5.465,1.489,0.014238,-0.329473,0.807500,99808.05,-24,-150,+190
55410,8.267,-5.097,1.985,-0.204459,-0.295950,0.823995,99808.05,-22,-151,+189
55419,8.500,-4.376,1.967,-0.353982,-0.291693,0.849005,99806.34,-21,-153,+188
55430,8.763,-4.035,1.404,-0.379523,-0.318831,0.877206,99807.69,-20,-155,+188
55440,9.073,-3.969,1.030,-0.291725,-0.364592,0.909665,99807.69,-20,-155,+188
55450,9.082,-4.293,0.999,-0.160294,-0.413546,0.945849,99809.64,-17,-155,+187
55460,8.679,-4.789,0.793,-0.083138,-0.450262,0.970858,99804.19,-15,-157,+186
55470,8.139,-5.269,0.732,-0.091120,-0.447601,0.970326,99806.31,-14,-158,+186
55480,7.958,-5.696,0.848,-0.164551,-0.418867,0.958619,99805.44,-14,-158,+186
